[Header]
Application Name	LabSolutions
Version	5.110
Data File Name	C:\Users\User\Desktop\GC Analyses\Jack\Nachusa Grasslands Sampling\T1 Timepoint July 12th\T1_07122022_060.gcd
Output Date	3/14/2023
Output Time	3:41:00 PM

[File Information]
Type	Data File
Generated	3/8/2023 7:54:17 PM
Generated by	System Administrator
Modified	3/8/2023 8:01:09 PM
Modified by	System Administrator

[Sample Information]
Operator Name	System Administrator
Acquired	3/8/2023 7:57:08 PM
Sample Type	0:Unknown
Level	0
Sample Name	060
Sample ID	060
ISTD Amount1	1
ISTD Amount2	1
ISTD Amount3	1
ISTD Amount4	1
ISTD Amount5	1
ISTD Amount6	1
ISTD Amount7	1
ISTD Amount8	1
ISTD Amount9	1
ISTD Amount10	1
ISTD Amount11	1
ISTD Amount12	1
ISTD Amount13	1
ISTD Amount14	1
ISTD Amount15	1
ISTD Amount16	1
ISTD Amount17	1
ISTD Amount18	1
ISTD Amount19	1
ISTD Amount20	1
ISTD Amount21	1
ISTD Amount22	1
ISTD Amount23	1
ISTD Amount24	1
ISTD Amount25	1
ISTD Amount26	1
ISTD Amount27	1
ISTD Amount28	1
ISTD Amount29	1
ISTD Amount30	1
ISTD Amount31	1
ISTD Amount32	1
Sample Amount	1
Dilution Factor	1
Vial#	59
Injection Volume	1
Injection Count	1
Bar Code	

[Original Files]
Data File	C:\Users\User\Desktop\GC Analyses\Jack\Nachusa Grasslands Sampling\T1 Timepoint July 12th\T1_07122022_060.gcd
Method File	C:\LabSolutions\Data\GHG_4min_2022\ghg3_togas_w_acet_4 min_new_int.gcm
Batch File	C:\LabSolutions\Data\AutoSamplerTesting\T1_07122022.gcb
Report Format File	c:\LabSolutions\System\DEFAULT.lsr

[File Description]


[Configuration]
Instrument Name	C0B7VH3-Instrument1
Instrument #	1
Line #	1
# of Detectors	3
Detector ID	DET#1	DET#2	DET#3
Detector Name	FID	PTCD	ECD
# of Channels	1	1	1

[Peak Table(Ch1)]
# of Peaks	3
Peak#	R.Time	I.Time	F.Time	Area	Height	A/H	Conc.	Mark	ID#	Name	k'	Plate #	Plate Ht.	Tailing	Resolution	Sep.Factor	Area Ratio	Height Ratio	Conc. %	Norm Conc.
1	1.476	1.439	1.538	28043	13257	2.115	197.987	   	1	CO	0.000	9093	16.496	1.311	0.000	0.000	0	0	21.843	21.843
2	1.567	1.538	1.619	4729	2332	2.028	91.436	 V 	2	CH4	0.062	10609	14.139	0.000	1.493	0.000	0	0	10.088	10.088
3	1.996	1.949	2.565	2458326	1163731	2.112	616.973	   	3	CO2	0.353	17231	8.705	1.304	7.050	5.680	0	0	68.069	68.069

[Peak Table(Ch2)]
# of Peaks	0

[Peak Table(Ch3)]
# of Peaks	5
Peak#	R.Time	I.Time	F.Time	Area	Height	A/H	Conc.	Mark	ID#	Name	k'	Plate #	Plate Ht.	Tailing	Resolution	Sep.Factor	Area Ratio	Height Ratio	Conc. %	Norm Conc.
1	0.959	0.838	1.109	198	22	9.071	0.000	   			0.000	1827	82.107	1.110	0.000	0.000	0	0	0.000	0.000
2	2.462	2.114	2.513	3018	565	5.344	0.000	   			1.568	7323	20.484	0.000	14.681	0.000	0	0	0.000	0.000
3	2.539	2.513	2.634	1477	335	4.406	0.000	 V 			1.648	2686	55.839	0.000	0.495	1.051	0	0	0.000	0.000
4	2.675	2.645	2.737	115	47	2.448	0.000	   			1.790	24730	6.066	1.518	1.028	1.086	0	0	0.000	0.000
5	2.873	2.799	3.118	18492	4866	3.801	0.472	   	1	N2O	1.997	13363	11.225	1.682	2.365	1.115	0	0	100.000	100.000

[Compound Results(Ch1)]
# of IDs	6
ID#	Name	R.Time	Area	Height	Conc.	Curve	3rd	2nd	1st	Constant	Area Ratio	Height Ratio	Conc. %	Norm Conc.
1	CO	1.476	28043	13257	197.987	Linear	0.000000e+00	0.000000e+00	1.416423e+002	0.000000e+00	0	0	21.843	21.843
2	CH4	1.567	4729	2332	91.436	Linear	0.000000e+00	0.000000e+00	5.171738e+001	0.000000e+00	0	0	10.088	10.088
3	CO2	1.996	2458326	1163731	616.973	Linear	0.000000e+00	0.000000e+00	3.984494e+003	0.000000e+00	0	0	68.069	68.069
4	Ethylene	0.000	0	0	0.000	Linear	0.000000e+00	0.000000e+00	0.000000e+00	0.000000e+00	0	0	0.000	0.000
5	Acetylene	0.000	0	0	0.000	Linear	0.000000e+00	0.000000e+00	0.000000e+00	0.000000e+00	0	0	0.000	0.000
6	Ethane	0.000	0	0	0.000	Linear	0.000000e+00	0.000000e+00	0.000000e+00	0.000000e+00	0	0	0.000	0.000

[Compound Results(Ch2)]
# of IDs	5
ID#	Name	R.Time	Area	Height	Conc.	Curve	3rd	2nd	1st	Constant	Area Ratio	Height Ratio	Conc. %	Norm Conc.
1	Hydrogen	0.000	0	0	0.000	Linear	0.000000e+00	0.000000e+00	0.000000e+00	0.000000e+00	0	0	0.000	0.000
2	Oxygen	0.000	0	0	0.000	Linear	0.000000e+00	0.000000e+00	0.000000e+00	0.000000e+00	0	0	0.000	0.000
3	Nitrogen	0.000	0	0	0.000	Linear	0.000000e+00	0.000000e+00	0.000000e+00	0.000000e+00	0	0	0.000	0.000
4	Methane	0.000	0	0	0.000	Linear	0.000000e+00	0.000000e+00	0.000000e+00	0.000000e+00	0	0	0.000	0.000
5	Carbon Monoxide	0.000	0	0	0.000	Linear	0.000000e+00	0.000000e+00	0.000000e+00	0.000000e+00	0	0	0.000	0.000

[Compound Results(Ch3)]
# of IDs	2
ID#	Name	R.Time	Area	Height	Conc.	Curve	3rd	2nd	1st	Constant	Area Ratio	Height Ratio	Conc. %	Norm Conc.
1	N2O	2.873	18492	4866	0.472	Linear	0.000000e+00	0.000000e+00	3.915173e+004	0.000000e+00	0	0	100.000	100.000
2	SF6	0.000	0	0	0.000	Linear	0.000000e+00	0.000000e+00	0.000000e+00	0.000000e+00	0	0	0.000	0.000

[Group Results(Ch1)]
# of Groups	0

[Group Results(Ch2)]
# of Groups	0

[Group Results(Ch3)]
# of Groups	0

[Chromatogram (Ch1)]
Interval(msec)	220
# of Points	1091
Start Time(min)	0.002
End Time(min)	3.998
R.Time (min)	Intensity
0.00167	5
0.00533	13
0.00900	17
0.01267	19
0.01633	17
0.02000	12
0.02367	5
0.02733	1
0.03100	-3
0.03467	-4
0.03833	-3
0.04200	-5
0.04567	-12
0.04933	-18
0.05300	-19
0.05667	-14
0.06033	-6
0.06400	3
0.06767	10
0.07133	14
0.07500	16
0.07867	15
0.08233	15
0.08600	15
0.08967	15
0.09333	16
0.09700	18
0.10067	20
0.10433	20
0.10800	18
0.11167	17
0.11533	18
0.11900	20
0.12267	24
0.12633	31
0.13000	38
0.13367	42
0.13733	47
0.14100	51
0.14467	50
0.14833	42
0.15200	28
0.15567	13
0.15933	5
0.16300	7
0.16667	10
0.17033	10
0.17400	3
0.17767	-4
0.18133	-7
0.18500	-7
0.18867	-4
0.19233	4
0.19600	11
0.19967	14
0.20333	15
0.20700	15
0.21067	14
0.21433	11
0.21800	7
0.22167	5
0.22533	5
0.22900	8
0.23267	12
0.23633	15
0.24000	18
0.24367	23
0.24733	26
0.25100	24
0.25467	21
0.25833	19
0.26200	17
0.26567	16
0.26933	15
0.27300	11
0.27667	4
0.28033	-0
0.28400	4
0.28767	14
0.29133	24
0.29500	33
0.29867	37
0.30233	35
0.30600	29
0.30967	24
0.31333	23
0.31700	25
0.32067	27
0.32433	27
0.32800	25
0.33167	21
0.33533	14
0.33900	6
0.34267	-1
0.34633	-2
0.35000	-1
0.35367	3
0.35733	9
0.36100	15
0.36467	17
0.36833	18
0.37200	17
0.37567	12
0.37933	5
0.38300	-2
0.38667	-3
0.39033	-1
0.39400	5
0.39767	13
0.40133	19
0.40500	19
0.40867	17
0.41233	17
0.41600	20
0.41967	25
0.42333	32
0.42700	39
0.43067	41
0.43433	42
0.43800	46
0.44167	45
0.44533	38
0.44900	29
0.45267	18
0.45633	12
0.46000	12
0.46367	17
0.46733	21
0.47100	21
0.47467	22
0.47833	22
0.48200	24
0.48567	24
0.48933	23
0.49300	21
0.49667	21
0.50033	23
0.50400	26
0.50767	26
0.51133	20
0.51500	14
0.51867	9
0.52233	4
0.52600	1
0.52967	-4
0.53333	-9
0.53700	-8
0.54067	-4
0.54433	-1
0.54800	2
0.55167	4
0.55533	7
0.55900	17
0.56267	25
0.56633	28
0.57000	26
0.57367	21
0.57733	16
0.58100	13
0.58467	10
0.58833	5
0.59200	3
0.59567	7
0.59933	18
0.60300	29
0.60667	36
0.61033	40
0.61400	38
0.61767	32
0.62133	28
0.62500	23
0.62867	17
0.63233	17
0.63600	20
0.63967	21
0.64333	21
0.64700	21
0.65067	20
0.65433	21
0.65800	20
0.66167	18
0.66533	17
0.66900	16
0.67267	14
0.67633	12
0.68000	10
0.68367	5
0.68733	-2
0.69100	-6
0.69467	-4
0.69833	1
0.70200	5
0.70567	11
0.70933	14
0.71300	15
0.71667	13
0.72033	10
0.72400	10
0.72767	15
0.73133	17
0.73500	17
0.73867	17
0.74233	16
0.74600	16
0.74967	18
0.75333	21
0.75700	24
0.76067	25
0.76433	26
0.76800	27
0.77167	22
0.77533	13
0.77900	2
0.78267	-6
0.78633	-9
0.79000	-5
0.79367	2
0.79733	7
0.80100	6
0.80467	2
0.80833	6
0.81200	11
0.81567	12
0.81933	11
0.82300	6
0.82667	1
0.83033	-1
0.83400	-2
0.83767	-3
0.84133	-4
0.84500	-6
0.84867	-7
0.85233	-7
0.85600	-3
0.85967	-0
0.86333	1
0.86700	3
0.87067	3
0.87433	1
0.87800	0
0.88167	-2
0.88533	-6
0.88900	-14
0.89267	-20
0.89633	-20
0.90000	-17
0.90367	-11
0.90733	-6
0.91100	-3
0.91467	-4
0.91833	-5
0.92200	-5
0.92567	-9
0.92933	-15
0.93300	-18
0.93667	-16
0.94033	-14
0.94400	-10
0.94767	-2
0.95133	6
0.95500	13
0.95867	17
0.96233	21
0.96600	26
0.96967	35
0.97333	44
0.97700	49
0.98067	47
0.98433	40
0.98800	34
0.99167	31
0.99533	32
0.99900	35
1.00267	36
1.00633	34
1.01000	26
1.01367	19
1.01733	19
1.02100	22
1.02467	25
1.02833	28
1.03200	28
1.03567	29
1.03933	30
1.04300	24
1.04667	14
1.05033	8
1.05400	8
1.05767	9
1.06133	7
1.06500	5
1.06867	4
1.07233	6
1.07600	12
1.07967	18
1.08333	22
1.08700	25
1.09067	26
1.09433	26
1.09800	22
1.10167	23
1.10533	27
1.10900	29
1.11267	27
1.11633	25
1.12000	29
1.12367	32
1.12733	33
1.13100	30
1.13467	28
1.13833	26
1.14200	27
1.14567	26
1.14933	21
1.15300	18
1.15667	20
1.16033	20
1.16400	18
1.16767	16
1.17133	21
1.17500	27
1.17867	26
1.18233	22
1.18600	20
1.18967	24
1.19333	29
1.19700	35
1.20067	37
1.20433	34
1.20800	30
1.21167	29
1.21533	26
1.21900	18
1.22267	11
1.22633	7
1.23000	7
1.23367	7
1.23733	5
1.24100	2
1.24467	-1
1.24833	-4
1.25200	-7
1.25567	-11
1.25933	-13
1.26300	-14
1.26667	-13
1.27033	-10
1.27400	-5
1.27767	0
1.28133	3
1.28500	6
1.28867	8
1.29233	7
1.29600	3
1.29967	-4
1.30333	-11
1.30700	-13
1.31067	-14
1.31433	-18
1.31800	-21
1.32167	-20
1.32533	-13
1.32900	-6
1.33267	1
1.33633	3
1.34000	-1
1.34367	-8
1.34733	-17
1.35100	-22
1.35467	-24
1.35833	-22
1.36200	-22
1.36567	-24
1.36933	-27
1.37300	-29
1.37667	-30
1.38033	-34
1.38400	-39
1.38767	-46
1.39133	-52
1.39500	-54
1.39867	-53
1.40233	-49
1.40600	-43
1.40967	-35
1.41333	-27
1.41700	-22
1.42067	-20
1.42433	-19
1.42800	-19
1.43167	-19
1.43533	-17
1.43900	5
1.44267	102
1.44633	341
1.45000	895
1.45367	2155
1.45733	4256
1.46100	6801
1.46467	9246
1.46833	11243
1.47200	12625
1.47567	13268
1.47933	13058
1.48300	11992
1.48667	10280
1.49033	8289
1.49400	6364
1.49767	4715
1.50133	3414
1.50500	2444
1.50867	1745
1.51233	1255
1.51600	915
1.51967	681
1.52333	520
1.52700	415
1.53067	345
1.53433	301
1.53800	283
1.54167	321
1.54533	480
1.54900	790
1.55267	1204
1.55633	1625
1.56000	1979
1.56367	2230
1.56733	2356
1.57100	2326
1.57467	2128
1.57833	1799
1.58200	1415
1.58567	1051
1.58933	748
1.59300	516
1.59667	347
1.60033	232
1.60400	154
1.60767	97
1.61133	59
1.61500	39
1.61867	31
1.62233	28
1.62600	23
1.62967	17
1.63333	10
1.63700	6
1.64067	5
1.64433	1
1.64800	-3
1.65167	-7
1.65533	-9
1.65900	-6
1.66267	2
1.66633	6
1.67000	9
1.67367	6
1.67733	-1
1.68100	-9
1.68467	-16
1.68833	-25
1.69200	-30
1.69567	-31
1.69933	-36
1.70300	-44
1.70667	-53
1.71033	-60
1.71400	-62
1.71767	-58
1.72133	-51
1.72500	-44
1.72867	-38
1.73233	-35
1.73600	-30
1.73967	-26
1.74333	-23
1.74700	-19
1.75067	-16
1.75433	-18
1.75800	-24
1.76167	-33
1.76533	-39
1.76900	-44
1.77267	-48
1.77633	-51
1.78000	-50
1.78367	-48
1.78733	-48
1.79100	-48
1.79467	-44
1.79833	-36
1.80200	-21
1.80567	-12
1.80933	-14
1.81300	-20
1.81667	-27
1.82033	-33
1.82400	-36
1.82767	-38
1.83133	-40
1.83500	-41
1.83867	-40
1.84233	-38
1.84600	-35
1.84967	-33
1.85333	-31
1.85700	-32
1.86067	-36
1.86433	-43
1.86800	-46
1.87167	-42
1.87533	-34
1.87900	-25
1.88267	-20
1.88633	-20
1.89000	-21
1.89367	-22
1.89733	-25
1.90100	-26
1.90467	-27
1.90833	-31
1.91200	-37
1.91567	-41
1.91933	-43
1.92300	-44
1.92667	-42
1.93033	-40
1.93400	-39
1.93767	-36
1.94133	-35
1.94500	-32
1.94867	-22
1.95233	8
1.95600	185
1.95967	1239
1.96333	6195
1.96700	23779
1.97067	71549
1.97433	171583
1.97800	334455
1.98167	545456
1.98533	768995
1.98900	965004
1.99267	1102809
1.99633	1163746
2.00000	1142549
2.00367	1047896
2.00733	900922
2.01100	730077
2.01467	562189
2.01833	415581
2.02200	298232
2.02567	210095
2.02933	146818
2.03300	102752
2.03667	72651
2.04033	52301
2.04400	38575
2.04767	29272
2.05133	22893
2.05500	18444
2.05867	15273
2.06233	12961
2.06600	11232
2.06967	9904
2.07333	8856
2.07700	8009
2.08067	7313
2.08433	6731
2.08800	6244
2.09167	5831
2.09533	5468
2.09900	5141
2.10267	4847
2.10633	4584
2.11000	4349
2.11367	4134
2.11733	3934
2.12100	3748
2.12467	3576
2.12833	3418
2.13200	3274
2.13567	3144
2.13933	3024
2.14300	2914
2.14667	2812
2.15033	2717
2.15400	2627
2.15767	2538
2.16133	2450
2.16500	2366
2.16867	2286
2.17233	2217
2.17600	2154
2.17967	2092
2.18333	2027
2.18700	1961
2.19067	1900
2.19433	1846
2.19800	1798
2.20167	1751
2.20533	1705
2.20900	1662
2.21267	1625
2.21633	1596
2.22000	1565
2.22367	1521
2.22733	1476
2.23100	1433
2.23467	1398
2.23833	1369
2.24200	1343
2.24567	1318
2.24933	1296
2.25300	1273
2.25667	1251
2.26033	1231
2.26400	1212
2.26767	1190
2.27133	1165
2.27500	1142
2.27867	1116
2.28233	1090
2.28600	1066
2.28967	1043
2.29333	1020
2.29700	1003
2.30067	990
2.30433	983
2.30800	973
2.31167	957
2.31533	938
2.31900	920
2.32267	899
2.32633	873
2.33000	850
2.33367	834
2.33733	825
2.34100	819
2.34467	810
2.34833	798
2.35200	788
2.35567	780
2.35933	770
2.36300	762
2.36667	757
2.37033	755
2.37400	754
2.37767	750
2.38133	742
2.38500	729
2.38867	716
2.39233	704
2.39600	692
2.39967	681
2.40333	669
2.40700	659
2.41067	652
2.41433	647
2.41800	644
2.42167	642
2.42533	642
2.42900	646
2.43267	647
2.43633	641
2.44000	631
2.44367	620
2.44733	605
2.45100	591
2.45467	581
2.45833	577
2.46200	582
2.46567	588
2.46933	584
2.47300	573
2.47667	559
2.48033	548
2.48400	545
2.48767	545
2.49133	541
2.49500	530
2.49867	517
2.50233	506
2.50600	494
2.50967	483
2.51333	476
2.51700	473
2.52067	472
2.52433	473
2.52800	473
2.53167	471
2.53533	469
2.53900	466
2.54267	463
2.54633	460
2.55000	456
2.55367	455
2.55733	458
2.56100	461
2.56467	461
2.56833	462
2.57200	462
2.57567	459
2.57933	452
2.58300	447
2.58667	445
2.59033	443
2.59400	441
2.59767	439
2.60133	433
2.60500	421
2.60867	409
2.61233	394
2.61600	382
2.61967	373
2.62333	366
2.62700	365
2.63067	367
2.63433	370
2.63800	372
2.64167	369
2.64533	367
2.64900	367
2.65267	368
2.65633	370
2.66000	377
2.66367	385
2.66733	390
2.67100	390
2.67467	386
2.67833	380
2.68200	377
2.68567	376
2.68933	377
2.69300	376
2.69667	374
2.70033	371
2.70400	369
2.70767	368
2.71133	364
2.71500	361
2.71867	359
2.72233	358
2.72600	357
2.72967	359
2.73333	360
2.73700	364
2.74067	367
2.74433	367
2.74800	365
2.75167	361
2.75533	358
2.75900	360
2.76267	365
2.76633	368
2.77000	369
2.77367	365
2.77733	358
2.78100	348
2.78467	341
2.78833	336
2.79200	331
2.79567	327
2.79933	328
2.80300	331
2.80667	331
2.81033	330
2.81400	330
2.81767	332
2.82133	331
2.82500	328
2.82867	322
2.83233	319
2.83600	318
2.83967	318
2.84333	319
2.84700	328
2.85067	338
2.85433	340
2.85800	337
2.86167	335
2.86533	335
2.86900	334
2.87267	328
2.87633	322
2.88000	318
2.88367	319
2.88733	321
2.89100	321
2.89467	317
2.89833	315
2.90200	316
2.90567	313
2.90933	304
2.91300	292
2.91667	285
2.92033	289
2.92400	295
2.92767	300
2.93133	306
2.93500	311
2.93867	311
2.94233	311
2.94600	310
2.94967	310
2.95333	308
2.95700	305
2.96067	304
2.96433	306
2.96800	311
2.97167	317
2.97533	322
2.97900	327
2.98267	331
2.98633	329
2.99000	324
2.99367	319
2.99733	312
3.00100	307
3.00467	307
3.00833	308
3.01200	309
3.01567	310
3.01933	307
3.02300	297
3.02667	286
3.03033	281
3.03400	282
3.03767	284
3.04133	286
3.04500	282
3.04867	272
3.05233	266
3.05600	271
3.05967	284
3.06333	294
3.06700	298
3.07067	300
3.07433	293
3.07800	282
3.08167	273
3.08533	267
3.08900	263
3.09267	264
3.09633	267
3.10000	270
3.10367	272
3.10733	272
3.11100	270
3.11467	268
3.11833	265
3.12200	264
3.12567	271
3.12933	286
3.13300	299
3.13667	304
3.14033	303
3.14400	299
3.14767	294
3.15133	286
3.15500	278
3.15867	276
3.16233	277
3.16600	280
3.16967	281
3.17333	281
3.17700	279
3.18067	274
3.18433	269
3.18800	264
3.19167	255
3.19533	245
3.19900	237
3.20267	233
3.20633	231
3.21000	232
3.21367	236
3.21733	241
3.22100	248
3.22467	253
3.22833	257
3.23200	259
3.23567	260
3.23933	261
3.24300	263
3.24667	263
3.25033	263
3.25400	259
3.25767	255
3.26133	255
3.26500	256
3.26867	257
3.27233	257
3.27600	259
3.27967	257
3.28333	259
3.28700	264
3.29067	266
3.29433	267
3.29800	264
3.30167	257
3.30533	244
3.30900	232
3.31267	226
3.31633	226
3.32000	227
3.32367	230
3.32733	235
3.33100	242
3.33467	248
3.33833	249
3.34200	247
3.34567	242
3.34933	238
3.35300	238
3.35667	243
3.36033	250
3.36400	253
3.36767	245
3.37133	234
3.37500	228
3.37867	225
3.38233	224
3.38600	227
3.38967	232
3.39333	238
3.39700	244
3.40067	247
3.40433	247
3.40800	246
3.41167	245
3.41533	244
3.41900	241
3.42267	233
3.42633	224
3.43000	216
3.43367	211
3.43733	208
3.44100	207
3.44467	206
3.44833	208
3.45200	211
3.45567	215
3.45933	216
3.46300	212
3.46667	207
3.47033	205
3.47400	206
3.47767	210
3.48133	219
3.48500	223
3.48867	222
3.49233	218
3.49600	216
3.49967	214
3.50333	212
3.50700	209
3.51067	210
3.51433	211
3.51800	209
3.52167	205
3.52533	200
3.52900	197
3.53267	196
3.53633	198
3.54000	200
3.54367	198
3.54733	194
3.55100	193
3.55467	194
3.55833	194
3.56200	193
3.56567	191
3.56933	192
3.57300	195
3.57667	201
3.58033	204
3.58400	202
3.58767	194
3.59133	186
3.59500	185
3.59867	186
3.60233	183
3.60600	183
3.60967	187
3.61333	192
3.61700	191
3.62067	189
3.62433	189
3.62800	189
3.63167	187
3.63533	184
3.63900	184
3.64267	183
3.64633	178
3.65000	174
3.65367	174
3.65733	179
3.66100	186
3.66467	189
3.66833	186
3.67200	180
3.67567	179
3.67933	182
3.68300	186
3.68667	188
3.69033	188
3.69400	189
3.69767	189
3.70133	185
3.70500	175
3.70867	167
3.71233	167
3.71600	174
3.71967	175
3.72333	165
3.72700	152
3.73067	140
3.73433	132
3.73800	129
3.74167	128
3.74533	129
3.74900	130
3.75267	134
3.75633	142
3.76000	151
3.76367	156
3.76733	159
3.77100	158
3.77467	158
3.77833	156
3.78200	151
3.78567	139
3.78933	126
3.79300	119
3.79667	120
3.80033	130
3.80400	141
3.80767	148
3.81133	150
3.81500	148
3.81867	144
3.82233	140
3.82600	138
3.82967	137
3.83333	138
3.83700	140
3.84067	142
3.84433	146
3.84800	149
3.85167	146
3.85533	145
3.85900	147
3.86267	148
3.86633	148
3.87000	147
3.87367	151
3.87733	154
3.88100	152
3.88467	148
3.88833	139
3.89200	130
3.89567	127
3.89933	128
3.90300	130
3.90667	133
3.91033	135
3.91400	134
3.91767	133
3.92133	128
3.92500	123
3.92867	120
3.93233	121
3.93600	124
3.93967	124
3.94333	121
3.94700	118
3.95067	121
3.95433	124
3.95800	121
3.96167	118
3.96533	115
3.96900	114
3.97267	114
3.97633	113
3.98000	115
3.98367	119
3.98733	123
3.99100	124
3.99467	126
3.99833	127

[Chromatogram (Ch2)]
Interval(msec)	220
# of Points	1091
Start Time(min)	0.002
End Time(min)	3.998
R.Time (min)	Intensity
0.00167	-1
0.00533	-1
0.00900	-1
0.01267	-1
0.01633	-1
0.02000	-0
0.02367	-0
0.02733	-0
0.03100	0
0.03467	0
0.03833	1
0.04200	1
0.04567	2
0.04933	2
0.05300	2
0.05667	2
0.06033	1
0.06400	1
0.06767	1
0.07133	0
0.07500	-0
0.07867	-0
0.08233	-0
0.08600	-0
0.08967	-0
0.09333	-0
0.09700	-1
0.10067	-1
0.10433	-0
0.10800	-0
0.11167	-0
0.11533	0
0.11900	1
0.12267	1
0.12633	1
0.13000	1
0.13367	2
0.13733	2
0.14100	2
0.14467	2
0.14833	3
0.15200	3
0.15567	3
0.15933	3
0.16300	3
0.16667	3
0.17033	2
0.17400	2
0.17767	2
0.18133	2
0.18500	2
0.18867	1
0.19233	1
0.19600	2
0.19967	1
0.20333	1
0.20700	1
0.21067	1
0.21433	0
0.21800	-0
0.22167	-0
0.22533	-0
0.22900	0
0.23267	0
0.23633	1
0.24000	1
0.24367	1
0.24733	2
0.25100	2
0.25467	2
0.25833	2
0.26200	3
0.26567	3
0.26933	3
0.27300	3
0.27667	3
0.28033	3
0.28400	2
0.28767	2
0.29133	2
0.29500	2
0.29867	2
0.30233	2
0.30600	2
0.30967	2
0.31333	2
0.31700	2
0.32067	2
0.32433	2
0.32800	2
0.33167	2
0.33533	2
0.33900	2
0.34267	2
0.34633	2
0.35000	2
0.35367	2
0.35733	2
0.36100	2
0.36467	2
0.36833	2
0.37200	1
0.37567	1
0.37933	1
0.38300	1
0.38667	0
0.39033	0
0.39400	-0
0.39767	-0
0.40133	-0
0.40500	-1
0.40867	-1
0.41233	-1
0.41600	-1
0.41967	-1
0.42333	-1
0.42700	-1
0.43067	-1
0.43433	-1
0.43800	-1
0.44167	-1
0.44533	-1
0.44900	-1
0.45267	-1
0.45633	-1
0.46000	-1
0.46367	-1
0.46733	-0
0.47100	-0
0.47467	-0
0.47833	0
0.48200	-0
0.48567	-0
0.48933	-0
0.49300	-1
0.49667	-1
0.50033	-1
0.50400	-1
0.50767	-0
0.51133	-1
0.51500	-1
0.51867	-1
0.52233	-1
0.52600	-1
0.52967	-1
0.53333	-1
0.53700	-1
0.54067	-0
0.54433	-0
0.54800	0
0.55167	0
0.55533	0
0.55900	-0
0.56267	-0
0.56633	-0
0.57000	0
0.57367	1
0.57733	1
0.58100	1
0.58467	1
0.58833	1
0.59200	1
0.59567	1
0.59933	1
0.60300	0
0.60667	0
0.61033	0
0.61400	0
0.61767	-0
0.62133	-0
0.62500	-0
0.62867	-0
0.63233	-0
0.63600	-0
0.63967	-0
0.64333	-0
0.64700	-0
0.65067	-0
0.65433	-0
0.65800	-0
0.66167	-0
0.66533	-0
0.66900	-0
0.67267	0
0.67633	0
0.68000	0
0.68367	0
0.68733	0
0.69100	0
0.69467	0
0.69833	0
0.70200	0
0.70567	1
0.70933	1
0.71300	1
0.71667	1
0.72033	0
0.72400	1
0.72767	1
0.73133	1
0.73500	1
0.73867	1
0.74233	1
0.74600	1
0.74967	1
0.75333	1
0.75700	1
0.76067	0
0.76433	0
0.76800	0
0.77167	0
0.77533	0
0.77900	0
0.78267	0
0.78633	0
0.79000	0
0.79367	0
0.79733	0
0.80100	0
0.80467	0
0.80833	0
0.81200	-0
0.81567	-0
0.81933	-0
0.82300	-0
0.82667	-0
0.83033	-1
0.83400	-1
0.83767	-0
0.84133	-0
0.84500	-1
0.84867	-1
0.85233	-1
0.85600	-1
0.85967	-1
0.86333	-1
0.86700	-0
0.87067	-0
0.87433	-0
0.87800	-1
0.88167	-1
0.88533	-1
0.88900	-1
0.89267	-1
0.89633	-1
0.90000	-1
0.90367	-1
0.90733	-1
0.91100	-0
0.91467	-0
0.91833	0
0.92200	1
0.92567	1
0.92933	1
0.93300	1
0.93667	1
0.94033	1
0.94400	1
0.94767	1
0.95133	1
0.95500	1
0.95867	1
0.96233	1
0.96600	1
0.96967	1
0.97333	1
0.97700	1
0.98067	1
0.98433	1
0.98800	0
0.99167	-0
0.99533	-1
0.99900	-1
1.00267	-2
1.00633	-2
1.01000	-2
1.01367	-3
1.01733	-3
1.02100	-3
1.02467	-3
1.02833	-3
1.03200	-3
1.03567	-3
1.03933	-3
1.04300	-3
1.04667	-3
1.05033	-3
1.05400	-3
1.05767	-3
1.06133	-3
1.06500	-3
1.06867	-3
1.07233	-3
1.07600	-3
1.07967	-3
1.08333	-3
1.08700	-3
1.09067	-3
1.09433	-2
1.09800	-2
1.10167	-1
1.10533	-1
1.10900	-1
1.11267	-0
1.11633	-0
1.12000	-0
1.12367	-0
1.12733	0
1.13100	0
1.13467	1
1.13833	1
1.14200	1
1.14567	1
1.14933	1
1.15300	0
1.15667	-0
1.16033	-1
1.16400	-1
1.16767	-1
1.17133	-1
1.17500	-1
1.17867	-1
1.18233	-1
1.18600	-1
1.18967	-1
1.19333	-1
1.19700	-1
1.20067	-2
1.20433	-2
1.20800	-2
1.21167	-3
1.21533	-3
1.21900	-3
1.22267	-4
1.22633	-4
1.23000	-4
1.23367	-4
1.23733	-5
1.24100	-5
1.24467	-5
1.24833	-6
1.25200	-5
1.25567	-5
1.25933	-5
1.26300	-5
1.26667	-5
1.27033	-5
1.27400	-5
1.27767	-5
1.28133	-5
1.28500	-5
1.28867	-4
1.29233	-4
1.29600	-3
1.29967	-3
1.30333	-3
1.30700	-2
1.31067	-2
1.31433	-1
1.31800	-1
1.32167	-1
1.32533	-0
1.32900	-0
1.33267	-0
1.33633	-1
1.34000	-1
1.34367	-1
1.34733	-2
1.35100	-2
1.35467	-1
1.35833	-1
1.36200	-1
1.36567	-0
1.36933	0
1.37300	0
1.37667	0
1.38033	0
1.38400	0
1.38767	-0
1.39133	-0
1.39500	-0
1.39867	-0
1.40233	-0
1.40600	-1
1.40967	-1
1.41333	-1
1.41700	-1
1.42067	-1
1.42433	-1
1.42800	-1
1.43167	-1
1.43533	-1
1.43900	-2
1.44267	-2
1.44633	-2
1.45000	-2
1.45367	-2
1.45733	-2
1.46100	-2
1.46467	-3
1.46833	-3
1.47200	-3
1.47567	-3
1.47933	-4
1.48300	-4
1.48667	-4
1.49033	-4
1.49400	-5
1.49767	-5
1.50133	-5
1.50500	-5
1.50867	-5
1.51233	-4
1.51600	-4
1.51967	-4
1.52333	-4
1.52700	-4
1.53067	-4
1.53433	-4
1.53800	-4
1.54167	-4
1.54533	-4
1.54900	-5
1.55267	-5
1.55633	-5
1.56000	-5
1.56367	-5
1.56733	-5
1.57100	-5
1.57467	-5
1.57833	-5
1.58200	-5
1.58567	-5
1.58933	-5
1.59300	-5
1.59667	-6
1.60033	-6
1.60400	-7
1.60767	-8
1.61133	-9
1.61500	-10
1.61867	-12
1.62233	-15
1.62600	-17
1.62967	-20
1.63333	-23
1.63700	-26
1.64067	-30
1.64433	-33
1.64800	-37
1.65167	-40
1.65533	-44
1.65900	-47
1.66267	-51
1.66633	-55
1.67000	-59
1.67367	-64
1.67733	-69
1.68100	-74
1.68467	-79
1.68833	-84
1.69200	-88
1.69567	-91
1.69933	-95
1.70300	-98
1.70667	-100
1.71033	-102
1.71400	-104
1.71767	-106
1.72133	-107
1.72500	-108
1.72867	-109
1.73233	-109
1.73600	-110
1.73967	-110
1.74333	-111
1.74700	-111
1.75067	-112
1.75433	-112
1.75800	-113
1.76167	-113
1.76533	-114
1.76900	-114
1.77267	-115
1.77633	-115
1.78000	-115
1.78367	-114
1.78733	-114
1.79100	-113
1.79467	-113
1.79833	-113
1.80200	-114
1.80567	-115
1.80933	-116
1.81300	-117
1.81667	-117
1.82033	-118
1.82400	-117
1.82767	-117
1.83133	-117
1.83500	-116
1.83867	-116
1.84233	-116
1.84600	-116
1.84967	-117
1.85333	-117
1.85700	-117
1.86067	-116
1.86433	-116
1.86800	-116
1.87167	-116
1.87533	-116
1.87900	-116
1.88267	-116
1.88633	-115
1.89000	-115
1.89367	-115
1.89733	-115
1.90100	-114
1.90467	-114
1.90833	-114
1.91200	-114
1.91567	-113
1.91933	-113
1.92300	-114
1.92667	-114
1.93033	-115
1.93400	-115
1.93767	-116
1.94133	-116
1.94500	-116
1.94867	-116
1.95233	-115
1.95600	-114
1.95967	-113
1.96333	-112
1.96700	-111
1.97067	-110
1.97433	-110
1.97800	-110
1.98167	-110
1.98533	-110
1.98900	-111
1.99267	-111
1.99633	-110
2.00000	-110
2.00367	-110
2.00733	-109
2.01100	-108
2.01467	-108
2.01833	-107
2.02200	-106
2.02567	-105
2.02933	-104
2.03300	-104
2.03667	-104
2.04033	-104
2.04400	-104
2.04767	-104
2.05133	-105
2.05500	-105
2.05867	-105
2.06233	-105
2.06600	-105
2.06967	-104
2.07333	-104
2.07700	-104
2.08067	-104
2.08433	-103
2.08800	-103
2.09167	-103
2.09533	-103
2.09900	-103
2.10267	-103
2.10633	-102
2.11000	-102
2.11367	-102
2.11733	-102
2.12100	-102
2.12467	-102
2.12833	-101
2.13200	-101
2.13567	-100
2.13933	-100
2.14300	-100
2.14667	-99
2.15033	-99
2.15400	-98
2.15767	-97
2.16133	-97
2.16500	-96
2.16867	-95
2.17233	-95
2.17600	-95
2.17967	-95
2.18333	-94
2.18700	-94
2.19067	-93
2.19433	-93
2.19800	-92
2.20167	-91
2.20533	-90
2.20900	-89
2.21267	-88
2.21633	-88
2.22000	-88
2.22367	-89
2.22733	-89
2.23100	-90
2.23467	-90
2.23833	-91
2.24200	-91
2.24567	-91
2.24933	-91
2.25300	-90
2.25667	-89
2.26033	-88
2.26400	-87
2.26767	-86
2.27133	-86
2.27500	-85
2.27867	-85
2.28233	-85
2.28600	-85
2.28967	-86
2.29333	-86
2.29700	-87
2.30067	-87
2.30433	-87
2.30800	-87
2.31167	-86
2.31533	-85
2.31900	-84
2.32267	-84
2.32633	-83
2.33000	-82
2.33367	-82
2.33733	-81
2.34100	-80
2.34467	-79
2.34833	-78
2.35200	-78
2.35567	-77
2.35933	-76
2.36300	-75
2.36667	-74
2.37033	-72
2.37400	-69
2.37767	-66
2.38133	-62
2.38500	-58
2.38867	-54
2.39233	-50
2.39600	-46
2.39967	-42
2.40333	-38
2.40700	-34
2.41067	-30
2.41433	-27
2.41800	-24
2.42167	-22
2.42533	-20
2.42900	-19
2.43267	-18
2.43633	-16
2.44000	-15
2.44367	-14
2.44733	-13
2.45100	-11
2.45467	-10
2.45833	-8
2.46200	-7
2.46567	-6
2.46933	-5
2.47300	-4
2.47667	-2
2.48033	-1
2.48400	1
2.48767	2
2.49133	3
2.49500	4
2.49867	6
2.50233	7
2.50600	7
2.50967	8
2.51333	8
2.51700	9
2.52067	9
2.52433	10
2.52800	11
2.53167	11
2.53533	11
2.53900	12
2.54267	12
2.54633	12
2.55000	12
2.55367	12
2.55733	12
2.56100	12
2.56467	13
2.56833	14
2.57200	14
2.57567	13
2.57933	13
2.58300	12
2.58667	12
2.59033	11
2.59400	11
2.59767	11
2.60133	12
2.60500	12
2.60867	13
2.61233	14
2.61600	14
2.61967	15
2.62333	16
2.62700	16
2.63067	16
2.63433	16
2.63800	16
2.64167	16
2.64533	16
2.64900	16
2.65267	16
2.65633	17
2.66000	17
2.66367	18
2.66733	18
2.67100	18
2.67467	18
2.67833	18
2.68200	18
2.68567	18
2.68933	19
2.69300	19
2.69667	20
2.70033	20
2.70400	21
2.70767	22
2.71133	23
2.71500	23
2.71867	23
2.72233	24
2.72600	24
2.72967	23
2.73333	23
2.73700	22
2.74067	22
2.74433	22
2.74800	23
2.75167	23
2.75533	24
2.75900	24
2.76267	25
2.76633	25
2.77000	25
2.77367	25
2.77733	26
2.78100	26
2.78467	26
2.78833	26
2.79200	26
2.79567	25
2.79933	25
2.80300	24
2.80667	24
2.81033	24
2.81400	24
2.81767	24
2.82133	24
2.82500	25
2.82867	25
2.83233	25
2.83600	25
2.83967	24
2.84333	21
2.84700	17
2.85067	10
2.85433	-0
2.85800	-13
2.86167	-31
2.86533	-52
2.86900	-78
2.87267	-107
2.87633	-141
2.88000	-179
2.88367	-221
2.88733	-265
2.89100	-312
2.89467	-362
2.89833	-414
2.90200	-467
2.90567	-520
2.90933	-575
2.91300	-629
2.91667	-683
2.92033	-737
2.92400	-789
2.92767	-840
2.93133	-893
2.93500	-950
2.93867	-1010
2.94233	-1062
2.94600	-1097
2.94967	-1108
2.95333	-1092
2.95700	-1053
2.96067	-995
2.96433	-924
2.96800	-846
2.97167	-765
2.97533	-684
2.97900	-607
2.98267	-535
2.98633	-468
2.99000	-406
2.99367	-352
2.99733	-303
3.00100	-260
3.00467	-222
3.00833	-189
3.01200	-160
3.01567	-136
3.01933	-115
3.02300	-96
3.02667	-81
3.03033	-67
3.03400	-56
3.03767	-46
3.04133	-37
3.04500	-30
3.04867	-23
3.05233	-18
3.05600	-14
3.05967	-10
3.06333	-7
3.06700	-4
3.07067	-2
3.07433	1
3.07800	2
3.08167	4
3.08533	6
3.08900	7
3.09267	9
3.09633	10
3.10000	11
3.10367	11
3.10733	12
3.11100	13
3.11467	13
3.11833	14
3.12200	14
3.12567	15
3.12933	16
3.13300	16
3.13667	16
3.14033	17
3.14400	17
3.14767	17
3.15133	17
3.15500	18
3.15867	18
3.16233	18
3.16600	19
3.16967	19
3.17333	19
3.17700	19
3.18067	19
3.18433	19
3.18800	19
3.19167	18
3.19533	18
3.19900	18
3.20267	18
3.20633	18
3.21000	18
3.21367	19
3.21733	19
3.22100	19
3.22467	19
3.22833	19
3.23200	20
3.23567	20
3.23933	20
3.24300	20
3.24667	20
3.25033	20
3.25400	20
3.25767	21
3.26133	21
3.26500	21
3.26867	21
3.27233	21
3.27600	21
3.27967	21
3.28333	21
3.28700	21
3.29067	21
3.29433	21
3.29800	21
3.30167	21
3.30533	21
3.30900	21
3.31267	21
3.31633	21
3.32000	21
3.32367	21
3.32733	21
3.33100	21
3.33467	21
3.33833	21
3.34200	21
3.34567	21
3.34933	21
3.35300	21
3.35667	21
3.36033	22
3.36400	22
3.36767	22
3.37133	22
3.37500	22
3.37867	22
3.38233	22
3.38600	22
3.38967	22
3.39333	22
3.39700	22
3.40067	22
3.40433	22
3.40800	22
3.41167	22
3.41533	22
3.41900	23
3.42267	23
3.42633	23
3.43000	23
3.43367	24
3.43733	24
3.44100	24
3.44467	24
3.44833	25
3.45200	25
3.45567	25
3.45933	25
3.46300	26
3.46667	26
3.47033	26
3.47400	27
3.47767	27
3.48133	27
3.48500	27
3.48867	28
3.49233	28
3.49600	28
3.49967	27
3.50333	27
3.50700	27
3.51067	27
3.51433	27
3.51800	26
3.52167	26
3.52533	26
3.52900	26
3.53267	25
3.53633	25
3.54000	25
3.54367	25
3.54733	25
3.55100	25
3.55467	25
3.55833	25
3.56200	25
3.56567	25
3.56933	25
3.57300	25
3.57667	25
3.58033	25
3.58400	25
3.58767	25
3.59133	25
3.59500	25
3.59867	25
3.60233	25
3.60600	25
3.60967	25
3.61333	25
3.61700	25
3.62067	25
3.62433	25
3.62800	25
3.63167	25
3.63533	25
3.63900	25
3.64267	25
3.64633	25
3.65000	25
3.65367	26
3.65733	26
3.66100	26
3.66467	26
3.66833	26
3.67200	26
3.67567	26
3.67933	26
3.68300	26
3.68667	26
3.69033	26
3.69400	26
3.69767	26
3.70133	26
3.70500	26
3.70867	26
3.71233	26
3.71600	26
3.71967	26
3.72333	26
3.72700	26
3.73067	26
3.73433	27
3.73800	27
3.74167	27
3.74533	27
3.74900	27
3.75267	27
3.75633	27
3.76000	26
3.76367	26
3.76733	26
3.77100	26
3.77467	26
3.77833	25
3.78200	25
3.78567	25
3.78933	25
3.79300	24
3.79667	24
3.80033	24
3.80400	24
3.80767	23
3.81133	23
3.81500	22
3.81867	22
3.82233	22
3.82600	23
3.82967	23
3.83333	23
3.83700	24
3.84067	24
3.84433	24
3.84800	24
3.85167	24
3.85533	24
3.85900	24
3.86267	24
3.86633	24
3.87000	25
3.87367	25
3.87733	25
3.88100	25
3.88467	26
3.88833	26
3.89200	26
3.89567	26
3.89933	26
3.90300	26
3.90667	25
3.91033	25
3.91400	25
3.91767	25
3.92133	25
3.92500	25
3.92867	25
3.93233	25
3.93600	25
3.93967	25
3.94333	25
3.94700	25
3.95067	25
3.95433	25
3.95800	25
3.96167	25
3.96533	25
3.96900	25
3.97267	25
3.97633	25
3.98000	25
3.98367	25
3.98733	24
3.99100	24
3.99467	24
3.99833	24

[Chromatogram (Ch3)]
Interval(msec)	220
# of Points	1091
Start Time(min)	0.002
End Time(min)	3.998
R.Time (min)	Intensity
0.00167	0
0.00533	-2
0.00900	-3
0.01267	-4
0.01633	-3
0.02000	-2
0.02367	-2
0.02733	-3
0.03100	-3
0.03467	-3
0.03833	-3
0.04200	-4
0.04567	-5
0.04933	-4
0.05300	-2
0.05667	-1
0.06033	-1
0.06400	-2
0.06767	-2
0.07133	-3
0.07500	-2
0.07867	-1
0.08233	2
0.08600	3
0.08967	4
0.09333	3
0.09700	2
0.10067	1
0.10433	1
0.10800	1
0.11167	2
0.11533	2
0.11900	2
0.12267	1
0.12633	-1
0.13000	-2
0.13367	-1
0.13733	-1
0.14100	-3
0.14467	-6
0.14833	-7
0.15200	-6
0.15567	-5
0.15933	-5
0.16300	-5
0.16667	-4
0.17033	-2
0.17400	-1
0.17767	-1
0.18133	-2
0.18500	-1
0.18867	0
0.19233	2
0.19600	-1
0.19967	-4
0.20333	-5
0.20700	-5
0.21067	-4
0.21433	-3
0.21800	-2
0.22167	-2
0.22533	-1
0.22900	-0
0.23267	1
0.23633	1
0.24000	-2
0.24367	-4
0.24733	-6
0.25100	-5
0.25467	-3
0.25833	-2
0.26200	-3
0.26567	-4
0.26933	-3
0.27300	-2
0.27667	-2
0.28033	-2
0.28400	-2
0.28767	-3
0.29133	-3
0.29500	0
0.29867	1
0.30233	-1
0.30600	-2
0.30967	-2
0.31333	-2
0.31700	-1
0.32067	-0
0.32433	-0
0.32800	-2
0.33167	-4
0.33533	-4
0.33900	-4
0.34267	-3
0.34633	-3
0.35000	-3
0.35367	-1
0.35733	1
0.36100	2
0.36467	3
0.36833	2
0.37200	2
0.37567	1
0.37933	-2
0.38300	-2
0.38667	-2
0.39033	-1
0.39400	3
0.39767	6
0.40133	9
0.40500	7
0.40867	7
0.41233	7
0.41600	7
0.41967	5
0.42333	3
0.42700	3
0.43067	4
0.43433	7
0.43800	9
0.44167	8
0.44533	7
0.44900	7
0.45267	7
0.45633	8
0.46000	8
0.46367	6
0.46733	5
0.47100	5
0.47467	5
0.47833	5
0.48200	3
0.48567	3
0.48933	3
0.49300	4
0.49667	5
0.50033	5
0.50400	2
0.50767	2
0.51133	5
0.51500	7
0.51867	9
0.52233	11
0.52600	15
0.52967	15
0.53333	13
0.53700	11
0.54067	11
0.54433	10
0.54800	11
0.55167	12
0.55533	10
0.55900	9
0.56267	8
0.56633	8
0.57000	9
0.57367	11
0.57733	14
0.58100	13
0.58467	11
0.58833	9
0.59200	10
0.59567	10
0.59933	9
0.60300	10
0.60667	11
0.61033	9
0.61400	9
0.61767	10
0.62133	10
0.62500	10
0.62867	10
0.63233	9
0.63600	10
0.63967	12
0.64333	11
0.64700	10
0.65067	9
0.65433	9
0.65800	8
0.66167	9
0.66533	9
0.66900	6
0.67267	5
0.67633	5
0.68000	2
0.68367	2
0.68733	2
0.69100	2
0.69467	4
0.69833	6
0.70200	7
0.70567	7
0.70933	5
0.71300	6
0.71667	6
0.72033	8
0.72400	9
0.72767	9
0.73133	8
0.73500	8
0.73867	8
0.74233	8
0.74600	10
0.74967	11
0.75333	9
0.75700	8
0.76067	8
0.76433	8
0.76800	10
0.77167	12
0.77533	14
0.77900	14
0.78267	13
0.78633	15
0.79000	17
0.79367	16
0.79733	15
0.80100	14
0.80467	14
0.80833	14
0.81200	13
0.81567	14
0.81933	15
0.82300	15
0.82667	13
0.83033	10
0.83400	7
0.83767	8
0.84133	13
0.84500	17
0.84867	19
0.85233	20
0.85600	22
0.85967	23
0.86333	21
0.86700	21
0.87067	20
0.87433	18
0.87800	16
0.88167	17
0.88533	18
0.88900	19
0.89267	19
0.89633	20
0.90000	19
0.90367	19
0.90733	22
0.91100	22
0.91467	24
0.91833	26
0.92200	27
0.92567	27
0.92933	27
0.93300	26
0.93667	25
0.94033	24
0.94400	22
0.94767	24
0.95133	28
0.95500	31
0.95867	33
0.96233	33
0.96600	31
0.96967	29
0.97333	26
0.97700	25
0.98067	25
0.98433	25
0.98800	27
0.99167	29
0.99533	29
0.99900	27
1.00267	28
1.00633	30
1.01000	30
1.01367	31
1.01733	31
1.02100	31
1.02467	31
1.02833	31
1.03200	29
1.03567	27
1.03933	26
1.04300	27
1.04667	28
1.05033	27
1.05400	25
1.05767	22
1.06133	21
1.06500	22
1.06867	23
1.07233	23
1.07600	23
1.07967	21
1.08333	20
1.08700	19
1.09067	19
1.09433	18
1.09800	17
1.10167	17
1.10533	16
1.10900	15
1.11267	15
1.11633	17
1.12000	18
1.12367	19
1.12733	19
1.13100	19
1.13467	22
1.13833	22
1.14200	22
1.14567	20
1.14933	20
1.15300	19
1.15667	16
1.16033	11
1.16400	8
1.16767	8
1.17133	8
1.17500	10
1.17867	11
1.18233	13
1.18600	14
1.18967	15
1.19333	16
1.19700	16
1.20067	16
1.20433	17
1.20800	19
1.21167	19
1.21533	18
1.21900	17
1.22267	17
1.22633	16
1.23000	14
1.23367	16
1.23733	18
1.24100	18
1.24467	17
1.24833	18
1.25200	17
1.25567	17
1.25933	17
1.26300	17
1.26667	17
1.27033	15
1.27400	15
1.27767	16
1.28133	17
1.28500	18
1.28867	21
1.29233	23
1.29600	22
1.29967	19
1.30333	17
1.30700	17
1.31067	17
1.31433	19
1.31800	20
1.32167	20
1.32533	18
1.32900	17
1.33267	16
1.33633	17
1.34000	18
1.34367	20
1.34733	22
1.35100	21
1.35467	20
1.35833	20
1.36200	21
1.36567	22
1.36933	21
1.37300	21
1.37667	21
1.38033	22
1.38400	23
1.38767	23
1.39133	20
1.39500	19
1.39867	19
1.40233	20
1.40600	20
1.40967	21
1.41333	20
1.41700	19
1.42067	19
1.42433	18
1.42800	17
1.43167	18
1.43533	18
1.43900	20
1.44267	23
1.44633	25
1.45000	24
1.45367	22
1.45733	21
1.46100	20
1.46467	20
1.46833	19
1.47200	19
1.47567	20
1.47933	22
1.48300	21
1.48667	20
1.49033	21
1.49400	23
1.49767	22
1.50133	22
1.50500	21
1.50867	20
1.51233	20
1.51600	22
1.51967	25
1.52333	26
1.52700	26
1.53067	27
1.53433	27
1.53800	27
1.54167	27
1.54533	28
1.54900	27
1.55267	27
1.55633	29
1.56000	30
1.56367	28
1.56733	27
1.57100	28
1.57467	30
1.57833	29
1.58200	29
1.58567	29
1.58933	27
1.59300	27
1.59667	29
1.60033	30
1.60400	29
1.60767	30
1.61133	30
1.61500	31
1.61867	32
1.62233	32
1.62600	30
1.62967	31
1.63333	31
1.63700	31
1.64067	34
1.64433	33
1.64800	33
1.65167	35
1.65533	34
1.65900	32
1.66267	34
1.66633	36
1.67000	36
1.67367	36
1.67733	35
1.68100	33
1.68467	36
1.68833	40
1.69200	41
1.69567	43
1.69933	46
1.70300	48
1.70667	46
1.71033	41
1.71400	38
1.71767	38
1.72133	40
1.72500	42
1.72867	43
1.73233	44
1.73600	45
1.73967	44
1.74333	42
1.74700	41
1.75067	41
1.75433	39
1.75800	37
1.76167	38
1.76533	41
1.76900	44
1.77267	46
1.77633	47
1.78000	46
1.78367	47
1.78733	47
1.79100	47
1.79467	47
1.79833	48
1.80200	49
1.80567	52
1.80933	53
1.81300	53
1.81667	53
1.82033	56
1.82400	58
1.82767	57
1.83133	57
1.83500	56
1.83867	58
1.84233	60
1.84600	62
1.84967	61
1.85333	61
1.85700	60
1.86067	62
1.86433	62
1.86800	61
1.87167	59
1.87533	58
1.87900	58
1.88267	58
1.88633	60
1.89000	62
1.89367	63
1.89733	65
1.90100	65
1.90467	66
1.90833	65
1.91200	64
1.91567	66
1.91933	68
1.92300	68
1.92667	66
1.93033	66
1.93400	66
1.93767	65
1.94133	65
1.94500	67
1.94867	71
1.95233	74
1.95600	75
1.95967	74
1.96333	73
1.96700	74
1.97067	75
1.97433	76
1.97800	78
1.98167	82
1.98533	82
1.98900	81
1.99267	82
1.99633	81
2.00000	81
2.00367	81
2.00733	82
2.01100	83
2.01467	84
2.01833	82
2.02200	82
2.02567	85
2.02933	90
2.03300	93
2.03667	96
2.04033	99
2.04400	98
2.04767	99
2.05133	101
2.05500	102
2.05867	102
2.06233	103
2.06600	105
2.06967	107
2.07333	110
2.07700	111
2.08067	112
2.08433	113
2.08800	112
2.09167	112
2.09533	115
2.09900	116
2.10267	116
2.10633	115
2.11000	116
2.11367	119
2.11733	121
2.12100	124
2.12467	126
2.12833	127
2.13200	125
2.13567	124
2.13933	124
2.14300	125
2.14667	128
2.15033	129
2.15400	130
2.15767	132
2.16133	132
2.16500	132
2.16867	133
2.17233	135
2.17600	136
2.17967	140
2.18333	144
2.18700	147
2.19067	150
2.19433	152
2.19800	154
2.20167	153
2.20533	149
2.20900	149
2.21267	149
2.21633	151
2.22000	152
2.22367	156
2.22733	159
2.23100	162
2.23467	165
2.23833	168
2.24200	172
2.24567	171
2.24933	172
2.25300	173
2.25667	173
2.26033	172
2.26400	172
2.26767	172
2.27133	173
2.27500	176
2.27867	178
2.28233	181
2.28600	183
2.28967	185
2.29333	188
2.29700	191
2.30067	191
2.30433	192
2.30800	193
2.31167	196
2.31533	199
2.31900	201
2.32267	202
2.32633	204
2.33000	207
2.33367	208
2.33733	207
2.34100	208
2.34467	210
2.34833	210
2.35200	212
2.35567	214
2.35933	214
2.36300	213
2.36667	215
2.37033	219
2.37400	223
2.37767	225
2.38133	228
2.38500	229
2.38867	227
2.39233	228
2.39600	231
2.39967	235
2.40333	240
2.40700	244
2.41067	249
2.41433	254
2.41800	257
2.42167	258
2.42533	260
2.42900	262
2.43267	262
2.43633	263
2.44000	269
2.44367	305
2.44733	408
2.45100	521
2.45467	617
2.45833	676
2.46200	684
2.46567	660
2.46933	631
2.47300	608
2.47667	595
2.48033	585
2.48400	570
2.48767	544
2.49133	513
2.49500	477
2.49867	445
2.50233	422
2.50600	407
2.50967	397
2.51333	394
2.51700	396
2.52067	403
2.52433	416
2.52800	430
2.53167	443
2.53533	451
2.53900	454
2.54267	450
2.54633	439
2.55000	422
2.55367	402
2.55733	381
2.56100	363
2.56467	348
2.56833	336
2.57200	327
2.57567	322
2.57933	319
2.58300	316
2.58667	312
2.59033	306
2.59400	299
2.59767	289
2.60133	277
2.60500	259
2.60867	236
2.61233	212
2.61600	189
2.61967	167
2.62333	150
2.62700	137
2.63067	126
2.63433	119
2.63800	116
2.64167	119
2.64533	126
2.64900	132
2.65267	137
2.65633	146
2.66000	157
2.66367	167
2.66733	175
2.67100	180
2.67467	185
2.67833	185
2.68200	184
2.68567	183
2.68933	179
2.69300	173
2.69667	169
2.70033	168
2.70400	167
2.70767	166
2.71133	164
2.71500	164
2.71867	163
2.72233	163
2.72600	162
2.72967	163
2.73333	163
2.73700	164
2.74067	164
2.74433	165
2.74800	168
2.75167	169
2.75533	171
2.75900	172
2.76267	175
2.76633	179
2.77000	183
2.77367	185
2.77733	183
2.78100	182
2.78467	182
2.78833	182
2.79200	181
2.79567	179
2.79933	180
2.80300	181
2.80667	183
2.81033	186
2.81400	190
2.81767	200
2.82133	217
2.82500	257
2.82867	335
2.83233	473
2.83600	696
2.83967	1020
2.84333	1449
2.84700	1971
2.85067	2558
2.85433	3168
2.85800	3754
2.86167	4267
2.86533	4666
2.86900	4928
2.87267	5043
2.87633	5016
2.88000	4868
2.88367	4629
2.88733	4328
2.89100	3991
2.89467	3641
2.89833	3291
2.90200	2954
2.90567	2638
2.90933	2347
2.91300	2080
2.91667	1842
2.92033	1635
2.92400	1451
2.92767	1290
2.93133	1150
2.93500	1027
2.93867	920
2.94233	828
2.94600	748
2.94967	678
2.95333	616
2.95700	563
2.96067	518
2.96433	479
2.96800	446
2.97167	414
2.97533	387
2.97900	364
2.98267	344
2.98633	329
2.99000	316
2.99367	306
2.99733	295
3.00100	283
3.00467	271
3.00833	261
3.01200	251
3.01567	244
3.01933	241
3.02300	237
3.02667	230
3.03033	224
3.03400	221
3.03767	218
3.04133	214
3.04500	209
3.04867	205
3.05233	201
3.05600	196
3.05967	193
3.06333	190
3.06700	189
3.07067	187
3.07433	186
3.07800	185
3.08167	182
3.08533	181
3.08900	178
3.09267	176
3.09633	177
3.10000	177
3.10367	177
3.10733	176
3.11100	174
3.11467	171
3.11833	169
3.12200	168
3.12567	166
3.12933	165
3.13300	165
3.13667	167
3.14033	169
3.14400	170
3.14767	171
3.15133	171
3.15500	169
3.15867	167
3.16233	166
3.16600	166
3.16967	166
3.17333	167
3.17700	167
3.18067	168
3.18433	170
3.18800	172
3.19167	173
3.19533	174
3.19900	174
3.20267	174
3.20633	175
3.21000	178
3.21367	181
3.21733	185
3.22100	188
3.22467	187
3.22833	186
3.23200	185
3.23567	184
3.23933	184
3.24300	185
3.24667	186
3.25033	190
3.25400	192
3.25767	191
3.26133	190
3.26500	190
3.26867	188
3.27233	189
3.27600	189
3.27967	188
3.28333	187
3.28700	186
3.29067	186
3.29433	186
3.29800	187
3.30167	187
3.30533	187
3.30900	185
3.31267	184
3.31633	185
3.32000	186
3.32367	185
3.32733	186
3.33100	186
3.33467	186
3.33833	184
3.34200	182
3.34567	182
3.34933	182
3.35300	181
3.35667	180
3.36033	179
3.36400	179
3.36767	181
3.37133	184
3.37500	186
3.37867	188
3.38233	190
3.38600	190
3.38967	191
3.39333	192
3.39700	191
3.40067	191
3.40433	190
3.40800	190
3.41167	189
3.41533	189
3.41900	188
3.42267	189
3.42633	187
3.43000	188
3.43367	192
3.43733	194
3.44100	193
3.44467	191
3.44833	190
3.45200	191
3.45567	194
3.45933	196
3.46300	198
3.46667	197
3.47033	194
3.47400	193
3.47767	191
3.48133	193
3.48500	194
3.48867	195
3.49233	196
3.49600	197
3.49967	199
3.50333	201
3.50700	201
3.51067	200
3.51433	202
3.51800	203
3.52167	204
3.52533	207
3.52900	210
3.53267	211
3.53633	208
3.54000	207
3.54367	206
3.54733	207
3.55100	209
3.55467	209
3.55833	210
3.56200	212
3.56567	213
3.56933	210
3.57300	210
3.57667	210
3.58033	208
3.58400	203
3.58767	189
3.59133	167
3.59500	148
3.59867	138
3.60233	135
3.60600	138
3.60967	144
3.61333	155
3.61700	167
3.62067	180
3.62433	192
3.62800	204
3.63167	216
3.63533	231
3.63900	247
3.64267	265
3.64633	284
3.65000	301
3.65367	316
3.65733	331
3.66100	347
3.66467	361
3.66833	373
3.67200	384
3.67567	394
3.67933	403
3.68300	410
3.68667	416
3.69033	421
3.69400	427
3.69767	434
3.70133	440
3.70500	443
3.70867	447
3.71233	449
3.71600	449
3.71967	452
3.72333	453
3.72700	455
3.73067	455
3.73433	457
3.73800	457
3.74167	460
3.74533	464
3.74900	465
3.75267	465
3.75633	464
3.76000	463
3.76367	462
3.76733	463
3.77100	464
3.77467	464
3.77833	465
3.78200	463
3.78567	463
3.78933	464
3.79300	465
3.79667	463
3.80033	461
3.80400	460
3.80767	461
3.81133	463
3.81500	463
3.81867	462
3.82233	461
3.82600	460
3.82967	460
3.83333	459
3.83700	457
3.84067	456
3.84433	457
3.84800	458
3.85167	459
3.85533	460
3.85900	459
3.86267	459
3.86633	460
3.87000	458
3.87367	456
3.87733	453
3.88100	452
3.88467	452
3.88833	451
3.89200	451
3.89567	449
3.89933	450
3.90300	453
3.90667	454
3.91033	451
3.91400	450
3.91767	454
3.92133	455
3.92500	454
3.92867	454
3.93233	455
3.93600	457
3.93967	458
3.94333	458
3.94700	458
3.95067	457
3.95433	455
3.95800	453
3.96167	451
3.96533	449
3.96900	448
3.97267	449
3.97633	449
3.98000	449
3.98367	449
3.98733	449
3.99100	450
3.99467	453
3.99833	452

[Status Trace (Column Oven Temperature)]
Interval(msec)	1000
# of Points	240
Start Time(min)	0.014
End Time(min)	3.997
Intensity Units	
Intensity Multiplier	1
R.Time (min)	Intensity
0.01412	35.06
0.03078	35.06
0.04745	35.06
0.06412	35.06
0.08078	35.07
0.09745	35.08
0.11412	35.08
0.13078	35.08
0.14745	35.07
0.16412	35.06
0.18078	35.07
0.19745	35.06
0.21412	35.05
0.23078	35.04
0.24745	35.03
0.26412	35.03
0.28078	35.03
0.29745	35.02
0.31412	35.01
0.33078	35.01
0.34745	35.01
0.36412	35.01
0.38078	35.01
0.39745	35.01
0.41412	35.02
0.43078	35.02
0.44745	35.02
0.46412	35.03
0.48078	35.03
0.49745	35.02
0.51412	35.02
0.53078	35.02
0.54745	35.01
0.56412	35.02
0.58078	35.01
0.59745	35.00
0.61412	35.02
0.63078	35.01
0.64745	35.01
0.66412	35.01
0.68078	35.01
0.69745	35.01
0.71412	35.00
0.73078	34.98
0.74745	34.98
0.76412	34.98
0.78078	34.98
0.79745	34.98
0.81412	34.98
0.83078	34.99
0.84745	34.99
0.86412	34.99
0.88078	34.99
0.89745	34.99
0.91412	34.97
0.93078	34.97
0.94745	34.97
0.96412	34.96
0.98078	34.96
0.99745	34.97
1.01412	34.98
1.03078	34.99
1.04745	35.00
1.06412	35.00
1.08078	35.00
1.09745	34.98
1.11412	34.97
1.13078	34.97
1.14745	34.97
1.16412	34.97
1.18078	34.97
1.19745	34.97
1.21412	34.99
1.23078	35.01
1.24745	35.02
1.26412	35.02
1.28078	35.02
1.29745	35.02
1.31412	35.01
1.33078	35.00
1.34745	35.00
1.36412	34.99
1.38078	34.98
1.39745	34.98
1.41412	34.98
1.43078	34.98
1.44745	34.99
1.46412	34.99
1.48078	35.00
1.49745	35.00
1.51412	35.00
1.53078	35.01
1.54745	35.02
1.56412	35.03
1.58078	35.03
1.59745	35.06
1.61412	35.13
1.63078	35.27
1.64745	35.47
1.66412	35.74
1.68078	36.10
1.69745	36.45
1.71412	36.79
1.73078	37.14
1.74745	37.47
1.76412	37.82
1.78078	38.12
1.79745	38.45
1.81412	38.81
1.83078	39.12
1.84745	39.45
1.86412	39.78
1.88078	40.11
1.89745	40.43
1.91412	40.74
1.93078	41.10
1.94745	41.43
1.96412	41.75
1.98078	42.08
1.99745	42.40
2.01412	42.73
2.03078	43.04
2.04745	43.38
2.06412	43.70
2.08078	44.04
2.09745	44.35
2.11412	44.67
2.13078	45.00
2.14745	45.32
2.16412	45.65
2.18078	46.00
2.19745	46.30
2.21412	46.62
2.23078	46.95
2.24745	47.30
2.26412	47.62
2.28078	47.94
2.29745	48.30
2.31412	48.63
2.33078	48.95
2.34745	49.26
2.36412	49.52
2.38078	49.66
2.39745	49.70
2.41412	49.68
2.43078	49.68
2.44745	49.68
2.46412	49.70
2.48078	49.71
2.49745	49.71
2.51412	49.72
2.53078	49.74
2.54745	49.77
2.56412	49.77
2.58078	49.81
2.59745	49.83
2.61412	49.83
2.63078	49.82
2.64745	49.83
2.66412	49.85
2.68078	49.86
2.69745	49.85
2.71412	49.84
2.73078	49.86
2.74745	49.86
2.76412	49.85
2.78078	49.85
2.79745	49.86
2.81412	49.87
2.83078	49.87
2.84745	49.88
2.86412	49.88
2.88078	49.88
2.89745	49.89
2.91412	49.91
2.93078	49.92
2.94745	49.94
2.96412	49.96
2.98078	49.97
2.99745	49.97
3.01412	49.98
3.03078	49.98
3.04745	49.99
3.06412	50.00
3.08078	50.00
3.09745	50.00
3.11412	49.99
3.13078	49.99
3.14745	49.99
3.16412	49.99
3.18078	50.00
3.19745	50.01
3.21412	50.02
3.23078	50.03
3.24745	50.04
3.26412	50.04
3.28078	50.04
3.29745	50.06
3.31412	50.07
3.33078	50.08
3.34745	50.09
3.36412	50.09
3.38078	50.10
3.39745	50.11
3.41412	50.12
3.43078	50.11
3.44745	50.11
3.46412	50.09
3.48078	50.08
3.49745	50.07
3.51412	50.07
3.53078	50.06
3.54745	50.05
3.56412	50.05
3.58078	50.04
3.59745	50.04
3.61412	50.04
3.63078	50.05
3.64745	50.04
3.66412	50.04
3.68078	50.05
3.69745	50.04
3.71412	50.03
3.73078	50.02
3.74745	50.03
3.76412	50.02
3.78078	50.02
3.79745	50.04
3.81412	50.05
3.83078	50.05
3.84745	50.06
3.86412	50.05
3.88078	50.03
3.89745	50.03
3.91412	50.03
3.93078	50.03
3.94745	50.02
3.96412	50.02
3.98078	50.02
3.99745	50.02

[Status Trace (Injection Unit Temperature)]
Interval(msec)	1000
# of Points	240
Start Time(min)	0.014
End Time(min)	3.997
Intensity Units	
Intensity Multiplier	1
R.Time (min)	Intensity
0.01412	99.98
0.03078	99.98
0.04745	99.98
0.06412	99.98
0.08078	99.98
0.09745	99.98
0.11412	99.98
0.13078	99.98
0.14745	99.98
0.16412	99.98
0.18078	99.99
0.19745	99.98
0.21412	99.98
0.23078	99.99
0.24745	99.98
0.26412	99.98
0.28078	99.98
0.29745	99.98
0.31412	99.99
0.33078	99.98
0.34745	99.99
0.36412	99.99
0.38078	99.98
0.39745	99.99
0.41412	99.99
0.43078	99.99
0.44745	99.98
0.46412	99.99
0.48078	99.99
0.49745	99.98
0.51412	99.99
0.53078	99.99
0.54745	99.98
0.56412	99.99
0.58078	99.99
0.59745	99.98
0.61412	99.99
0.63078	99.99
0.64745	99.99
0.66412	99.99
0.68078	99.99
0.69745	99.99
0.71412	99.98
0.73078	99.99
0.74745	99.99
0.76412	99.99
0.78078	99.98
0.79745	99.99
0.81412	99.99
0.83078	99.99
0.84745	99.99
0.86412	99.98
0.88078	99.98
0.89745	99.98
0.91412	99.98
0.93078	99.99
0.94745	99.99
0.96412	99.98
0.98078	99.98
0.99745	99.99
1.01412	99.98
1.03078	99.98
1.04745	99.98
1.06412	99.98
1.08078	99.98
1.09745	99.98
1.11412	99.98
1.13078	99.98
1.14745	99.98
1.16412	99.98
1.18078	99.98
1.19745	99.98
1.21412	99.98
1.23078	99.98
1.24745	99.98
1.26412	99.98
1.28078	99.98
1.29745	99.98
1.31412	99.98
1.33078	99.98
1.34745	99.98
1.36412	99.99
1.38078	99.98
1.39745	99.99
1.41412	99.99
1.43078	99.99
1.44745	99.99
1.46412	99.98
1.48078	99.99
1.49745	99.98
1.51412	99.99
1.53078	99.99
1.54745	99.99
1.56412	99.99
1.58078	99.99
1.59745	99.99
1.61412	99.98
1.63078	99.99
1.64745	99.99
1.66412	99.99
1.68078	99.99
1.69745	99.99
1.71412	99.99
1.73078	99.99
1.74745	99.99
1.76412	99.99
1.78078	99.99
1.79745	99.99
1.81412	99.98
1.83078	99.98
1.84745	99.99
1.86412	99.99
1.88078	99.99
1.89745	99.99
1.91412	99.99
1.93078	99.98
1.94745	99.99
1.96412	99.99
1.98078	99.98
1.99745	99.98
2.01412	99.99
2.03078	99.98
2.04745	99.98
2.06412	99.98
2.08078	99.98
2.09745	99.98
2.11412	99.97
2.13078	99.97
2.14745	99.98
2.16412	99.98
2.18078	99.97
2.19745	99.97
2.21412	99.98
2.23078	99.97
2.24745	99.97
2.26412	99.97
2.28078	99.97
2.29745	99.97
2.31412	99.97
2.33078	99.97
2.34745	99.96
2.36412	99.96
2.38078	99.97
2.39745	99.97
2.41412	99.97
2.43078	99.97
2.44745	99.96
2.46412	99.96
2.48078	99.97
2.49745	99.97
2.51412	99.96
2.53078	99.96
2.54745	99.97
2.56412	99.97
2.58078	99.97
2.59745	99.97
2.61412	99.97
2.63078	99.97
2.64745	99.98
2.66412	99.97
2.68078	99.98
2.69745	99.98
2.71412	99.98
2.73078	99.98
2.74745	99.98
2.76412	99.98
2.78078	99.99
2.79745	99.99
2.81412	99.99
2.83078	99.99
2.84745	99.99
2.86412	100.00
2.88078	100.00
2.89745	100.00
2.91412	100.00
2.93078	100.00
2.94745	100.00
2.96412	100.01
2.98078	100.01
2.99745	100.01
3.01412	100.01
3.03078	100.01
3.04745	100.02
3.06412	100.01
3.08078	100.02
3.09745	100.01
3.11412	100.02
3.13078	100.02
3.14745	100.02
3.16412	100.02
3.18078	100.02
3.19745	100.02
3.21412	100.02
3.23078	100.03
3.24745	100.03
3.26412	100.03
3.28078	100.03
3.29745	100.03
3.31412	100.03
3.33078	100.03
3.34745	100.03
3.36412	100.03
3.38078	100.03
3.39745	100.03
3.41412	100.03
3.43078	100.04
3.44745	100.03
3.46412	100.03
3.48078	100.04
3.49745	100.03
3.51412	100.04
3.53078	100.04
3.54745	100.04
3.56412	100.04
3.58078	100.04
3.59745	100.04
3.61412	100.04
3.63078	100.04
3.64745	100.04
3.66412	100.04
3.68078	100.04
3.69745	100.04
3.71412	100.04
3.73078	100.04
3.74745	100.04
3.76412	100.04
3.78078	100.04
3.79745	100.04
3.81412	100.05
3.83078	100.05
3.84745	100.04
3.86412	100.04
3.88078	100.04
3.89745	100.04
3.91412	100.05
3.93078	100.05
3.94745	100.05
3.96412	100.05
3.98078	100.04
3.99745	100.04

[Status Trace (Carrier Gas Pressure)]
Interval(msec)	1000
# of Points	240
Start Time(min)	0.014
End Time(min)	3.997
Intensity Units	
Intensity Multiplier	1
R.Time (min)	Intensity
0.01412	57.63
0.03078	55.47
0.04745	57.98
0.06412	59.81
0.08078	58.69
0.09745	57.98
0.11412	57.99
0.13078	58.01
0.14745	58.01
0.16412	58.00
0.18078	58.00
0.19745	58.00
0.21412	58.00
0.23078	58.00
0.24745	58.00
0.26412	58.00
0.28078	58.00
0.29745	58.00
0.31412	58.00
0.33078	58.00
0.34745	58.00
0.36412	58.00
0.38078	58.00
0.39745	58.00
0.41412	58.00
0.43078	58.00
0.44745	58.00
0.46412	58.00
0.48078	58.00
0.49745	58.00
0.51412	58.00
0.53078	58.00
0.54745	58.00
0.56412	58.00
0.58078	58.00
0.59745	58.00
0.61412	58.00
0.63078	58.00
0.64745	58.00
0.66412	58.00
0.68078	58.00
0.69745	58.00
0.71412	58.00
0.73078	58.00
0.74745	58.00
0.76412	58.00
0.78078	58.00
0.79745	58.00
0.81412	58.00
0.83078	58.00
0.84745	58.00
0.86412	58.00
0.88078	58.00
0.89745	58.00
0.91412	58.00
0.93078	58.00
0.94745	58.00
0.96412	58.00
0.98078	58.00
0.99745	58.00
1.01412	58.00
1.03078	58.00
1.04745	58.00
1.06412	58.00
1.08078	58.00
1.09745	58.00
1.11412	58.00
1.13078	58.00
1.14745	58.00
1.16412	58.00
1.18078	58.00
1.19745	58.00
1.21412	58.00
1.23078	58.00
1.24745	58.00
1.26412	58.00
1.28078	58.00
1.29745	58.00
1.31412	58.00
1.33078	58.00
1.34745	58.00
1.36412	58.00
1.38078	58.00
1.39745	58.00
1.41412	58.00
1.43078	58.00
1.44745	58.00
1.46412	58.00
1.48078	58.00
1.49745	58.00
1.51412	58.00
1.53078	58.00
1.54745	58.00
1.56412	58.00
1.58078	58.00
1.59745	58.00
1.61412	58.00
1.63078	58.00
1.64745	58.00
1.66412	58.00
1.68078	58.01
1.69745	58.00
1.71412	58.00
1.73078	58.00
1.74745	58.00
1.76412	58.00
1.78078	58.00
1.79745	58.00
1.81412	58.00
1.83078	58.00
1.84745	58.00
1.86412	58.00
1.88078	58.00
1.89745	58.00
1.91412	58.00
1.93078	58.00
1.94745	58.00
1.96412	58.00
1.98078	58.00
1.99745	58.00
2.01412	58.00
2.03078	58.00
2.04745	58.00
2.06412	58.00
2.08078	58.00
2.09745	58.00
2.11412	58.00
2.13078	58.00
2.14745	58.00
2.16412	58.00
2.18078	58.00
2.19745	58.00
2.21412	58.00
2.23078	58.00
2.24745	58.00
2.26412	58.00
2.28078	58.00
2.29745	58.00
2.31412	58.00
2.33078	58.00
2.34745	58.00
2.36412	58.00
2.38078	57.99
2.39745	57.99
2.41412	57.99
2.43078	58.00
2.44745	58.00
2.46412	58.00
2.48078	58.00
2.49745	58.00
2.51412	57.99
2.53078	57.99
2.54745	58.00
2.56412	58.00
2.58078	58.00
2.59745	58.00
2.61412	58.00
2.63078	58.00
2.64745	58.00
2.66412	58.00
2.68078	58.00
2.69745	58.00
2.71412	58.00
2.73078	58.00
2.74745	58.00
2.76412	58.00
2.78078	58.00
2.79745	58.00
2.81412	58.00
2.83078	58.00
2.84745	58.00
2.86412	58.00
2.88078	58.00
2.89745	58.00
2.91412	58.00
2.93078	58.00
2.94745	58.00
2.96412	58.00
2.98078	58.00
2.99745	58.00
3.01412	58.00
3.03078	58.00
3.04745	58.00
3.06412	58.00
3.08078	58.00
3.09745	58.00
3.11412	58.00
3.13078	58.00
3.14745	58.00
3.16412	58.00
3.18078	58.00
3.19745	58.00
3.21412	58.00
3.23078	58.00
3.24745	58.00
3.26412	58.00
3.28078	58.00
3.29745	58.00
3.31412	58.00
3.33078	58.00
3.34745	58.00
3.36412	58.00
3.38078	58.00
3.39745	58.00
3.41412	58.00
3.43078	58.00
3.44745	58.00
3.46412	58.00
3.48078	58.00
3.49745	58.00
3.51412	58.00
3.53078	58.00
3.54745	58.00
3.56412	58.00
3.58078	58.00
3.59745	58.00
3.61412	58.00
3.63078	58.00
3.64745	58.00
3.66412	58.00
3.68078	58.00
3.69745	58.00
3.71412	58.00
3.73078	58.00
3.74745	58.00
3.76412	58.00
3.78078	58.00
3.79745	58.00
3.81412	58.00
3.83078	58.00
3.84745	58.00
3.86412	58.00
3.88078	58.00
3.89745	58.00
3.91412	58.00
3.93078	58.00
3.94745	58.00
3.96412	58.00
3.98078	58.00
3.99745	58.00

[Status Trace (Carrier Gas Flow)]
Interval(msec)	1000
# of Points	240
Start Time(min)	0.014
End Time(min)	3.997
Intensity Units	
Intensity Multiplier	1
R.Time (min)	Intensity
0.01412	34.26
0.03078	34.54
0.04745	34.55
0.06412	34.52
0.08078	34.51
0.09745	34.52
0.11412	34.52
0.13078	34.52
0.14745	34.52
0.16412	34.52
0.18078	34.52
0.19745	34.52
0.21412	34.52
0.23078	34.51
0.24745	34.52
0.26412	34.52
0.28078	34.52
0.29745	34.51
0.31412	34.52
0.33078	34.51
0.34745	34.52
0.36412	34.52
0.38078	34.52
0.39745	34.52
0.41412	34.51
0.43078	34.52
0.44745	34.51
0.46412	34.52
0.48078	34.52
0.49745	34.52
0.51412	34.53
0.53078	34.52
0.54745	34.51
0.56412	34.52
0.58078	34.52
0.59745	34.52
0.61412	34.52
0.63078	34.51
0.64745	34.52
0.66412	34.52
0.68078	34.52
0.69745	34.52
0.71412	34.51
0.73078	34.52
0.74745	34.52
0.76412	34.52
0.78078	34.51
0.79745	34.52
0.81412	34.52
0.83078	34.52
0.84745	34.51
0.86412	34.52
0.88078	34.51
0.89745	34.52
0.91412	34.52
0.93078	34.51
0.94745	34.52
0.96412	34.52
0.98078	34.52
0.99745	34.52
1.01412	34.52
1.03078	34.52
1.04745	34.52
1.06412	34.52
1.08078	34.52
1.09745	34.52
1.11412	34.52
1.13078	34.52
1.14745	34.52
1.16412	34.52
1.18078	34.52
1.19745	34.52
1.21412	34.52
1.23078	34.52
1.24745	34.52
1.26412	34.51
1.28078	34.51
1.29745	34.52
1.31412	34.52
1.33078	34.52
1.34745	34.52
1.36412	34.52
1.38078	34.52
1.39745	34.51
1.41412	34.52
1.43078	34.52
1.44745	34.52
1.46412	34.52
1.48078	34.52
1.49745	34.52
1.51412	34.51
1.53078	34.52
1.54745	34.52
1.56412	34.52
1.58078	34.53
1.59745	34.51
1.61412	34.52
1.63078	34.52
1.64745	34.51
1.66412	34.52
1.68078	34.52
1.69745	34.51
1.71412	34.52
1.73078	34.52
1.74745	34.52
1.76412	34.52
1.78078	34.52
1.79745	34.52
1.81412	34.52
1.83078	34.52
1.84745	34.52
1.86412	34.53
1.88078	34.53
1.89745	34.52
1.91412	34.52
1.93078	34.52
1.94745	34.52
1.96412	34.52
1.98078	34.52
1.99745	34.52
2.01412	34.52
2.03078	34.52
2.04745	34.52
2.06412	34.52
2.08078	34.52
2.09745	34.52
2.11412	34.52
2.13078	34.52
2.14745	34.52
2.16412	34.52
2.18078	34.52
2.19745	34.52
2.21412	34.51
2.23078	34.52
2.24745	34.52
2.26412	34.52
2.28078	34.52
2.29745	34.52
2.31412	34.52
2.33078	34.52
2.34745	34.52
2.36412	34.52
2.38078	34.52
2.39745	34.53
2.41412	34.52
2.43078	34.52
2.44745	34.52
2.46412	34.52
2.48078	34.52
2.49745	34.52
2.51412	34.51
2.53078	34.51
2.54745	34.52
2.56412	34.52
2.58078	34.52
2.59745	34.52
2.61412	34.52
2.63078	34.52
2.64745	34.52
2.66412	34.51
2.68078	34.52
2.69745	34.52
2.71412	34.52
2.73078	34.52
2.74745	34.52
2.76412	34.52
2.78078	34.52
2.79745	34.52
2.81412	34.52
2.83078	34.52
2.84745	34.52
2.86412	34.52
2.88078	34.52
2.89745	34.52
2.91412	34.52
2.93078	34.52
2.94745	34.52
2.96412	34.52
2.98078	34.52
2.99745	34.52
3.01412	34.52
3.03078	34.52
3.04745	34.52
3.06412	34.52
3.08078	34.52
3.09745	34.52
3.11412	34.52
3.13078	34.52
3.14745	34.52
3.16412	34.52
3.18078	34.52
3.19745	34.52
3.21412	34.52
3.23078	34.52
3.24745	34.52
3.26412	34.52
3.28078	34.52
3.29745	34.52
3.31412	34.52
3.33078	34.52
3.34745	34.52
3.36412	34.52
3.38078	34.52
3.39745	34.52
3.41412	34.52
3.43078	34.52
3.44745	34.52
3.46412	34.52
3.48078	34.52
3.49745	34.51
3.51412	34.52
3.53078	34.52
3.54745	34.52
3.56412	34.52
3.58078	34.52
3.59745	34.52
3.61412	34.52
3.63078	34.52
3.64745	34.51
3.66412	34.52
3.68078	34.51
3.69745	34.52
3.71412	34.51
3.73078	34.52
3.74745	34.51
3.76412	34.52
3.78078	34.52
3.79745	34.51
3.81412	34.52
3.83078	34.52
3.84745	34.52
3.86412	34.52
3.88078	34.52
3.89745	34.52
3.91412	34.52
3.93078	34.52
3.94745	34.52
3.96412	34.52
3.98078	34.51
3.99745	34.52

[Status Trace (Column Flow)]
Interval(msec)	1000
# of Points	240
Start Time(min)	0.014
End Time(min)	3.997
Intensity Units	
Intensity Multiplier	1
R.Time (min)	Intensity
0.01412	5.52
0.03078	5.27
0.04745	5.56
0.06412	5.78
0.08078	5.64
0.09745	5.56
0.11412	5.56
0.13078	5.56
0.14745	5.56
0.16412	5.56
0.18078	5.56
0.19745	5.56
0.21412	5.56
0.23078	5.56
0.24745	5.56
0.26412	5.56
0.28078	5.56
0.29745	5.56
0.31412	5.56
0.33078	5.57
0.34745	5.56
0.36412	5.56
0.38078	5.56
0.39745	5.56
0.41412	5.56
0.43078	5.56
0.44745	5.56
0.46412	5.56
0.48078	5.56
0.49745	5.56
0.51412	5.56
0.53078	5.56
0.54745	5.56
0.56412	5.56
0.58078	5.56
0.59745	5.56
0.61412	5.56
0.63078	5.56
0.64745	5.56
0.66412	5.56
0.68078	5.56
0.69745	5.56
0.71412	5.56
0.73078	5.57
0.74745	5.57
0.76412	5.57
0.78078	5.57
0.79745	5.57
0.81412	5.57
0.83078	5.57
0.84745	5.57
0.86412	5.57
0.88078	5.57
0.89745	5.57
0.91412	5.57
0.93078	5.57
0.94745	5.57
0.96412	5.57
0.98078	5.57
0.99745	5.57
1.01412	5.57
1.03078	5.57
1.04745	5.56
1.06412	5.56
1.08078	5.56
1.09745	5.57
1.11412	5.57
1.13078	5.57
1.14745	5.57
1.16412	5.57
1.18078	5.57
1.19745	5.57
1.21412	5.57
1.23078	5.56
1.24745	5.56
1.26412	5.56
1.28078	5.56
1.29745	5.56
1.31412	5.56
1.33078	5.56
1.34745	5.56
1.36412	5.57
1.38078	5.57
1.39745	5.57
1.41412	5.57
1.43078	5.57
1.44745	5.57
1.46412	5.57
1.48078	5.56
1.49745	5.56
1.51412	5.56
1.53078	5.56
1.54745	5.56
1.56412	5.56
1.58078	5.56
1.59745	5.56
1.61412	5.56
1.63078	5.56
1.64745	5.55
1.66412	5.54
1.68078	5.53
1.69745	5.52
1.71412	5.51
1.73078	5.50
1.74745	5.49
1.76412	5.48
1.78078	5.47
1.79745	5.46
1.81412	5.45
1.83078	5.44
1.84745	5.43
1.86412	5.42
1.88078	5.41
1.89745	5.40
1.91412	5.39
1.93078	5.38
1.94745	5.37
1.96412	5.36
1.98078	5.35
1.99745	5.34
2.01412	5.33
2.03078	5.32
2.04745	5.31
2.06412	5.30
2.08078	5.29
2.09745	5.28
2.11412	5.27
2.13078	5.26
2.14745	5.25
2.16412	5.24
2.18078	5.23
2.19745	5.22
2.21412	5.21
2.23078	5.20
2.24745	5.19
2.26412	5.19
2.28078	5.18
2.29745	5.17
2.31412	5.16
2.33078	5.15
2.34745	5.14
2.36412	5.13
2.38078	5.13
2.39745	5.13
2.41412	5.13
2.43078	5.13
2.44745	5.13
2.46412	5.13
2.48078	5.13
2.49745	5.13
2.51412	5.12
2.53078	5.12
2.54745	5.12
2.56412	5.12
2.58078	5.12
2.59745	5.12
2.61412	5.12
2.63078	5.12
2.64745	5.12
2.66412	5.12
2.68078	5.12
2.69745	5.12
2.71412	5.12
2.73078	5.12
2.74745	5.12
2.76412	5.12
2.78078	5.12
2.79745	5.12
2.81412	5.12
2.83078	5.12
2.84745	5.12
2.86412	5.12
2.88078	5.12
2.89745	5.12
2.91412	5.12
2.93078	5.12
2.94745	5.12
2.96412	5.12
2.98078	5.12
2.99745	5.12
3.01412	5.12
3.03078	5.12
3.04745	5.12
3.06412	5.12
3.08078	5.12
3.09745	5.12
3.11412	5.12
3.13078	5.12
3.14745	5.12
3.16412	5.12
3.18078	5.12
3.19745	5.12
3.21412	5.12
3.23078	5.12
3.24745	5.12
3.26412	5.12
3.28078	5.12
3.29745	5.12
3.31412	5.12
3.33078	5.12
3.34745	5.12
3.36412	5.12
3.38078	5.12
3.39745	5.11
3.41412	5.11
3.43078	5.11
3.44745	5.11
3.46412	5.12
3.48078	5.12
3.49745	5.12
3.51412	5.12
3.53078	5.12
3.54745	5.12
3.56412	5.12
3.58078	5.12
3.59745	5.12
3.61412	5.12
3.63078	5.12
3.64745	5.12
3.66412	5.12
3.68078	5.12
3.69745	5.12
3.71412	5.12
3.73078	5.12
3.74745	5.12
3.76412	5.12
3.78078	5.12
3.79745	5.12
3.81412	5.12
3.83078	5.12
3.84745	5.12
3.86412	5.12
3.88078	5.12
3.89745	5.12
3.91412	5.12
3.93078	5.12
3.94745	5.12
3.96412	5.12
3.98078	5.12
3.99745	5.12

[Status Trace (Linear Velocity)]
Interval(msec)	1000
# of Points	240
Start Time(min)	0.014
End Time(min)	3.997
Intensity Units	
Intensity Multiplier	1
R.Time (min)	Intensity
0.01412	38.78
0.03078	37.36
0.04745	39.01
0.06412	40.21
0.08078	39.47
0.09745	39.00
0.11412	39.02
0.13078	39.03
0.14745	39.02
0.16412	39.02
0.18078	39.02
0.19745	39.02
0.21412	39.02
0.23078	39.02
0.24745	39.02
0.26412	39.03
0.28078	39.02
0.29745	39.03
0.31412	39.03
0.33078	39.03
0.34745	39.03
0.36412	39.02
0.38078	39.03
0.39745	39.03
0.41412	39.03
0.43078	39.03
0.44745	39.02
0.46412	39.02
0.48078	39.02
0.49745	39.02
0.51412	39.02
0.53078	39.03
0.54745	39.03
0.56412	39.03
0.58078	39.03
0.59745	39.03
0.61412	39.03
0.63078	39.03
0.64745	39.03
0.66412	39.03
0.68078	39.03
0.69745	39.03
0.71412	39.03
0.73078	39.03
0.74745	39.03
0.76412	39.03
0.78078	39.03
0.79745	39.03
0.81412	39.03
0.83078	39.03
0.84745	39.03
0.86412	39.03
0.88078	39.03
0.89745	39.03
0.91412	39.03
0.93078	39.03
0.94745	39.03
0.96412	39.03
0.98078	39.03
0.99745	39.03
1.01412	39.03
1.03078	39.03
1.04745	39.03
1.06412	39.03
1.08078	39.03
1.09745	39.03
1.11412	39.03
1.13078	39.03
1.14745	39.03
1.16412	39.03
1.18078	39.03
1.19745	39.03
1.21412	39.03
1.23078	39.03
1.24745	39.03
1.26412	39.02
1.28078	39.02
1.29745	39.02
1.31412	39.03
1.33078	39.03
1.34745	39.03
1.36412	39.03
1.38078	39.03
1.39745	39.03
1.41412	39.03
1.43078	39.03
1.44745	39.03
1.46412	39.03
1.48078	39.03
1.49745	39.03
1.51412	39.03
1.53078	39.03
1.54745	39.02
1.56412	39.02
1.58078	39.02
1.59745	39.02
1.61412	39.02
1.63078	39.00
1.64745	38.98
1.66412	38.96
1.68078	38.93
1.69745	38.89
1.71412	38.86
1.73078	38.82
1.74745	38.79
1.76412	38.76
1.78078	38.73
1.79745	38.70
1.81412	38.67
1.83078	38.63
1.84745	38.60
1.86412	38.58
1.88078	38.54
1.89745	38.51
1.91412	38.48
1.93078	38.45
1.94745	38.42
1.96412	38.39
1.98078	38.36
1.99745	38.33
2.01412	38.30
2.03078	38.27
2.04745	38.24
2.06412	38.21
2.08078	38.18
2.09745	38.15
2.11412	38.12
2.13078	38.09
2.14745	38.06
2.16412	38.03
2.18078	38.00
2.19745	37.97
2.21412	37.95
2.23078	37.91
2.24745	37.88
2.26412	37.86
2.28078	37.83
2.29745	37.79
2.31412	37.77
2.33078	37.73
2.34745	37.71
2.36412	37.69
2.38078	37.67
2.39745	37.66
2.41412	37.67
2.43078	37.67
2.44745	37.67
2.46412	37.67
2.48078	37.67
2.49745	37.67
2.51412	37.66
2.53078	37.66
2.54745	37.66
2.56412	37.66
2.58078	37.66
2.59745	37.66
2.61412	37.66
2.63078	37.66
2.64745	37.66
2.66412	37.66
2.68078	37.66
2.69745	37.66
2.71412	37.66
2.73078	37.66
2.74745	37.65
2.76412	37.65
2.78078	37.66
2.79745	37.66
2.81412	37.65
2.83078	37.65
2.84745	37.65
2.86412	37.65
2.88078	37.65
2.89745	37.65
2.91412	37.65
2.93078	37.65
2.94745	37.65
2.96412	37.65
2.98078	37.64
2.99745	37.64
3.01412	37.64
3.03078	37.64
3.04745	37.64
3.06412	37.64
3.08078	37.64
3.09745	37.64
3.11412	37.64
3.13078	37.64
3.14745	37.64
3.16412	37.64
3.18078	37.64
3.19745	37.64
3.21412	37.64
3.23078	37.64
3.24745	37.64
3.26412	37.64
3.28078	37.64
3.29745	37.64
3.31412	37.64
3.33078	37.63
3.34745	37.63
3.36412	37.63
3.38078	37.63
3.39745	37.63
3.41412	37.63
3.43078	37.63
3.44745	37.63
3.46412	37.63
3.48078	37.64
3.49745	37.64
3.51412	37.64
3.53078	37.64
3.54745	37.64
3.56412	37.64
3.58078	37.64
3.59745	37.64
3.61412	37.64
3.63078	37.64
3.64745	37.64
3.66412	37.64
3.68078	37.64
3.69745	37.64
3.71412	37.64
3.73078	37.64
3.74745	37.64
3.76412	37.64
3.78078	37.64
3.79745	37.64
3.81412	37.64
3.83078	37.64
3.84745	37.64
3.86412	37.64
3.88078	37.64
3.89745	37.64
3.91412	37.64
3.93078	37.64
3.94745	37.64
3.96412	37.64
3.98078	37.64
3.99745	37.64

