[Header]
Application Name	LabSolutions
Version	5.110
Data File Name	C:\Users\User\Desktop\GC Analyses\Jack\Nachusa Grasslands Sampling\T1 Timepoint July 12th\T1_07122022_039.gcd
Output Date	3/14/2023
Output Time	3:40:59 PM

[File Information]
Type	Data File
Generated	3/8/2023 5:31:15 PM
Generated by	System Administrator
Modified	3/8/2023 5:37:46 PM
Modified by	System Administrator

[Sample Information]
Operator Name	System Administrator
Acquired	3/8/2023 5:33:45 PM
Sample Type	0:Unknown
Level	0
Sample Name	039
Sample ID	039
ISTD Amount1	1
ISTD Amount2	1
ISTD Amount3	1
ISTD Amount4	1
ISTD Amount5	1
ISTD Amount6	1
ISTD Amount7	1
ISTD Amount8	1
ISTD Amount9	1
ISTD Amount10	1
ISTD Amount11	1
ISTD Amount12	1
ISTD Amount13	1
ISTD Amount14	1
ISTD Amount15	1
ISTD Amount16	1
ISTD Amount17	1
ISTD Amount18	1
ISTD Amount19	1
ISTD Amount20	1
ISTD Amount21	1
ISTD Amount22	1
ISTD Amount23	1
ISTD Amount24	1
ISTD Amount25	1
ISTD Amount26	1
ISTD Amount27	1
ISTD Amount28	1
ISTD Amount29	1
ISTD Amount30	1
ISTD Amount31	1
ISTD Amount32	1
Sample Amount	1
Dilution Factor	1
Vial#	38
Injection Volume	1
Injection Count	1
Bar Code	

[Original Files]
Data File	C:\Users\User\Desktop\GC Analyses\Jack\Nachusa Grasslands Sampling\T1 Timepoint July 12th\T1_07122022_039.gcd
Method File	C:\LabSolutions\Data\GHG_4min_2022\ghg3_togas_w_acet_4 min_new_int.gcm
Batch File	C:\LabSolutions\Data\AutoSamplerTesting\T1_07122022.gcb
Report Format File	c:\LabSolutions\System\DEFAULT.lsr

[File Description]


[Configuration]
Instrument Name	C0B7VH3-Instrument1
Instrument #	1
Line #	1
# of Detectors	3
Detector ID	DET#1	DET#2	DET#3
Detector Name	FID	PTCD	ECD
# of Channels	1	1	1

[Peak Table(Ch1)]
# of Peaks	3
Peak#	R.Time	I.Time	F.Time	Area	Height	A/H	Conc.	Mark	ID#	Name	k'	Plate #	Plate Ht.	Tailing	Resolution	Sep.Factor	Area Ratio	Height Ratio	Conc. %	Norm Conc.
1	1.476	1.435	1.538	29363	13841	2.121	207.307	   	1	CO	0.000	9147	16.398	1.355	0.000	0.000	0	0	30.513	30.513
2	1.567	1.538	1.626	4597	2201	2.088	88.880	 V 	2	CH4	0.062	10426	14.387	0.000	1.489	0.000	0	0	13.082	13.082
3	1.996	1.952	2.502	1526921	719515	2.122	383.216	   	3	CO2	0.353	17345	8.648	1.333	7.031	5.680	0	0	56.405	56.405

[Peak Table(Ch2)]
# of Peaks	0

[Peak Table(Ch3)]
# of Peaks	6
Peak#	R.Time	I.Time	F.Time	Area	Height	A/H	Conc.	Mark	ID#	Name	k'	Plate #	Plate Ht.	Tailing	Resolution	Sep.Factor	Area Ratio	Height Ratio	Conc. %	Norm Conc.
1	2.462	2.227	2.517	1829	472	3.871	0.000	   			0.000	8749	17.144	0.000	0.000	0.000	0	0	0.000	0.000
2	2.539	2.517	2.631	1050	261	4.019	0.000	 V 			0.031	4376	34.281	0.000	0.595	0.000	0	0	0.000	0.000
3	2.686	2.645	2.741	171	58	2.955	0.000	   			0.091	15960	9.398	1.184	1.230	2.905	0	0	0.000	0.000
4	2.873	2.814	3.049	18387	4923	3.735	0.470	   	1	N2O	0.167	13526	11.090	1.656	2.034	1.836	0	0	100.000	100.000
5	3.225	3.074	3.239	396	89	4.457	0.000	   	2	SF6	0.310	10203	14.702	0.549	3.108	1.857	0	0	0.000	0.000
6	3.430	3.247	3.995	12810	511	25.082	0.000	   	2	SF6	0.393	506	296.707	1.970	0.557	1.269	0	0	0.000	0.000

[Compound Results(Ch1)]
# of IDs	6
ID#	Name	R.Time	Area	Height	Conc.	Curve	3rd	2nd	1st	Constant	Area Ratio	Height Ratio	Conc. %	Norm Conc.
1	CO	1.476	29363	13841	207.307	Linear	0.000000e+00	0.000000e+00	1.416423e+002	0.000000e+00	0	0	30.513	30.513
2	CH4	1.567	4597	2201	88.880	Linear	0.000000e+00	0.000000e+00	5.171738e+001	0.000000e+00	0	0	13.082	13.082
3	CO2	1.996	1526921	719515	383.216	Linear	0.000000e+00	0.000000e+00	3.984494e+003	0.000000e+00	0	0	56.405	56.405
4	Ethylene	0.000	0	0	0.000	Linear	0.000000e+00	0.000000e+00	0.000000e+00	0.000000e+00	0	0	0.000	0.000
5	Acetylene	0.000	0	0	0.000	Linear	0.000000e+00	0.000000e+00	0.000000e+00	0.000000e+00	0	0	0.000	0.000
6	Ethane	0.000	0	0	0.000	Linear	0.000000e+00	0.000000e+00	0.000000e+00	0.000000e+00	0	0	0.000	0.000

[Compound Results(Ch2)]
# of IDs	5
ID#	Name	R.Time	Area	Height	Conc.	Curve	3rd	2nd	1st	Constant	Area Ratio	Height Ratio	Conc. %	Norm Conc.
1	Hydrogen	0.000	0	0	0.000	Linear	0.000000e+00	0.000000e+00	0.000000e+00	0.000000e+00	0	0	0.000	0.000
2	Oxygen	0.000	0	0	0.000	Linear	0.000000e+00	0.000000e+00	0.000000e+00	0.000000e+00	0	0	0.000	0.000
3	Nitrogen	0.000	0	0	0.000	Linear	0.000000e+00	0.000000e+00	0.000000e+00	0.000000e+00	0	0	0.000	0.000
4	Methane	0.000	0	0	0.000	Linear	0.000000e+00	0.000000e+00	0.000000e+00	0.000000e+00	0	0	0.000	0.000
5	Carbon Monoxide	0.000	0	0	0.000	Linear	0.000000e+00	0.000000e+00	0.000000e+00	0.000000e+00	0	0	0.000	0.000

[Compound Results(Ch3)]
# of IDs	2
ID#	Name	R.Time	Area	Height	Conc.	Curve	3rd	2nd	1st	Constant	Area Ratio	Height Ratio	Conc. %	Norm Conc.
1	N2O	2.873	18387	4923	0.470	Linear	0.000000e+00	0.000000e+00	3.915173e+004	0.000000e+00	0	0	100.000	100.000
2	SF6	3.430	13206	600	0.000	Linear	0.000000e+00	0.000000e+00	0.000000e+00	0.000000e+00	0	0	0.000	0.000

[Group Results(Ch1)]
# of Groups	0

[Group Results(Ch2)]
# of Groups	0

[Group Results(Ch3)]
# of Groups	0

[Chromatogram (Ch1)]
Interval(msec)	220
# of Points	1091
Start Time(min)	0.002
End Time(min)	3.998
R.Time (min)	Intensity
0.00167	-36
0.00533	-42
0.00900	-49
0.01267	-53
0.01633	-54
0.02000	-55
0.02367	-60
0.02733	-61
0.03100	-61
0.03467	-58
0.03833	-53
0.04200	-42
0.04567	-26
0.04933	-16
0.05300	-15
0.05667	-19
0.06033	-25
0.06400	-31
0.06767	-33
0.07133	-32
0.07500	-36
0.07867	-43
0.08233	-44
0.08600	-36
0.08967	-25
0.09333	-20
0.09700	-18
0.10067	-20
0.10433	-26
0.10800	-31
0.11167	-34
0.11533	-33
0.11900	-30
0.12267	-28
0.12633	-24
0.13000	-20
0.13367	-19
0.13733	-22
0.14100	-28
0.14467	-31
0.14833	-26
0.15200	-17
0.15567	-9
0.15933	-4
0.16300	-7
0.16667	-13
0.17033	-18
0.17400	-20
0.17767	-18
0.18133	-17
0.18500	-15
0.18867	-15
0.19233	-15
0.19600	-15
0.19967	-15
0.20333	-11
0.20700	-8
0.21067	-6
0.21433	-6
0.21800	-9
0.22167	-12
0.22533	-15
0.22900	-17
0.23267	-17
0.23633	-19
0.24000	-22
0.24367	-22
0.24733	-22
0.25100	-19
0.25467	-17
0.25833	-15
0.26200	-12
0.26567	-9
0.26933	-10
0.27300	-17
0.27667	-23
0.28033	-26
0.28400	-25
0.28767	-20
0.29133	-13
0.29500	-9
0.29867	-9
0.30233	-11
0.30600	-14
0.30967	-15
0.31333	-9
0.31700	-2
0.32067	5
0.32433	13
0.32800	21
0.33167	22
0.33533	16
0.33900	5
0.34267	-2
0.34633	-5
0.35000	-5
0.35367	-3
0.35733	-2
0.36100	-1
0.36467	1
0.36833	5
0.37200	7
0.37567	6
0.37933	4
0.38300	6
0.38667	12
0.39033	19
0.39400	25
0.39767	31
0.40133	35
0.40500	36
0.40867	35
0.41233	34
0.41600	34
0.41967	34
0.42333	38
0.42700	43
0.43067	46
0.43433	45
0.43800	41
0.44167	38
0.44533	34
0.44900	32
0.45267	34
0.45633	37
0.46000	35
0.46367	32
0.46733	33
0.47100	33
0.47467	33
0.47833	37
0.48200	39
0.48567	37
0.48933	31
0.49300	26
0.49667	22
0.50033	14
0.50400	7
0.50767	5
0.51133	7
0.51500	10
0.51867	12
0.52233	13
0.52600	14
0.52967	15
0.53333	17
0.53700	21
0.54067	21
0.54433	20
0.54800	19
0.55167	16
0.55533	13
0.55900	9
0.56267	4
0.56633	-4
0.57000	-11
0.57367	-20
0.57733	-27
0.58100	-28
0.58467	-27
0.58833	-21
0.59200	-10
0.59567	3
0.59933	15
0.60300	20
0.60667	20
0.61033	19
0.61400	15
0.61767	15
0.62133	17
0.62500	11
0.62867	-0
0.63233	-11
0.63600	-22
0.63967	-32
0.64333	-38
0.64700	-39
0.65067	-35
0.65433	-26
0.65800	-21
0.66167	-19
0.66533	-17
0.66900	-17
0.67267	-14
0.67633	-13
0.68000	-14
0.68367	-15
0.68733	-19
0.69100	-24
0.69467	-26
0.69833	-24
0.70200	-21
0.70567	-20
0.70933	-18
0.71300	-14
0.71667	-15
0.72033	-18
0.72400	-20
0.72767	-19
0.73133	-17
0.73500	-15
0.73867	-15
0.74233	-20
0.74600	-23
0.74967	-23
0.75333	-23
0.75700	-22
0.76067	-18
0.76433	-16
0.76800	-17
0.77167	-20
0.77533	-22
0.77900	-20
0.78267	-15
0.78633	-8
0.79000	-2
0.79367	-1
0.79733	-3
0.80100	-11
0.80467	-23
0.80833	-31
0.81200	-33
0.81567	-32
0.81933	-32
0.82300	-30
0.82667	-27
0.83033	-22
0.83400	-14
0.83767	-8
0.84133	-4
0.84500	1
0.84867	6
0.85233	9
0.85600	7
0.85967	-0
0.86333	-12
0.86700	-23
0.87067	-29
0.87433	-32
0.87800	-34
0.88167	-32
0.88533	-29
0.88900	-25
0.89267	-24
0.89633	-32
0.90000	-39
0.90367	-42
0.90733	-39
0.91100	-32
0.91467	-26
0.91833	-16
0.92200	-2
0.92567	12
0.92933	21
0.93300	20
0.93667	9
0.94033	-6
0.94400	-19
0.94767	-23
0.95133	-23
0.95500	-25
0.95867	-30
0.96233	-36
0.96600	-38
0.96967	-34
0.97333	-29
0.97700	-25
0.98067	-21
0.98433	-20
0.98800	-22
0.99167	-28
0.99533	-31
0.99900	-34
1.00267	-38
1.00633	-41
1.01000	-41
1.01367	-38
1.01733	-36
1.02100	-35
1.02467	-33
1.02833	-26
1.03200	-20
1.03567	-16
1.03933	-15
1.04300	-17
1.04667	-20
1.05033	-25
1.05400	-32
1.05767	-35
1.06133	-33
1.06500	-28
1.06867	-24
1.07233	-23
1.07600	-22
1.07967	-19
1.08333	-16
1.08700	-14
1.09067	-15
1.09433	-21
1.09800	-25
1.10167	-23
1.10533	-26
1.10900	-33
1.11267	-40
1.11633	-43
1.12000	-45
1.12367	-43
1.12733	-36
1.13100	-27
1.13467	-24
1.13833	-24
1.14200	-30
1.14567	-40
1.14933	-46
1.15300	-50
1.15667	-52
1.16033	-52
1.16400	-51
1.16767	-49
1.17133	-48
1.17500	-49
1.17867	-53
1.18233	-54
1.18600	-53
1.18967	-52
1.19333	-51
1.19700	-53
1.20067	-54
1.20433	-54
1.20800	-54
1.21167	-52
1.21533	-48
1.21900	-47
1.22267	-47
1.22633	-44
1.23000	-39
1.23367	-34
1.23733	-34
1.24100	-34
1.24467	-34
1.24833	-32
1.25200	-28
1.25567	-23
1.25933	-20
1.26300	-19
1.26667	-22
1.27033	-27
1.27400	-37
1.27767	-47
1.28133	-55
1.28500	-57
1.28867	-58
1.29233	-63
1.29600	-67
1.29967	-67
1.30333	-63
1.30700	-56
1.31067	-49
1.31433	-48
1.31800	-50
1.32167	-53
1.32533	-55
1.32900	-56
1.33267	-53
1.33633	-48
1.34000	-46
1.34367	-43
1.34733	-38
1.35100	-36
1.35467	-35
1.35833	-37
1.36200	-39
1.36567	-42
1.36933	-44
1.37300	-45
1.37667	-43
1.38033	-38
1.38400	-33
1.38767	-31
1.39133	-36
1.39500	-41
1.39867	-46
1.40233	-50
1.40600	-52
1.40967	-54
1.41333	-57
1.41700	-58
1.42067	-60
1.42433	-59
1.42800	-57
1.43167	-54
1.43533	-50
1.43900	-31
1.44267	46
1.44633	253
1.45000	768
1.45367	2003
1.45733	4140
1.46100	6797
1.46467	9391
1.46833	11533
1.47200	13049
1.47567	13813
1.47933	13693
1.48300	12668
1.48667	10932
1.49033	8854
1.49400	6811
1.49767	5051
1.50133	3661
1.50500	2624
1.50867	1881
1.51233	1362
1.51600	1003
1.51967	753
1.52333	575
1.52700	449
1.53067	358
1.53433	291
1.53800	252
1.54167	271
1.54533	403
1.54900	683
1.55267	1068
1.55633	1470
1.56000	1818
1.56367	2074
1.56733	2220
1.57100	2222
1.57467	2065
1.57833	1778
1.58200	1425
1.58567	1079
1.58933	786
1.59300	564
1.59667	406
1.60033	293
1.60400	215
1.60767	167
1.61133	136
1.61500	108
1.61867	80
1.62233	58
1.62600	50
1.62967	50
1.63333	52
1.63700	48
1.64067	40
1.64433	35
1.64800	30
1.65167	22
1.65533	14
1.65900	9
1.66267	5
1.66633	1
1.67000	-3
1.67367	-5
1.67733	-6
1.68100	-5
1.68467	1
1.68833	8
1.69200	10
1.69567	11
1.69933	11
1.70300	13
1.70667	19
1.71033	27
1.71400	34
1.71767	35
1.72133	30
1.72500	22
1.72867	16
1.73233	13
1.73600	10
1.73967	9
1.74333	8
1.74700	9
1.75067	12
1.75433	15
1.75800	16
1.76167	17
1.76533	18
1.76900	21
1.77267	23
1.77633	24
1.78000	27
1.78367	29
1.78733	27
1.79100	19
1.79467	11
1.79833	7
1.80200	11
1.80567	19
1.80933	25
1.81300	27
1.81667	26
1.82033	23
1.82400	19
1.82767	16
1.83133	13
1.83500	9
1.83867	8
1.84233	6
1.84600	2
1.84967	-0
1.85333	3
1.85700	9
1.86067	15
1.86433	17
1.86800	17
1.87167	16
1.87533	14
1.87900	9
1.88267	5
1.88633	1
1.89000	-6
1.89367	-8
1.89733	-7
1.90100	-6
1.90467	-1
1.90833	9
1.91200	23
1.91567	35
1.91933	41
1.92300	45
1.92667	47
1.93033	46
1.93400	40
1.93767	28
1.94133	14
1.94500	4
1.94867	-1
1.95233	10
1.95600	110
1.95967	696
1.96333	3413
1.96700	13086
1.97067	39522
1.97433	95600
1.97800	189138
1.98167	314257
1.98533	451622
1.98900	577317
1.99267	671114
1.99633	719561
2.00000	716783
2.00367	665674
2.00733	578257
2.01100	472425
2.01467	366006
2.01833	271752
2.02200	195622
2.02567	138097
2.02933	96628
2.03300	67678
2.03667	47869
2.04033	34459
2.04400	25409
2.04767	19277
2.05133	15073
2.05500	12139
2.05867	10048
2.06233	8526
2.06600	7392
2.06967	6524
2.07333	5837
2.07700	5283
2.08067	4827
2.08433	4447
2.08800	4126
2.09167	3852
2.09533	3617
2.09900	3410
2.10267	3221
2.10633	3048
2.11000	2891
2.11367	2747
2.11733	2613
2.12100	2493
2.12467	2385
2.12833	2288
2.13200	2197
2.13567	2108
2.13933	2024
2.14300	1947
2.14667	1875
2.15033	1812
2.15400	1752
2.15767	1695
2.16133	1643
2.16500	1594
2.16867	1548
2.17233	1506
2.17600	1466
2.17967	1429
2.18333	1394
2.18700	1356
2.19067	1314
2.19433	1273
2.19800	1239
2.20167	1210
2.20533	1185
2.20900	1163
2.21267	1138
2.21633	1110
2.22000	1085
2.22367	1062
2.22733	1041
2.23100	1022
2.23467	1004
2.23833	987
2.24200	966
2.24567	942
2.24933	917
2.25300	892
2.25667	872
2.26033	857
2.26400	844
2.26767	833
2.27133	821
2.27500	806
2.27867	792
2.28233	778
2.28600	764
2.28967	754
2.29333	746
2.29700	739
2.30067	733
2.30433	728
2.30800	721
2.31167	710
2.31533	696
2.31900	679
2.32267	667
2.32633	656
2.33000	644
2.33367	631
2.33733	622
2.34100	617
2.34467	613
2.34833	608
2.35200	600
2.35567	592
2.35933	585
2.36300	580
2.36667	579
2.37033	582
2.37400	585
2.37767	583
2.38133	574
2.38500	562
2.38867	553
2.39233	548
2.39600	543
2.39967	536
2.40333	533
2.40700	535
2.41067	541
2.41433	545
2.41800	540
2.42167	533
2.42533	527
2.42900	522
2.43267	514
2.43633	501
2.44000	491
2.44367	486
2.44733	485
2.45100	491
2.45467	494
2.45833	490
2.46200	479
2.46567	469
2.46933	465
2.47300	464
2.47667	465
2.48033	467
2.48400	468
2.48767	468
2.49133	467
2.49500	465
2.49867	461
2.50233	457
2.50600	453
2.50967	450
2.51333	451
2.51700	456
2.52067	466
2.52433	473
2.52800	469
2.53167	459
2.53533	447
2.53900	439
2.54267	429
2.54633	417
2.55000	410
2.55367	407
2.55733	404
2.56100	405
2.56467	408
2.56833	403
2.57200	398
2.57567	396
2.57933	395
2.58300	394
2.58667	394
2.59033	397
2.59400	402
2.59767	410
2.60133	418
2.60500	421
2.60867	417
2.61233	411
2.61600	407
2.61967	404
2.62333	405
2.62700	407
2.63067	410
2.63433	412
2.63800	409
2.64167	406
2.64533	403
2.64900	402
2.65267	401
2.65633	402
2.66000	402
2.66367	400
2.66733	395
2.67100	389
2.67467	385
2.67833	385
2.68200	388
2.68567	390
2.68933	391
2.69300	392
2.69667	396
2.70033	401
2.70400	402
2.70767	401
2.71133	400
2.71500	397
2.71867	395
2.72233	392
2.72600	388
2.72967	387
2.73333	389
2.73700	390
2.74067	385
2.74433	379
2.74800	377
2.75167	379
2.75533	384
2.75900	388
2.76267	391
2.76633	397
2.77000	404
2.77367	405
2.77733	401
2.78100	399
2.78467	396
2.78833	391
2.79200	393
2.79567	400
2.79933	412
2.80300	419
2.80667	417
2.81033	406
2.81400	394
2.81767	387
2.82133	386
2.82500	388
2.82867	392
2.83233	400
2.83600	405
2.83967	403
2.84333	397
2.84700	389
2.85067	385
2.85433	382
2.85800	379
2.86167	380
2.86533	386
2.86900	390
2.87267	389
2.87633	387
2.88000	387
2.88367	385
2.88733	384
2.89100	389
2.89467	396
2.89833	396
2.90200	392
2.90567	386
2.90933	382
2.91300	383
2.91667	388
2.92033	393
2.92400	393
2.92767	391
2.93133	390
2.93500	390
2.93867	390
2.94233	392
2.94600	397
2.94967	403
2.95333	406
2.95700	406
2.96067	406
2.96433	409
2.96800	409
2.97167	406
2.97533	402
2.97900	398
2.98267	393
2.98633	388
2.99000	388
2.99367	392
2.99733	398
3.00100	406
3.00467	413
3.00833	416
3.01200	414
3.01567	412
3.01933	411
3.02300	412
3.02667	412
3.03033	411
3.03400	407
3.03767	402
3.04133	401
3.04500	405
3.04867	409
3.05233	406
3.05600	401
3.05967	399
3.06333	397
3.06700	391
3.07067	385
3.07433	377
3.07800	373
3.08167	375
3.08533	380
3.08900	386
3.09267	392
3.09633	394
3.10000	392
3.10367	395
3.10733	401
3.11100	407
3.11467	411
3.11833	413
3.12200	414
3.12567	413
3.12933	411
3.13300	407
3.13667	403
3.14033	400
3.14400	398
3.14767	399
3.15133	396
3.15500	390
3.15867	386
3.16233	384
3.16600	384
3.16967	383
3.17333	383
3.17700	385
3.18067	385
3.18433	382
3.18800	380
3.19167	382
3.19533	386
3.19900	387
3.20267	384
3.20633	380
3.21000	374
3.21367	371
3.21733	376
3.22100	384
3.22467	388
3.22833	388
3.23200	385
3.23567	381
3.23933	379
3.24300	378
3.24667	373
3.25033	368
3.25400	365
3.25767	366
3.26133	374
3.26500	384
3.26867	388
3.27233	386
3.27600	381
3.27967	377
3.28333	370
3.28700	363
3.29067	358
3.29433	354
3.29800	352
3.30167	353
3.30533	357
3.30900	363
3.31267	368
3.31633	375
3.32000	377
3.32367	372
3.32733	370
3.33100	373
3.33467	380
3.33833	385
3.34200	389
3.34567	388
3.34933	385
3.35300	383
3.35667	383
3.36033	381
3.36400	380
3.36767	380
3.37133	383
3.37500	387
3.37867	384
3.38233	377
3.38600	369
3.38967	361
3.39333	355
3.39700	355
3.40067	359
3.40433	362
3.40800	362
3.41167	363
3.41533	362
3.41900	356
3.42267	348
3.42633	345
3.43000	348
3.43367	354
3.43733	362
3.44100	365
3.44467	359
3.44833	348
3.45200	337
3.45567	333
3.45933	334
3.46300	338
3.46667	345
3.47033	349
3.47400	350
3.47767	351
3.48133	349
3.48500	351
3.48867	354
3.49233	353
3.49600	351
3.49967	348
3.50333	347
3.50700	345
3.51067	347
3.51433	352
3.51800	355
3.52167	355
3.52533	350
3.52900	342
3.53267	334
3.53633	331
3.54000	331
3.54367	337
3.54733	346
3.55100	354
3.55467	358
3.55833	353
3.56200	340
3.56567	323
3.56933	312
3.57300	308
3.57667	311
3.58033	319
3.58400	326
3.58767	331
3.59133	335
3.59500	337
3.59867	338
3.60233	338
3.60600	340
3.60967	341
3.61333	342
3.61700	342
3.62067	342
3.62433	336
3.62800	324
3.63167	313
3.63533	304
3.63900	300
3.64267	296
3.64633	293
3.65000	292
3.65367	297
3.65733	306
3.66100	312
3.66467	315
3.66833	316
3.67200	313
3.67567	308
3.67933	305
3.68300	303
3.68667	300
3.69033	301
3.69400	304
3.69767	306
3.70133	306
3.70500	303
3.70867	301
3.71233	300
3.71600	299
3.71967	296
3.72333	297
3.72700	301
3.73067	306
3.73433	311
3.73800	312
3.74167	311
3.74533	307
3.74900	303
3.75267	302
3.75633	303
3.76000	301
3.76367	297
3.76733	299
3.77100	303
3.77467	302
3.77833	297
3.78200	288
3.78567	279
3.78933	272
3.79300	270
3.79667	271
3.80033	272
3.80400	274
3.80767	276
3.81133	274
3.81500	270
3.81867	271
3.82233	277
3.82600	288
3.82967	297
3.83333	303
3.83700	306
3.84067	305
3.84433	300
3.84800	292
3.85167	284
3.85533	277
3.85900	269
3.86267	262
3.86633	259
3.87000	253
3.87367	250
3.87733	253
3.88100	258
3.88467	264
3.88833	271
3.89200	273
3.89567	272
3.89933	271
3.90300	269
3.90667	269
3.91033	270
3.91400	274
3.91767	278
3.92133	278
3.92500	273
3.92867	267
3.93233	262
3.93600	260
3.93967	257
3.94333	259
3.94700	265
3.95067	268
3.95433	262
3.95800	255
3.96167	252
3.96533	249
3.96900	247
3.97267	250
3.97633	255
3.98000	256
3.98367	251
3.98733	245
3.99100	244
3.99467	245
3.99833	244

[Chromatogram (Ch2)]
Interval(msec)	220
# of Points	1091
Start Time(min)	0.002
End Time(min)	3.998
R.Time (min)	Intensity
0.00167	0
0.00533	-0
0.00900	-0
0.01267	-0
0.01633	-0
0.02000	-0
0.02367	0
0.02733	0
0.03100	1
0.03467	1
0.03833	1
0.04200	1
0.04567	2
0.04933	2
0.05300	1
0.05667	1
0.06033	1
0.06400	0
0.06767	0
0.07133	0
0.07500	-0
0.07867	-0
0.08233	-0
0.08600	0
0.08967	0
0.09333	1
0.09700	1
0.10067	1
0.10433	2
0.10800	2
0.11167	2
0.11533	2
0.11900	2
0.12267	2
0.12633	2
0.13000	2
0.13367	2
0.13733	2
0.14100	2
0.14467	2
0.14833	2
0.15200	2
0.15567	2
0.15933	2
0.16300	1
0.16667	1
0.17033	1
0.17400	1
0.17767	1
0.18133	0
0.18500	0
0.18867	-0
0.19233	-0
0.19600	-0
0.19967	-0
0.20333	-1
0.20700	-1
0.21067	-1
0.21433	-1
0.21800	-1
0.22167	-1
0.22533	-1
0.22900	-1
0.23267	-0
0.23633	-0
0.24000	0
0.24367	1
0.24733	1
0.25100	1
0.25467	1
0.25833	1
0.26200	1
0.26567	1
0.26933	1
0.27300	2
0.27667	2
0.28033	2
0.28400	2
0.28767	2
0.29133	2
0.29500	1
0.29867	1
0.30233	1
0.30600	1
0.30967	0
0.31333	0
0.31700	-0
0.32067	-0
0.32433	-1
0.32800	-1
0.33167	-1
0.33533	-1
0.33900	-1
0.34267	-0
0.34633	-0
0.35000	-0
0.35367	-0
0.35733	0
0.36100	0
0.36467	0
0.36833	0
0.37200	0
0.37567	-0
0.37933	-0
0.38300	-0
0.38667	-0
0.39033	-1
0.39400	-1
0.39767	-1
0.40133	-1
0.40500	-1
0.40867	-1
0.41233	-2
0.41600	-2
0.41967	-2
0.42333	-2
0.42700	-2
0.43067	-2
0.43433	-1
0.43800	-1
0.44167	-1
0.44533	-1
0.44900	-1
0.45267	-0
0.45633	-0
0.46000	-0
0.46367	0
0.46733	0
0.47100	1
0.47467	1
0.47833	2
0.48200	2
0.48567	2
0.48933	2
0.49300	2
0.49667	2
0.50033	1
0.50400	1
0.50767	0
0.51133	-1
0.51500	-1
0.51867	-2
0.52233	-3
0.52600	-3
0.52967	-4
0.53333	-4
0.53700	-5
0.54067	-5
0.54433	-5
0.54800	-5
0.55167	-5
0.55533	-5
0.55900	-5
0.56267	-5
0.56633	-4
0.57000	-4
0.57367	-3
0.57733	-3
0.58100	-3
0.58467	-3
0.58833	-2
0.59200	-2
0.59567	-2
0.59933	-2
0.60300	-2
0.60667	-2
0.61033	-2
0.61400	-3
0.61767	-3
0.62133	-3
0.62500	-3
0.62867	-3
0.63233	-3
0.63600	-2
0.63967	-2
0.64333	-2
0.64700	-2
0.65067	-1
0.65433	-1
0.65800	-1
0.66167	-2
0.66533	-2
0.66900	-2
0.67267	-2
0.67633	-2
0.68000	-2
0.68367	-2
0.68733	-1
0.69100	-1
0.69467	-1
0.69833	-1
0.70200	-1
0.70567	-1
0.70933	-0
0.71300	-0
0.71667	-0
0.72033	0
0.72400	0
0.72767	1
0.73133	1
0.73500	2
0.73867	3
0.74233	3
0.74600	3
0.74967	3
0.75333	3
0.75700	3
0.76067	3
0.76433	2
0.76800	2
0.77167	2
0.77533	2
0.77900	2
0.78267	2
0.78633	1
0.79000	1
0.79367	1
0.79733	1
0.80100	1
0.80467	1
0.80833	1
0.81200	1
0.81567	2
0.81933	2
0.82300	2
0.82667	2
0.83033	2
0.83400	2
0.83767	2
0.84133	2
0.84500	2
0.84867	2
0.85233	2
0.85600	2
0.85967	1
0.86333	1
0.86700	1
0.87067	1
0.87433	1
0.87800	1
0.88167	1
0.88533	1
0.88900	1
0.89267	0
0.89633	0
0.90000	-0
0.90367	-0
0.90733	-0
0.91100	-0
0.91467	-0
0.91833	-0
0.92200	-0
0.92567	-0
0.92933	0
0.93300	0
0.93667	0
0.94033	1
0.94400	1
0.94767	1
0.95133	1
0.95500	1
0.95867	1
0.96233	0
0.96600	-0
0.96967	-0
0.97333	-0
0.97700	-0
0.98067	-0
0.98433	-0
0.98800	-0
0.99167	-0
0.99533	-0
0.99900	0
1.00267	1
1.00633	1
1.01000	1
1.01367	1
1.01733	1
1.02100	1
1.02467	0
1.02833	0
1.03200	-0
1.03567	-0
1.03933	-0
1.04300	-1
1.04667	-1
1.05033	-1
1.05400	-1
1.05767	-1
1.06133	-1
1.06500	-1
1.06867	-1
1.07233	-1
1.07600	-1
1.07967	-1
1.08333	-0
1.08700	-0
1.09067	0
1.09433	0
1.09800	1
1.10167	1
1.10533	1
1.10900	1
1.11267	2
1.11633	2
1.12000	2
1.12367	2
1.12733	2
1.13100	2
1.13467	1
1.13833	1
1.14200	1
1.14567	1
1.14933	0
1.15300	-0
1.15667	-0
1.16033	-1
1.16400	-1
1.16767	-1
1.17133	-1
1.17500	-1
1.17867	-2
1.18233	-2
1.18600	-2
1.18967	-2
1.19333	-2
1.19700	-2
1.20067	-2
1.20433	-2
1.20800	-1
1.21167	-1
1.21533	-0
1.21900	0
1.22267	1
1.22633	1
1.23000	2
1.23367	2
1.23733	2
1.24100	2
1.24467	2
1.24833	2
1.25200	2
1.25567	1
1.25933	1
1.26300	1
1.26667	1
1.27033	1
1.27400	0
1.27767	-0
1.28133	-1
1.28500	-1
1.28867	-2
1.29233	-2
1.29600	-2
1.29967	-2
1.30333	-2
1.30700	-2
1.31067	-2
1.31433	-2
1.31800	-2
1.32167	-2
1.32533	-2
1.32900	-2
1.33267	-2
1.33633	-1
1.34000	-1
1.34367	-1
1.34733	-0
1.35100	0
1.35467	1
1.35833	1
1.36200	2
1.36567	2
1.36933	2
1.37300	2
1.37667	2
1.38033	1
1.38400	1
1.38767	1
1.39133	0
1.39500	0
1.39867	-0
1.40233	-1
1.40600	-1
1.40967	-2
1.41333	-2
1.41700	-2
1.42067	-2
1.42433	-2
1.42800	-2
1.43167	-2
1.43533	-2
1.43900	-3
1.44267	-3
1.44633	-3
1.45000	-3
1.45367	-3
1.45733	-2
1.46100	-2
1.46467	-2
1.46833	-2
1.47200	-1
1.47567	-1
1.47933	-1
1.48300	-1
1.48667	-1
1.49033	-1
1.49400	-1
1.49767	-1
1.50133	-1
1.50500	-2
1.50867	-2
1.51233	-2
1.51600	-2
1.51967	-2
1.52333	-2
1.52700	-1
1.53067	-1
1.53433	-1
1.53800	-0
1.54167	0
1.54533	0
1.54900	1
1.55267	1
1.55633	1
1.56000	2
1.56367	2
1.56733	2
1.57100	2
1.57467	2
1.57833	2
1.58200	2
1.58567	2
1.58933	2
1.59300	1
1.59667	0
1.60033	-1
1.60400	-2
1.60767	-4
1.61133	-7
1.61500	-9
1.61867	-12
1.62233	-15
1.62600	-18
1.62967	-22
1.63333	-25
1.63700	-28
1.64067	-32
1.64433	-36
1.64800	-40
1.65167	-43
1.65533	-47
1.65900	-50
1.66267	-54
1.66633	-57
1.67000	-61
1.67367	-66
1.67733	-70
1.68100	-75
1.68467	-79
1.68833	-84
1.69200	-88
1.69567	-92
1.69933	-95
1.70300	-97
1.70667	-99
1.71033	-101
1.71400	-102
1.71767	-104
1.72133	-105
1.72500	-106
1.72867	-108
1.73233	-109
1.73600	-110
1.73967	-111
1.74333	-112
1.74700	-113
1.75067	-113
1.75433	-113
1.75800	-113
1.76167	-113
1.76533	-112
1.76900	-112
1.77267	-111
1.77633	-111
1.78000	-111
1.78367	-111
1.78733	-111
1.79100	-111
1.79467	-112
1.79833	-113
1.80200	-114
1.80567	-115
1.80933	-116
1.81300	-116
1.81667	-117
1.82033	-117
1.82400	-118
1.82767	-118
1.83133	-117
1.83500	-117
1.83867	-116
1.84233	-115
1.84600	-114
1.84967	-114
1.85333	-114
1.85700	-114
1.86067	-114
1.86433	-114
1.86800	-114
1.87167	-114
1.87533	-114
1.87900	-114
1.88267	-114
1.88633	-114
1.89000	-114
1.89367	-113
1.89733	-113
1.90100	-112
1.90467	-111
1.90833	-111
1.91200	-111
1.91567	-111
1.91933	-112
1.92300	-112
1.92667	-112
1.93033	-112
1.93400	-111
1.93767	-111
1.94133	-110
1.94500	-110
1.94867	-109
1.95233	-109
1.95600	-108
1.95967	-108
1.96333	-108
1.96700	-108
1.97067	-108
1.97433	-109
1.97800	-109
1.98167	-110
1.98533	-110
1.98900	-111
1.99267	-111
1.99633	-110
2.00000	-110
2.00367	-109
2.00733	-109
2.01100	-108
2.01467	-107
2.01833	-107
2.02200	-106
2.02567	-105
2.02933	-105
2.03300	-104
2.03667	-104
2.04033	-104
2.04400	-104
2.04767	-104
2.05133	-104
2.05500	-105
2.05867	-105
2.06233	-105
2.06600	-106
2.06967	-105
2.07333	-104
2.07700	-103
2.08067	-102
2.08433	-102
2.08800	-101
2.09167	-101
2.09533	-101
2.09900	-100
2.10267	-100
2.10633	-100
2.11000	-100
2.11367	-99
2.11733	-99
2.12100	-99
2.12467	-98
2.12833	-98
2.13200	-98
2.13567	-97
2.13933	-96
2.14300	-96
2.14667	-95
2.15033	-95
2.15400	-95
2.15767	-94
2.16133	-94
2.16500	-93
2.16867	-93
2.17233	-93
2.17600	-93
2.17967	-93
2.18333	-93
2.18700	-92
2.19067	-92
2.19433	-92
2.19800	-92
2.20167	-93
2.20533	-93
2.20900	-94
2.21267	-94
2.21633	-94
2.22000	-94
2.22367	-93
2.22733	-93
2.23100	-92
2.23467	-91
2.23833	-90
2.24200	-89
2.24567	-88
2.24933	-88
2.25300	-87
2.25667	-88
2.26033	-88
2.26400	-88
2.26767	-88
2.27133	-88
2.27500	-88
2.27867	-88
2.28233	-88
2.28600	-87
2.28967	-86
2.29333	-85
2.29700	-84
2.30067	-83
2.30433	-83
2.30800	-83
2.31167	-84
2.31533	-84
2.31900	-85
2.32267	-84
2.32633	-84
2.33000	-83
2.33367	-82
2.33733	-81
2.34100	-80
2.34467	-79
2.34833	-78
2.35200	-77
2.35567	-75
2.35933	-74
2.36300	-72
2.36667	-71
2.37033	-68
2.37400	-66
2.37767	-62
2.38133	-59
2.38500	-55
2.38867	-50
2.39233	-46
2.39600	-42
2.39967	-38
2.40333	-34
2.40700	-30
2.41067	-26
2.41433	-23
2.41800	-21
2.42167	-19
2.42533	-17
2.42900	-15
2.43267	-13
2.43633	-11
2.44000	-10
2.44367	-8
2.44733	-7
2.45100	-6
2.45467	-6
2.45833	-5
2.46200	-4
2.46567	-3
2.46933	-2
2.47300	-0
2.47667	1
2.48033	2
2.48400	3
2.48767	4
2.49133	5
2.49500	6
2.49867	7
2.50233	7
2.50600	8
2.50967	9
2.51333	10
2.51700	11
2.52067	12
2.52433	13
2.52800	13
2.53167	14
2.53533	14
2.53900	15
2.54267	14
2.54633	15
2.55000	15
2.55367	15
2.55733	16
2.56100	16
2.56467	17
2.56833	17
2.57200	18
2.57567	18
2.57933	18
2.58300	18
2.58667	17
2.59033	16
2.59400	16
2.59767	16
2.60133	15
2.60500	15
2.60867	15
2.61233	16
2.61600	16
2.61967	16
2.62333	17
2.62700	17
2.63067	17
2.63433	18
2.63800	18
2.64167	19
2.64533	19
2.64900	19
2.65267	19
2.65633	19
2.66000	19
2.66367	19
2.66733	19
2.67100	19
2.67467	20
2.67833	20
2.68200	21
2.68567	21
2.68933	21
2.69300	22
2.69667	22
2.70033	22
2.70400	22
2.70767	22
2.71133	23
2.71500	23
2.71867	23
2.72233	23
2.72600	23
2.72967	23
2.73333	23
2.73700	23
2.74067	24
2.74433	24
2.74800	24
2.75167	25
2.75533	26
2.75900	26
2.76267	26
2.76633	26
2.77000	26
2.77367	25
2.77733	25
2.78100	25
2.78467	25
2.78833	24
2.79200	24
2.79567	24
2.79933	25
2.80300	25
2.80667	25
2.81033	26
2.81400	26
2.81767	26
2.82133	27
2.82500	27
2.82867	27
2.83233	26
2.83600	26
2.83967	24
2.84333	21
2.84700	17
2.85067	9
2.85433	-1
2.85800	-15
2.86167	-33
2.86533	-54
2.86900	-81
2.87267	-111
2.87633	-145
2.88000	-184
2.88367	-225
2.88733	-270
2.89100	-318
2.89467	-368
2.89833	-420
2.90200	-473
2.90567	-527
2.90933	-581
2.91300	-635
2.91667	-689
2.92033	-742
2.92400	-794
2.92767	-846
2.93133	-900
2.93500	-958
2.93867	-1018
2.94233	-1070
2.94600	-1103
2.94967	-1111
2.95333	-1092
2.95700	-1050
2.96067	-990
2.96433	-918
2.96800	-839
2.97167	-757
2.97533	-677
2.97900	-600
2.98267	-527
2.98633	-460
2.99000	-400
2.99367	-345
2.99733	-297
3.00100	-254
3.00467	-217
3.00833	-184
3.01200	-156
3.01567	-132
3.01933	-111
3.02300	-93
3.02667	-77
3.03033	-64
3.03400	-52
3.03767	-43
3.04133	-34
3.04500	-26
3.04867	-20
3.05233	-15
3.05600	-10
3.05967	-6
3.06333	-3
3.06700	-0
3.07067	2
3.07433	4
3.07800	6
3.08167	8
3.08533	9
3.08900	11
3.09267	12
3.09633	13
3.10000	13
3.10367	14
3.10733	15
3.11100	15
3.11467	15
3.11833	16
3.12200	16
3.12567	17
3.12933	17
3.13300	17
3.13667	17
3.14033	17
3.14400	17
3.14767	17
3.15133	17
3.15500	17
3.15867	17
3.16233	18
3.16600	18
3.16967	18
3.17333	19
3.17700	19
3.18067	19
3.18433	20
3.18800	20
3.19167	20
3.19533	21
3.19900	21
3.20267	21
3.20633	22
3.21000	22
3.21367	22
3.21733	22
3.22100	22
3.22467	22
3.22833	22
3.23200	22
3.23567	22
3.23933	22
3.24300	22
3.24667	22
3.25033	22
3.25400	23
3.25767	23
3.26133	23
3.26500	24
3.26867	24
3.27233	25
3.27600	25
3.27967	25
3.28333	25
3.28700	26
3.29067	26
3.29433	26
3.29800	26
3.30167	26
3.30533	26
3.30900	26
3.31267	26
3.31633	26
3.32000	26
3.32367	26
3.32733	26
3.33100	26
3.33467	26
3.33833	26
3.34200	26
3.34567	26
3.34933	26
3.35300	25
3.35667	25
3.36033	25
3.36400	25
3.36767	26
3.37133	26
3.37500	26
3.37867	26
3.38233	26
3.38600	26
3.38967	26
3.39333	26
3.39700	26
3.40067	26
3.40433	27
3.40800	27
3.41167	27
3.41533	27
3.41900	28
3.42267	28
3.42633	29
3.43000	29
3.43367	30
3.43733	30
3.44100	31
3.44467	31
3.44833	31
3.45200	31
3.45567	31
3.45933	31
3.46300	32
3.46667	32
3.47033	32
3.47400	32
3.47767	32
3.48133	31
3.48500	31
3.48867	31
3.49233	31
3.49600	31
3.49967	31
3.50333	31
3.50700	30
3.51067	30
3.51433	30
3.51800	29
3.52167	29
3.52533	29
3.52900	29
3.53267	29
3.53633	29
3.54000	28
3.54367	28
3.54733	28
3.55100	28
3.55467	28
3.55833	27
3.56200	27
3.56567	27
3.56933	28
3.57300	28
3.57667	28
3.58033	28
3.58400	28
3.58767	28
3.59133	29
3.59500	29
3.59867	29
3.60233	29
3.60600	29
3.60967	28
3.61333	28
3.61700	28
3.62067	28
3.62433	28
3.62800	28
3.63167	28
3.63533	28
3.63900	28
3.64267	28
3.64633	28
3.65000	28
3.65367	28
3.65733	28
3.66100	28
3.66467	28
3.66833	28
3.67200	27
3.67567	27
3.67933	27
3.68300	26
3.68667	26
3.69033	26
3.69400	26
3.69767	26
3.70133	26
3.70500	26
3.70867	26
3.71233	26
3.71600	26
3.71967	26
3.72333	26
3.72700	26
3.73067	26
3.73433	26
3.73800	26
3.74167	26
3.74533	27
3.74900	27
3.75267	27
3.75633	27
3.76000	27
3.76367	28
3.76733	28
3.77100	28
3.77467	28
3.77833	28
3.78200	28
3.78567	28
3.78933	28
3.79300	28
3.79667	28
3.80033	28
3.80400	28
3.80767	28
3.81133	28
3.81500	28
3.81867	28
3.82233	28
3.82600	28
3.82967	28
3.83333	28
3.83700	29
3.84067	29
3.84433	29
3.84800	29
3.85167	29
3.85533	29
3.85900	28
3.86267	28
3.86633	28
3.87000	28
3.87367	27
3.87733	27
3.88100	27
3.88467	27
3.88833	27
3.89200	27
3.89567	27
3.89933	27
3.90300	27
3.90667	27
3.91033	27
3.91400	27
3.91767	28
3.92133	28
3.92500	28
3.92867	28
3.93233	28
3.93600	29
3.93967	29
3.94333	29
3.94700	29
3.95067	29
3.95433	29
3.95800	29
3.96167	29
3.96533	29
3.96900	29
3.97267	29
3.97633	29
3.98000	29
3.98367	29
3.98733	29
3.99100	29
3.99467	29
3.99833	29

[Chromatogram (Ch3)]
Interval(msec)	220
# of Points	1091
Start Time(min)	0.002
End Time(min)	3.998
R.Time (min)	Intensity
0.00167	1
0.00533	3
0.00900	3
0.01267	1
0.01633	0
0.02000	0
0.02367	1
0.02733	1
0.03100	0
0.03467	2
0.03833	4
0.04200	5
0.04567	6
0.04933	5
0.05300	5
0.05667	6
0.06033	4
0.06400	3
0.06767	3
0.07133	4
0.07500	8
0.07867	10
0.08233	10
0.08600	10
0.08967	10
0.09333	10
0.09700	11
0.10067	11
0.10433	11
0.10800	7
0.11167	4
0.11533	2
0.11900	0
0.12267	1
0.12633	0
0.13000	1
0.13367	2
0.13733	3
0.14100	4
0.14467	4
0.14833	4
0.15200	6
0.15567	6
0.15933	6
0.16300	5
0.16667	5
0.17033	2
0.17400	1
0.17767	-1
0.18133	-1
0.18500	1
0.18867	1
0.19233	1
0.19600	2
0.19967	2
0.20333	3
0.20700	4
0.21067	3
0.21433	2
0.21800	2
0.22167	2
0.22533	1
0.22900	0
0.23267	3
0.23633	4
0.24000	6
0.24367	7
0.24733	7
0.25100	7
0.25467	7
0.25833	5
0.26200	3
0.26567	1
0.26933	1
0.27300	3
0.27667	5
0.28033	7
0.28400	6
0.28767	4
0.29133	4
0.29500	3
0.29867	2
0.30233	3
0.30600	4
0.30967	4
0.31333	3
0.31700	3
0.32067	4
0.32433	5
0.32800	6
0.33167	7
0.33533	6
0.33900	4
0.34267	3
0.34633	2
0.35000	2
0.35367	1
0.35733	-1
0.36100	-1
0.36467	-1
0.36833	-1
0.37200	1
0.37567	3
0.37933	5
0.38300	6
0.38667	7
0.39033	8
0.39400	5
0.39767	3
0.40133	1
0.40500	-0
0.40867	0
0.41233	3
0.41600	5
0.41967	8
0.42333	11
0.42700	12
0.43067	8
0.43433	6
0.43800	6
0.44167	7
0.44533	7
0.44900	8
0.45267	9
0.45633	8
0.46000	8
0.46367	10
0.46733	11
0.47100	7
0.47467	6
0.47833	5
0.48200	4
0.48567	5
0.48933	6
0.49300	7
0.49667	7
0.50033	5
0.50400	3
0.50767	3
0.51133	4
0.51500	5
0.51867	6
0.52233	9
0.52600	10
0.52967	9
0.53333	10
0.53700	10
0.54067	11
0.54433	12
0.54800	12
0.55167	10
0.55533	7
0.55900	4
0.56267	3
0.56633	3
0.57000	3
0.57367	2
0.57733	4
0.58100	5
0.58467	6
0.58833	6
0.59200	7
0.59567	7
0.59933	7
0.60300	7
0.60667	7
0.61033	9
0.61400	9
0.61767	11
0.62133	14
0.62500	15
0.62867	13
0.63233	13
0.63600	13
0.63967	14
0.64333	13
0.64700	11
0.65067	10
0.65433	10
0.65800	9
0.66167	9
0.66533	12
0.66900	14
0.67267	15
0.67633	14
0.68000	14
0.68367	15
0.68733	12
0.69100	9
0.69467	6
0.69833	5
0.70200	7
0.70567	7
0.70933	7
0.71300	8
0.71667	8
0.72033	7
0.72400	7
0.72767	7
0.73133	8
0.73500	10
0.73867	9
0.74233	9
0.74600	10
0.74967	12
0.75333	12
0.75700	9
0.76067	7
0.76433	9
0.76800	12
0.77167	15
0.77533	15
0.77900	13
0.78267	13
0.78633	14
0.79000	14
0.79367	14
0.79733	15
0.80100	15
0.80467	15
0.80833	16
0.81200	15
0.81567	15
0.81933	16
0.82300	16
0.82667	14
0.83033	15
0.83400	15
0.83767	16
0.84133	16
0.84500	13
0.84867	11
0.85233	10
0.85600	9
0.85967	10
0.86333	10
0.86700	10
0.87067	11
0.87433	11
0.87800	11
0.88167	12
0.88533	14
0.88900	13
0.89267	12
0.89633	11
0.90000	10
0.90367	11
0.90733	11
0.91100	12
0.91467	11
0.91833	9
0.92200	8
0.92567	8
0.92933	11
0.93300	13
0.93667	14
0.94033	14
0.94400	15
0.94767	15
0.95133	14
0.95500	10
0.95867	8
0.96233	7
0.96600	10
0.96967	14
0.97333	14
0.97700	13
0.98067	12
0.98433	11
0.98800	10
0.99167	10
0.99533	9
0.99900	8
1.00267	8
1.00633	9
1.01000	11
1.01367	12
1.01733	10
1.02100	9
1.02467	8
1.02833	9
1.03200	11
1.03567	13
1.03933	15
1.04300	16
1.04667	15
1.05033	15
1.05400	17
1.05767	17
1.06133	16
1.06500	14
1.06867	13
1.07233	15
1.07600	17
1.07967	17
1.08333	16
1.08700	17
1.09067	18
1.09433	18
1.09800	18
1.10167	18
1.10533	19
1.10900	17
1.11267	16
1.11633	15
1.12000	14
1.12367	15
1.12733	16
1.13100	17
1.13467	18
1.13833	19
1.14200	19
1.14567	19
1.14933	17
1.15300	16
1.15667	15
1.16033	14
1.16400	15
1.16767	16
1.17133	18
1.17500	19
1.17867	19
1.18233	20
1.18600	20
1.18967	18
1.19333	17
1.19700	17
1.20067	18
1.20433	18
1.20800	19
1.21167	17
1.21533	14
1.21900	13
1.22267	13
1.22633	14
1.23000	15
1.23367	18
1.23733	21
1.24100	21
1.24467	19
1.24833	19
1.25200	19
1.25567	21
1.25933	21
1.26300	21
1.26667	18
1.27033	17
1.27400	17
1.27767	18
1.28133	19
1.28500	20
1.28867	20
1.29233	19
1.29600	18
1.29967	19
1.30333	22
1.30700	23
1.31067	25
1.31433	25
1.31800	22
1.32167	21
1.32533	20
1.32900	18
1.33267	16
1.33633	16
1.34000	18
1.34367	18
1.34733	19
1.35100	20
1.35467	21
1.35833	20
1.36200	19
1.36567	17
1.36933	16
1.37300	16
1.37667	16
1.38033	17
1.38400	17
1.38767	19
1.39133	20
1.39500	19
1.39867	19
1.40233	19
1.40600	19
1.40967	19
1.41333	19
1.41700	17
1.42067	15
1.42433	16
1.42800	18
1.43167	19
1.43533	20
1.43900	22
1.44267	21
1.44633	22
1.45000	22
1.45367	23
1.45733	25
1.46100	26
1.46467	28
1.46833	27
1.47200	26
1.47567	23
1.47933	22
1.48300	20
1.48667	18
1.49033	17
1.49400	17
1.49767	20
1.50133	24
1.50500	26
1.50867	28
1.51233	30
1.51600	29
1.51967	26
1.52333	21
1.52700	20
1.53067	20
1.53433	21
1.53800	20
1.54167	18
1.54533	17
1.54900	19
1.55267	22
1.55633	24
1.56000	25
1.56367	25
1.56733	28
1.57100	30
1.57467	28
1.57833	27
1.58200	26
1.58567	26
1.58933	27
1.59300	26
1.59667	26
1.60033	26
1.60400	26
1.60767	25
1.61133	25
1.61500	26
1.61867	27
1.62233	27
1.62600	27
1.62967	26
1.63333	26
1.63700	26
1.64067	26
1.64433	26
1.64800	27
1.65167	28
1.65533	28
1.65900	28
1.66267	29
1.66633	32
1.67000	33
1.67367	32
1.67733	31
1.68100	31
1.68467	32
1.68833	32
1.69200	32
1.69567	32
1.69933	32
1.70300	33
1.70667	36
1.71033	36
1.71400	36
1.71767	35
1.72133	34
1.72500	33
1.72867	31
1.73233	30
1.73600	29
1.73967	30
1.74333	31
1.74700	33
1.75067	34
1.75433	33
1.75800	34
1.76167	36
1.76533	37
1.76900	38
1.77267	38
1.77633	38
1.78000	38
1.78367	37
1.78733	37
1.79100	38
1.79467	40
1.79833	42
1.80200	42
1.80567	43
1.80933	44
1.81300	45
1.81667	45
1.82033	46
1.82400	48
1.82767	50
1.83133	49
1.83500	48
1.83867	49
1.84233	50
1.84600	50
1.84967	51
1.85333	53
1.85700	53
1.86067	53
1.86433	53
1.86800	53
1.87167	54
1.87533	55
1.87900	55
1.88267	55
1.88633	54
1.89000	54
1.89367	54
1.89733	55
1.90100	58
1.90467	61
1.90833	60
1.91200	61
1.91567	61
1.91933	62
1.92300	62
1.92667	61
1.93033	60
1.93400	60
1.93767	61
1.94133	61
1.94500	63
1.94867	64
1.95233	65
1.95600	66
1.95967	65
1.96333	64
1.96700	65
1.97067	64
1.97433	63
1.97800	64
1.98167	66
1.98533	69
1.98900	72
1.99267	71
1.99633	69
2.00000	68
2.00367	69
2.00733	67
2.01100	67
2.01467	68
2.01833	68
2.02200	68
2.02567	70
2.02933	72
2.03300	75
2.03667	76
2.04033	75
2.04400	74
2.04767	77
2.05133	80
2.05500	82
2.05867	83
2.06233	84
2.06600	85
2.06967	87
2.07333	89
2.07700	90
2.08067	92
2.08433	92
2.08800	91
2.09167	91
2.09533	91
2.09900	91
2.10267	95
2.10633	97
2.11000	97
2.11367	96
2.11733	95
2.12100	95
2.12467	94
2.12833	94
2.13200	94
2.13567	96
2.13933	98
2.14300	99
2.14667	98
2.15033	98
2.15400	101
2.15767	106
2.16133	109
2.16500	111
2.16867	111
2.17233	111
2.17600	112
2.17967	114
2.18333	116
2.18700	117
2.19067	117
2.19433	118
2.19800	118
2.20167	118
2.20533	120
2.20900	125
2.21267	127
2.21633	129
2.22000	131
2.22367	131
2.22733	130
2.23100	130
2.23467	132
2.23833	134
2.24200	135
2.24567	135
2.24933	136
2.25300	136
2.25667	134
2.26033	135
2.26400	137
2.26767	137
2.27133	139
2.27500	140
2.27867	143
2.28233	147
2.28600	152
2.28967	155
2.29333	155
2.29700	155
2.30067	156
2.30433	159
2.30800	160
2.31167	160
2.31533	162
2.31900	163
2.32267	164
2.32633	165
2.33000	164
2.33367	164
2.33733	165
2.34100	167
2.34467	171
2.34833	174
2.35200	176
2.35567	178
2.35933	181
2.36300	183
2.36667	184
2.37033	184
2.37400	183
2.37767	182
2.38133	184
2.38500	186
2.38867	185
2.39233	185
2.39600	187
2.39967	191
2.40333	195
2.40700	200
2.41067	203
2.41433	207
2.41800	209
2.42167	211
2.42533	213
2.42900	215
2.43267	216
2.43633	217
2.44000	223
2.44367	260
2.44733	359
2.45100	468
2.45467	556
2.45833	612
2.46200	621
2.46567	599
2.46933	568
2.47300	543
2.47667	528
2.48033	520
2.48400	512
2.48767	493
2.49133	464
2.49500	433
2.49867	406
2.50233	383
2.50600	368
2.50967	357
2.51333	352
2.51700	352
2.52067	355
2.52433	363
2.52800	378
2.53167	394
2.53533	408
2.53900	416
2.54267	414
2.54633	404
2.55000	391
2.55367	376
2.55733	360
2.56100	345
2.56467	331
2.56833	318
2.57200	307
2.57567	300
2.57933	297
2.58300	295
2.58667	294
2.59033	292
2.59400	291
2.59767	285
2.60133	278
2.60500	266
2.60867	250
2.61233	232
2.61600	213
2.61967	194
2.62333	178
2.62700	168
2.63067	162
2.63433	158
2.63800	159
2.64167	163
2.64533	167
2.64900	173
2.65267	183
2.65633	194
2.66000	204
2.66367	212
2.66733	221
2.67100	228
2.67467	234
2.67833	238
2.68200	243
2.68567	244
2.68933	242
2.69300	239
2.69667	234
2.70033	231
2.70400	231
2.70767	229
2.71133	225
2.71500	222
2.71867	221
2.72233	218
2.72600	217
2.72967	217
2.73333	217
2.73700	214
2.74067	213
2.74433	214
2.74800	216
2.75167	219
2.75533	220
2.75900	222
2.76267	224
2.76633	226
2.77000	228
2.77367	229
2.77733	231
2.78100	233
2.78467	234
2.78833	235
2.79200	234
2.79567	234
2.79933	235
2.80300	237
2.80667	237
2.81033	237
2.81400	237
2.81767	242
2.82133	260
2.82500	300
2.82867	377
2.83233	511
2.83600	725
2.83967	1039
2.84333	1463
2.84700	1982
2.85067	2571
2.85433	3189
2.85800	3790
2.86167	4321
2.86533	4742
2.86900	5027
2.87267	5162
2.87633	5153
2.88000	5021
2.88367	4789
2.88733	4487
2.89100	4144
2.89467	3784
2.89833	3424
2.90200	3077
2.90567	2752
2.90933	2453
2.91300	2181
2.91667	1939
2.92033	1724
2.92400	1531
2.92767	1361
2.93133	1215
2.93500	1087
2.93867	977
2.94233	881
2.94600	797
2.94967	722
2.95333	658
2.95700	604
2.96067	559
2.96433	518
2.96800	483
2.97167	456
2.97533	430
2.97900	406
2.98267	386
2.98633	368
2.99000	352
2.99367	340
2.99733	327
3.00100	317
3.00467	310
3.00833	302
3.01200	295
3.01567	289
3.01933	283
3.02300	277
3.02667	271
3.03033	264
3.03400	258
3.03767	253
3.04133	251
3.04500	248
3.04867	243
3.05233	239
3.05600	240
3.05967	238
3.06333	233
3.06700	228
3.07067	226
3.07433	227
3.07800	224
3.08167	225
3.08533	224
3.08900	223
3.09267	221
3.09633	218
3.10000	217
3.10367	215
3.10733	216
3.11100	215
3.11467	212
3.11833	210
3.12200	210
3.12567	211
3.12933	211
3.13300	212
3.13667	214
3.14033	213
3.14400	211
3.14767	209
3.15133	208
3.15500	210
3.15867	211
3.16233	212
3.16600	213
3.16967	214
3.17333	211
3.17700	210
3.18067	211
3.18433	212
3.18800	213
3.19167	213
3.19533	213
3.19900	215
3.20267	215
3.20633	214
3.21000	214
3.21367	216
3.21733	217
3.22100	215
3.22467	213
3.22833	204
3.23200	169
3.23567	132
3.23933	114
3.24300	112
3.24667	123
3.25033	145
3.25400	179
3.25767	217
3.26133	259
3.26500	302
3.26867	346
3.27233	390
3.27600	431
3.27967	469
3.28333	503
3.28700	532
3.29067	555
3.29433	577
3.29800	598
3.30167	617
3.30533	631
3.30900	641
3.31267	650
3.31633	658
3.32000	666
3.32367	671
3.32733	676
3.33100	679
3.33467	680
3.33833	683
3.34200	685
3.34567	688
3.34933	689
3.35300	691
3.35667	694
3.36033	694
3.36400	695
3.36767	698
3.37133	702
3.37500	705
3.37867	706
3.38233	708
3.38600	712
3.38967	714
3.39333	715
3.39700	718
3.40067	720
3.40433	721
3.40800	722
3.41167	725
3.41533	730
3.41900	735
3.42267	737
3.42633	740
3.43000	744
3.43367	745
3.43733	743
3.44100	743
3.44467	742
3.44833	741
3.45200	741
3.45567	740
3.45933	740
3.46300	741
3.46667	740
3.47033	739
3.47400	738
3.47767	738
3.48133	737
3.48500	737
3.48867	738
3.49233	735
3.49600	732
3.49967	727
3.50333	723
3.50700	720
3.51067	718
3.51433	718
3.51800	717
3.52167	715
3.52533	712
3.52900	710
3.53267	710
3.53633	709
3.54000	707
3.54367	704
3.54733	701
3.55100	697
3.55467	693
3.55833	690
3.56200	689
3.56567	688
3.56933	687
3.57300	686
3.57667	684
3.58033	683
3.58400	680
3.58767	678
3.59133	673
3.59500	671
3.59867	670
3.60233	670
3.60600	671
3.60967	668
3.61333	664
3.61700	661
3.62067	656
3.62433	654
3.62800	653
3.63167	654
3.63533	652
3.63900	648
3.64267	646
3.64633	644
3.65000	642
3.65367	638
3.65733	636
3.66100	633
3.66467	633
3.66833	632
3.67200	633
3.67567	632
3.67933	630
3.68300	629
3.68667	627
3.69033	626
3.69400	624
3.69767	627
3.70133	627
3.70500	625
3.70867	626
3.71233	624
3.71600	624
3.71967	622
3.72333	620
3.72700	618
3.73067	618
3.73433	619
3.73800	618
3.74167	616
3.74533	615
3.74900	616
3.75267	618
3.75633	619
3.76000	619
3.76367	619
3.76733	619
3.77100	618
3.77467	616
3.77833	616
3.78200	616
3.78567	616
3.78933	613
3.79300	610
3.79667	609
3.80033	609
3.80400	609
3.80767	605
3.81133	603
3.81500	603
3.81867	602
3.82233	599
3.82600	598
3.82967	599
3.83333	601
3.83700	601
3.84067	600
3.84433	597
3.84800	595
3.85167	594
3.85533	593
3.85900	594
3.86267	595
3.86633	595
3.87000	594
3.87367	593
3.87733	592
3.88100	593
3.88467	592
3.88833	592
3.89200	593
3.89567	593
3.89933	592
3.90300	591
3.90667	591
3.91033	589
3.91400	588
3.91767	587
3.92133	589
3.92500	589
3.92867	589
3.93233	589
3.93600	589
3.93967	589
3.94333	588
3.94700	585
3.95067	581
3.95433	576
3.95800	572
3.96167	570
3.96533	569
3.96900	570
3.97267	569
3.97633	569
3.98000	569
3.98367	570
3.98733	570
3.99100	571
3.99467	571
3.99833	570

[Status Trace (Column Oven Temperature)]
Interval(msec)	1000
# of Points	240
Start Time(min)	0.001
End Time(min)	3.984
Intensity Units	
Intensity Multiplier	1
R.Time (min)	Intensity
0.00095	35.05
0.01762	35.05
0.03428	35.03
0.05095	35.03
0.06762	35.03
0.08428	35.03
0.10095	35.02
0.11762	35.02
0.13428	35.02
0.15095	35.00
0.16762	35.01
0.18428	35.01
0.20095	35.01
0.21762	35.01
0.23428	35.01
0.25095	35.00
0.26762	35.00
0.28428	34.99
0.30095	35.00
0.31762	35.00
0.33428	35.00
0.35095	35.00
0.36762	35.00
0.38428	35.01
0.40095	35.00
0.41762	35.01
0.43428	35.01
0.45095	35.00
0.46762	34.98
0.48428	34.97
0.50095	34.97
0.51762	34.99
0.53428	35.01
0.55095	35.01
0.56762	35.02
0.58428	35.02
0.60095	35.02
0.61762	35.02
0.63428	35.03
0.65095	35.04
0.66762	35.05
0.68428	35.03
0.70095	35.04
0.71762	35.03
0.73428	35.01
0.75095	35.01
0.76762	35.02
0.78428	35.01
0.80095	35.00
0.81762	34.99
0.83428	34.98
0.85095	34.98
0.86762	34.98
0.88428	34.98
0.90095	34.98
0.91762	34.99
0.93428	34.99
0.95095	34.99
0.96762	34.99
0.98428	34.99
1.00095	34.99
1.01762	34.99
1.03428	34.99
1.05095	35.00
1.06762	35.01
1.08428	35.00
1.10095	34.99
1.11762	34.99
1.13428	34.99
1.15095	35.00
1.16762	35.00
1.18428	35.01
1.20095	35.01
1.21762	35.00
1.23428	34.99
1.25095	35.00
1.26762	35.00
1.28428	35.01
1.30095	35.02
1.31762	35.02
1.33428	35.00
1.35095	35.01
1.36762	34.99
1.38428	34.99
1.40095	35.00
1.41762	35.00
1.43428	35.01
1.45095	35.02
1.46762	35.02
1.48428	35.03
1.50095	35.03
1.51762	35.02
1.53428	35.01
1.55095	35.00
1.56762	34.99
1.58428	34.98
1.60095	35.03
1.61762	35.14
1.63428	35.30
1.65095	35.53
1.66762	35.81
1.68428	36.17
1.70095	36.52
1.71762	36.87
1.73428	37.21
1.75095	37.55
1.76762	37.87
1.78428	38.19
1.80095	38.54
1.81762	38.89
1.83428	39.20
1.85095	39.52
1.86762	39.85
1.88428	40.18
1.90095	40.50
1.91762	40.83
1.93428	41.15
1.95095	41.46
1.96762	41.78
1.98428	42.12
2.00095	42.46
2.01762	42.78
2.03428	43.09
2.05095	43.43
2.06762	43.77
2.08428	44.08
2.10095	44.41
2.11762	44.73
2.13428	45.05
2.15095	45.39
2.16762	45.70
2.18428	46.02
2.20095	46.37
2.21762	46.71
2.23428	47.03
2.25095	47.35
2.26762	47.70
2.28428	48.02
2.30095	48.37
2.31762	48.72
2.33428	49.04
2.35095	49.32
2.36762	49.55
2.38428	49.65
2.40095	49.65
2.41762	49.66
2.43428	49.64
2.45095	49.66
2.46762	49.66
2.48428	49.67
2.50095	49.69
2.51762	49.69
2.53428	49.70
2.55095	49.72
2.56762	49.72
2.58428	49.74
2.60095	49.77
2.61762	49.78
2.63428	49.80
2.65095	49.82
2.66762	49.83
2.68428	49.83
2.70095	49.84
2.71762	49.85
2.73428	49.86
2.75095	49.84
2.76762	49.86
2.78428	49.88
2.80095	49.88
2.81762	49.88
2.83428	49.87
2.85095	49.87
2.86762	49.88
2.88428	49.89
2.90095	49.90
2.91762	49.92
2.93428	49.94
2.95095	49.96
2.96762	49.97
2.98428	49.98
3.00095	49.98
3.01762	49.99
3.03428	49.99
3.05095	50.01
3.06762	50.01
3.08428	50.00
3.10095	50.01
3.11762	50.02
3.13428	50.03
3.15095	50.05
3.16762	50.05
3.18428	50.05
3.20095	50.06
3.21762	50.08
3.23428	50.09
3.25095	50.10
3.26762	50.09
3.28428	50.09
3.30095	50.09
3.31762	50.09
3.33428	50.10
3.35095	50.10
3.36762	50.10
3.38428	50.11
3.40095	50.11
3.41762	50.10
3.43428	50.07
3.45095	50.05
3.46762	50.03
3.48428	50.02
3.50095	50.02
3.51762	50.02
3.53428	50.03
3.55095	50.04
3.56762	50.03
3.58428	50.02
3.60095	50.02
3.61762	50.02
3.63428	50.02
3.65095	50.02
3.66762	50.02
3.68428	50.03
3.70095	50.04
3.71762	50.05
3.73428	50.05
3.75095	50.05
3.76762	50.05
3.78428	50.05
3.80095	50.05
3.81762	50.05
3.83428	50.05
3.85095	50.05
3.86762	50.06
3.88428	50.06
3.90095	50.06
3.91762	50.06
3.93428	50.05
3.95095	50.05
3.96762	50.05
3.98428	50.04

[Status Trace (Injection Unit Temperature)]
Interval(msec)	1000
# of Points	240
Start Time(min)	0.001
End Time(min)	3.984
Intensity Units	
Intensity Multiplier	1
R.Time (min)	Intensity
0.00095	99.98
0.01762	99.98
0.03428	99.97
0.05095	99.98
0.06762	99.98
0.08428	99.98
0.10095	99.98
0.11762	99.98
0.13428	99.98
0.15095	99.98
0.16762	99.98
0.18428	99.98
0.20095	99.98
0.21762	99.98
0.23428	99.98
0.25095	99.98
0.26762	99.98
0.28428	99.98
0.30095	99.98
0.31762	99.99
0.33428	99.98
0.35095	99.98
0.36762	99.98
0.38428	99.98
0.40095	99.99
0.41762	99.98
0.43428	99.98
0.45095	99.98
0.46762	99.98
0.48428	99.98
0.50095	99.98
0.51762	99.98
0.53428	99.98
0.55095	99.98
0.56762	99.98
0.58428	99.98
0.60095	99.98
0.61762	99.98
0.63428	99.98
0.65095	99.98
0.66762	99.98
0.68428	99.98
0.70095	99.98
0.71762	99.98
0.73428	99.98
0.75095	99.97
0.76762	99.98
0.78428	99.98
0.80095	99.98
0.81762	99.98
0.83428	99.98
0.85095	99.98
0.86762	99.98
0.88428	99.98
0.90095	99.98
0.91762	99.98
0.93428	99.98
0.95095	99.98
0.96762	99.98
0.98428	99.98
1.00095	99.98
1.01762	99.98
1.03428	99.98
1.05095	99.98
1.06762	99.98
1.08428	99.98
1.10095	99.98
1.11762	99.98
1.13428	99.98
1.15095	99.98
1.16762	99.98
1.18428	99.98
1.20095	99.98
1.21762	99.98
1.23428	99.98
1.25095	99.99
1.26762	99.98
1.28428	99.98
1.30095	99.98
1.31762	99.98
1.33428	99.98
1.35095	99.99
1.36762	99.99
1.38428	99.99
1.40095	99.99
1.41762	99.99
1.43428	99.99
1.45095	99.99
1.46762	99.98
1.48428	99.99
1.50095	99.98
1.51762	99.99
1.53428	99.98
1.55095	99.99
1.56762	99.99
1.58428	99.99
1.60095	99.99
1.61762	99.99
1.63428	99.99
1.65095	99.98
1.66762	99.98
1.68428	99.99
1.70095	99.98
1.71762	99.98
1.73428	99.98
1.75095	99.99
1.76762	99.99
1.78428	99.99
1.80095	99.99
1.81762	99.99
1.83428	99.99
1.85095	99.99
1.86762	99.99
1.88428	99.99
1.90095	99.98
1.91762	99.98
1.93428	99.98
1.95095	99.98
1.96762	99.98
1.98428	99.98
2.00095	99.98
2.01762	99.98
2.03428	99.98
2.05095	99.98
2.06762	99.98
2.08428	99.98
2.10095	99.97
2.11762	99.97
2.13428	99.98
2.15095	99.97
2.16762	99.97
2.18428	99.97
2.20095	99.97
2.21762	99.97
2.23428	99.97
2.25095	99.97
2.26762	99.96
2.28428	99.97
2.30095	99.97
2.31762	99.96
2.33428	99.97
2.35095	99.96
2.36762	99.96
2.38428	99.97
2.40095	99.96
2.41762	99.97
2.43428	99.96
2.45095	99.96
2.46762	99.97
2.48428	99.96
2.50095	99.96
2.51762	99.97
2.53428	99.97
2.55095	99.97
2.56762	99.97
2.58428	99.97
2.60095	99.97
2.61762	99.97
2.63428	99.97
2.65095	99.97
2.66762	99.97
2.68428	99.97
2.70095	99.97
2.71762	99.98
2.73428	99.98
2.75095	99.98
2.76762	99.98
2.78428	99.98
2.80095	99.98
2.81762	99.99
2.83428	99.99
2.85095	99.99
2.86762	99.99
2.88428	100.00
2.90095	100.00
2.91762	100.00
2.93428	100.00
2.95095	100.00
2.96762	99.99
2.98428	100.00
3.00095	100.00
3.01762	100.00
3.03428	100.01
3.05095	100.01
3.06762	100.01
3.08428	100.01
3.10095	100.01
3.11762	100.01
3.13428	100.02
3.15095	100.02
3.16762	100.02
3.18428	100.02
3.20095	100.02
3.21762	100.03
3.23428	100.02
3.25095	100.02
3.26762	100.03
3.28428	100.03
3.30095	100.03
3.31762	100.03
3.33428	100.03
3.35095	100.03
3.36762	100.03
3.38428	100.04
3.40095	100.03
3.41762	100.03
3.43428	100.04
3.45095	100.04
3.46762	100.04
3.48428	100.04
3.50095	100.04
3.51762	100.04
3.53428	100.04
3.55095	100.04
3.56762	100.04
3.58428	100.04
3.60095	100.04
3.61762	100.04
3.63428	100.04
3.65095	100.05
3.66762	100.04
3.68428	100.05
3.70095	100.04
3.71762	100.04
3.73428	100.05
3.75095	100.05
3.76762	100.04
3.78428	100.04
3.80095	100.05
3.81762	100.05
3.83428	100.04
3.85095	100.05
3.86762	100.05
3.88428	100.05
3.90095	100.05
3.91762	100.05
3.93428	100.05
3.95095	100.05
3.96762	100.05
3.98428	100.05

[Status Trace (Carrier Gas Pressure)]
Interval(msec)	1000
# of Points	240
Start Time(min)	0.001
End Time(min)	3.984
Intensity Units	
Intensity Multiplier	1
R.Time (min)	Intensity
0.00095	58.00
0.01762	56.49
0.03428	56.06
0.05095	58.39
0.06762	59.90
0.08428	58.42
0.10095	57.97
0.11762	58.00
0.13428	58.01
0.15095	58.01
0.16762	58.00
0.18428	58.00
0.20095	58.00
0.21762	58.00
0.23428	58.00
0.25095	58.00
0.26762	58.00
0.28428	58.00
0.30095	58.00
0.31762	58.00
0.33428	58.00
0.35095	58.00
0.36762	58.00
0.38428	58.00
0.40095	58.00
0.41762	58.00
0.43428	58.00
0.45095	58.00
0.46762	58.00
0.48428	58.00
0.50095	58.00
0.51762	58.00
0.53428	58.00
0.55095	58.00
0.56762	58.00
0.58428	58.00
0.60095	58.00
0.61762	58.00
0.63428	58.00
0.65095	58.00
0.66762	58.00
0.68428	58.00
0.70095	58.00
0.71762	58.00
0.73428	58.00
0.75095	58.00
0.76762	58.00
0.78428	58.00
0.80095	58.00
0.81762	58.00
0.83428	58.00
0.85095	58.00
0.86762	58.00
0.88428	58.00
0.90095	58.00
0.91762	58.00
0.93428	58.00
0.95095	58.00
0.96762	58.00
0.98428	58.00
1.00095	58.00
1.01762	58.00
1.03428	58.00
1.05095	58.00
1.06762	58.00
1.08428	58.00
1.10095	58.00
1.11762	58.00
1.13428	58.00
1.15095	58.00
1.16762	58.00
1.18428	58.00
1.20095	58.00
1.21762	58.00
1.23428	58.00
1.25095	58.00
1.26762	58.00
1.28428	58.00
1.30095	58.00
1.31762	58.00
1.33428	58.00
1.35095	58.00
1.36762	58.00
1.38428	58.00
1.40095	58.00
1.41762	58.00
1.43428	58.00
1.45095	58.00
1.46762	58.00
1.48428	58.00
1.50095	58.00
1.51762	58.00
1.53428	58.00
1.55095	58.00
1.56762	58.00
1.58428	58.00
1.60095	58.00
1.61762	58.00
1.63428	58.00
1.65095	58.00
1.66762	58.00
1.68428	58.01
1.70095	58.00
1.71762	58.00
1.73428	58.00
1.75095	58.00
1.76762	58.00
1.78428	58.00
1.80095	58.00
1.81762	58.00
1.83428	58.00
1.85095	58.00
1.86762	58.00
1.88428	58.00
1.90095	58.00
1.91762	58.00
1.93428	58.00
1.95095	58.00
1.96762	58.00
1.98428	58.00
2.00095	58.00
2.01762	58.00
2.03428	58.00
2.05095	58.00
2.06762	58.00
2.08428	58.00
2.10095	58.00
2.11762	58.00
2.13428	58.00
2.15095	58.00
2.16762	58.00
2.18428	58.00
2.20095	58.00
2.21762	58.00
2.23428	58.00
2.25095	58.00
2.26762	58.00
2.28428	58.00
2.30095	58.00
2.31762	58.00
2.33428	58.00
2.35095	58.00
2.36762	58.00
2.38428	57.99
2.40095	57.99
2.41762	58.00
2.43428	58.00
2.45095	58.00
2.46762	58.00
2.48428	58.00
2.50095	58.00
2.51762	57.99
2.53428	57.99
2.55095	58.00
2.56762	58.00
2.58428	58.00
2.60095	58.00
2.61762	58.00
2.63428	58.00
2.65095	58.00
2.66762	58.00
2.68428	58.00
2.70095	58.00
2.71762	58.00
2.73428	58.00
2.75095	58.00
2.76762	58.00
2.78428	58.00
2.80095	58.00
2.81762	58.00
2.83428	58.00
2.85095	58.00
2.86762	58.00
2.88428	58.00
2.90095	58.00
2.91762	58.00
2.93428	58.00
2.95095	58.00
2.96762	58.00
2.98428	58.00
3.00095	58.00
3.01762	58.00
3.03428	58.00
3.05095	58.00
3.06762	58.00
3.08428	58.00
3.10095	58.00
3.11762	58.00
3.13428	58.00
3.15095	58.00
3.16762	58.00
3.18428	58.00
3.20095	58.00
3.21762	58.00
3.23428	58.00
3.25095	58.00
3.26762	58.00
3.28428	58.00
3.30095	58.00
3.31762	58.00
3.33428	58.00
3.35095	58.00
3.36762	58.00
3.38428	58.00
3.40095	58.00
3.41762	58.00
3.43428	58.00
3.45095	58.00
3.46762	58.00
3.48428	58.00
3.50095	58.00
3.51762	58.00
3.53428	58.00
3.55095	58.00
3.56762	58.00
3.58428	58.00
3.60095	58.00
3.61762	58.00
3.63428	58.00
3.65095	58.00
3.66762	58.00
3.68428	58.00
3.70095	58.00
3.71762	58.00
3.73428	58.00
3.75095	58.00
3.76762	58.00
3.78428	58.00
3.80095	58.00
3.81762	58.00
3.83428	58.00
3.85095	58.00
3.86762	58.00
3.88428	58.00
3.90095	58.00
3.91762	58.00
3.93428	58.00
3.95095	58.00
3.96762	58.00
3.98428	58.00

[Status Trace (Carrier Gas Flow)]
Interval(msec)	1000
# of Points	240
Start Time(min)	0.001
End Time(min)	3.984
Intensity Units	
Intensity Multiplier	1
R.Time (min)	Intensity
0.00095	34.52
0.01762	34.29
0.03428	34.54
0.05095	34.54
0.06762	34.49
0.08428	34.52
0.10095	34.52
0.11762	34.52
0.13428	34.52
0.15095	34.52
0.16762	34.52
0.18428	34.52
0.20095	34.51
0.21762	34.51
0.23428	34.52
0.25095	34.52
0.26762	34.52
0.28428	34.52
0.30095	34.52
0.31762	34.52
0.33428	34.52
0.35095	34.52
0.36762	34.52
0.38428	34.51
0.40095	34.52
0.41762	34.52
0.43428	34.52
0.45095	34.52
0.46762	34.52
0.48428	34.52
0.50095	34.52
0.51762	34.51
0.53428	34.52
0.55095	34.52
0.56762	34.52
0.58428	34.52
0.60095	34.52
0.61762	34.52
0.63428	34.51
0.65095	34.52
0.66762	34.52
0.68428	34.52
0.70095	34.52
0.71762	34.52
0.73428	34.53
0.75095	34.52
0.76762	34.52
0.78428	34.52
0.80095	34.53
0.81762	34.51
0.83428	34.51
0.85095	34.52
0.86762	34.52
0.88428	34.52
0.90095	34.52
0.91762	34.52
0.93428	34.52
0.95095	34.52
0.96762	34.52
0.98428	34.52
1.00095	34.52
1.01762	34.53
1.03428	34.52
1.05095	34.52
1.06762	34.52
1.08428	34.52
1.10095	34.51
1.11762	34.52
1.13428	34.52
1.15095	34.52
1.16762	34.52
1.18428	34.51
1.20095	34.52
1.21762	34.51
1.23428	34.52
1.25095	34.52
1.26762	34.52
1.28428	34.52
1.30095	34.52
1.31762	34.51
1.33428	34.52
1.35095	34.52
1.36762	34.52
1.38428	34.52
1.40095	34.52
1.41762	34.52
1.43428	34.51
1.45095	34.51
1.46762	34.51
1.48428	34.52
1.50095	34.52
1.51762	34.52
1.53428	34.52
1.55095	34.51
1.56762	34.51
1.58428	34.52
1.60095	34.52
1.61762	34.52
1.63428	34.52
1.65095	34.52
1.66762	34.52
1.68428	34.52
1.70095	34.52
1.71762	34.52
1.73428	34.52
1.75095	34.52
1.76762	34.52
1.78428	34.52
1.80095	34.52
1.81762	34.52
1.83428	34.52
1.85095	34.52
1.86762	34.52
1.88428	34.52
1.90095	34.52
1.91762	34.52
1.93428	34.52
1.95095	34.52
1.96762	34.52
1.98428	34.52
2.00095	34.52
2.01762	34.52
2.03428	34.52
2.05095	34.52
2.06762	34.52
2.08428	34.52
2.10095	34.52
2.11762	34.52
2.13428	34.51
2.15095	34.52
2.16762	34.52
2.18428	34.51
2.20095	34.51
2.21762	34.51
2.23428	34.53
2.25095	34.52
2.26762	34.51
2.28428	34.52
2.30095	34.52
2.31762	34.51
2.33428	34.52
2.35095	34.52
2.36762	34.52
2.38428	34.54
2.40095	34.51
2.41762	34.52
2.43428	34.52
2.45095	34.52
2.46762	34.52
2.48428	34.52
2.50095	34.52
2.51762	34.51
2.53428	34.52
2.55095	34.52
2.56762	34.52
2.58428	34.52
2.60095	34.52
2.61762	34.52
2.63428	34.51
2.65095	34.51
2.66762	34.52
2.68428	34.52
2.70095	34.52
2.71762	34.52
2.73428	34.52
2.75095	34.52
2.76762	34.51
2.78428	34.51
2.80095	34.52
2.81762	34.51
2.83428	34.52
2.85095	34.52
2.86762	34.53
2.88428	34.51
2.90095	34.52
2.91762	34.52
2.93428	34.52
2.95095	34.52
2.96762	34.52
2.98428	34.52
3.00095	34.52
3.01762	34.52
3.03428	34.52
3.05095	34.52
3.06762	34.52
3.08428	34.52
3.10095	34.52
3.11762	34.52
3.13428	34.52
3.15095	34.52
3.16762	34.52
3.18428	34.52
3.20095	34.52
3.21762	34.52
3.23428	34.52
3.25095	34.52
3.26762	34.52
3.28428	34.52
3.30095	34.52
3.31762	34.52
3.33428	34.52
3.35095	34.52
3.36762	34.52
3.38428	34.52
3.40095	34.51
3.41762	34.52
3.43428	34.52
3.45095	34.52
3.46762	34.52
3.48428	34.51
3.50095	34.52
3.51762	34.52
3.53428	34.52
3.55095	34.52
3.56762	34.52
3.58428	34.52
3.60095	34.52
3.61762	34.52
3.63428	34.52
3.65095	34.52
3.66762	34.52
3.68428	34.52
3.70095	34.51
3.71762	34.51
3.73428	34.52
3.75095	34.52
3.76762	34.52
3.78428	34.52
3.80095	34.52
3.81762	34.52
3.83428	34.52
3.85095	34.51
3.86762	34.51
3.88428	34.52
3.90095	34.52
3.91762	34.52
3.93428	34.51
3.95095	34.52
3.96762	34.51
3.98428	34.51

[Status Trace (Column Flow)]
Interval(msec)	1000
# of Points	240
Start Time(min)	0.001
End Time(min)	3.984
Intensity Units	
Intensity Multiplier	1
R.Time (min)	Intensity
0.00095	5.57
0.01762	5.39
0.03428	5.34
0.05095	5.61
0.06762	5.79
0.08428	5.62
0.10095	5.56
0.11762	5.57
0.13428	5.57
0.15095	5.57
0.16762	5.57
0.18428	5.57
0.20095	5.57
0.21762	5.57
0.23428	5.57
0.25095	5.57
0.26762	5.57
0.28428	5.57
0.30095	5.57
0.31762	5.57
0.33428	5.57
0.35095	5.57
0.36762	5.57
0.38428	5.57
0.40095	5.57
0.41762	5.57
0.43428	5.57
0.45095	5.57
0.46762	5.57
0.48428	5.57
0.50095	5.57
0.51762	5.57
0.53428	5.57
0.55095	5.57
0.56762	5.57
0.58428	5.57
0.60095	5.57
0.61762	5.57
0.63428	5.57
0.65095	5.57
0.66762	5.57
0.68428	5.57
0.70095	5.57
0.71762	5.57
0.73428	5.57
0.75095	5.57
0.76762	5.57
0.78428	5.57
0.80095	5.57
0.81762	5.57
0.83428	5.57
0.85095	5.57
0.86762	5.57
0.88428	5.57
0.90095	5.57
0.91762	5.57
0.93428	5.57
0.95095	5.57
0.96762	5.57
0.98428	5.57
1.00095	5.57
1.01762	5.57
1.03428	5.57
1.05095	5.57
1.06762	5.57
1.08428	5.57
1.10095	5.57
1.11762	5.57
1.13428	5.57
1.15095	5.57
1.16762	5.57
1.18428	5.57
1.20095	5.57
1.21762	5.57
1.23428	5.57
1.25095	5.57
1.26762	5.57
1.28428	5.57
1.30095	5.57
1.31762	5.57
1.33428	5.57
1.35095	5.57
1.36762	5.57
1.38428	5.57
1.40095	5.57
1.41762	5.57
1.43428	5.57
1.45095	5.57
1.46762	5.57
1.48428	5.57
1.50095	5.57
1.51762	5.57
1.53428	5.57
1.55095	5.57
1.56762	5.57
1.58428	5.57
1.60095	5.57
1.61762	5.56
1.63428	5.56
1.65095	5.55
1.66762	5.54
1.68428	5.53
1.70095	5.52
1.71762	5.51
1.73428	5.50
1.75095	5.49
1.76762	5.48
1.78428	5.47
1.80095	5.46
1.81762	5.45
1.83428	5.44
1.85095	5.43
1.86762	5.42
1.88428	5.41
1.90095	5.40
1.91762	5.39
1.93428	5.38
1.95095	5.37
1.96762	5.36
1.98428	5.35
2.00095	5.34
2.01762	5.33
2.03428	5.32
2.05095	5.31
2.06762	5.30
2.08428	5.29
2.10095	5.28
2.11762	5.27
2.13428	5.26
2.15095	5.25
2.16762	5.24
2.18428	5.23
2.20095	5.22
2.21762	5.21
2.23428	5.20
2.25095	5.20
2.26762	5.19
2.28428	5.18
2.30095	5.17
2.31762	5.16
2.33428	5.15
2.35095	5.14
2.36762	5.13
2.38428	5.13
2.40095	5.13
2.41762	5.13
2.43428	5.13
2.45095	5.13
2.46762	5.13
2.48428	5.13
2.50095	5.13
2.51762	5.13
2.53428	5.13
2.55095	5.13
2.56762	5.13
2.58428	5.13
2.60095	5.13
2.61762	5.13
2.63428	5.13
2.65095	5.13
2.66762	5.13
2.68428	5.13
2.70095	5.12
2.71762	5.12
2.73428	5.12
2.75095	5.12
2.76762	5.12
2.78428	5.12
2.80095	5.12
2.81762	5.12
2.83428	5.12
2.85095	5.12
2.86762	5.12
2.88428	5.12
2.90095	5.12
2.91762	5.12
2.93428	5.12
2.95095	5.12
2.96762	5.12
2.98428	5.12
3.00095	5.12
3.01762	5.12
3.03428	5.12
3.05095	5.12
3.06762	5.12
3.08428	5.12
3.10095	5.12
3.11762	5.12
3.13428	5.12
3.15095	5.12
3.16762	5.12
3.18428	5.12
3.20095	5.12
3.21762	5.12
3.23428	5.12
3.25095	5.12
3.26762	5.12
3.28428	5.12
3.30095	5.12
3.31762	5.12
3.33428	5.12
3.35095	5.12
3.36762	5.12
3.38428	5.12
3.40095	5.12
3.41762	5.12
3.43428	5.12
3.45095	5.12
3.46762	5.12
3.48428	5.12
3.50095	5.12
3.51762	5.12
3.53428	5.12
3.55095	5.12
3.56762	5.12
3.58428	5.12
3.60095	5.12
3.61762	5.12
3.63428	5.12
3.65095	5.12
3.66762	5.12
3.68428	5.12
3.70095	5.12
3.71762	5.12
3.73428	5.12
3.75095	5.12
3.76762	5.12
3.78428	5.12
3.80095	5.12
3.81762	5.12
3.83428	5.12
3.85095	5.12
3.86762	5.12
3.88428	5.12
3.90095	5.12
3.91762	5.12
3.93428	5.12
3.95095	5.12
3.96762	5.12
3.98428	5.12

[Status Trace (Linear Velocity)]
Interval(msec)	1000
# of Points	240
Start Time(min)	0.001
End Time(min)	3.984
Intensity Units	
Intensity Multiplier	1
R.Time (min)	Intensity
0.00095	39.02
0.01762	38.03
0.03428	37.75
0.05095	39.28
0.06762	40.27
0.08428	39.30
0.10095	39.00
0.11762	39.03
0.13428	39.03
0.15095	39.03
0.16762	39.03
0.18428	39.03
0.20095	39.03
0.21762	39.03
0.23428	39.03
0.25095	39.03
0.26762	39.03
0.28428	39.03
0.30095	39.03
0.31762	39.03
0.33428	39.03
0.35095	39.03
0.36762	39.03
0.38428	39.03
0.40095	39.03
0.41762	39.03
0.43428	39.03
0.45095	39.03
0.46762	39.03
0.48428	39.03
0.50095	39.03
0.51762	39.03
0.53428	39.03
0.55095	39.03
0.56762	39.03
0.58428	39.02
0.60095	39.03
0.61762	39.03
0.63428	39.02
0.65095	39.02
0.66762	39.02
0.68428	39.02
0.70095	39.02
0.71762	39.02
0.73428	39.03
0.75095	39.03
0.76762	39.03
0.78428	39.03
0.80095	39.03
0.81762	39.03
0.83428	39.03
0.85095	39.03
0.86762	39.03
0.88428	39.03
0.90095	39.03
0.91762	39.03
0.93428	39.03
0.95095	39.03
0.96762	39.03
0.98428	39.03
1.00095	39.03
1.01762	39.03
1.03428	39.03
1.05095	39.03
1.06762	39.03
1.08428	39.03
1.10095	39.03
1.11762	39.03
1.13428	39.03
1.15095	39.03
1.16762	39.03
1.18428	39.03
1.20095	39.03
1.21762	39.03
1.23428	39.03
1.25095	39.03
1.26762	39.03
1.28428	39.03
1.30095	39.03
1.31762	39.03
1.33428	39.03
1.35095	39.03
1.36762	39.03
1.38428	39.03
1.40095	39.03
1.41762	39.03
1.43428	39.03
1.45095	39.03
1.46762	39.03
1.48428	39.02
1.50095	39.02
1.51762	39.03
1.53428	39.03
1.55095	39.03
1.56762	39.03
1.58428	39.03
1.60095	39.03
1.61762	39.02
1.63428	39.00
1.65095	38.98
1.66762	38.95
1.68428	38.92
1.70095	38.88
1.71762	38.85
1.73428	38.82
1.75095	38.78
1.76762	38.75
1.78428	38.73
1.80095	38.69
1.81762	38.66
1.83428	38.63
1.85095	38.60
1.86762	38.57
1.88428	38.54
1.90095	38.50
1.91762	38.48
1.93428	38.45
1.95095	38.42
1.96762	38.39
1.98428	38.36
2.00095	38.32
2.01762	38.29
2.03428	38.27
2.05095	38.23
2.06762	38.20
2.08428	38.18
2.10095	38.15
2.11762	38.12
2.13428	38.09
2.15095	38.06
2.16762	38.03
2.18428	38.00
2.20095	37.97
2.21762	37.94
2.23428	37.91
2.25095	37.88
2.26762	37.85
2.28428	37.82
2.30095	37.79
2.31762	37.76
2.33428	37.73
2.35095	37.70
2.36762	37.68
2.38428	37.67
2.40095	37.67
2.41762	37.67
2.43428	37.67
2.45095	37.67
2.46762	37.67
2.48428	37.67
2.50095	37.67
2.51762	37.67
2.53428	37.66
2.55095	37.67
2.56762	37.67
2.58428	37.67
2.60095	37.66
2.61762	37.66
2.63428	37.66
2.65095	37.66
2.66762	37.66
2.68428	37.66
2.70095	37.66
2.71762	37.66
2.73428	37.66
2.75095	37.66
2.76762	37.66
2.78428	37.65
2.80095	37.65
2.81762	37.65
2.83428	37.65
2.85095	37.65
2.86762	37.65
2.88428	37.65
2.90095	37.65
2.91762	37.65
2.93428	37.65
2.95095	37.65
2.96762	37.65
2.98428	37.65
3.00095	37.64
3.01762	37.64
3.03428	37.64
3.05095	37.64
3.06762	37.64
3.08428	37.64
3.10095	37.64
3.11762	37.64
3.13428	37.64
3.15095	37.64
3.16762	37.64
3.18428	37.64
3.20095	37.64
3.21762	37.64
3.23428	37.64
3.25095	37.63
3.26762	37.63
3.28428	37.63
3.30095	37.63
3.31762	37.63
3.33428	37.63
3.35095	37.63
3.36762	37.63
3.38428	37.63
3.40095	37.63
3.41762	37.63
3.43428	37.64
3.45095	37.64
3.46762	37.64
3.48428	37.64
3.50095	37.64
3.51762	37.64
3.53428	37.64
3.55095	37.64
3.56762	37.64
3.58428	37.64
3.60095	37.64
3.61762	37.64
3.63428	37.64
3.65095	37.64
3.66762	37.64
3.68428	37.64
3.70095	37.64
3.71762	37.64
3.73428	37.64
3.75095	37.64
3.76762	37.64
3.78428	37.64
3.80095	37.64
3.81762	37.64
3.83428	37.64
3.85095	37.64
3.86762	37.64
3.88428	37.64
3.90095	37.64
3.91762	37.64
3.93428	37.64
3.95095	37.64
3.96762	37.64
3.98428	37.64

