[Header]
Application Name	LabSolutions
Version	5.110
Data File Name	C:\Users\User\Desktop\GC Analyses\Jack\Nachusa Grasslands Sampling\T1 Timepoint July 12th\T1_07122022_091.gcd
Output Date	3/14/2023
Output Time	3:41:03 PM

[File Information]
Type	Data File
Generated	3/8/2023 11:25:22 PM
Generated by	System Administrator
Modified	3/8/2023 11:32:07 PM
Modified by	System Administrator

[Sample Information]
Operator Name	System Administrator
Acquired	3/8/2023 11:28:07 PM
Sample Type	0:Unknown
Level	0
Sample Name	091
Sample ID	091
ISTD Amount1	1
ISTD Amount2	1
ISTD Amount3	1
ISTD Amount4	1
ISTD Amount5	1
ISTD Amount6	1
ISTD Amount7	1
ISTD Amount8	1
ISTD Amount9	1
ISTD Amount10	1
ISTD Amount11	1
ISTD Amount12	1
ISTD Amount13	1
ISTD Amount14	1
ISTD Amount15	1
ISTD Amount16	1
ISTD Amount17	1
ISTD Amount18	1
ISTD Amount19	1
ISTD Amount20	1
ISTD Amount21	1
ISTD Amount22	1
ISTD Amount23	1
ISTD Amount24	1
ISTD Amount25	1
ISTD Amount26	1
ISTD Amount27	1
ISTD Amount28	1
ISTD Amount29	1
ISTD Amount30	1
ISTD Amount31	1
ISTD Amount32	1
Sample Amount	1
Dilution Factor	1
Vial#	90
Injection Volume	1
Injection Count	1
Bar Code	

[Original Files]
Data File	C:\Users\User\Desktop\GC Analyses\Jack\Nachusa Grasslands Sampling\T1 Timepoint July 12th\T1_07122022_091.gcd
Method File	C:\LabSolutions\Data\GHG_4min_2022\ghg3_togas_w_acet_4 min_new_int.gcm
Batch File	C:\LabSolutions\Data\AutoSamplerTesting\T1_07122022.gcb
Report Format File	c:\LabSolutions\System\DEFAULT.lsr

[File Description]


[Configuration]
Instrument Name	C0B7VH3-Instrument1
Instrument #	1
Line #	1
# of Detectors	3
Detector ID	DET#1	DET#2	DET#3
Detector Name	FID	PTCD	ECD
# of Channels	1	1	1

[Peak Table(Ch1)]
# of Peaks	3
Peak#	R.Time	I.Time	F.Time	Area	Height	A/H	Conc.	Mark	ID#	Name	k'	Plate #	Plate Ht.	Tailing	Resolution	Sep.Factor	Area Ratio	Height Ratio	Conc. %	Norm Conc.
1	1.476	1.424	1.538	32393	15309	2.116	228.695	   	1	CO	0.000	9399	15.958	1.325	0.000	0.000	0	0	32.352	32.352
2	1.567	1.538	1.633	4890	2361	2.071	94.552	 V 	2	CH4	0.062	10369	14.466	0.000	1.497	0.000	0	0	13.375	13.375
3	1.996	1.949	2.477	1528684	724221	2.111	383.658	   	3	CO2	0.353	17259	8.691	1.293	7.013	5.680	0	0	54.273	54.273

[Peak Table(Ch2)]
# of Peaks	0

[Peak Table(Ch3)]
# of Peaks	5
Peak#	R.Time	I.Time	F.Time	Area	Height	A/H	Conc.	Mark	ID#	Name	k'	Plate #	Plate Ht.	Tailing	Resolution	Sep.Factor	Area Ratio	Height Ratio	Conc. %	Norm Conc.
1	2.462	2.026	2.517	3169	587	5.400	0.000	   			0.000	8887	16.879	0.000	0.000	0.000	0	0	0.000	0.000
2	2.539	2.517	2.627	1044	279	3.743	0.000	 V 			0.031	4334	34.609	0.000	0.595	0.000	0	0	0.000	0.000
3	2.678	2.642	2.733	181	58	3.094	0.000	   			0.088	15762	9.517	1.220	1.163	2.810	0	0	0.000	0.000
4	2.873	2.777	3.041	18957	4981	3.806	0.484	   	1	N2O	0.167	13288	11.289	1.679	2.101	1.898	0	0	100.000	100.000
5	3.129	3.049	3.723	10847	454	23.880	0.000	   	2	SF6	0.271	445	336.914	4.237	0.741	1.625	0	0	0.000	0.000

[Compound Results(Ch1)]
# of IDs	6
ID#	Name	R.Time	Area	Height	Conc.	Curve	3rd	2nd	1st	Constant	Area Ratio	Height Ratio	Conc. %	Norm Conc.
1	CO	1.476	32393	15309	228.695	Linear	0.000000e+00	0.000000e+00	1.416423e+002	0.000000e+00	0	0	32.352	32.352
2	CH4	1.567	4890	2361	94.552	Linear	0.000000e+00	0.000000e+00	5.171738e+001	0.000000e+00	0	0	13.375	13.375
3	CO2	1.996	1528684	724221	383.658	Linear	0.000000e+00	0.000000e+00	3.984494e+003	0.000000e+00	0	0	54.273	54.273
4	Ethylene	0.000	0	0	0.000	Linear	0.000000e+00	0.000000e+00	0.000000e+00	0.000000e+00	0	0	0.000	0.000
5	Acetylene	0.000	0	0	0.000	Linear	0.000000e+00	0.000000e+00	0.000000e+00	0.000000e+00	0	0	0.000	0.000
6	Ethane	0.000	0	0	0.000	Linear	0.000000e+00	0.000000e+00	0.000000e+00	0.000000e+00	0	0	0.000	0.000

[Compound Results(Ch2)]
# of IDs	5
ID#	Name	R.Time	Area	Height	Conc.	Curve	3rd	2nd	1st	Constant	Area Ratio	Height Ratio	Conc. %	Norm Conc.
1	Hydrogen	0.000	0	0	0.000	Linear	0.000000e+00	0.000000e+00	0.000000e+00	0.000000e+00	0	0	0.000	0.000
2	Oxygen	0.000	0	0	0.000	Linear	0.000000e+00	0.000000e+00	0.000000e+00	0.000000e+00	0	0	0.000	0.000
3	Nitrogen	0.000	0	0	0.000	Linear	0.000000e+00	0.000000e+00	0.000000e+00	0.000000e+00	0	0	0.000	0.000
4	Methane	0.000	0	0	0.000	Linear	0.000000e+00	0.000000e+00	0.000000e+00	0.000000e+00	0	0	0.000	0.000
5	Carbon Monoxide	0.000	0	0	0.000	Linear	0.000000e+00	0.000000e+00	0.000000e+00	0.000000e+00	0	0	0.000	0.000

[Compound Results(Ch3)]
# of IDs	2
ID#	Name	R.Time	Area	Height	Conc.	Curve	3rd	2nd	1st	Constant	Area Ratio	Height Ratio	Conc. %	Norm Conc.
1	N2O	2.873	18957	4981	0.484	Linear	0.000000e+00	0.000000e+00	3.915173e+004	0.000000e+00	0	0	100.000	100.000
2	SF6	3.129	10847	454	0.000	Linear	0.000000e+00	0.000000e+00	0.000000e+00	0.000000e+00	0	0	0.000	0.000

[Group Results(Ch1)]
# of Groups	0

[Group Results(Ch2)]
# of Groups	0

[Group Results(Ch3)]
# of Groups	0

[Chromatogram (Ch1)]
Interval(msec)	220
# of Points	1091
Start Time(min)	0.002
End Time(min)	3.998
R.Time (min)	Intensity
0.00167	0
0.00533	5
0.00900	11
0.01267	17
0.01633	21
0.02000	20
0.02367	19
0.02733	20
0.03100	22
0.03467	22
0.03833	24
0.04200	30
0.04567	38
0.04933	40
0.05300	34
0.05667	27
0.06033	22
0.06400	20
0.06767	20
0.07133	22
0.07500	30
0.07867	37
0.08233	40
0.08600	40
0.08967	38
0.09333	33
0.09700	28
0.10067	22
0.10433	13
0.10800	9
0.11167	8
0.11533	10
0.11900	17
0.12267	22
0.12633	28
0.13000	35
0.13367	43
0.13733	52
0.14100	56
0.14467	55
0.14833	52
0.15200	52
0.15567	55
0.15933	58
0.16300	61
0.16667	64
0.17033	67
0.17400	77
0.17767	88
0.18133	99
0.18500	106
0.18867	110
0.19233	109
0.19600	105
0.19967	100
0.20333	101
0.20700	107
0.21067	112
0.21433	112
0.21800	110
0.22167	108
0.22533	104
0.22900	97
0.23267	90
0.23633	86
0.24000	81
0.24367	76
0.24733	71
0.25100	68
0.25467	67
0.25833	66
0.26200	62
0.26567	55
0.26933	49
0.27300	47
0.27667	50
0.28033	55
0.28400	61
0.28767	64
0.29133	65
0.29500	63
0.29867	57
0.30233	53
0.30600	46
0.30967	34
0.31333	19
0.31700	5
0.32067	-6
0.32433	-7
0.32800	-2
0.33167	1
0.33533	3
0.33900	3
0.34267	6
0.34633	13
0.35000	22
0.35367	30
0.35733	36
0.36100	40
0.36467	39
0.36833	36
0.37200	30
0.37567	21
0.37933	13
0.38300	11
0.38667	11
0.39033	13
0.39400	15
0.39767	18
0.40133	23
0.40500	30
0.40867	34
0.41233	33
0.41600	31
0.41967	34
0.42333	41
0.42700	45
0.43067	44
0.43433	44
0.43800	46
0.44167	43
0.44533	38
0.44900	30
0.45267	23
0.45633	16
0.46000	11
0.46367	9
0.46733	10
0.47100	9
0.47467	11
0.47833	15
0.48200	23
0.48567	31
0.48933	35
0.49300	36
0.49667	31
0.50033	24
0.50400	24
0.50767	27
0.51133	27
0.51500	26
0.51867	26
0.52233	25
0.52600	23
0.52967	21
0.53333	25
0.53700	31
0.54067	36
0.54433	40
0.54800	43
0.55167	44
0.55533	44
0.55900	39
0.56267	32
0.56633	27
0.57000	23
0.57367	24
0.57733	27
0.58100	29
0.58467	26
0.58833	22
0.59200	17
0.59567	13
0.59933	11
0.60300	11
0.60667	14
0.61033	13
0.61400	10
0.61767	7
0.62133	7
0.62500	10
0.62867	13
0.63233	18
0.63600	23
0.63967	30
0.64333	34
0.64700	32
0.65067	28
0.65433	22
0.65800	16
0.66167	16
0.66533	21
0.66900	27
0.67267	31
0.67633	33
0.68000	29
0.68367	22
0.68733	19
0.69100	19
0.69467	19
0.69833	21
0.70200	23
0.70567	22
0.70933	18
0.71300	8
0.71667	-1
0.72033	-8
0.72400	-10
0.72767	-7
0.73133	2
0.73500	9
0.73867	14
0.74233	15
0.74600	14
0.74967	10
0.75333	10
0.75700	16
0.76067	22
0.76433	23
0.76800	20
0.77167	13
0.77533	9
0.77900	10
0.78267	16
0.78633	23
0.79000	30
0.79367	37
0.79733	41
0.80100	44
0.80467	43
0.80833	39
0.81200	34
0.81567	31
0.81933	31
0.82300	33
0.82667	34
0.83033	33
0.83400	31
0.83767	30
0.84133	32
0.84500	27
0.84867	17
0.85233	10
0.85600	9
0.85967	11
0.86333	9
0.86700	1
0.87067	-14
0.87433	-26
0.87800	-31
0.88167	-31
0.88533	-22
0.88900	-10
0.89267	-1
0.89633	5
0.90000	9
0.90367	10
0.90733	11
0.91100	12
0.91467	13
0.91833	12
0.92200	14
0.92567	19
0.92933	22
0.93300	24
0.93667	24
0.94033	19
0.94400	11
0.94767	4
0.95133	-2
0.95500	-5
0.95867	-5
0.96233	-2
0.96600	-0
0.96967	1
0.97333	3
0.97700	15
0.98067	34
0.98433	50
0.98800	51
0.99167	43
0.99533	32
0.99900	24
1.00267	14
1.00633	8
1.01000	6
1.01367	1
1.01733	-7
1.02100	-12
1.02467	-16
1.02833	-19
1.03200	-20
1.03567	-18
1.03933	-16
1.04300	-11
1.04667	-3
1.05033	4
1.05400	13
1.05767	19
1.06133	21
1.06500	18
1.06867	14
1.07233	9
1.07600	6
1.07967	5
1.08333	4
1.08700	2
1.09067	2
1.09433	-1
1.09800	-1
1.10167	5
1.10533	10
1.10900	12
1.11267	9
1.11633	8
1.12000	7
1.12367	6
1.12733	-0
1.13100	-8
1.13467	-9
1.13833	-7
1.14200	-4
1.14567	-4
1.14933	-7
1.15300	-9
1.15667	-11
1.16033	-8
1.16400	-2
1.16767	8
1.17133	12
1.17500	14
1.17867	16
1.18233	15
1.18600	4
1.18967	-8
1.19333	-16
1.19700	-19
1.20067	-19
1.20433	-13
1.20800	-3
1.21167	2
1.21533	-0
1.21900	-6
1.22267	-12
1.22633	-15
1.23000	-16
1.23367	-15
1.23733	-11
1.24100	-9
1.24467	-8
1.24833	-6
1.25200	-3
1.25567	2
1.25933	6
1.26300	9
1.26667	8
1.27033	3
1.27400	1
1.27767	-3
1.28133	-11
1.28500	-19
1.28867	-26
1.29233	-33
1.29600	-41
1.29967	-44
1.30333	-42
1.30700	-38
1.31067	-36
1.31433	-31
1.31800	-29
1.32167	-29
1.32533	-28
1.32900	-20
1.33267	-11
1.33633	-3
1.34000	-1
1.34367	-4
1.34733	-4
1.35100	-5
1.35467	-15
1.35833	-23
1.36200	-27
1.36567	-26
1.36933	-24
1.37300	-19
1.37667	-14
1.38033	-13
1.38400	-16
1.38767	-19
1.39133	-23
1.39500	-25
1.39867	-29
1.40233	-30
1.40600	-28
1.40967	-28
1.41333	-31
1.41700	-32
1.42067	-31
1.42433	-27
1.42800	-17
1.43167	-4
1.43533	6
1.43900	25
1.44267	110
1.44633	351
1.45000	997
1.45367	2511
1.45733	5001
1.46100	7966
1.46467	10776
1.46833	13050
1.47200	14602
1.47567	15296
1.47933	15000
1.48300	13721
1.48667	11715
1.49033	9402
1.49400	7186
1.49767	5308
1.50133	3841
1.50500	2758
1.50867	1987
1.51233	1445
1.51600	1065
1.51967	801
1.52333	615
1.52700	485
1.53067	396
1.53433	337
1.53800	308
1.54167	345
1.54533	509
1.54900	826
1.55267	1239
1.55633	1655
1.56000	2003
1.56367	2252
1.56733	2372
1.57100	2336
1.57467	2134
1.57833	1800
1.58200	1412
1.58567	1047
1.58933	743
1.59300	510
1.59667	347
1.60033	237
1.60400	170
1.60767	129
1.61133	104
1.61500	87
1.61867	72
1.62233	60
1.62600	48
1.62967	36
1.63333	29
1.63700	27
1.64067	28
1.64433	28
1.64800	26
1.65167	21
1.65533	15
1.65900	10
1.66267	7
1.66633	6
1.67000	6
1.67367	7
1.67733	8
1.68100	8
1.68467	6
1.68833	5
1.69200	3
1.69567	-4
1.69933	-15
1.70300	-24
1.70667	-28
1.71033	-28
1.71400	-25
1.71767	-19
1.72133	-15
1.72500	-13
1.72867	-12
1.73233	-10
1.73600	-9
1.73967	-9
1.74333	-10
1.74700	-9
1.75067	-5
1.75433	-2
1.75800	-0
1.76167	2
1.76533	7
1.76900	12
1.77267	15
1.77633	17
1.78000	18
1.78367	17
1.78733	11
1.79100	4
1.79467	-1
1.79833	-4
1.80200	-3
1.80567	-0
1.80933	5
1.81300	10
1.81667	16
1.82033	21
1.82400	20
1.82767	13
1.83133	2
1.83500	-8
1.83867	-13
1.84233	-18
1.84600	-22
1.84967	-23
1.85333	-19
1.85700	-17
1.86067	-18
1.86433	-20
1.86800	-24
1.87167	-26
1.87533	-27
1.87900	-27
1.88267	-25
1.88633	-24
1.89000	-22
1.89367	-16
1.89733	-9
1.90100	-2
1.90467	3
1.90833	7
1.91200	12
1.91567	16
1.91933	19
1.92300	20
1.92667	18
1.93033	13
1.93400	7
1.93767	3
1.94133	-1
1.94500	-4
1.94867	-2
1.95233	22
1.95600	169
1.95967	972
1.96333	4535
1.96700	16577
1.97067	47837
1.97433	111106
1.97800	211955
1.98167	341300
1.98533	478248
1.98900	599181
1.99267	685271
1.99633	724258
2.00000	711536
2.00367	651881
2.00733	559001
2.01100	451430
2.01467	346383
2.01833	255285
2.02200	182831
2.02567	128701
2.02933	89999
2.03300	63126
2.03667	44801
2.04033	32408
2.04400	24037
2.04767	18357
2.05133	14456
2.05500	11726
2.05867	9776
2.06233	8346
2.06600	7271
2.06967	6441
2.07333	5785
2.07700	5254
2.08067	4810
2.08433	4435
2.08800	4120
2.09167	3855
2.09533	3625
2.09900	3422
2.10267	3244
2.10633	3077
2.11000	2920
2.11367	2772
2.11733	2631
2.12100	2504
2.12467	2391
2.12833	2288
2.13200	2193
2.13567	2103
2.13933	2022
2.14300	1952
2.14667	1888
2.15033	1828
2.15400	1769
2.15767	1716
2.16133	1667
2.16500	1620
2.16867	1576
2.17233	1532
2.17600	1488
2.17967	1444
2.18333	1400
2.18700	1357
2.19067	1318
2.19433	1283
2.19800	1248
2.20167	1212
2.20533	1177
2.20900	1147
2.21267	1126
2.21633	1113
2.22000	1098
2.22367	1075
2.22733	1047
2.23100	1015
2.23467	983
2.23833	954
2.24200	931
2.24567	919
2.24933	911
2.25300	898
2.25667	884
2.26033	866
2.26400	845
2.26767	825
2.27133	808
2.27500	791
2.27867	774
2.28233	755
2.28600	739
2.28967	727
2.29333	715
2.29700	706
2.30067	702
2.30433	699
2.30800	697
2.31167	695
2.31533	686
2.31900	670
2.32267	654
2.32633	641
2.33000	631
2.33367	621
2.33733	614
2.34100	613
2.34467	609
2.34833	600
2.35200	589
2.35567	580
2.35933	571
2.36300	564
2.36667	560
2.37033	557
2.37400	554
2.37767	551
2.38133	547
2.38500	543
2.38867	538
2.39233	533
2.39600	530
2.39967	526
2.40333	520
2.40700	514
2.41067	509
2.41433	507
2.41800	502
2.42167	492
2.42533	475
2.42900	462
2.43267	452
2.43633	440
2.44000	432
2.44367	427
2.44733	425
2.45100	427
2.45467	429
2.45833	433
2.46200	438
2.46567	443
2.46933	442
2.47300	434
2.47667	426
2.48033	418
2.48400	411
2.48767	409
2.49133	411
2.49500	416
2.49867	418
2.50233	419
2.50600	420
2.50967	424
2.51333	424
2.51700	418
2.52067	418
2.52433	426
2.52800	431
2.53167	429
2.53533	427
2.53900	425
2.54267	421
2.54633	421
2.55000	421
2.55367	415
2.55733	406
2.56100	401
2.56467	396
2.56833	393
2.57200	392
2.57567	391
2.57933	391
2.58300	389
2.58667	385
2.59033	378
2.59400	368
2.59767	358
2.60133	353
2.60500	351
2.60867	349
2.61233	345
2.61600	338
2.61967	333
2.62333	333
2.62700	337
2.63067	346
2.63433	353
2.63800	355
2.64167	359
2.64533	365
2.64900	372
2.65267	375
2.65633	374
2.66000	367
2.66367	355
2.66733	342
2.67100	331
2.67467	322
2.67833	317
2.68200	314
2.68567	313
2.68933	316
2.69300	317
2.69667	315
2.70033	317
2.70400	317
2.70767	316
2.71133	318
2.71500	319
2.71867	322
2.72233	324
2.72600	322
2.72967	316
2.73333	308
2.73700	300
2.74067	301
2.74433	305
2.74800	309
2.75167	309
2.75533	308
2.75900	309
2.76267	308
2.76633	306
2.77000	305
2.77367	307
2.77733	305
2.78100	298
2.78467	291
2.78833	283
2.79200	276
2.79567	268
2.79933	260
2.80300	258
2.80667	261
2.81033	268
2.81400	275
2.81767	284
2.82133	287
2.82500	284
2.82867	284
2.83233	281
2.83600	273
2.83967	264
2.84333	260
2.84700	259
2.85067	257
2.85433	249
2.85800	240
2.86167	234
2.86533	231
2.86900	233
2.87267	240
2.87633	247
2.88000	248
2.88367	246
2.88733	244
2.89100	243
2.89467	244
2.89833	245
2.90200	248
2.90567	250
2.90933	253
2.91300	255
2.91667	254
2.92033	249
2.92400	241
2.92767	233
2.93133	224
2.93500	216
2.93867	213
2.94233	213
2.94600	215
2.94967	219
2.95333	225
2.95700	229
2.96067	227
2.96433	223
2.96800	221
2.97167	223
2.97533	223
2.97900	221
2.98267	225
2.98633	233
2.99000	235
2.99367	233
2.99733	231
3.00100	233
3.00467	239
3.00833	246
3.01200	254
3.01567	257
3.01933	247
3.02300	226
3.02667	209
3.03033	196
3.03400	186
3.03767	177
3.04133	172
3.04500	170
3.04867	170
3.05233	170
3.05600	173
3.05967	177
3.06333	182
3.06700	186
3.07067	184
3.07433	177
3.07800	170
3.08167	168
3.08533	169
3.08900	173
3.09267	177
3.09633	181
3.10000	184
3.10367	183
3.10733	181
3.11100	180
3.11467	179
3.11833	179
3.12200	178
3.12567	176
3.12933	171
3.13300	168
3.13667	166
3.14033	167
3.14400	172
3.14767	177
3.15133	177
3.15500	173
3.15867	167
3.16233	166
3.16600	166
3.16967	163
3.17333	161
3.17700	162
3.18067	163
3.18433	164
3.18800	163
3.19167	158
3.19533	152
3.19900	149
3.20267	152
3.20633	155
3.21000	152
3.21367	144
3.21733	140
3.22100	139
3.22467	144
3.22833	148
3.23200	153
3.23567	154
3.23933	151
3.24300	147
3.24667	144
3.25033	145
3.25400	148
3.25767	149
3.26133	148
3.26500	148
3.26867	144
3.27233	138
3.27600	130
3.27967	124
3.28333	121
3.28700	118
3.29067	115
3.29433	109
3.29800	107
3.30167	108
3.30533	111
3.30900	113
3.31267	112
3.31633	111
3.32000	113
3.32367	116
3.32733	120
3.33100	121
3.33467	118
3.33833	112
3.34200	108
3.34567	107
3.34933	109
3.35300	113
3.35667	119
3.36033	126
3.36400	127
3.36767	125
3.37133	123
3.37500	119
3.37867	120
3.38233	127
3.38600	135
3.38967	141
3.39333	144
3.39700	141
3.40067	135
3.40433	130
3.40800	125
3.41167	119
3.41533	115
3.41900	113
3.42267	108
3.42633	102
3.43000	98
3.43367	95
3.43733	94
3.44100	94
3.44467	100
3.44833	105
3.45200	106
3.45567	104
3.45933	100
3.46300	95
3.46667	93
3.47033	90
3.47400	83
3.47767	79
3.48133	79
3.48500	79
3.48867	80
3.49233	83
3.49600	91
3.49967	101
3.50333	112
3.50700	122
3.51067	124
3.51433	119
3.51800	108
3.52167	97
3.52533	89
3.52900	83
3.53267	77
3.53633	74
3.54000	77
3.54367	80
3.54733	81
3.55100	80
3.55467	80
3.55833	78
3.56200	75
3.56567	74
3.56933	80
3.57300	90
3.57667	97
3.58033	99
3.58400	99
3.58767	95
3.59133	90
3.59500	86
3.59867	84
3.60233	82
3.60600	79
3.60967	76
3.61333	73
3.61700	67
3.62067	63
3.62433	59
3.62800	54
3.63167	52
3.63533	50
3.63900	46
3.64267	47
3.64633	53
3.65000	63
3.65367	74
3.65733	82
3.66100	87
3.66467	88
3.66833	89
3.67200	87
3.67567	85
3.67933	83
3.68300	83
3.68667	81
3.69033	75
3.69400	66
3.69767	56
3.70133	50
3.70500	48
3.70867	51
3.71233	56
3.71600	59
3.71967	59
3.72333	59
3.72700	57
3.73067	56
3.73433	54
3.73800	49
3.74167	47
3.74533	48
3.74900	52
3.75267	58
3.75633	61
3.76000	61
3.76367	59
3.76733	57
3.77100	52
3.77467	50
3.77833	50
3.78200	54
3.78567	60
3.78933	62
3.79300	60
3.79667	59
3.80033	58
3.80400	52
3.80767	43
3.81133	38
3.81500	33
3.81867	28
3.82233	26
3.82600	26
3.82967	27
3.83333	31
3.83700	41
3.84067	49
3.84433	53
3.84800	55
3.85167	56
3.85533	55
3.85900	52
3.86267	47
3.86633	43
3.87000	42
3.87367	38
3.87733	30
3.88100	26
3.88467	30
3.88833	38
3.89200	43
3.89567	44
3.89933	48
3.90300	53
3.90667	52
3.91033	44
3.91400	37
3.91767	32
3.92133	31
3.92500	31
3.92867	30
3.93233	26
3.93600	27
3.93967	31
3.94333	33
3.94700	36
3.95067	38
3.95433	34
3.95800	30
3.96167	31
3.96533	36
3.96900	41
3.97267	43
3.97633	43
3.98000	40
3.98367	35
3.98733	30
3.99100	28
3.99467	27
3.99833	25

[Chromatogram (Ch2)]
Interval(msec)	220
# of Points	1091
Start Time(min)	0.002
End Time(min)	3.998
R.Time (min)	Intensity
0.00167	1
0.00533	1
0.00900	1
0.01267	1
0.01633	2
0.02000	2
0.02367	2
0.02733	2
0.03100	2
0.03467	2
0.03833	2
0.04200	2
0.04567	2
0.04933	2
0.05300	2
0.05667	3
0.06033	3
0.06400	3
0.06767	3
0.07133	3
0.07500	4
0.07867	4
0.08233	4
0.08600	4
0.08967	4
0.09333	4
0.09700	4
0.10067	4
0.10433	4
0.10800	4
0.11167	4
0.11533	4
0.11900	4
0.12267	3
0.12633	3
0.13000	2
0.13367	2
0.13733	1
0.14100	0
0.14467	-0
0.14833	-1
0.15200	-1
0.15567	-1
0.15933	-1
0.16300	-2
0.16667	-2
0.17033	-2
0.17400	-1
0.17767	-1
0.18133	-1
0.18500	-1
0.18867	-1
0.19233	-1
0.19600	-1
0.19967	-0
0.20333	0
0.20700	1
0.21067	1
0.21433	2
0.21800	2
0.22167	3
0.22533	3
0.22900	3
0.23267	2
0.23633	2
0.24000	2
0.24367	2
0.24733	2
0.25100	2
0.25467	1
0.25833	1
0.26200	0
0.26567	-0
0.26933	-0
0.27300	-0
0.27667	-0
0.28033	-0
0.28400	0
0.28767	0
0.29133	0
0.29500	-0
0.29867	-0
0.30233	-1
0.30600	-1
0.30967	-1
0.31333	-1
0.31700	-1
0.32067	-1
0.32433	-1
0.32800	-1
0.33167	-1
0.33533	-1
0.33900	-1
0.34267	-1
0.34633	-1
0.35000	-0
0.35367	-0
0.35733	0
0.36100	0
0.36467	1
0.36833	1
0.37200	1
0.37567	1
0.37933	0
0.38300	0
0.38667	-0
0.39033	-0
0.39400	-1
0.39767	-1
0.40133	-1
0.40500	-1
0.40867	-1
0.41233	-1
0.41600	-1
0.41967	-1
0.42333	-1
0.42700	-1
0.43067	-1
0.43433	-1
0.43800	-1
0.44167	-1
0.44533	-0
0.44900	-0
0.45267	-0
0.45633	-0
0.46000	-0
0.46367	-1
0.46733	-1
0.47100	-1
0.47467	-2
0.47833	-2
0.48200	-2
0.48567	-2
0.48933	-2
0.49300	-2
0.49667	-1
0.50033	-1
0.50400	-1
0.50767	-1
0.51133	-1
0.51500	-1
0.51867	-1
0.52233	-0
0.52600	-0
0.52967	0
0.53333	0
0.53700	0
0.54067	0
0.54433	0
0.54800	0
0.55167	0
0.55533	1
0.55900	1
0.56267	1
0.56633	1
0.57000	0
0.57367	0
0.57733	-0
0.58100	-0
0.58467	-1
0.58833	-1
0.59200	-1
0.59567	-1
0.59933	-2
0.60300	-2
0.60667	-2
0.61033	-1
0.61400	-1
0.61767	-1
0.62133	-1
0.62500	-1
0.62867	-1
0.63233	-1
0.63600	-1
0.63967	-1
0.64333	-1
0.64700	-1
0.65067	-1
0.65433	-1
0.65800	-1
0.66167	-0
0.66533	0
0.66900	0
0.67267	-0
0.67633	-0
0.68000	-0
0.68367	-0
0.68733	-1
0.69100	-1
0.69467	-1
0.69833	-1
0.70200	-1
0.70567	-1
0.70933	-1
0.71300	-1
0.71667	-1
0.72033	-2
0.72400	-2
0.72767	-2
0.73133	-2
0.73500	-2
0.73867	-2
0.74233	-2
0.74600	-2
0.74967	-2
0.75333	-2
0.75700	-1
0.76067	-1
0.76433	-1
0.76800	-0
0.77167	-0
0.77533	0
0.77900	1
0.78267	1
0.78633	2
0.79000	2
0.79367	2
0.79733	2
0.80100	2
0.80467	1
0.80833	1
0.81200	1
0.81567	0
0.81933	0
0.82300	-0
0.82667	-0
0.83033	-0
0.83400	0
0.83767	0
0.84133	0
0.84500	0
0.84867	0
0.85233	0
0.85600	0
0.85967	-0
0.86333	-0
0.86700	-1
0.87067	-1
0.87433	-1
0.87800	-1
0.88167	-2
0.88533	-2
0.88900	-2
0.89267	-3
0.89633	-3
0.90000	-2
0.90367	-2
0.90733	-2
0.91100	-1
0.91467	-1
0.91833	-0
0.92200	0
0.92567	0
0.92933	1
0.93300	1
0.93667	1
0.94033	1
0.94400	0
0.94767	0
0.95133	0
0.95500	0
0.95867	0
0.96233	-0
0.96600	-0
0.96967	-0
0.97333	-1
0.97700	-1
0.98067	-1
0.98433	-1
0.98800	-1
0.99167	-1
0.99533	-1
0.99900	-1
1.00267	-1
1.00633	-0
1.01000	-0
1.01367	-0
1.01733	-0
1.02100	-0
1.02467	-1
1.02833	-1
1.03200	-1
1.03567	-1
1.03933	-1
1.04300	-1
1.04667	-1
1.05033	-1
1.05400	-0
1.05767	0
1.06133	0
1.06500	0
1.06867	0
1.07233	0
1.07600	0
1.07967	0
1.08333	0
1.08700	0
1.09067	-0
1.09433	-0
1.09800	-1
1.10167	-1
1.10533	-1
1.10900	-2
1.11267	-2
1.11633	-2
1.12000	-2
1.12367	-2
1.12733	-3
1.13100	-3
1.13467	-3
1.13833	-3
1.14200	-3
1.14567	-3
1.14933	-3
1.15300	-3
1.15667	-3
1.16033	-3
1.16400	-3
1.16767	-3
1.17133	-3
1.17500	-3
1.17867	-3
1.18233	-3
1.18600	-2
1.18967	-2
1.19333	-2
1.19700	-2
1.20067	-2
1.20433	-2
1.20800	-2
1.21167	-2
1.21533	-3
1.21900	-3
1.22267	-4
1.22633	-4
1.23000	-4
1.23367	-4
1.23733	-5
1.24100	-5
1.24467	-5
1.24833	-5
1.25200	-5
1.25567	-5
1.25933	-4
1.26300	-4
1.26667	-4
1.27033	-4
1.27400	-4
1.27767	-4
1.28133	-3
1.28500	-3
1.28867	-2
1.29233	-2
1.29600	-1
1.29967	-1
1.30333	-1
1.30700	-1
1.31067	-1
1.31433	-1
1.31800	-1
1.32167	-1
1.32533	-1
1.32900	-1
1.33267	-1
1.33633	-1
1.34000	-2
1.34367	-2
1.34733	-2
1.35100	-3
1.35467	-3
1.35833	-3
1.36200	-3
1.36567	-3
1.36933	-3
1.37300	-4
1.37667	-4
1.38033	-4
1.38400	-4
1.38767	-4
1.39133	-4
1.39500	-4
1.39867	-4
1.40233	-4
1.40600	-4
1.40967	-4
1.41333	-3
1.41700	-3
1.42067	-3
1.42433	-3
1.42800	-2
1.43167	-2
1.43533	-2
1.43900	-2
1.44267	-2
1.44633	-2
1.45000	-2
1.45367	-2
1.45733	-2
1.46100	-2
1.46467	-2
1.46833	-2
1.47200	-1
1.47567	-1
1.47933	-1
1.48300	-1
1.48667	-1
1.49033	-0
1.49400	-0
1.49767	0
1.50133	0
1.50500	-0
1.50867	-0
1.51233	-0
1.51600	-0
1.51967	-1
1.52333	-1
1.52700	-1
1.53067	-1
1.53433	-1
1.53800	-1
1.54167	-1
1.54533	-1
1.54900	-1
1.55267	-2
1.55633	-2
1.56000	-2
1.56367	-3
1.56733	-3
1.57100	-3
1.57467	-4
1.57833	-4
1.58200	-4
1.58567	-4
1.58933	-4
1.59300	-4
1.59667	-4
1.60033	-5
1.60400	-6
1.60767	-7
1.61133	-9
1.61500	-11
1.61867	-13
1.62233	-15
1.62600	-18
1.62967	-21
1.63333	-25
1.63700	-28
1.64067	-32
1.64433	-35
1.64800	-39
1.65167	-43
1.65533	-46
1.65900	-50
1.66267	-55
1.66633	-59
1.67000	-64
1.67367	-69
1.67733	-74
1.68100	-80
1.68467	-85
1.68833	-90
1.69200	-94
1.69567	-97
1.69933	-100
1.70300	-102
1.70667	-104
1.71033	-105
1.71400	-106
1.71767	-107
1.72133	-108
1.72500	-108
1.72867	-108
1.73233	-107
1.73600	-107
1.73967	-107
1.74333	-107
1.74700	-108
1.75067	-109
1.75433	-110
1.75800	-111
1.76167	-112
1.76533	-114
1.76900	-115
1.77267	-116
1.77633	-116
1.78000	-116
1.78367	-116
1.78733	-115
1.79100	-115
1.79467	-114
1.79833	-114
1.80200	-113
1.80567	-113
1.80933	-112
1.81300	-112
1.81667	-112
1.82033	-112
1.82400	-113
1.82767	-114
1.83133	-114
1.83500	-115
1.83867	-116
1.84233	-116
1.84600	-117
1.84967	-117
1.85333	-118
1.85700	-118
1.86067	-118
1.86433	-118
1.86800	-118
1.87167	-118
1.87533	-118
1.87900	-117
1.88267	-117
1.88633	-117
1.89000	-116
1.89367	-116
1.89733	-116
1.90100	-115
1.90467	-115
1.90833	-115
1.91200	-115
1.91567	-115
1.91933	-115
1.92300	-114
1.92667	-114
1.93033	-114
1.93400	-114
1.93767	-113
1.94133	-113
1.94500	-113
1.94867	-113
1.95233	-112
1.95600	-111
1.95967	-111
1.96333	-111
1.96700	-111
1.97067	-111
1.97433	-111
1.97800	-111
1.98167	-110
1.98533	-110
1.98900	-110
1.99267	-110
1.99633	-110
2.00000	-110
2.00367	-110
2.00733	-110
2.01100	-109
2.01467	-109
2.01833	-109
2.02200	-108
2.02567	-108
2.02933	-108
2.03300	-108
2.03667	-108
2.04033	-108
2.04400	-108
2.04767	-108
2.05133	-107
2.05500	-107
2.05867	-106
2.06233	-106
2.06600	-105
2.06967	-105
2.07333	-105
2.07700	-104
2.08067	-104
2.08433	-104
2.08800	-103
2.09167	-103
2.09533	-103
2.09900	-102
2.10267	-102
2.10633	-102
2.11000	-102
2.11367	-102
2.11733	-102
2.12100	-102
2.12467	-102
2.12833	-102
2.13200	-101
2.13567	-101
2.13933	-101
2.14300	-101
2.14667	-100
2.15033	-100
2.15400	-99
2.15767	-98
2.16133	-97
2.16500	-97
2.16867	-96
2.17233	-96
2.17600	-95
2.17967	-95
2.18333	-94
2.18700	-93
2.19067	-93
2.19433	-92
2.19800	-91
2.20167	-91
2.20533	-91
2.20900	-91
2.21267	-90
2.21633	-90
2.22000	-89
2.22367	-89
2.22733	-88
2.23100	-88
2.23467	-88
2.23833	-88
2.24200	-88
2.24567	-88
2.24933	-88
2.25300	-88
2.25667	-88
2.26033	-87
2.26400	-87
2.26767	-87
2.27133	-86
2.27500	-86
2.27867	-86
2.28233	-85
2.28600	-85
2.28967	-85
2.29333	-85
2.29700	-85
2.30067	-85
2.30433	-84
2.30800	-84
2.31167	-83
2.31533	-83
2.31900	-82
2.32267	-82
2.32633	-82
2.33000	-82
2.33367	-81
2.33733	-81
2.34100	-80
2.34467	-80
2.34833	-79
2.35200	-78
2.35567	-77
2.35933	-75
2.36300	-74
2.36667	-72
2.37033	-70
2.37400	-67
2.37767	-64
2.38133	-61
2.38500	-57
2.38867	-54
2.39233	-50
2.39600	-46
2.39967	-42
2.40333	-38
2.40700	-34
2.41067	-30
2.41433	-26
2.41800	-24
2.42167	-21
2.42533	-19
2.42900	-18
2.43267	-17
2.43633	-15
2.44000	-14
2.44367	-12
2.44733	-10
2.45100	-9
2.45467	-7
2.45833	-5
2.46200	-4
2.46567	-2
2.46933	-1
2.47300	0
2.47667	1
2.48033	2
2.48400	3
2.48767	4
2.49133	4
2.49500	5
2.49867	5
2.50233	6
2.50600	6
2.50967	6
2.51333	7
2.51700	8
2.52067	9
2.52433	10
2.52800	11
2.53167	12
2.53533	13
2.53900	13
2.54267	13
2.54633	13
2.55000	13
2.55367	13
2.55733	13
2.56100	13
2.56467	13
2.56833	13
2.57200	13
2.57567	13
2.57933	13
2.58300	13
2.58667	13
2.59033	13
2.59400	13
2.59767	13
2.60133	13
2.60500	13
2.60867	13
2.61233	12
2.61600	12
2.61967	13
2.62333	13
2.62700	14
2.63067	14
2.63433	15
2.63800	16
2.64167	16
2.64533	17
2.64900	18
2.65267	18
2.65633	19
2.66000	19
2.66367	20
2.66733	20
2.67100	21
2.67467	21
2.67833	21
2.68200	22
2.68567	22
2.68933	22
2.69300	22
2.69667	22
2.70033	22
2.70400	22
2.70767	22
2.71133	22
2.71500	23
2.71867	23
2.72233	23
2.72600	23
2.72967	24
2.73333	24
2.73700	25
2.74067	25
2.74433	26
2.74800	26
2.75167	26
2.75533	26
2.75900	25
2.76267	25
2.76633	25
2.77000	25
2.77367	25
2.77733	25
2.78100	25
2.78467	25
2.78833	25
2.79200	26
2.79567	26
2.79933	26
2.80300	26
2.80667	27
2.81033	26
2.81400	26
2.81767	26
2.82133	26
2.82500	26
2.82867	26
2.83233	26
2.83600	25
2.83967	23
2.84333	20
2.84700	15
2.85067	8
2.85433	-2
2.85800	-16
2.86167	-34
2.86533	-56
2.86900	-82
2.87267	-113
2.87633	-148
2.88000	-186
2.88367	-228
2.88733	-274
2.89100	-322
2.89467	-372
2.89833	-424
2.90200	-478
2.90567	-532
2.90933	-587
2.91300	-641
2.91667	-696
2.92033	-749
2.92400	-801
2.92767	-853
2.93133	-906
2.93500	-963
2.93867	-1022
2.94233	-1073
2.94600	-1106
2.94967	-1113
2.95333	-1094
2.95700	-1052
2.96067	-992
2.96433	-920
2.96800	-842
2.97167	-761
2.97533	-680
2.97900	-603
2.98267	-531
2.98633	-464
2.99000	-403
2.99367	-349
2.99733	-301
3.00100	-258
3.00467	-220
3.00833	-187
3.01200	-159
3.01567	-134
3.01933	-112
3.02300	-94
3.02667	-78
3.03033	-65
3.03400	-53
3.03767	-44
3.04133	-35
3.04500	-28
3.04867	-22
3.05233	-17
3.05600	-13
3.05967	-9
3.06333	-5
3.06700	-3
3.07067	-0
3.07433	2
3.07800	3
3.08167	5
3.08533	7
3.08900	8
3.09267	9
3.09633	10
3.10000	11
3.10367	12
3.10733	13
3.11100	13
3.11467	14
3.11833	14
3.12200	14
3.12567	15
3.12933	15
3.13300	16
3.13667	16
3.14033	16
3.14400	16
3.14767	17
3.15133	17
3.15500	17
3.15867	17
3.16233	18
3.16600	18
3.16967	18
3.17333	18
3.17700	19
3.18067	19
3.18433	19
3.18800	19
3.19167	19
3.19533	19
3.19900	19
3.20267	19
3.20633	19
3.21000	19
3.21367	20
3.21733	20
3.22100	20
3.22467	20
3.22833	20
3.23200	20
3.23567	20
3.23933	20
3.24300	20
3.24667	20
3.25033	20
3.25400	20
3.25767	20
3.26133	21
3.26500	21
3.26867	21
3.27233	22
3.27600	22
3.27967	22
3.28333	22
3.28700	23
3.29067	23
3.29433	23
3.29800	23
3.30167	22
3.30533	23
3.30900	23
3.31267	23
3.31633	23
3.32000	23
3.32367	24
3.32733	24
3.33100	24
3.33467	25
3.33833	25
3.34200	25
3.34567	26
3.34933	26
3.35300	26
3.35667	26
3.36033	27
3.36400	27
3.36767	27
3.37133	27
3.37500	27
3.37867	27
3.38233	27
3.38600	28
3.38967	28
3.39333	28
3.39700	28
3.40067	28
3.40433	28
3.40800	28
3.41167	28
3.41533	28
3.41900	28
3.42267	28
3.42633	27
3.43000	27
3.43367	27
3.43733	27
3.44100	27
3.44467	27
3.44833	27
3.45200	27
3.45567	26
3.45933	26
3.46300	27
3.46667	27
3.47033	27
3.47400	27
3.47767	27
3.48133	27
3.48500	27
3.48867	27
3.49233	27
3.49600	27
3.49967	27
3.50333	27
3.50700	27
3.51067	27
3.51433	27
3.51800	27
3.52167	27
3.52533	28
3.52900	27
3.53267	27
3.53633	27
3.54000	27
3.54367	27
3.54733	26
3.55100	26
3.55467	26
3.55833	26
3.56200	25
3.56567	25
3.56933	25
3.57300	25
3.57667	25
3.58033	25
3.58400	25
3.58767	25
3.59133	25
3.59500	25
3.59867	25
3.60233	24
3.60600	24
3.60967	24
3.61333	24
3.61700	24
3.62067	24
3.62433	24
3.62800	24
3.63167	24
3.63533	24
3.63900	24
3.64267	24
3.64633	24
3.65000	24
3.65367	24
3.65733	24
3.66100	24
3.66467	24
3.66833	24
3.67200	24
3.67567	24
3.67933	24
3.68300	24
3.68667	24
3.69033	25
3.69400	25
3.69767	25
3.70133	25
3.70500	25
3.70867	25
3.71233	24
3.71600	24
3.71967	24
3.72333	24
3.72700	24
3.73067	24
3.73433	24
3.73800	24
3.74167	24
3.74533	24
3.74900	25
3.75267	25
3.75633	25
3.76000	26
3.76367	26
3.76733	26
3.77100	26
3.77467	26
3.77833	26
3.78200	26
3.78567	26
3.78933	26
3.79300	26
3.79667	26
3.80033	26
3.80400	26
3.80767	25
3.81133	25
3.81500	25
3.81867	25
3.82233	25
3.82600	25
3.82967	25
3.83333	25
3.83700	25
3.84067	25
3.84433	25
3.84800	25
3.85167	25
3.85533	26
3.85900	26
3.86267	26
3.86633	25
3.87000	25
3.87367	25
3.87733	25
3.88100	25
3.88467	25
3.88833	25
3.89200	24
3.89567	24
3.89933	24
3.90300	24
3.90667	24
3.91033	24
3.91400	24
3.91767	24
3.92133	24
3.92500	24
3.92867	24
3.93233	24
3.93600	24
3.93967	24
3.94333	24
3.94700	24
3.95067	24
3.95433	23
3.95800	23
3.96167	23
3.96533	23
3.96900	23
3.97267	23
3.97633	23
3.98000	23
3.98367	24
3.98733	24
3.99100	24
3.99467	24
3.99833	25

[Chromatogram (Ch3)]
Interval(msec)	220
# of Points	1091
Start Time(min)	0.002
End Time(min)	3.998
R.Time (min)	Intensity
0.00167	-2
0.00533	-6
0.00900	-9
0.01267	-10
0.01633	-10
0.02000	-8
0.02367	-5
0.02733	-3
0.03100	-4
0.03467	-4
0.03833	-7
0.04200	-8
0.04567	-7
0.04933	-6
0.05300	-4
0.05667	-2
0.06033	-3
0.06400	-3
0.06767	-4
0.07133	-1
0.07500	1
0.07867	2
0.08233	2
0.08600	1
0.08967	-1
0.09333	-1
0.09700	2
0.10067	3
0.10433	4
0.10800	4
0.11167	5
0.11533	5
0.11900	6
0.12267	8
0.12633	8
0.13000	6
0.13367	5
0.13733	4
0.14100	3
0.14467	1
0.14833	-1
0.15200	-2
0.15567	-3
0.15933	-3
0.16300	-4
0.16667	-4
0.17033	-2
0.17400	1
0.17767	4
0.18133	3
0.18500	1
0.18867	2
0.19233	4
0.19600	4
0.19967	2
0.20333	-0
0.20700	-3
0.21067	-3
0.21433	-3
0.21800	-3
0.22167	-2
0.22533	-2
0.22900	-3
0.23267	-2
0.23633	-1
0.24000	1
0.24367	1
0.24733	1
0.25100	3
0.25467	4
0.25833	3
0.26200	3
0.26567	4
0.26933	5
0.27300	6
0.27667	6
0.28033	5
0.28400	4
0.28767	4
0.29133	2
0.29500	2
0.29867	4
0.30233	4
0.30600	5
0.30967	4
0.31333	2
0.31700	-1
0.32067	-2
0.32433	-0
0.32800	3
0.33167	6
0.33533	9
0.33900	10
0.34267	10
0.34633	11
0.35000	10
0.35367	10
0.35733	8
0.36100	5
0.36467	4
0.36833	3
0.37200	0
0.37567	1
0.37933	2
0.38300	3
0.38667	2
0.39033	2
0.39400	4
0.39767	5
0.40133	6
0.40500	7
0.40867	7
0.41233	7
0.41600	4
0.41967	1
0.42333	-1
0.42700	-0
0.43067	1
0.43433	2
0.43800	3
0.44167	3
0.44533	3
0.44900	4
0.45267	5
0.45633	7
0.46000	8
0.46367	8
0.46733	8
0.47100	9
0.47467	8
0.47833	7
0.48200	6
0.48567	7
0.48933	8
0.49300	9
0.49667	10
0.50033	9
0.50400	10
0.50767	11
0.51133	11
0.51500	10
0.51867	7
0.52233	6
0.52600	6
0.52967	8
0.53333	9
0.53700	10
0.54067	11
0.54433	9
0.54800	8
0.55167	8
0.55533	7
0.55900	8
0.56267	7
0.56633	5
0.57000	6
0.57367	7
0.57733	9
0.58100	10
0.58467	11
0.58833	10
0.59200	11
0.59567	11
0.59933	11
0.60300	10
0.60667	9
0.61033	7
0.61400	6
0.61767	5
0.62133	5
0.62500	7
0.62867	9
0.63233	11
0.63600	11
0.63967	14
0.64333	16
0.64700	15
0.65067	12
0.65433	12
0.65800	11
0.66167	10
0.66533	8
0.66900	8
0.67267	8
0.67633	8
0.68000	10
0.68367	12
0.68733	12
0.69100	13
0.69467	14
0.69833	15
0.70200	14
0.70567	14
0.70933	15
0.71300	16
0.71667	13
0.72033	11
0.72400	12
0.72767	11
0.73133	12
0.73500	14
0.73867	15
0.74233	15
0.74600	13
0.74967	12
0.75333	12
0.75700	13
0.76067	15
0.76433	15
0.76800	15
0.77167	14
0.77533	13
0.77900	10
0.78267	11
0.78633	12
0.79000	13
0.79367	14
0.79733	16
0.80100	17
0.80467	18
0.80833	17
0.81200	14
0.81567	11
0.81933	11
0.82300	12
0.82667	11
0.83033	9
0.83400	10
0.83767	9
0.84133	9
0.84500	11
0.84867	12
0.85233	13
0.85600	13
0.85967	14
0.86333	14
0.86700	17
0.87067	20
0.87433	21
0.87800	20
0.88167	20
0.88533	20
0.88900	18
0.89267	14
0.89633	14
0.90000	13
0.90367	12
0.90733	12
0.91100	12
0.91467	12
0.91833	9
0.92200	8
0.92567	10
0.92933	14
0.93300	15
0.93667	16
0.94033	18
0.94400	18
0.94767	17
0.95133	15
0.95500	14
0.95867	14
0.96233	15
0.96600	18
0.96967	19
0.97333	19
0.97700	18
0.98067	18
0.98433	15
0.98800	14
0.99167	14
0.99533	17
0.99900	18
1.00267	18
1.00633	18
1.01000	19
1.01367	18
1.01733	18
1.02100	17
1.02467	18
1.02833	18
1.03200	17
1.03567	14
1.03933	12
1.04300	12
1.04667	13
1.05033	16
1.05400	18
1.05767	17
1.06133	16
1.06500	14
1.06867	14
1.07233	15
1.07600	13
1.07967	14
1.08333	15
1.08700	15
1.09067	17
1.09433	17
1.09800	15
1.10167	15
1.10533	13
1.10900	13
1.11267	13
1.11633	12
1.12000	12
1.12367	12
1.12733	13
1.13100	12
1.13467	11
1.13833	10
1.14200	9
1.14567	10
1.14933	13
1.15300	15
1.15667	15
1.16033	17
1.16400	18
1.16767	20
1.17133	21
1.17500	21
1.17867	19
1.18233	16
1.18600	15
1.18967	14
1.19333	16
1.19700	17
1.20067	18
1.20433	21
1.20800	21
1.21167	21
1.21533	19
1.21900	19
1.22267	18
1.22633	15
1.23000	18
1.23367	20
1.23733	20
1.24100	21
1.24467	21
1.24833	20
1.25200	19
1.25567	18
1.25933	18
1.26300	20
1.26667	22
1.27033	24
1.27400	24
1.27767	22
1.28133	19
1.28500	17
1.28867	17
1.29233	19
1.29600	19
1.29967	19
1.30333	18
1.30700	17
1.31067	16
1.31433	17
1.31800	18
1.32167	19
1.32533	20
1.32900	21
1.33267	21
1.33633	20
1.34000	17
1.34367	17
1.34733	18
1.35100	18
1.35467	16
1.35833	15
1.36200	14
1.36567	13
1.36933	14
1.37300	14
1.37667	15
1.38033	15
1.38400	16
1.38767	17
1.39133	19
1.39500	20
1.39867	20
1.40233	19
1.40600	20
1.40967	19
1.41333	20
1.41700	21
1.42067	21
1.42433	21
1.42800	23
1.43167	25
1.43533	27
1.43900	24
1.44267	22
1.44633	22
1.45000	22
1.45367	23
1.45733	24
1.46100	25
1.46467	26
1.46833	26
1.47200	26
1.47567	25
1.47933	23
1.48300	24
1.48667	28
1.49033	30
1.49400	29
1.49767	27
1.50133	27
1.50500	27
1.50867	26
1.51233	25
1.51600	24
1.51967	24
1.52333	23
1.52700	22
1.53067	22
1.53433	23
1.53800	22
1.54167	19
1.54533	18
1.54900	21
1.55267	24
1.55633	23
1.56000	22
1.56367	22
1.56733	22
1.57100	21
1.57467	24
1.57833	25
1.58200	28
1.58567	28
1.58933	27
1.59300	26
1.59667	27
1.60033	27
1.60400	27
1.60767	29
1.61133	29
1.61500	27
1.61867	27
1.62233	28
1.62600	28
1.62967	28
1.63333	29
1.63700	31
1.64067	31
1.64433	32
1.64800	35
1.65167	35
1.65533	36
1.65900	38
1.66267	40
1.66633	38
1.67000	38
1.67367	38
1.67733	39
1.68100	39
1.68467	41
1.68833	42
1.69200	41
1.69567	42
1.69933	43
1.70300	44
1.70667	42
1.71033	40
1.71400	41
1.71767	43
1.72133	44
1.72500	44
1.72867	42
1.73233	40
1.73600	38
1.73967	39
1.74333	40
1.74700	41
1.75067	42
1.75433	41
1.75800	40
1.76167	41
1.76533	41
1.76900	41
1.77267	41
1.77633	41
1.78000	39
1.78367	40
1.78733	42
1.79100	44
1.79467	47
1.79833	48
1.80200	47
1.80567	46
1.80933	48
1.81300	49
1.81667	49
1.82033	48
1.82400	50
1.82767	53
1.83133	54
1.83500	55
1.83867	55
1.84233	55
1.84600	57
1.84967	60
1.85333	62
1.85700	63
1.86067	62
1.86433	61
1.86800	60
1.87167	59
1.87533	58
1.87900	60
1.88267	61
1.88633	61
1.89000	60
1.89367	61
1.89733	61
1.90100	60
1.90467	58
1.90833	58
1.91200	59
1.91567	62
1.91933	63
1.92300	67
1.92667	70
1.93033	69
1.93400	66
1.93767	66
1.94133	67
1.94500	67
1.94867	69
1.95233	72
1.95600	75
1.95967	75
1.96333	74
1.96700	75
1.97067	78
1.97433	79
1.97800	81
1.98167	81
1.98533	82
1.98900	83
1.99267	82
1.99633	82
2.00000	83
2.00367	82
2.00733	81
2.01100	80
2.01467	82
2.01833	84
2.02200	84
2.02567	84
2.02933	86
2.03300	88
2.03667	88
2.04033	89
2.04400	91
2.04767	94
2.05133	96
2.05500	96
2.05867	96
2.06233	97
2.06600	99
2.06967	102
2.07333	102
2.07700	105
2.08067	109
2.08433	111
2.08800	110
2.09167	110
2.09533	111
2.09900	110
2.10267	110
2.10633	110
2.11000	111
2.11367	113
2.11733	115
2.12100	117
2.12467	120
2.12833	123
2.13200	126
2.13567	126
2.13933	123
2.14300	123
2.14667	126
2.15033	128
2.15400	130
2.15767	132
2.16133	132
2.16500	133
2.16867	134
2.17233	135
2.17600	134
2.17967	136
2.18333	139
2.18700	139
2.19067	141
2.19433	141
2.19800	143
2.20167	145
2.20533	147
2.20900	149
2.21267	150
2.21633	152
2.22000	155
2.22367	157
2.22733	157
2.23100	157
2.23467	156
2.23833	158
2.24200	163
2.24567	167
2.24933	168
2.25300	167
2.25667	168
2.26033	168
2.26400	167
2.26767	169
2.27133	173
2.27500	175
2.27867	175
2.28233	177
2.28600	179
2.28967	180
2.29333	181
2.29700	183
2.30067	186
2.30433	188
2.30800	190
2.31167	192
2.31533	195
2.31900	195
2.32267	193
2.32633	192
2.33000	193
2.33367	194
2.33733	197
2.34100	200
2.34467	204
2.34833	208
2.35200	212
2.35567	216
2.35933	221
2.36300	222
2.36667	222
2.37033	221
2.37400	220
2.37767	222
2.38133	225
2.38500	227
2.38867	227
2.39233	230
2.39600	233
2.39967	238
2.40333	241
2.40700	244
2.41067	245
2.41433	246
2.41800	248
2.42167	250
2.42533	251
2.42900	254
2.43267	259
2.43633	262
2.44000	268
2.44367	310
2.44733	424
2.45100	547
2.45467	648
2.45833	711
2.46200	716
2.46567	679
2.46933	633
2.47300	600
2.47667	579
2.48033	569
2.48400	555
2.48767	529
2.49133	494
2.49500	456
2.49867	421
2.50233	393
2.50600	375
2.50967	364
2.51333	358
2.51700	355
2.52067	359
2.52433	368
2.52800	383
2.53167	397
2.53533	410
2.53900	416
2.54267	412
2.54633	399
2.55000	382
2.55367	363
2.55733	342
2.56100	322
2.56467	304
2.56833	290
2.57200	279
2.57567	273
2.57933	270
2.58300	268
2.58667	266
2.59033	264
2.59400	263
2.59767	260
2.60133	251
2.60500	238
2.60867	221
2.61233	204
2.61600	188
2.61967	171
2.62333	157
2.62700	147
2.63067	140
2.63433	138
2.63800	142
2.64167	147
2.64533	155
2.64900	167
2.65267	179
2.65633	191
2.66000	199
2.66367	205
2.66733	209
2.67100	210
2.67467	211
2.67833	212
2.68200	211
2.68567	206
2.68933	202
2.69300	199
2.69667	196
2.70033	193
2.70400	189
2.70767	184
2.71133	177
2.71500	174
2.71867	172
2.72233	170
2.72600	166
2.72967	165
2.73333	163
2.73700	162
2.74067	161
2.74433	162
2.74800	163
2.75167	165
2.75533	168
2.75900	169
2.76267	170
2.76633	171
2.77000	170
2.77367	170
2.77733	171
2.78100	172
2.78467	171
2.78833	170
2.79200	170
2.79567	171
2.79933	173
2.80300	173
2.80667	172
2.81033	174
2.81400	179
2.81767	187
2.82133	205
2.82500	252
2.82867	345
2.83233	501
2.83600	740
2.83967	1083
2.84333	1532
2.84700	2075
2.85067	2678
2.85433	3299
2.85800	3891
2.86167	4402
2.86533	4793
2.86900	5038
2.87267	5134
2.87633	5088
2.88000	4924
2.88367	4670
2.88733	4354
2.89100	4005
2.89467	3644
2.89833	3287
2.90200	2946
2.90567	2629
2.90933	2337
2.91300	2070
2.91667	1831
2.92033	1619
2.92400	1432
2.92767	1271
2.93133	1129
2.93500	1005
2.93867	898
2.94233	806
2.94600	725
2.94967	656
2.95333	596
2.95700	546
2.96067	501
2.96433	460
2.96800	423
2.97167	391
2.97533	365
2.97900	342
2.98267	321
2.98633	305
2.99000	289
2.99367	274
2.99733	262
3.00100	248
3.00467	237
3.00833	229
3.01200	219
3.01567	211
3.01933	207
3.02300	202
3.02667	197
3.03033	193
3.03400	181
3.03767	150
3.04133	121
3.04500	111
3.04867	119
3.05233	139
3.05600	165
3.05967	194
3.06333	229
3.06700	267
3.07067	309
3.07433	351
3.07800	391
3.08167	427
3.08533	459
3.08900	487
3.09267	511
3.09633	533
3.10000	554
3.10367	570
3.10733	583
3.11100	591
3.11467	599
3.11833	608
3.12200	613
3.12567	619
3.12933	623
3.13300	625
3.13667	626
3.14033	627
3.14400	627
3.14767	629
3.15133	632
3.15500	634
3.15867	636
3.16233	637
3.16600	637
3.16967	637
3.17333	637
3.17700	637
3.18067	638
3.18433	638
3.18800	640
3.19167	641
3.19533	643
3.19900	647
3.20267	650
3.20633	653
3.21000	653
3.21367	652
3.21733	651
3.22100	650
3.22467	653
3.22833	654
3.23200	655
3.23567	657
3.23933	662
3.24300	666
3.24667	668
3.25033	671
3.25400	672
3.25767	673
3.26133	676
3.26500	679
3.26867	682
3.27233	684
3.27600	687
3.27967	689
3.28333	689
3.28700	692
3.29067	695
3.29433	699
3.29800	702
3.30167	703
3.30533	702
3.30900	700
3.31267	698
3.31633	697
3.32000	696
3.32367	694
3.32733	693
3.33100	689
3.33467	687
3.33833	689
3.34200	687
3.34567	683
3.34933	679
3.35300	678
3.35667	677
3.36033	676
3.36400	672
3.36767	668
3.37133	666
3.37500	665
3.37867	661
3.38233	659
3.38600	660
3.38967	659
3.39333	658
3.39700	657
3.40067	656
3.40433	654
3.40800	651
3.41167	648
3.41533	645
3.41900	644
3.42267	645
3.42633	646
3.43000	647
3.43367	645
3.43733	643
3.44100	640
3.44467	636
3.44833	633
3.45200	630
3.45567	629
3.45933	627
3.46300	624
3.46667	621
3.47033	619
3.47400	617
3.47767	615
3.48133	612
3.48500	610
3.48867	607
3.49233	604
3.49600	602
3.49967	600
3.50333	596
3.50700	594
3.51067	591
3.51433	586
3.51800	583
3.52167	580
3.52533	577
3.52900	575
3.53267	575
3.53633	575
3.54000	575
3.54367	575
3.54733	573
3.55100	571
3.55467	570
3.55833	569
3.56200	566
3.56567	562
3.56933	561
3.57300	560
3.57667	560
3.58033	561
3.58400	562
3.58767	563
3.59133	562
3.59500	560
3.59867	557
3.60233	556
3.60600	557
3.60967	556
3.61333	553
3.61700	553
3.62067	554
3.62433	554
3.62800	556
3.63167	556
3.63533	554
3.63900	553
3.64267	552
3.64633	552
3.65000	552
3.65367	549
3.65733	548
3.66100	546
3.66467	546
3.66833	547
3.67200	548
3.67567	545
3.67933	543
3.68300	544
3.68667	546
3.69033	547
3.69400	548
3.69767	548
3.70133	547
3.70500	545
3.70867	544
3.71233	541
3.71600	539
3.71967	539
3.72333	540
3.72700	543
3.73067	545
3.73433	546
3.73800	546
3.74167	545
3.74533	541
3.74900	539
3.75267	538
3.75633	534
3.76000	532
3.76367	532
3.76733	534
3.77100	535
3.77467	534
3.77833	534
3.78200	533
3.78567	532
3.78933	531
3.79300	532
3.79667	533
3.80033	532
3.80400	531
3.80767	530
3.81133	530
3.81500	529
3.81867	528
3.82233	528
3.82600	529
3.82967	527
3.83333	525
3.83700	523
3.84067	521
3.84433	520
3.84800	519
3.85167	516
3.85533	514
3.85900	515
3.86267	515
3.86633	513
3.87000	514
3.87367	514
3.87733	514
3.88100	512
3.88467	511
3.88833	510
3.89200	509
3.89567	505
3.89933	503
3.90300	505
3.90667	506
3.91033	506
3.91400	507
3.91767	504
3.92133	502
3.92500	501
3.92867	499
3.93233	493
3.93600	489
3.93967	487
3.94333	486
3.94700	487
3.95067	487
3.95433	487
3.95800	486
3.96167	485
3.96533	485
3.96900	487
3.97267	487
3.97633	483
3.98000	479
3.98367	476
3.98733	474
3.99100	472
3.99467	471
3.99833	468

[Status Trace (Column Oven Temperature)]
Interval(msec)	1000
# of Points	239
Start Time(min)	0.009
End Time(min)	3.976
Intensity Units	
Intensity Multiplier	1
R.Time (min)	Intensity
0.00917	35.06
0.02583	35.06
0.04250	35.05
0.05917	35.03
0.07583	35.02
0.09250	35.01
0.10917	35.00
0.12583	35.00
0.14250	35.01
0.15917	35.02
0.17583	35.03
0.19250	35.04
0.20917	35.02
0.22583	35.01
0.24250	35.00
0.25917	34.99
0.27583	34.99
0.29250	35.00
0.30917	35.00
0.32583	35.00
0.34250	35.00
0.35917	35.00
0.37583	35.01
0.39250	35.01
0.40917	35.01
0.42583	35.01
0.44250	35.01
0.45917	35.01
0.47583	35.02
0.49250	35.02
0.50917	35.01
0.52583	35.01
0.54250	35.00
0.55917	35.00
0.57583	35.00
0.59250	35.01
0.60917	35.01
0.62583	35.02
0.64250	35.02
0.65917	35.01
0.67583	35.01
0.69250	35.01
0.70917	35.02
0.72583	35.02
0.74250	35.02
0.75917	35.02
0.77583	35.01
0.79250	35.00
0.80917	35.00
0.82583	35.00
0.84250	35.00
0.85917	35.00
0.87583	35.01
0.89250	35.01
0.90917	35.01
0.92583	35.00
0.94250	35.00
0.95917	35.00
0.97583	35.01
0.99250	35.00
1.00917	35.01
1.02583	34.99
1.04250	34.99
1.05917	34.98
1.07583	34.98
1.09250	34.98
1.10917	34.97
1.12583	34.98
1.14250	34.98
1.15917	34.98
1.17583	34.99
1.19250	34.99
1.20917	34.99
1.22583	35.00
1.24250	35.01
1.25917	35.02
1.27583	35.02
1.29250	35.00
1.30917	34.99
1.32583	34.99
1.34250	35.00
1.35917	35.01
1.37583	35.02
1.39250	35.03
1.40917	35.03
1.42583	35.03
1.44250	35.02
1.45917	35.01
1.47583	35.00
1.49250	34.99
1.50917	34.98
1.52583	34.98
1.54250	34.97
1.55917	34.97
1.57583	34.97
1.59250	35.00
1.60917	35.07
1.62583	35.19
1.64250	35.38
1.65917	35.64
1.67583	36.00
1.69250	36.37
1.70917	36.73
1.72583	37.04
1.74250	37.36
1.75917	37.72
1.77583	38.05
1.79250	38.36
1.80917	38.67
1.82583	39.00
1.84250	39.34
1.85917	39.69
1.87583	40.02
1.89250	40.34
1.90917	40.68
1.92583	41.01
1.94250	41.33
1.95917	41.66
1.97583	41.97
1.99250	42.29
2.00917	42.62
2.02583	42.95
2.04250	43.28
2.05917	43.61
2.07583	43.94
2.09250	44.26
2.10917	44.58
2.12583	44.92
2.14250	45.25
2.15917	45.56
2.17583	45.90
2.19250	46.23
2.20917	46.56
2.22583	46.86
2.24250	47.20
2.25917	47.53
2.27583	47.85
2.29250	48.19
2.30917	48.53
2.32583	48.87
2.34250	49.17
2.35917	49.43
2.37583	49.59
2.39250	49.64
2.40917	49.63
2.42583	49.64
2.44250	49.66
2.45917	49.67
2.47583	49.68
2.49250	49.70
2.50917	49.73
2.52583	49.72
2.54250	49.74
2.55917	49.76
2.57583	49.78
2.59250	49.79
2.60917	49.83
2.62583	49.84
2.64250	49.84
2.65917	49.84
2.67583	49.85
2.69250	49.86
2.70917	49.86
2.72583	49.86
2.74250	49.84
2.75917	49.85
2.77583	49.86
2.79250	49.85
2.80917	49.86
2.82583	49.86
2.84250	49.87
2.85917	49.88
2.87583	49.88
2.89250	49.89
2.90917	49.90
2.92583	49.91
2.94250	49.92
2.95917	49.94
2.97583	49.95
2.99250	49.97
3.00917	49.97
3.02583	49.97
3.04250	49.97
3.05917	49.99
3.07583	49.99
3.09250	50.00
3.10917	50.00
3.12583	50.00
3.14250	50.01
3.15917	50.02
3.17583	50.04
3.19250	50.05
3.20917	50.06
3.22583	50.08
3.24250	50.09
3.25917	50.09
3.27583	50.11
3.29250	50.11
3.30917	50.11
3.32583	50.09
3.34250	50.08
3.35917	50.06
3.37583	50.05
3.39250	50.05
3.40917	50.05
3.42583	50.04
3.44250	50.04
3.45917	50.04
3.47583	50.03
3.49250	50.02
3.50917	50.01
3.52583	49.99
3.54250	50.00
3.55917	50.00
3.57583	50.01
3.59250	50.02
3.60917	50.03
3.62583	50.03
3.64250	50.03
3.65917	50.04
3.67583	50.05
3.69250	50.06
3.70917	50.06
3.72583	50.07
3.74250	50.06
3.75917	50.05
3.77583	50.04
3.79250	50.05
3.80917	50.05
3.82583	50.04
3.84250	50.04
3.85917	50.04
3.87583	50.03
3.89250	50.05
3.90917	50.05
3.92583	50.06
3.94250	50.07
3.95917	50.08
3.97583	50.08

[Status Trace (Injection Unit Temperature)]
Interval(msec)	1000
# of Points	239
Start Time(min)	0.009
End Time(min)	3.976
Intensity Units	
Intensity Multiplier	1
R.Time (min)	Intensity
0.00917	99.98
0.02583	99.98
0.04250	99.99
0.05917	99.98
0.07583	99.98
0.09250	99.99
0.10917	99.98
0.12583	99.98
0.14250	99.98
0.15917	99.98
0.17583	99.98
0.19250	99.98
0.20917	99.98
0.22583	99.98
0.24250	99.99
0.25917	99.98
0.27583	99.99
0.29250	99.98
0.30917	99.99
0.32583	99.98
0.34250	99.99
0.35917	99.98
0.37583	99.98
0.39250	99.98
0.40917	99.98
0.42583	99.98
0.44250	99.98
0.45917	99.98
0.47583	99.98
0.49250	99.98
0.50917	99.97
0.52583	99.98
0.54250	99.98
0.55917	99.98
0.57583	99.98
0.59250	99.98
0.60917	99.98
0.62583	99.98
0.64250	99.98
0.65917	99.98
0.67583	99.98
0.69250	99.98
0.70917	99.98
0.72583	99.98
0.74250	99.98
0.75917	99.98
0.77583	99.98
0.79250	99.98
0.80917	99.98
0.82583	99.98
0.84250	99.98
0.85917	99.98
0.87583	99.98
0.89250	99.98
0.90917	99.98
0.92583	99.98
0.94250	99.98
0.95917	99.98
0.97583	99.98
0.99250	99.98
1.00917	99.98
1.02583	99.98
1.04250	99.99
1.05917	99.98
1.07583	99.99
1.09250	99.99
1.10917	99.98
1.12583	99.98
1.14250	99.98
1.15917	99.99
1.17583	99.99
1.19250	99.99
1.20917	99.99
1.22583	99.99
1.24250	99.99
1.25917	99.99
1.27583	99.99
1.29250	99.99
1.30917	99.99
1.32583	99.99
1.34250	99.99
1.35917	99.99
1.37583	99.98
1.39250	99.98
1.40917	99.98
1.42583	99.99
1.44250	99.99
1.45917	99.99
1.47583	99.99
1.49250	99.99
1.50917	99.99
1.52583	99.99
1.54250	99.98
1.55917	99.99
1.57583	99.99
1.59250	99.98
1.60917	99.99
1.62583	99.99
1.64250	99.99
1.65917	99.98
1.67583	99.99
1.69250	99.99
1.70917	99.98
1.72583	99.99
1.74250	99.98
1.75917	99.99
1.77583	99.98
1.79250	99.98
1.80917	99.98
1.82583	99.98
1.84250	99.98
1.85917	99.98
1.87583	99.98
1.89250	99.98
1.90917	99.98
1.92583	99.98
1.94250	99.97
1.95917	99.98
1.97583	99.97
1.99250	99.98
2.00917	99.97
2.02583	99.97
2.04250	99.97
2.05917	99.97
2.07583	99.97
2.09250	99.97
2.10917	99.97
2.12583	99.97
2.14250	99.97
2.15917	99.97
2.17583	99.97
2.19250	99.97
2.20917	99.97
2.22583	99.97
2.24250	99.97
2.25917	99.97
2.27583	99.98
2.29250	99.97
2.30917	99.97
2.32583	99.98
2.34250	99.97
2.35917	99.97
2.37583	99.98
2.39250	99.97
2.40917	99.97
2.42583	99.97
2.44250	99.98
2.45917	99.98
2.47583	99.97
2.49250	99.98
2.50917	99.98
2.52583	99.98
2.54250	99.98
2.55917	99.98
2.57583	99.98
2.59250	99.98
2.60917	99.98
2.62583	99.99
2.64250	99.98
2.65917	99.99
2.67583	99.99
2.69250	99.98
2.70917	99.98
2.72583	99.99
2.74250	99.99
2.75917	99.99
2.77583	99.99
2.79250	99.99
2.80917	100.00
2.82583	99.99
2.84250	99.99
2.85917	100.00
2.87583	100.00
2.89250	100.00
2.90917	100.00
2.92583	100.00
2.94250	100.00
2.95917	100.00
2.97583	100.00
2.99250	100.00
3.00917	100.01
3.02583	100.01
3.04250	100.01
3.05917	100.01
3.07583	100.01
3.09250	100.01
3.10917	100.01
3.12583	100.01
3.14250	100.02
3.15917	100.02
3.17583	100.02
3.19250	100.02
3.20917	100.02
3.22583	100.02
3.24250	100.02
3.25917	100.01
3.27583	100.02
3.29250	100.02
3.30917	100.02
3.32583	100.02
3.34250	100.02
3.35917	100.02
3.37583	100.02
3.39250	100.02
3.40917	100.02
3.42583	100.03
3.44250	100.02
3.45917	100.03
3.47583	100.03
3.49250	100.03
3.50917	100.03
3.52583	100.03
3.54250	100.03
3.55917	100.03
3.57583	100.03
3.59250	100.03
3.60917	100.03
3.62583	100.03
3.64250	100.03
3.65917	100.03
3.67583	100.03
3.69250	100.03
3.70917	100.03
3.72583	100.03
3.74250	100.03
3.75917	100.03
3.77583	100.04
3.79250	100.03
3.80917	100.03
3.82583	100.04
3.84250	100.03
3.85917	100.04
3.87583	100.04
3.89250	100.03
3.90917	100.04
3.92583	100.04
3.94250	100.04
3.95917	100.04
3.97583	100.04

[Status Trace (Carrier Gas Pressure)]
Interval(msec)	1000
# of Points	239
Start Time(min)	0.009
End Time(min)	3.976
Intensity Units	
Intensity Multiplier	1
R.Time (min)	Intensity
0.00917	58.00
0.02583	55.28
0.04250	57.28
0.05917	59.43
0.07583	59.32
0.09250	58.04
0.10917	57.98
0.12583	58.01
0.14250	58.01
0.15917	58.01
0.17583	58.00
0.19250	58.00
0.20917	58.00
0.22583	58.00
0.24250	58.00
0.25917	58.00
0.27583	58.00
0.29250	58.00
0.30917	58.00
0.32583	58.00
0.34250	58.00
0.35917	58.00
0.37583	58.00
0.39250	58.00
0.40917	58.00
0.42583	58.00
0.44250	58.00
0.45917	58.00
0.47583	58.00
0.49250	58.00
0.50917	58.00
0.52583	58.00
0.54250	58.00
0.55917	58.00
0.57583	58.00
0.59250	58.00
0.60917	58.00
0.62583	58.00
0.64250	58.00
0.65917	58.00
0.67583	58.00
0.69250	58.00
0.70917	58.00
0.72583	58.00
0.74250	58.00
0.75917	58.00
0.77583	58.00
0.79250	58.00
0.80917	58.00
0.82583	58.00
0.84250	58.00
0.85917	58.00
0.87583	58.00
0.89250	58.00
0.90917	58.00
0.92583	58.00
0.94250	58.00
0.95917	58.00
0.97583	58.00
0.99250	58.00
1.00917	58.00
1.02583	58.00
1.04250	58.00
1.05917	58.00
1.07583	58.00
1.09250	58.00
1.10917	58.00
1.12583	58.00
1.14250	58.00
1.15917	58.00
1.17583	58.00
1.19250	58.00
1.20917	58.00
1.22583	58.00
1.24250	58.00
1.25917	58.00
1.27583	58.00
1.29250	58.00
1.30917	58.00
1.32583	58.00
1.34250	58.00
1.35917	58.00
1.37583	58.00
1.39250	58.00
1.40917	58.00
1.42583	58.00
1.44250	58.00
1.45917	58.00
1.47583	58.00
1.49250	58.00
1.50917	58.00
1.52583	58.00
1.54250	58.00
1.55917	58.00
1.57583	58.00
1.59250	58.00
1.60917	58.00
1.62583	58.00
1.64250	58.01
1.65917	58.00
1.67583	58.01
1.69250	58.00
1.70917	58.00
1.72583	58.00
1.74250	58.00
1.75917	58.00
1.77583	58.00
1.79250	58.00
1.80917	58.00
1.82583	58.00
1.84250	58.00
1.85917	58.00
1.87583	58.00
1.89250	58.00
1.90917	58.00
1.92583	58.00
1.94250	58.00
1.95917	58.00
1.97583	58.00
1.99250	58.00
2.00917	58.00
2.02583	58.00
2.04250	58.00
2.05917	58.00
2.07583	58.00
2.09250	58.00
2.10917	58.00
2.12583	58.00
2.14250	58.00
2.15917	58.00
2.17583	58.00
2.19250	58.00
2.20917	58.00
2.22583	58.00
2.24250	58.00
2.25917	58.00
2.27583	58.00
2.29250	58.00
2.30917	58.00
2.32583	58.00
2.34250	58.00
2.35917	58.00
2.37583	58.00
2.39250	57.99
2.40917	57.99
2.42583	58.00
2.44250	58.00
2.45917	58.00
2.47583	58.00
2.49250	58.00
2.50917	58.00
2.52583	57.98
2.54250	58.00
2.55917	58.00
2.57583	58.00
2.59250	58.00
2.60917	58.00
2.62583	58.00
2.64250	58.00
2.65917	58.00
2.67583	58.00
2.69250	58.00
2.70917	58.00
2.72583	58.00
2.74250	58.00
2.75917	58.00
2.77583	58.00
2.79250	58.00
2.80917	58.00
2.82583	58.00
2.84250	58.00
2.85917	58.00
2.87583	58.00
2.89250	58.00
2.90917	58.00
2.92583	58.00
2.94250	58.00
2.95917	58.00
2.97583	58.00
2.99250	58.00
3.00917	58.00
3.02583	58.00
3.04250	58.00
3.05917	58.00
3.07583	58.00
3.09250	58.00
3.10917	58.00
3.12583	58.00
3.14250	58.00
3.15917	58.00
3.17583	58.00
3.19250	58.00
3.20917	58.00
3.22583	58.00
3.24250	58.00
3.25917	58.00
3.27583	58.00
3.29250	58.00
3.30917	58.00
3.32583	58.00
3.34250	58.00
3.35917	58.00
3.37583	58.00
3.39250	58.00
3.40917	58.00
3.42583	58.00
3.44250	58.00
3.45917	58.00
3.47583	58.00
3.49250	58.00
3.50917	58.00
3.52583	58.00
3.54250	58.00
3.55917	58.00
3.57583	58.00
3.59250	58.00
3.60917	58.00
3.62583	58.00
3.64250	58.00
3.65917	58.00
3.67583	58.00
3.69250	58.00
3.70917	58.00
3.72583	58.00
3.74250	58.00
3.75917	58.00
3.77583	58.00
3.79250	58.00
3.80917	58.00
3.82583	58.00
3.84250	58.00
3.85917	58.00
3.87583	58.00
3.89250	58.00
3.90917	58.00
3.92583	58.00
3.94250	58.00
3.95917	58.00
3.97583	58.00

[Status Trace (Carrier Gas Flow)]
Interval(msec)	1000
# of Points	239
Start Time(min)	0.009
End Time(min)	3.976
Intensity Units	
Intensity Multiplier	1
R.Time (min)	Intensity
0.00917	34.52
0.02583	34.54
0.04250	34.55
0.05917	34.55
0.07583	34.50
0.09250	34.52
0.10917	34.52
0.12583	34.52
0.14250	34.52
0.15917	34.52
0.17583	34.52
0.19250	34.52
0.20917	34.52
0.22583	34.52
0.24250	34.52
0.25917	34.52
0.27583	34.52
0.29250	34.52
0.30917	34.52
0.32583	34.52
0.34250	34.52
0.35917	34.52
0.37583	34.52
0.39250	34.52
0.40917	34.52
0.42583	34.52
0.44250	34.52
0.45917	34.52
0.47583	34.51
0.49250	34.52
0.50917	34.52
0.52583	34.52
0.54250	34.52
0.55917	34.52
0.57583	34.52
0.59250	34.51
0.60917	34.52
0.62583	34.52
0.64250	34.52
0.65917	34.52
0.67583	34.51
0.69250	34.52
0.70917	34.52
0.72583	34.52
0.74250	34.52
0.75917	34.52
0.77583	34.52
0.79250	34.52
0.80917	34.51
0.82583	34.52
0.84250	34.52
0.85917	34.52
0.87583	34.52
0.89250	34.52
0.90917	34.52
0.92583	34.52
0.94250	34.52
0.95917	34.52
0.97583	34.52
0.99250	34.52
1.00917	34.51
1.02583	34.52
1.04250	34.52
1.05917	34.52
1.07583	34.52
1.09250	34.52
1.10917	34.52
1.12583	34.52
1.14250	34.52
1.15917	34.52
1.17583	34.52
1.19250	34.52
1.20917	34.52
1.22583	34.52
1.24250	34.52
1.25917	34.52
1.27583	34.52
1.29250	34.52
1.30917	34.52
1.32583	34.52
1.34250	34.52
1.35917	34.52
1.37583	34.52
1.39250	34.52
1.40917	34.52
1.42583	34.52
1.44250	34.52
1.45917	34.52
1.47583	34.52
1.49250	34.52
1.50917	34.52
1.52583	34.52
1.54250	34.52
1.55917	34.52
1.57583	34.52
1.59250	34.52
1.60917	34.52
1.62583	34.52
1.64250	34.52
1.65917	34.52
1.67583	34.52
1.69250	34.52
1.70917	34.52
1.72583	34.51
1.74250	34.52
1.75917	34.52
1.77583	34.52
1.79250	34.51
1.80917	34.51
1.82583	34.52
1.84250	34.52
1.85917	34.52
1.87583	34.52
1.89250	34.52
1.90917	34.52
1.92583	34.52
1.94250	34.52
1.95917	34.52
1.97583	34.53
1.99250	34.52
2.00917	34.52
2.02583	34.52
2.04250	34.51
2.05917	34.52
2.07583	34.52
2.09250	34.52
2.10917	34.52
2.12583	34.52
2.14250	34.51
2.15917	34.52
2.17583	34.52
2.19250	34.51
2.20917	34.51
2.22583	34.52
2.24250	34.52
2.25917	34.52
2.27583	34.52
2.29250	34.52
2.30917	34.52
2.32583	34.52
2.34250	34.52
2.35917	34.52
2.37583	34.52
2.39250	34.52
2.40917	34.52
2.42583	34.52
2.44250	34.52
2.45917	34.52
2.47583	34.52
2.49250	34.52
2.50917	34.51
2.52583	34.51
2.54250	34.52
2.55917	34.52
2.57583	34.51
2.59250	34.52
2.60917	34.52
2.62583	34.52
2.64250	34.52
2.65917	34.52
2.67583	34.52
2.69250	34.53
2.70917	34.52
2.72583	34.52
2.74250	34.51
2.75917	34.51
2.77583	34.52
2.79250	34.52
2.80917	34.51
2.82583	34.52
2.84250	34.53
2.85917	34.51
2.87583	34.51
2.89250	34.52
2.90917	34.52
2.92583	34.51
2.94250	34.52
2.95917	34.53
2.97583	34.52
2.99250	34.52
3.00917	34.52
3.02583	34.52
3.04250	34.52
3.05917	34.51
3.07583	34.52
3.09250	34.52
3.10917	34.52
3.12583	34.51
3.14250	34.51
3.15917	34.52
3.17583	34.52
3.19250	34.51
3.20917	34.52
3.22583	34.52
3.24250	34.52
3.25917	34.51
3.27583	34.52
3.29250	34.52
3.30917	34.52
3.32583	34.52
3.34250	34.52
3.35917	34.52
3.37583	34.52
3.39250	34.52
3.40917	34.52
3.42583	34.52
3.44250	34.52
3.45917	34.52
3.47583	34.52
3.49250	34.52
3.50917	34.52
3.52583	34.52
3.54250	34.51
3.55917	34.52
3.57583	34.52
3.59250	34.52
3.60917	34.52
3.62583	34.52
3.64250	34.52
3.65917	34.52
3.67583	34.52
3.69250	34.52
3.70917	34.52
3.72583	34.52
3.74250	34.52
3.75917	34.52
3.77583	34.51
3.79250	34.52
3.80917	34.52
3.82583	34.52
3.84250	34.52
3.85917	34.52
3.87583	34.52
3.89250	34.52
3.90917	34.52
3.92583	34.52
3.94250	34.52
3.95917	34.52
3.97583	34.51

[Status Trace (Column Flow)]
Interval(msec)	1000
# of Points	239
Start Time(min)	0.009
End Time(min)	3.976
Intensity Units	
Intensity Multiplier	1
R.Time (min)	Intensity
0.00917	5.56
0.02583	5.25
0.04250	5.48
0.05917	5.73
0.07583	5.72
0.09250	5.57
0.10917	5.56
0.12583	5.57
0.14250	5.57
0.15917	5.56
0.17583	5.56
0.19250	5.56
0.20917	5.56
0.22583	5.57
0.24250	5.57
0.25917	5.57
0.27583	5.57
0.29250	5.57
0.30917	5.57
0.32583	5.57
0.34250	5.57
0.35917	5.56
0.37583	5.56
0.39250	5.56
0.40917	5.56
0.42583	5.56
0.44250	5.56
0.45917	5.56
0.47583	5.56
0.49250	5.56
0.50917	5.56
0.52583	5.56
0.54250	5.57
0.55917	5.57
0.57583	5.57
0.59250	5.56
0.60917	5.56
0.62583	5.56
0.64250	5.56
0.65917	5.56
0.67583	5.56
0.69250	5.56
0.70917	5.56
0.72583	5.56
0.74250	5.56
0.75917	5.56
0.77583	5.56
0.79250	5.57
0.80917	5.57
0.82583	5.57
0.84250	5.57
0.85917	5.57
0.87583	5.56
0.89250	5.56
0.90917	5.56
0.92583	5.57
0.94250	5.57
0.95917	5.57
0.97583	5.57
0.99250	5.56
1.00917	5.56
1.02583	5.57
1.04250	5.57
1.05917	5.57
1.07583	5.57
1.09250	5.57
1.10917	5.57
1.12583	5.57
1.14250	5.57
1.15917	5.57
1.17583	5.57
1.19250	5.57
1.20917	5.57
1.22583	5.57
1.24250	5.57
1.25917	5.56
1.27583	5.56
1.29250	5.57
1.30917	5.57
1.32583	5.57
1.34250	5.57
1.35917	5.56
1.37583	5.56
1.39250	5.56
1.40917	5.56
1.42583	5.56
1.44250	5.56
1.45917	5.56
1.47583	5.57
1.49250	5.57
1.50917	5.57
1.52583	5.57
1.54250	5.57
1.55917	5.57
1.57583	5.57
1.59250	5.57
1.60917	5.56
1.62583	5.56
1.64250	5.55
1.65917	5.55
1.67583	5.54
1.69250	5.52
1.70917	5.51
1.72583	5.50
1.74250	5.49
1.75917	5.48
1.77583	5.47
1.79250	5.46
1.80917	5.45
1.82583	5.44
1.84250	5.43
1.85917	5.42
1.87583	5.41
1.89250	5.40
1.90917	5.39
1.92583	5.38
1.94250	5.37
1.95917	5.36
1.97583	5.35
1.99250	5.34
2.00917	5.33
2.02583	5.32
2.04250	5.31
2.05917	5.30
2.07583	5.29
2.09250	5.28
2.10917	5.27
2.12583	5.26
2.14250	5.25
2.15917	5.24
2.17583	5.24
2.19250	5.23
2.20917	5.22
2.22583	5.21
2.24250	5.20
2.25917	5.19
2.27583	5.18
2.29250	5.17
2.30917	5.16
2.32583	5.15
2.34250	5.14
2.35917	5.13
2.37583	5.13
2.39250	5.13
2.40917	5.13
2.42583	5.13
2.44250	5.13
2.45917	5.13
2.47583	5.13
2.49250	5.13
2.50917	5.13
2.52583	5.12
2.54250	5.13
2.55917	5.13
2.57583	5.12
2.59250	5.12
2.60917	5.12
2.62583	5.12
2.64250	5.12
2.65917	5.12
2.67583	5.12
2.69250	5.12
2.70917	5.12
2.72583	5.12
2.74250	5.12
2.75917	5.12
2.77583	5.12
2.79250	5.12
2.80917	5.12
2.82583	5.12
2.84250	5.12
2.85917	5.12
2.87583	5.12
2.89250	5.12
2.90917	5.12
2.92583	5.12
2.94250	5.12
2.95917	5.12
2.97583	5.12
2.99250	5.12
3.00917	5.12
3.02583	5.12
3.04250	5.12
3.05917	5.12
3.07583	5.12
3.09250	5.12
3.10917	5.12
3.12583	5.12
3.14250	5.12
3.15917	5.12
3.17583	5.12
3.19250	5.12
3.20917	5.12
3.22583	5.12
3.24250	5.12
3.25917	5.12
3.27583	5.12
3.29250	5.12
3.30917	5.12
3.32583	5.12
3.34250	5.12
3.35917	5.12
3.37583	5.12
3.39250	5.12
3.40917	5.12
3.42583	5.12
3.44250	5.12
3.45917	5.12
3.47583	5.12
3.49250	5.12
3.50917	5.12
3.52583	5.12
3.54250	5.12
3.55917	5.12
3.57583	5.12
3.59250	5.12
3.60917	5.12
3.62583	5.12
3.64250	5.12
3.65917	5.12
3.67583	5.12
3.69250	5.12
3.70917	5.12
3.72583	5.12
3.74250	5.12
3.75917	5.12
3.77583	5.12
3.79250	5.12
3.80917	5.12
3.82583	5.12
3.84250	5.12
3.85917	5.12
3.87583	5.12
3.89250	5.12
3.90917	5.12
3.92583	5.12
3.94250	5.12
3.95917	5.12
3.97583	5.12

[Status Trace (Linear Velocity)]
Interval(msec)	1000
# of Points	239
Start Time(min)	0.009
End Time(min)	3.976
Intensity Units	
Intensity Multiplier	1
R.Time (min)	Intensity
0.00917	39.02
0.02583	37.24
0.04250	38.55
0.05917	39.96
0.07583	39.89
0.09250	39.05
0.10917	39.02
0.12583	39.03
0.14250	39.03
0.15917	39.03
0.17583	39.03
0.19250	39.02
0.20917	39.03
0.22583	39.03
0.24250	39.03
0.25917	39.03
0.27583	39.03
0.29250	39.03
0.30917	39.03
0.32583	39.03
0.34250	39.03
0.35917	39.03
0.37583	39.03
0.39250	39.03
0.40917	39.03
0.42583	39.03
0.44250	39.03
0.45917	39.03
0.47583	39.03
0.49250	39.03
0.50917	39.03
0.52583	39.03
0.54250	39.03
0.55917	39.03
0.57583	39.03
0.59250	39.03
0.60917	39.03
0.62583	39.03
0.64250	39.03
0.65917	39.03
0.67583	39.03
0.69250	39.03
0.70917	39.02
0.72583	39.02
0.74250	39.02
0.75917	39.02
0.77583	39.03
0.79250	39.03
0.80917	39.03
0.82583	39.03
0.84250	39.03
0.85917	39.03
0.87583	39.03
0.89250	39.03
0.90917	39.03
0.92583	39.03
0.94250	39.03
0.95917	39.03
0.97583	39.03
0.99250	39.03
1.00917	39.03
1.02583	39.03
1.04250	39.03
1.05917	39.03
1.07583	39.03
1.09250	39.03
1.10917	39.03
1.12583	39.03
1.14250	39.03
1.15917	39.03
1.17583	39.03
1.19250	39.03
1.20917	39.03
1.22583	39.03
1.24250	39.03
1.25917	39.02
1.27583	39.02
1.29250	39.03
1.30917	39.03
1.32583	39.03
1.34250	39.03
1.35917	39.03
1.37583	39.02
1.39250	39.02
1.40917	39.02
1.42583	39.02
1.44250	39.02
1.45917	39.03
1.47583	39.03
1.49250	39.03
1.50917	39.03
1.52583	39.03
1.54250	39.03
1.55917	39.03
1.57583	39.03
1.59250	39.03
1.60917	39.02
1.62583	39.01
1.64250	38.99
1.65917	38.97
1.67583	38.94
1.69250	38.90
1.70917	38.86
1.72583	38.83
1.74250	38.80
1.75917	38.77
1.77583	38.74
1.79250	38.70
1.80917	38.68
1.82583	38.65
1.84250	38.61
1.85917	38.58
1.87583	38.55
1.89250	38.52
1.90917	38.49
1.92583	38.46
1.94250	38.43
1.95917	38.40
1.97583	38.37
1.99250	38.34
2.00917	38.31
2.02583	38.28
2.04250	38.25
2.05917	38.22
2.07583	38.19
2.09250	38.16
2.10917	38.13
2.12583	38.10
2.14250	38.07
2.15917	38.04
2.17583	38.01
2.19250	37.98
2.20917	37.95
2.22583	37.93
2.24250	37.89
2.25917	37.86
2.27583	37.84
2.29250	37.80
2.30917	37.77
2.32583	37.75
2.34250	37.71
2.35917	37.69
2.37583	37.68
2.39250	37.67
2.40917	37.67
2.42583	37.67
2.44250	37.67
2.45917	37.67
2.47583	37.67
2.49250	37.67
2.50917	37.66
2.52583	37.65
2.54250	37.66
2.55917	37.66
2.57583	37.66
2.59250	37.66
2.60917	37.66
2.62583	37.66
2.64250	37.66
2.65917	37.66
2.67583	37.66
2.69250	37.66
2.70917	37.65
2.72583	37.65
2.74250	37.66
2.75917	37.66
2.77583	37.66
2.79250	37.66
2.80917	37.66
2.82583	37.65
2.84250	37.65
2.85917	37.65
2.87583	37.65
2.89250	37.65
2.90917	37.65
2.92583	37.65
2.94250	37.65
2.95917	37.65
2.97583	37.65
2.99250	37.65
3.00917	37.64
3.02583	37.64
3.04250	37.64
3.05917	37.64
3.07583	37.64
3.09250	37.64
3.10917	37.64
3.12583	37.64
3.14250	37.64
3.15917	37.64
3.17583	37.64
3.19250	37.64
3.20917	37.64
3.22583	37.64
3.24250	37.63
3.25917	37.63
3.27583	37.63
3.29250	37.63
3.30917	37.63
3.32583	37.63
3.34250	37.64
3.35917	37.64
3.37583	37.64
3.39250	37.64
3.40917	37.64
3.42583	37.64
3.44250	37.64
3.45917	37.64
3.47583	37.64
3.49250	37.64
3.50917	37.64
3.52583	37.64
3.54250	37.64
3.55917	37.64
3.57583	37.64
3.59250	37.64
3.60917	37.64
3.62583	37.64
3.64250	37.64
3.65917	37.64
3.67583	37.64
3.69250	37.64
3.70917	37.64
3.72583	37.64
3.74250	37.64
3.75917	37.64
3.77583	37.64
3.79250	37.64
3.80917	37.64
3.82583	37.64
3.84250	37.64
3.85917	37.64
3.87583	37.64
3.89250	37.64
3.90917	37.64
3.92583	37.64
3.94250	37.64
3.95917	37.64
3.97583	37.64

