[Header]
Application Name	LabSolutions
Version	5.110
Data File Name	C:\Users\User\Desktop\GC Analyses\Jack\Nachusa Grasslands Sampling\T1 Timepoint July 12th\T1_07122022_013.gcd
Output Date	3/14/2023
Output Time	3:40:57 PM

[File Information]
Type	Data File
Generated	3/8/2023 2:36:50 PM
Generated by	System Administrator
Modified	3/8/2023 2:43:17 PM
Modified by	System Administrator

[Sample Information]
Operator Name	System Administrator
Acquired	3/8/2023 2:39:16 PM
Sample Type	0:Unknown
Level	0
Sample Name	013
Sample ID	013
ISTD Amount1	1
ISTD Amount2	1
ISTD Amount3	1
ISTD Amount4	1
ISTD Amount5	1
ISTD Amount6	1
ISTD Amount7	1
ISTD Amount8	1
ISTD Amount9	1
ISTD Amount10	1
ISTD Amount11	1
ISTD Amount12	1
ISTD Amount13	1
ISTD Amount14	1
ISTD Amount15	1
ISTD Amount16	1
ISTD Amount17	1
ISTD Amount18	1
ISTD Amount19	1
ISTD Amount20	1
ISTD Amount21	1
ISTD Amount22	1
ISTD Amount23	1
ISTD Amount24	1
ISTD Amount25	1
ISTD Amount26	1
ISTD Amount27	1
ISTD Amount28	1
ISTD Amount29	1
ISTD Amount30	1
ISTD Amount31	1
ISTD Amount32	1
Sample Amount	1
Dilution Factor	1
Vial#	12
Injection Volume	1
Injection Count	1
Bar Code	

[Original Files]
Data File	C:\Users\User\Desktop\GC Analyses\Jack\Nachusa Grasslands Sampling\T1 Timepoint July 12th\T1_07122022_013.gcd
Method File	C:\LabSolutions\Data\GHG_4min_2022\ghg3_togas_w_acet_4 min_new_int.gcm
Batch File	C:\LabSolutions\Data\AutoSamplerTesting\T1_07122022.gcb
Report Format File	c:\LabSolutions\System\DEFAULT.lsr

[File Description]


[Configuration]
Instrument Name	C0B7VH3-Instrument1
Instrument #	1
Line #	1
# of Detectors	3
Detector ID	DET#1	DET#2	DET#3
Detector Name	FID	PTCD	ECD
# of Channels	1	1	1

[Peak Table(Ch1)]
# of Peaks	3
Peak#	R.Time	I.Time	F.Time	Area	Height	A/H	Conc.	Mark	ID#	Name	k'	Plate #	Plate Ht.	Tailing	Resolution	Sep.Factor	Area Ratio	Height Ratio	Conc. %	Norm Conc.
1	1.476	1.439	1.538	24338	11356	2.143	171.825	   	1	CO	0.000	8982	16.701	1.354	0.000	0.000	0	0	26.053	26.053
2	1.567	1.538	1.630	4819	2287	2.107	93.183	 V 	2	CH4	0.062	10364	14.474	0.000	1.480	0.000	0	0	14.129	14.129
3	1.996	1.952	2.451	1571930	740321	2.123	394.512	   	3	CO2	0.353	17326	8.658	1.342	7.018	5.680	0	0	59.818	59.818

[Peak Table(Ch2)]
# of Peaks	0

[Peak Table(Ch3)]
# of Peaks	5
Peak#	R.Time	I.Time	F.Time	Area	Height	A/H	Conc.	Mark	ID#	Name	k'	Plate #	Plate Ht.	Tailing	Resolution	Sep.Factor	Area Ratio	Height Ratio	Conc. %	Norm Conc.
1	2.458	2.257	2.517	1524	342	4.452	0.000	   			0.000	9082	16.516	0.000	0.000	0.000	0	0	0.000	0.000
2	2.546	2.517	2.631	817	180	4.542	0.000	 V 			0.036	4907	30.568	0.000	0.708	0.000	0	0	0.000	0.000
3	2.682	2.653	2.741	159	54	2.955	0.000	   			0.091	14845	10.104	1.497	1.162	2.542	0	0	0.000	0.000
4	2.873	2.803	3.067	18364	4903	3.746	0.469	   	1	N2O	0.169	13572	11.052	1.653	2.043	1.852	0	0	100.000	100.000
5	3.555	3.459	3.965	6000	370	16.239	0.000	   			0.446	1051	142.750	2.698	2.539	2.646	0	0	0.000	0.000

[Compound Results(Ch1)]
# of IDs	6
ID#	Name	R.Time	Area	Height	Conc.	Curve	3rd	2nd	1st	Constant	Area Ratio	Height Ratio	Conc. %	Norm Conc.
1	CO	1.476	24338	11356	171.825	Linear	0.000000e+00	0.000000e+00	1.416423e+002	0.000000e+00	0	0	26.053	26.053
2	CH4	1.567	4819	2287	93.183	Linear	0.000000e+00	0.000000e+00	5.171738e+001	0.000000e+00	0	0	14.129	14.129
3	CO2	1.996	1571930	740321	394.512	Linear	0.000000e+00	0.000000e+00	3.984494e+003	0.000000e+00	0	0	59.818	59.818
4	Ethylene	0.000	0	0	0.000	Linear	0.000000e+00	0.000000e+00	0.000000e+00	0.000000e+00	0	0	0.000	0.000
5	Acetylene	0.000	0	0	0.000	Linear	0.000000e+00	0.000000e+00	0.000000e+00	0.000000e+00	0	0	0.000	0.000
6	Ethane	0.000	0	0	0.000	Linear	0.000000e+00	0.000000e+00	0.000000e+00	0.000000e+00	0	0	0.000	0.000

[Compound Results(Ch2)]
# of IDs	5
ID#	Name	R.Time	Area	Height	Conc.	Curve	3rd	2nd	1st	Constant	Area Ratio	Height Ratio	Conc. %	Norm Conc.
1	Hydrogen	0.000	0	0	0.000	Linear	0.000000e+00	0.000000e+00	0.000000e+00	0.000000e+00	0	0	0.000	0.000
2	Oxygen	0.000	0	0	0.000	Linear	0.000000e+00	0.000000e+00	0.000000e+00	0.000000e+00	0	0	0.000	0.000
3	Nitrogen	0.000	0	0	0.000	Linear	0.000000e+00	0.000000e+00	0.000000e+00	0.000000e+00	0	0	0.000	0.000
4	Methane	0.000	0	0	0.000	Linear	0.000000e+00	0.000000e+00	0.000000e+00	0.000000e+00	0	0	0.000	0.000
5	Carbon Monoxide	0.000	0	0	0.000	Linear	0.000000e+00	0.000000e+00	0.000000e+00	0.000000e+00	0	0	0.000	0.000

[Compound Results(Ch3)]
# of IDs	2
ID#	Name	R.Time	Area	Height	Conc.	Curve	3rd	2nd	1st	Constant	Area Ratio	Height Ratio	Conc. %	Norm Conc.
1	N2O	2.873	18364	4903	0.469	Linear	0.000000e+00	0.000000e+00	3.915173e+004	0.000000e+00	0	0	100.000	100.000
2	SF6	0.000	0	0	0.000	Linear	0.000000e+00	0.000000e+00	0.000000e+00	0.000000e+00	0	0	0.000	0.000

[Group Results(Ch1)]
# of Groups	0

[Group Results(Ch2)]
# of Groups	0

[Group Results(Ch3)]
# of Groups	0

[Chromatogram (Ch1)]
Interval(msec)	220
# of Points	1091
Start Time(min)	0.002
End Time(min)	3.998
R.Time (min)	Intensity
0.00167	-35
0.00533	-34
0.00900	-28
0.01267	-18
0.01633	-13
0.02000	-18
0.02367	-25
0.02733	-28
0.03100	-22
0.03467	-12
0.03833	-4
0.04200	0
0.04567	-0
0.04933	-1
0.05300	-2
0.05667	-8
0.06033	-11
0.06400	-10
0.06767	-8
0.07133	-10
0.07500	-13
0.07867	-18
0.08233	-22
0.08600	-18
0.08967	-12
0.09333	-7
0.09700	-4
0.10067	-6
0.10433	-15
0.10800	-23
0.11167	-30
0.11533	-36
0.11900	-36
0.12267	-29
0.12633	-19
0.13000	-13
0.13367	-8
0.13733	-4
0.14100	-3
0.14467	-4
0.14833	-7
0.15200	-10
0.15567	-14
0.15933	-16
0.16300	-15
0.16667	-13
0.17033	-12
0.17400	-13
0.17767	-15
0.18133	-19
0.18500	-22
0.18867	-24
0.19233	-26
0.19600	-31
0.19967	-31
0.20333	-27
0.20700	-25
0.21067	-26
0.21433	-26
0.21800	-18
0.22167	-8
0.22533	-2
0.22900	0
0.23267	-5
0.23633	-12
0.24000	-15
0.24367	-15
0.24733	-12
0.25100	-12
0.25467	-14
0.25833	-15
0.26200	-14
0.26567	-16
0.26933	-22
0.27300	-29
0.27667	-35
0.28033	-34
0.28400	-33
0.28767	-31
0.29133	-29
0.29500	-25
0.29867	-22
0.30233	-22
0.30600	-24
0.30967	-27
0.31333	-30
0.31700	-31
0.32067	-30
0.32433	-29
0.32800	-28
0.33167	-24
0.33533	-19
0.33900	-19
0.34267	-18
0.34633	-15
0.35000	-10
0.35367	-7
0.35733	-11
0.36100	-17
0.36467	-19
0.36833	-17
0.37200	-12
0.37567	-8
0.37933	-6
0.38300	-5
0.38667	-5
0.39033	-6
0.39400	-6
0.39767	-7
0.40133	-11
0.40500	-19
0.40867	-23
0.41233	-23
0.41600	-29
0.41967	-32
0.42333	-34
0.42700	-29
0.43067	-21
0.43433	-14
0.43800	-14
0.44167	-16
0.44533	-17
0.44900	-16
0.45267	-15
0.45633	-14
0.46000	-10
0.46367	-3
0.46733	8
0.47100	16
0.47467	19
0.47833	19
0.48200	14
0.48567	8
0.48933	1
0.49300	-6
0.49667	-11
0.50033	-15
0.50400	-19
0.50767	-19
0.51133	-14
0.51500	-10
0.51867	-4
0.52233	7
0.52600	20
0.52967	31
0.53333	36
0.53700	28
0.54067	10
0.54433	-9
0.54800	-26
0.55167	-39
0.55533	-44
0.55900	-44
0.56267	-43
0.56633	-41
0.57000	-34
0.57367	-25
0.57733	-23
0.58100	-26
0.58467	-26
0.58833	-27
0.59200	-28
0.59567	-27
0.59933	-28
0.60300	-25
0.60667	-9
0.61033	8
0.61400	13
0.61767	4
0.62133	-13
0.62500	-30
0.62867	-45
0.63233	-55
0.63600	-54
0.63967	-46
0.64333	-36
0.64700	-32
0.65067	-38
0.65433	-44
0.65800	-48
0.66167	-49
0.66533	-51
0.66900	-52
0.67267	-51
0.67633	-52
0.68000	-55
0.68367	-60
0.68733	-65
0.69100	-70
0.69467	-72
0.69833	-75
0.70200	-78
0.70567	-80
0.70933	-78
0.71300	-72
0.71667	-61
0.72033	-50
0.72400	-40
0.72767	-34
0.73133	-28
0.73500	-23
0.73867	-25
0.74233	-26
0.74600	-29
0.74967	-29
0.75333	-26
0.75700	-23
0.76067	-22
0.76433	-26
0.76800	-29
0.77167	-32
0.77533	-34
0.77900	-32
0.78267	-25
0.78633	-19
0.79000	-13
0.79367	-6
0.79733	1
0.80100	5
0.80467	1
0.80833	-8
0.81200	-17
0.81567	-24
0.81933	-26
0.82300	-25
0.82667	-22
0.83033	-22
0.83400	-26
0.83767	-31
0.84133	-33
0.84500	-36
0.84867	-41
0.85233	-45
0.85600	-47
0.85967	-49
0.86333	-49
0.86700	-44
0.87067	-37
0.87433	-29
0.87800	-23
0.88167	-19
0.88533	-12
0.88900	-1
0.89267	5
0.89633	4
0.90000	-4
0.90367	-14
0.90733	-21
0.91100	-25
0.91467	-28
0.91833	-29
0.92200	-31
0.92567	-31
0.92933	-30
0.93300	-29
0.93667	-26
0.94033	-26
0.94400	-30
0.94767	-33
0.95133	-31
0.95500	-28
0.95867	-23
0.96233	-20
0.96600	-19
0.96967	-24
0.97333	-33
0.97700	-39
0.98067	-39
0.98433	-38
0.98800	-37
0.99167	-35
0.99533	-32
0.99900	-28
1.00267	-22
1.00633	-15
1.01000	-11
1.01367	-10
1.01733	-12
1.02100	-22
1.02467	-32
1.02833	-40
1.03200	-44
1.03567	-43
1.03933	-44
1.04300	-44
1.04667	-42
1.05033	-39
1.05400	-34
1.05767	-29
1.06133	-26
1.06500	-23
1.06867	-23
1.07233	-24
1.07600	-23
1.07967	-21
1.08333	-22
1.08700	-24
1.09067	-27
1.09433	-37
1.09800	-52
1.10167	-62
1.10533	-63
1.10900	-59
1.11267	-55
1.11633	-54
1.12000	-56
1.12367	-59
1.12733	-56
1.13100	-52
1.13467	-49
1.13833	-45
1.14200	-40
1.14567	-31
1.14933	-22
1.15300	-15
1.15667	-11
1.16033	-12
1.16400	-13
1.16767	-15
1.17133	-20
1.17500	-26
1.17867	-27
1.18233	-27
1.18600	-32
1.18967	-40
1.19333	-49
1.19700	-51
1.20067	-45
1.20433	-38
1.20800	-36
1.21167	-38
1.21533	-41
1.21900	-40
1.22267	-39
1.22633	-37
1.23000	-34
1.23367	-35
1.23733	-34
1.24100	-33
1.24467	-33
1.24833	-32
1.25200	-34
1.25567	-35
1.25933	-38
1.26300	-41
1.26667	-41
1.27033	-39
1.27400	-37
1.27767	-35
1.28133	-35
1.28500	-38
1.28867	-39
1.29233	-37
1.29600	-33
1.29967	-32
1.30333	-33
1.30700	-32
1.31067	-32
1.31433	-31
1.31800	-28
1.32167	-27
1.32533	-28
1.32900	-30
1.33267	-32
1.33633	-35
1.34000	-36
1.34367	-32
1.34733	-23
1.35100	-18
1.35467	-17
1.35833	-19
1.36200	-24
1.36567	-31
1.36933	-33
1.37300	-31
1.37667	-27
1.38033	-24
1.38400	-23
1.38767	-23
1.39133	-25
1.39500	-28
1.39867	-34
1.40233	-36
1.40600	-32
1.40967	-26
1.41333	-25
1.41700	-29
1.42067	-36
1.42433	-42
1.42800	-46
1.43167	-50
1.43533	-53
1.43900	-43
1.44267	25
1.44633	224
1.45000	691
1.45367	1741
1.45733	3507
1.46100	5674
1.46467	7773
1.46833	9499
1.47200	10716
1.47567	11320
1.47933	11214
1.48300	10382
1.48667	8976
1.49033	7288
1.49400	5625
1.49767	4187
1.50133	3048
1.50500	2193
1.50867	1574
1.51233	1135
1.51600	828
1.51967	620
1.52333	479
1.52700	379
1.53067	303
1.53433	245
1.53800	216
1.54167	247
1.54533	399
1.54900	704
1.55267	1112
1.55633	1530
1.56000	1883
1.56367	2135
1.56733	2271
1.57100	2267
1.57467	2104
1.57833	1804
1.58200	1435
1.58567	1071
1.58933	762
1.59300	529
1.59667	371
1.60033	264
1.60400	191
1.60767	139
1.61133	99
1.61500	69
1.61867	46
1.62233	27
1.62600	11
1.62967	-4
1.63333	-6
1.63700	3
1.64067	16
1.64433	22
1.64800	22
1.65167	18
1.65533	8
1.65900	-2
1.66267	-9
1.66633	-9
1.67000	-8
1.67367	-6
1.67733	-7
1.68100	-3
1.68467	5
1.68833	9
1.69200	8
1.69567	8
1.69933	13
1.70300	17
1.70667	14
1.71033	8
1.71400	-1
1.71767	-9
1.72133	-16
1.72500	-22
1.72867	-26
1.73233	-28
1.73600	-29
1.73967	-32
1.74333	-31
1.74700	-27
1.75067	-19
1.75433	-13
1.75800	-14
1.76167	-19
1.76533	-21
1.76900	-19
1.77267	-18
1.77633	-18
1.78000	-20
1.78367	-20
1.78733	-14
1.79100	-6
1.79467	-5
1.79833	-9
1.80200	-16
1.80567	-20
1.80933	-23
1.81300	-22
1.81667	-16
1.82033	-8
1.82400	-10
1.82767	-19
1.83133	-28
1.83500	-37
1.83867	-46
1.84233	-47
1.84600	-43
1.84967	-38
1.85333	-31
1.85700	-24
1.86067	-21
1.86433	-19
1.86800	-15
1.87167	-16
1.87533	-16
1.87900	-12
1.88267	-6
1.88633	1
1.89000	3
1.89367	1
1.89733	-6
1.90100	-16
1.90467	-24
1.90833	-26
1.91200	-27
1.91567	-26
1.91933	-22
1.92300	-22
1.92667	-24
1.93033	-25
1.93400	-28
1.93767	-27
1.94133	-19
1.94500	-9
1.94867	-4
1.95233	7
1.95600	98
1.95967	648
1.96333	3254
1.96700	12689
1.97067	38825
1.97433	95046
1.97800	189818
1.98167	317703
1.98533	459080
1.98900	589439
1.99267	687893
1.99633	740363
2.00000	740129
2.00367	689828
2.00733	601448
2.01100	493043
2.01467	383029
2.01833	284910
2.02200	205261
2.02567	144872
2.02933	101250
2.03300	70763
2.03667	49899
2.04033	35785
2.04400	26270
2.04767	19827
2.05133	15418
2.05500	12354
2.05867	10181
2.06233	8606
2.06600	7431
2.06967	6530
2.07333	5826
2.07700	5261
2.08067	4800
2.08433	4417
2.08800	4095
2.09167	3816
2.09533	3563
2.09900	3340
2.10267	3144
2.10633	2972
2.11000	2819
2.11367	2683
2.11733	2555
2.12100	2433
2.12467	2321
2.12833	2221
2.13200	2132
2.13567	2049
2.13933	1971
2.14300	1896
2.14667	1826
2.15033	1759
2.15400	1694
2.15767	1631
2.16133	1577
2.16500	1528
2.16867	1483
2.17233	1444
2.17600	1405
2.17967	1364
2.18333	1323
2.18700	1283
2.19067	1240
2.19433	1200
2.19800	1163
2.20167	1132
2.20533	1104
2.20900	1081
2.21267	1060
2.21633	1035
2.22000	1009
2.22367	986
2.22733	964
2.23100	940
2.23467	919
2.23833	899
2.24200	878
2.24567	860
2.24933	848
2.25300	840
2.25667	829
2.26033	811
2.26400	793
2.26767	777
2.27133	762
2.27500	748
2.27867	731
2.28233	714
2.28600	698
2.28967	680
2.29333	666
2.29700	655
2.30067	648
2.30433	638
2.30800	625
2.31167	616
2.31533	612
2.31900	609
2.32267	601
2.32633	590
2.33000	579
2.33367	566
2.33733	550
2.34100	534
2.34467	522
2.34833	517
2.35200	517
2.35567	516
2.35933	516
2.36300	514
2.36667	510
2.37033	505
2.37400	501
2.37767	498
2.38133	493
2.38500	490
2.38867	489
2.39233	487
2.39600	482
2.39967	476
2.40333	466
2.40700	455
2.41067	449
2.41433	447
2.41800	449
2.42167	453
2.42533	458
2.42900	457
2.43267	448
2.43633	435
2.44000	421
2.44367	408
2.44733	399
2.45100	395
2.45467	398
2.45833	405
2.46200	405
2.46567	398
2.46933	392
2.47300	388
2.47667	388
2.48033	392
2.48400	398
2.48767	401
2.49133	402
2.49500	401
2.49867	396
2.50233	386
2.50600	379
2.50967	375
2.51333	373
2.51700	372
2.52067	370
2.52433	370
2.52800	372
2.53167	377
2.53533	384
2.53900	388
2.54267	389
2.54633	389
2.55000	388
2.55367	386
2.55733	378
2.56100	367
2.56467	358
2.56833	351
2.57200	347
2.57567	348
2.57933	355
2.58300	363
2.58667	365
2.59033	358
2.59400	348
2.59767	341
2.60133	337
2.60500	336
2.60867	337
2.61233	340
2.61600	345
2.61967	350
2.62333	351
2.62700	350
2.63067	348
2.63433	347
2.63800	349
2.64167	352
2.64533	353
2.64900	356
2.65267	364
2.65633	376
2.66000	385
2.66367	383
2.66733	368
2.67100	352
2.67467	335
2.67833	316
2.68200	301
2.68567	293
2.68933	296
2.69300	312
2.69667	330
2.70033	343
2.70400	348
2.70767	349
2.71133	347
2.71500	343
2.71867	342
2.72233	342
2.72600	345
2.72967	350
2.73333	357
2.73700	364
2.74067	373
2.74433	379
2.74800	376
2.75167	364
2.75533	344
2.75900	326
2.76267	315
2.76633	310
2.77000	309
2.77367	312
2.77733	317
2.78100	319
2.78467	314
2.78833	309
2.79200	308
2.79567	315
2.79933	328
2.80300	338
2.80667	344
2.81033	346
2.81400	345
2.81767	344
2.82133	346
2.82500	353
2.82867	359
2.83233	362
2.83600	365
2.83967	368
2.84333	367
2.84700	362
2.85067	362
2.85433	371
2.85800	380
2.86167	381
2.86533	368
2.86900	350
2.87267	337
2.87633	328
2.88000	323
2.88367	319
2.88733	321
2.89100	327
2.89467	332
2.89833	338
2.90200	345
2.90567	352
2.90933	357
2.91300	361
2.91667	365
2.92033	364
2.92400	361
2.92767	361
2.93133	362
2.93500	366
2.93867	372
2.94233	381
2.94600	391
2.94967	398
2.95333	405
2.95700	411
2.96067	412
2.96433	408
2.96800	405
2.97167	406
2.97533	406
2.97900	405
2.98267	407
2.98633	411
2.99000	414
2.99367	415
2.99733	413
3.00100	409
3.00467	401
3.00833	396
3.01200	392
3.01567	390
3.01933	395
3.02300	406
3.02667	418
3.03033	427
3.03400	433
3.03767	430
3.04133	421
3.04500	414
3.04867	408
3.05233	402
3.05600	402
3.05967	408
3.06333	415
3.06700	419
3.07067	420
3.07433	420
3.07800	421
3.08167	422
3.08533	422
3.08900	421
3.09267	416
3.09633	414
3.10000	412
3.10367	410
3.10733	412
3.11100	420
3.11467	429
3.11833	439
3.12200	446
3.12567	445
3.12933	436
3.13300	424
3.13667	414
3.14033	402
3.14400	391
3.14767	385
3.15133	384
3.15500	388
3.15867	393
3.16233	394
3.16600	397
3.16967	403
3.17333	411
3.17700	415
3.18067	413
3.18433	411
3.18800	410
3.19167	411
3.19533	411
3.19900	415
3.20267	422
3.20633	426
3.21000	425
3.21367	424
3.21733	419
3.22100	414
3.22467	410
3.22833	409
3.23200	408
3.23567	404
3.23933	400
3.24300	402
3.24667	406
3.25033	411
3.25400	418
3.25767	422
3.26133	424
3.26500	424
3.26867	424
3.27233	421
3.27600	412
3.27967	403
3.28333	401
3.28700	398
3.29067	392
3.29433	390
3.29800	393
3.30167	401
3.30533	409
3.30900	413
3.31267	414
3.31633	415
3.32000	416
3.32367	416
3.32733	414
3.33100	415
3.33467	419
3.33833	420
3.34200	419
3.34567	416
3.34933	413
3.35300	406
3.35667	396
3.36033	387
3.36400	383
3.36767	383
3.37133	385
3.37500	389
3.37867	395
3.38233	401
3.38600	404
3.38967	404
3.39333	402
3.39700	401
3.40067	405
3.40433	408
3.40800	406
3.41167	400
3.41533	393
3.41900	390
3.42267	390
3.42633	391
3.43000	391
3.43367	390
3.43733	388
3.44100	385
3.44467	379
3.44833	371
3.45200	365
3.45567	363
3.45933	360
3.46300	355
3.46667	349
3.47033	347
3.47400	349
3.47767	354
3.48133	358
3.48500	361
3.48867	362
3.49233	366
3.49600	376
3.49967	388
3.50333	400
3.50700	405
3.51067	401
3.51433	394
3.51800	388
3.52167	381
3.52533	377
3.52900	375
3.53267	375
3.53633	375
3.54000	374
3.54367	374
3.54733	375
3.55100	375
3.55467	375
3.55833	374
3.56200	371
3.56567	368
3.56933	369
3.57300	370
3.57667	374
3.58033	377
3.58400	379
3.58767	379
3.59133	380
3.59500	387
3.59867	395
3.60233	395
3.60600	387
3.60967	376
3.61333	367
3.61700	362
3.62067	359
3.62433	355
3.62800	356
3.63167	365
3.63533	367
3.63900	362
3.64267	358
3.64633	360
3.65000	365
3.65367	373
3.65733	377
3.66100	374
3.66467	367
3.66833	362
3.67200	360
3.67567	359
3.67933	354
3.68300	348
3.68667	341
3.69033	335
3.69400	330
3.69767	326
3.70133	322
3.70500	323
3.70867	328
3.71233	330
3.71600	330
3.71967	330
3.72333	329
3.72700	329
3.73067	328
3.73433	327
3.73800	331
3.74167	339
3.74533	347
3.74900	354
3.75267	359
3.75633	360
3.76000	357
3.76367	353
3.76733	348
3.77100	342
3.77467	336
3.77833	331
3.78200	328
3.78567	328
3.78933	329
3.79300	333
3.79667	337
3.80033	334
3.80400	330
3.80767	328
3.81133	325
3.81500	325
3.81867	330
3.82233	339
3.82600	345
3.82967	345
3.83333	340
3.83700	332
3.84067	329
3.84433	330
3.84800	328
3.85167	325
3.85533	328
3.85900	332
3.86267	336
3.86633	337
3.87000	333
3.87367	327
3.87733	317
3.88100	307
3.88467	300
3.88833	296
3.89200	292
3.89567	290
3.89933	290
3.90300	289
3.90667	288
3.91033	292
3.91400	299
3.91767	306
3.92133	310
3.92500	310
3.92867	309
3.93233	313
3.93600	317
3.93967	317
3.94333	318
3.94700	317
3.95067	315
3.95433	318
3.95800	325
3.96167	334
3.96533	338
3.96900	334
3.97267	324
3.97633	313
3.98000	306
3.98367	302
3.98733	302
3.99100	302
3.99467	305
3.99833	310

[Chromatogram (Ch2)]
Interval(msec)	220
# of Points	1091
Start Time(min)	0.002
End Time(min)	3.998
R.Time (min)	Intensity
0.00167	0
0.00533	0
0.00900	0
0.01267	0
0.01633	0
0.02000	0
0.02367	0
0.02733	1
0.03100	1
0.03467	1
0.03833	1
0.04200	1
0.04567	1
0.04933	1
0.05300	1
0.05667	1
0.06033	1
0.06400	0
0.06767	0
0.07133	0
0.07500	0
0.07867	0
0.08233	0
0.08600	-0
0.08967	-1
0.09333	-1
0.09700	-2
0.10067	-2
0.10433	-2
0.10800	-2
0.11167	-2
0.11533	-1
0.11900	-2
0.12267	-2
0.12633	-2
0.13000	-2
0.13367	-2
0.13733	-2
0.14100	-2
0.14467	-2
0.14833	-3
0.15200	-3
0.15567	-4
0.15933	-4
0.16300	-4
0.16667	-4
0.17033	-5
0.17400	-5
0.17767	-4
0.18133	-4
0.18500	-5
0.18867	-4
0.19233	-4
0.19600	-4
0.19967	-4
0.20333	-4
0.20700	-4
0.21067	-4
0.21433	-5
0.21800	-4
0.22167	-4
0.22533	-4
0.22900	-4
0.23267	-4
0.23633	-4
0.24000	-5
0.24367	-5
0.24733	-5
0.25100	-5
0.25467	-5
0.25833	-4
0.26200	-4
0.26567	-4
0.26933	-3
0.27300	-3
0.27667	-3
0.28033	-3
0.28400	-2
0.28767	-2
0.29133	-2
0.29500	-2
0.29867	-1
0.30233	-1
0.30600	-1
0.30967	-1
0.31333	-2
0.31700	-2
0.32067	-2
0.32433	-2
0.32800	-3
0.33167	-3
0.33533	-3
0.33900	-2
0.34267	-2
0.34633	-3
0.35000	-3
0.35367	-3
0.35733	-3
0.36100	-3
0.36467	-3
0.36833	-3
0.37200	-3
0.37567	-3
0.37933	-3
0.38300	-3
0.38667	-3
0.39033	-3
0.39400	-3
0.39767	-3
0.40133	-3
0.40500	-4
0.40867	-4
0.41233	-4
0.41600	-4
0.41967	-4
0.42333	-4
0.42700	-4
0.43067	-4
0.43433	-4
0.43800	-4
0.44167	-4
0.44533	-5
0.44900	-5
0.45267	-5
0.45633	-6
0.46000	-6
0.46367	-6
0.46733	-6
0.47100	-5
0.47467	-5
0.47833	-5
0.48200	-5
0.48567	-5
0.48933	-5
0.49300	-5
0.49667	-5
0.50033	-4
0.50400	-4
0.50767	-4
0.51133	-3
0.51500	-3
0.51867	-2
0.52233	-2
0.52600	-2
0.52967	-1
0.53333	-1
0.53700	-2
0.54067	-2
0.54433	-2
0.54800	-2
0.55167	-2
0.55533	-2
0.55900	-3
0.56267	-3
0.56633	-3
0.57000	-4
0.57367	-4
0.57733	-4
0.58100	-4
0.58467	-5
0.58833	-5
0.59200	-5
0.59567	-5
0.59933	-5
0.60300	-5
0.60667	-5
0.61033	-5
0.61400	-5
0.61767	-4
0.62133	-4
0.62500	-4
0.62867	-3
0.63233	-3
0.63600	-3
0.63967	-3
0.64333	-2
0.64700	-2
0.65067	-2
0.65433	-2
0.65800	-2
0.66167	-1
0.66533	-1
0.66900	-1
0.67267	-1
0.67633	-2
0.68000	-2
0.68367	-2
0.68733	-1
0.69100	-1
0.69467	-1
0.69833	-1
0.70200	-1
0.70567	-1
0.70933	-1
0.71300	-1
0.71667	-1
0.72033	-1
0.72400	-1
0.72767	-1
0.73133	-1
0.73500	-1
0.73867	-1
0.74233	-1
0.74600	-1
0.74967	-1
0.75333	-1
0.75700	-1
0.76067	-1
0.76433	-1
0.76800	-1
0.77167	-1
0.77533	-1
0.77900	-2
0.78267	-2
0.78633	-2
0.79000	-2
0.79367	-2
0.79733	-2
0.80100	-2
0.80467	-2
0.80833	-2
0.81200	-2
0.81567	-3
0.81933	-3
0.82300	-3
0.82667	-3
0.83033	-4
0.83400	-4
0.83767	-5
0.84133	-5
0.84500	-6
0.84867	-6
0.85233	-6
0.85600	-6
0.85967	-6
0.86333	-6
0.86700	-6
0.87067	-5
0.87433	-5
0.87800	-5
0.88167	-5
0.88533	-5
0.88900	-5
0.89267	-5
0.89633	-4
0.90000	-4
0.90367	-4
0.90733	-3
0.91100	-3
0.91467	-3
0.91833	-3
0.92200	-4
0.92567	-4
0.92933	-4
0.93300	-5
0.93667	-5
0.94033	-5
0.94400	-5
0.94767	-5
0.95133	-5
0.95500	-5
0.95867	-5
0.96233	-5
0.96600	-4
0.96967	-4
0.97333	-4
0.97700	-4
0.98067	-3
0.98433	-3
0.98800	-3
0.99167	-3
0.99533	-2
0.99900	-3
1.00267	-3
1.00633	-3
1.01000	-3
1.01367	-3
1.01733	-3
1.02100	-3
1.02467	-3
1.02833	-3
1.03200	-3
1.03567	-3
1.03933	-3
1.04300	-4
1.04667	-4
1.05033	-4
1.05400	-5
1.05767	-5
1.06133	-6
1.06500	-6
1.06867	-6
1.07233	-6
1.07600	-6
1.07967	-6
1.08333	-6
1.08700	-7
1.09067	-7
1.09433	-7
1.09800	-7
1.10167	-7
1.10533	-6
1.10900	-6
1.11267	-6
1.11633	-5
1.12000	-5
1.12367	-5
1.12733	-5
1.13100	-6
1.13467	-6
1.13833	-6
1.14200	-6
1.14567	-6
1.14933	-6
1.15300	-7
1.15667	-7
1.16033	-7
1.16400	-7
1.16767	-7
1.17133	-7
1.17500	-7
1.17867	-6
1.18233	-6
1.18600	-6
1.18967	-6
1.19333	-5
1.19700	-5
1.20067	-5
1.20433	-5
1.20800	-5
1.21167	-5
1.21533	-4
1.21900	-4
1.22267	-3
1.22633	-3
1.23000	-2
1.23367	-2
1.23733	-2
1.24100	-2
1.24467	-2
1.24833	-3
1.25200	-3
1.25567	-3
1.25933	-3
1.26300	-3
1.26667	-4
1.27033	-4
1.27400	-4
1.27767	-4
1.28133	-4
1.28500	-4
1.28867	-5
1.29233	-5
1.29600	-5
1.29967	-5
1.30333	-4
1.30700	-5
1.31067	-5
1.31433	-5
1.31800	-5
1.32167	-6
1.32533	-6
1.32900	-7
1.33267	-7
1.33633	-8
1.34000	-8
1.34367	-9
1.34733	-9
1.35100	-10
1.35467	-10
1.35833	-10
1.36200	-10
1.36567	-9
1.36933	-9
1.37300	-9
1.37667	-9
1.38033	-9
1.38400	-9
1.38767	-9
1.39133	-9
1.39500	-8
1.39867	-8
1.40233	-8
1.40600	-7
1.40967	-7
1.41333	-6
1.41700	-6
1.42067	-6
1.42433	-5
1.42800	-5
1.43167	-5
1.43533	-5
1.43900	-5
1.44267	-5
1.44633	-5
1.45000	-4
1.45367	-5
1.45733	-5
1.46100	-5
1.46467	-6
1.46833	-6
1.47200	-7
1.47567	-7
1.47933	-7
1.48300	-7
1.48667	-7
1.49033	-7
1.49400	-7
1.49767	-7
1.50133	-6
1.50500	-6
1.50867	-6
1.51233	-6
1.51600	-5
1.51967	-5
1.52333	-4
1.52700	-4
1.53067	-3
1.53433	-3
1.53800	-3
1.54167	-3
1.54533	-3
1.54900	-2
1.55267	-2
1.55633	-2
1.56000	-2
1.56367	-2
1.56733	-2
1.57100	-2
1.57467	-2
1.57833	-2
1.58200	-2
1.58567	-2
1.58933	-2
1.59300	-2
1.59667	-3
1.60033	-4
1.60400	-5
1.60767	-7
1.61133	-8
1.61500	-10
1.61867	-13
1.62233	-16
1.62600	-19
1.62967	-22
1.63333	-25
1.63700	-29
1.64067	-33
1.64433	-36
1.64800	-40
1.65167	-44
1.65533	-48
1.65900	-53
1.66267	-58
1.66633	-63
1.67000	-69
1.67367	-75
1.67733	-80
1.68100	-85
1.68467	-90
1.68833	-94
1.69200	-98
1.69567	-101
1.69933	-104
1.70300	-106
1.70667	-108
1.71033	-109
1.71400	-110
1.71767	-111
1.72133	-111
1.72500	-111
1.72867	-111
1.73233	-111
1.73600	-111
1.73967	-111
1.74333	-112
1.74700	-112
1.75067	-113
1.75433	-114
1.75800	-115
1.76167	-116
1.76533	-117
1.76900	-118
1.77267	-119
1.77633	-119
1.78000	-119
1.78367	-119
1.78733	-118
1.79100	-118
1.79467	-117
1.79833	-117
1.80200	-118
1.80567	-118
1.80933	-119
1.81300	-119
1.81667	-120
1.82033	-120
1.82400	-120
1.82767	-120
1.83133	-119
1.83500	-119
1.83867	-119
1.84233	-119
1.84600	-119
1.84967	-119
1.85333	-119
1.85700	-119
1.86067	-119
1.86433	-120
1.86800	-120
1.87167	-119
1.87533	-119
1.87900	-119
1.88267	-119
1.88633	-119
1.89000	-119
1.89367	-119
1.89733	-119
1.90100	-119
1.90467	-119
1.90833	-119
1.91200	-119
1.91567	-119
1.91933	-119
1.92300	-119
1.92667	-118
1.93033	-118
1.93400	-117
1.93767	-116
1.94133	-116
1.94500	-116
1.94867	-115
1.95233	-115
1.95600	-115
1.95967	-115
1.96333	-115
1.96700	-115
1.97067	-115
1.97433	-114
1.97800	-113
1.98167	-113
1.98533	-112
1.98900	-112
1.99267	-111
1.99633	-111
2.00000	-111
2.00367	-111
2.00733	-111
2.01100	-111
2.01467	-111
2.01833	-111
2.02200	-111
2.02567	-111
2.02933	-111
2.03300	-110
2.03667	-110
2.04033	-110
2.04400	-110
2.04767	-109
2.05133	-109
2.05500	-109
2.05867	-109
2.06233	-108
2.06600	-108
2.06967	-107
2.07333	-107
2.07700	-106
2.08067	-105
2.08433	-104
2.08800	-104
2.09167	-104
2.09533	-104
2.09900	-104
2.10267	-104
2.10633	-104
2.11000	-104
2.11367	-104
2.11733	-103
2.12100	-103
2.12467	-101
2.12833	-100
2.13200	-99
2.13567	-98
2.13933	-98
2.14300	-98
2.14667	-98
2.15033	-98
2.15400	-97
2.15767	-98
2.16133	-98
2.16500	-98
2.16867	-98
2.17233	-99
2.17600	-99
2.17967	-99
2.18333	-99
2.18700	-99
2.19067	-99
2.19433	-99
2.19800	-99
2.20167	-99
2.20533	-99
2.20900	-98
2.21267	-97
2.21633	-96
2.22000	-95
2.22367	-94
2.22733	-93
2.23100	-93
2.23467	-93
2.23833	-93
2.24200	-93
2.24567	-93
2.24933	-92
2.25300	-92
2.25667	-92
2.26033	-91
2.26400	-91
2.26767	-91
2.27133	-91
2.27500	-91
2.27867	-92
2.28233	-92
2.28600	-92
2.28967	-92
2.29333	-93
2.29700	-92
2.30067	-92
2.30433	-91
2.30800	-90
2.31167	-89
2.31533	-89
2.31900	-88
2.32267	-87
2.32633	-87
2.33000	-86
2.33367	-86
2.33733	-85
2.34100	-85
2.34467	-83
2.34833	-82
2.35200	-81
2.35567	-80
2.35933	-79
2.36300	-78
2.36667	-77
2.37033	-75
2.37400	-73
2.37767	-71
2.38133	-67
2.38500	-64
2.38867	-60
2.39233	-55
2.39600	-51
2.39967	-47
2.40333	-43
2.40700	-38
2.41067	-34
2.41433	-31
2.41800	-28
2.42167	-25
2.42533	-24
2.42900	-22
2.43267	-20
2.43633	-18
2.44000	-16
2.44367	-14
2.44733	-13
2.45100	-11
2.45467	-10
2.45833	-9
2.46200	-8
2.46567	-7
2.46933	-6
2.47300	-5
2.47667	-4
2.48033	-3
2.48400	-1
2.48767	1
2.49133	2
2.49500	3
2.49867	4
2.50233	5
2.50600	5
2.50967	5
2.51333	6
2.51700	6
2.52067	7
2.52433	7
2.52800	7
2.53167	8
2.53533	8
2.53900	9
2.54267	10
2.54633	11
2.55000	11
2.55367	12
2.55733	13
2.56100	13
2.56467	13
2.56833	12
2.57200	12
2.57567	12
2.57933	12
2.58300	12
2.58667	12
2.59033	12
2.59400	13
2.59767	13
2.60133	13
2.60500	13
2.60867	14
2.61233	14
2.61600	14
2.61967	14
2.62333	15
2.62700	15
2.63067	16
2.63433	16
2.63800	16
2.64167	16
2.64533	16
2.64900	16
2.65267	16
2.65633	17
2.66000	17
2.66367	18
2.66733	19
2.67100	20
2.67467	20
2.67833	21
2.68200	21
2.68567	22
2.68933	22
2.69300	22
2.69667	22
2.70033	22
2.70400	21
2.70767	21
2.71133	20
2.71500	20
2.71867	20
2.72233	20
2.72600	20
2.72967	20
2.73333	20
2.73700	20
2.74067	20
2.74433	20
2.74800	21
2.75167	22
2.75533	22
2.75900	23
2.76267	23
2.76633	23
2.77000	24
2.77367	24
2.77733	24
2.78100	24
2.78467	24
2.78833	24
2.79200	23
2.79567	23
2.79933	23
2.80300	23
2.80667	23
2.81033	23
2.81400	22
2.81767	22
2.82133	23
2.82500	23
2.82867	23
2.83233	23
2.83600	23
2.83967	22
2.84333	19
2.84700	15
2.85067	8
2.85433	-3
2.85800	-17
2.86167	-34
2.86533	-57
2.86900	-83
2.87267	-114
2.87633	-148
2.88000	-187
2.88367	-229
2.88733	-274
2.89100	-322
2.89467	-372
2.89833	-424
2.90200	-477
2.90567	-531
2.90933	-585
2.91300	-639
2.91667	-694
2.92033	-747
2.92400	-799
2.92767	-850
2.93133	-904
2.93500	-962
2.93867	-1022
2.94233	-1074
2.94600	-1107
2.94967	-1116
2.95333	-1098
2.95700	-1056
2.96067	-997
2.96433	-925
2.96800	-846
2.97167	-765
2.97533	-684
2.97900	-607
2.98267	-534
2.98633	-468
2.99000	-407
2.99367	-352
2.99733	-304
3.00100	-261
3.00467	-223
3.00833	-191
3.01200	-162
3.01567	-138
3.01933	-117
3.02300	-98
3.02667	-83
3.03033	-69
3.03400	-58
3.03767	-48
3.04133	-39
3.04500	-32
3.04867	-26
3.05233	-20
3.05600	-16
3.05967	-12
3.06333	-8
3.06700	-5
3.07067	-2
3.07433	-0
3.07800	2
3.08167	4
3.08533	5
3.08900	6
3.09267	8
3.09633	8
3.10000	9
3.10367	10
3.10733	10
3.11100	11
3.11467	11
3.11833	11
3.12200	12
3.12567	12
3.12933	13
3.13300	13
3.13667	13
3.14033	14
3.14400	14
3.14767	14
3.15133	15
3.15500	15
3.15867	16
3.16233	16
3.16600	16
3.16967	16
3.17333	17
3.17700	17
3.18067	18
3.18433	18
3.18800	19
3.19167	19
3.19533	20
3.19900	20
3.20267	21
3.20633	21
3.21000	21
3.21367	21
3.21733	22
3.22100	22
3.22467	22
3.22833	22
3.23200	22
3.23567	22
3.23933	22
3.24300	23
3.24667	23
3.25033	23
3.25400	23
3.25767	23
3.26133	24
3.26500	24
3.26867	25
3.27233	25
3.27600	25
3.27967	26
3.28333	26
3.28700	26
3.29067	25
3.29433	25
3.29800	25
3.30167	26
3.30533	26
3.30900	26
3.31267	27
3.31633	27
3.32000	27
3.32367	27
3.32733	27
3.33100	27
3.33467	27
3.33833	27
3.34200	27
3.34567	27
3.34933	27
3.35300	26
3.35667	26
3.36033	26
3.36400	26
3.36767	25
3.37133	25
3.37500	25
3.37867	25
3.38233	25
3.38600	25
3.38967	25
3.39333	25
3.39700	25
3.40067	25
3.40433	25
3.40800	25
3.41167	25
3.41533	25
3.41900	24
3.42267	24
3.42633	24
3.43000	24
3.43367	24
3.43733	25
3.44100	25
3.44467	25
3.44833	25
3.45200	25
3.45567	25
3.45933	25
3.46300	24
3.46667	24
3.47033	24
3.47400	24
3.47767	23
3.48133	23
3.48500	23
3.48867	23
3.49233	23
3.49600	23
3.49967	23
3.50333	23
3.50700	23
3.51067	23
3.51433	24
3.51800	24
3.52167	24
3.52533	24
3.52900	24
3.53267	24
3.53633	24
3.54000	24
3.54367	24
3.54733	24
3.55100	24
3.55467	24
3.55833	24
3.56200	24
3.56567	24
3.56933	24
3.57300	23
3.57667	23
3.58033	23
3.58400	23
3.58767	22
3.59133	22
3.59500	22
3.59867	22
3.60233	22
3.60600	22
3.60967	22
3.61333	22
3.61700	22
3.62067	22
3.62433	22
3.62800	22
3.63167	22
3.63533	22
3.63900	22
3.64267	22
3.64633	22
3.65000	22
3.65367	23
3.65733	23
3.66100	23
3.66467	23
3.66833	23
3.67200	23
3.67567	23
3.67933	23
3.68300	23
3.68667	23
3.69033	23
3.69400	23
3.69767	23
3.70133	23
3.70500	23
3.70867	23
3.71233	23
3.71600	23
3.71967	24
3.72333	24
3.72700	24
3.73067	24
3.73433	25
3.73800	25
3.74167	25
3.74533	24
3.74900	24
3.75267	24
3.75633	24
3.76000	24
3.76367	25
3.76733	25
3.77100	26
3.77467	26
3.77833	26
3.78200	27
3.78567	27
3.78933	27
3.79300	27
3.79667	27
3.80033	27
3.80400	27
3.80767	27
3.81133	27
3.81500	27
3.81867	27
3.82233	27
3.82600	27
3.82967	27
3.83333	27
3.83700	26
3.84067	26
3.84433	26
3.84800	25
3.85167	25
3.85533	25
3.85900	25
3.86267	25
3.86633	25
3.87000	25
3.87367	25
3.87733	24
3.88100	24
3.88467	24
3.88833	24
3.89200	24
3.89567	24
3.89933	24
3.90300	24
3.90667	24
3.91033	24
3.91400	24
3.91767	24
3.92133	24
3.92500	24
3.92867	24
3.93233	23
3.93600	23
3.93967	23
3.94333	23
3.94700	23
3.95067	23
3.95433	23
3.95800	23
3.96167	23
3.96533	23
3.96900	23
3.97267	23
3.97633	22
3.98000	22
3.98367	22
3.98733	22
3.99100	22
3.99467	22
3.99833	22

[Chromatogram (Ch3)]
Interval(msec)	220
# of Points	1091
Start Time(min)	0.002
End Time(min)	3.998
R.Time (min)	Intensity
0.00167	-0
0.00533	-3
0.00900	-4
0.01267	-2
0.01633	2
0.02000	3
0.02367	1
0.02733	-0
0.03100	-4
0.03467	-5
0.03833	-4
0.04200	-4
0.04567	-6
0.04933	-6
0.05300	-5
0.05667	-3
0.06033	-1
0.06400	0
0.06767	2
0.07133	2
0.07500	-0
0.07867	-3
0.08233	-4
0.08600	-3
0.08967	-2
0.09333	-2
0.09700	-2
0.10067	0
0.10433	2
0.10800	3
0.11167	4
0.11533	5
0.11900	4
0.12267	3
0.12633	1
0.13000	1
0.13367	1
0.13733	2
0.14100	3
0.14467	4
0.14833	5
0.15200	4
0.15567	3
0.15933	2
0.16300	1
0.16667	0
0.17033	1
0.17400	1
0.17767	1
0.18133	1
0.18500	2
0.18867	2
0.19233	4
0.19600	5
0.19967	5
0.20333	4
0.20700	1
0.21067	1
0.21433	-0
0.21800	-1
0.22167	-2
0.22533	-3
0.22900	-3
0.23267	-2
0.23633	-3
0.24000	-3
0.24367	-1
0.24733	-2
0.25100	-2
0.25467	-2
0.25833	-3
0.26200	-3
0.26567	-4
0.26933	-2
0.27300	1
0.27667	2
0.28033	1
0.28400	-2
0.28767	-2
0.29133	-1
0.29500	-3
0.29867	-5
0.30233	-5
0.30600	-6
0.30967	-7
0.31333	-5
0.31700	-3
0.32067	-2
0.32433	-1
0.32800	-0
0.33167	2
0.33533	2
0.33900	-0
0.34267	-0
0.34633	-0
0.35000	0
0.35367	2
0.35733	2
0.36100	1
0.36467	1
0.36833	-1
0.37200	-2
0.37567	-3
0.37933	-5
0.38300	-6
0.38667	-6
0.39033	-7
0.39400	-5
0.39767	-2
0.40133	-4
0.40500	-4
0.40867	-3
0.41233	-3
0.41600	-2
0.41967	-2
0.42333	-0
0.42700	-1
0.43067	-4
0.43433	-6
0.43800	-5
0.44167	-4
0.44533	-3
0.44900	-3
0.45267	-3
0.45633	-3
0.46000	-2
0.46367	-2
0.46733	-5
0.47100	-5
0.47467	-3
0.47833	-5
0.48200	-7
0.48567	-7
0.48933	-7
0.49300	-7
0.49667	-7
0.50033	-8
0.50400	-8
0.50767	-8
0.51133	-8
0.51500	-9
0.51867	-9
0.52233	-9
0.52600	-8
0.52967	-7
0.53333	-3
0.53700	-1
0.54067	-3
0.54433	-5
0.54800	-4
0.55167	-4
0.55533	-3
0.55900	-2
0.56267	-2
0.56633	-3
0.57000	-3
0.57367	-1
0.57733	1
0.58100	-1
0.58467	-3
0.58833	-4
0.59200	-3
0.59567	-2
0.59933	-2
0.60300	-1
0.60667	-1
0.61033	-2
0.61400	-5
0.61767	-4
0.62133	-3
0.62500	-1
0.62867	2
0.63233	2
0.63600	0
0.63967	1
0.64333	0
0.64700	-1
0.65067	-4
0.65433	-5
0.65800	-5
0.66167	-5
0.66533	-6
0.66900	-4
0.67267	-4
0.67633	-5
0.68000	-6
0.68367	-6
0.68733	-6
0.69100	-4
0.69467	-1
0.69833	1
0.70200	2
0.70567	1
0.70933	1
0.71300	1
0.71667	1
0.72033	2
0.72400	2
0.72767	-0
0.73133	-1
0.73500	-3
0.73867	-4
0.74233	-4
0.74600	-3
0.74967	-4
0.75333	-6
0.75700	-5
0.76067	-5
0.76433	-4
0.76800	-3
0.77167	-3
0.77533	-0
0.77900	2
0.78267	2
0.78633	1
0.79000	-1
0.79367	-1
0.79733	-2
0.80100	-3
0.80467	-3
0.80833	-3
0.81200	-2
0.81567	-0
0.81933	-0
0.82300	-1
0.82667	-1
0.83033	-4
0.83400	-4
0.83767	-2
0.84133	-1
0.84500	-0
0.84867	-0
0.85233	-2
0.85600	-4
0.85967	-7
0.86333	-7
0.86700	-5
0.87067	-6
0.87433	-7
0.87800	-6
0.88167	-3
0.88533	-1
0.88900	-1
0.89267	-2
0.89633	-1
0.90000	-2
0.90367	-3
0.90733	-3
0.91100	-3
0.91467	-4
0.91833	-5
0.92200	-8
0.92567	-9
0.92933	-8
0.93300	-5
0.93667	-4
0.94033	-5
0.94400	-3
0.94767	1
0.95133	4
0.95500	6
0.95867	4
0.96233	2
0.96600	-1
0.96967	-1
0.97333	0
0.97700	1
0.98067	-2
0.98433	-4
0.98800	-4
0.99167	-2
0.99533	-0
0.99900	1
1.00267	-0
1.00633	-2
1.01000	-2
1.01367	-1
1.01733	0
1.02100	-1
1.02467	-3
1.02833	-3
1.03200	-4
1.03567	-4
1.03933	-2
1.04300	0
1.04667	4
1.05033	5
1.05400	4
1.05767	3
1.06133	1
1.06500	-1
1.06867	-1
1.07233	-2
1.07600	-1
1.07967	-0
1.08333	1
1.08700	4
1.09067	4
1.09433	3
1.09800	1
1.10167	-1
1.10533	-1
1.10900	-0
1.11267	-3
1.11633	-4
1.12000	-6
1.12367	-5
1.12733	-2
1.13100	-1
1.13467	-0
1.13833	1
1.14200	2
1.14567	2
1.14933	1
1.15300	-2
1.15667	-6
1.16033	-6
1.16400	-4
1.16767	-2
1.17133	1
1.17500	3
1.17867	4
1.18233	4
1.18600	4
1.18967	3
1.19333	3
1.19700	4
1.20067	5
1.20433	5
1.20800	6
1.21167	6
1.21533	9
1.21900	9
1.22267	9
1.22633	7
1.23000	7
1.23367	7
1.23733	6
1.24100	4
1.24467	4
1.24833	3
1.25200	3
1.25567	2
1.25933	1
1.26300	1
1.26667	4
1.27033	4
1.27400	6
1.27767	8
1.28133	7
1.28500	6
1.28867	7
1.29233	7
1.29600	6
1.29967	5
1.30333	4
1.30700	4
1.31067	5
1.31433	6
1.31800	5
1.32167	5
1.32533	8
1.32900	9
1.33267	9
1.33633	5
1.34000	4
1.34367	4
1.34733	6
1.35100	6
1.35467	7
1.35833	7
1.36200	5
1.36567	2
1.36933	-2
1.37300	-2
1.37667	0
1.38033	3
1.38400	5
1.38767	7
1.39133	7
1.39500	6
1.39867	4
1.40233	4
1.40600	5
1.40967	5
1.41333	4
1.41700	4
1.42067	4
1.42433	4
1.42800	5
1.43167	7
1.43533	8
1.43900	8
1.44267	6
1.44633	5
1.45000	4
1.45367	5
1.45733	6
1.46100	8
1.46467	7
1.46833	7
1.47200	6
1.47567	4
1.47933	3
1.48300	5
1.48667	7
1.49033	10
1.49400	6
1.49767	4
1.50133	3
1.50500	3
1.50867	0
1.51233	-0
1.51600	1
1.51967	2
1.52333	3
1.52700	2
1.53067	2
1.53433	2
1.53800	2
1.54167	2
1.54533	1
1.54900	2
1.55267	3
1.55633	3
1.56000	3
1.56367	3
1.56733	3
1.57100	2
1.57467	1
1.57833	2
1.58200	3
1.58567	5
1.58933	7
1.59300	6
1.59667	6
1.60033	8
1.60400	9
1.60767	9
1.61133	9
1.61500	9
1.61867	10
1.62233	11
1.62600	9
1.62967	7
1.63333	7
1.63700	6
1.64067	7
1.64433	9
1.64800	9
1.65167	9
1.65533	10
1.65900	7
1.66267	6
1.66633	6
1.67000	6
1.67367	7
1.67733	6
1.68100	7
1.68467	10
1.68833	12
1.69200	10
1.69567	9
1.69933	8
1.70300	9
1.70667	9
1.71033	10
1.71400	11
1.71767	13
1.72133	13
1.72500	12
1.72867	13
1.73233	14
1.73600	14
1.73967	13
1.74333	12
1.74700	13
1.75067	13
1.75433	13
1.75800	15
1.76167	15
1.76533	17
1.76900	19
1.77267	21
1.77633	20
1.78000	18
1.78367	17
1.78733	17
1.79100	17
1.79467	17
1.79833	18
1.80200	19
1.80567	17
1.80933	16
1.81300	19
1.81667	21
1.82033	23
1.82400	25
1.82767	27
1.83133	25
1.83500	25
1.83867	23
1.84233	21
1.84600	20
1.84967	20
1.85333	21
1.85700	22
1.86067	23
1.86433	23
1.86800	25
1.87167	25
1.87533	24
1.87900	23
1.88267	21
1.88633	21
1.89000	20
1.89367	19
1.89733	22
1.90100	24
1.90467	27
1.90833	29
1.91200	30
1.91567	32
1.91933	31
1.92300	29
1.92667	28
1.93033	30
1.93400	33
1.93767	33
1.94133	34
1.94500	35
1.94867	34
1.95233	33
1.95600	32
1.95967	34
1.96333	36
1.96700	38
1.97067	40
1.97433	40
1.97800	40
1.98167	39
1.98533	39
1.98900	40
1.99267	41
1.99633	43
2.00000	45
2.00367	46
2.00733	47
2.01100	46
2.01467	46
2.01833	44
2.02200	43
2.02567	43
2.02933	43
2.03300	43
2.03667	43
2.04033	46
2.04400	47
2.04767	48
2.05133	47
2.05500	46
2.05867	44
2.06233	42
2.06600	42
2.06967	44
2.07333	46
2.07700	48
2.08067	50
2.08433	53
2.08800	56
2.09167	56
2.09533	56
2.09900	57
2.10267	56
2.10633	57
2.11000	57
2.11367	56
2.11733	56
2.12100	59
2.12467	60
2.12833	61
2.13200	62
2.13567	65
2.13933	67
2.14300	71
2.14667	71
2.15033	67
2.15400	66
2.15767	66
2.16133	68
2.16500	69
2.16867	70
2.17233	70
2.17600	74
2.17967	78
2.18333	79
2.18700	80
2.19067	82
2.19433	83
2.19800	85
2.20167	86
2.20533	85
2.20900	85
2.21267	85
2.21633	84
2.22000	87
2.22367	89
2.22733	92
2.23100	93
2.23467	93
2.23833	94
2.24200	97
2.24567	97
2.24933	96
2.25300	95
2.25667	93
2.26033	95
2.26400	94
2.26767	95
2.27133	98
2.27500	99
2.27867	100
2.28233	103
2.28600	104
2.28967	106
2.29333	108
2.29700	111
2.30067	111
2.30433	110
2.30800	110
2.31167	112
2.31533	112
2.31900	110
2.32267	111
2.32633	115
2.33000	120
2.33367	123
2.33733	124
2.34100	124
2.34467	125
2.34833	128
2.35200	129
2.35567	133
2.35933	135
2.36300	137
2.36667	137
2.37033	138
2.37400	138
2.37767	138
2.38133	138
2.38500	137
2.38867	139
2.39233	143
2.39600	147
2.39967	152
2.40333	155
2.40700	157
2.41067	158
2.41433	159
2.41800	161
2.42167	164
2.42533	162
2.42900	161
2.43267	162
2.43633	166
2.44000	171
2.44367	199
2.44733	269
2.45100	336
2.45467	380
2.45833	399
2.46200	385
2.46567	351
2.46933	317
2.47300	294
2.47667	281
2.48033	274
2.48400	268
2.48767	254
2.49133	233
2.49500	212
2.49867	192
2.50233	177
2.50600	165
2.50967	159
2.51333	155
2.51700	154
2.52067	156
2.52433	164
2.52800	176
2.53167	189
2.53533	200
2.53900	211
2.54267	219
2.54633	221
2.55000	219
2.55367	215
2.55733	207
2.56100	194
2.56467	184
2.56833	177
2.57200	171
2.57567	166
2.57933	160
2.58300	157
2.58667	156
2.59033	154
2.59400	151
2.59767	150
2.60133	145
2.60500	134
2.60867	121
2.61233	104
2.61600	86
2.61967	67
2.62333	50
2.62700	37
2.63067	26
2.63433	20
2.63800	20
2.64167	24
2.64533	30
2.64900	38
2.65267	47
2.65633	59
2.66000	75
2.66367	91
2.66733	106
2.67100	117
2.67467	125
2.67833	133
2.68200	142
2.68567	146
2.68933	148
2.69300	151
2.69667	153
2.70033	154
2.70400	156
2.70767	157
2.71133	157
2.71500	159
2.71867	162
2.72233	163
2.72600	162
2.72967	163
2.73333	165
2.73700	167
2.74067	169
2.74433	170
2.74800	169
2.75167	170
2.75533	173
2.75900	177
2.76267	177
2.76633	180
2.77000	183
2.77367	185
2.77733	185
2.78100	187
2.78467	190
2.78833	193
2.79200	193
2.79567	194
2.79933	196
2.80300	198
2.80667	201
2.81033	202
2.81400	206
2.81767	216
2.82133	235
2.82500	273
2.82867	349
2.83233	487
2.83600	708
2.83967	1030
2.84333	1456
2.84700	1976
2.85067	2565
2.85433	3181
2.85800	3774
2.86167	4298
2.86533	4710
2.86900	4985
2.87267	5108
2.87633	5091
2.88000	4952
2.88367	4715
2.88733	4411
2.89100	4066
2.89467	3705
2.89833	3345
2.90200	3000
2.90567	2678
2.90933	2383
2.91300	2116
2.91667	1878
2.92033	1666
2.92400	1477
2.92767	1311
2.93133	1168
2.93500	1045
2.93867	936
2.94233	841
2.94600	760
2.94967	689
2.95333	629
2.95700	577
2.96067	533
2.96433	495
2.96800	462
2.97167	432
2.97533	408
2.97900	388
2.98267	370
2.98633	354
2.99000	341
2.99367	329
2.99733	318
3.00100	308
3.00467	300
3.00833	293
3.01200	287
3.01567	280
3.01933	274
3.02300	269
3.02667	267
3.03033	263
3.03400	259
3.03767	256
3.04133	251
3.04500	244
3.04867	239
3.05233	234
3.05600	230
3.05967	227
3.06333	227
3.06700	226
3.07067	224
3.07433	219
3.07800	215
3.08167	212
3.08533	211
3.08900	210
3.09267	211
3.09633	211
3.10000	209
3.10367	207
3.10733	205
3.11100	204
3.11467	204
3.11833	202
3.12200	201
3.12567	200
3.12933	199
3.13300	198
3.13667	198
3.14033	197
3.14400	199
3.14767	199
3.15133	198
3.15500	200
3.15867	200
3.16233	198
3.16600	198
3.16967	197
3.17333	195
3.17700	194
3.18067	195
3.18433	194
3.18800	194
3.19167	194
3.19533	196
3.19900	197
3.20267	199
3.20633	199
3.21000	199
3.21367	199
3.21733	198
3.22100	196
3.22467	198
3.22833	201
3.23200	203
3.23567	205
3.23933	205
3.24300	205
3.24667	207
3.25033	209
3.25400	210
3.25767	207
3.26133	206
3.26500	205
3.26867	204
3.27233	200
3.27600	198
3.27967	198
3.28333	198
3.28700	197
3.29067	197
3.29433	197
3.29800	198
3.30167	199
3.30533	198
3.30900	197
3.31267	197
3.31633	194
3.32000	191
3.32367	190
3.32733	190
3.33100	190
3.33467	188
3.33833	188
3.34200	188
3.34567	189
3.34933	190
3.35300	191
3.35667	191
3.36033	190
3.36400	190
3.36767	189
3.37133	189
3.37500	189
3.37867	188
3.38233	189
3.38600	189
3.38967	189
3.39333	187
3.39700	186
3.40067	184
3.40433	184
3.40800	184
3.41167	184
3.41533	184
3.41900	183
3.42267	184
3.42633	188
3.43000	190
3.43367	186
3.43733	176
3.44100	161
3.44467	146
3.44833	134
3.45200	127
3.45567	128
3.45933	135
3.46300	146
3.46667	161
3.47033	177
3.47400	197
3.47767	221
3.48133	251
3.48500	286
3.48867	322
3.49233	355
3.49600	384
3.49967	408
3.50333	429
3.50700	451
3.51067	469
3.51433	485
3.51800	501
3.52167	514
3.52533	523
3.52900	530
3.53267	538
3.53633	545
3.54000	551
3.54367	555
3.54733	560
3.55100	563
3.55467	565
3.55833	568
3.56200	570
3.56567	571
3.56933	572
3.57300	574
3.57667	576
3.58033	576
3.58400	574
3.58767	573
3.59133	572
3.59500	571
3.59867	572
3.60233	570
3.60600	569
3.60967	569
3.61333	568
3.61700	568
3.62067	567
3.62433	567
3.62800	565
3.63167	564
3.63533	562
3.63900	560
3.64267	559
3.64633	558
3.65000	556
3.65367	555
3.65733	552
3.66100	552
3.66467	553
3.66833	553
3.67200	552
3.67567	552
3.67933	549
3.68300	546
3.68667	545
3.69033	543
3.69400	543
3.69767	541
3.70133	539
3.70500	538
3.70867	539
3.71233	539
3.71600	539
3.71967	538
3.72333	536
3.72700	533
3.73067	529
3.73433	527
3.73800	526
3.74167	524
3.74533	522
3.74900	519
3.75267	515
3.75633	512
3.76000	510
3.76367	508
3.76733	506
3.77100	507
3.77467	507
3.77833	504
3.78200	502
3.78567	500
3.78933	498
3.79300	499
3.79667	500
3.80033	499
3.80400	498
3.80767	494
3.81133	490
3.81500	488
3.81867	487
3.82233	485
3.82600	484
3.82967	484
3.83333	484
3.83700	484
3.84067	483
3.84433	483
3.84800	481
3.85167	480
3.85533	479
3.85900	476
3.86267	473
3.86633	471
3.87000	471
3.87367	470
3.87733	471
3.88100	470
3.88467	470
3.88833	470
3.89200	470
3.89567	470
3.89933	469
3.90300	467
3.90667	468
3.91033	469
3.91400	468
3.91767	466
3.92133	466
3.92500	465
3.92867	465
3.93233	465
3.93600	466
3.93967	466
3.94333	466
3.94700	464
3.95067	461
3.95433	461
3.95800	460
3.96167	460
3.96533	459
3.96900	458
3.97267	458
3.97633	458
3.98000	458
3.98367	456
3.98733	456
3.99100	457
3.99467	454
3.99833	451

[Status Trace (Column Oven Temperature)]
Interval(msec)	1000
# of Points	240
Start Time(min)	0.008
End Time(min)	3.991
Intensity Units	
Intensity Multiplier	1
R.Time (min)	Intensity
0.00788	35.01
0.02455	35.00
0.04122	35.00
0.05788	34.99
0.07455	34.99
0.09122	34.98
0.10788	34.98
0.12455	35.00
0.14122	35.01
0.15788	35.02
0.17455	35.03
0.19122	35.04
0.20788	35.04
0.22455	35.05
0.24122	35.04
0.25788	35.04
0.27455	35.04
0.29122	35.03
0.30788	35.02
0.32455	35.00
0.34122	35.00
0.35788	34.99
0.37455	34.99
0.39122	34.99
0.40788	34.99
0.42455	34.99
0.44122	35.01
0.45788	35.03
0.47455	35.03
0.49122	35.03
0.50788	35.02
0.52455	35.01
0.54122	34.99
0.55788	35.00
0.57455	35.01
0.59122	35.02
0.60788	35.02
0.62455	35.01
0.64122	35.01
0.65788	35.00
0.67455	35.00
0.69122	35.00
0.70788	34.98
0.72455	34.98
0.74122	34.97
0.75788	34.98
0.77455	34.97
0.79122	34.97
0.80788	34.96
0.82455	34.97
0.84122	34.98
0.85788	34.98
0.87455	34.99
0.89122	34.98
0.90788	34.98
0.92455	34.98
0.94122	34.98
0.95788	34.98
0.97455	34.96
0.99122	34.96
1.00788	34.96
1.02455	34.95
1.04122	34.96
1.05788	34.97
1.07455	34.99
1.09122	34.99
1.10788	34.98
1.12455	34.99
1.14122	34.99
1.15788	34.99
1.17455	35.00
1.19122	35.00
1.20788	34.98
1.22455	34.97
1.24122	34.97
1.25788	34.97
1.27455	34.97
1.29122	34.96
1.30788	34.96
1.32455	34.98
1.34122	35.00
1.35788	35.01
1.37455	35.02
1.39122	35.03
1.40788	35.03
1.42455	35.03
1.44122	35.03
1.45788	35.03
1.47455	35.04
1.49122	35.04
1.50788	35.03
1.52455	35.02
1.54122	35.01
1.55788	35.00
1.57455	34.99
1.59122	34.99
1.60788	35.03
1.62455	35.15
1.64122	35.33
1.65788	35.61
1.67455	35.97
1.69122	36.34
1.70788	36.69
1.72455	37.01
1.74122	37.34
1.75788	37.68
1.77455	38.01
1.79122	38.33
1.80788	38.68
1.82455	39.01
1.84122	39.32
1.85788	39.66
1.87455	39.98
1.89122	40.31
1.90788	40.64
1.92455	40.97
1.94122	41.29
1.95788	41.62
1.97455	41.95
1.99122	42.25
2.00788	42.57
2.02455	42.91
2.04122	43.23
2.05788	43.57
2.07455	43.88
2.09122	44.21
2.10788	44.55
2.12455	44.86
2.14122	45.17
2.15788	45.50
2.17455	45.83
2.19122	46.18
2.20788	46.49
2.22455	46.82
2.24122	47.17
2.25788	47.48
2.27455	47.85
2.29122	48.19
2.30788	48.50
2.32455	48.83
2.34122	49.13
2.35788	49.44
2.37455	49.65
2.39122	49.73
2.40788	49.72
2.42455	49.72
2.44122	49.71
2.45788	49.73
2.47455	49.74
2.49122	49.75
2.50788	49.75
2.52455	49.77
2.54122	49.79
2.55788	49.79
2.57455	49.82
2.59122	49.82
2.60788	49.83
2.62455	49.83
2.64122	49.87
2.65788	49.86
2.67455	49.84
2.69122	49.84
2.70788	49.87
2.72455	49.88
2.74122	49.88
2.75788	49.88
2.77455	49.88
2.79122	49.89
2.80788	49.89
2.82455	49.89
2.84122	49.89
2.85788	49.90
2.87455	49.91
2.89122	49.92
2.90788	49.93
2.92455	49.95
2.94122	49.97
2.95788	49.97
2.97455	49.99
2.99122	50.02
3.00788	50.03
3.02455	50.05
3.04122	50.05
3.05788	50.05
3.07455	50.06
3.09122	50.06
3.10788	50.08
3.12455	50.09
3.14122	50.11
3.15788	50.11
3.17455	50.12
3.19122	50.10
3.20788	50.10
3.22455	50.09
3.24122	50.08
3.25788	50.07
3.27455	50.05
3.29122	50.04
3.30788	50.02
3.32455	50.01
3.34122	50.01
3.35788	50.01
3.37455	50.01
3.39122	50.01
3.40788	50.01
3.42455	50.01
3.44122	50.02
3.45788	50.03
3.47455	50.03
3.49122	50.04
3.50788	50.04
3.52455	50.03
3.54122	50.04
3.55788	50.05
3.57455	50.05
3.59122	50.06
3.60788	50.06
3.62455	50.08
3.64122	50.09
3.65788	50.09
3.67455	50.09
3.69122	50.10
3.70788	50.10
3.72455	50.10
3.74122	50.09
3.75788	50.08
3.77455	50.06
3.79122	50.04
3.80788	50.02
3.82455	50.01
3.84122	50.01
3.85788	50.01
3.87455	50.02
3.89122	50.01
3.90788	50.00
3.92455	50.02
3.94122	50.01
3.95788	50.02
3.97455	50.04
3.99122	50.05

[Status Trace (Injection Unit Temperature)]
Interval(msec)	1000
# of Points	240
Start Time(min)	0.008
End Time(min)	3.991
Intensity Units	
Intensity Multiplier	1
R.Time (min)	Intensity
0.00788	99.98
0.02455	99.98
0.04122	99.98
0.05788	99.98
0.07455	99.98
0.09122	99.99
0.10788	99.98
0.12455	99.99
0.14122	99.98
0.15788	99.99
0.17455	99.98
0.19122	99.98
0.20788	99.98
0.22455	99.99
0.24122	99.99
0.25788	99.98
0.27455	99.99
0.29122	99.98
0.30788	99.99
0.32455	99.98
0.34122	99.98
0.35788	99.98
0.37455	99.99
0.39122	99.99
0.40788	99.98
0.42455	99.99
0.44122	99.98
0.45788	99.99
0.47455	99.99
0.49122	99.99
0.50788	99.98
0.52455	99.99
0.54122	99.98
0.55788	99.99
0.57455	99.98
0.59122	99.99
0.60788	99.98
0.62455	99.99
0.64122	99.98
0.65788	99.99
0.67455	99.99
0.69122	99.98
0.70788	99.99
0.72455	99.98
0.74122	99.99
0.75788	99.98
0.77455	99.98
0.79122	99.99
0.80788	99.99
0.82455	99.98
0.84122	99.98
0.85788	99.98
0.87455	99.98
0.89122	99.98
0.90788	99.98
0.92455	99.98
0.94122	99.98
0.95788	99.98
0.97455	99.98
0.99122	99.98
1.00788	99.98
1.02455	99.98
1.04122	99.98
1.05788	99.98
1.07455	99.98
1.09122	99.98
1.10788	99.98
1.12455	99.98
1.14122	99.98
1.15788	99.98
1.17455	99.98
1.19122	99.97
1.20788	99.98
1.22455	99.98
1.24122	99.98
1.25788	99.98
1.27455	99.97
1.29122	99.98
1.30788	99.97
1.32455	99.98
1.34122	99.98
1.35788	99.98
1.37455	99.97
1.39122	99.98
1.40788	99.98
1.42455	99.98
1.44122	99.98
1.45788	99.98
1.47455	99.98
1.49122	99.98
1.50788	99.98
1.52455	99.98
1.54122	99.98
1.55788	99.98
1.57455	99.98
1.59122	99.98
1.60788	99.98
1.62455	99.98
1.64122	99.98
1.65788	99.98
1.67455	99.98
1.69122	99.98
1.70788	99.98
1.72455	99.98
1.74122	99.98
1.75788	99.98
1.77455	99.97
1.79122	99.97
1.80788	99.98
1.82455	99.97
1.84122	99.97
1.85788	99.98
1.87455	99.98
1.89122	99.97
1.90788	99.97
1.92455	99.97
1.94122	99.97
1.95788	99.98
1.97455	99.97
1.99122	99.97
2.00788	99.97
2.02455	99.96
2.04122	99.97
2.05788	99.98
2.07455	99.97
2.09122	99.97
2.10788	99.97
2.12455	99.97
2.14122	99.97
2.15788	99.97
2.17455	99.97
2.19122	99.97
2.20788	99.97
2.22455	99.97
2.24122	99.97
2.25788	99.97
2.27455	99.97
2.29122	99.97
2.30788	99.97
2.32455	99.97
2.34122	99.97
2.35788	99.97
2.37455	99.97
2.39122	99.97
2.40788	99.97
2.42455	99.97
2.44122	99.98
2.45788	99.97
2.47455	99.97
2.49122	99.97
2.50788	99.97
2.52455	99.98
2.54122	99.97
2.55788	99.97
2.57455	99.98
2.59122	99.98
2.60788	99.98
2.62455	99.98
2.64122	99.98
2.65788	99.98
2.67455	99.98
2.69122	99.98
2.70788	99.98
2.72455	99.98
2.74122	99.99
2.75788	99.99
2.77455	99.99
2.79122	99.99
2.80788	100.00
2.82455	99.99
2.84122	99.99
2.85788	100.00
2.87455	100.00
2.89122	100.00
2.90788	100.01
2.92455	100.00
2.94122	100.00
2.95788	100.01
2.97455	100.00
2.99122	100.01
3.00788	100.01
3.02455	100.01
3.04122	100.01
3.05788	100.02
3.07455	100.02
3.09122	100.02
3.10788	100.02
3.12455	100.02
3.14122	100.02
3.15788	100.03
3.17455	100.02
3.19122	100.03
3.20788	100.02
3.22455	100.03
3.24122	100.03
3.25788	100.03
3.27455	100.03
3.29122	100.03
3.30788	100.03
3.32455	100.03
3.34122	100.03
3.35788	100.03
3.37455	100.03
3.39122	100.03
3.40788	100.03
3.42455	100.03
3.44122	100.03
3.45788	100.04
3.47455	100.04
3.49122	100.04
3.50788	100.04
3.52455	100.04
3.54122	100.04
3.55788	100.04
3.57455	100.04
3.59122	100.04
3.60788	100.04
3.62455	100.04
3.64122	100.04
3.65788	100.04
3.67455	100.04
3.69122	100.04
3.70788	100.05
3.72455	100.05
3.74122	100.04
3.75788	100.04
3.77455	100.04
3.79122	100.04
3.80788	100.04
3.82455	100.04
3.84122	100.04
3.85788	100.04
3.87455	100.04
3.89122	100.04
3.90788	100.04
3.92455	100.04
3.94122	100.04
3.95788	100.04
3.97455	100.04
3.99122	100.04

[Status Trace (Carrier Gas Pressure)]
Interval(msec)	1000
# of Points	240
Start Time(min)	0.008
End Time(min)	3.991
Intensity Units	
Intensity Multiplier	1
R.Time (min)	Intensity
0.00788	58.00
0.02455	55.44
0.04122	57.09
0.05788	59.26
0.07455	59.50
0.09122	58.08
0.10788	57.98
0.12455	58.01
0.14122	58.01
0.15788	58.01
0.17455	58.00
0.19122	58.00
0.20788	58.00
0.22455	58.00
0.24122	58.00
0.25788	58.00
0.27455	58.00
0.29122	58.00
0.30788	58.00
0.32455	58.00
0.34122	58.00
0.35788	58.00
0.37455	58.00
0.39122	58.00
0.40788	58.00
0.42455	58.00
0.44122	58.00
0.45788	58.00
0.47455	58.00
0.49122	58.00
0.50788	58.00
0.52455	58.00
0.54122	58.00
0.55788	58.00
0.57455	58.00
0.59122	58.00
0.60788	58.00
0.62455	58.00
0.64122	58.00
0.65788	58.00
0.67455	58.00
0.69122	58.00
0.70788	58.00
0.72455	58.00
0.74122	58.00
0.75788	58.00
0.77455	58.00
0.79122	58.00
0.80788	58.00
0.82455	58.00
0.84122	58.00
0.85788	58.00
0.87455	58.00
0.89122	58.00
0.90788	58.00
0.92455	58.00
0.94122	58.00
0.95788	58.00
0.97455	58.00
0.99122	58.00
1.00788	58.00
1.02455	58.00
1.04122	58.00
1.05788	58.00
1.07455	58.00
1.09122	58.00
1.10788	58.00
1.12455	58.00
1.14122	58.00
1.15788	58.00
1.17455	58.00
1.19122	58.00
1.20788	58.00
1.22455	58.00
1.24122	58.00
1.25788	58.00
1.27455	58.00
1.29122	58.00
1.30788	58.00
1.32455	58.00
1.34122	58.00
1.35788	58.00
1.37455	58.00
1.39122	58.00
1.40788	58.00
1.42455	58.00
1.44122	58.00
1.45788	58.00
1.47455	58.00
1.49122	58.00
1.50788	58.00
1.52455	58.00
1.54122	58.00
1.55788	58.00
1.57455	58.00
1.59122	58.00
1.60788	58.00
1.62455	58.01
1.64122	58.01
1.65788	58.01
1.67455	58.01
1.69122	58.00
1.70788	58.00
1.72455	58.00
1.74122	58.00
1.75788	58.00
1.77455	58.00
1.79122	58.00
1.80788	58.00
1.82455	58.00
1.84122	58.00
1.85788	58.00
1.87455	58.00
1.89122	58.00
1.90788	58.00
1.92455	58.00
1.94122	58.00
1.95788	58.00
1.97455	58.00
1.99122	58.00
2.00788	58.00
2.02455	58.00
2.04122	58.00
2.05788	58.00
2.07455	58.00
2.09122	58.00
2.10788	58.00
2.12455	58.00
2.14122	58.00
2.15788	58.00
2.17455	58.00
2.19122	58.00
2.20788	58.00
2.22455	58.00
2.24122	58.00
2.25788	58.00
2.27455	58.00
2.29122	58.00
2.30788	58.00
2.32455	58.00
2.34122	58.00
2.35788	58.00
2.37455	58.00
2.39122	57.99
2.40788	57.99
2.42455	58.00
2.44122	58.00
2.45788	58.00
2.47455	58.00
2.49122	58.00
2.50788	58.00
2.52455	57.98
2.54122	58.00
2.55788	58.00
2.57455	58.00
2.59122	58.00
2.60788	58.00
2.62455	58.00
2.64122	58.00
2.65788	58.00
2.67455	58.00
2.69122	58.00
2.70788	58.00
2.72455	58.00
2.74122	58.00
2.75788	58.00
2.77455	58.00
2.79122	58.00
2.80788	58.00
2.82455	58.00
2.84122	58.00
2.85788	58.00
2.87455	58.00
2.89122	58.00
2.90788	58.00
2.92455	58.00
2.94122	58.00
2.95788	58.00
2.97455	58.00
2.99122	58.00
3.00788	58.00
3.02455	58.00
3.04122	58.00
3.05788	58.00
3.07455	58.00
3.09122	58.00
3.10788	58.00
3.12455	58.00
3.14122	58.00
3.15788	58.00
3.17455	58.00
3.19122	58.00
3.20788	58.00
3.22455	58.00
3.24122	58.00
3.25788	58.00
3.27455	58.00
3.29122	58.00
3.30788	58.00
3.32455	58.00
3.34122	58.00
3.35788	58.00
3.37455	58.00
3.39122	58.00
3.40788	58.00
3.42455	58.00
3.44122	58.00
3.45788	58.00
3.47455	58.00
3.49122	58.00
3.50788	58.00
3.52455	58.00
3.54122	58.00
3.55788	58.00
3.57455	58.00
3.59122	58.00
3.60788	58.00
3.62455	58.00
3.64122	58.00
3.65788	58.00
3.67455	58.00
3.69122	58.00
3.70788	58.00
3.72455	58.00
3.74122	58.00
3.75788	58.00
3.77455	58.00
3.79122	58.00
3.80788	58.00
3.82455	58.00
3.84122	58.00
3.85788	58.00
3.87455	58.00
3.89122	58.00
3.90788	58.00
3.92455	58.00
3.94122	58.00
3.95788	58.00
3.97455	58.00
3.99122	58.00

[Status Trace (Carrier Gas Flow)]
Interval(msec)	1000
# of Points	240
Start Time(min)	0.008
End Time(min)	3.991
Intensity Units	
Intensity Multiplier	1
R.Time (min)	Intensity
0.00788	34.52
0.02455	34.54
0.04122	34.55
0.05788	34.55
0.07455	34.50
0.09122	34.52
0.10788	34.52
0.12455	34.52
0.14122	34.52
0.15788	34.52
0.17455	34.52
0.19122	34.52
0.20788	34.51
0.22455	34.52
0.24122	34.51
0.25788	34.52
0.27455	34.52
0.29122	34.52
0.30788	34.52
0.32455	34.52
0.34122	34.52
0.35788	34.52
0.37455	34.52
0.39122	34.52
0.40788	34.52
0.42455	34.52
0.44122	34.52
0.45788	34.52
0.47455	34.52
0.49122	34.52
0.50788	34.52
0.52455	34.52
0.54122	34.52
0.55788	34.51
0.57455	34.52
0.59122	34.52
0.60788	34.52
0.62455	34.52
0.64122	34.51
0.65788	34.52
0.67455	34.52
0.69122	34.52
0.70788	34.52
0.72455	34.52
0.74122	34.52
0.75788	34.52
0.77455	34.52
0.79122	34.52
0.80788	34.52
0.82455	34.52
0.84122	34.52
0.85788	34.52
0.87455	34.52
0.89122	34.52
0.90788	34.52
0.92455	34.52
0.94122	34.52
0.95788	34.52
0.97455	34.52
0.99122	34.52
1.00788	34.52
1.02455	34.52
1.04122	34.51
1.05788	34.52
1.07455	34.52
1.09122	34.52
1.10788	34.52
1.12455	34.52
1.14122	34.52
1.15788	34.52
1.17455	34.52
1.19122	34.52
1.20788	34.52
1.22455	34.52
1.24122	34.52
1.25788	34.51
1.27455	34.52
1.29122	34.53
1.30788	34.52
1.32455	34.52
1.34122	34.51
1.35788	34.52
1.37455	34.52
1.39122	34.52
1.40788	34.51
1.42455	34.52
1.44122	34.53
1.45788	34.52
1.47455	34.52
1.49122	34.52
1.50788	34.52
1.52455	34.52
1.54122	34.52
1.55788	34.52
1.57455	34.52
1.59122	34.52
1.60788	34.52
1.62455	34.52
1.64122	34.51
1.65788	34.52
1.67455	34.52
1.69122	34.52
1.70788	34.51
1.72455	34.53
1.74122	34.52
1.75788	34.53
1.77455	34.52
1.79122	34.51
1.80788	34.51
1.82455	34.52
1.84122	34.52
1.85788	34.52
1.87455	34.53
1.89122	34.52
1.90788	34.51
1.92455	34.52
1.94122	34.52
1.95788	34.52
1.97455	34.52
1.99122	34.52
2.00788	34.52
2.02455	34.52
2.04122	34.53
2.05788	34.51
2.07455	34.52
2.09122	34.52
2.10788	34.51
2.12455	34.52
2.14122	34.51
2.15788	34.52
2.17455	34.52
2.19122	34.52
2.20788	34.52
2.22455	34.52
2.24122	34.52
2.25788	34.52
2.27455	34.52
2.29122	34.51
2.30788	34.51
2.32455	34.52
2.34122	34.52
2.35788	34.52
2.37455	34.51
2.39122	34.52
2.40788	34.52
2.42455	34.52
2.44122	34.51
2.45788	34.52
2.47455	34.52
2.49122	34.52
2.50788	34.43
2.52455	34.52
2.54122	34.52
2.55788	34.52
2.57455	34.52
2.59122	34.52
2.60788	34.52
2.62455	34.52
2.64122	34.52
2.65788	34.52
2.67455	34.52
2.69122	34.52
2.70788	34.52
2.72455	34.52
2.74122	34.52
2.75788	34.52
2.77455	34.51
2.79122	34.52
2.80788	34.52
2.82455	34.52
2.84122	34.52
2.85788	34.52
2.87455	34.52
2.89122	34.52
2.90788	34.52
2.92455	34.52
2.94122	34.52
2.95788	34.52
2.97455	34.52
2.99122	34.52
3.00788	34.52
3.02455	34.52
3.04122	34.52
3.05788	34.51
3.07455	34.52
3.09122	34.52
3.10788	34.52
3.12455	34.52
3.14122	34.52
3.15788	34.52
3.17455	34.52
3.19122	34.52
3.20788	34.52
3.22455	34.52
3.24122	34.52
3.25788	34.52
3.27455	34.52
3.29122	34.52
3.30788	34.52
3.32455	34.52
3.34122	34.51
3.35788	34.52
3.37455	34.52
3.39122	34.52
3.40788	34.52
3.42455	34.52
3.44122	34.52
3.45788	34.52
3.47455	34.51
3.49122	34.52
3.50788	34.52
3.52455	34.52
3.54122	34.52
3.55788	34.52
3.57455	34.52
3.59122	34.52
3.60788	34.52
3.62455	34.52
3.64122	34.52
3.65788	34.52
3.67455	34.52
3.69122	34.52
3.70788	34.52
3.72455	34.52
3.74122	34.52
3.75788	34.52
3.77455	34.52
3.79122	34.52
3.80788	34.51
3.82455	34.51
3.84122	34.51
3.85788	34.52
3.87455	34.52
3.89122	34.52
3.90788	34.52
3.92455	34.52
3.94122	34.52
3.95788	34.52
3.97455	34.52
3.99122	34.51

[Status Trace (Column Flow)]
Interval(msec)	1000
# of Points	240
Start Time(min)	0.008
End Time(min)	3.991
Intensity Units	
Intensity Multiplier	1
R.Time (min)	Intensity
0.00788	5.57
0.02455	5.27
0.04122	5.47
0.05788	5.72
0.07455	5.75
0.09122	5.58
0.10788	5.57
0.12455	5.57
0.14122	5.57
0.15788	5.57
0.17455	5.57
0.19122	5.57
0.20788	5.57
0.22455	5.57
0.24122	5.57
0.25788	5.57
0.27455	5.57
0.29122	5.57
0.30788	5.57
0.32455	5.57
0.34122	5.57
0.35788	5.57
0.37455	5.57
0.39122	5.57
0.40788	5.57
0.42455	5.57
0.44122	5.57
0.45788	5.57
0.47455	5.57
0.49122	5.57
0.50788	5.57
0.52455	5.57
0.54122	5.57
0.55788	5.57
0.57455	5.57
0.59122	5.57
0.60788	5.57
0.62455	5.57
0.64122	5.57
0.65788	5.57
0.67455	5.57
0.69122	5.57
0.70788	5.57
0.72455	5.57
0.74122	5.57
0.75788	5.57
0.77455	5.57
0.79122	5.57
0.80788	5.57
0.82455	5.57
0.84122	5.57
0.85788	5.57
0.87455	5.57
0.89122	5.57
0.90788	5.57
0.92455	5.57
0.94122	5.57
0.95788	5.57
0.97455	5.57
0.99122	5.57
1.00788	5.57
1.02455	5.57
1.04122	5.57
1.05788	5.57
1.07455	5.57
1.09122	5.57
1.10788	5.57
1.12455	5.57
1.14122	5.57
1.15788	5.57
1.17455	5.57
1.19122	5.57
1.20788	5.57
1.22455	5.57
1.24122	5.57
1.25788	5.57
1.27455	5.57
1.29122	5.57
1.30788	5.57
1.32455	5.57
1.34122	5.57
1.35788	5.57
1.37455	5.57
1.39122	5.57
1.40788	5.57
1.42455	5.57
1.44122	5.57
1.45788	5.57
1.47455	5.57
1.49122	5.57
1.50788	5.57
1.52455	5.57
1.54122	5.57
1.55788	5.57
1.57455	5.57
1.59122	5.57
1.60788	5.57
1.62455	5.57
1.64122	5.56
1.65788	5.55
1.67455	5.54
1.69122	5.53
1.70788	5.52
1.72455	5.51
1.74122	5.50
1.75788	5.49
1.77455	5.48
1.79122	5.47
1.80788	5.46
1.82455	5.45
1.84122	5.44
1.85788	5.43
1.87455	5.42
1.89122	5.41
1.90788	5.40
1.92455	5.39
1.94122	5.38
1.95788	5.37
1.97455	5.36
1.99122	5.35
2.00788	5.34
2.02455	5.33
2.04122	5.32
2.05788	5.31
2.07455	5.30
2.09122	5.29
2.10788	5.28
2.12455	5.27
2.14122	5.26
2.15788	5.25
2.17455	5.25
2.19122	5.23
2.20788	5.22
2.22455	5.22
2.24122	5.21
2.25788	5.20
2.27455	5.19
2.29122	5.18
2.30788	5.17
2.32455	5.16
2.34122	5.15
2.35788	5.14
2.37455	5.14
2.39122	5.13
2.40788	5.13
2.42455	5.13
2.44122	5.13
2.45788	5.13
2.47455	5.13
2.49122	5.13
2.50788	5.13
2.52455	5.13
2.54122	5.13
2.55788	5.13
2.57455	5.13
2.59122	5.13
2.60788	5.13
2.62455	5.13
2.64122	5.13
2.65788	5.13
2.67455	5.13
2.69122	5.13
2.70788	5.13
2.72455	5.13
2.74122	5.13
2.75788	5.13
2.77455	5.13
2.79122	5.13
2.80788	5.13
2.82455	5.13
2.84122	5.13
2.85788	5.13
2.87455	5.13
2.89122	5.13
2.90788	5.13
2.92455	5.13
2.94122	5.13
2.95788	5.13
2.97455	5.13
2.99122	5.13
3.00788	5.12
3.02455	5.12
3.04122	5.12
3.05788	5.12
3.07455	5.12
3.09122	5.12
3.10788	5.12
3.12455	5.12
3.14122	5.12
3.15788	5.12
3.17455	5.12
3.19122	5.12
3.20788	5.12
3.22455	5.12
3.24122	5.12
3.25788	5.12
3.27455	5.12
3.29122	5.12
3.30788	5.12
3.32455	5.13
3.34122	5.13
3.35788	5.13
3.37455	5.13
3.39122	5.13
3.40788	5.13
3.42455	5.13
3.44122	5.12
3.45788	5.12
3.47455	5.12
3.49122	5.12
3.50788	5.12
3.52455	5.12
3.54122	5.12
3.55788	5.12
3.57455	5.12
3.59122	5.12
3.60788	5.12
3.62455	5.12
3.64122	5.12
3.65788	5.12
3.67455	5.12
3.69122	5.12
3.70788	5.12
3.72455	5.12
3.74122	5.12
3.75788	5.12
3.77455	5.12
3.79122	5.12
3.80788	5.13
3.82455	5.13
3.84122	5.13
3.85788	5.13
3.87455	5.13
3.89122	5.13
3.90788	5.13
3.92455	5.13
3.94122	5.13
3.95788	5.13
3.97455	5.12
3.99122	5.12

[Status Trace (Linear Velocity)]
Interval(msec)	1000
# of Points	240
Start Time(min)	0.008
End Time(min)	3.991
Intensity Units	
Intensity Multiplier	1
R.Time (min)	Intensity
0.00788	39.03
0.02455	37.35
0.04122	38.43
0.05788	39.86
0.07455	40.01
0.09122	39.08
0.10788	39.02
0.12455	39.04
0.14122	39.03
0.15788	39.03
0.17455	39.03
0.19122	39.03
0.20788	39.03
0.22455	39.02
0.24122	39.03
0.25788	39.03
0.27455	39.03
0.29122	39.03
0.30788	39.03
0.32455	39.03
0.34122	39.03
0.35788	39.03
0.37455	39.03
0.39122	39.03
0.40788	39.03
0.42455	39.03
0.44122	39.03
0.45788	39.03
0.47455	39.03
0.49122	39.03
0.50788	39.03
0.52455	39.03
0.54122	39.03
0.55788	39.03
0.57455	39.03
0.59122	39.03
0.60788	39.03
0.62455	39.03
0.64122	39.03
0.65788	39.03
0.67455	39.03
0.69122	39.03
0.70788	39.03
0.72455	39.03
0.74122	39.03
0.75788	39.03
0.77455	39.03
0.79122	39.03
0.80788	39.03
0.82455	39.03
0.84122	39.03
0.85788	39.03
0.87455	39.03
0.89122	39.03
0.90788	39.03
0.92455	39.03
0.94122	39.03
0.95788	39.03
0.97455	39.03
0.99122	39.03
1.00788	39.03
1.02455	39.03
1.04122	39.03
1.05788	39.03
1.07455	39.03
1.09122	39.03
1.10788	39.03
1.12455	39.03
1.14122	39.03
1.15788	39.03
1.17455	39.03
1.19122	39.03
1.20788	39.03
1.22455	39.03
1.24122	39.03
1.25788	39.03
1.27455	39.03
1.29122	39.03
1.30788	39.03
1.32455	39.03
1.34122	39.03
1.35788	39.03
1.37455	39.03
1.39122	39.03
1.40788	39.03
1.42455	39.03
1.44122	39.03
1.45788	39.03
1.47455	39.03
1.49122	39.02
1.50788	39.03
1.52455	39.03
1.54122	39.03
1.55788	39.03
1.57455	39.03
1.59122	39.03
1.60788	39.03
1.62455	39.02
1.64122	39.00
1.65788	38.97
1.67455	38.94
1.69122	38.90
1.70788	38.87
1.72455	38.84
1.74122	38.81
1.75788	38.77
1.77455	38.74
1.79122	38.71
1.80788	38.68
1.82455	38.65
1.84122	38.62
1.85788	38.59
1.87455	38.56
1.89122	38.52
1.90788	38.49
1.92455	38.47
1.94122	38.43
1.95788	38.40
1.97455	38.38
1.99122	38.34
2.00788	38.32
2.02455	38.29
2.04122	38.25
2.05788	38.22
2.07455	38.20
2.09122	38.16
2.10788	38.13
2.12455	38.11
2.14122	38.08
2.15788	38.05
2.17455	38.02
2.19122	37.99
2.20788	37.96
2.22455	37.93
2.24122	37.90
2.25788	37.87
2.27455	37.84
2.29122	37.80
2.30788	37.78
2.32455	37.75
2.34122	37.72
2.35788	37.70
2.37455	37.67
2.39122	37.66
2.40788	37.66
2.42455	37.67
2.44122	37.67
2.45788	37.67
2.47455	37.67
2.49122	37.67
2.50788	37.66
2.52455	37.65
2.54122	37.66
2.55788	37.66
2.57455	37.66
2.59122	37.66
2.60788	37.66
2.62455	37.66
2.64122	37.66
2.65788	37.66
2.67455	37.66
2.69122	37.66
2.70788	37.66
2.72455	37.65
2.74122	37.65
2.75788	37.65
2.77455	37.66
2.79122	37.65
2.80788	37.65
2.82455	37.65
2.84122	37.65
2.85788	37.65
2.87455	37.65
2.89122	37.65
2.90788	37.65
2.92455	37.65
2.94122	37.65
2.95788	37.65
2.97455	37.65
2.99122	37.64
3.00788	37.64
3.02455	37.64
3.04122	37.64
3.05788	37.64
3.07455	37.64
3.09122	37.64
3.10788	37.64
3.12455	37.64
3.14122	37.63
3.15788	37.63
3.17455	37.63
3.19122	37.63
3.20788	37.64
3.22455	37.64
3.24122	37.64
3.25788	37.64
3.27455	37.64
3.29122	37.64
3.30788	37.64
3.32455	37.64
3.34122	37.64
3.35788	37.64
3.37455	37.64
3.39122	37.64
3.40788	37.64
3.42455	37.64
3.44122	37.64
3.45788	37.64
3.47455	37.64
3.49122	37.64
3.50788	37.64
3.52455	37.64
3.54122	37.64
3.55788	37.64
3.57455	37.64
3.59122	37.64
3.60788	37.64
3.62455	37.64
3.64122	37.64
3.65788	37.64
3.67455	37.64
3.69122	37.63
3.70788	37.63
3.72455	37.64
3.74122	37.64
3.75788	37.64
3.77455	37.64
3.79122	37.64
3.80788	37.64
3.82455	37.64
3.84122	37.64
3.85788	37.64
3.87455	37.64
3.89122	37.64
3.90788	37.64
3.92455	37.64
3.94122	37.64
3.95788	37.64
3.97455	37.64
3.99122	37.64

