[Header]
Application Name	LabSolutions
Version	5.110
Data File Name	C:\Users\User\Desktop\GC Analyses\Jack\Nachusa Grasslands Sampling\T1 Timepoint July 12th\T1_07122022_081.gcd
Output Date	3/14/2023
Output Time	3:41:02 PM

[File Information]
Type	Data File
Generated	3/8/2023 10:17:26 PM
Generated by	System Administrator
Modified	3/8/2023 10:24:00 PM
Modified by	System Administrator

[Sample Information]
Operator Name	System Administrator
Acquired	3/8/2023 10:19:59 PM
Sample Type	0:Unknown
Level	0
Sample Name	081
Sample ID	081
ISTD Amount1	1
ISTD Amount2	1
ISTD Amount3	1
ISTD Amount4	1
ISTD Amount5	1
ISTD Amount6	1
ISTD Amount7	1
ISTD Amount8	1
ISTD Amount9	1
ISTD Amount10	1
ISTD Amount11	1
ISTD Amount12	1
ISTD Amount13	1
ISTD Amount14	1
ISTD Amount15	1
ISTD Amount16	1
ISTD Amount17	1
ISTD Amount18	1
ISTD Amount19	1
ISTD Amount20	1
ISTD Amount21	1
ISTD Amount22	1
ISTD Amount23	1
ISTD Amount24	1
ISTD Amount25	1
ISTD Amount26	1
ISTD Amount27	1
ISTD Amount28	1
ISTD Amount29	1
ISTD Amount30	1
ISTD Amount31	1
ISTD Amount32	1
Sample Amount	1
Dilution Factor	1
Vial#	80
Injection Volume	1
Injection Count	1
Bar Code	

[Original Files]
Data File	C:\Users\User\Desktop\GC Analyses\Jack\Nachusa Grasslands Sampling\T1 Timepoint July 12th\T1_07122022_081.gcd
Method File	C:\LabSolutions\Data\GHG_4min_2022\ghg3_togas_w_acet_4 min_new_int.gcm
Batch File	C:\LabSolutions\Data\AutoSamplerTesting\T1_07122022.gcb
Report Format File	c:\LabSolutions\System\DEFAULT.lsr

[File Description]


[Configuration]
Instrument Name	C0B7VH3-Instrument1
Instrument #	1
Line #	1
# of Detectors	3
Detector ID	DET#1	DET#2	DET#3
Detector Name	FID	PTCD	ECD
# of Channels	1	1	1

[Peak Table(Ch1)]
# of Peaks	4
Peak#	R.Time	I.Time	F.Time	Area	Height	A/H	Conc.	Mark	ID#	Name	k'	Plate #	Plate Ht.	Tailing	Resolution	Sep.Factor	Area Ratio	Height Ratio	Conc. %	Norm Conc.
1	0.401	0.306	0.486	652	101	6.468	0.000	   			0.000	77	1941.072	0.928	0.000	0.000	0	0	0.000	0.000
2	1.476	1.439	1.538	33256	15785	2.107	234.789	   	1	CO	2.677	9227	16.257	1.344	8.804	0.000	0	0	31.853	31.853
3	1.567	1.538	1.630	4890	2326	2.103	94.550	 V 	2	CH4	2.905	10252	14.631	0.000	1.486	1.085	0	0	12.827	12.827
4	1.996	1.952	2.491	1624730	768589	2.114	407.763	   	3	CO2	3.974	17345	8.648	1.313	7.001	1.368	0	0	55.320	55.320

[Peak Table(Ch2)]
# of Peaks	0

[Peak Table(Ch3)]
# of Peaks	6
Peak#	R.Time	I.Time	F.Time	Area	Height	A/H	Conc.	Mark	ID#	Name	k'	Plate #	Plate Ht.	Tailing	Resolution	Sep.Factor	Area Ratio	Height Ratio	Conc. %	Norm Conc.
1	2.458	2.268	2.517	2201	592	3.720	0.000	   			0.000	10398	14.426	0.000	0.000	0.000	0	0	0.000	0.000
2	2.539	2.517	2.631	1010	266	3.804	0.000	 V 			0.033	6420	23.364	0.000	0.723	0.000	0	0	0.000	0.000
3	2.675	2.631	2.715	343	100	3.417	0.000	 V 			0.088	7722	19.425	0.000	1.092	2.682	0	0	0.000	0.000
4	2.873	2.715	3.082	21035	5026	4.185	0.537	 V 	1	N2O	0.169	12837	11.685	1.875	1.774	1.915	0	0	100.000	100.000
5	3.162	3.085	3.298	6781	623	10.882	0.000	   	2	SF6	0.286	157	953.598	0.000	0.522	1.699	0	0	0.000	0.000
6	3.379	3.298	3.995	12461	587	21.237	0.000	 V 	2	SF6	0.374	49	3049.924	0.000	0.147	1.307	0	0	0.000	0.000

[Compound Results(Ch1)]
# of IDs	6
ID#	Name	R.Time	Area	Height	Conc.	Curve	3rd	2nd	1st	Constant	Area Ratio	Height Ratio	Conc. %	Norm Conc.
1	CO	1.476	33256	15785	234.789	Linear	0.000000e+00	0.000000e+00	1.416423e+002	0.000000e+00	0	0	31.853	31.853
2	CH4	1.567	4890	2326	94.550	Linear	0.000000e+00	0.000000e+00	5.171738e+001	0.000000e+00	0	0	12.827	12.827
3	CO2	1.996	1624730	768589	407.763	Linear	0.000000e+00	0.000000e+00	3.984494e+003	0.000000e+00	0	0	55.320	55.320
4	Ethylene	0.000	0	0	0.000	Linear	0.000000e+00	0.000000e+00	0.000000e+00	0.000000e+00	0	0	0.000	0.000
5	Acetylene	0.000	0	0	0.000	Linear	0.000000e+00	0.000000e+00	0.000000e+00	0.000000e+00	0	0	0.000	0.000
6	Ethane	0.000	0	0	0.000	Linear	0.000000e+00	0.000000e+00	0.000000e+00	0.000000e+00	0	0	0.000	0.000

[Compound Results(Ch2)]
# of IDs	5
ID#	Name	R.Time	Area	Height	Conc.	Curve	3rd	2nd	1st	Constant	Area Ratio	Height Ratio	Conc. %	Norm Conc.
1	Hydrogen	0.000	0	0	0.000	Linear	0.000000e+00	0.000000e+00	0.000000e+00	0.000000e+00	0	0	0.000	0.000
2	Oxygen	0.000	0	0	0.000	Linear	0.000000e+00	0.000000e+00	0.000000e+00	0.000000e+00	0	0	0.000	0.000
3	Nitrogen	0.000	0	0	0.000	Linear	0.000000e+00	0.000000e+00	0.000000e+00	0.000000e+00	0	0	0.000	0.000
4	Methane	0.000	0	0	0.000	Linear	0.000000e+00	0.000000e+00	0.000000e+00	0.000000e+00	0	0	0.000	0.000
5	Carbon Monoxide	0.000	0	0	0.000	Linear	0.000000e+00	0.000000e+00	0.000000e+00	0.000000e+00	0	0	0.000	0.000

[Compound Results(Ch3)]
# of IDs	2
ID#	Name	R.Time	Area	Height	Conc.	Curve	3rd	2nd	1st	Constant	Area Ratio	Height Ratio	Conc. %	Norm Conc.
1	N2O	2.873	21035	5026	0.537	Linear	0.000000e+00	0.000000e+00	3.915173e+004	0.000000e+00	0	0	100.000	100.000
2	SF6	3.162	19242	1210	0.000	Linear	0.000000e+00	0.000000e+00	0.000000e+00	0.000000e+00	0	0	0.000	0.000

[Group Results(Ch1)]
# of Groups	0

[Group Results(Ch2)]
# of Groups	0

[Group Results(Ch3)]
# of Groups	0

[Chromatogram (Ch1)]
Interval(msec)	220
# of Points	1091
Start Time(min)	0.002
End Time(min)	3.998
R.Time (min)	Intensity
0.00167	-15
0.00533	-11
0.00900	-7
0.01267	3
0.01633	18
0.02000	33
0.02367	40
0.02733	36
0.03100	26
0.03467	15
0.03833	5
0.04200	-7
0.04567	-17
0.04933	-21
0.05300	-24
0.05667	-25
0.06033	-22
0.06400	-15
0.06767	-7
0.07133	-4
0.07500	-5
0.07867	-6
0.08233	-6
0.08600	-6
0.08967	-4
0.09333	-2
0.09700	-2
0.10067	-4
0.10433	-8
0.10800	-14
0.11167	-18
0.11533	-18
0.11900	-15
0.12267	-7
0.12633	-2
0.13000	2
0.13367	4
0.13733	5
0.14100	10
0.14467	22
0.14833	35
0.15200	45
0.15567	44
0.15933	31
0.16300	12
0.16667	-7
0.17033	-23
0.17400	-34
0.17767	-38
0.18133	-38
0.18500	-33
0.18867	-21
0.19233	-13
0.19600	-10
0.19967	-12
0.20333	-16
0.20700	-18
0.21067	-16
0.21433	-16
0.21800	-15
0.22167	-11
0.22533	-8
0.22900	-9
0.23267	-11
0.23633	-9
0.24000	-5
0.24367	3
0.24733	14
0.25100	28
0.25467	38
0.25833	40
0.26200	39
0.26567	38
0.26933	36
0.27300	35
0.27667	32
0.28033	28
0.28400	23
0.28767	20
0.29133	20
0.29500	21
0.29867	19
0.30233	19
0.30600	24
0.30967	33
0.31333	43
0.31700	59
0.32067	71
0.32433	74
0.32800	73
0.33167	73
0.33533	74
0.33900	77
0.34267	84
0.34633	94
0.35000	103
0.35367	106
0.35733	108
0.36100	108
0.36467	106
0.36833	105
0.37200	102
0.37567	100
0.37933	101
0.38300	104
0.38667	106
0.39033	108
0.39400	111
0.39767	119
0.40133	125
0.40500	125
0.40867	123
0.41233	117
0.41600	107
0.41967	97
0.42333	89
0.42700	87
0.43067	90
0.43433	94
0.43800	94
0.44167	93
0.44533	91
0.44900	86
0.45267	77
0.45633	70
0.46000	64
0.46367	59
0.46733	54
0.47100	48
0.47467	41
0.47833	33
0.48200	29
0.48567	25
0.48933	22
0.49300	21
0.49667	23
0.50033	24
0.50400	23
0.50767	21
0.51133	21
0.51500	21
0.51867	23
0.52233	26
0.52600	26
0.52967	25
0.53333	23
0.53700	20
0.54067	19
0.54433	18
0.54800	15
0.55167	11
0.55533	7
0.55900	6
0.56267	6
0.56633	8
0.57000	10
0.57367	12
0.57733	12
0.58100	14
0.58467	17
0.58833	20
0.59200	22
0.59567	23
0.59933	22
0.60300	18
0.60667	17
0.61033	14
0.61400	9
0.61767	6
0.62133	9
0.62500	16
0.62867	20
0.63233	18
0.63600	17
0.63967	17
0.64333	16
0.64700	12
0.65067	9
0.65433	6
0.65800	-0
0.66167	-5
0.66533	-8
0.66900	-12
0.67267	-16
0.67633	-18
0.68000	-17
0.68367	-12
0.68733	-10
0.69100	-10
0.69467	-9
0.69833	-8
0.70200	-8
0.70567	-5
0.70933	-0
0.71300	8
0.71667	16
0.72033	16
0.72400	8
0.72767	-0
0.73133	-5
0.73500	-2
0.73867	5
0.74233	8
0.74600	6
0.74967	2
0.75333	1
0.75700	3
0.76067	7
0.76433	8
0.76800	8
0.77167	12
0.77533	21
0.77900	28
0.78267	26
0.78633	19
0.79000	12
0.79367	3
0.79733	-7
0.80100	-13
0.80467	-15
0.80833	-16
0.81200	-13
0.81567	-7
0.81933	-3
0.82300	-1
0.82667	5
0.83033	14
0.83400	20
0.83767	21
0.84133	22
0.84500	23
0.84867	21
0.85233	15
0.85600	7
0.85967	1
0.86333	-5
0.86700	-7
0.87067	-3
0.87433	4
0.87800	18
0.88167	31
0.88533	35
0.88900	33
0.89267	28
0.89633	23
0.90000	21
0.90367	21
0.90733	22
0.91100	24
0.91467	29
0.91833	30
0.92200	30
0.92567	30
0.92933	29
0.93300	28
0.93667	27
0.94033	28
0.94400	30
0.94767	29
0.95133	27
0.95500	33
0.95867	45
0.96233	54
0.96600	57
0.96967	52
0.97333	43
0.97700	35
0.98067	31
0.98433	34
0.98800	38
0.99167	42
0.99533	45
0.99900	45
1.00267	47
1.00633	57
1.01000	65
1.01367	65
1.01733	59
1.02100	50
1.02467	42
1.02833	37
1.03200	32
1.03567	28
1.03933	28
1.04300	31
1.04667	30
1.05033	24
1.05400	15
1.05767	11
1.06133	11
1.06500	14
1.06867	17
1.07233	24
1.07600	29
1.07967	30
1.08333	25
1.08700	18
1.09067	13
1.09433	7
1.09800	2
1.10167	-0
1.10533	6
1.10900	16
1.11267	29
1.11633	43
1.12000	51
1.12367	49
1.12733	42
1.13100	35
1.13467	29
1.13833	29
1.14200	36
1.14567	44
1.14933	46
1.15300	39
1.15667	32
1.16033	26
1.16400	19
1.16767	11
1.17133	6
1.17500	6
1.17867	6
1.18233	7
1.18600	9
1.18967	13
1.19333	17
1.19700	18
1.20067	19
1.20433	21
1.20800	23
1.21167	20
1.21533	18
1.21900	20
1.22267	20
1.22633	16
1.23000	12
1.23367	11
1.23733	18
1.24100	25
1.24467	29
1.24833	29
1.25200	27
1.25567	25
1.25933	25
1.26300	22
1.26667	17
1.27033	14
1.27400	14
1.27767	13
1.28133	15
1.28500	18
1.28867	16
1.29233	10
1.29600	4
1.29967	0
1.30333	-4
1.30700	-9
1.31067	-12
1.31433	-13
1.31800	-11
1.32167	-9
1.32533	-4
1.32900	3
1.33267	5
1.33633	6
1.34000	10
1.34367	19
1.34733	27
1.35100	24
1.35467	14
1.35833	6
1.36200	-0
1.36567	-5
1.36933	-9
1.37300	-10
1.37667	-11
1.38033	-8
1.38400	-7
1.38767	-8
1.39133	-11
1.39500	-12
1.39867	-10
1.40233	-10
1.40600	-8
1.40967	-3
1.41333	3
1.41700	8
1.42067	9
1.42433	6
1.42800	5
1.43167	3
1.43533	3
1.43900	24
1.44267	114
1.44633	350
1.45000	938
1.45367	2355
1.45733	4813
1.46100	7856
1.46467	10817
1.46833	13263
1.47200	14977
1.47567	15811
1.47933	15625
1.48300	14403
1.48667	12382
1.49033	9994
1.49400	7669
1.49767	5679
1.50133	4116
1.50500	2954
1.50867	2122
1.51233	1542
1.51600	1137
1.51967	854
1.52333	658
1.52700	521
1.53067	426
1.53433	361
1.53800	326
1.54167	347
1.54533	488
1.54900	784
1.55267	1190
1.55633	1608
1.56000	1963
1.56367	2222
1.56733	2359
1.57100	2349
1.57467	2175
1.57833	1864
1.58200	1487
1.58567	1121
1.58933	816
1.59300	590
1.59667	428
1.60033	317
1.60400	238
1.60767	181
1.61133	136
1.61500	97
1.61867	67
1.62233	50
1.62600	43
1.62967	38
1.63333	37
1.63700	36
1.64067	32
1.64433	28
1.64800	26
1.65167	27
1.65533	32
1.65900	35
1.66267	38
1.66633	40
1.67000	39
1.67367	32
1.67733	23
1.68100	17
1.68467	17
1.68833	24
1.69200	29
1.69567	31
1.69933	32
1.70300	29
1.70667	24
1.71033	20
1.71400	16
1.71767	14
1.72133	15
1.72500	17
1.72867	18
1.73233	18
1.73600	16
1.73967	13
1.74333	9
1.74700	5
1.75067	-0
1.75433	-1
1.75800	2
1.76167	10
1.76533	15
1.76900	17
1.77267	16
1.77633	18
1.78000	17
1.78367	14
1.78733	11
1.79100	7
1.79467	8
1.79833	10
1.80200	12
1.80567	11
1.80933	12
1.81300	13
1.81667	13
1.82033	11
1.82400	11
1.82767	18
1.83133	23
1.83500	23
1.83867	24
1.84233	26
1.84600	30
1.84967	33
1.85333	31
1.85700	24
1.86067	15
1.86433	10
1.86800	9
1.87167	5
1.87533	-1
1.87900	-5
1.88267	-5
1.88633	-3
1.89000	4
1.89367	12
1.89733	17
1.90100	21
1.90467	22
1.90833	22
1.91200	22
1.91567	20
1.91933	17
1.92300	15
1.92667	14
1.93033	15
1.93400	20
1.93767	28
1.94133	34
1.94500	36
1.94867	34
1.95233	47
1.95600	164
1.95967	867
1.96333	4102
1.96700	15441
1.97067	45876
1.97433	109306
1.97800	213142
1.98167	349193
1.98533	495603
1.98900	627073
1.99267	722678
1.99633	768671
2.00000	759780
2.00367	700369
2.00733	604166
2.01100	490520
2.01467	378042
2.01833	279539
2.02200	200634
2.02567	141394
2.02933	98893
2.03300	69315
2.03667	49118
2.04033	35465
2.04400	26255
2.04767	20008
2.05133	15718
2.05500	12718
2.05867	10579
2.06233	9016
2.06600	7840
2.06967	6934
2.07333	6221
2.07700	5646
2.08067	5174
2.08433	4778
2.08800	4442
2.09167	4154
2.09533	3901
2.09900	3674
2.10267	3464
2.10633	3269
2.11000	3093
2.11367	2940
2.11733	2807
2.12100	2691
2.12467	2580
2.12833	2472
2.13200	2369
2.13567	2275
2.13933	2190
2.14300	2111
2.14667	2035
2.15033	1965
2.15400	1900
2.15767	1841
2.16133	1790
2.16500	1742
2.16867	1689
2.17233	1632
2.17600	1582
2.17967	1536
2.18333	1494
2.18700	1458
2.19067	1426
2.19433	1392
2.19800	1358
2.20167	1326
2.20533	1294
2.20900	1263
2.21267	1234
2.21633	1207
2.22000	1183
2.22367	1161
2.22733	1139
2.23100	1122
2.23467	1104
2.23833	1081
2.24200	1056
2.24567	1032
2.24933	1011
2.25300	994
2.25667	980
2.26033	966
2.26400	951
2.26767	935
2.27133	918
2.27500	901
2.27867	883
2.28233	867
2.28600	854
2.28967	844
2.29333	833
2.29700	817
2.30067	802
2.30433	789
2.30800	779
2.31167	773
2.31533	770
2.31900	766
2.32267	756
2.32633	738
2.33000	719
2.33367	701
2.33733	689
2.34100	683
2.34467	680
2.34833	676
2.35200	670
2.35567	658
2.35933	643
2.36300	632
2.36667	626
2.37033	624
2.37400	624
2.37767	623
2.38133	620
2.38500	616
2.38867	614
2.39233	611
2.39600	602
2.39967	589
2.40333	579
2.40700	572
2.41067	566
2.41433	560
2.41800	552
2.42167	540
2.42533	529
2.42900	524
2.43267	523
2.43633	525
2.44000	524
2.44367	523
2.44733	519
2.45100	512
2.45467	509
2.45833	507
2.46200	506
2.46567	508
2.46933	507
2.47300	504
2.47667	502
2.48033	498
2.48400	492
2.48767	482
2.49133	474
2.49500	469
2.49867	469
2.50233	473
2.50600	476
2.50967	479
2.51333	484
2.51700	488
2.52067	489
2.52433	487
2.52800	480
2.53167	472
2.53533	467
2.53900	462
2.54267	457
2.54633	454
2.55000	448
2.55367	438
2.55733	431
2.56100	430
2.56467	429
2.56833	427
2.57200	421
2.57567	413
2.57933	407
2.58300	404
2.58667	402
2.59033	399
2.59400	390
2.59767	383
2.60133	380
2.60500	380
2.60867	381
2.61233	384
2.61600	386
2.61967	387
2.62333	386
2.62700	386
2.63067	390
2.63433	393
2.63800	392
2.64167	387
2.64533	382
2.64900	380
2.65267	377
2.65633	372
2.66000	367
2.66367	363
2.66733	359
2.67100	356
2.67467	355
2.67833	356
2.68200	358
2.68567	360
2.68933	357
2.69300	350
2.69667	346
2.70033	343
2.70400	344
2.70767	346
2.71133	346
2.71500	344
2.71867	342
2.72233	341
2.72600	340
2.72967	338
2.73333	335
2.73700	332
2.74067	332
2.74433	333
2.74800	335
2.75167	341
2.75533	348
2.75900	347
2.76267	341
2.76633	338
2.77000	334
2.77367	331
2.77733	330
2.78100	331
2.78467	329
2.78833	324
2.79200	318
2.79567	315
2.79933	314
2.80300	316
2.80667	319
2.81033	324
2.81400	324
2.81767	322
2.82133	319
2.82500	313
2.82867	308
2.83233	309
2.83600	311
2.83967	311
2.84333	310
2.84700	311
2.85067	314
2.85433	316
2.85800	315
2.86167	310
2.86533	305
2.86900	302
2.87267	302
2.87633	303
2.88000	304
2.88367	306
2.88733	311
2.89100	318
2.89467	324
2.89833	320
2.90200	307
2.90567	293
2.90933	284
2.91300	284
2.91667	287
2.92033	288
2.92400	287
2.92767	287
2.93133	287
2.93500	290
2.93867	294
2.94233	295
2.94600	297
2.94967	296
2.95333	292
2.95700	287
2.96067	278
2.96433	270
2.96800	266
2.97167	266
2.97533	267
2.97900	270
2.98267	275
2.98633	277
2.99000	279
2.99367	282
2.99733	284
3.00100	281
3.00467	277
3.00833	275
3.01200	276
3.01567	276
3.01933	273
3.02300	267
3.02667	263
3.03033	263
3.03400	265
3.03767	263
3.04133	258
3.04500	252
3.04867	247
3.05233	247
3.05600	245
3.05967	244
3.06333	244
3.06700	245
3.07067	247
3.07433	248
3.07800	246
3.08167	243
3.08533	240
3.08900	235
3.09267	230
3.09633	229
3.10000	234
3.10367	240
3.10733	246
3.11100	250
3.11467	251
3.11833	246
3.12200	236
3.12567	226
3.12933	220
3.13300	216
3.13667	216
3.14033	214
3.14400	211
3.14767	214
3.15133	221
3.15500	225
3.15867	223
3.16233	215
3.16600	208
3.16967	206
3.17333	209
3.17700	213
3.18067	219
3.18433	223
3.18800	223
3.19167	224
3.19533	228
3.19900	229
3.20267	227
3.20633	225
3.21000	218
3.21367	211
3.21733	209
3.22100	207
3.22467	203
3.22833	201
3.23200	199
3.23567	199
3.23933	200
3.24300	200
3.24667	199
3.25033	199
3.25400	200
3.25767	205
3.26133	207
3.26500	205
3.26867	202
3.27233	202
3.27600	199
3.27967	193
3.28333	190
3.28700	186
3.29067	183
3.29433	179
3.29800	176
3.30167	175
3.30533	177
3.30900	182
3.31267	185
3.31633	185
3.32000	186
3.32367	188
3.32733	191
3.33100	191
3.33467	187
3.33833	182
3.34200	175
3.34567	167
3.34933	162
3.35300	160
3.35667	159
3.36033	161
3.36400	164
3.36767	165
3.37133	165
3.37500	165
3.37867	164
3.38233	165
3.38600	164
3.38967	162
3.39333	162
3.39700	164
3.40067	165
3.40433	164
3.40800	164
3.41167	165
3.41533	164
3.41900	164
3.42267	161
3.42633	161
3.43000	162
3.43367	161
3.43733	161
3.44100	158
3.44467	148
3.44833	136
3.45200	127
3.45567	123
3.45933	125
3.46300	131
3.46667	143
3.47033	153
3.47400	161
3.47767	165
3.48133	163
3.48500	159
3.48867	154
3.49233	150
3.49600	147
3.49967	147
3.50333	147
3.50700	144
3.51067	141
3.51433	137
3.51800	133
3.52167	127
3.52533	124
3.52900	127
3.53267	132
3.53633	137
3.54000	139
3.54367	136
3.54733	133
3.55100	129
3.55467	128
3.55833	130
3.56200	133
3.56567	136
3.56933	134
3.57300	131
3.57667	129
3.58033	130
3.58400	134
3.58767	141
3.59133	146
3.59500	146
3.59867	142
3.60233	136
3.60600	134
3.60967	131
3.61333	125
3.61700	121
3.62067	118
3.62433	117
3.62800	115
3.63167	113
3.63533	114
3.63900	115
3.64267	117
3.64633	118
3.65000	116
3.65367	110
3.65733	104
3.66100	100
3.66467	98
3.66833	104
3.67200	111
3.67567	115
3.67933	113
3.68300	112
3.68667	113
3.69033	113
3.69400	112
3.69767	109
3.70133	106
3.70500	102
3.70867	98
3.71233	96
3.71600	98
3.71967	101
3.72333	102
3.72700	102
3.73067	101
3.73433	98
3.73800	94
3.74167	94
3.74533	99
3.74900	109
3.75267	120
3.75633	125
3.76000	127
3.76367	122
3.76733	114
3.77100	107
3.77467	103
3.77833	98
3.78200	95
3.78567	95
3.78933	95
3.79300	96
3.79667	96
3.80033	99
3.80400	103
3.80767	106
3.81133	103
3.81500	95
3.81867	84
3.82233	75
3.82600	70
3.82967	70
3.83333	73
3.83700	76
3.84067	78
3.84433	85
3.84800	93
3.85167	98
3.85533	97
3.85900	94
3.86267	84
3.86633	72
3.87000	66
3.87367	65
3.87733	70
3.88100	74
3.88467	75
3.88833	73
3.89200	78
3.89567	88
3.89933	99
3.90300	108
3.90667	109
3.91033	97
3.91400	78
3.91767	62
3.92133	53
3.92500	52
3.92867	55
3.93233	60
3.93600	66
3.93967	70
3.94333	69
3.94700	68
3.95067	71
3.95433	73
3.95800	74
3.96167	74
3.96533	75
3.96900	75
3.97267	75
3.97633	74
3.98000	73
3.98367	76
3.98733	82
3.99100	86
3.99467	85
3.99833	82

[Chromatogram (Ch2)]
Interval(msec)	220
# of Points	1091
Start Time(min)	0.002
End Time(min)	3.998
R.Time (min)	Intensity
0.00167	-1
0.00533	-1
0.00900	-2
0.01267	-2
0.01633	-2
0.02000	-2
0.02367	-2
0.02733	-2
0.03100	-2
0.03467	-2
0.03833	-1
0.04200	-1
0.04567	-0
0.04933	0
0.05300	1
0.05667	1
0.06033	1
0.06400	1
0.06767	2
0.07133	2
0.07500	2
0.07867	2
0.08233	1
0.08600	1
0.08967	1
0.09333	1
0.09700	1
0.10067	1
0.10433	0
0.10800	-0
0.11167	-1
0.11533	-1
0.11900	-1
0.12267	-1
0.12633	-1
0.13000	-2
0.13367	-2
0.13733	-2
0.14100	-2
0.14467	-2
0.14833	-1
0.15200	-1
0.15567	-1
0.15933	-1
0.16300	-1
0.16667	-1
0.17033	-1
0.17400	-1
0.17767	-1
0.18133	-1
0.18500	-1
0.18867	-1
0.19233	-0
0.19600	-0
0.19967	-1
0.20333	-1
0.20700	-1
0.21067	-1
0.21433	-1
0.21800	-1
0.22167	-1
0.22533	-1
0.22900	-2
0.23267	-2
0.23633	-2
0.24000	-2
0.24367	-2
0.24733	-2
0.25100	-2
0.25467	-2
0.25833	-3
0.26200	-3
0.26567	-3
0.26933	-3
0.27300	-2
0.27667	-2
0.28033	-2
0.28400	-2
0.28767	-1
0.29133	-0
0.29500	0
0.29867	1
0.30233	1
0.30600	2
0.30967	2
0.31333	2
0.31700	2
0.32067	2
0.32433	2
0.32800	2
0.33167	3
0.33533	3
0.33900	4
0.34267	4
0.34633	4
0.35000	4
0.35367	4
0.35733	3
0.36100	3
0.36467	3
0.36833	2
0.37200	2
0.37567	2
0.37933	1
0.38300	1
0.38667	1
0.39033	1
0.39400	1
0.39767	1
0.40133	0
0.40500	0
0.40867	0
0.41233	1
0.41600	1
0.41967	1
0.42333	1
0.42700	0
0.43067	0
0.43433	0
0.43800	-0
0.44167	-0
0.44533	-0
0.44900	-0
0.45267	-1
0.45633	-1
0.46000	-1
0.46367	-0
0.46733	-0
0.47100	-0
0.47467	-0
0.47833	-0
0.48200	-0
0.48567	-1
0.48933	-1
0.49300	-1
0.49667	-1
0.50033	-1
0.50400	-1
0.50767	-1
0.51133	-0
0.51500	-0
0.51867	-0
0.52233	-1
0.52600	-1
0.52967	-1
0.53333	-2
0.53700	-3
0.54067	-3
0.54433	-4
0.54800	-4
0.55167	-4
0.55533	-5
0.55900	-5
0.56267	-5
0.56633	-5
0.57000	-5
0.57367	-4
0.57733	-4
0.58100	-4
0.58467	-4
0.58833	-3
0.59200	-3
0.59567	-3
0.59933	-2
0.60300	-2
0.60667	-2
0.61033	-2
0.61400	-2
0.61767	-3
0.62133	-3
0.62500	-3
0.62867	-3
0.63233	-3
0.63600	-3
0.63967	-3
0.64333	-2
0.64700	-2
0.65067	-2
0.65433	-1
0.65800	-1
0.66167	-1
0.66533	-0
0.66900	-0
0.67267	-0
0.67633	-0
0.68000	0
0.68367	1
0.68733	1
0.69100	1
0.69467	1
0.69833	1
0.70200	1
0.70567	1
0.70933	0
0.71300	0
0.71667	0
0.72033	0
0.72400	0
0.72767	-0
0.73133	-0
0.73500	-1
0.73867	-1
0.74233	-1
0.74600	-1
0.74967	-2
0.75333	-2
0.75700	-2
0.76067	-2
0.76433	-2
0.76800	-2
0.77167	-2
0.77533	-2
0.77900	-1
0.78267	-1
0.78633	-1
0.79000	-1
0.79367	-1
0.79733	-1
0.80100	-0
0.80467	-0
0.80833	-0
0.81200	-1
0.81567	-1
0.81933	-1
0.82300	-1
0.82667	-1
0.83033	-1
0.83400	-1
0.83767	-1
0.84133	-1
0.84500	-1
0.84867	-1
0.85233	-1
0.85600	-1
0.85967	-1
0.86333	-1
0.86700	-1
0.87067	-1
0.87433	-2
0.87800	-2
0.88167	-3
0.88533	-3
0.88900	-3
0.89267	-4
0.89633	-4
0.90000	-4
0.90367	-4
0.90733	-4
0.91100	-4
0.91467	-4
0.91833	-4
0.92200	-4
0.92567	-4
0.92933	-4
0.93300	-4
0.93667	-3
0.94033	-3
0.94400	-3
0.94767	-2
0.95133	-2
0.95500	-2
0.95867	-2
0.96233	-2
0.96600	-2
0.96967	-2
0.97333	-2
0.97700	-2
0.98067	-2
0.98433	-2
0.98800	-2
0.99167	-2
0.99533	-2
0.99900	-1
1.00267	-1
1.00633	-1
1.01000	-1
1.01367	-0
1.01733	-0
1.02100	0
1.02467	0
1.02833	0
1.03200	0
1.03567	0
1.03933	0
1.04300	0
1.04667	-0
1.05033	-0
1.05400	-1
1.05767	-1
1.06133	-1
1.06500	-1
1.06867	-2
1.07233	-2
1.07600	-2
1.07967	-2
1.08333	-2
1.08700	-2
1.09067	-2
1.09433	-2
1.09800	-2
1.10167	-2
1.10533	-2
1.10900	-2
1.11267	-2
1.11633	-2
1.12000	-2
1.12367	-2
1.12733	-3
1.13100	-3
1.13467	-3
1.13833	-3
1.14200	-3
1.14567	-3
1.14933	-3
1.15300	-2
1.15667	-2
1.16033	-2
1.16400	-2
1.16767	-2
1.17133	-1
1.17500	-1
1.17867	-1
1.18233	-1
1.18600	-1
1.18967	-1
1.19333	-1
1.19700	-1
1.20067	-1
1.20433	-1
1.20800	-1
1.21167	-1
1.21533	-1
1.21900	-1
1.22267	-1
1.22633	-1
1.23000	-1
1.23367	-1
1.23733	-1
1.24100	-1
1.24467	-0
1.24833	-0
1.25200	-0
1.25567	0
1.25933	0
1.26300	0
1.26667	0
1.27033	0
1.27400	-0
1.27767	-0
1.28133	-0
1.28500	-1
1.28867	-1
1.29233	-1
1.29600	-1
1.29967	-1
1.30333	-1
1.30700	-1
1.31067	-1
1.31433	-1
1.31800	-1
1.32167	-1
1.32533	-1
1.32900	-1
1.33267	-1
1.33633	-1
1.34000	-2
1.34367	-2
1.34733	-2
1.35100	-2
1.35467	-3
1.35833	-3
1.36200	-3
1.36567	-3
1.36933	-3
1.37300	-3
1.37667	-3
1.38033	-3
1.38400	-3
1.38767	-3
1.39133	-3
1.39500	-3
1.39867	-3
1.40233	-2
1.40600	-2
1.40967	-1
1.41333	-1
1.41700	-2
1.42067	-2
1.42433	-2
1.42800	-2
1.43167	-2
1.43533	-2
1.43900	-2
1.44267	-2
1.44633	-2
1.45000	-2
1.45367	-2
1.45733	-3
1.46100	-3
1.46467	-3
1.46833	-4
1.47200	-4
1.47567	-4
1.47933	-5
1.48300	-5
1.48667	-5
1.49033	-5
1.49400	-5
1.49767	-5
1.50133	-6
1.50500	-5
1.50867	-5
1.51233	-5
1.51600	-5
1.51967	-5
1.52333	-5
1.52700	-5
1.53067	-5
1.53433	-5
1.53800	-5
1.54167	-5
1.54533	-4
1.54900	-4
1.55267	-4
1.55633	-3
1.56000	-3
1.56367	-3
1.56733	-2
1.57100	-2
1.57467	-2
1.57833	-2
1.58200	-2
1.58567	-2
1.58933	-2
1.59300	-3
1.59667	-3
1.60033	-4
1.60400	-6
1.60767	-7
1.61133	-9
1.61500	-10
1.61867	-12
1.62233	-15
1.62600	-17
1.62967	-20
1.63333	-23
1.63700	-27
1.64067	-30
1.64433	-33
1.64800	-37
1.65167	-41
1.65533	-45
1.65900	-49
1.66267	-53
1.66633	-57
1.67000	-62
1.67367	-67
1.67733	-72
1.68100	-77
1.68467	-83
1.68833	-87
1.69200	-92
1.69567	-95
1.69933	-98
1.70300	-101
1.70667	-103
1.71033	-104
1.71400	-106
1.71767	-107
1.72133	-108
1.72500	-109
1.72867	-110
1.73233	-110
1.73600	-111
1.73967	-112
1.74333	-112
1.74700	-113
1.75067	-114
1.75433	-114
1.75800	-114
1.76167	-114
1.76533	-114
1.76900	-114
1.77267	-114
1.77633	-114
1.78000	-114
1.78367	-114
1.78733	-114
1.79100	-115
1.79467	-116
1.79833	-117
1.80200	-118
1.80567	-118
1.80933	-118
1.81300	-118
1.81667	-117
1.82033	-117
1.82400	-116
1.82767	-115
1.83133	-115
1.83500	-114
1.83867	-114
1.84233	-114
1.84600	-114
1.84967	-115
1.85333	-115
1.85700	-116
1.86067	-116
1.86433	-116
1.86800	-117
1.87167	-117
1.87533	-117
1.87900	-117
1.88267	-117
1.88633	-117
1.89000	-118
1.89367	-118
1.89733	-118
1.90100	-118
1.90467	-117
1.90833	-117
1.91200	-116
1.91567	-116
1.91933	-115
1.92300	-114
1.92667	-114
1.93033	-114
1.93400	-114
1.93767	-114
1.94133	-114
1.94500	-114
1.94867	-114
1.95233	-114
1.95600	-114
1.95967	-114
1.96333	-114
1.96700	-113
1.97067	-113
1.97433	-112
1.97800	-111
1.98167	-111
1.98533	-110
1.98900	-110
1.99267	-110
1.99633	-110
2.00000	-111
2.00367	-111
2.00733	-111
2.01100	-111
2.01467	-111
2.01833	-111
2.02200	-110
2.02567	-110
2.02933	-109
2.03300	-108
2.03667	-108
2.04033	-107
2.04400	-107
2.04767	-107
2.05133	-107
2.05500	-107
2.05867	-106
2.06233	-106
2.06600	-105
2.06967	-105
2.07333	-105
2.07700	-105
2.08067	-105
2.08433	-105
2.08800	-104
2.09167	-104
2.09533	-103
2.09900	-103
2.10267	-102
2.10633	-101
2.11000	-101
2.11367	-100
2.11733	-100
2.12100	-100
2.12467	-100
2.12833	-100
2.13200	-100
2.13567	-99
2.13933	-99
2.14300	-99
2.14667	-98
2.15033	-98
2.15400	-98
2.15767	-97
2.16133	-97
2.16500	-96
2.16867	-96
2.17233	-96
2.17600	-96
2.17967	-95
2.18333	-95
2.18700	-94
2.19067	-93
2.19433	-93
2.19800	-92
2.20167	-92
2.20533	-92
2.20900	-92
2.21267	-92
2.21633	-92
2.22000	-92
2.22367	-92
2.22733	-91
2.23100	-91
2.23467	-91
2.23833	-91
2.24200	-91
2.24567	-91
2.24933	-90
2.25300	-90
2.25667	-90
2.26033	-89
2.26400	-89
2.26767	-89
2.27133	-88
2.27500	-88
2.27867	-87
2.28233	-86
2.28600	-86
2.28967	-85
2.29333	-85
2.29700	-84
2.30067	-84
2.30433	-84
2.30800	-83
2.31167	-83
2.31533	-83
2.31900	-82
2.32267	-82
2.32633	-81
2.33000	-80
2.33367	-80
2.33733	-79
2.34100	-78
2.34467	-77
2.34833	-76
2.35200	-76
2.35567	-75
2.35933	-75
2.36300	-74
2.36667	-74
2.37033	-73
2.37400	-71
2.37767	-68
2.38133	-65
2.38500	-61
2.38867	-57
2.39233	-52
2.39600	-47
2.39967	-42
2.40333	-38
2.40700	-34
2.41067	-30
2.41433	-26
2.41800	-23
2.42167	-20
2.42533	-18
2.42900	-16
2.43267	-15
2.43633	-14
2.44000	-12
2.44367	-11
2.44733	-10
2.45100	-8
2.45467	-7
2.45833	-5
2.46200	-4
2.46567	-2
2.46933	-1
2.47300	0
2.47667	1
2.48033	2
2.48400	3
2.48767	4
2.49133	5
2.49500	6
2.49867	7
2.50233	8
2.50600	9
2.50967	10
2.51333	11
2.51700	12
2.52067	12
2.52433	12
2.52800	12
2.53167	13
2.53533	13
2.53900	14
2.54267	14
2.54633	15
2.55000	15
2.55367	15
2.55733	15
2.56100	15
2.56467	15
2.56833	15
2.57200	15
2.57567	15
2.57933	15
2.58300	15
2.58667	15
2.59033	15
2.59400	15
2.59767	16
2.60133	16
2.60500	17
2.60867	18
2.61233	19
2.61600	19
2.61967	19
2.62333	18
2.62700	18
2.63067	18
2.63433	17
2.63800	17
2.64167	18
2.64533	18
2.64900	19
2.65267	19
2.65633	20
2.66000	20
2.66367	20
2.66733	20
2.67100	21
2.67467	21
2.67833	22
2.68200	22
2.68567	22
2.68933	23
2.69300	23
2.69667	23
2.70033	23
2.70400	23
2.70767	23
2.71133	23
2.71500	24
2.71867	24
2.72233	24
2.72600	25
2.72967	25
2.73333	26
2.73700	26
2.74067	26
2.74433	27
2.74800	27
2.75167	26
2.75533	26
2.75900	26
2.76267	26
2.76633	25
2.77000	25
2.77367	25
2.77733	25
2.78100	25
2.78467	26
2.78833	26
2.79200	26
2.79567	26
2.79933	27
2.80300	27
2.80667	27
2.81033	27
2.81400	28
2.81767	28
2.82133	28
2.82500	28
2.82867	28
2.83233	27
2.83600	27
2.83967	25
2.84333	22
2.84700	17
2.85067	10
2.85433	0
2.85800	-13
2.86167	-31
2.86533	-53
2.86900	-79
2.87267	-110
2.87633	-144
2.88000	-182
2.88367	-224
2.88733	-270
2.89100	-318
2.89467	-369
2.89833	-421
2.90200	-475
2.90567	-529
2.90933	-584
2.91300	-639
2.91667	-693
2.92033	-747
2.92400	-799
2.92767	-851
2.93133	-904
2.93500	-963
2.93867	-1022
2.94233	-1072
2.94600	-1103
2.94967	-1109
2.95333	-1089
2.95700	-1046
2.96067	-986
2.96433	-913
2.96800	-834
2.97167	-752
2.97533	-672
2.97900	-595
2.98267	-523
2.98633	-457
2.99000	-396
2.99367	-342
2.99733	-294
3.00100	-252
3.00467	-215
3.00833	-183
3.01200	-155
3.01567	-131
3.01933	-110
3.02300	-92
3.02667	-77
3.03033	-64
3.03400	-53
3.03767	-43
3.04133	-35
3.04500	-28
3.04867	-22
3.05233	-17
3.05600	-13
3.05967	-9
3.06333	-5
3.06700	-2
3.07067	0
3.07433	2
3.07800	4
3.08167	6
3.08533	7
3.08900	8
3.09267	9
3.09633	10
3.10000	11
3.10367	12
3.10733	12
3.11100	13
3.11467	14
3.11833	14
3.12200	15
3.12567	16
3.12933	16
3.13300	17
3.13667	17
3.14033	17
3.14400	18
3.14767	18
3.15133	18
3.15500	18
3.15867	18
3.16233	18
3.16600	18
3.16967	18
3.17333	18
3.17700	19
3.18067	19
3.18433	19
3.18800	20
3.19167	20
3.19533	20
3.19900	20
3.20267	21
3.20633	21
3.21000	21
3.21367	21
3.21733	21
3.22100	21
3.22467	22
3.22833	22
3.23200	23
3.23567	23
3.23933	24
3.24300	24
3.24667	25
3.25033	25
3.25400	26
3.25767	26
3.26133	27
3.26500	27
3.26867	27
3.27233	27
3.27600	27
3.27967	27
3.28333	27
3.28700	27
3.29067	28
3.29433	28
3.29800	28
3.30167	28
3.30533	28
3.30900	28
3.31267	28
3.31633	28
3.32000	28
3.32367	28
3.32733	29
3.33100	29
3.33467	29
3.33833	29
3.34200	29
3.34567	29
3.34933	29
3.35300	29
3.35667	28
3.36033	28
3.36400	28
3.36767	28
3.37133	28
3.37500	28
3.37867	28
3.38233	28
3.38600	28
3.38967	28
3.39333	28
3.39700	28
3.40067	28
3.40433	27
3.40800	27
3.41167	27
3.41533	27
3.41900	27
3.42267	27
3.42633	27
3.43000	27
3.43367	26
3.43733	26
3.44100	26
3.44467	26
3.44833	26
3.45200	25
3.45567	25
3.45933	25
3.46300	25
3.46667	25
3.47033	24
3.47400	24
3.47767	24
3.48133	24
3.48500	24
3.48867	25
3.49233	25
3.49600	25
3.49967	25
3.50333	25
3.50700	25
3.51067	25
3.51433	25
3.51800	25
3.52167	25
3.52533	25
3.52900	25
3.53267	25
3.53633	25
3.54000	25
3.54367	25
3.54733	25
3.55100	25
3.55467	26
3.55833	26
3.56200	26
3.56567	27
3.56933	27
3.57300	27
3.57667	27
3.58033	27
3.58400	27
3.58767	27
3.59133	26
3.59500	26
3.59867	26
3.60233	26
3.60600	27
3.60967	27
3.61333	27
3.61700	27
3.62067	27
3.62433	27
3.62800	28
3.63167	28
3.63533	28
3.63900	28
3.64267	28
3.64633	28
3.65000	28
3.65367	28
3.65733	28
3.66100	28
3.66467	28
3.66833	28
3.67200	28
3.67567	28
3.67933	28
3.68300	28
3.68667	28
3.69033	28
3.69400	28
3.69767	28
3.70133	28
3.70500	28
3.70867	28
3.71233	28
3.71600	27
3.71967	27
3.72333	27
3.72700	27
3.73067	26
3.73433	26
3.73800	26
3.74167	27
3.74533	27
3.74900	27
3.75267	27
3.75633	27
3.76000	27
3.76367	27
3.76733	27
3.77100	27
3.77467	27
3.77833	27
3.78200	27
3.78567	26
3.78933	26
3.79300	26
3.79667	26
3.80033	26
3.80400	26
3.80767	26
3.81133	26
3.81500	26
3.81867	26
3.82233	27
3.82600	27
3.82967	27
3.83333	27
3.83700	27
3.84067	27
3.84433	27
3.84800	27
3.85167	27
3.85533	27
3.85900	27
3.86267	27
3.86633	28
3.87000	28
3.87367	28
3.87733	28
3.88100	28
3.88467	27
3.88833	27
3.89200	27
3.89567	27
3.89933	27
3.90300	27
3.90667	27
3.91033	27
3.91400	27
3.91767	27
3.92133	27
3.92500	27
3.92867	27
3.93233	27
3.93600	26
3.93967	26
3.94333	26
3.94700	26
3.95067	25
3.95433	25
3.95800	25
3.96167	25
3.96533	25
3.96900	25
3.97267	25
3.97633	25
3.98000	26
3.98367	26
3.98733	26
3.99100	27
3.99467	27
3.99833	27

[Chromatogram (Ch3)]
Interval(msec)	220
# of Points	1091
Start Time(min)	0.002
End Time(min)	3.998
R.Time (min)	Intensity
0.00167	-0
0.00533	-1
0.00900	-1
0.01267	-2
0.01633	-3
0.02000	-3
0.02367	-2
0.02733	-2
0.03100	-3
0.03467	-5
0.03833	-7
0.04200	-5
0.04567	-5
0.04933	-4
0.05300	-4
0.05667	-3
0.06033	-3
0.06400	-3
0.06767	-2
0.07133	-2
0.07500	-2
0.07867	-4
0.08233	-4
0.08600	-4
0.08967	-4
0.09333	-4
0.09700	-3
0.10067	-2
0.10433	-2
0.10800	-3
0.11167	-5
0.11533	-5
0.11900	-4
0.12267	-4
0.12633	-4
0.13000	-4
0.13367	-5
0.13733	-5
0.14100	-4
0.14467	-1
0.14833	-1
0.15200	-2
0.15567	-3
0.15933	-3
0.16300	-3
0.16667	-4
0.17033	-5
0.17400	-4
0.17767	-3
0.18133	-2
0.18500	-2
0.18867	-0
0.19233	-0
0.19600	-0
0.19967	-0
0.20333	1
0.20700	3
0.21067	3
0.21433	1
0.21800	-1
0.22167	-2
0.22533	-3
0.22900	-6
0.23267	-7
0.23633	-7
0.24000	-7
0.24367	-9
0.24733	-9
0.25100	-7
0.25467	-5
0.25833	-3
0.26200	-3
0.26567	-4
0.26933	-4
0.27300	-6
0.27667	-9
0.28033	-10
0.28400	-9
0.28767	-8
0.29133	-8
0.29500	-8
0.29867	-8
0.30233	-9
0.30600	-11
0.30967	-9
0.31333	-7
0.31700	-5
0.32067	-5
0.32433	-5
0.32800	-4
0.33167	-4
0.33533	-5
0.33900	-5
0.34267	-5
0.34633	-5
0.35000	-6
0.35367	-6
0.35733	-5
0.36100	-5
0.36467	-5
0.36833	-6
0.37200	-7
0.37567	-7
0.37933	-8
0.38300	-6
0.38667	-4
0.39033	-4
0.39400	-6
0.39767	-8
0.40133	-9
0.40500	-9
0.40867	-9
0.41233	-10
0.41600	-9
0.41967	-7
0.42333	-4
0.42700	-4
0.43067	-5
0.43433	-7
0.43800	-9
0.44167	-10
0.44533	-10
0.44900	-9
0.45267	-10
0.45633	-9
0.46000	-7
0.46367	-4
0.46733	-3
0.47100	-4
0.47467	-6
0.47833	-6
0.48200	-6
0.48567	-7
0.48933	-7
0.49300	-8
0.49667	-7
0.50033	-7
0.50400	-9
0.50767	-8
0.51133	-7
0.51500	-8
0.51867	-8
0.52233	-8
0.52600	-9
0.52967	-9
0.53333	-9
0.53700	-9
0.54067	-9
0.54433	-9
0.54800	-10
0.55167	-9
0.55533	-7
0.55900	-6
0.56267	-2
0.56633	-0
0.57000	-1
0.57367	-4
0.57733	-5
0.58100	-4
0.58467	-4
0.58833	-4
0.59200	-3
0.59567	-5
0.59933	-7
0.60300	-8
0.60667	-7
0.61033	-6
0.61400	-5
0.61767	-4
0.62133	-3
0.62500	-3
0.62867	-3
0.63233	-1
0.63600	1
0.63967	1
0.64333	-1
0.64700	-4
0.65067	-5
0.65433	-4
0.65800	-2
0.66167	-1
0.66533	-1
0.66900	-3
0.67267	-4
0.67633	-6
0.68000	-4
0.68367	-3
0.68733	-1
0.69100	-0
0.69467	-2
0.69833	-1
0.70200	-0
0.70567	-1
0.70933	-3
0.71300	-6
0.71667	-7
0.72033	-7
0.72400	-5
0.72767	-6
0.73133	-7
0.73500	-8
0.73867	-7
0.74233	-6
0.74600	-5
0.74967	-4
0.75333	-3
0.75700	-1
0.76067	1
0.76433	2
0.76800	3
0.77167	2
0.77533	2
0.77900	2
0.78267	3
0.78633	1
0.79000	-0
0.79367	-0
0.79733	1
0.80100	2
0.80467	2
0.80833	1
0.81200	0
0.81567	-0
0.81933	-0
0.82300	1
0.82667	3
0.83033	4
0.83400	2
0.83767	2
0.84133	0
0.84500	-0
0.84867	0
0.85233	-1
0.85600	-3
0.85967	-3
0.86333	-0
0.86700	2
0.87067	4
0.87433	4
0.87800	3
0.88167	2
0.88533	3
0.88900	7
0.89267	8
0.89633	6
0.90000	4
0.90367	3
0.90733	4
0.91100	5
0.91467	6
0.91833	7
0.92200	9
0.92567	12
0.92933	12
0.93300	10
0.93667	8
0.94033	7
0.94400	9
0.94767	11
0.95133	12
0.95500	11
0.95867	9
0.96233	8
0.96600	8
0.96967	8
0.97333	8
0.97700	8
0.98067	10
0.98433	10
0.98800	10
0.99167	11
0.99533	12
0.99900	12
1.00267	10
1.00633	8
1.01000	8
1.01367	7
1.01733	9
1.02100	11
1.02467	11
1.02833	11
1.03200	13
1.03567	12
1.03933	10
1.04300	8
1.04667	8
1.05033	7
1.05400	7
1.05767	6
1.06133	6
1.06500	6
1.06867	5
1.07233	4
1.07600	7
1.07967	7
1.08333	7
1.08700	6
1.09067	5
1.09433	5
1.09800	6
1.10167	7
1.10533	6
1.10900	6
1.11267	8
1.11633	9
1.12000	10
1.12367	10
1.12733	11
1.13100	13
1.13467	15
1.13833	15
1.14200	14
1.14567	14
1.14933	15
1.15300	15
1.15667	14
1.16033	13
1.16400	12
1.16767	11
1.17133	13
1.17500	13
1.17867	12
1.18233	11
1.18600	8
1.18967	7
1.19333	8
1.19700	9
1.20067	10
1.20433	11
1.20800	13
1.21167	13
1.21533	12
1.21900	12
1.22267	13
1.22633	14
1.23000	14
1.23367	15
1.23733	13
1.24100	11
1.24467	11
1.24833	11
1.25200	10
1.25567	9
1.25933	11
1.26300	9
1.26667	10
1.27033	13
1.27400	16
1.27767	17
1.28133	16
1.28500	14
1.28867	12
1.29233	11
1.29600	11
1.29967	10
1.30333	10
1.30700	11
1.31067	12
1.31433	13
1.31800	13
1.32167	13
1.32533	13
1.32900	12
1.33267	12
1.33633	12
1.34000	15
1.34367	16
1.34733	14
1.35100	12
1.35467	10
1.35833	9
1.36200	9
1.36567	9
1.36933	10
1.37300	10
1.37667	12
1.38033	14
1.38400	13
1.38767	12
1.39133	10
1.39500	10
1.39867	12
1.40233	14
1.40600	14
1.40967	13
1.41333	12
1.41700	12
1.42067	13
1.42433	13
1.42800	14
1.43167	15
1.43533	15
1.43900	17
1.44267	17
1.44633	15
1.45000	15
1.45367	15
1.45733	15
1.46100	15
1.46467	16
1.46833	14
1.47200	13
1.47567	13
1.47933	13
1.48300	14
1.48667	14
1.49033	15
1.49400	15
1.49767	15
1.50133	16
1.50500	15
1.50867	13
1.51233	12
1.51600	13
1.51967	13
1.52333	14
1.52700	15
1.53067	15
1.53433	15
1.53800	14
1.54167	13
1.54533	14
1.54900	14
1.55267	14
1.55633	14
1.56000	13
1.56367	11
1.56733	10
1.57100	12
1.57467	12
1.57833	14
1.58200	16
1.58567	17
1.58933	17
1.59300	17
1.59667	17
1.60033	18
1.60400	19
1.60767	17
1.61133	16
1.61500	14
1.61867	13
1.62233	13
1.62600	15
1.62967	18
1.63333	20
1.63700	19
1.64067	19
1.64433	18
1.64800	18
1.65167	17
1.65533	18
1.65900	21
1.66267	22
1.66633	22
1.67000	26
1.67367	28
1.67733	30
1.68100	30
1.68467	30
1.68833	30
1.69200	30
1.69567	28
1.69933	29
1.70300	30
1.70667	30
1.71033	28
1.71400	28
1.71767	27
1.72133	25
1.72500	27
1.72867	28
1.73233	29
1.73600	30
1.73967	32
1.74333	32
1.74700	34
1.75067	36
1.75433	37
1.75800	37
1.76167	37
1.76533	36
1.76900	35
1.77267	35
1.77633	33
1.78000	31
1.78367	31
1.78733	33
1.79100	35
1.79467	38
1.79833	39
1.80200	39
1.80567	38
1.80933	39
1.81300	40
1.81667	40
1.82033	41
1.82400	44
1.82767	46
1.83133	46
1.83500	46
1.83867	48
1.84233	50
1.84600	48
1.84967	47
1.85333	47
1.85700	46
1.86067	45
1.86433	43
1.86800	40
1.87167	40
1.87533	40
1.87900	41
1.88267	43
1.88633	46
1.89000	48
1.89367	48
1.89733	49
1.90100	49
1.90467	49
1.90833	52
1.91200	55
1.91567	58
1.91933	56
1.92300	55
1.92667	56
1.93033	56
1.93400	56
1.93767	56
1.94133	55
1.94500	53
1.94867	53
1.95233	55
1.95600	57
1.95967	61
1.96333	66
1.96700	67
1.97067	67
1.97433	67
1.97800	67
1.98167	68
1.98533	68
1.98900	69
1.99267	71
1.99633	72
2.00000	72
2.00367	72
2.00733	73
2.01100	74
2.01467	75
2.01833	77
2.02200	77
2.02567	77
2.02933	77
2.03300	76
2.03667	75
2.04033	76
2.04400	79
2.04767	81
2.05133	83
2.05500	86
2.05867	86
2.06233	83
2.06600	82
2.06967	83
2.07333	84
2.07700	86
2.08067	90
2.08433	92
2.08800	94
2.09167	97
2.09533	97
2.09900	97
2.10267	96
2.10633	95
2.11000	95
2.11367	96
2.11733	98
2.12100	99
2.12467	101
2.12833	103
2.13200	107
2.13567	107
2.13933	107
2.14300	111
2.14667	113
2.15033	115
2.15400	118
2.15767	118
2.16133	119
2.16500	120
2.16867	122
2.17233	122
2.17600	122
2.17967	124
2.18333	124
2.18700	125
2.19067	128
2.19433	129
2.19800	130
2.20167	130
2.20533	131
2.20900	132
2.21267	133
2.21633	136
2.22000	139
2.22367	140
2.22733	141
2.23100	142
2.23467	145
2.23833	146
2.24200	145
2.24567	145
2.24933	146
2.25300	149
2.25667	153
2.26033	156
2.26400	160
2.26767	161
2.27133	160
2.27500	161
2.27867	163
2.28233	163
2.28600	162
2.28967	163
2.29333	163
2.29700	163
2.30067	163
2.30433	167
2.30800	171
2.31167	175
2.31533	177
2.31900	179
2.32267	182
2.32633	183
2.33000	182
2.33367	184
2.33733	184
2.34100	183
2.34467	184
2.34833	187
2.35200	190
2.35567	193
2.35933	194
2.36300	195
2.36667	198
2.37033	200
2.37400	203
2.37767	207
2.38133	211
2.38500	211
2.38867	210
2.39233	210
2.39600	213
2.39967	218
2.40333	220
2.40700	222
2.41067	224
2.41433	229
2.41800	231
2.42167	233
2.42533	235
2.42900	237
2.43267	240
2.43633	242
2.44000	248
2.44367	292
2.44733	408
2.45100	540
2.45467	648
2.45833	711
2.46200	708
2.46567	661
2.46933	607
2.47300	563
2.47667	537
2.48033	521
2.48400	502
2.48767	474
2.49133	436
2.49500	398
2.49867	363
2.50233	336
2.50600	317
2.50967	306
2.51333	300
2.51700	300
2.52067	308
2.52433	322
2.52800	338
2.53167	352
2.53533	361
2.53900	367
2.54267	363
2.54633	351
2.55000	331
2.55367	306
2.55733	281
2.56100	259
2.56467	244
2.56833	232
2.57200	223
2.57567	217
2.57933	214
2.58300	210
2.58667	210
2.59033	209
2.59400	207
2.59767	204
2.60133	198
2.60500	187
2.60867	174
2.61233	157
2.61600	138
2.61967	122
2.62333	108
2.62700	98
2.63067	95
2.63433	95
2.63800	100
2.64167	109
2.64533	117
2.64900	127
2.65267	136
2.65633	146
2.66000	155
2.66367	161
2.66733	167
2.67100	171
2.67467	172
2.67833	167
2.68200	161
2.68567	155
2.68933	149
2.69300	144
2.69667	139
2.70033	135
2.70400	132
2.70767	129
2.71133	128
2.71500	128
2.71867	130
2.72233	132
2.72600	132
2.72967	129
2.73333	128
2.73700	129
2.74067	130
2.74433	131
2.74800	130
2.75167	130
2.75533	134
2.75900	138
2.76267	140
2.76633	141
2.77000	142
2.77367	144
2.77733	144
2.78100	144
2.78467	144
2.78833	142
2.79200	141
2.79567	142
2.79933	145
2.80300	146
2.80667	147
2.81033	148
2.81400	150
2.81767	157
2.82133	176
2.82500	217
2.82867	297
2.83233	438
2.83600	662
2.83967	985
2.84333	1413
2.84700	1936
2.85067	2526
2.85433	3142
2.85800	3738
2.86167	4258
2.86533	4665
2.86900	4933
2.87267	5054
2.87633	5033
2.88000	4887
2.88367	4646
2.88733	4337
2.89100	3992
2.89467	3638
2.89833	3285
2.90200	2944
2.90567	2627
2.90933	2336
2.91300	2069
2.91667	1831
2.92033	1619
2.92400	1431
2.92767	1268
2.93133	1125
2.93500	997
2.93867	888
2.94233	795
2.94600	715
2.94967	645
2.95333	584
2.95700	529
2.96067	482
2.96433	442
2.96800	408
2.97167	379
2.97533	352
2.97900	328
2.98267	307
2.98633	288
2.99000	272
2.99367	256
2.99733	243
3.00100	232
3.00467	221
3.00833	213
3.01200	205
3.01567	196
3.01933	188
3.02300	183
3.02667	177
3.03033	172
3.03400	167
3.03767	162
3.04133	157
3.04500	154
3.04867	150
3.05233	146
3.05600	145
3.05967	143
3.06333	140
3.06700	135
3.07067	114
3.07433	60
3.07800	4
3.08167	-18
3.08533	-7
3.08900	23
3.09267	68
3.09633	122
3.10000	183
3.10367	243
3.10733	303
3.11100	358
3.11467	409
3.11833	455
3.12200	496
3.12567	532
3.12933	561
3.13300	585
3.13667	604
3.14033	620
3.14400	634
3.14767	643
3.15133	649
3.15500	652
3.15867	657
3.16233	661
3.16600	663
3.16967	664
3.17333	666
3.17700	669
3.18067	669
3.18433	671
3.18800	672
3.19167	671
3.19533	668
3.19900	668
3.20267	667
3.20633	668
3.21000	671
3.21367	673
3.21733	673
3.22100	671
3.22467	671
3.22833	671
3.23200	672
3.23567	672
3.23933	673
3.24300	675
3.24667	676
3.25033	676
3.25400	673
3.25767	670
3.26133	671
3.26500	673
3.26867	674
3.27233	675
3.27600	677
3.27967	680
3.28333	682
3.28700	683
3.29067	686
3.29433	690
3.29800	692
3.30167	695
3.30533	698
3.30900	698
3.31267	697
3.31633	699
3.32000	702
3.32367	707
3.32733	711
3.33100	715
3.33467	719
3.33833	721
3.34200	725
3.34567	729
3.34933	733
3.35300	732
3.35667	733
3.36033	735
3.36400	737
3.36767	740
3.37133	742
3.37500	746
3.37867	752
3.38233	753
3.38600	752
3.38967	751
3.39333	751
3.39700	751
3.40067	750
3.40433	748
3.40800	746
3.41167	744
3.41533	743
3.41900	743
3.42267	743
3.42633	741
3.43000	736
3.43367	733
3.43733	730
3.44100	726
3.44467	721
3.44833	714
3.45200	707
3.45567	701
3.45933	697
3.46300	694
3.46667	692
3.47033	687
3.47400	682
3.47767	676
3.48133	668
3.48500	660
3.48867	652
3.49233	647
3.49600	644
3.49967	641
3.50333	639
3.50700	636
3.51067	632
3.51433	628
3.51800	628
3.52167	626
3.52533	626
3.52900	624
3.53267	623
3.53633	620
3.54000	618
3.54367	615
3.54733	614
3.55100	614
3.55467	613
3.55833	613
3.56200	613
3.56567	613
3.56933	611
3.57300	608
3.57667	606
3.58033	604
3.58400	603
3.58767	604
3.59133	604
3.59500	603
3.59867	600
3.60233	598
3.60600	597
3.60967	595
3.61333	593
3.61700	592
3.62067	592
3.62433	592
3.62800	593
3.63167	595
3.63533	598
3.63900	598
3.64267	596
3.64633	596
3.65000	597
3.65367	595
3.65733	593
3.66100	592
3.66467	590
3.66833	587
3.67200	587
3.67567	587
3.67933	586
3.68300	586
3.68667	585
3.69033	586
3.69400	585
3.69767	585
3.70133	586
3.70500	589
3.70867	590
3.71233	589
3.71600	589
3.71967	589
3.72333	588
3.72700	586
3.73067	586
3.73433	587
3.73800	588
3.74167	588
3.74533	588
3.74900	589
3.75267	589
3.75633	590
3.76000	591
3.76367	589
3.76733	590
3.77100	590
3.77467	588
3.77833	586
3.78200	585
3.78567	586
3.78933	587
3.79300	585
3.79667	583
3.80033	584
3.80400	585
3.80767	585
3.81133	583
3.81500	581
3.81867	579
3.82233	578
3.82600	575
3.82967	573
3.83333	572
3.83700	571
3.84067	570
3.84433	570
3.84800	569
3.85167	570
3.85533	571
3.85900	571
3.86267	569
3.86633	565
3.87000	562
3.87367	561
3.87733	561
3.88100	559
3.88467	558
3.88833	558
3.89200	556
3.89567	557
3.89933	556
3.90300	555
3.90667	553
3.91033	550
3.91400	546
3.91767	546
3.92133	548
3.92500	548
3.92867	549
3.93233	548
3.93600	548
3.93967	548
3.94333	546
3.94700	545
3.95067	543
3.95433	540
3.95800	538
3.96167	537
3.96533	538
3.96900	535
3.97267	532
3.97633	532
3.98000	532
3.98367	529
3.98733	529
3.99100	530
3.99467	528
3.99833	521

[Status Trace (Column Oven Temperature)]
Interval(msec)	1000
# of Points	240
Start Time(min)	0.014
End Time(min)	3.997
Intensity Units	
Intensity Multiplier	1
R.Time (min)	Intensity
0.01395	35.05
0.03062	35.05
0.04728	35.04
0.06395	35.03
0.08062	35.02
0.09728	35.03
0.11395	35.04
0.13062	35.05
0.14728	35.05
0.16395	35.04
0.18062	35.04
0.19728	35.04
0.21395	35.04
0.23062	35.04
0.24728	35.05
0.26395	35.07
0.28062	35.06
0.29728	35.04
0.31395	35.02
0.33062	35.00
0.34728	34.98
0.36395	34.98
0.38062	34.98
0.39728	34.98
0.41395	34.98
0.43062	34.98
0.44728	34.99
0.46395	34.98
0.48062	34.98
0.49728	34.98
0.51395	34.98
0.53062	34.99
0.54728	35.00
0.56395	35.02
0.58062	35.02
0.59728	35.02
0.61395	35.03
0.63062	35.02
0.64728	35.02
0.66395	35.01
0.68062	35.00
0.69728	35.00
0.71395	35.00
0.73062	35.01
0.74728	35.01
0.76395	35.01
0.78062	35.01
0.79728	34.99
0.81395	34.99
0.83062	35.00
0.84728	35.00
0.86395	35.01
0.88062	35.01
0.89728	35.02
0.91395	35.03
0.93062	35.03
0.94728	35.02
0.96395	35.02
0.98062	35.02
0.99728	35.01
1.01395	35.00
1.03062	35.00
1.04728	34.99
1.06395	35.00
1.08062	35.00
1.09728	35.00
1.11395	35.01
1.13062	35.01
1.14728	35.01
1.16395	35.01
1.18062	35.01
1.19728	35.00
1.21395	35.00
1.23062	34.99
1.24728	34.98
1.26395	34.98
1.28062	34.97
1.29728	34.97
1.31395	34.97
1.33062	34.97
1.34728	34.98
1.36395	34.99
1.38062	34.99
1.39728	34.99
1.41395	34.99
1.43062	34.99
1.44728	34.99
1.46395	34.99
1.48062	35.00
1.49728	35.01
1.51395	35.02
1.53062	35.02
1.54728	35.03
1.56395	35.02
1.58062	35.01
1.59728	35.04
1.61395	35.12
1.63062	35.26
1.64728	35.47
1.66395	35.74
1.68062	36.11
1.69728	36.46
1.71395	36.81
1.73062	37.14
1.74728	37.48
1.76395	37.80
1.78062	38.14
1.79728	38.50
1.81395	38.81
1.83062	39.11
1.84728	39.45
1.86395	39.79
1.88062	40.12
1.89728	40.45
1.91395	40.76
1.93062	41.08
1.94728	41.42
1.96395	41.74
1.98062	42.07
1.99728	42.41
2.01395	42.74
2.03062	43.06
2.04728	43.40
2.06395	43.71
2.08062	44.04
2.09728	44.36
2.11395	44.69
2.13062	45.03
2.14728	45.34
2.16395	45.69
2.18062	46.01
2.19728	46.33
2.21395	46.67
2.23062	47.01
2.24728	47.34
2.26395	47.67
2.28062	47.99
2.29728	48.32
2.31395	48.66
2.33062	48.96
2.34728	49.26
2.36395	49.54
2.38062	49.70
2.39728	49.72
2.41395	49.72
2.43062	49.72
2.44728	49.72
2.46395	49.73
2.48062	49.74
2.49728	49.75
2.51395	49.76
2.53062	49.76
2.54728	49.77
2.56395	49.79
2.58062	49.81
2.59728	49.81
2.61395	49.80
2.63062	49.82
2.64728	49.82
2.66395	49.84
2.68062	49.84
2.69728	49.84
2.71395	49.86
2.73062	49.85
2.74728	49.86
2.76395	49.88
2.78062	49.88
2.79728	49.88
2.81395	49.87
2.83062	49.88
2.84728	49.87
2.86395	49.88
2.88062	49.88
2.89728	49.90
2.91395	49.92
2.93062	49.94
2.94728	49.95
2.96395	49.97
2.98062	49.98
2.99728	49.99
3.01395	50.00
3.03062	50.01
3.04728	50.02
3.06395	50.03
3.08062	50.03
3.09728	50.05
3.11395	50.05
3.13062	50.06
3.14728	50.07
3.16395	50.08
3.18062	50.09
3.19728	50.10
3.21395	50.12
3.23062	50.11
3.24728	50.09
3.26395	50.07
3.28062	50.07
3.29728	50.06
3.31395	50.04
3.33062	50.03
3.34728	50.02
3.36395	50.02
3.38062	50.01
3.39728	50.02
3.41395	50.02
3.43062	50.03
3.44728	50.04
3.46395	50.05
3.48062	50.06
3.49728	50.08
3.51395	50.09
3.53062	50.09
3.54728	50.10
3.56395	50.09
3.58062	50.09
3.59728	50.09
3.61395	50.09
3.63062	50.09
3.64728	50.08
3.66395	50.08
3.68062	50.07
3.69728	50.08
3.71395	50.08
3.73062	50.09
3.74728	50.09
3.76395	50.09
3.78062	50.09
3.79728	50.09
3.81395	50.09
3.83062	50.09
3.84728	50.09
3.86395	50.09
3.88062	50.09
3.89728	50.08
3.91395	50.08
3.93062	50.09
3.94728	50.10
3.96395	50.10
3.98062	50.09
3.99728	50.09

[Status Trace (Injection Unit Temperature)]
Interval(msec)	1000
# of Points	240
Start Time(min)	0.014
End Time(min)	3.997
Intensity Units	
Intensity Multiplier	1
R.Time (min)	Intensity
0.01395	99.98
0.03062	99.97
0.04728	99.98
0.06395	99.98
0.08062	99.98
0.09728	99.98
0.11395	99.98
0.13062	99.98
0.14728	99.98
0.16395	99.98
0.18062	99.98
0.19728	99.98
0.21395	99.98
0.23062	99.98
0.24728	99.98
0.26395	99.98
0.28062	99.98
0.29728	99.98
0.31395	99.98
0.33062	99.98
0.34728	99.98
0.36395	99.98
0.38062	99.98
0.39728	99.98
0.41395	99.98
0.43062	99.98
0.44728	99.98
0.46395	99.98
0.48062	99.98
0.49728	99.98
0.51395	99.98
0.53062	99.98
0.54728	99.98
0.56395	99.99
0.58062	99.98
0.59728	99.97
0.61395	99.98
0.63062	99.98
0.64728	99.98
0.66395	99.98
0.68062	99.98
0.69728	99.98
0.71395	99.99
0.73062	99.98
0.74728	99.98
0.76395	99.99
0.78062	99.98
0.79728	99.98
0.81395	99.98
0.83062	99.98
0.84728	99.98
0.86395	99.98
0.88062	99.98
0.89728	99.98
0.91395	99.98
0.93062	99.98
0.94728	99.98
0.96395	99.98
0.98062	99.98
0.99728	99.98
1.01395	99.98
1.03062	99.97
1.04728	99.98
1.06395	99.98
1.08062	99.98
1.09728	99.98
1.11395	99.98
1.13062	99.98
1.14728	99.98
1.16395	99.98
1.18062	99.98
1.19728	99.98
1.21395	99.98
1.23062	99.98
1.24728	99.98
1.26395	99.97
1.28062	99.98
1.29728	99.98
1.31395	99.98
1.33062	99.98
1.34728	99.98
1.36395	99.98
1.38062	99.98
1.39728	99.98
1.41395	99.98
1.43062	99.99
1.44728	99.98
1.46395	99.98
1.48062	99.98
1.49728	99.98
1.51395	99.98
1.53062	99.98
1.54728	99.98
1.56395	99.98
1.58062	99.98
1.59728	99.98
1.61395	99.98
1.63062	99.99
1.64728	99.99
1.66395	99.99
1.68062	99.98
1.69728	99.98
1.71395	99.98
1.73062	99.98
1.74728	99.98
1.76395	99.98
1.78062	99.98
1.79728	99.98
1.81395	99.99
1.83062	99.98
1.84728	99.99
1.86395	99.98
1.88062	99.98
1.89728	99.98
1.91395	99.98
1.93062	99.98
1.94728	99.98
1.96395	99.98
1.98062	99.98
1.99728	99.98
2.01395	99.98
2.03062	99.98
2.04728	99.98
2.06395	99.97
2.08062	99.98
2.09728	99.97
2.11395	99.98
2.13062	99.98
2.14728	99.98
2.16395	99.97
2.18062	99.97
2.19728	99.97
2.21395	99.98
2.23062	99.98
2.24728	99.97
2.26395	99.97
2.28062	99.97
2.29728	99.97
2.31395	99.97
2.33062	99.97
2.34728	99.97
2.36395	99.97
2.38062	99.97
2.39728	99.97
2.41395	99.97
2.43062	99.98
2.44728	99.97
2.46395	99.97
2.48062	99.97
2.49728	99.97
2.51395	99.97
2.53062	99.98
2.54728	99.97
2.56395	99.97
2.58062	99.98
2.59728	99.98
2.61395	99.98
2.63062	99.98
2.64728	99.97
2.66395	99.98
2.68062	99.98
2.69728	99.98
2.71395	99.98
2.73062	99.99
2.74728	99.98
2.76395	99.99
2.78062	99.99
2.79728	99.99
2.81395	99.99
2.83062	99.99
2.84728	99.99
2.86395	100.00
2.88062	99.99
2.89728	100.00
2.91395	100.00
2.93062	100.00
2.94728	100.00
2.96395	100.00
2.98062	100.00
2.99728	100.00
3.01395	100.01
3.03062	100.01
3.04728	100.01
3.06395	100.01
3.08062	100.01
3.09728	100.01
3.11395	100.02
3.13062	100.01
3.14728	100.01
3.16395	100.02
3.18062	100.02
3.19728	100.02
3.21395	100.02
3.23062	100.02
3.24728	100.02
3.26395	100.02
3.28062	100.02
3.29728	100.03
3.31395	100.03
3.33062	100.02
3.34728	100.03
3.36395	100.03
3.38062	100.03
3.39728	100.03
3.41395	100.03
3.43062	100.03
3.44728	100.04
3.46395	100.04
3.48062	100.04
3.49728	100.04
3.51395	100.04
3.53062	100.04
3.54728	100.04
3.56395	100.04
3.58062	100.04
3.59728	100.04
3.61395	100.05
3.63062	100.04
3.64728	100.04
3.66395	100.05
3.68062	100.05
3.69728	100.04
3.71395	100.04
3.73062	100.05
3.74728	100.04
3.76395	100.05
3.78062	100.05
3.79728	100.05
3.81395	100.05
3.83062	100.04
3.84728	100.05
3.86395	100.05
3.88062	100.05
3.89728	100.05
3.91395	100.05
3.93062	100.05
3.94728	100.05
3.96395	100.05
3.98062	100.04
3.99728	100.04

[Status Trace (Carrier Gas Pressure)]
Interval(msec)	1000
# of Points	240
Start Time(min)	0.014
End Time(min)	3.997
Intensity Units	
Intensity Multiplier	1
R.Time (min)	Intensity
0.01395	57.58
0.03062	55.52
0.04728	57.88
0.06395	59.82
0.08062	58.68
0.09728	57.98
0.11395	57.99
0.13062	58.01
0.14728	58.01
0.16395	58.00
0.18062	58.00
0.19728	58.00
0.21395	58.00
0.23062	58.00
0.24728	58.00
0.26395	58.00
0.28062	58.00
0.29728	58.00
0.31395	58.00
0.33062	58.00
0.34728	58.00
0.36395	58.00
0.38062	58.00
0.39728	58.00
0.41395	58.00
0.43062	58.00
0.44728	58.00
0.46395	58.00
0.48062	58.00
0.49728	58.00
0.51395	58.00
0.53062	58.00
0.54728	58.00
0.56395	58.00
0.58062	58.00
0.59728	58.00
0.61395	58.00
0.63062	58.00
0.64728	58.00
0.66395	58.00
0.68062	58.00
0.69728	58.00
0.71395	58.00
0.73062	58.00
0.74728	58.00
0.76395	58.00
0.78062	58.00
0.79728	58.00
0.81395	58.00
0.83062	58.00
0.84728	58.00
0.86395	58.00
0.88062	58.00
0.89728	58.00
0.91395	58.00
0.93062	58.00
0.94728	58.00
0.96395	58.00
0.98062	58.00
0.99728	58.00
1.01395	58.00
1.03062	58.00
1.04728	58.00
1.06395	58.00
1.08062	58.00
1.09728	58.00
1.11395	58.00
1.13062	58.00
1.14728	58.00
1.16395	58.00
1.18062	58.00
1.19728	58.00
1.21395	58.00
1.23062	58.00
1.24728	58.00
1.26395	58.00
1.28062	58.00
1.29728	58.00
1.31395	58.00
1.33062	58.00
1.34728	58.00
1.36395	58.00
1.38062	58.00
1.39728	58.00
1.41395	58.00
1.43062	58.00
1.44728	58.00
1.46395	58.00
1.48062	58.00
1.49728	58.00
1.51395	58.00
1.53062	58.00
1.54728	58.00
1.56395	58.00
1.58062	58.00
1.59728	58.00
1.61395	58.00
1.63062	58.00
1.64728	58.00
1.66395	58.01
1.68062	58.01
1.69728	58.00
1.71395	58.00
1.73062	58.00
1.74728	58.00
1.76395	58.00
1.78062	58.00
1.79728	58.00
1.81395	58.00
1.83062	58.00
1.84728	58.00
1.86395	58.00
1.88062	58.00
1.89728	58.00
1.91395	58.00
1.93062	58.00
1.94728	58.00
1.96395	58.00
1.98062	58.00
1.99728	58.00
2.01395	58.00
2.03062	58.00
2.04728	58.00
2.06395	58.00
2.08062	58.00
2.09728	58.00
2.11395	58.00
2.13062	58.00
2.14728	58.00
2.16395	58.00
2.18062	58.00
2.19728	58.00
2.21395	58.00
2.23062	58.00
2.24728	58.00
2.26395	58.00
2.28062	58.00
2.29728	58.00
2.31395	58.00
2.33062	58.00
2.34728	58.00
2.36395	58.00
2.38062	57.99
2.39728	57.99
2.41395	58.00
2.43062	58.00
2.44728	58.00
2.46395	58.00
2.48062	58.00
2.49728	58.00
2.51395	57.99
2.53062	57.99
2.54728	58.00
2.56395	58.00
2.58062	58.00
2.59728	58.00
2.61395	58.00
2.63062	58.00
2.64728	58.00
2.66395	58.00
2.68062	58.00
2.69728	58.00
2.71395	58.00
2.73062	58.00
2.74728	58.00
2.76395	58.00
2.78062	58.00
2.79728	58.00
2.81395	58.00
2.83062	58.00
2.84728	58.00
2.86395	58.00
2.88062	58.00
2.89728	58.00
2.91395	58.00
2.93062	58.00
2.94728	58.00
2.96395	58.00
2.98062	58.00
2.99728	58.00
3.01395	58.00
3.03062	58.00
3.04728	58.00
3.06395	58.00
3.08062	58.00
3.09728	58.00
3.11395	58.00
3.13062	58.00
3.14728	58.00
3.16395	58.00
3.18062	58.00
3.19728	58.00
3.21395	58.00
3.23062	58.00
3.24728	58.00
3.26395	58.00
3.28062	58.00
3.29728	58.00
3.31395	58.00
3.33062	58.00
3.34728	58.00
3.36395	58.00
3.38062	58.00
3.39728	58.00
3.41395	58.00
3.43062	58.00
3.44728	58.00
3.46395	58.00
3.48062	58.00
3.49728	58.00
3.51395	58.00
3.53062	58.00
3.54728	58.00
3.56395	58.00
3.58062	58.00
3.59728	58.00
3.61395	58.00
3.63062	58.00
3.64728	58.00
3.66395	58.00
3.68062	58.00
3.69728	58.00
3.71395	58.00
3.73062	58.00
3.74728	58.00
3.76395	58.00
3.78062	58.00
3.79728	58.00
3.81395	58.00
3.83062	58.00
3.84728	58.00
3.86395	58.00
3.88062	58.00
3.89728	58.00
3.91395	58.00
3.93062	58.00
3.94728	58.00
3.96395	58.00
3.98062	58.00
3.99728	58.00

[Status Trace (Carrier Gas Flow)]
Interval(msec)	1000
# of Points	240
Start Time(min)	0.014
End Time(min)	3.997
Intensity Units	
Intensity Multiplier	1
R.Time (min)	Intensity
0.01395	34.18
0.03062	34.54
0.04728	34.54
0.06395	34.52
0.08062	34.51
0.09728	34.52
0.11395	34.52
0.13062	34.52
0.14728	34.52
0.16395	34.52
0.18062	34.52
0.19728	34.52
0.21395	34.52
0.23062	34.52
0.24728	34.52
0.26395	34.52
0.28062	34.52
0.29728	34.52
0.31395	34.52
0.33062	34.52
0.34728	34.52
0.36395	34.52
0.38062	34.52
0.39728	34.52
0.41395	34.52
0.43062	34.51
0.44728	34.51
0.46395	34.51
0.48062	34.52
0.49728	34.51
0.51395	34.52
0.53062	34.52
0.54728	34.53
0.56395	34.52
0.58062	34.52
0.59728	34.52
0.61395	34.52
0.63062	34.52
0.64728	34.52
0.66395	34.52
0.68062	34.52
0.69728	34.52
0.71395	34.52
0.73062	34.52
0.74728	34.52
0.76395	34.52
0.78062	34.52
0.79728	34.52
0.81395	34.52
0.83062	34.52
0.84728	34.52
0.86395	34.52
0.88062	34.52
0.89728	34.52
0.91395	34.51
0.93062	34.52
0.94728	34.52
0.96395	34.52
0.98062	34.51
0.99728	34.52
1.01395	34.52
1.03062	34.52
1.04728	34.52
1.06395	34.52
1.08062	34.52
1.09728	34.52
1.11395	34.52
1.13062	34.52
1.14728	34.52
1.16395	34.52
1.18062	34.52
1.19728	34.52
1.21395	34.51
1.23062	34.52
1.24728	34.52
1.26395	34.52
1.28062	34.51
1.29728	34.52
1.31395	34.52
1.33062	34.51
1.34728	34.52
1.36395	34.52
1.38062	34.52
1.39728	34.52
1.41395	34.52
1.43062	34.52
1.44728	34.51
1.46395	34.51
1.48062	34.52
1.49728	34.52
1.51395	34.52
1.53062	34.52
1.54728	34.52
1.56395	34.53
1.58062	34.52
1.59728	34.52
1.61395	34.52
1.63062	34.52
1.64728	34.52
1.66395	34.52
1.68062	34.52
1.69728	34.52
1.71395	34.52
1.73062	34.52
1.74728	34.52
1.76395	34.52
1.78062	34.52
1.79728	34.52
1.81395	34.52
1.83062	34.52
1.84728	34.52
1.86395	34.52
1.88062	34.52
1.89728	34.51
1.91395	34.52
1.93062	34.52
1.94728	34.52
1.96395	34.52
1.98062	34.52
1.99728	34.52
2.01395	34.51
2.03062	34.52
2.04728	34.52
2.06395	34.52
2.08062	34.51
2.09728	34.52
2.11395	34.52
2.13062	34.52
2.14728	34.52
2.16395	34.51
2.18062	34.52
2.19728	34.52
2.21395	34.52
2.23062	34.52
2.24728	34.52
2.26395	34.52
2.28062	34.52
2.29728	34.52
2.31395	34.51
2.33062	34.52
2.34728	34.52
2.36395	34.52
2.38062	34.52
2.39728	34.52
2.41395	34.52
2.43062	34.52
2.44728	34.52
2.46395	34.51
2.48062	34.52
2.49728	34.52
2.51395	34.51
2.53062	34.52
2.54728	34.52
2.56395	34.52
2.58062	34.52
2.59728	34.53
2.61395	34.52
2.63062	34.51
2.64728	34.51
2.66395	34.52
2.68062	34.52
2.69728	34.52
2.71395	34.51
2.73062	34.52
2.74728	34.52
2.76395	34.52
2.78062	34.51
2.79728	34.52
2.81395	34.52
2.83062	34.51
2.84728	34.51
2.86395	34.51
2.88062	34.52
2.89728	34.52
2.91395	34.51
2.93062	34.51
2.94728	34.52
2.96395	34.53
2.98062	34.52
2.99728	34.52
3.01395	34.51
3.03062	34.52
3.04728	34.52
3.06395	34.52
3.08062	34.52
3.09728	34.52
3.11395	34.52
3.13062	34.52
3.14728	34.51
3.16395	34.52
3.18062	34.52
3.19728	34.52
3.21395	34.52
3.23062	34.52
3.24728	34.52
3.26395	34.52
3.28062	34.52
3.29728	34.52
3.31395	34.53
3.33062	34.52
3.34728	34.52
3.36395	34.51
3.38062	34.52
3.39728	34.52
3.41395	34.52
3.43062	34.52
3.44728	34.52
3.46395	34.52
3.48062	34.52
3.49728	34.52
3.51395	34.52
3.53062	34.52
3.54728	34.52
3.56395	34.52
3.58062	34.52
3.59728	34.52
3.61395	34.52
3.63062	34.52
3.64728	34.52
3.66395	34.52
3.68062	34.52
3.69728	34.52
3.71395	34.52
3.73062	34.52
3.74728	34.52
3.76395	34.52
3.78062	34.52
3.79728	34.52
3.81395	34.52
3.83062	34.52
3.84728	34.52
3.86395	34.52
3.88062	34.51
3.89728	34.52
3.91395	34.52
3.93062	34.52
3.94728	34.52
3.96395	34.52
3.98062	34.52
3.99728	34.52

[Status Trace (Column Flow)]
Interval(msec)	1000
# of Points	240
Start Time(min)	0.014
End Time(min)	3.997
Intensity Units	
Intensity Multiplier	1
R.Time (min)	Intensity
0.01395	5.51
0.03062	5.27
0.04728	5.55
0.06395	5.78
0.08062	5.64
0.09728	5.56
0.11395	5.56
0.13062	5.56
0.14728	5.56
0.16395	5.56
0.18062	5.56
0.19728	5.56
0.21395	5.56
0.23062	5.56
0.24728	5.56
0.26395	5.56
0.28062	5.56
0.29728	5.56
0.31395	5.56
0.33062	5.56
0.34728	5.56
0.36395	5.56
0.38062	5.56
0.39728	5.56
0.41395	5.56
0.43062	5.56
0.44728	5.56
0.46395	5.56
0.48062	5.56
0.49728	5.56
0.51395	5.56
0.53062	5.56
0.54728	5.56
0.56395	5.56
0.58062	5.56
0.59728	5.56
0.61395	5.56
0.63062	5.56
0.64728	5.56
0.66395	5.56
0.68062	5.56
0.69728	5.56
0.71395	5.56
0.73062	5.56
0.74728	5.56
0.76395	5.56
0.78062	5.56
0.79728	5.56
0.81395	5.56
0.83062	5.56
0.84728	5.56
0.86395	5.56
0.88062	5.56
0.89728	5.56
0.91395	5.56
0.93062	5.56
0.94728	5.56
0.96395	5.56
0.98062	5.56
0.99728	5.56
1.01395	5.56
1.03062	5.56
1.04728	5.56
1.06395	5.56
1.08062	5.56
1.09728	5.56
1.11395	5.56
1.13062	5.56
1.14728	5.56
1.16395	5.56
1.18062	5.56
1.19728	5.56
1.21395	5.56
1.23062	5.56
1.24728	5.56
1.26395	5.56
1.28062	5.56
1.29728	5.57
1.31395	5.57
1.33062	5.57
1.34728	5.56
1.36395	5.56
1.38062	5.56
1.39728	5.56
1.41395	5.56
1.43062	5.56
1.44728	5.56
1.46395	5.56
1.48062	5.56
1.49728	5.56
1.51395	5.56
1.53062	5.56
1.54728	5.56
1.56395	5.56
1.58062	5.56
1.59728	5.56
1.61395	5.56
1.63062	5.56
1.64728	5.55
1.66395	5.54
1.68062	5.53
1.69728	5.52
1.71395	5.51
1.73062	5.50
1.74728	5.49
1.76395	5.48
1.78062	5.47
1.79728	5.46
1.81395	5.45
1.83062	5.44
1.84728	5.43
1.86395	5.42
1.88062	5.41
1.89728	5.40
1.91395	5.39
1.93062	5.38
1.94728	5.37
1.96395	5.36
1.98062	5.35
1.99728	5.34
2.01395	5.33
2.03062	5.32
2.04728	5.31
2.06395	5.30
2.08062	5.29
2.09728	5.28
2.11395	5.27
2.13062	5.26
2.14728	5.25
2.16395	5.24
2.18062	5.23
2.19728	5.22
2.21395	5.21
2.23062	5.20
2.24728	5.19
2.26395	5.18
2.28062	5.17
2.29728	5.17
2.31395	5.16
2.33062	5.15
2.34728	5.14
2.36395	5.13
2.38062	5.13
2.39728	5.12
2.41395	5.13
2.43062	5.13
2.44728	5.13
2.46395	5.13
2.48062	5.12
2.49728	5.12
2.51395	5.12
2.53062	5.12
2.54728	5.12
2.56395	5.12
2.58062	5.12
2.59728	5.12
2.61395	5.12
2.63062	5.12
2.64728	5.12
2.66395	5.12
2.68062	5.12
2.69728	5.12
2.71395	5.12
2.73062	5.12
2.74728	5.12
2.76395	5.12
2.78062	5.12
2.79728	5.12
2.81395	5.12
2.83062	5.12
2.84728	5.12
2.86395	5.12
2.88062	5.12
2.89728	5.12
2.91395	5.12
2.93062	5.12
2.94728	5.12
2.96395	5.12
2.98062	5.12
2.99728	5.12
3.01395	5.12
3.03062	5.12
3.04728	5.12
3.06395	5.12
3.08062	5.12
3.09728	5.12
3.11395	5.12
3.13062	5.12
3.14728	5.12
3.16395	5.12
3.18062	5.12
3.19728	5.12
3.21395	5.11
3.23062	5.11
3.24728	5.12
3.26395	5.12
3.28062	5.12
3.29728	5.12
3.31395	5.12
3.33062	5.12
3.34728	5.12
3.36395	5.12
3.38062	5.12
3.39728	5.12
3.41395	5.12
3.43062	5.12
3.44728	5.12
3.46395	5.12
3.48062	5.12
3.49728	5.12
3.51395	5.12
3.53062	5.12
3.54728	5.12
3.56395	5.12
3.58062	5.12
3.59728	5.12
3.61395	5.12
3.63062	5.12
3.64728	5.12
3.66395	5.12
3.68062	5.12
3.69728	5.12
3.71395	5.12
3.73062	5.12
3.74728	5.12
3.76395	5.12
3.78062	5.12
3.79728	5.12
3.81395	5.12
3.83062	5.12
3.84728	5.12
3.86395	5.12
3.88062	5.12
3.89728	5.12
3.91395	5.12
3.93062	5.12
3.94728	5.12
3.96395	5.12
3.98062	5.12
3.99728	5.12

[Status Trace (Linear Velocity)]
Interval(msec)	1000
# of Points	240
Start Time(min)	0.014
End Time(min)	3.997
Intensity Units	
Intensity Multiplier	1
R.Time (min)	Intensity
0.01395	38.74
0.03062	37.39
0.04728	38.94
0.06395	40.22
0.08062	39.47
0.09728	39.01
0.11395	39.02
0.13062	39.03
0.14728	39.03
0.16395	39.03
0.18062	39.02
0.19728	39.02
0.21395	39.02
0.23062	39.02
0.24728	39.02
0.26395	39.02
0.28062	39.02
0.29728	39.02
0.31395	39.03
0.33062	39.03
0.34728	39.03
0.36395	39.03
0.38062	39.03
0.39728	39.03
0.41395	39.03
0.43062	39.03
0.44728	39.03
0.46395	39.03
0.48062	39.03
0.49728	39.03
0.51395	39.03
0.53062	39.03
0.54728	39.03
0.56395	39.02
0.58062	39.02
0.59728	39.02
0.61395	39.02
0.63062	39.02
0.64728	39.02
0.66395	39.03
0.68062	39.03
0.69728	39.03
0.71395	39.03
0.73062	39.03
0.74728	39.03
0.76395	39.03
0.78062	39.03
0.79728	39.03
0.81395	39.03
0.83062	39.03
0.84728	39.03
0.86395	39.03
0.88062	39.03
0.89728	39.03
0.91395	39.02
0.93062	39.02
0.94728	39.02
0.96395	39.03
0.98062	39.02
0.99728	39.03
1.01395	39.03
1.03062	39.03
1.04728	39.03
1.06395	39.03
1.08062	39.03
1.09728	39.03
1.11395	39.03
1.13062	39.03
1.14728	39.03
1.16395	39.03
1.18062	39.03
1.19728	39.03
1.21395	39.03
1.23062	39.03
1.24728	39.03
1.26395	39.03
1.28062	39.03
1.29728	39.03
1.31395	39.03
1.33062	39.03
1.34728	39.03
1.36395	39.03
1.38062	39.03
1.39728	39.03
1.41395	39.03
1.43062	39.03
1.44728	39.03
1.46395	39.03
1.48062	39.03
1.49728	39.03
1.51395	39.02
1.53062	39.02
1.54728	39.02
1.56395	39.02
1.58062	39.03
1.59728	39.02
1.61395	39.02
1.63062	39.00
1.64728	38.99
1.66395	38.96
1.68062	38.92
1.69728	38.89
1.71395	38.85
1.73062	38.82
1.74728	38.79
1.76395	38.76
1.78062	38.73
1.79728	38.70
1.81395	38.66
1.83062	38.63
1.84728	38.61
1.86395	38.57
1.88062	38.54
1.89728	38.51
1.91395	38.48
1.93062	38.45
1.94728	38.42
1.96395	38.39
1.98062	38.36
1.99728	38.33
2.01395	38.30
2.03062	38.27
2.04728	38.24
2.06395	38.21
2.08062	38.18
2.09728	38.15
2.11395	38.12
2.13062	38.09
2.14728	38.06
2.16395	38.03
2.18062	38.00
2.19728	37.97
2.21395	37.94
2.23062	37.91
2.24728	37.88
2.26395	37.85
2.28062	37.82
2.29728	37.79
2.31395	37.76
2.33062	37.73
2.34728	37.71
2.36395	37.68
2.38062	37.67
2.39728	37.66
2.41395	37.66
2.43062	37.67
2.44728	37.67
2.46395	37.67
2.48062	37.66
2.49728	37.66
2.51395	37.66
2.53062	37.66
2.54728	37.66
2.56395	37.66
2.58062	37.66
2.59728	37.66
2.61395	37.66
2.63062	37.66
2.64728	37.66
2.66395	37.66
2.68062	37.66
2.69728	37.66
2.71395	37.66
2.73062	37.66
2.74728	37.66
2.76395	37.65
2.78062	37.65
2.79728	37.65
2.81395	37.65
2.83062	37.65
2.84728	37.65
2.86395	37.65
2.88062	37.65
2.89728	37.65
2.91395	37.65
2.93062	37.65
2.94728	37.65
2.96395	37.65
2.98062	37.64
2.99728	37.64
3.01395	37.64
3.03062	37.64
3.04728	37.64
3.06395	37.64
3.08062	37.64
3.09728	37.64
3.11395	37.64
3.13062	37.64
3.14728	37.64
3.16395	37.64
3.18062	37.63
3.19728	37.63
3.21395	37.63
3.23062	37.63
3.24728	37.63
3.26395	37.64
3.28062	37.64
3.29728	37.64
3.31395	37.64
3.33062	37.64
3.34728	37.64
3.36395	37.64
3.38062	37.64
3.39728	37.64
3.41395	37.64
3.43062	37.64
3.44728	37.64
3.46395	37.64
3.48062	37.64
3.49728	37.64
3.51395	37.63
3.53062	37.63
3.54728	37.63
3.56395	37.63
3.58062	37.63
3.59728	37.63
3.61395	37.63
3.63062	37.63
3.64728	37.63
3.66395	37.63
3.68062	37.64
3.69728	37.64
3.71395	37.64
3.73062	37.63
3.74728	37.63
3.76395	37.63
3.78062	37.63
3.79728	37.63
3.81395	37.63
3.83062	37.63
3.84728	37.63
3.86395	37.63
3.88062	37.63
3.89728	37.64
3.91395	37.64
3.93062	37.64
3.94728	37.63
3.96395	37.63
3.98062	37.63
3.99728	37.63

