[Header]
Application Name	LabSolutions
Version	5.110
Data File Name	C:\Users\User\Desktop\GC Analyses\Jack\Nachusa Grasslands Sampling\T1 Timepoint July 12th\T1_07122022_042.gcd
Output Date	3/14/2023
Output Time	3:40:59 PM

[File Information]
Type	Data File
Generated	3/8/2023 5:51:30 PM
Generated by	System Administrator
Modified	3/8/2023 5:58:18 PM
Modified by	System Administrator

[Sample Information]
Operator Name	System Administrator
Acquired	3/8/2023 5:54:17 PM
Sample Type	0:Unknown
Level	0
Sample Name	042
Sample ID	042
ISTD Amount1	1
ISTD Amount2	1
ISTD Amount3	1
ISTD Amount4	1
ISTD Amount5	1
ISTD Amount6	1
ISTD Amount7	1
ISTD Amount8	1
ISTD Amount9	1
ISTD Amount10	1
ISTD Amount11	1
ISTD Amount12	1
ISTD Amount13	1
ISTD Amount14	1
ISTD Amount15	1
ISTD Amount16	1
ISTD Amount17	1
ISTD Amount18	1
ISTD Amount19	1
ISTD Amount20	1
ISTD Amount21	1
ISTD Amount22	1
ISTD Amount23	1
ISTD Amount24	1
ISTD Amount25	1
ISTD Amount26	1
ISTD Amount27	1
ISTD Amount28	1
ISTD Amount29	1
ISTD Amount30	1
ISTD Amount31	1
ISTD Amount32	1
Sample Amount	1
Dilution Factor	1
Vial#	41
Injection Volume	1
Injection Count	1
Bar Code	

[Original Files]
Data File	C:\Users\User\Desktop\GC Analyses\Jack\Nachusa Grasslands Sampling\T1 Timepoint July 12th\T1_07122022_042.gcd
Method File	C:\LabSolutions\Data\GHG_4min_2022\ghg3_togas_w_acet_4 min_new_int.gcm
Batch File	C:\LabSolutions\Data\AutoSamplerTesting\T1_07122022.gcb
Report Format File	c:\LabSolutions\System\DEFAULT.lsr

[File Description]


[Configuration]
Instrument Name	C0B7VH3-Instrument1
Instrument #	1
Line #	1
# of Detectors	3
Detector ID	DET#1	DET#2	DET#3
Detector Name	FID	PTCD	ECD
# of Channels	1	1	1

[Peak Table(Ch1)]
# of Peaks	3
Peak#	R.Time	I.Time	F.Time	Area	Height	A/H	Conc.	Mark	ID#	Name	k'	Plate #	Plate Ht.	Tailing	Resolution	Sep.Factor	Area Ratio	Height Ratio	Conc. %	Norm Conc.
1	1.476	1.435	1.538	35829	17059	2.100	252.953	   	1	CO	0.000	9242	16.230	1.330	0.000	0.000	0	0	38.385	38.385
2	1.567	1.538	1.622	4740	2293	2.067	91.643	 V 	2	CH4	0.062	10409	14.411	0.000	1.492	0.000	0	0	13.907	13.907
3	1.996	1.952	2.451	1252679	590893	2.120	314.389	   	3	CO2	0.353	17411	8.615	1.337	7.035	5.680	0	0	47.708	47.708

[Peak Table(Ch2)]
# of Peaks	0

[Peak Table(Ch3)]
# of Peaks	6
Peak#	R.Time	I.Time	F.Time	Area	Height	A/H	Conc.	Mark	ID#	Name	k'	Plate #	Plate Ht.	Tailing	Resolution	Sep.Factor	Area Ratio	Height Ratio	Conc. %	Norm Conc.
1	2.462	2.381	2.517	1437	445	3.227	0.000	   			0.000	8738	17.166	0.000	0.000	0.000	0	0	0.000	0.000
2	2.539	2.517	2.631	1027	250	4.106	0.000	 V 			0.031	3987	37.618	0.000	0.579	0.000	0	0	0.000	0.000
3	2.675	2.642	2.803	239	66	3.613	0.000	   			0.086	14295	10.493	2.069	1.084	2.762	0	0	0.000	0.000
4	2.873	2.810	3.082	18201	4824	3.773	0.465	   	1	N2O	0.167	13481	11.127	1.689	2.101	1.931	0	0	100.000	100.000
5	3.210	3.195	3.302	45	11	4.291	0.000	   	2	SF6	0.304	32736	4.582	4.047	3.970	1.821	0	0	0.000	0.000
6	3.588	3.397	3.621	576	84	6.829	0.000	   			0.457	5887	25.479	0.587	2.928	1.505	0	0	0.000	0.000

[Compound Results(Ch1)]
# of IDs	6
ID#	Name	R.Time	Area	Height	Conc.	Curve	3rd	2nd	1st	Constant	Area Ratio	Height Ratio	Conc. %	Norm Conc.
1	CO	1.476	35829	17059	252.953	Linear	0.000000e+00	0.000000e+00	1.416423e+002	0.000000e+00	0	0	38.385	38.385
2	CH4	1.567	4740	2293	91.643	Linear	0.000000e+00	0.000000e+00	5.171738e+001	0.000000e+00	0	0	13.907	13.907
3	CO2	1.996	1252679	590893	314.389	Linear	0.000000e+00	0.000000e+00	3.984494e+003	0.000000e+00	0	0	47.708	47.708
4	Ethylene	0.000	0	0	0.000	Linear	0.000000e+00	0.000000e+00	0.000000e+00	0.000000e+00	0	0	0.000	0.000
5	Acetylene	0.000	0	0	0.000	Linear	0.000000e+00	0.000000e+00	0.000000e+00	0.000000e+00	0	0	0.000	0.000
6	Ethane	0.000	0	0	0.000	Linear	0.000000e+00	0.000000e+00	0.000000e+00	0.000000e+00	0	0	0.000	0.000

[Compound Results(Ch2)]
# of IDs	5
ID#	Name	R.Time	Area	Height	Conc.	Curve	3rd	2nd	1st	Constant	Area Ratio	Height Ratio	Conc. %	Norm Conc.
1	Hydrogen	0.000	0	0	0.000	Linear	0.000000e+00	0.000000e+00	0.000000e+00	0.000000e+00	0	0	0.000	0.000
2	Oxygen	0.000	0	0	0.000	Linear	0.000000e+00	0.000000e+00	0.000000e+00	0.000000e+00	0	0	0.000	0.000
3	Nitrogen	0.000	0	0	0.000	Linear	0.000000e+00	0.000000e+00	0.000000e+00	0.000000e+00	0	0	0.000	0.000
4	Methane	0.000	0	0	0.000	Linear	0.000000e+00	0.000000e+00	0.000000e+00	0.000000e+00	0	0	0.000	0.000
5	Carbon Monoxide	0.000	0	0	0.000	Linear	0.000000e+00	0.000000e+00	0.000000e+00	0.000000e+00	0	0	0.000	0.000

[Compound Results(Ch3)]
# of IDs	2
ID#	Name	R.Time	Area	Height	Conc.	Curve	3rd	2nd	1st	Constant	Area Ratio	Height Ratio	Conc. %	Norm Conc.
1	N2O	2.873	18201	4824	0.465	Linear	0.000000e+00	0.000000e+00	3.915173e+004	0.000000e+00	0	0	100.000	100.000
2	SF6	3.210	45	11	0.000	Linear	0.000000e+00	0.000000e+00	0.000000e+00	0.000000e+00	0	0	0.000	0.000

[Group Results(Ch1)]
# of Groups	0

[Group Results(Ch2)]
# of Groups	0

[Group Results(Ch3)]
# of Groups	0

[Chromatogram (Ch1)]
Interval(msec)	220
# of Points	1091
Start Time(min)	0.002
End Time(min)	3.998
R.Time (min)	Intensity
0.00167	1
0.00533	-9
0.00900	-15
0.01267	-19
0.01633	-21
0.02000	-21
0.02367	-19
0.02733	-15
0.03100	-11
0.03467	-6
0.03833	-3
0.04200	-3
0.04567	-7
0.04933	-15
0.05300	-20
0.05667	-22
0.06033	-21
0.06400	-19
0.06767	-15
0.07133	-10
0.07500	-6
0.07867	2
0.08233	7
0.08600	11
0.08967	14
0.09333	18
0.09700	26
0.10067	38
0.10433	45
0.10800	45
0.11167	39
0.11533	31
0.11900	24
0.12267	18
0.12633	17
0.13000	18
0.13367	18
0.13733	16
0.14100	17
0.14467	17
0.14833	18
0.15200	22
0.15567	28
0.15933	35
0.16300	37
0.16667	34
0.17033	28
0.17400	23
0.17767	28
0.18133	32
0.18500	30
0.18867	22
0.19233	15
0.19600	11
0.19967	9
0.20333	9
0.20700	13
0.21067	20
0.21433	23
0.21800	21
0.22167	17
0.22533	14
0.22900	11
0.23267	9
0.23633	13
0.24000	21
0.24367	30
0.24733	37
0.25100	42
0.25467	45
0.25833	45
0.26200	38
0.26567	29
0.26933	20
0.27300	12
0.27667	5
0.28033	2
0.28400	3
0.28767	8
0.29133	13
0.29500	17
0.29867	19
0.30233	16
0.30600	14
0.30967	16
0.31333	20
0.31700	23
0.32067	24
0.32433	23
0.32800	24
0.33167	24
0.33533	24
0.33900	24
0.34267	24
0.34633	22
0.35000	21
0.35367	22
0.35733	22
0.36100	24
0.36467	30
0.36833	39
0.37200	45
0.37567	43
0.37933	36
0.38300	32
0.38667	35
0.39033	41
0.39400	48
0.39767	51
0.40133	51
0.40500	50
0.40867	46
0.41233	42
0.41600	38
0.41967	36
0.42333	38
0.42700	42
0.43067	48
0.43433	52
0.43800	53
0.44167	52
0.44533	51
0.44900	50
0.45267	49
0.45633	48
0.46000	39
0.46367	28
0.46733	24
0.47100	23
0.47467	20
0.47833	19
0.48200	27
0.48567	36
0.48933	42
0.49300	40
0.49667	33
0.50033	25
0.50400	21
0.50767	20
0.51133	18
0.51500	17
0.51867	20
0.52233	27
0.52600	35
0.52967	42
0.53333	46
0.53700	47
0.54067	53
0.54433	59
0.54800	61
0.55167	55
0.55533	45
0.55900	34
0.56267	24
0.56633	20
0.57000	19
0.57367	20
0.57733	22
0.58100	26
0.58467	33
0.58833	38
0.59200	39
0.59567	36
0.59933	33
0.60300	32
0.60667	33
0.61033	35
0.61400	38
0.61767	42
0.62133	46
0.62500	46
0.62867	42
0.63233	41
0.63600	45
0.63967	47
0.64333	46
0.64700	47
0.65067	50
0.65433	52
0.65800	54
0.66167	52
0.66533	50
0.66900	48
0.67267	48
0.67633	48
0.68000	47
0.68367	48
0.68733	51
0.69100	55
0.69467	58
0.69833	61
0.70200	64
0.70567	68
0.70933	69
0.71300	69
0.71667	64
0.72033	60
0.72400	58
0.72767	53
0.73133	46
0.73500	42
0.73867	44
0.74233	49
0.74600	54
0.74967	54
0.75333	55
0.75700	59
0.76067	59
0.76433	57
0.76800	55
0.77167	54
0.77533	51
0.77900	46
0.78267	45
0.78633	45
0.79000	47
0.79367	52
0.79733	62
0.80100	72
0.80467	82
0.80833	89
0.81200	88
0.81567	84
0.81933	85
0.82300	88
0.82667	89
0.83033	89
0.83400	88
0.83767	89
0.84133	91
0.84500	93
0.84867	94
0.85233	91
0.85600	85
0.85967	78
0.86333	72
0.86700	71
0.87067	74
0.87433	81
0.87800	82
0.88167	81
0.88533	80
0.88900	78
0.89267	76
0.89633	80
0.90000	89
0.90367	96
0.90733	97
0.91100	95
0.91467	97
0.91833	103
0.92200	110
0.92567	120
0.92933	127
0.93300	128
0.93667	117
0.94033	99
0.94400	81
0.94767	67
0.95133	62
0.95500	62
0.95867	63
0.96233	62
0.96600	63
0.96967	64
0.97333	69
0.97700	72
0.98067	75
0.98433	78
0.98800	81
0.99167	84
0.99533	89
0.99900	91
1.00267	93
1.00633	96
1.01000	100
1.01367	100
1.01733	96
1.02100	91
1.02467	89
1.02833	89
1.03200	92
1.03567	96
1.03933	101
1.04300	105
1.04667	109
1.05033	110
1.05400	108
1.05767	108
1.06133	106
1.06500	102
1.06867	98
1.07233	99
1.07600	101
1.07967	105
1.08333	107
1.08700	104
1.09067	96
1.09433	88
1.09800	84
1.10167	85
1.10533	86
1.10900	86
1.11267	88
1.11633	91
1.12000	95
1.12367	98
1.12733	93
1.13100	82
1.13467	68
1.13833	57
1.14200	52
1.14567	52
1.14933	54
1.15300	54
1.15667	53
1.16033	55
1.16400	59
1.16767	63
1.17133	68
1.17500	74
1.17867	75
1.18233	73
1.18600	72
1.18967	72
1.19333	74
1.19700	77
1.20067	81
1.20433	82
1.20800	81
1.21167	76
1.21533	74
1.21900	75
1.22267	78
1.22633	84
1.23000	88
1.23367	89
1.23733	90
1.24100	92
1.24467	95
1.24833	95
1.25200	97
1.25567	102
1.25933	106
1.26300	103
1.26667	95
1.27033	84
1.27400	68
1.27767	55
1.28133	50
1.28500	52
1.28867	56
1.29233	58
1.29600	57
1.29967	55
1.30333	52
1.30700	51
1.31067	54
1.31433	65
1.31800	77
1.32167	83
1.32533	79
1.32900	76
1.33267	78
1.33633	78
1.34000	71
1.34367	71
1.34733	78
1.35100	88
1.35467	92
1.35833	89
1.36200	79
1.36567	66
1.36933	59
1.37300	57
1.37667	55
1.38033	51
1.38400	47
1.38767	48
1.39133	50
1.39500	55
1.39867	60
1.40233	58
1.40600	54
1.40967	51
1.41333	51
1.41700	54
1.42067	55
1.42433	55
1.42800	60
1.43167	70
1.43533	78
1.43900	98
1.44267	188
1.44633	434
1.45000	1072
1.45367	2626
1.45733	5304
1.46100	8603
1.46467	11804
1.46833	14438
1.47200	16274
1.47567	17151
1.47933	16920
1.48300	15576
1.48667	13381
1.49033	10800
1.49400	8290
1.49767	6142
1.50133	4455
1.50500	3204
1.50867	2309
1.51233	1685
1.51600	1250
1.51967	952
1.52333	750
1.52700	612
1.53067	519
1.53433	452
1.53800	416
1.54167	437
1.54533	571
1.54900	858
1.55267	1254
1.55633	1665
1.56000	2018
1.56367	2276
1.56733	2415
1.57100	2407
1.57467	2234
1.57833	1924
1.58200	1548
1.58567	1184
1.58933	877
1.59300	642
1.59667	477
1.60033	366
1.60400	290
1.60767	233
1.61133	194
1.61500	166
1.61867	149
1.62233	141
1.62600	140
1.62967	142
1.63333	140
1.63700	132
1.64067	120
1.64433	109
1.64800	104
1.65167	103
1.65533	101
1.65900	101
1.66267	103
1.66633	102
1.67000	100
1.67367	98
1.67733	97
1.68100	99
1.68467	100
1.68833	100
1.69200	101
1.69567	100
1.69933	97
1.70300	91
1.70667	82
1.71033	76
1.71400	76
1.71767	78
1.72133	79
1.72500	82
1.72867	88
1.73233	92
1.73600	92
1.73967	87
1.74333	81
1.74700	79
1.75067	78
1.75433	76
1.75800	75
1.76167	72
1.76533	73
1.76900	75
1.77267	76
1.77633	78
1.78000	84
1.78367	95
1.78733	103
1.79100	105
1.79467	104
1.79833	107
1.80200	109
1.80567	109
1.80933	106
1.81300	101
1.81667	98
1.82033	100
1.82400	101
1.82767	97
1.83133	90
1.83500	83
1.83867	80
1.84233	79
1.84600	77
1.84967	72
1.85333	67
1.85700	62
1.86067	63
1.86433	68
1.86800	76
1.87167	81
1.87533	87
1.87900	96
1.88267	105
1.88633	108
1.89000	106
1.89367	101
1.89733	96
1.90100	86
1.90467	69
1.90833	57
1.91200	53
1.91567	54
1.91933	59
1.92300	67
1.92667	80
1.93033	92
1.93400	100
1.93767	107
1.94133	110
1.94500	107
1.94867	104
1.95233	112
1.95600	190
1.95967	661
1.96333	2859
1.96700	10655
1.97067	31909
1.97433	77132
1.97800	152909
1.98167	254681
1.98533	366902
1.98900	470583
1.99267	549207
1.99633	591037
2.00000	590511
2.00367	549599
2.00733	477983
2.01100	390587
2.01467	302491
2.01833	224449
2.02200	161454
2.02567	113906
2.02933	79677
2.03300	55810
2.03667	39496
2.04033	28459
2.04400	21018
2.04767	15980
2.05133	12529
2.05500	10123
2.05867	8411
2.06233	7165
2.06600	6230
2.06967	5509
2.07333	4939
2.07700	4478
2.08067	4098
2.08433	3780
2.08800	3512
2.09167	3283
2.09533	3088
2.09900	2920
2.10267	2769
2.10633	2631
2.11000	2506
2.11367	2391
2.11733	2281
2.12100	2177
2.12467	2080
2.12833	1989
2.13200	1908
2.13567	1832
2.13933	1762
2.14300	1699
2.14667	1644
2.15033	1594
2.15400	1547
2.15767	1506
2.16133	1463
2.16500	1419
2.16867	1377
2.17233	1340
2.17600	1303
2.17967	1265
2.18333	1232
2.18700	1198
2.19067	1162
2.19433	1132
2.19800	1105
2.20167	1085
2.20533	1067
2.20900	1046
2.21267	1020
2.21633	997
2.22000	977
2.22367	958
2.22733	940
2.23100	925
2.23467	919
2.23833	913
2.24200	906
2.24567	896
2.24933	880
2.25300	856
2.25667	827
2.26033	798
2.26400	773
2.26767	756
2.27133	744
2.27500	735
2.27867	729
2.28233	724
2.28600	718
2.28967	709
2.29333	699
2.29700	691
2.30067	687
2.30433	680
2.30800	667
2.31167	653
2.31533	644
2.31900	640
2.32267	641
2.32633	640
2.33000	637
2.33367	631
2.33733	624
2.34100	619
2.34467	619
2.34833	624
2.35200	625
2.35567	620
2.35933	607
2.36300	589
2.36667	572
2.37033	557
2.37400	546
2.37767	540
2.38133	538
2.38500	538
2.38867	539
2.39233	539
2.39600	537
2.39967	534
2.40333	533
2.40700	533
2.41067	537
2.41433	543
2.41800	546
2.42167	542
2.42533	531
2.42900	521
2.43267	511
2.43633	498
2.44000	487
2.44367	480
2.44733	475
2.45100	472
2.45467	471
2.45833	470
2.46200	474
2.46567	483
2.46933	487
2.47300	486
2.47667	483
2.48033	480
2.48400	478
2.48767	479
2.49133	480
2.49500	479
2.49867	471
2.50233	462
2.50600	455
2.50967	452
2.51333	451
2.51700	448
2.52067	442
2.52433	438
2.52800	435
2.53167	433
2.53533	435
2.53900	439
2.54267	443
2.54633	450
2.55000	455
2.55367	458
2.55733	458
2.56100	458
2.56467	458
2.56833	456
2.57200	454
2.57567	449
2.57933	444
2.58300	441
2.58667	440
2.59033	438
2.59400	436
2.59767	432
2.60133	427
2.60500	424
2.60867	425
2.61233	429
2.61600	432
2.61967	431
2.62333	427
2.62700	424
2.63067	420
2.63433	420
2.63800	421
2.64167	423
2.64533	425
2.64900	427
2.65267	426
2.65633	424
2.66000	422
2.66367	421
2.66733	423
2.67100	423
2.67467	425
2.67833	431
2.68200	438
2.68567	440
2.68933	439
2.69300	433
2.69667	430
2.70033	429
2.70400	429
2.70767	427
2.71133	422
2.71500	421
2.71867	421
2.72233	423
2.72600	427
2.72967	432
2.73333	432
2.73700	430
2.74067	430
2.74433	431
2.74800	433
2.75167	434
2.75533	434
2.75900	432
2.76267	429
2.76633	426
2.77000	428
2.77367	433
2.77733	440
2.78100	449
2.78467	452
2.78833	448
2.79200	436
2.79567	426
2.79933	418
2.80300	411
2.80667	405
2.81033	406
2.81400	414
2.81767	423
2.82133	432
2.82500	437
2.82867	437
2.83233	433
2.83600	425
2.83967	421
2.84333	421
2.84700	423
2.85067	425
2.85433	425
2.85800	424
2.86167	424
2.86533	426
2.86900	432
2.87267	438
2.87633	440
2.88000	440
2.88367	440
2.88733	442
2.89100	441
2.89467	436
2.89833	428
2.90200	422
2.90567	421
2.90933	426
2.91300	434
2.91667	437
2.92033	438
2.92400	438
2.92767	435
2.93133	433
2.93500	433
2.93867	435
2.94233	439
2.94600	442
2.94967	442
2.95333	447
2.95700	454
2.96067	458
2.96433	459
2.96800	458
2.97167	457
2.97533	455
2.97900	454
2.98267	455
2.98633	457
2.99000	456
2.99367	455
2.99733	453
3.00100	452
3.00467	452
3.00833	449
3.01200	447
3.01567	444
3.01933	436
3.02300	430
3.02667	425
3.03033	420
3.03400	423
3.03767	432
3.04133	442
3.04500	451
3.04867	456
3.05233	458
3.05600	454
3.05967	450
3.06333	447
3.06700	447
3.07067	448
3.07433	447
3.07800	447
3.08167	446
3.08533	444
3.08900	443
3.09267	445
3.09633	449
3.10000	454
3.10367	459
3.10733	461
3.11100	457
3.11467	451
3.11833	442
3.12200	433
3.12567	429
3.12933	432
3.13300	438
3.13667	441
3.14033	441
3.14400	434
3.14767	425
3.15133	419
3.15500	417
3.15867	420
3.16233	427
3.16600	433
3.16967	437
3.17333	438
3.17700	435
3.18067	428
3.18433	422
3.18800	417
3.19167	410
3.19533	404
3.19900	403
3.20267	408
3.20633	415
3.21000	419
3.21367	419
3.21733	418
3.22100	419
3.22467	420
3.22833	422
3.23200	424
3.23567	427
3.23933	429
3.24300	428
3.24667	428
3.25033	432
3.25400	435
3.25767	434
3.26133	430
3.26500	426
3.26867	424
3.27233	426
3.27600	428
3.27967	431
3.28333	434
3.28700	437
3.29067	437
3.29433	439
3.29800	441
3.30167	441
3.30533	438
3.30900	432
3.31267	426
3.31633	426
3.32000	428
3.32367	426
3.32733	424
3.33100	424
3.33467	421
3.33833	422
3.34200	424
3.34567	424
3.34933	424
3.35300	421
3.35667	416
3.36033	414
3.36400	412
3.36767	412
3.37133	412
3.37500	415
3.37867	420
3.38233	424
3.38600	426
3.38967	428
3.39333	429
3.39700	427
3.40067	425
3.40433	426
3.40800	426
3.41167	424
3.41533	423
3.41900	424
3.42267	425
3.42633	425
3.43000	425
3.43367	425
3.43733	424
3.44100	419
3.44467	411
3.44833	402
3.45200	393
3.45567	388
3.45933	387
3.46300	390
3.46667	393
3.47033	395
3.47400	395
3.47767	394
3.48133	389
3.48500	383
3.48867	381
3.49233	381
3.49600	382
3.49967	385
3.50333	391
3.50700	397
3.51067	398
3.51433	395
3.51800	392
3.52167	387
3.52533	381
3.52900	377
3.53267	378
3.53633	382
3.54000	389
3.54367	396
3.54733	401
3.55100	407
3.55467	412
3.55833	415
3.56200	414
3.56567	412
3.56933	408
3.57300	403
3.57667	398
3.58033	393
3.58400	390
3.58767	388
3.59133	388
3.59500	387
3.59867	384
3.60233	382
3.60600	380
3.60967	382
3.61333	382
3.61700	383
3.62067	382
3.62433	378
3.62800	372
3.63167	366
3.63533	362
3.63900	362
3.64267	366
3.64633	373
3.65000	384
3.65367	392
3.65733	389
3.66100	379
3.66467	369
3.66833	359
3.67200	352
3.67567	347
3.67933	348
3.68300	350
3.68667	353
3.69033	356
3.69400	358
3.69767	357
3.70133	352
3.70500	352
3.70867	356
3.71233	360
3.71600	362
3.71967	365
3.72333	366
3.72700	365
3.73067	366
3.73433	363
3.73800	360
3.74167	359
3.74533	361
3.74900	361
3.75267	360
3.75633	360
3.76000	361
3.76367	364
3.76733	365
3.77100	364
3.77467	361
3.77833	356
3.78200	348
3.78567	342
3.78933	342
3.79300	347
3.79667	354
3.80033	357
3.80400	357
3.80767	352
3.81133	345
3.81500	342
3.81867	341
3.82233	340
3.82600	338
3.82967	335
3.83333	335
3.83700	336
3.84067	338
3.84433	342
3.84800	344
3.85167	344
3.85533	344
3.85900	344
3.86267	341
3.86633	342
3.87000	345
3.87367	346
3.87733	347
3.88100	348
3.88467	349
3.88833	353
3.89200	360
3.89567	365
3.89933	364
3.90300	356
3.90667	345
3.91033	335
3.91400	325
3.91767	318
3.92133	313
3.92500	309
3.92867	308
3.93233	303
3.93600	300
3.93967	302
3.94333	308
3.94700	311
3.95067	315
3.95433	322
3.95800	325
3.96167	323
3.96533	321
3.96900	320
3.97267	316
3.97633	310
3.98000	311
3.98367	316
3.98733	322
3.99100	327
3.99467	329
3.99833	331

[Chromatogram (Ch2)]
Interval(msec)	220
# of Points	1091
Start Time(min)	0.002
End Time(min)	3.998
R.Time (min)	Intensity
0.00167	-0
0.00533	-0
0.00900	-0
0.01267	-0
0.01633	0
0.02000	0
0.02367	0
0.02733	0
0.03100	0
0.03467	0
0.03833	1
0.04200	1
0.04567	1
0.04933	1
0.05300	0
0.05667	0
0.06033	-0
0.06400	-0
0.06767	-1
0.07133	-1
0.07500	-1
0.07867	-2
0.08233	-2
0.08600	-2
0.08967	-2
0.09333	-2
0.09700	-3
0.10067	-3
0.10433	-3
0.10800	-4
0.11167	-4
0.11533	-4
0.11900	-5
0.12267	-5
0.12633	-5
0.13000	-5
0.13367	-5
0.13733	-5
0.14100	-5
0.14467	-5
0.14833	-4
0.15200	-4
0.15567	-4
0.15933	-4
0.16300	-3
0.16667	-3
0.17033	-3
0.17400	-2
0.17767	-2
0.18133	-2
0.18500	-2
0.18867	-2
0.19233	-2
0.19600	-3
0.19967	-3
0.20333	-3
0.20700	-3
0.21067	-3
0.21433	-4
0.21800	-4
0.22167	-4
0.22533	-4
0.22900	-4
0.23267	-4
0.23633	-4
0.24000	-4
0.24367	-4
0.24733	-4
0.25100	-3
0.25467	-3
0.25833	-3
0.26200	-2
0.26567	-2
0.26933	-2
0.27300	-2
0.27667	-2
0.28033	-2
0.28400	-1
0.28767	-1
0.29133	-1
0.29500	-1
0.29867	-1
0.30233	-1
0.30600	-1
0.30967	-2
0.31333	-1
0.31700	-1
0.32067	-1
0.32433	-1
0.32800	-1
0.33167	-1
0.33533	-1
0.33900	-1
0.34267	-1
0.34633	-1
0.35000	-1
0.35367	-1
0.35733	-1
0.36100	-1
0.36467	-1
0.36833	-1
0.37200	-0
0.37567	-0
0.37933	-1
0.38300	-1
0.38667	-1
0.39033	-1
0.39400	-1
0.39767	-1
0.40133	-1
0.40500	-2
0.40867	-2
0.41233	-2
0.41600	-2
0.41967	-2
0.42333	-2
0.42700	-2
0.43067	-2
0.43433	-2
0.43800	-2
0.44167	-2
0.44533	-2
0.44900	-2
0.45267	-2
0.45633	-2
0.46000	-2
0.46367	-2
0.46733	-2
0.47100	-2
0.47467	-2
0.47833	-2
0.48200	-2
0.48567	-2
0.48933	-1
0.49300	-1
0.49667	-1
0.50033	-1
0.50400	-1
0.50767	-1
0.51133	-1
0.51500	-1
0.51867	-1
0.52233	-1
0.52600	-2
0.52967	-2
0.53333	-2
0.53700	-2
0.54067	-2
0.54433	-2
0.54800	-2
0.55167	-2
0.55533	-2
0.55900	-2
0.56267	-2
0.56633	-3
0.57000	-3
0.57367	-3
0.57733	-4
0.58100	-4
0.58467	-4
0.58833	-4
0.59200	-5
0.59567	-5
0.59933	-5
0.60300	-4
0.60667	-5
0.61033	-5
0.61400	-5
0.61767	-5
0.62133	-4
0.62500	-4
0.62867	-4
0.63233	-3
0.63600	-3
0.63967	-2
0.64333	-2
0.64700	-1
0.65067	-1
0.65433	-1
0.65800	-1
0.66167	-1
0.66533	-1
0.66900	-1
0.67267	-2
0.67633	-2
0.68000	-2
0.68367	-2
0.68733	-2
0.69100	-2
0.69467	-3
0.69833	-3
0.70200	-4
0.70567	-4
0.70933	-4
0.71300	-4
0.71667	-4
0.72033	-4
0.72400	-4
0.72767	-4
0.73133	-4
0.73500	-4
0.73867	-3
0.74233	-3
0.74600	-3
0.74967	-3
0.75333	-3
0.75700	-3
0.76067	-4
0.76433	-4
0.76800	-4
0.77167	-4
0.77533	-4
0.77900	-4
0.78267	-4
0.78633	-4
0.79000	-4
0.79367	-4
0.79733	-4
0.80100	-4
0.80467	-4
0.80833	-4
0.81200	-4
0.81567	-4
0.81933	-4
0.82300	-4
0.82667	-4
0.83033	-5
0.83400	-5
0.83767	-5
0.84133	-6
0.84500	-6
0.84867	-6
0.85233	-6
0.85600	-6
0.85967	-5
0.86333	-5
0.86700	-5
0.87067	-4
0.87433	-4
0.87800	-3
0.88167	-3
0.88533	-2
0.88900	-2
0.89267	-1
0.89633	-1
0.90000	-0
0.90367	-0
0.90733	0
0.91100	0
0.91467	0
0.91833	0
0.92200	0
0.92567	0
0.92933	-0
0.93300	-0
0.93667	-1
0.94033	-1
0.94400	-1
0.94767	-2
0.95133	-2
0.95500	-2
0.95867	-3
0.96233	-3
0.96600	-3
0.96967	-3
0.97333	-4
0.97700	-4
0.98067	-4
0.98433	-4
0.98800	-4
0.99167	-4
0.99533	-4
0.99900	-4
1.00267	-5
1.00633	-5
1.01000	-5
1.01367	-5
1.01733	-5
1.02100	-5
1.02467	-5
1.02833	-5
1.03200	-5
1.03567	-5
1.03933	-5
1.04300	-5
1.04667	-5
1.05033	-5
1.05400	-4
1.05767	-4
1.06133	-4
1.06500	-4
1.06867	-3
1.07233	-3
1.07600	-2
1.07967	-2
1.08333	-1
1.08700	-1
1.09067	-1
1.09433	-1
1.09800	-1
1.10167	-1
1.10533	-1
1.10900	-1
1.11267	-1
1.11633	-1
1.12000	-1
1.12367	-1
1.12733	-1
1.13100	-1
1.13467	-2
1.13833	-2
1.14200	-2
1.14567	-3
1.14933	-4
1.15300	-4
1.15667	-5
1.16033	-5
1.16400	-6
1.16767	-6
1.17133	-6
1.17500	-7
1.17867	-7
1.18233	-7
1.18600	-7
1.18967	-7
1.19333	-6
1.19700	-6
1.20067	-6
1.20433	-6
1.20800	-6
1.21167	-6
1.21533	-6
1.21900	-6
1.22267	-6
1.22633	-6
1.23000	-6
1.23367	-6
1.23733	-6
1.24100	-5
1.24467	-5
1.24833	-5
1.25200	-5
1.25567	-5
1.25933	-5
1.26300	-5
1.26667	-5
1.27033	-5
1.27400	-5
1.27767	-5
1.28133	-4
1.28500	-4
1.28867	-5
1.29233	-5
1.29600	-5
1.29967	-5
1.30333	-5
1.30700	-5
1.31067	-5
1.31433	-5
1.31800	-5
1.32167	-5
1.32533	-5
1.32900	-5
1.33267	-5
1.33633	-4
1.34000	-4
1.34367	-4
1.34733	-4
1.35100	-4
1.35467	-4
1.35833	-4
1.36200	-4
1.36567	-4
1.36933	-4
1.37300	-3
1.37667	-3
1.38033	-3
1.38400	-3
1.38767	-3
1.39133	-3
1.39500	-3
1.39867	-2
1.40233	-2
1.40600	-2
1.40967	-3
1.41333	-3
1.41700	-3
1.42067	-4
1.42433	-4
1.42800	-4
1.43167	-5
1.43533	-5
1.43900	-5
1.44267	-6
1.44633	-6
1.45000	-6
1.45367	-6
1.45733	-6
1.46100	-6
1.46467	-6
1.46833	-6
1.47200	-5
1.47567	-5
1.47933	-4
1.48300	-4
1.48667	-4
1.49033	-4
1.49400	-4
1.49767	-4
1.50133	-4
1.50500	-4
1.50867	-4
1.51233	-4
1.51600	-4
1.51967	-4
1.52333	-4
1.52700	-4
1.53067	-5
1.53433	-5
1.53800	-5
1.54167	-5
1.54533	-4
1.54900	-4
1.55267	-4
1.55633	-4
1.56000	-4
1.56367	-3
1.56733	-3
1.57100	-3
1.57467	-3
1.57833	-3
1.58200	-3
1.58567	-3
1.58933	-3
1.59300	-4
1.59667	-4
1.60033	-5
1.60400	-6
1.60767	-8
1.61133	-10
1.61500	-12
1.61867	-15
1.62233	-18
1.62600	-21
1.62967	-24
1.63333	-27
1.63700	-31
1.64067	-35
1.64433	-39
1.64800	-43
1.65167	-47
1.65533	-51
1.65900	-54
1.66267	-59
1.66633	-63
1.67000	-68
1.67367	-73
1.67733	-78
1.68100	-83
1.68467	-88
1.68833	-92
1.69200	-96
1.69567	-99
1.69933	-102
1.70300	-104
1.70667	-106
1.71033	-108
1.71400	-109
1.71767	-110
1.72133	-111
1.72500	-112
1.72867	-113
1.73233	-114
1.73600	-114
1.73967	-115
1.74333	-115
1.74700	-114
1.75067	-114
1.75433	-114
1.75800	-114
1.76167	-114
1.76533	-114
1.76900	-115
1.77267	-116
1.77633	-117
1.78000	-118
1.78367	-119
1.78733	-120
1.79100	-120
1.79467	-120
1.79833	-120
1.80200	-119
1.80567	-120
1.80933	-120
1.81300	-120
1.81667	-120
1.82033	-120
1.82400	-120
1.82767	-121
1.83133	-121
1.83500	-121
1.83867	-120
1.84233	-120
1.84600	-120
1.84967	-120
1.85333	-120
1.85700	-119
1.86067	-119
1.86433	-119
1.86800	-119
1.87167	-120
1.87533	-120
1.87900	-120
1.88267	-119
1.88633	-119
1.89000	-118
1.89367	-118
1.89733	-118
1.90100	-118
1.90467	-118
1.90833	-118
1.91200	-117
1.91567	-117
1.91933	-116
1.92300	-116
1.92667	-115
1.93033	-114
1.93400	-114
1.93767	-113
1.94133	-113
1.94500	-113
1.94867	-113
1.95233	-113
1.95600	-113
1.95967	-113
1.96333	-114
1.96700	-114
1.97067	-114
1.97433	-114
1.97800	-114
1.98167	-114
1.98533	-115
1.98900	-115
1.99267	-114
1.99633	-114
2.00000	-114
2.00367	-113
2.00733	-113
2.01100	-114
2.01467	-114
2.01833	-114
2.02200	-114
2.02567	-113
2.02933	-113
2.03300	-112
2.03667	-111
2.04033	-110
2.04400	-109
2.04767	-109
2.05133	-108
2.05500	-108
2.05867	-108
2.06233	-108
2.06600	-108
2.06967	-107
2.07333	-107
2.07700	-107
2.08067	-107
2.08433	-107
2.08800	-107
2.09167	-107
2.09533	-106
2.09900	-106
2.10267	-105
2.10633	-105
2.11000	-105
2.11367	-104
2.11733	-104
2.12100	-103
2.12467	-102
2.12833	-102
2.13200	-101
2.13567	-101
2.13933	-101
2.14300	-100
2.14667	-100
2.15033	-100
2.15400	-100
2.15767	-100
2.16133	-100
2.16500	-100
2.16867	-100
2.17233	-99
2.17600	-98
2.17967	-97
2.18333	-97
2.18700	-96
2.19067	-96
2.19433	-97
2.19800	-97
2.20167	-97
2.20533	-97
2.20900	-97
2.21267	-97
2.21633	-96
2.22000	-96
2.22367	-95
2.22733	-94
2.23100	-94
2.23467	-93
2.23833	-93
2.24200	-92
2.24567	-92
2.24933	-93
2.25300	-93
2.25667	-94
2.26033	-95
2.26400	-95
2.26767	-95
2.27133	-94
2.27500	-93
2.27867	-92
2.28233	-92
2.28600	-91
2.28967	-90
2.29333	-89
2.29700	-89
2.30067	-88
2.30433	-87
2.30800	-87
2.31167	-86
2.31533	-86
2.31900	-85
2.32267	-84
2.32633	-84
2.33000	-84
2.33367	-84
2.33733	-84
2.34100	-85
2.34467	-85
2.34833	-85
2.35200	-84
2.35567	-83
2.35933	-82
2.36300	-80
2.36667	-78
2.37033	-75
2.37400	-71
2.37767	-67
2.38133	-63
2.38500	-58
2.38867	-53
2.39233	-48
2.39600	-44
2.39967	-40
2.40333	-36
2.40700	-33
2.41067	-30
2.41433	-27
2.41800	-25
2.42167	-23
2.42533	-22
2.42900	-21
2.43267	-19
2.43633	-18
2.44000	-17
2.44367	-15
2.44733	-14
2.45100	-12
2.45467	-11
2.45833	-10
2.46200	-9
2.46567	-8
2.46933	-7
2.47300	-6
2.47667	-5
2.48033	-3
2.48400	-2
2.48767	-0
2.49133	1
2.49500	3
2.49867	4
2.50233	5
2.50600	5
2.50967	6
2.51333	7
2.51700	8
2.52067	8
2.52433	9
2.52800	10
2.53167	10
2.53533	10
2.53900	10
2.54267	11
2.54633	11
2.55000	11
2.55367	11
2.55733	12
2.56100	12
2.56467	12
2.56833	12
2.57200	12
2.57567	12
2.57933	12
2.58300	12
2.58667	12
2.59033	12
2.59400	12
2.59767	12
2.60133	12
2.60500	12
2.60867	12
2.61233	12
2.61600	12
2.61967	11
2.62333	11
2.62700	10
2.63067	10
2.63433	11
2.63800	11
2.64167	12
2.64533	12
2.64900	13
2.65267	13
2.65633	13
2.66000	13
2.66367	14
2.66733	14
2.67100	15
2.67467	16
2.67833	16
2.68200	16
2.68567	17
2.68933	17
2.69300	18
2.69667	18
2.70033	18
2.70400	18
2.70767	19
2.71133	19
2.71500	19
2.71867	20
2.72233	20
2.72600	19
2.72967	19
2.73333	19
2.73700	19
2.74067	20
2.74433	20
2.74800	20
2.75167	21
2.75533	21
2.75900	21
2.76267	21
2.76633	21
2.77000	21
2.77367	22
2.77733	22
2.78100	22
2.78467	22
2.78833	22
2.79200	23
2.79567	23
2.79933	23
2.80300	23
2.80667	23
2.81033	23
2.81400	23
2.81767	23
2.82133	22
2.82500	22
2.82867	22
2.83233	22
2.83600	21
2.83967	20
2.84333	17
2.84700	13
2.85067	6
2.85433	-4
2.85800	-17
2.86167	-35
2.86533	-56
2.86900	-81
2.87267	-111
2.87633	-145
2.88000	-183
2.88367	-224
2.88733	-269
2.89100	-317
2.89467	-366
2.89833	-418
2.90200	-471
2.90567	-525
2.90933	-579
2.91300	-633
2.91667	-687
2.92033	-740
2.92400	-792
2.92767	-843
2.93133	-895
2.93500	-952
2.93867	-1011
2.94233	-1064
2.94600	-1100
2.94967	-1112
2.95333	-1098
2.95700	-1060
2.96067	-1003
2.96433	-932
2.96800	-854
2.97167	-773
2.97533	-693
2.97900	-615
2.98267	-542
2.98633	-474
2.99000	-413
2.99367	-357
2.99733	-308
3.00100	-264
3.00467	-226
3.00833	-193
3.01200	-164
3.01567	-139
3.01933	-117
3.02300	-98
3.02667	-82
3.03033	-68
3.03400	-57
3.03767	-47
3.04133	-38
3.04500	-31
3.04867	-26
3.05233	-21
3.05600	-17
3.05967	-13
3.06333	-10
3.06700	-7
3.07067	-5
3.07433	-3
3.07800	-1
3.08167	0
3.08533	2
3.08900	3
3.09267	4
3.09633	5
3.10000	5
3.10367	6
3.10733	7
3.11100	7
3.11467	8
3.11833	8
3.12200	9
3.12567	9
3.12933	9
3.13300	10
3.13667	10
3.14033	10
3.14400	11
3.14767	11
3.15133	11
3.15500	11
3.15867	12
3.16233	12
3.16600	12
3.16967	13
3.17333	13
3.17700	14
3.18067	14
3.18433	14
3.18800	15
3.19167	15
3.19533	16
3.19900	16
3.20267	17
3.20633	17
3.21000	17
3.21367	18
3.21733	18
3.22100	17
3.22467	17
3.22833	17
3.23200	17
3.23567	17
3.23933	18
3.24300	18
3.24667	18
3.25033	18
3.25400	18
3.25767	18
3.26133	18
3.26500	18
3.26867	18
3.27233	19
3.27600	19
3.27967	19
3.28333	19
3.28700	19
3.29067	19
3.29433	19
3.29800	19
3.30167	20
3.30533	20
3.30900	21
3.31267	21
3.31633	21
3.32000	22
3.32367	22
3.32733	22
3.33100	22
3.33467	22
3.33833	23
3.34200	23
3.34567	23
3.34933	23
3.35300	23
3.35667	23
3.36033	23
3.36400	23
3.36767	23
3.37133	23
3.37500	23
3.37867	23
3.38233	23
3.38600	23
3.38967	23
3.39333	23
3.39700	23
3.40067	23
3.40433	23
3.40800	23
3.41167	23
3.41533	23
3.41900	23
3.42267	24
3.42633	24
3.43000	24
3.43367	23
3.43733	23
3.44100	23
3.44467	23
3.44833	23
3.45200	23
3.45567	23
3.45933	23
3.46300	24
3.46667	24
3.47033	24
3.47400	24
3.47767	24
3.48133	24
3.48500	24
3.48867	24
3.49233	24
3.49600	24
3.49967	24
3.50333	24
3.50700	24
3.51067	24
3.51433	23
3.51800	23
3.52167	23
3.52533	23
3.52900	23
3.53267	23
3.53633	23
3.54000	23
3.54367	23
3.54733	23
3.55100	23
3.55467	23
3.55833	22
3.56200	22
3.56567	22
3.56933	22
3.57300	22
3.57667	22
3.58033	22
3.58400	22
3.58767	22
3.59133	23
3.59500	23
3.59867	23
3.60233	23
3.60600	23
3.60967	23
3.61333	23
3.61700	23
3.62067	23
3.62433	22
3.62800	22
3.63167	22
3.63533	22
3.63900	22
3.64267	22
3.64633	22
3.65000	22
3.65367	22
3.65733	22
3.66100	22
3.66467	22
3.66833	21
3.67200	22
3.67567	22
3.67933	22
3.68300	22
3.68667	22
3.69033	22
3.69400	22
3.69767	23
3.70133	23
3.70500	23
3.70867	23
3.71233	23
3.71600	23
3.71967	23
3.72333	23
3.72700	23
3.73067	23
3.73433	23
3.73800	23
3.74167	23
3.74533	22
3.74900	22
3.75267	22
3.75633	22
3.76000	22
3.76367	22
3.76733	22
3.77100	22
3.77467	22
3.77833	22
3.78200	22
3.78567	22
3.78933	22
3.79300	22
3.79667	22
3.80033	22
3.80400	22
3.80767	22
3.81133	22
3.81500	22
3.81867	22
3.82233	22
3.82600	22
3.82967	22
3.83333	22
3.83700	22
3.84067	22
3.84433	22
3.84800	22
3.85167	22
3.85533	22
3.85900	22
3.86267	22
3.86633	22
3.87000	22
3.87367	22
3.87733	22
3.88100	22
3.88467	22
3.88833	22
3.89200	22
3.89567	22
3.89933	22
3.90300	22
3.90667	22
3.91033	22
3.91400	22
3.91767	22
3.92133	22
3.92500	22
3.92867	22
3.93233	22
3.93600	22
3.93967	23
3.94333	23
3.94700	23
3.95067	23
3.95433	23
3.95800	23
3.96167	23
3.96533	23
3.96900	23
3.97267	23
3.97633	22
3.98000	22
3.98367	22
3.98733	22
3.99100	23
3.99467	23
3.99833	23

[Chromatogram (Ch3)]
Interval(msec)	220
# of Points	1091
Start Time(min)	0.002
End Time(min)	3.998
R.Time (min)	Intensity
0.00167	-1
0.00533	-3
0.00900	-4
0.01267	-4
0.01633	-5
0.02000	-5
0.02367	-4
0.02733	-2
0.03100	-0
0.03467	0
0.03833	-0
0.04200	0
0.04567	-1
0.04933	-5
0.05300	-7
0.05667	-6
0.06033	-4
0.06400	-4
0.06767	-5
0.07133	-4
0.07500	-3
0.07867	-4
0.08233	-3
0.08600	-2
0.08967	-2
0.09333	-3
0.09700	-5
0.10067	-5
0.10433	-4
0.10800	-4
0.11167	-5
0.11533	-3
0.11900	-3
0.12267	-3
0.12633	-2
0.13000	-1
0.13367	-1
0.13733	-1
0.14100	0
0.14467	0
0.14833	1
0.15200	1
0.15567	-2
0.15933	-4
0.16300	-4
0.16667	-2
0.17033	-1
0.17400	-2
0.17767	-3
0.18133	-5
0.18500	-7
0.18867	-5
0.19233	-2
0.19600	4
0.19967	5
0.20333	3
0.20700	1
0.21067	-1
0.21433	-1
0.21800	-0
0.22167	-0
0.22533	-0
0.22900	-2
0.23267	-3
0.23633	-4
0.24000	-5
0.24367	-5
0.24733	-1
0.25100	1
0.25467	2
0.25833	0
0.26200	-0
0.26567	1
0.26933	1
0.27300	2
0.27667	1
0.28033	0
0.28400	-1
0.28767	-3
0.29133	-4
0.29500	-6
0.29867	-7
0.30233	-6
0.30600	-6
0.30967	-6
0.31333	-6
0.31700	-6
0.32067	-6
0.32433	-5
0.32800	-5
0.33167	-5
0.33533	-5
0.33900	-5
0.34267	-4
0.34633	-4
0.35000	-6
0.35367	-8
0.35733	-9
0.36100	-10
0.36467	-9
0.36833	-7
0.37200	-6
0.37567	-7
0.37933	-6
0.38300	-6
0.38667	-5
0.39033	-5
0.39400	-5
0.39767	-5
0.40133	-6
0.40500	-8
0.40867	-7
0.41233	-7
0.41600	-3
0.41967	-2
0.42333	-3
0.42700	-5
0.43067	-6
0.43433	-5
0.43800	-4
0.44167	-4
0.44533	-2
0.44900	-1
0.45267	-3
0.45633	-4
0.46000	-5
0.46367	-6
0.46733	-6
0.47100	-4
0.47467	-3
0.47833	-5
0.48200	-6
0.48567	-5
0.48933	-3
0.49300	-1
0.49667	1
0.50033	1
0.50400	-2
0.50767	-3
0.51133	-2
0.51500	-2
0.51867	-3
0.52233	-4
0.52600	-5
0.52967	-5
0.53333	-4
0.53700	-5
0.54067	-6
0.54433	-5
0.54800	-6
0.55167	-8
0.55533	-8
0.55900	-6
0.56267	-6
0.56633	-6
0.57000	-6
0.57367	-5
0.57733	-4
0.58100	-2
0.58467	-0
0.58833	1
0.59200	-0
0.59567	-1
0.59933	-1
0.60300	1
0.60667	2
0.61033	3
0.61400	2
0.61767	-0
0.62133	-3
0.62500	-2
0.62867	1
0.63233	2
0.63600	4
0.63967	3
0.64333	4
0.64700	5
0.65067	4
0.65433	3
0.65800	3
0.66167	3
0.66533	4
0.66900	5
0.67267	4
0.67633	3
0.68000	4
0.68367	7
0.68733	8
0.69100	7
0.69467	7
0.69833	9
0.70200	9
0.70567	10
0.70933	10
0.71300	9
0.71667	9
0.72033	9
0.72400	9
0.72767	9
0.73133	7
0.73500	4
0.73867	1
0.74233	-1
0.74600	-1
0.74967	1
0.75333	3
0.75700	5
0.76067	7
0.76433	8
0.76800	8
0.77167	9
0.77533	10
0.77900	10
0.78267	8
0.78633	6
0.79000	4
0.79367	3
0.79733	6
0.80100	9
0.80467	9
0.80833	7
0.81200	6
0.81567	8
0.81933	8
0.82300	6
0.82667	7
0.83033	8
0.83400	9
0.83767	7
0.84133	5
0.84500	3
0.84867	3
0.85233	3
0.85600	4
0.85967	7
0.86333	9
0.86700	10
0.87067	11
0.87433	12
0.87800	11
0.88167	9
0.88533	8
0.88900	7
0.89267	4
0.89633	3
0.90000	5
0.90367	6
0.90733	8
0.91100	8
0.91467	8
0.91833	8
0.92200	9
0.92567	8
0.92933	8
0.93300	8
0.93667	10
0.94033	11
0.94400	12
0.94767	12
0.95133	13
0.95500	14
0.95867	12
0.96233	12
0.96600	13
0.96967	12
0.97333	14
0.97700	14
0.98067	12
0.98433	12
0.98800	11
0.99167	9
0.99533	8
0.99900	8
1.00267	8
1.00633	7
1.01000	9
1.01367	9
1.01733	8
1.02100	8
1.02467	9
1.02833	11
1.03200	11
1.03567	10
1.03933	9
1.04300	8
1.04667	7
1.05033	8
1.05400	9
1.05767	9
1.06133	11
1.06500	12
1.06867	12
1.07233	11
1.07600	10
1.07967	11
1.08333	12
1.08700	14
1.09067	16
1.09433	19
1.09800	16
1.10167	14
1.10533	14
1.10900	17
1.11267	17
1.11633	17
1.12000	18
1.12367	17
1.12733	16
1.13100	16
1.13467	14
1.13833	14
1.14200	16
1.14567	20
1.14933	21
1.15300	21
1.15667	21
1.16033	20
1.16400	18
1.16767	17
1.17133	17
1.17500	17
1.17867	16
1.18233	15
1.18600	18
1.18967	22
1.19333	23
1.19700	25
1.20067	26
1.20433	24
1.20800	23
1.21167	25
1.21533	26
1.21900	25
1.22267	25
1.22633	26
1.23000	27
1.23367	26
1.23733	26
1.24100	27
1.24467	27
1.24833	26
1.25200	25
1.25567	23
1.25933	21
1.26300	25
1.26667	26
1.27033	23
1.27400	23
1.27767	23
1.28133	22
1.28500	24
1.28867	24
1.29233	23
1.29600	23
1.29967	22
1.30333	21
1.30700	21
1.31067	22
1.31433	22
1.31800	24
1.32167	24
1.32533	22
1.32900	22
1.33267	23
1.33633	23
1.34000	25
1.34367	24
1.34733	22
1.35100	22
1.35467	23
1.35833	27
1.36200	27
1.36567	26
1.36933	25
1.37300	25
1.37667	25
1.38033	23
1.38400	23
1.38767	23
1.39133	23
1.39500	21
1.39867	21
1.40233	20
1.40600	20
1.40967	20
1.41333	20
1.41700	23
1.42067	24
1.42433	23
1.42800	25
1.43167	27
1.43533	28
1.43900	29
1.44267	29
1.44633	29
1.45000	29
1.45367	29
1.45733	28
1.46100	26
1.46467	25
1.46833	25
1.47200	26
1.47567	26
1.47933	26
1.48300	26
1.48667	26
1.49033	24
1.49400	23
1.49767	26
1.50133	29
1.50500	29
1.50867	28
1.51233	28
1.51600	28
1.51967	28
1.52333	29
1.52700	29
1.53067	29
1.53433	26
1.53800	24
1.54167	26
1.54533	26
1.54900	28
1.55267	28
1.55633	25
1.56000	22
1.56367	22
1.56733	23
1.57100	25
1.57467	28
1.57833	27
1.58200	26
1.58567	25
1.58933	26
1.59300	25
1.59667	23
1.60033	23
1.60400	25
1.60767	27
1.61133	28
1.61500	29
1.61867	30
1.62233	28
1.62600	29
1.62967	32
1.63333	34
1.63700	35
1.64067	36
1.64433	35
1.64800	33
1.65167	32
1.65533	31
1.65900	31
1.66267	31
1.66633	30
1.67000	31
1.67367	35
1.67733	36
1.68100	38
1.68467	38
1.68833	38
1.69200	39
1.69567	40
1.69933	40
1.70300	40
1.70667	40
1.71033	42
1.71400	43
1.71767	45
1.72133	43
1.72500	41
1.72867	42
1.73233	43
1.73600	43
1.73967	43
1.74333	42
1.74700	42
1.75067	41
1.75433	42
1.75800	42
1.76167	43
1.76533	46
1.76900	48
1.77267	50
1.77633	52
1.78000	53
1.78367	52
1.78733	50
1.79100	48
1.79467	50
1.79833	53
1.80200	53
1.80567	53
1.80933	52
1.81300	53
1.81667	55
1.82033	55
1.82400	55
1.82767	56
1.83133	58
1.83500	60
1.83867	60
1.84233	60
1.84600	58
1.84967	57
1.85333	55
1.85700	56
1.86067	59
1.86433	59
1.86800	59
1.87167	60
1.87533	63
1.87900	63
1.88267	62
1.88633	64
1.89000	67
1.89367	69
1.89733	70
1.90100	71
1.90467	71
1.90833	71
1.91200	72
1.91567	72
1.91933	72
1.92300	71
1.92667	74
1.93033	76
1.93400	78
1.93767	78
1.94133	77
1.94500	77
1.94867	76
1.95233	76
1.95600	78
1.95967	81
1.96333	84
1.96700	83
1.97067	83
1.97433	85
1.97800	88
1.98167	90
1.98533	92
1.98900	93
1.99267	93
1.99633	94
2.00000	95
2.00367	96
2.00733	99
2.01100	101
2.01467	101
2.01833	101
2.02200	101
2.02567	101
2.02933	102
2.03300	102
2.03667	102
2.04033	104
2.04400	103
2.04767	102
2.05133	101
2.05500	101
2.05867	102
2.06233	105
2.06600	107
2.06967	110
2.07333	112
2.07700	112
2.08067	113
2.08433	113
2.08800	114
2.09167	115
2.09533	115
2.09900	116
2.10267	119
2.10633	123
2.11000	124
2.11367	124
2.11733	124
2.12100	124
2.12467	124
2.12833	125
2.13200	127
2.13567	129
2.13933	130
2.14300	131
2.14667	135
2.15033	137
2.15400	138
2.15767	139
2.16133	142
2.16500	144
2.16867	146
2.17233	146
2.17600	148
2.17967	149
2.18333	148
2.18700	148
2.19067	148
2.19433	150
2.19800	152
2.20167	153
2.20533	153
2.20900	154
2.21267	155
2.21633	157
2.22000	160
2.22367	163
2.22733	163
2.23100	163
2.23467	164
2.23833	164
2.24200	166
2.24567	167
2.24933	168
2.25300	171
2.25667	172
2.26033	173
2.26400	174
2.26767	174
2.27133	174
2.27500	174
2.27867	177
2.28233	178
2.28600	182
2.28967	184
2.29333	185
2.29700	184
2.30067	183
2.30433	183
2.30800	185
2.31167	187
2.31533	191
2.31900	194
2.32267	194
2.32633	195
2.33000	196
2.33367	199
2.33733	201
2.34100	201
2.34467	203
2.34833	209
2.35200	212
2.35567	214
2.35933	212
2.36300	212
2.36667	212
2.37033	213
2.37400	215
2.37767	217
2.38133	218
2.38500	218
2.38867	218
2.39233	219
2.39600	221
2.39967	224
2.40333	230
2.40700	235
2.41067	239
2.41433	243
2.41800	245
2.42167	247
2.42533	249
2.42900	250
2.43267	252
2.43633	255
2.44000	258
2.44367	291
2.44733	384
2.45100	490
2.45467	578
2.45833	635
2.46200	647
2.46567	624
2.46933	594
2.47300	573
2.47667	562
2.48033	552
2.48400	538
2.48767	518
2.49133	491
2.49500	463
2.49867	438
2.50233	417
2.50600	401
2.50967	391
2.51333	387
2.51700	386
2.52067	390
2.52433	400
2.52800	412
2.53167	422
2.53533	431
2.53900	436
2.54267	433
2.54633	427
2.55000	414
2.55367	396
2.55733	378
2.56100	360
2.56467	345
2.56833	334
2.57200	324
2.57567	316
2.57933	311
2.58300	308
2.58667	305
2.59033	303
2.59400	302
2.59767	299
2.60133	291
2.60500	277
2.60867	261
2.61233	244
2.61600	226
2.61967	206
2.62333	189
2.62700	176
2.63067	166
2.63433	162
2.63800	161
2.64167	165
2.64533	170
2.64900	178
2.65267	188
2.65633	198
2.66000	209
2.66367	217
2.66733	225
2.67100	232
2.67467	237
2.67833	237
2.68200	235
2.68567	233
2.68933	232
2.69300	231
2.69667	231
2.70033	229
2.70400	222
2.70767	216
2.71133	209
2.71500	202
2.71867	198
2.72233	200
2.72600	199
2.72967	197
2.73333	194
2.73700	190
2.74067	190
2.74433	192
2.74800	196
2.75167	197
2.75533	194
2.75900	196
2.76267	196
2.76633	193
2.77000	192
2.77367	194
2.77733	196
2.78100	197
2.78467	197
2.78833	198
2.79200	198
2.79567	197
2.79933	195
2.80300	196
2.80667	196
2.81033	197
2.81400	200
2.81767	208
2.82133	224
2.82500	260
2.82867	334
2.83233	465
2.83600	676
2.83967	984
2.84333	1398
2.84700	1905
2.85067	2480
2.85433	3086
2.85800	3674
2.86167	4198
2.86533	4611
2.86900	4887
2.87267	5015
2.87633	5001
2.88000	4865
2.88367	4634
2.88733	4338
2.89100	4002
2.89467	3651
2.89833	3302
2.90200	2966
2.90567	2648
2.90933	2354
2.91300	2091
2.91667	1856
2.92033	1647
2.92400	1461
2.92767	1294
2.93133	1148
2.93500	1026
2.93867	920
2.94233	825
2.94600	743
2.94967	674
2.95333	614
2.95700	561
2.96067	514
2.96433	475
2.96800	442
2.97167	413
2.97533	387
2.97900	366
2.98267	347
2.98633	329
2.99000	315
2.99367	304
2.99733	293
3.00100	282
3.00467	271
3.00833	260
3.01200	250
3.01567	242
3.01933	236
3.02300	231
3.02667	225
3.03033	222
3.03400	221
3.03767	215
3.04133	209
3.04500	204
3.04867	198
3.05233	192
3.05600	188
3.05967	184
3.06333	182
3.06700	181
3.07067	179
3.07433	176
3.07800	173
3.08167	170
3.08533	169
3.08900	169
3.09267	168
3.09633	168
3.10000	168
3.10367	169
3.10733	167
3.11100	166
3.11467	167
3.11833	166
3.12200	164
3.12567	161
3.12933	156
3.13300	154
3.13667	154
3.14033	155
3.14400	153
3.14767	152
3.15133	151
3.15500	152
3.15867	151
3.16233	151
3.16600	152
3.16967	155
3.17333	157
3.17700	156
3.18067	153
3.18433	152
3.18800	152
3.19167	155
3.19533	154
3.19900	155
3.20267	159
3.20633	164
3.21000	166
3.21367	164
3.21733	163
3.22100	163
3.22467	162
3.22833	161
3.23200	162
3.23567	162
3.23933	162
3.24300	163
3.24667	165
3.25033	166
3.25400	166
3.25767	166
3.26133	166
3.26500	168
3.26867	167
3.27233	168
3.27600	168
3.27967	166
3.28333	165
3.28700	166
3.29067	165
3.29433	164
3.29800	161
3.30167	159
3.30533	157
3.30900	158
3.31267	159
3.31633	161
3.32000	162
3.32367	160
3.32733	158
3.33100	158
3.33467	159
3.33833	159
3.34200	159
3.34567	160
3.34933	159
3.35300	160
3.35667	161
3.36033	160
3.36400	157
3.36767	154
3.37133	153
3.37500	154
3.37867	153
3.38233	152
3.38600	152
3.38967	153
3.39333	153
3.39700	152
3.40067	152
3.40433	153
3.40800	154
3.41167	157
3.41533	161
3.41900	161
3.42267	160
3.42633	158
3.43000	156
3.43367	157
3.43733	158
3.44100	160
3.44467	162
3.44833	163
3.45200	165
3.45567	165
3.45933	165
3.46300	166
3.46667	167
3.47033	169
3.47400	171
3.47767	172
3.48133	172
3.48500	173
3.48867	172
3.49233	170
3.49600	171
3.49967	172
3.50333	170
3.50700	171
3.51067	172
3.51433	175
3.51800	178
3.52167	180
3.52533	180
3.52900	179
3.53267	180
3.53633	181
3.54000	182
3.54367	182
3.54733	185
3.55100	185
3.55467	186
3.55833	187
3.56200	189
3.56567	191
3.56933	192
3.57300	192
3.57667	193
3.58033	194
3.58400	196
3.58767	196
3.59133	194
3.59500	192
3.59867	187
3.60233	181
3.60600	170
3.60967	152
3.61333	132
3.61700	115
3.62067	105
3.62433	102
3.62800	106
3.63167	116
3.63533	127
3.63900	140
3.64267	154
3.64633	169
3.65000	185
3.65367	200
3.65733	216
3.66100	234
3.66467	252
3.66833	269
3.67200	286
3.67567	302
3.67933	318
3.68300	333
3.68667	347
3.69033	358
3.69400	367
3.69767	374
3.70133	380
3.70500	387
3.70867	393
3.71233	400
3.71600	403
3.71967	407
3.72333	411
3.72700	413
3.73067	415
3.73433	417
3.73800	418
3.74167	420
3.74533	423
3.74900	424
3.75267	425
3.75633	427
3.76000	428
3.76367	427
3.76733	428
3.77100	428
3.77467	428
3.77833	428
3.78200	431
3.78567	430
3.78933	428
3.79300	428
3.79667	428
3.80033	429
3.80400	427
3.80767	426
3.81133	427
3.81500	426
3.81867	423
3.82233	420
3.82600	419
3.82967	418
3.83333	417
3.83700	417
3.84067	419
3.84433	419
3.84800	419
3.85167	416
3.85533	416
3.85900	413
3.86267	411
3.86633	410
3.87000	410
3.87367	412
3.87733	414
3.88100	416
3.88467	417
3.88833	414
3.89200	412
3.89567	412
3.89933	412
3.90300	414
3.90667	414
3.91033	414
3.91400	413
3.91767	412
3.92133	411
3.92500	409
3.92867	404
3.93233	400
3.93600	399
3.93967	397
3.94333	395
3.94700	398
3.95067	402
3.95433	404
3.95800	405
3.96167	408
3.96533	412
3.96900	414
3.97267	412
3.97633	410
3.98000	407
3.98367	404
3.98733	402
3.99100	400
3.99467	399
3.99833	398

[Status Trace (Column Oven Temperature)]
Interval(msec)	1000
# of Points	240
Start Time(min)	0.004
End Time(min)	3.987
Intensity Units	
Intensity Multiplier	1
R.Time (min)	Intensity
0.00395	35.01
0.02062	35.00
0.03728	34.99
0.05395	34.98
0.07062	34.99
0.08728	34.99
0.10395	35.01
0.12062	35.02
0.13728	35.02
0.15395	35.02
0.17062	35.02
0.18728	35.02
0.20395	35.02
0.22062	35.03
0.23728	35.04
0.25395	35.03
0.27062	35.03
0.28728	35.02
0.30395	35.02
0.32062	35.02
0.33728	35.00
0.35395	34.99
0.37062	34.99
0.38728	34.99
0.40395	35.00
0.42062	35.00
0.43728	35.00
0.45395	35.00
0.47062	35.00
0.48728	34.99
0.50395	34.98
0.52062	34.98
0.53728	34.99
0.55395	34.99
0.57062	35.01
0.58728	35.02
0.60395	35.03
0.62062	35.02
0.63728	35.00
0.65395	35.00
0.67062	35.01
0.68728	35.01
0.70395	35.01
0.72062	35.01
0.73728	35.00
0.75395	35.00
0.77062	35.01
0.78728	35.02
0.80395	35.03
0.82062	35.03
0.83728	35.03
0.85395	35.03
0.87062	35.03
0.88728	35.00
0.90395	34.99
0.92062	34.97
0.93728	34.98
0.95395	34.99
0.97062	34.99
0.98728	35.00
1.00395	35.00
1.02062	35.02
1.03728	35.02
1.05395	35.02
1.07062	35.00
1.08728	34.98
1.10395	34.98
1.12062	34.97
1.13728	34.98
1.15395	34.99
1.17062	35.02
1.18728	35.02
1.20395	35.01
1.22062	35.01
1.23728	35.02
1.25395	35.02
1.27062	35.02
1.28728	35.02
1.30395	35.03
1.32062	35.02
1.33728	35.02
1.35395	35.02
1.37062	35.02
1.38728	35.00
1.40395	35.00
1.42062	35.00
1.43728	35.00
1.45395	35.01
1.47062	35.01
1.48728	35.01
1.50395	35.00
1.52062	35.00
1.53728	35.00
1.55395	34.99
1.57062	34.97
1.58728	34.96
1.60395	35.01
1.62062	35.13
1.63728	35.31
1.65395	35.54
1.67062	35.87
1.68728	36.23
1.70395	36.59
1.72062	36.94
1.73728	37.27
1.75395	37.58
1.77062	37.93
1.78728	38.26
1.80395	38.59
1.82062	38.93
1.83728	39.25
1.85395	39.58
1.87062	39.92
1.88728	40.23
1.90395	40.56
1.92062	40.88
1.93728	41.19
1.95395	41.52
1.97062	41.84
1.98728	42.17
2.00395	42.50
2.02062	42.84
2.03728	43.15
2.05395	43.49
2.07062	43.81
2.08728	44.14
2.10395	44.47
2.12062	44.78
2.13728	45.10
2.15395	45.44
2.17062	45.75
2.18728	46.08
2.20395	46.43
2.22062	46.74
2.23728	47.06
2.25395	47.45
2.27062	47.76
2.28728	48.09
2.30395	48.43
2.32062	48.73
2.33728	49.09
2.35395	49.39
2.37062	49.58
2.38728	49.63
2.40395	49.63
2.42062	49.63
2.43728	49.64
2.45395	49.65
2.47062	49.67
2.48728	49.66
2.50395	49.68
2.52062	49.69
2.53728	49.70
2.55395	49.71
2.57062	49.73
2.58728	49.74
2.60395	49.76
2.62062	49.79
2.63728	49.79
2.65395	49.81
2.67062	49.81
2.68728	49.82
2.70395	49.83
2.72062	49.84
2.73728	49.84
2.75395	49.86
2.77062	49.86
2.78728	49.85
2.80395	49.85
2.82062	49.87
2.83728	49.87
2.85395	49.88
2.87062	49.88
2.88728	49.89
2.90395	49.89
2.92062	49.90
2.93728	49.91
2.95395	49.93
2.97062	49.94
2.98728	49.94
3.00395	49.93
3.02062	49.93
3.03728	49.93
3.05395	49.95
3.07062	49.97
3.08728	49.98
3.10395	50.01
3.12062	50.03
3.13728	50.04
3.15395	50.06
3.17062	50.06
3.18728	50.06
3.20395	50.06
3.22062	50.07
3.23728	50.09
3.25395	50.10
3.27062	50.10
3.28728	50.11
3.30395	50.10
3.32062	50.09
3.33728	50.09
3.35395	50.08
3.37062	50.08
3.38728	50.07
3.40395	50.07
3.42062	50.06
3.43728	50.05
3.45395	50.05
3.47062	50.05
3.48728	50.05
3.50395	50.05
3.52062	50.05
3.53728	50.05
3.55395	50.05
3.57062	50.05
3.58728	50.06
3.60395	50.06
3.62062	50.06
3.63728	50.07
3.65395	50.07
3.67062	50.07
3.68728	50.05
3.70395	50.06
3.72062	50.06
3.73728	50.06
3.75395	50.06
3.77062	50.05
3.78728	50.05
3.80395	50.06
3.82062	50.07
3.83728	50.08
3.85395	50.07
3.87062	50.08
3.88728	50.09
3.90395	50.08
3.92062	50.08
3.93728	50.07
3.95395	50.07
3.97062	50.07
3.98728	50.06

[Status Trace (Injection Unit Temperature)]
Interval(msec)	1000
# of Points	240
Start Time(min)	0.004
End Time(min)	3.987
Intensity Units	
Intensity Multiplier	1
R.Time (min)	Intensity
0.00395	99.97
0.02062	99.97
0.03728	99.97
0.05395	99.98
0.07062	99.98
0.08728	99.98
0.10395	99.98
0.12062	99.98
0.13728	99.98
0.15395	99.98
0.17062	99.98
0.18728	99.98
0.20395	99.98
0.22062	99.98
0.23728	99.98
0.25395	99.98
0.27062	99.98
0.28728	99.99
0.30395	99.99
0.32062	99.98
0.33728	99.99
0.35395	99.98
0.37062	99.99
0.38728	99.99
0.40395	99.98
0.42062	99.99
0.43728	99.98
0.45395	99.99
0.47062	99.99
0.48728	99.99
0.50395	99.99
0.52062	99.99
0.53728	99.99
0.55395	99.99
0.57062	99.99
0.58728	99.99
0.60395	99.99
0.62062	99.99
0.63728	99.99
0.65395	99.99
0.67062	99.99
0.68728	99.98
0.70395	99.99
0.72062	99.98
0.73728	99.98
0.75395	99.99
0.77062	99.99
0.78728	99.99
0.80395	99.99
0.82062	99.98
0.83728	99.99
0.85395	99.99
0.87062	99.98
0.88728	99.98
0.90395	99.98
0.92062	99.98
0.93728	99.98
0.95395	99.98
0.97062	99.98
0.98728	99.98
1.00395	99.98
1.02062	99.98
1.03728	99.98
1.05395	99.98
1.07062	99.98
1.08728	99.98
1.10395	99.98
1.12062	99.98
1.13728	99.98
1.15395	99.98
1.17062	99.98
1.18728	99.98
1.20395	99.98
1.22062	99.98
1.23728	99.98
1.25395	99.98
1.27062	99.98
1.28728	99.98
1.30395	99.98
1.32062	99.98
1.33728	99.98
1.35395	99.98
1.37062	99.98
1.38728	99.98
1.40395	99.98
1.42062	99.99
1.43728	99.98
1.45395	99.98
1.47062	99.99
1.48728	99.99
1.50395	99.99
1.52062	99.99
1.53728	99.99
1.55395	99.98
1.57062	99.98
1.58728	99.98
1.60395	99.98
1.62062	99.99
1.63728	99.99
1.65395	99.99
1.67062	99.98
1.68728	99.98
1.70395	99.98
1.72062	99.99
1.73728	99.98
1.75395	99.99
1.77062	99.98
1.78728	99.99
1.80395	99.99
1.82062	99.98
1.83728	99.98
1.85395	99.98
1.87062	99.98
1.88728	99.98
1.90395	99.98
1.92062	99.98
1.93728	99.98
1.95395	99.98
1.97062	99.98
1.98728	99.98
2.00395	99.97
2.02062	99.98
2.03728	99.97
2.05395	99.97
2.07062	99.97
2.08728	99.97
2.10395	99.97
2.12062	99.97
2.13728	99.97
2.15395	99.96
2.17062	99.97
2.18728	99.96
2.20395	99.97
2.22062	99.97
2.23728	99.96
2.25395	99.96
2.27062	99.96
2.28728	99.96
2.30395	99.96
2.32062	99.96
2.33728	99.96
2.35395	99.96
2.37062	99.96
2.38728	99.96
2.40395	99.96
2.42062	99.96
2.43728	99.96
2.45395	99.96
2.47062	99.96
2.48728	99.96
2.50395	99.96
2.52062	99.96
2.53728	99.96
2.55395	99.96
2.57062	99.97
2.58728	99.97
2.60395	99.97
2.62062	99.97
2.63728	99.97
2.65395	99.97
2.67062	99.97
2.68728	99.98
2.70395	99.98
2.72062	99.98
2.73728	99.99
2.75395	99.98
2.77062	99.98
2.78728	99.98
2.80395	99.99
2.82062	99.99
2.83728	99.99
2.85395	99.99
2.87062	100.00
2.88728	99.99
2.90395	100.00
2.92062	100.00
2.93728	100.00
2.95395	100.00
2.97062	100.00
2.98728	100.01
3.00395	100.00
3.02062	100.01
3.03728	100.01
3.05395	100.01
3.07062	100.01
3.08728	100.01
3.10395	100.01
3.12062	100.01
3.13728	100.02
3.15395	100.02
3.17062	100.02
3.18728	100.02
3.20395	100.02
3.22062	100.02
3.23728	100.02
3.25395	100.03
3.27062	100.03
3.28728	100.03
3.30395	100.02
3.32062	100.03
3.33728	100.03
3.35395	100.03
3.37062	100.03
3.38728	100.03
3.40395	100.03
3.42062	100.03
3.43728	100.04
3.45395	100.03
3.47062	100.04
3.48728	100.03
3.50395	100.04
3.52062	100.04
3.53728	100.04
3.55395	100.04
3.57062	100.04
3.58728	100.04
3.60395	100.04
3.62062	100.04
3.63728	100.04
3.65395	100.04
3.67062	100.04
3.68728	100.04
3.70395	100.04
3.72062	100.04
3.73728	100.04
3.75395	100.04
3.77062	100.04
3.78728	100.04
3.80395	100.04
3.82062	100.04
3.83728	100.04
3.85395	100.04
3.87062	100.05
3.88728	100.04
3.90395	100.04
3.92062	100.04
3.93728	100.04
3.95395	100.04
3.97062	100.04
3.98728	100.04

[Status Trace (Carrier Gas Pressure)]
Interval(msec)	1000
# of Points	240
Start Time(min)	0.004
End Time(min)	3.987
Intensity Units	
Intensity Multiplier	1
R.Time (min)	Intensity
0.00395	58.00
0.02062	55.98
0.03728	56.61
0.05395	58.73
0.07062	59.78
0.08728	58.19
0.10395	57.97
0.12062	58.01
0.13728	58.01
0.15395	58.01
0.17062	58.00
0.18728	58.00
0.20395	58.00
0.22062	58.00
0.23728	58.00
0.25395	58.00
0.27062	58.00
0.28728	58.00
0.30395	58.00
0.32062	58.00
0.33728	58.00
0.35395	58.00
0.37062	58.00
0.38728	58.00
0.40395	58.00
0.42062	58.00
0.43728	58.00
0.45395	58.00
0.47062	58.00
0.48728	58.00
0.50395	58.00
0.52062	58.00
0.53728	58.00
0.55395	58.00
0.57062	58.00
0.58728	58.00
0.60395	58.00
0.62062	58.00
0.63728	58.00
0.65395	58.00
0.67062	58.00
0.68728	58.00
0.70395	58.00
0.72062	58.00
0.73728	58.00
0.75395	58.00
0.77062	58.00
0.78728	58.00
0.80395	58.00
0.82062	58.00
0.83728	58.00
0.85395	58.00
0.87062	58.00
0.88728	58.00
0.90395	58.00
0.92062	58.00
0.93728	58.00
0.95395	58.00
0.97062	58.00
0.98728	58.00
1.00395	58.00
1.02062	58.00
1.03728	58.00
1.05395	58.00
1.07062	58.00
1.08728	58.00
1.10395	58.00
1.12062	58.00
1.13728	58.00
1.15395	58.00
1.17062	58.00
1.18728	58.00
1.20395	58.00
1.22062	58.00
1.23728	58.00
1.25395	58.00
1.27062	58.00
1.28728	58.00
1.30395	58.00
1.32062	58.00
1.33728	58.00
1.35395	58.00
1.37062	58.00
1.38728	58.00
1.40395	58.00
1.42062	58.00
1.43728	58.00
1.45395	58.00
1.47062	58.00
1.48728	58.00
1.50395	58.00
1.52062	58.00
1.53728	58.00
1.55395	58.00
1.57062	58.00
1.58728	58.00
1.60395	58.00
1.62062	58.00
1.63728	58.00
1.65395	58.00
1.67062	58.01
1.68728	58.01
1.70395	58.00
1.72062	58.00
1.73728	58.00
1.75395	58.00
1.77062	58.00
1.78728	58.00
1.80395	58.00
1.82062	58.00
1.83728	58.00
1.85395	58.00
1.87062	58.00
1.88728	58.00
1.90395	58.00
1.92062	58.00
1.93728	58.00
1.95395	58.00
1.97062	58.00
1.98728	58.00
2.00395	58.00
2.02062	58.00
2.03728	58.00
2.05395	58.00
2.07062	58.00
2.08728	58.00
2.10395	58.00
2.12062	58.00
2.13728	58.00
2.15395	58.00
2.17062	58.00
2.18728	58.00
2.20395	58.00
2.22062	58.00
2.23728	58.00
2.25395	58.00
2.27062	58.00
2.28728	58.00
2.30395	58.00
2.32062	58.00
2.33728	58.00
2.35395	58.00
2.37062	57.99
2.38728	57.99
2.40395	57.99
2.42062	58.00
2.43728	58.00
2.45395	58.00
2.47062	58.00
2.48728	58.00
2.50395	57.98
2.52062	57.99
2.53728	58.00
2.55395	58.00
2.57062	58.00
2.58728	58.00
2.60395	58.00
2.62062	58.00
2.63728	58.00
2.65395	58.00
2.67062	58.00
2.68728	58.00
2.70395	58.00
2.72062	58.00
2.73728	58.00
2.75395	58.00
2.77062	58.00
2.78728	58.00
2.80395	58.00
2.82062	58.00
2.83728	58.00
2.85395	58.00
2.87062	58.00
2.88728	58.00
2.90395	58.00
2.92062	58.00
2.93728	58.00
2.95395	58.00
2.97062	58.00
2.98728	58.00
3.00395	58.00
3.02062	58.00
3.03728	58.00
3.05395	58.00
3.07062	58.00
3.08728	58.00
3.10395	58.00
3.12062	58.00
3.13728	58.00
3.15395	58.00
3.17062	58.00
3.18728	58.00
3.20395	58.00
3.22062	58.00
3.23728	58.00
3.25395	58.00
3.27062	58.00
3.28728	58.00
3.30395	58.00
3.32062	58.00
3.33728	58.00
3.35395	58.00
3.37062	58.00
3.38728	58.00
3.40395	58.00
3.42062	58.00
3.43728	58.00
3.45395	58.00
3.47062	58.00
3.48728	58.00
3.50395	58.00
3.52062	58.00
3.53728	58.00
3.55395	58.00
3.57062	58.00
3.58728	58.00
3.60395	58.00
3.62062	58.00
3.63728	58.00
3.65395	58.00
3.67062	58.00
3.68728	58.00
3.70395	58.00
3.72062	58.00
3.73728	58.00
3.75395	58.00
3.77062	58.00
3.78728	58.00
3.80395	58.00
3.82062	58.00
3.83728	58.00
3.85395	58.00
3.87062	58.00
3.88728	58.00
3.90395	58.00
3.92062	58.00
3.93728	58.00
3.95395	58.00
3.97062	58.00
3.98728	58.00

[Status Trace (Carrier Gas Flow)]
Interval(msec)	1000
# of Points	240
Start Time(min)	0.004
End Time(min)	3.987
Intensity Units	
Intensity Multiplier	1
R.Time (min)	Intensity
0.00395	34.52
0.02062	34.57
0.03728	34.54
0.05395	34.55
0.07062	34.49
0.08728	34.52
0.10395	34.52
0.12062	34.52
0.13728	34.52
0.15395	34.52
0.17062	34.52
0.18728	34.52
0.20395	34.51
0.22062	34.52
0.23728	34.53
0.25395	34.52
0.27062	34.51
0.28728	34.52
0.30395	34.52
0.32062	34.52
0.33728	34.52
0.35395	34.52
0.37062	34.52
0.38728	34.52
0.40395	34.52
0.42062	34.52
0.43728	34.51
0.45395	34.52
0.47062	34.52
0.48728	34.52
0.50395	34.52
0.52062	34.52
0.53728	34.52
0.55395	34.52
0.57062	34.52
0.58728	34.52
0.60395	34.52
0.62062	34.52
0.63728	34.52
0.65395	34.52
0.67062	34.52
0.68728	34.52
0.70395	34.52
0.72062	34.52
0.73728	34.52
0.75395	34.52
0.77062	34.52
0.78728	34.52
0.80395	34.52
0.82062	34.52
0.83728	34.52
0.85395	34.52
0.87062	34.52
0.88728	34.52
0.90395	34.52
0.92062	34.52
0.93728	34.52
0.95395	34.52
0.97062	34.52
0.98728	34.52
1.00395	34.52
1.02062	34.52
1.03728	34.52
1.05395	34.52
1.07062	34.52
1.08728	34.52
1.10395	34.52
1.12062	34.52
1.13728	34.52
1.15395	34.52
1.17062	34.52
1.18728	34.52
1.20395	34.52
1.22062	34.51
1.23728	34.51
1.25395	34.52
1.27062	34.52
1.28728	34.52
1.30395	34.52
1.32062	34.52
1.33728	34.52
1.35395	34.51
1.37062	34.52
1.38728	34.52
1.40395	34.52
1.42062	34.51
1.43728	34.52
1.45395	34.51
1.47062	34.52
1.48728	34.52
1.50395	34.52
1.52062	34.52
1.53728	34.52
1.55395	34.52
1.57062	34.52
1.58728	34.52
1.60395	34.51
1.62062	34.52
1.63728	34.52
1.65395	34.52
1.67062	34.52
1.68728	34.52
1.70395	34.52
1.72062	34.52
1.73728	34.52
1.75395	34.52
1.77062	34.52
1.78728	34.52
1.80395	34.52
1.82062	34.52
1.83728	34.52
1.85395	34.52
1.87062	34.52
1.88728	34.51
1.90395	34.51
1.92062	34.51
1.93728	34.52
1.95395	34.51
1.97062	34.52
1.98728	34.52
2.00395	34.52
2.02062	34.51
2.03728	34.52
2.05395	34.52
2.07062	34.52
2.08728	34.52
2.10395	34.52
2.12062	34.53
2.13728	34.52
2.15395	34.51
2.17062	34.52
2.18728	34.52
2.20395	34.52
2.22062	34.52
2.23728	34.52
2.25395	34.52
2.27062	34.52
2.28728	34.52
2.30395	34.52
2.32062	34.52
2.33728	34.52
2.35395	34.52
2.37062	34.52
2.38728	34.52
2.40395	34.52
2.42062	34.52
2.43728	34.52
2.45395	34.52
2.47062	34.52
2.48728	34.51
2.50395	34.66
2.52062	34.51
2.53728	34.52
2.55395	34.52
2.57062	34.51
2.58728	34.51
2.60395	34.52
2.62062	34.52
2.63728	34.52
2.65395	34.52
2.67062	34.52
2.68728	34.52
2.70395	34.53
2.72062	34.51
2.73728	34.52
2.75395	34.52
2.77062	34.52
2.78728	34.51
2.80395	34.51
2.82062	34.52
2.83728	34.53
2.85395	34.52
2.87062	34.52
2.88728	34.52
2.90395	34.52
2.92062	34.52
2.93728	34.52
2.95395	34.51
2.97062	34.52
2.98728	34.51
3.00395	34.52
3.02062	34.52
3.03728	34.52
3.05395	34.52
3.07062	34.52
3.08728	34.52
3.10395	34.52
3.12062	34.52
3.13728	34.51
3.15395	34.52
3.17062	34.52
3.18728	34.52
3.20395	34.52
3.22062	34.53
3.23728	34.52
3.25395	34.52
3.27062	34.52
3.28728	34.52
3.30395	34.52
3.32062	34.51
3.33728	34.51
3.35395	34.52
3.37062	34.52
3.38728	34.52
3.40395	34.52
3.42062	34.52
3.43728	34.52
3.45395	34.51
3.47062	34.52
3.48728	34.52
3.50395	34.52
3.52062	34.52
3.53728	34.51
3.55395	34.52
3.57062	34.52
3.58728	34.52
3.60395	34.52
3.62062	34.51
3.63728	34.53
3.65395	34.52
3.67062	34.52
3.68728	34.51
3.70395	34.52
3.72062	34.52
3.73728	34.52
3.75395	34.52
3.77062	34.51
3.78728	34.52
3.80395	34.52
3.82062	34.52
3.83728	34.52
3.85395	34.52
3.87062	34.51
3.88728	34.52
3.90395	34.52
3.92062	34.52
3.93728	34.52
3.95395	34.52
3.97062	34.52
3.98728	34.52

[Status Trace (Column Flow)]
Interval(msec)	1000
# of Points	240
Start Time(min)	0.004
End Time(min)	3.987
Intensity Units	
Intensity Multiplier	1
R.Time (min)	Intensity
0.00395	5.57
0.02062	5.33
0.03728	5.40
0.05395	5.65
0.07062	5.78
0.08728	5.59
0.10395	5.56
0.12062	5.57
0.13728	5.57
0.15395	5.57
0.17062	5.57
0.18728	5.57
0.20395	5.57
0.22062	5.57
0.23728	5.57
0.25395	5.57
0.27062	5.57
0.28728	5.57
0.30395	5.57
0.32062	5.57
0.33728	5.57
0.35395	5.57
0.37062	5.57
0.38728	5.57
0.40395	5.57
0.42062	5.57
0.43728	5.57
0.45395	5.57
0.47062	5.57
0.48728	5.57
0.50395	5.57
0.52062	5.57
0.53728	5.57
0.55395	5.57
0.57062	5.57
0.58728	5.57
0.60395	5.57
0.62062	5.57
0.63728	5.57
0.65395	5.57
0.67062	5.57
0.68728	5.57
0.70395	5.57
0.72062	5.57
0.73728	5.57
0.75395	5.57
0.77062	5.57
0.78728	5.57
0.80395	5.56
0.82062	5.56
0.83728	5.56
0.85395	5.56
0.87062	5.56
0.88728	5.57
0.90395	5.57
0.92062	5.57
0.93728	5.57
0.95395	5.57
0.97062	5.57
0.98728	5.57
1.00395	5.57
1.02062	5.57
1.03728	5.57
1.05395	5.57
1.07062	5.57
1.08728	5.57
1.10395	5.57
1.12062	5.57
1.13728	5.57
1.15395	5.57
1.17062	5.57
1.18728	5.57
1.20395	5.57
1.22062	5.57
1.23728	5.57
1.25395	5.57
1.27062	5.57
1.28728	5.57
1.30395	5.57
1.32062	5.57
1.33728	5.57
1.35395	5.57
1.37062	5.57
1.38728	5.57
1.40395	5.57
1.42062	5.57
1.43728	5.57
1.45395	5.57
1.47062	5.57
1.48728	5.57
1.50395	5.57
1.52062	5.57
1.53728	5.57
1.55395	5.57
1.57062	5.57
1.58728	5.57
1.60395	5.57
1.62062	5.56
1.63728	5.56
1.65395	5.55
1.67062	5.54
1.68728	5.53
1.70395	5.52
1.72062	5.51
1.73728	5.49
1.75395	5.49
1.77062	5.47
1.78728	5.46
1.80395	5.45
1.82062	5.44
1.83728	5.43
1.85395	5.42
1.87062	5.41
1.88728	5.40
1.90395	5.39
1.92062	5.38
1.93728	5.37
1.95395	5.37
1.97062	5.35
1.98728	5.35
2.00395	5.34
2.02062	5.33
2.03728	5.32
2.05395	5.31
2.07062	5.30
2.08728	5.29
2.10395	5.28
2.12062	5.27
2.13728	5.26
2.15395	5.25
2.17062	5.24
2.18728	5.23
2.20395	5.22
2.22062	5.21
2.23728	5.20
2.25395	5.19
2.27062	5.18
2.28728	5.17
2.30395	5.16
2.32062	5.15
2.33728	5.14
2.35395	5.14
2.37062	5.13
2.38728	5.13
2.40395	5.13
2.42062	5.13
2.43728	5.13
2.45395	5.13
2.47062	5.13
2.48728	5.13
2.50395	5.13
2.52062	5.13
2.53728	5.13
2.55395	5.13
2.57062	5.13
2.58728	5.13
2.60395	5.13
2.62062	5.13
2.63728	5.13
2.65395	5.12
2.67062	5.12
2.68728	5.12
2.70395	5.12
2.72062	5.12
2.73728	5.12
2.75395	5.12
2.77062	5.12
2.78728	5.12
2.80395	5.12
2.82062	5.12
2.83728	5.12
2.85395	5.12
2.87062	5.12
2.88728	5.12
2.90395	5.12
2.92062	5.12
2.93728	5.12
2.95395	5.12
2.97062	5.12
2.98728	5.12
3.00395	5.12
3.02062	5.12
3.03728	5.12
3.05395	5.12
3.07062	5.12
3.08728	5.12
3.10395	5.12
3.12062	5.12
3.13728	5.12
3.15395	5.12
3.17062	5.12
3.18728	5.12
3.20395	5.12
3.22062	5.12
3.23728	5.12
3.25395	5.12
3.27062	5.12
3.28728	5.12
3.30395	5.12
3.32062	5.12
3.33728	5.12
3.35395	5.12
3.37062	5.12
3.38728	5.12
3.40395	5.12
3.42062	5.12
3.43728	5.12
3.45395	5.12
3.47062	5.12
3.48728	5.12
3.50395	5.12
3.52062	5.12
3.53728	5.12
3.55395	5.12
3.57062	5.12
3.58728	5.12
3.60395	5.12
3.62062	5.12
3.63728	5.12
3.65395	5.12
3.67062	5.12
3.68728	5.12
3.70395	5.12
3.72062	5.12
3.73728	5.12
3.75395	5.12
3.77062	5.12
3.78728	5.12
3.80395	5.12
3.82062	5.12
3.83728	5.12
3.85395	5.12
3.87062	5.12
3.88728	5.12
3.90395	5.12
3.92062	5.12
3.93728	5.12
3.95395	5.12
3.97062	5.12
3.98728	5.12

[Status Trace (Linear Velocity)]
Interval(msec)	1000
# of Points	240
Start Time(min)	0.004
End Time(min)	3.987
Intensity Units	
Intensity Multiplier	1
R.Time (min)	Intensity
0.00395	39.03
0.02062	37.70
0.03728	38.11
0.05395	39.51
0.07062	40.19
0.08728	39.15
0.10395	39.01
0.12062	39.03
0.13728	39.03
0.15395	39.03
0.17062	39.03
0.18728	39.03
0.20395	39.03
0.22062	39.03
0.23728	39.02
0.25395	39.03
0.27062	39.03
0.28728	39.03
0.30395	39.03
0.32062	39.03
0.33728	39.03
0.35395	39.03
0.37062	39.03
0.38728	39.03
0.40395	39.03
0.42062	39.03
0.43728	39.03
0.45395	39.03
0.47062	39.03
0.48728	39.03
0.50395	39.03
0.52062	39.03
0.53728	39.03
0.55395	39.03
0.57062	39.03
0.58728	39.02
0.60395	39.02
0.62062	39.02
0.63728	39.03
0.65395	39.03
0.67062	39.03
0.68728	39.03
0.70395	39.03
0.72062	39.03
0.73728	39.03
0.75395	39.03
0.77062	39.03
0.78728	39.03
0.80395	39.02
0.82062	39.02
0.83728	39.02
0.85395	39.02
0.87062	39.02
0.88728	39.03
0.90395	39.03
0.92062	39.03
0.93728	39.03
0.95395	39.03
0.97062	39.03
0.98728	39.03
1.00395	39.03
1.02062	39.03
1.03728	39.03
1.05395	39.02
1.07062	39.03
1.08728	39.03
1.10395	39.03
1.12062	39.03
1.13728	39.03
1.15395	39.03
1.17062	39.03
1.18728	39.02
1.20395	39.03
1.22062	39.03
1.23728	39.03
1.25395	39.03
1.27062	39.02
1.28728	39.03
1.30395	39.03
1.32062	39.02
1.33728	39.02
1.35395	39.03
1.37062	39.03
1.38728	39.03
1.40395	39.03
1.42062	39.03
1.43728	39.03
1.45395	39.03
1.47062	39.03
1.48728	39.03
1.50395	39.03
1.52062	39.03
1.53728	39.03
1.55395	39.03
1.57062	39.03
1.58728	39.03
1.60395	39.03
1.62062	39.02
1.63728	39.00
1.65395	38.98
1.67062	38.95
1.68728	38.91
1.70395	38.88
1.72062	38.84
1.73728	38.81
1.75395	38.78
1.77062	38.75
1.78728	38.72
1.80395	38.69
1.82062	38.65
1.83728	38.62
1.85395	38.59
1.87062	38.56
1.88728	38.53
1.90395	38.50
1.92062	38.47
1.93728	38.44
1.95395	38.41
1.97062	38.38
1.98728	38.35
2.00395	38.32
2.02062	38.29
2.03728	38.26
2.05395	38.23
2.07062	38.20
2.08728	38.17
2.10395	38.14
2.12062	38.11
2.13728	38.08
2.15395	38.05
2.17062	38.02
2.18728	37.99
2.20395	37.96
2.22062	37.93
2.23728	37.90
2.25395	37.87
2.27062	37.84
2.28728	37.81
2.30395	37.78
2.32062	37.75
2.33728	37.72
2.35395	37.70
2.37062	37.68
2.38728	37.67
2.40395	37.67
2.42062	37.67
2.43728	37.67
2.45395	37.67
2.47062	37.67
2.48728	37.67
2.50395	37.66
2.52062	37.66
2.53728	37.67
2.55395	37.67
2.57062	37.67
2.58728	37.66
2.60395	37.66
2.62062	37.66
2.63728	37.66
2.65395	37.66
2.67062	37.66
2.68728	37.66
2.70395	37.66
2.72062	37.66
2.73728	37.66
2.75395	37.65
2.77062	37.65
2.78728	37.66
2.80395	37.66
2.82062	37.65
2.83728	37.65
2.85395	37.65
2.87062	37.65
2.88728	37.65
2.90395	37.65
2.92062	37.65
2.93728	37.65
2.95395	37.65
2.97062	37.65
2.98728	37.65
3.00395	37.65
3.02062	37.65
3.03728	37.65
3.05395	37.65
3.07062	37.65
3.08728	37.64
3.10395	37.64
3.12062	37.64
3.13728	37.64
3.15395	37.64
3.17062	37.64
3.18728	37.64
3.20395	37.64
3.22062	37.64
3.23728	37.63
3.25395	37.63
3.27062	37.63
3.28728	37.63
3.30395	37.63
3.32062	37.63
3.33728	37.64
3.35395	37.64
3.37062	37.64
3.38728	37.64
3.40395	37.64
3.42062	37.64
3.43728	37.64
3.45395	37.64
3.47062	37.64
3.48728	37.64
3.50395	37.64
3.52062	37.64
3.53728	37.64
3.55395	37.64
3.57062	37.64
3.58728	37.64
3.60395	37.64
3.62062	37.64
3.63728	37.64
3.65395	37.64
3.67062	37.64
3.68728	37.64
3.70395	37.64
3.72062	37.64
3.73728	37.64
3.75395	37.64
3.77062	37.64
3.78728	37.64
3.80395	37.64
3.82062	37.64
3.83728	37.64
3.85395	37.64
3.87062	37.64
3.88728	37.63
3.90395	37.64
3.92062	37.64
3.93728	37.64
3.95395	37.64
3.97062	37.64
3.98728	37.64

