[Header]
Application Name	LabSolutions
Version	5.110
Data File Name	C:\Users\User\Desktop\GC Analyses\Jack\Nachusa Grasslands Sampling\T1 Timepoint July 12th\T1_07122022_077.gcd
Output Date	3/14/2023
Output Time	3:41:02 PM

[File Information]
Type	Data File
Generated	3/8/2023 9:50:14 PM
Generated by	System Administrator
Modified	3/8/2023 9:57:07 PM
Modified by	System Administrator

[Sample Information]
Operator Name	System Administrator
Acquired	3/8/2023 9:53:07 PM
Sample Type	0:Unknown
Level	0
Sample Name	077
Sample ID	077
ISTD Amount1	1
ISTD Amount2	1
ISTD Amount3	1
ISTD Amount4	1
ISTD Amount5	1
ISTD Amount6	1
ISTD Amount7	1
ISTD Amount8	1
ISTD Amount9	1
ISTD Amount10	1
ISTD Amount11	1
ISTD Amount12	1
ISTD Amount13	1
ISTD Amount14	1
ISTD Amount15	1
ISTD Amount16	1
ISTD Amount17	1
ISTD Amount18	1
ISTD Amount19	1
ISTD Amount20	1
ISTD Amount21	1
ISTD Amount22	1
ISTD Amount23	1
ISTD Amount24	1
ISTD Amount25	1
ISTD Amount26	1
ISTD Amount27	1
ISTD Amount28	1
ISTD Amount29	1
ISTD Amount30	1
ISTD Amount31	1
ISTD Amount32	1
Sample Amount	1
Dilution Factor	1
Vial#	76
Injection Volume	1
Injection Count	1
Bar Code	

[Original Files]
Data File	C:\Users\User\Desktop\GC Analyses\Jack\Nachusa Grasslands Sampling\T1 Timepoint July 12th\T1_07122022_077.gcd
Method File	C:\LabSolutions\Data\GHG_4min_2022\ghg3_togas_w_acet_4 min_new_int.gcm
Batch File	C:\LabSolutions\Data\AutoSamplerTesting\T1_07122022.gcb
Report Format File	c:\LabSolutions\System\DEFAULT.lsr

[File Description]


[Configuration]
Instrument Name	C0B7VH3-Instrument1
Instrument #	1
Line #	1
# of Detectors	3
Detector ID	DET#1	DET#2	DET#3
Detector Name	FID	PTCD	ECD
# of Channels	1	1	1

[Peak Table(Ch1)]
# of Peaks	3
Peak#	R.Time	I.Time	F.Time	Area	Height	A/H	Conc.	Mark	ID#	Name	k'	Plate #	Plate Ht.	Tailing	Resolution	Sep.Factor	Area Ratio	Height Ratio	Conc. %	Norm Conc.
1	1.483	1.399	1.531	2576	716	3.600	18.186	   	1	CO	0.000	4273	35.106	0.000	0.000	0.000	0	0	1.973	1.973
2	1.567	1.531	1.644	20036	10042	1.995	387.407	 V 	2	CH4	0.057	11259	13.322	1.254	1.126	0.000	0	0	42.025	42.025
3	1.996	1.949	2.499	2057043	972889	2.114	516.262	   	3	CO2	0.346	17155	8.744	1.290	7.147	6.087	0	0	56.003	56.003

[Peak Table(Ch2)]
# of Peaks	0

[Peak Table(Ch3)]
# of Peaks	5
Peak#	R.Time	I.Time	F.Time	Area	Height	A/H	Conc.	Mark	ID#	Name	k'	Plate #	Plate Ht.	Tailing	Resolution	Sep.Factor	Area Ratio	Height Ratio	Conc. %	Norm Conc.
1	2.458	2.326	2.517	2071	589	3.514	0.000	   			0.000	9970	15.046	0.000	0.000	0.000	0	0	0.000	0.000
2	2.539	2.517	2.627	989	263	3.759	0.000	 V 			0.033	6211	24.151	0.000	0.710	0.000	0	0	0.000	0.000
3	2.678	2.642	2.741	165	57	2.916	0.000	   			0.089	18114	8.281	1.321	1.337	2.727	0	0	0.000	0.000
4	2.873	2.796	3.991	72310	15215	4.752	1.847	S  	1	N2O	0.169	12695	11.816	1.575	2.140	1.883	0	0	100.000	100.000
5	3.254	3.159	3.536	611	51	12.074	0.000	T  	2	SF6	0.324	1826	82.130	1.735	1.876	1.920	0	0	0.000	0.000

[Compound Results(Ch1)]
# of IDs	6
ID#	Name	R.Time	Area	Height	Conc.	Curve	3rd	2nd	1st	Constant	Area Ratio	Height Ratio	Conc. %	Norm Conc.
1	CO	1.483	2576	716	18.186	Linear	0.000000e+00	0.000000e+00	1.416423e+002	0.000000e+00	0	0	1.973	1.973
2	CH4	1.567	20036	10042	387.407	Linear	0.000000e+00	0.000000e+00	5.171738e+001	0.000000e+00	0	0	42.025	42.025
3	CO2	1.996	2057043	972889	516.262	Linear	0.000000e+00	0.000000e+00	3.984494e+003	0.000000e+00	0	0	56.003	56.003
4	Ethylene	0.000	0	0	0.000	Linear	0.000000e+00	0.000000e+00	0.000000e+00	0.000000e+00	0	0	0.000	0.000
5	Acetylene	0.000	0	0	0.000	Linear	0.000000e+00	0.000000e+00	0.000000e+00	0.000000e+00	0	0	0.000	0.000
6	Ethane	0.000	0	0	0.000	Linear	0.000000e+00	0.000000e+00	0.000000e+00	0.000000e+00	0	0	0.000	0.000

[Compound Results(Ch2)]
# of IDs	5
ID#	Name	R.Time	Area	Height	Conc.	Curve	3rd	2nd	1st	Constant	Area Ratio	Height Ratio	Conc. %	Norm Conc.
1	Hydrogen	0.000	0	0	0.000	Linear	0.000000e+00	0.000000e+00	0.000000e+00	0.000000e+00	0	0	0.000	0.000
2	Oxygen	0.000	0	0	0.000	Linear	0.000000e+00	0.000000e+00	0.000000e+00	0.000000e+00	0	0	0.000	0.000
3	Nitrogen	0.000	0	0	0.000	Linear	0.000000e+00	0.000000e+00	0.000000e+00	0.000000e+00	0	0	0.000	0.000
4	Methane	0.000	0	0	0.000	Linear	0.000000e+00	0.000000e+00	0.000000e+00	0.000000e+00	0	0	0.000	0.000
5	Carbon Monoxide	0.000	0	0	0.000	Linear	0.000000e+00	0.000000e+00	0.000000e+00	0.000000e+00	0	0	0.000	0.000

[Compound Results(Ch3)]
# of IDs	2
ID#	Name	R.Time	Area	Height	Conc.	Curve	3rd	2nd	1st	Constant	Area Ratio	Height Ratio	Conc. %	Norm Conc.
1	N2O	2.873	72310	15215	1.847	Linear	0.000000e+00	0.000000e+00	3.915173e+004	0.000000e+00	0	0	100.000	100.000
2	SF6	3.254	611	51	0.000	Linear	0.000000e+00	0.000000e+00	0.000000e+00	0.000000e+00	0	0	0.000	0.000

[Group Results(Ch1)]
# of Groups	0

[Group Results(Ch2)]
# of Groups	0

[Group Results(Ch3)]
# of Groups	0

[Chromatogram (Ch1)]
Interval(msec)	220
# of Points	1091
Start Time(min)	0.002
End Time(min)	3.998
R.Time (min)	Intensity
0.00167	46
0.00533	46
0.00900	47
0.01267	48
0.01633	51
0.02000	53
0.02367	54
0.02733	57
0.03100	61
0.03467	69
0.03833	79
0.04200	87
0.04567	90
0.04933	88
0.05300	81
0.05667	71
0.06033	66
0.06400	65
0.06767	67
0.07133	70
0.07500	76
0.07867	83
0.08233	89
0.08600	96
0.08967	101
0.09333	101
0.09700	97
0.10067	92
0.10433	91
0.10800	88
0.11167	85
0.11533	84
0.11900	83
0.12267	82
0.12633	80
0.13000	77
0.13367	77
0.13733	83
0.14100	89
0.14467	91
0.14833	86
0.15200	75
0.15567	63
0.15933	53
0.16300	47
0.16667	43
0.17033	40
0.17400	38
0.17767	37
0.18133	39
0.18500	42
0.18867	47
0.19233	51
0.19600	53
0.19967	50
0.20333	45
0.20700	40
0.21067	36
0.21433	35
0.21800	35
0.22167	32
0.22533	27
0.22900	23
0.23267	23
0.23633	23
0.24000	24
0.24367	22
0.24733	21
0.25100	20
0.25467	21
0.25833	25
0.26200	24
0.26567	24
0.26933	27
0.27300	30
0.27667	28
0.28033	22
0.28400	17
0.28767	15
0.29133	15
0.29500	18
0.29867	21
0.30233	21
0.30600	19
0.30967	20
0.31333	25
0.31700	31
0.32067	34
0.32433	32
0.32800	27
0.33167	21
0.33533	16
0.33900	16
0.34267	24
0.34633	34
0.35000	44
0.35367	51
0.35733	49
0.36100	43
0.36467	35
0.36833	26
0.37200	20
0.37567	14
0.37933	7
0.38300	1
0.38667	-3
0.39033	1
0.39400	9
0.39767	17
0.40133	25
0.40500	33
0.40867	40
0.41233	40
0.41600	35
0.41967	29
0.42333	24
0.42700	19
0.43067	14
0.43433	11
0.43800	9
0.44167	8
0.44533	11
0.44900	14
0.45267	19
0.45633	25
0.46000	26
0.46367	21
0.46733	15
0.47100	8
0.47467	1
0.47833	0
0.48200	3
0.48567	4
0.48933	6
0.49300	12
0.49667	19
0.50033	26
0.50400	31
0.50767	35
0.51133	36
0.51500	36
0.51867	34
0.52233	28
0.52600	23
0.52967	19
0.53333	16
0.53700	15
0.54067	17
0.54433	20
0.54800	23
0.55167	28
0.55533	33
0.55900	33
0.56267	28
0.56633	23
0.57000	24
0.57367	26
0.57733	28
0.58100	27
0.58467	27
0.58833	30
0.59200	31
0.59567	29
0.59933	28
0.60300	28
0.60667	28
0.61033	29
0.61400	34
0.61767	39
0.62133	44
0.62500	51
0.62867	56
0.63233	58
0.63600	56
0.63967	54
0.64333	54
0.64700	56
0.65067	59
0.65433	62
0.65800	62
0.66167	60
0.66533	61
0.66900	65
0.67267	69
0.67633	72
0.68000	68
0.68367	58
0.68733	50
0.69100	44
0.69467	41
0.69833	45
0.70200	53
0.70567	57
0.70933	56
0.71300	55
0.71667	59
0.72033	66
0.72400	68
0.72767	67
0.73133	68
0.73500	73
0.73867	80
0.74233	86
0.74600	88
0.74967	88
0.75333	83
0.75700	75
0.76067	70
0.76433	72
0.76800	79
0.77167	81
0.77533	75
0.77900	65
0.78267	58
0.78633	56
0.79000	55
0.79367	54
0.79733	54
0.80100	58
0.80467	64
0.80833	72
0.81200	77
0.81567	79
0.81933	80
0.82300	82
0.82667	84
0.83033	80
0.83400	73
0.83767	65
0.84133	56
0.84500	48
0.84867	45
0.85233	45
0.85600	49
0.85967	56
0.86333	62
0.86700	63
0.87067	62
0.87433	59
0.87800	56
0.88167	55
0.88533	56
0.88900	59
0.89267	63
0.89633	67
0.90000	70
0.90367	72
0.90733	74
0.91100	72
0.91467	69
0.91833	66
0.92200	63
0.92567	63
0.92933	66
0.93300	65
0.93667	61
0.94033	55
0.94400	51
0.94767	50
0.95133	55
0.95500	63
0.95867	69
0.96233	75
0.96600	78
0.96967	77
0.97333	76
0.97700	76
0.98067	74
0.98433	69
0.98800	60
0.99167	56
0.99533	54
0.99900	53
1.00267	54
1.00633	56
1.01000	61
1.01367	65
1.01733	62
1.02100	54
1.02467	48
1.02833	44
1.03200	40
1.03567	33
1.03933	30
1.04300	36
1.04667	44
1.05033	47
1.05400	47
1.05767	50
1.06133	54
1.06500	59
1.06867	63
1.07233	64
1.07600	61
1.07967	54
1.08333	47
1.08700	47
1.09067	44
1.09433	41
1.09800	38
1.10167	40
1.10533	43
1.10900	46
1.11267	47
1.11633	48
1.12000	48
1.12367	47
1.12733	45
1.13100	44
1.13467	45
1.13833	47
1.14200	53
1.14567	61
1.14933	68
1.15300	73
1.15667	72
1.16033	65
1.16400	56
1.16767	49
1.17133	45
1.17500	40
1.17867	33
1.18233	29
1.18600	30
1.18967	33
1.19333	39
1.19700	46
1.20067	55
1.20433	63
1.20800	67
1.21167	66
1.21533	59
1.21900	50
1.22267	46
1.22633	46
1.23000	45
1.23367	44
1.23733	44
1.24100	47
1.24467	49
1.24833	50
1.25200	46
1.25567	40
1.25933	34
1.26300	29
1.26667	26
1.27033	27
1.27400	28
1.27767	26
1.28133	22
1.28500	17
1.28867	14
1.29233	13
1.29600	13
1.29967	13
1.30333	14
1.30700	16
1.31067	21
1.31433	24
1.31800	26
1.32167	27
1.32533	26
1.32900	22
1.33267	20
1.33633	26
1.34000	36
1.34367	41
1.34733	40
1.35100	35
1.35467	31
1.35833	29
1.36200	29
1.36567	35
1.36933	37
1.37300	33
1.37667	26
1.38033	21
1.38400	18
1.38767	16
1.39133	18
1.39500	22
1.39867	28
1.40233	31
1.40600	33
1.40967	36
1.41333	42
1.41700	49
1.42067	50
1.42433	45
1.42800	41
1.43167	40
1.43533	46
1.43900	76
1.44267	173
1.44633	347
1.45000	520
1.45367	640
1.45733	703
1.46100	723
1.46467	719
1.46833	708
1.47200	706
1.47567	720
1.47933	743
1.48300	752
1.48667	734
1.49033	684
1.49400	616
1.49767	539
1.50133	463
1.50500	396
1.50867	341
1.51233	293
1.51600	254
1.51967	223
1.52333	199
1.52700	179
1.53067	162
1.53433	159
1.53800	226
1.54167	551
1.54533	1425
1.54900	2952
1.55267	4879
1.55633	6790
1.56000	8380
1.56367	9513
1.56733	10088
1.57100	9970
1.57467	9116
1.57833	7699
1.58200	6052
1.58567	4487
1.58933	3185
1.59300	2192
1.59667	1480
1.60033	994
1.60400	674
1.60767	464
1.61133	324
1.61500	227
1.61867	160
1.62233	115
1.62600	87
1.62967	72
1.63333	66
1.63700	63
1.64067	60
1.64433	54
1.64800	49
1.65167	51
1.65533	54
1.65900	56
1.66267	57
1.66633	53
1.67000	46
1.67367	40
1.67733	37
1.68100	32
1.68467	27
1.68833	27
1.69200	30
1.69567	33
1.69933	39
1.70300	46
1.70667	51
1.71033	48
1.71400	41
1.71767	32
1.72133	24
1.72500	22
1.72867	23
1.73233	24
1.73600	27
1.73967	33
1.74333	39
1.74700	43
1.75067	45
1.75433	42
1.75800	36
1.76167	29
1.76533	27
1.76900	28
1.77267	27
1.77633	25
1.78000	25
1.78367	24
1.78733	21
1.79100	20
1.79467	24
1.79833	29
1.80200	33
1.80567	36
1.80933	38
1.81300	43
1.81667	42
1.82033	40
1.82400	38
1.82767	38
1.83133	40
1.83500	43
1.83867	46
1.84233	45
1.84600	42
1.84967	44
1.85333	50
1.85700	50
1.86067	49
1.86433	47
1.86800	47
1.87167	43
1.87533	35
1.87900	25
1.88267	19
1.88633	20
1.89000	22
1.89367	26
1.89733	29
1.90100	33
1.90467	36
1.90833	38
1.91200	41
1.91567	50
1.91933	59
1.92300	63
1.92667	60
1.93033	53
1.93400	43
1.93767	35
1.94133	32
1.94500	33
1.94867	42
1.95233	73
1.95600	259
1.95967	1321
1.96333	6090
1.96700	22403
1.97067	65226
1.97433	152238
1.97800	290540
1.98167	466637
1.98533	651267
1.98900	812297
1.99267	924601
1.99633	972977
2.00000	952985
2.00367	871745
2.00733	747338
2.01100	603866
2.01467	463773
2.01833	342107
2.02200	245164
2.02567	172616
2.02933	120678
2.03300	84580
2.03667	59945
2.04033	43285
2.04400	32034
2.04767	24397
2.05133	19152
2.05500	15491
2.05867	12881
2.06233	10972
2.06600	9541
2.06967	8441
2.07333	7574
2.07700	6877
2.08067	6304
2.08433	5822
2.08800	5411
2.09167	5057
2.09533	4745
2.09900	4465
2.10267	4216
2.10633	3996
2.11000	3798
2.11367	3618
2.11733	3451
2.12100	3303
2.12467	3170
2.12833	3045
2.13200	2924
2.13567	2808
2.13933	2699
2.14300	2600
2.14667	2512
2.15033	2429
2.15400	2346
2.15767	2263
2.16133	2183
2.16500	2109
2.16867	2042
2.17233	1985
2.17600	1930
2.17967	1876
2.18333	1827
2.18700	1780
2.19067	1735
2.19433	1695
2.19800	1655
2.20167	1616
2.20533	1577
2.20900	1538
2.21267	1502
2.21633	1470
2.22000	1439
2.22367	1409
2.22733	1385
2.23100	1362
2.23467	1333
2.23833	1301
2.24200	1270
2.24567	1240
2.24933	1214
2.25300	1194
2.25667	1176
2.26033	1156
2.26400	1134
2.26767	1116
2.27133	1100
2.27500	1085
2.27867	1067
2.28233	1048
2.28600	1028
2.28967	1009
2.29333	994
2.29700	981
2.30067	970
2.30433	959
2.30800	950
2.31167	944
2.31533	934
2.31900	915
2.32267	893
2.32633	874
2.33000	860
2.33367	846
2.33733	833
2.34100	819
2.34467	807
2.34833	796
2.35200	790
2.35567	788
2.35933	785
2.36300	778
2.36667	766
2.37033	753
2.37400	746
2.37767	745
2.38133	746
2.38500	743
2.38867	738
2.39233	729
2.39600	716
2.39967	700
2.40333	682
2.40700	664
2.41067	652
2.41433	645
2.41800	641
2.42167	636
2.42533	633
2.42900	631
2.43267	629
2.43633	627
2.44000	627
2.44367	624
2.44733	615
2.45100	604
2.45467	595
2.45833	590
2.46200	591
2.46567	594
2.46933	598
2.47300	600
2.47667	597
2.48033	590
2.48400	583
2.48767	575
2.49133	570
2.49500	569
2.49867	570
2.50233	570
2.50600	568
2.50967	562
2.51333	557
2.51700	556
2.52067	556
2.52433	553
2.52800	544
2.53167	533
2.53533	522
2.53900	512
2.54267	506
2.54633	503
2.55000	502
2.55367	502
2.55733	501
2.56100	501
2.56467	502
2.56833	508
2.57200	515
2.57567	512
2.57933	501
2.58300	487
2.58667	476
2.59033	467
2.59400	460
2.59767	456
2.60133	453
2.60500	455
2.60867	456
2.61233	454
2.61600	451
2.61967	448
2.62333	443
2.62700	442
2.63067	442
2.63433	439
2.63800	435
2.64167	432
2.64533	434
2.64900	438
2.65267	440
2.65633	441
2.66000	445
2.66367	453
2.66733	461
2.67100	468
2.67467	470
2.67833	460
2.68200	441
2.68567	419
2.68933	399
2.69300	382
2.69667	373
2.70033	369
2.70400	372
2.70767	379
2.71133	390
2.71500	398
2.71867	401
2.72233	400
2.72600	399
2.72967	399
2.73333	398
2.73700	397
2.74067	399
2.74433	403
2.74800	406
2.75167	405
2.75533	398
2.75900	390
2.76267	385
2.76633	385
2.77000	388
2.77367	395
2.77733	404
2.78100	406
2.78467	401
2.78833	394
2.79200	387
2.79567	380
2.79933	375
2.80300	368
2.80667	360
2.81033	356
2.81400	356
2.81767	358
2.82133	362
2.82500	365
2.82867	365
2.83233	363
2.83600	361
2.83967	359
2.84333	360
2.84700	361
2.85067	362
2.85433	363
2.85800	361
2.86167	358
2.86533	354
2.86900	352
2.87267	351
2.87633	347
2.88000	344
2.88367	344
2.88733	345
2.89100	342
2.89467	339
2.89833	341
2.90200	344
2.90567	348
2.90933	349
2.91300	350
2.91667	349
2.92033	346
2.92400	346
2.92767	349
2.93133	353
2.93500	356
2.93867	351
2.94233	341
2.94600	335
2.94967	330
2.95333	323
2.95700	318
2.96067	318
2.96433	321
2.96800	324
2.97167	326
2.97533	325
2.97900	324
2.98267	321
2.98633	322
2.99000	325
2.99367	327
2.99733	328
3.00100	328
3.00467	334
3.00833	338
3.01200	338
3.01567	338
3.01933	339
3.02300	338
3.02667	336
3.03033	332
3.03400	326
3.03767	322
3.04133	323
3.04500	324
3.04867	322
3.05233	318
3.05600	311
3.05967	305
3.06333	305
3.06700	311
3.07067	320
3.07433	323
3.07800	321
3.08167	316
3.08533	314
3.08900	316
3.09267	318
3.09633	318
3.10000	314
3.10367	307
3.10733	297
3.11100	285
3.11467	270
3.11833	255
3.12200	247
3.12567	245
3.12933	247
3.13300	252
3.13667	258
3.14033	269
3.14400	281
3.14767	287
3.15133	289
3.15500	287
3.15867	282
3.16233	276
3.16600	277
3.16967	274
3.17333	271
3.17700	264
3.18067	266
3.18433	271
3.18800	276
3.19167	278
3.19533	277
3.19900	276
3.20267	271
3.20633	266
3.21000	262
3.21367	258
3.21733	257
3.22100	255
3.22467	252
3.22833	251
3.23200	250
3.23567	246
3.23933	243
3.24300	247
3.24667	258
3.25033	269
3.25400	272
3.25767	270
3.26133	271
3.26500	274
3.26867	272
3.27233	268
3.27600	263
3.27967	256
3.28333	248
3.28700	241
3.29067	239
3.29433	239
3.29800	241
3.30167	245
3.30533	247
3.30900	246
3.31267	242
3.31633	240
3.32000	239
3.32367	239
3.32733	243
3.33100	249
3.33467	251
3.33833	249
3.34200	243
3.34567	239
3.34933	238
3.35300	239
3.35667	241
3.36033	244
3.36400	245
3.36767	248
3.37133	251
3.37500	248
3.37867	242
3.38233	238
3.38600	234
3.38967	239
3.39333	250
3.39700	258
3.40067	254
3.40433	242
3.40800	228
3.41167	217
3.41533	208
3.41900	202
3.42267	199
3.42633	202
3.43000	211
3.43367	219
3.43733	220
3.44100	213
3.44467	205
3.44833	200
3.45200	197
3.45567	197
3.45933	199
3.46300	205
3.46667	210
3.47033	215
3.47400	218
3.47767	219
3.48133	217
3.48500	213
3.48867	210
3.49233	209
3.49600	210
3.49967	211
3.50333	210
3.50700	207
3.51067	204
3.51433	202
3.51800	199
3.52167	196
3.52533	197
3.52900	194
3.53267	191
3.53633	191
3.54000	192
3.54367	195
3.54733	193
3.55100	186
3.55467	182
3.55833	181
3.56200	183
3.56567	188
3.56933	191
3.57300	194
3.57667	196
3.58033	200
3.58400	204
3.58767	204
3.59133	200
3.59500	194
3.59867	186
3.60233	180
3.60600	178
3.60967	176
3.61333	175
3.61700	177
3.62067	177
3.62433	173
3.62800	170
3.63167	166
3.63533	156
3.63900	146
3.64267	137
3.64633	132
3.65000	134
3.65367	140
3.65733	143
3.66100	145
3.66467	150
3.66833	159
3.67200	165
3.67567	170
3.67933	172
3.68300	170
3.68667	169
3.69033	170
3.69400	168
3.69767	166
3.70133	164
3.70500	161
3.70867	157
3.71233	155
3.71600	153
3.71967	152
3.72333	153
3.72700	155
3.73067	156
3.73433	156
3.73800	156
3.74167	155
3.74533	153
3.74900	151
3.75267	150
3.75633	152
3.76000	153
3.76367	153
3.76733	152
3.77100	152
3.77467	155
3.77833	154
3.78200	150
3.78567	149
3.78933	147
3.79300	143
3.79667	141
3.80033	138
3.80400	135
3.80767	130
3.81133	126
3.81500	125
3.81867	129
3.82233	133
3.82600	133
3.82967	126
3.83333	119
3.83700	117
3.84067	118
3.84433	119
3.84800	118
3.85167	117
3.85533	119
3.85900	122
3.86267	123
3.86633	125
3.87000	127
3.87367	129
3.87733	127
3.88100	125
3.88467	126
3.88833	125
3.89200	121
3.89567	120
3.89933	121
3.90300	122
3.90667	123
3.91033	121
3.91400	117
3.91767	113
3.92133	111
3.92500	113
3.92867	118
3.93233	125
3.93600	130
3.93967	132
3.94333	129
3.94700	124
3.95067	116
3.95433	104
3.95800	96
3.96167	92
3.96533	92
3.96900	97
3.97267	105
3.97633	109
3.98000	108
3.98367	107
3.98733	107
3.99100	110
3.99467	114
3.99833	119

[Chromatogram (Ch2)]
Interval(msec)	220
# of Points	1091
Start Time(min)	0.002
End Time(min)	3.998
R.Time (min)	Intensity
0.00167	-1
0.00533	-1
0.00900	-1
0.01267	-2
0.01633	-2
0.02000	-2
0.02367	-2
0.02733	-2
0.03100	-2
0.03467	-1
0.03833	-1
0.04200	-1
0.04567	-1
0.04933	-1
0.05300	-1
0.05667	-1
0.06033	-1
0.06400	-2
0.06767	-2
0.07133	-2
0.07500	-1
0.07867	-1
0.08233	-1
0.08600	-1
0.08967	-1
0.09333	-1
0.09700	-2
0.10067	-2
0.10433	-2
0.10800	-2
0.11167	-2
0.11533	-2
0.11900	-1
0.12267	-1
0.12633	-1
0.13000	-1
0.13367	-1
0.13733	-2
0.14100	-2
0.14467	-2
0.14833	-2
0.15200	-2
0.15567	-1
0.15933	-1
0.16300	-1
0.16667	-1
0.17033	-1
0.17400	-1
0.17767	-2
0.18133	-2
0.18500	-2
0.18867	-2
0.19233	-3
0.19600	-3
0.19967	-3
0.20333	-3
0.20700	-3
0.21067	-3
0.21433	-2
0.21800	-2
0.22167	-2
0.22533	-2
0.22900	-2
0.23267	-2
0.23633	-3
0.24000	-3
0.24367	-3
0.24733	-3
0.25100	-2
0.25467	-2
0.25833	-2
0.26200	-2
0.26567	-2
0.26933	-2
0.27300	-2
0.27667	-2
0.28033	-3
0.28400	-3
0.28767	-3
0.29133	-3
0.29500	-4
0.29867	-4
0.30233	-4
0.30600	-4
0.30967	-3
0.31333	-3
0.31700	-3
0.32067	-2
0.32433	-2
0.32800	-2
0.33167	-2
0.33533	-1
0.33900	-1
0.34267	-2
0.34633	-2
0.35000	-2
0.35367	-2
0.35733	-2
0.36100	-2
0.36467	-2
0.36833	-2
0.37200	-2
0.37567	-3
0.37933	-3
0.38300	-3
0.38667	-3
0.39033	-3
0.39400	-2
0.39767	-2
0.40133	-2
0.40500	-2
0.40867	-3
0.41233	-3
0.41600	-3
0.41967	-3
0.42333	-3
0.42700	-3
0.43067	-3
0.43433	-4
0.43800	-4
0.44167	-4
0.44533	-5
0.44900	-5
0.45267	-5
0.45633	-5
0.46000	-5
0.46367	-5
0.46733	-5
0.47100	-5
0.47467	-5
0.47833	-5
0.48200	-5
0.48567	-5
0.48933	-4
0.49300	-4
0.49667	-4
0.50033	-3
0.50400	-3
0.50767	-3
0.51133	-3
0.51500	-2
0.51867	-2
0.52233	-1
0.52600	-1
0.52967	-0
0.53333	-0
0.53700	-0
0.54067	-0
0.54433	-1
0.54800	-1
0.55167	-1
0.55533	-1
0.55900	-2
0.56267	-2
0.56633	-2
0.57000	-3
0.57367	-3
0.57733	-3
0.58100	-3
0.58467	-4
0.58833	-4
0.59200	-4
0.59567	-5
0.59933	-5
0.60300	-5
0.60667	-5
0.61033	-5
0.61400	-5
0.61767	-5
0.62133	-4
0.62500	-4
0.62867	-4
0.63233	-4
0.63600	-4
0.63967	-3
0.64333	-4
0.64700	-4
0.65067	-4
0.65433	-4
0.65800	-4
0.66167	-4
0.66533	-4
0.66900	-4
0.67267	-4
0.67633	-5
0.68000	-5
0.68367	-5
0.68733	-5
0.69100	-5
0.69467	-4
0.69833	-4
0.70200	-4
0.70567	-4
0.70933	-4
0.71300	-3
0.71667	-3
0.72033	-3
0.72400	-3
0.72767	-3
0.73133	-3
0.73500	-3
0.73867	-2
0.74233	-2
0.74600	-2
0.74967	-3
0.75333	-3
0.75700	-3
0.76067	-3
0.76433	-4
0.76800	-4
0.77167	-4
0.77533	-4
0.77900	-4
0.78267	-4
0.78633	-4
0.79000	-3
0.79367	-3
0.79733	-3
0.80100	-4
0.80467	-4
0.80833	-4
0.81200	-4
0.81567	-4
0.81933	-4
0.82300	-4
0.82667	-4
0.83033	-3
0.83400	-4
0.83767	-4
0.84133	-4
0.84500	-4
0.84867	-4
0.85233	-4
0.85600	-4
0.85967	-4
0.86333	-4
0.86700	-5
0.87067	-5
0.87433	-5
0.87800	-5
0.88167	-5
0.88533	-5
0.88900	-5
0.89267	-5
0.89633	-5
0.90000	-5
0.90367	-5
0.90733	-4
0.91100	-4
0.91467	-4
0.91833	-5
0.92200	-5
0.92567	-5
0.92933	-5
0.93300	-5
0.93667	-5
0.94033	-5
0.94400	-5
0.94767	-5
0.95133	-5
0.95500	-5
0.95867	-5
0.96233	-5
0.96600	-5
0.96967	-5
0.97333	-5
0.97700	-5
0.98067	-5
0.98433	-5
0.98800	-5
0.99167	-5
0.99533	-5
0.99900	-4
1.00267	-4
1.00633	-4
1.01000	-3
1.01367	-3
1.01733	-3
1.02100	-3
1.02467	-3
1.02833	-3
1.03200	-3
1.03567	-4
1.03933	-4
1.04300	-4
1.04667	-4
1.05033	-4
1.05400	-4
1.05767	-4
1.06133	-4
1.06500	-4
1.06867	-4
1.07233	-4
1.07600	-4
1.07967	-4
1.08333	-4
1.08700	-4
1.09067	-4
1.09433	-5
1.09800	-5
1.10167	-5
1.10533	-5
1.10900	-5
1.11267	-5
1.11633	-5
1.12000	-5
1.12367	-5
1.12733	-6
1.13100	-6
1.13467	-6
1.13833	-6
1.14200	-6
1.14567	-6
1.14933	-6
1.15300	-5
1.15667	-5
1.16033	-5
1.16400	-5
1.16767	-5
1.17133	-5
1.17500	-5
1.17867	-5
1.18233	-5
1.18600	-4
1.18967	-4
1.19333	-4
1.19700	-4
1.20067	-3
1.20433	-3
1.20800	-3
1.21167	-3
1.21533	-3
1.21900	-3
1.22267	-3
1.22633	-3
1.23000	-3
1.23367	-4
1.23733	-4
1.24100	-5
1.24467	-5
1.24833	-6
1.25200	-6
1.25567	-6
1.25933	-5
1.26300	-5
1.26667	-5
1.27033	-4
1.27400	-4
1.27767	-4
1.28133	-4
1.28500	-3
1.28867	-3
1.29233	-3
1.29600	-3
1.29967	-4
1.30333	-4
1.30700	-4
1.31067	-4
1.31433	-3
1.31800	-3
1.32167	-3
1.32533	-3
1.32900	-3
1.33267	-3
1.33633	-4
1.34000	-4
1.34367	-4
1.34733	-5
1.35100	-5
1.35467	-6
1.35833	-6
1.36200	-6
1.36567	-6
1.36933	-6
1.37300	-6
1.37667	-6
1.38033	-5
1.38400	-5
1.38767	-5
1.39133	-4
1.39500	-4
1.39867	-4
1.40233	-4
1.40600	-3
1.40967	-3
1.41333	-3
1.41700	-3
1.42067	-3
1.42433	-3
1.42800	-3
1.43167	-3
1.43533	-3
1.43900	-4
1.44267	-4
1.44633	-4
1.45000	-4
1.45367	-4
1.45733	-3
1.46100	-3
1.46467	-3
1.46833	-3
1.47200	-3
1.47567	-3
1.47933	-3
1.48300	-3
1.48667	-4
1.49033	-4
1.49400	-4
1.49767	-4
1.50133	-4
1.50500	-5
1.50867	-5
1.51233	-6
1.51600	-6
1.51967	-7
1.52333	-7
1.52700	-7
1.53067	-7
1.53433	-7
1.53800	-7
1.54167	-7
1.54533	-7
1.54900	-7
1.55267	-7
1.55633	-7
1.56000	-7
1.56367	-7
1.56733	-8
1.57100	-8
1.57467	-8
1.57833	-7
1.58200	-7
1.58567	-7
1.58933	-7
1.59300	-7
1.59667	-7
1.60033	-8
1.60400	-9
1.60767	-10
1.61133	-11
1.61500	-13
1.61867	-15
1.62233	-18
1.62600	-21
1.62967	-24
1.63333	-27
1.63700	-30
1.64067	-34
1.64433	-37
1.64800	-41
1.65167	-44
1.65533	-48
1.65900	-51
1.66267	-55
1.66633	-59
1.67000	-64
1.67367	-69
1.67733	-75
1.68100	-80
1.68467	-85
1.68833	-90
1.69200	-94
1.69567	-98
1.69933	-101
1.70300	-103
1.70667	-105
1.71033	-107
1.71400	-109
1.71767	-110
1.72133	-111
1.72500	-112
1.72867	-112
1.73233	-113
1.73600	-114
1.73967	-115
1.74333	-116
1.74700	-116
1.75067	-117
1.75433	-117
1.75800	-117
1.76167	-117
1.76533	-117
1.76900	-117
1.77267	-118
1.77633	-118
1.78000	-119
1.78367	-119
1.78733	-119
1.79100	-120
1.79467	-119
1.79833	-119
1.80200	-118
1.80567	-118
1.80933	-117
1.81300	-117
1.81667	-117
1.82033	-117
1.82400	-117
1.82767	-118
1.83133	-118
1.83500	-119
1.83867	-119
1.84233	-120
1.84600	-120
1.84967	-121
1.85333	-121
1.85700	-122
1.86067	-122
1.86433	-122
1.86800	-121
1.87167	-121
1.87533	-121
1.87900	-120
1.88267	-120
1.88633	-120
1.89000	-120
1.89367	-120
1.89733	-120
1.90100	-120
1.90467	-120
1.90833	-120
1.91200	-120
1.91567	-119
1.91933	-119
1.92300	-119
1.92667	-119
1.93033	-119
1.93400	-119
1.93767	-119
1.94133	-119
1.94500	-118
1.94867	-118
1.95233	-117
1.95600	-117
1.95967	-116
1.96333	-116
1.96700	-115
1.97067	-115
1.97433	-115
1.97800	-115
1.98167	-115
1.98533	-115
1.98900	-115
1.99267	-114
1.99633	-114
2.00000	-113
2.00367	-113
2.00733	-112
2.01100	-111
2.01467	-110
2.01833	-110
2.02200	-109
2.02567	-108
2.02933	-108
2.03300	-108
2.03667	-108
2.04033	-108
2.04400	-108
2.04767	-108
2.05133	-108
2.05500	-107
2.05867	-107
2.06233	-107
2.06600	-107
2.06967	-107
2.07333	-107
2.07700	-107
2.08067	-107
2.08433	-107
2.08800	-107
2.09167	-106
2.09533	-106
2.09900	-106
2.10267	-106
2.10633	-105
2.11000	-105
2.11367	-104
2.11733	-104
2.12100	-104
2.12467	-104
2.12833	-104
2.13200	-104
2.13567	-103
2.13933	-103
2.14300	-102
2.14667	-102
2.15033	-102
2.15400	-102
2.15767	-101
2.16133	-101
2.16500	-101
2.16867	-101
2.17233	-101
2.17600	-101
2.17967	-101
2.18333	-101
2.18700	-100
2.19067	-99
2.19433	-99
2.19800	-98
2.20167	-97
2.20533	-96
2.20900	-95
2.21267	-94
2.21633	-93
2.22000	-92
2.22367	-92
2.22733	-91
2.23100	-91
2.23467	-91
2.23833	-90
2.24200	-90
2.24567	-90
2.24933	-91
2.25300	-91
2.25667	-91
2.26033	-91
2.26400	-91
2.26767	-90
2.27133	-89
2.27500	-89
2.27867	-88
2.28233	-88
2.28600	-87
2.28967	-87
2.29333	-87
2.29700	-88
2.30067	-89
2.30433	-90
2.30800	-90
2.31167	-90
2.31533	-90
2.31900	-89
2.32267	-88
2.32633	-88
2.33000	-87
2.33367	-87
2.33733	-87
2.34100	-87
2.34467	-86
2.34833	-85
2.35200	-83
2.35567	-82
2.35933	-80
2.36300	-78
2.36667	-76
2.37033	-73
2.37400	-70
2.37767	-67
2.38133	-63
2.38500	-58
2.38867	-54
2.39233	-49
2.39600	-45
2.39967	-41
2.40333	-37
2.40700	-34
2.41067	-31
2.41433	-28
2.41800	-25
2.42167	-22
2.42533	-20
2.42900	-19
2.43267	-18
2.43633	-17
2.44000	-16
2.44367	-15
2.44733	-14
2.45100	-13
2.45467	-11
2.45833	-10
2.46200	-8
2.46567	-7
2.46933	-6
2.47300	-4
2.47667	-3
2.48033	-2
2.48400	-2
2.48767	-1
2.49133	-0
2.49500	1
2.49867	2
2.50233	3
2.50600	4
2.50967	5
2.51333	5
2.51700	6
2.52067	7
2.52433	8
2.52800	8
2.53167	9
2.53533	9
2.53900	9
2.54267	9
2.54633	10
2.55000	11
2.55367	11
2.55733	12
2.56100	12
2.56467	13
2.56833	13
2.57200	14
2.57567	14
2.57933	14
2.58300	14
2.58667	14
2.59033	15
2.59400	15
2.59767	15
2.60133	15
2.60500	15
2.60867	15
2.61233	15
2.61600	15
2.61967	16
2.62333	17
2.62700	17
2.63067	17
2.63433	17
2.63800	17
2.64167	17
2.64533	17
2.64900	17
2.65267	18
2.65633	18
2.66000	19
2.66367	19
2.66733	19
2.67100	20
2.67467	20
2.67833	20
2.68200	20
2.68567	20
2.68933	20
2.69300	20
2.69667	20
2.70033	20
2.70400	20
2.70767	20
2.71133	20
2.71500	20
2.71867	20
2.72233	20
2.72600	20
2.72967	20
2.73333	20
2.73700	21
2.74067	21
2.74433	22
2.74800	23
2.75167	23
2.75533	24
2.75900	24
2.76267	24
2.76633	24
2.77000	24
2.77367	24
2.77733	24
2.78100	23
2.78467	23
2.78833	23
2.79200	22
2.79567	22
2.79933	22
2.80300	22
2.80667	22
2.81033	22
2.81400	22
2.81767	22
2.82133	22
2.82500	22
2.82867	22
2.83233	22
2.83600	21
2.83967	20
2.84333	16
2.84700	11
2.85067	2
2.85433	-11
2.85800	-28
2.86167	-49
2.86533	-76
2.86900	-108
2.87267	-146
2.87633	-189
2.88000	-237
2.88367	-290
2.88733	-348
2.89100	-411
2.89467	-477
2.89833	-547
2.90200	-620
2.90567	-696
2.90933	-775
2.91300	-856
2.91667	-939
2.92033	-1024
2.92400	-1111
2.92767	-1199
2.93133	-1289
2.93500	-1379
2.93867	-1460
2.94233	-1519
2.94600	-1546
2.94967	-1537
2.95333	-1494
2.95700	-1423
2.96067	-1331
2.96433	-1227
2.96800	-1116
2.97167	-1005
2.97533	-896
2.97900	-794
2.98267	-698
2.98633	-611
2.99000	-532
2.99367	-461
2.99733	-398
3.00100	-343
3.00467	-295
3.00833	-253
3.01200	-216
3.01567	-184
3.01933	-157
3.02300	-134
3.02667	-113
3.03033	-96
3.03400	-81
3.03767	-69
3.04133	-58
3.04500	-49
3.04867	-41
3.05233	-34
3.05600	-28
3.05967	-23
3.06333	-18
3.06700	-14
3.07067	-11
3.07433	-8
3.07800	-6
3.08167	-3
3.08533	-2
3.08900	-0
3.09267	1
3.09633	2
3.10000	3
3.10367	4
3.10733	5
3.11100	6
3.11467	7
3.11833	7
3.12200	8
3.12567	8
3.12933	9
3.13300	9
3.13667	10
3.14033	10
3.14400	11
3.14767	11
3.15133	11
3.15500	12
3.15867	12
3.16233	12
3.16600	13
3.16967	13
3.17333	13
3.17700	14
3.18067	14
3.18433	14
3.18800	14
3.19167	14
3.19533	15
3.19900	15
3.20267	15
3.20633	15
3.21000	15
3.21367	16
3.21733	16
3.22100	16
3.22467	16
3.22833	16
3.23200	16
3.23567	16
3.23933	16
3.24300	16
3.24667	17
3.25033	17
3.25400	17
3.25767	17
3.26133	17
3.26500	17
3.26867	17
3.27233	18
3.27600	18
3.27967	18
3.28333	18
3.28700	18
3.29067	19
3.29433	19
3.29800	19
3.30167	19
3.30533	19
3.30900	19
3.31267	19
3.31633	19
3.32000	19
3.32367	19
3.32733	20
3.33100	20
3.33467	20
3.33833	20
3.34200	20
3.34567	20
3.34933	20
3.35300	20
3.35667	21
3.36033	21
3.36400	21
3.36767	21
3.37133	21
3.37500	22
3.37867	22
3.38233	22
3.38600	22
3.38967	23
3.39333	23
3.39700	24
3.40067	24
3.40433	24
3.40800	24
3.41167	25
3.41533	25
3.41900	24
3.42267	24
3.42633	24
3.43000	24
3.43367	23
3.43733	23
3.44100	23
3.44467	23
3.44833	23
3.45200	23
3.45567	23
3.45933	23
3.46300	23
3.46667	24
3.47033	24
3.47400	24
3.47767	24
3.48133	24
3.48500	24
3.48867	25
3.49233	25
3.49600	25
3.49967	25
3.50333	25
3.50700	25
3.51067	25
3.51433	25
3.51800	25
3.52167	25
3.52533	25
3.52900	25
3.53267	25
3.53633	25
3.54000	25
3.54367	25
3.54733	26
3.55100	26
3.55467	26
3.55833	25
3.56200	25
3.56567	25
3.56933	25
3.57300	25
3.57667	25
3.58033	25
3.58400	25
3.58767	25
3.59133	24
3.59500	24
3.59867	24
3.60233	24
3.60600	24
3.60967	23
3.61333	23
3.61700	23
3.62067	23
3.62433	23
3.62800	23
3.63167	23
3.63533	22
3.63900	22
3.64267	22
3.64633	22
3.65000	22
3.65367	22
3.65733	22
3.66100	22
3.66467	22
3.66833	22
3.67200	22
3.67567	22
3.67933	22
3.68300	22
3.68667	22
3.69033	22
3.69400	22
3.69767	22
3.70133	22
3.70500	22
3.70867	22
3.71233	22
3.71600	21
3.71967	21
3.72333	21
3.72700	21
3.73067	22
3.73433	22
3.73800	22
3.74167	22
3.74533	21
3.74900	21
3.75267	21
3.75633	21
3.76000	22
3.76367	22
3.76733	22
3.77100	22
3.77467	22
3.77833	22
3.78200	22
3.78567	22
3.78933	22
3.79300	22
3.79667	22
3.80033	22
3.80400	22
3.80767	22
3.81133	23
3.81500	23
3.81867	23
3.82233	24
3.82600	24
3.82967	24
3.83333	24
3.83700	24
3.84067	24
3.84433	24
3.84800	24
3.85167	24
3.85533	24
3.85900	24
3.86267	24
3.86633	24
3.87000	24
3.87367	24
3.87733	24
3.88100	24
3.88467	23
3.88833	23
3.89200	23
3.89567	23
3.89933	23
3.90300	22
3.90667	22
3.91033	22
3.91400	22
3.91767	22
3.92133	22
3.92500	22
3.92867	23
3.93233	23
3.93600	23
3.93967	23
3.94333	23
3.94700	23
3.95067	23
3.95433	24
3.95800	24
3.96167	24
3.96533	24
3.96900	24
3.97267	24
3.97633	24
3.98000	24
3.98367	24
3.98733	24
3.99100	24
3.99467	24
3.99833	24

[Chromatogram (Ch3)]
Interval(msec)	220
# of Points	1091
Start Time(min)	0.002
End Time(min)	3.998
R.Time (min)	Intensity
0.00167	-1
0.00533	1
0.00900	5
0.01267	8
0.01633	10
0.02000	11
0.02367	10
0.02733	9
0.03100	8
0.03467	7
0.03833	4
0.04200	4
0.04567	5
0.04933	6
0.05300	9
0.05667	10
0.06033	10
0.06400	10
0.06767	11
0.07133	10
0.07500	8
0.07867	7
0.08233	7
0.08600	6
0.08967	3
0.09333	3
0.09700	4
0.10067	5
0.10433	6
0.10800	8
0.11167	8
0.11533	9
0.11900	10
0.12267	7
0.12633	7
0.13000	9
0.13367	10
0.13733	11
0.14100	13
0.14467	12
0.14833	12
0.15200	11
0.15567	12
0.15933	13
0.16300	13
0.16667	12
0.17033	13
0.17400	12
0.17767	11
0.18133	11
0.18500	11
0.18867	10
0.19233	8
0.19600	8
0.19967	10
0.20333	12
0.20700	13
0.21067	14
0.21433	13
0.21800	11
0.22167	11
0.22533	12
0.22900	12
0.23267	10
0.23633	12
0.24000	13
0.24367	16
0.24733	18
0.25100	16
0.25467	13
0.25833	11
0.26200	11
0.26567	12
0.26933	11
0.27300	9
0.27667	8
0.28033	9
0.28400	9
0.28767	10
0.29133	10
0.29500	10
0.29867	10
0.30233	8
0.30600	8
0.30967	9
0.31333	11
0.31700	11
0.32067	8
0.32433	6
0.32800	6
0.33167	6
0.33533	5
0.33900	5
0.34267	4
0.34633	3
0.35000	1
0.35367	3
0.35733	5
0.36100	5
0.36467	3
0.36833	1
0.37200	2
0.37567	1
0.37933	1
0.38300	2
0.38667	2
0.39033	2
0.39400	2
0.39767	4
0.40133	5
0.40500	5
0.40867	4
0.41233	2
0.41600	0
0.41967	-2
0.42333	-2
0.42700	-0
0.43067	3
0.43433	6
0.43800	9
0.44167	9
0.44533	10
0.44900	9
0.45267	7
0.45633	5
0.46000	5
0.46367	7
0.46733	9
0.47100	9
0.47467	8
0.47833	6
0.48200	8
0.48567	11
0.48933	12
0.49300	10
0.49667	8
0.50033	8
0.50400	9
0.50767	8
0.51133	5
0.51500	5
0.51867	7
0.52233	6
0.52600	3
0.52967	1
0.53333	2
0.53700	3
0.54067	3
0.54433	2
0.54800	2
0.55167	5
0.55533	7
0.55900	8
0.56267	10
0.56633	8
0.57000	6
0.57367	5
0.57733	5
0.58100	5
0.58467	5
0.58833	4
0.59200	4
0.59567	4
0.59933	5
0.60300	5
0.60667	5
0.61033	6
0.61400	4
0.61767	3
0.62133	3
0.62500	3
0.62867	4
0.63233	3
0.63600	2
0.63967	2
0.64333	3
0.64700	2
0.65067	2
0.65433	1
0.65800	1
0.66167	2
0.66533	2
0.66900	2
0.67267	4
0.67633	4
0.68000	3
0.68367	0
0.68733	-0
0.69100	-1
0.69467	-2
0.69833	-2
0.70200	-2
0.70567	-1
0.70933	1
0.71300	1
0.71667	2
0.72033	2
0.72400	4
0.72767	4
0.73133	3
0.73500	3
0.73867	4
0.74233	3
0.74600	4
0.74967	5
0.75333	5
0.75700	4
0.76067	4
0.76433	4
0.76800	4
0.77167	5
0.77533	4
0.77900	3
0.78267	4
0.78633	5
0.79000	4
0.79367	3
0.79733	4
0.80100	4
0.80467	4
0.80833	4
0.81200	2
0.81567	2
0.81933	0
0.82300	-1
0.82667	-1
0.83033	-3
0.83400	-1
0.83767	2
0.84133	3
0.84500	3
0.84867	3
0.85233	3
0.85600	3
0.85967	4
0.86333	5
0.86700	6
0.87067	6
0.87433	7
0.87800	8
0.88167	7
0.88533	5
0.88900	4
0.89267	2
0.89633	3
0.90000	4
0.90367	6
0.90733	6
0.91100	4
0.91467	4
0.91833	4
0.92200	3
0.92567	4
0.92933	4
0.93300	5
0.93667	4
0.94033	3
0.94400	3
0.94767	2
0.95133	1
0.95500	1
0.95867	1
0.96233	1
0.96600	2
0.96967	3
0.97333	3
0.97700	4
0.98067	5
0.98433	6
0.98800	3
0.99167	0
0.99533	-2
0.99900	-1
1.00267	3
1.00633	3
1.01000	4
1.01367	3
1.01733	3
1.02100	3
1.02467	6
1.02833	6
1.03200	5
1.03567	4
1.03933	6
1.04300	8
1.04667	9
1.05033	9
1.05400	9
1.05767	9
1.06133	10
1.06500	9
1.06867	7
1.07233	6
1.07600	5
1.07967	5
1.08333	6
1.08700	7
1.09067	6
1.09433	6
1.09800	6
1.10167	6
1.10533	6
1.10900	5
1.11267	3
1.11633	2
1.12000	1
1.12367	0
1.12733	1
1.13100	3
1.13467	4
1.13833	4
1.14200	4
1.14567	4
1.14933	4
1.15300	4
1.15667	3
1.16033	4
1.16400	5
1.16767	7
1.17133	9
1.17500	8
1.17867	9
1.18233	13
1.18600	14
1.18967	12
1.19333	11
1.19700	11
1.20067	9
1.20433	10
1.20800	10
1.21167	11
1.21533	9
1.21900	7
1.22267	7
1.22633	8
1.23000	8
1.23367	10
1.23733	12
1.24100	15
1.24467	16
1.24833	16
1.25200	14
1.25567	13
1.25933	14
1.26300	15
1.26667	15
1.27033	14
1.27400	12
1.27767	13
1.28133	14
1.28500	14
1.28867	15
1.29233	16
1.29600	16
1.29967	14
1.30333	13
1.30700	14
1.31067	13
1.31433	11
1.31800	11
1.32167	12
1.32533	12
1.32900	13
1.33267	14
1.33633	13
1.34000	14
1.34367	15
1.34733	15
1.35100	16
1.35467	17
1.35833	18
1.36200	19
1.36567	19
1.36933	18
1.37300	17
1.37667	17
1.38033	18
1.38400	19
1.38767	21
1.39133	19
1.39500	16
1.39867	17
1.40233	16
1.40600	16
1.40967	17
1.41333	17
1.41700	19
1.42067	19
1.42433	19
1.42800	17
1.43167	17
1.43533	18
1.43900	18
1.44267	18
1.44633	18
1.45000	17
1.45367	16
1.45733	16
1.46100	16
1.46467	15
1.46833	15
1.47200	14
1.47567	13
1.47933	16
1.48300	17
1.48667	19
1.49033	20
1.49400	21
1.49767	23
1.50133	25
1.50500	24
1.50867	21
1.51233	19
1.51600	20
1.51967	21
1.52333	23
1.52700	25
1.53067	25
1.53433	23
1.53800	22
1.54167	21
1.54533	19
1.54900	20
1.55267	22
1.55633	23
1.56000	23
1.56367	24
1.56733	23
1.57100	22
1.57467	22
1.57833	24
1.58200	24
1.58567	24
1.58933	23
1.59300	21
1.59667	19
1.60033	18
1.60400	19
1.60767	21
1.61133	23
1.61500	26
1.61867	27
1.62233	27
1.62600	26
1.62967	26
1.63333	26
1.63700	28
1.64067	29
1.64433	29
1.64800	30
1.65167	31
1.65533	31
1.65900	30
1.66267	32
1.66633	32
1.67000	35
1.67367	37
1.67733	38
1.68100	37
1.68467	36
1.68833	33
1.69200	34
1.69567	36
1.69933	38
1.70300	38
1.70667	40
1.71033	40
1.71400	41
1.71767	42
1.72133	41
1.72500	42
1.72867	41
1.73233	43
1.73600	43
1.73967	45
1.74333	46
1.74700	46
1.75067	45
1.75433	43
1.75800	41
1.76167	38
1.76533	38
1.76900	40
1.77267	42
1.77633	45
1.78000	44
1.78367	43
1.78733	43
1.79100	44
1.79467	45
1.79833	48
1.80200	50
1.80567	52
1.80933	55
1.81300	57
1.81667	57
1.82033	56
1.82400	54
1.82767	56
1.83133	56
1.83500	53
1.83867	51
1.84233	53
1.84600	57
1.84967	60
1.85333	60
1.85700	60
1.86067	60
1.86433	61
1.86800	63
1.87167	61
1.87533	61
1.87900	64
1.88267	66
1.88633	65
1.89000	63
1.89367	62
1.89733	61
1.90100	63
1.90467	64
1.90833	65
1.91200	69
1.91567	72
1.91933	74
1.92300	75
1.92667	77
1.93033	75
1.93400	74
1.93767	73
1.94133	75
1.94500	80
1.94867	84
1.95233	85
1.95600	85
1.95967	85
1.96333	84
1.96700	87
1.97067	87
1.97433	90
1.97800	93
1.98167	93
1.98533	90
1.98900	89
1.99267	89
1.99633	92
2.00000	95
2.00367	100
2.00733	102
2.01100	104
2.01467	105
2.01833	105
2.02200	107
2.02567	108
2.02933	110
2.03300	112
2.03667	113
2.04033	113
2.04400	113
2.04767	114
2.05133	115
2.05500	114
2.05867	112
2.06233	111
2.06600	112
2.06967	114
2.07333	115
2.07700	115
2.08067	116
2.08433	117
2.08800	120
2.09167	123
2.09533	125
2.09900	126
2.10267	127
2.10633	127
2.11000	126
2.11367	127
2.11733	129
2.12100	132
2.12467	135
2.12833	135
2.13200	137
2.13567	138
2.13933	138
2.14300	140
2.14667	143
2.15033	144
2.15400	147
2.15767	150
2.16133	150
2.16500	149
2.16867	151
2.17233	153
2.17600	154
2.17967	155
2.18333	156
2.18700	158
2.19067	158
2.19433	158
2.19800	161
2.20167	162
2.20533	162
2.20900	163
2.21267	163
2.21633	164
2.22000	164
2.22367	167
2.22733	169
2.23100	172
2.23467	174
2.23833	174
2.24200	173
2.24567	175
2.24933	177
2.25300	178
2.25667	178
2.26033	180
2.26400	183
2.26767	187
2.27133	188
2.27500	188
2.27867	188
2.28233	189
2.28600	191
2.28967	195
2.29333	198
2.29700	200
2.30067	201
2.30433	203
2.30800	205
2.31167	208
2.31533	210
2.31900	212
2.32267	213
2.32633	213
2.33000	213
2.33367	216
2.33733	219
2.34100	222
2.34467	223
2.34833	224
2.35200	226
2.35567	228
2.35933	230
2.36300	232
2.36667	235
2.37033	237
2.37400	237
2.37767	237
2.38133	239
2.38500	240
2.38867	239
2.39233	238
2.39600	239
2.39967	240
2.40333	243
2.40700	248
2.41067	251
2.41433	254
2.41800	259
2.42167	262
2.42533	265
2.42900	270
2.43267	273
2.43633	273
2.44000	274
2.44367	315
2.44733	432
2.45100	560
2.45467	664
2.45833	721
2.46200	714
2.46567	664
2.46933	609
2.47300	567
2.47667	540
2.48033	519
2.48400	496
2.48767	466
2.49133	429
2.49500	392
2.49867	360
2.50233	334
2.50600	314
2.50967	301
2.51333	292
2.51700	288
2.52067	292
2.52433	303
2.52800	321
2.53167	337
2.53533	345
2.53900	345
2.54267	335
2.54633	319
2.55000	299
2.55367	277
2.55733	257
2.56100	239
2.56467	221
2.56833	208
2.57200	197
2.57567	187
2.57933	180
2.58300	178
2.58667	177
2.59033	177
2.59400	172
2.59767	162
2.60133	149
2.60500	133
2.60867	114
2.61233	92
2.61600	72
2.61967	55
2.62333	40
2.62700	28
2.63067	19
2.63433	14
2.63800	15
2.64167	21
2.64533	29
2.64900	40
2.65267	49
2.65633	57
2.66000	65
2.66367	73
2.66733	78
2.67100	83
2.67467	87
2.67833	88
2.68200	86
2.68567	84
2.68933	82
2.69300	78
2.69667	73
2.70033	67
2.70400	62
2.70767	59
2.71133	57
2.71500	56
2.71867	54
2.72233	52
2.72600	52
2.72967	54
2.73333	54
2.73700	51
2.74067	50
2.74433	51
2.74800	53
2.75167	54
2.75533	55
2.75900	55
2.76267	56
2.76633	56
2.77000	58
2.77367	60
2.77733	62
2.78100	63
2.78467	64
2.78833	64
2.79200	64
2.79567	63
2.79933	65
2.80300	67
2.80667	70
2.81033	73
2.81400	83
2.81767	115
2.82133	191
2.82500	353
2.82867	657
2.83233	1171
2.83600	1957
2.83967	3055
2.84333	4454
2.84700	6108
2.85067	7926
2.85433	9784
2.85800	11538
2.86167	13054
2.86533	14224
2.86900	14982
2.87267	15299
2.87633	15204
2.88000	14755
2.88367	14035
2.88733	13127
2.89100	12108
2.89467	11040
2.89833	9976
2.90200	8950
2.90567	7982
2.90933	7084
2.91300	6263
2.91667	5520
2.92033	4856
2.92400	4263
2.92767	3737
2.93133	3270
2.93500	2859
2.93867	2498
2.94233	2181
2.94600	1895
2.94967	1612
2.95333	1349
2.95700	1134
2.96067	980
2.96433	874
2.96800	799
2.97167	748
2.97533	713
2.97900	691
2.98267	678
2.98633	670
2.99000	664
2.99367	663
2.99733	667
3.00100	670
3.00467	674
3.00833	674
3.01200	673
3.01567	669
3.01933	664
3.02300	659
3.02667	652
3.03033	643
3.03400	634
3.03767	626
3.04133	620
3.04500	614
3.04867	612
3.05233	607
3.05600	600
3.05967	593
3.06333	589
3.06700	585
3.07067	581
3.07433	579
3.07800	579
3.08167	579
3.08533	577
3.08900	574
3.09267	572
3.09633	569
3.10000	569
3.10367	569
3.10733	568
3.11100	568
3.11467	565
3.11833	564
3.12200	563
3.12567	562
3.12933	562
3.13300	561
3.13667	558
3.14033	558
3.14400	556
3.14767	556
3.15133	557
3.15500	558
3.15867	560
3.16233	562
3.16600	566
3.16967	572
3.17333	575
3.17700	575
3.18067	576
3.18433	578
3.18800	582
3.19167	585
3.19533	585
3.19900	586
3.20267	586
3.20633	585
3.21000	584
3.21367	584
3.21733	585
3.22100	587
3.22467	589
3.22833	590
3.23200	590
3.23567	590
3.23933	589
3.24300	588
3.24667	587
3.25033	587
3.25400	586
3.25767	583
3.26133	581
3.26500	580
3.26867	579
3.27233	576
3.27600	572
3.27967	570
3.28333	568
3.28700	566
3.29067	564
3.29433	562
3.29800	560
3.30167	558
3.30533	557
3.30900	557
3.31267	557
3.31633	556
3.32000	552
3.32367	550
3.32733	549
3.33100	549
3.33467	549
3.33833	547
3.34200	545
3.34567	544
3.34933	544
3.35300	543
3.35667	542
3.36033	542
3.36400	541
3.36767	540
3.37133	539
3.37500	538
3.37867	538
3.38233	537
3.38600	537
3.38967	536
3.39333	534
3.39700	530
3.40067	525
3.40433	523
3.40800	521
3.41167	519
3.41533	517
3.41900	516
3.42267	514
3.42633	513
3.43000	511
3.43367	509
3.43733	507
3.44100	505
3.44467	504
3.44833	503
3.45200	500
3.45567	496
3.45933	493
3.46300	492
3.46667	492
3.47033	490
3.47400	488
3.47767	484
3.48133	480
3.48500	478
3.48867	477
3.49233	477
3.49600	477
3.49967	476
3.50333	475
3.50700	474
3.51067	474
3.51433	473
3.51800	473
3.52167	474
3.52533	471
3.52900	468
3.53267	466
3.53633	463
3.54000	461
3.54367	458
3.54733	456
3.55100	456
3.55467	456
3.55833	457
3.56200	458
3.56567	459
3.56933	459
3.57300	458
3.57667	457
3.58033	455
3.58400	453
3.58767	451
3.59133	448
3.59500	447
3.59867	447
3.60233	451
3.60600	452
3.60967	451
3.61333	450
3.61700	451
3.62067	450
3.62433	449
3.62800	450
3.63167	451
3.63533	451
3.63900	450
3.64267	449
3.64633	447
3.65000	448
3.65367	449
3.65733	447
3.66100	444
3.66467	443
3.66833	441
3.67200	441
3.67567	443
3.67933	446
3.68300	449
3.68667	451
3.69033	450
3.69400	449
3.69767	450
3.70133	449
3.70500	447
3.70867	445
3.71233	444
3.71600	443
3.71967	444
3.72333	447
3.72700	449
3.73067	450
3.73433	450
3.73800	451
3.74167	450
3.74533	449
3.74900	448
3.75267	446
3.75633	445
3.76000	443
3.76367	443
3.76733	441
3.77100	439
3.77467	438
3.77833	438
3.78200	439
3.78567	438
3.78933	436
3.79300	435
3.79667	433
3.80033	431
3.80400	430
3.80767	429
3.81133	429
3.81500	428
3.81867	429
3.82233	429
3.82600	429
3.82967	429
3.83333	431
3.83700	431
3.84067	430
3.84433	427
3.84800	425
3.85167	424
3.85533	423
3.85900	423
3.86267	422
3.86633	420
3.87000	416
3.87367	412
3.87733	411
3.88100	410
3.88467	408
3.88833	407
3.89200	408
3.89567	407
3.89933	407
3.90300	408
3.90667	408
3.91033	408
3.91400	407
3.91767	406
3.92133	402
3.92500	401
3.92867	401
3.93233	400
3.93600	400
3.93967	399
3.94333	400
3.94700	401
3.95067	401
3.95433	400
3.95800	398
3.96167	397
3.96533	395
3.96900	393
3.97267	388
3.97633	383
3.98000	382
3.98367	382
3.98733	382
3.99100	383
3.99467	382
3.99833	379

[Status Trace (Column Oven Temperature)]
Interval(msec)	1000
# of Points	240
Start Time(min)	0.004
End Time(min)	3.987
Intensity Units	
Intensity Multiplier	1
R.Time (min)	Intensity
0.00378	35.02
0.02045	35.03
0.03712	35.03
0.05378	35.04
0.07045	35.04
0.08712	35.04
0.10378	35.04
0.12045	35.03
0.13712	35.03
0.15378	35.03
0.17045	35.03
0.18712	35.03
0.20378	35.04
0.22045	35.03
0.23712	35.03
0.25378	35.03
0.27045	35.03
0.28712	35.02
0.30378	35.02
0.32045	35.01
0.33712	35.01
0.35378	35.00
0.37045	35.00
0.38712	35.00
0.40378	34.99
0.42045	34.99
0.43712	35.01
0.45378	35.01
0.47045	35.01
0.48712	35.00
0.50378	35.00
0.52045	34.98
0.53712	34.98
0.55378	34.98
0.57045	34.99
0.58712	35.00
0.60378	35.00
0.62045	34.99
0.63712	34.99
0.65378	34.99
0.67045	35.00
0.68712	35.01
0.70378	35.00
0.72045	35.00
0.73712	35.00
0.75378	35.00
0.77045	35.00
0.78712	35.00
0.80378	35.00
0.82045	35.00
0.83712	35.00
0.85378	35.00
0.87045	35.00
0.88712	35.00
0.90378	35.01
0.92045	35.01
0.93712	35.02
0.95378	35.01
0.97045	35.01
0.98712	35.00
1.00378	35.00
1.02045	34.99
1.03712	35.00
1.05378	34.99
1.07045	34.99
1.08712	35.01
1.10378	35.01
1.12045	35.02
1.13712	35.02
1.15378	35.02
1.17045	35.02
1.18712	35.01
1.20378	35.00
1.22045	35.00
1.23712	35.00
1.25378	34.99
1.27045	34.99
1.28712	34.99
1.30378	34.99
1.32045	34.99
1.33712	34.99
1.35378	35.00
1.37045	35.00
1.38712	35.00
1.40378	34.98
1.42045	34.97
1.43712	34.97
1.45378	34.97
1.47045	34.96
1.48712	34.95
1.50378	34.96
1.52045	34.97
1.53712	34.98
1.55378	34.99
1.57045	35.00
1.58712	34.99
1.60378	35.03
1.62045	35.15
1.63712	35.31
1.65378	35.54
1.67045	35.85
1.68712	36.22
1.70378	36.57
1.72045	36.92
1.73712	37.26
1.75378	37.59
1.77045	37.94
1.78712	38.27
1.80378	38.56
1.82045	38.90
1.83712	39.24
1.85378	39.58
1.87045	39.90
1.88712	40.23
1.90378	40.56
1.92045	40.88
1.93712	41.22
1.95378	41.54
1.97045	41.87
1.98712	42.20
2.00378	42.52
2.02045	42.83
2.03712	43.17
2.05378	43.48
2.07045	43.82
2.08712	44.15
2.10378	44.47
2.12045	44.81
2.13712	45.13
2.15378	45.45
2.17045	45.78
2.18712	46.11
2.20378	46.43
2.22045	46.75
2.23712	47.08
2.25378	47.41
2.27045	47.74
2.28712	48.05
2.30378	48.42
2.32045	48.75
2.33712	49.09
2.35378	49.37
2.37045	49.56
2.38712	49.62
2.40378	49.63
2.42045	49.62
2.43712	49.64
2.45378	49.65
2.47045	49.65
2.48712	49.68
2.50378	49.69
2.52045	49.70
2.53712	49.71
2.55378	49.73
2.57045	49.74
2.58712	49.76
2.60378	49.78
2.62045	49.79
2.63712	49.81
2.65378	49.81
2.67045	49.82
2.68712	49.83
2.70378	49.84
2.72045	49.85
2.73712	49.85
2.75378	49.84
2.77045	49.85
2.78712	49.86
2.80378	49.87
2.82045	49.87
2.83712	49.87
2.85378	49.86
2.87045	49.87
2.88712	49.87
2.90378	49.89
2.92045	49.90
2.93712	49.91
2.95378	49.92
2.97045	49.93
2.98712	49.95
3.00378	49.96
3.02045	49.97
3.03712	49.98
3.05378	49.99
3.07045	49.99
3.08712	49.99
3.10378	50.01
3.12045	50.01
3.13712	50.01
3.15378	50.02
3.17045	50.02
3.18712	50.02
3.20378	50.03
3.22045	50.03
3.23712	50.04
3.25378	50.06
3.27045	50.07
3.28712	50.08
3.30378	50.08
3.32045	50.09
3.33712	50.09
3.35378	50.10
3.37045	50.11
3.38712	50.11
3.40378	50.09
3.42045	50.10
3.43712	50.10
3.45378	50.10
3.47045	50.08
3.48712	50.07
3.50378	50.06
3.52045	50.05
3.53712	50.04
3.55378	50.02
3.57045	50.02
3.58712	50.01
3.60378	50.02
3.62045	50.02
3.63712	50.03
3.65378	50.05
3.67045	50.05
3.68712	50.06
3.70378	50.06
3.72045	50.07
3.73712	50.08
3.75378	50.09
3.77045	50.09
3.78712	50.08
3.80378	50.08
3.82045	50.07
3.83712	50.07
3.85378	50.06
3.87045	50.06
3.88712	50.08
3.90378	50.08
3.92045	50.08
3.93712	50.07
3.95378	50.07
3.97045	50.08
3.98712	50.08

[Status Trace (Injection Unit Temperature)]
Interval(msec)	1000
# of Points	240
Start Time(min)	0.004
End Time(min)	3.987
Intensity Units	
Intensity Multiplier	1
R.Time (min)	Intensity
0.00378	99.98
0.02045	99.98
0.03712	99.98
0.05378	99.98
0.07045	99.98
0.08712	99.98
0.10378	99.98
0.12045	99.98
0.13712	99.98
0.15378	99.98
0.17045	99.98
0.18712	99.98
0.20378	99.98
0.22045	99.98
0.23712	99.98
0.25378	99.98
0.27045	99.98
0.28712	99.98
0.30378	99.98
0.32045	99.98
0.33712	99.98
0.35378	99.98
0.37045	99.98
0.38712	99.98
0.40378	99.98
0.42045	99.98
0.43712	99.98
0.45378	99.98
0.47045	99.98
0.48712	99.98
0.50378	99.98
0.52045	99.98
0.53712	99.98
0.55378	99.98
0.57045	99.98
0.58712	99.98
0.60378	99.98
0.62045	99.98
0.63712	99.97
0.65378	99.98
0.67045	99.98
0.68712	99.98
0.70378	99.98
0.72045	99.98
0.73712	99.98
0.75378	99.98
0.77045	99.98
0.78712	99.98
0.80378	99.98
0.82045	99.98
0.83712	99.98
0.85378	99.98
0.87045	99.98
0.88712	99.98
0.90378	99.98
0.92045	99.98
0.93712	99.98
0.95378	99.98
0.97045	99.98
0.98712	99.98
1.00378	99.98
1.02045	99.98
1.03712	99.98
1.05378	99.98
1.07045	99.98
1.08712	99.98
1.10378	99.98
1.12045	99.98
1.13712	99.98
1.15378	99.98
1.17045	99.98
1.18712	99.99
1.20378	99.98
1.22045	99.98
1.23712	99.98
1.25378	99.98
1.27045	99.98
1.28712	99.99
1.30378	99.98
1.32045	99.99
1.33712	99.98
1.35378	99.98
1.37045	99.98
1.38712	99.98
1.40378	99.98
1.42045	99.98
1.43712	99.98
1.45378	99.99
1.47045	99.98
1.48712	99.99
1.50378	99.99
1.52045	99.98
1.53712	99.98
1.55378	99.98
1.57045	99.98
1.58712	99.98
1.60378	99.98
1.62045	99.97
1.63712	99.99
1.65378	99.98
1.67045	99.98
1.68712	99.98
1.70378	99.98
1.72045	99.98
1.73712	99.98
1.75378	99.98
1.77045	99.98
1.78712	99.98
1.80378	99.98
1.82045	99.98
1.83712	99.98
1.85378	99.98
1.87045	99.98
1.88712	99.98
1.90378	99.98
1.92045	99.98
1.93712	99.98
1.95378	99.98
1.97045	99.98
1.98712	99.97
2.00378	99.98
2.02045	99.97
2.03712	99.98
2.05378	99.97
2.07045	99.98
2.08712	99.98
2.10378	99.98
2.12045	99.97
2.13712	99.97
2.15378	99.97
2.17045	99.97
2.18712	99.97
2.20378	99.97
2.22045	99.97
2.23712	99.97
2.25378	99.97
2.27045	99.96
2.28712	99.96
2.30378	99.97
2.32045	99.97
2.33712	99.96
2.35378	99.97
2.37045	99.96
2.38712	99.96
2.40378	99.96
2.42045	99.96
2.43712	99.96
2.45378	99.96
2.47045	99.96
2.48712	99.96
2.50378	99.96
2.52045	99.96
2.53712	99.96
2.55378	99.97
2.57045	99.97
2.58712	99.97
2.60378	99.96
2.62045	99.97
2.63712	99.97
2.65378	99.97
2.67045	99.97
2.68712	99.98
2.70378	99.98
2.72045	99.98
2.73712	99.98
2.75378	99.98
2.77045	99.98
2.78712	99.98
2.80378	99.98
2.82045	99.99
2.83712	99.99
2.85378	99.99
2.87045	99.99
2.88712	100.00
2.90378	99.99
2.92045	100.00
2.93712	100.00
2.95378	100.00
2.97045	100.00
2.98712	100.00
3.00378	100.01
3.02045	100.01
3.03712	100.01
3.05378	100.01
3.07045	100.01
3.08712	100.02
3.10378	100.02
3.12045	100.02
3.13712	100.02
3.15378	100.02
3.17045	100.02
3.18712	100.02
3.20378	100.02
3.22045	100.03
3.23712	100.03
3.25378	100.02
3.27045	100.03
3.28712	100.03
3.30378	100.03
3.32045	100.03
3.33712	100.03
3.35378	100.03
3.37045	100.03
3.38712	100.03
3.40378	100.03
3.42045	100.03
3.43712	100.02
3.45378	100.04
3.47045	100.03
3.48712	100.03
3.50378	100.03
3.52045	100.04
3.53712	100.04
3.55378	100.04
3.57045	100.04
3.58712	100.04
3.60378	100.04
3.62045	100.04
3.63712	100.04
3.65378	100.04
3.67045	100.04
3.68712	100.04
3.70378	100.04
3.72045	100.04
3.73712	100.04
3.75378	100.04
3.77045	100.04
3.78712	100.04
3.80378	100.03
3.82045	100.03
3.83712	100.04
3.85378	100.04
3.87045	100.04
3.88712	100.03
3.90378	100.03
3.92045	100.03
3.93712	100.04
3.95378	100.03
3.97045	100.04
3.98712	100.03

[Status Trace (Carrier Gas Pressure)]
Interval(msec)	1000
# of Points	240
Start Time(min)	0.004
End Time(min)	3.987
Intensity Units	
Intensity Multiplier	1
R.Time (min)	Intensity
0.00378	58.00
0.02045	55.95
0.03712	56.49
0.05378	58.75
0.07045	59.77
0.08712	58.23
0.10378	57.97
0.12045	58.01
0.13712	58.01
0.15378	58.01
0.17045	58.00
0.18712	58.00
0.20378	58.00
0.22045	58.00
0.23712	58.00
0.25378	58.00
0.27045	58.00
0.28712	58.00
0.30378	58.00
0.32045	58.00
0.33712	58.00
0.35378	58.00
0.37045	58.00
0.38712	58.00
0.40378	58.00
0.42045	58.00
0.43712	58.00
0.45378	58.00
0.47045	58.00
0.48712	58.00
0.50378	58.00
0.52045	58.00
0.53712	58.00
0.55378	58.00
0.57045	58.00
0.58712	58.00
0.60378	58.00
0.62045	58.00
0.63712	58.00
0.65378	58.00
0.67045	58.00
0.68712	58.00
0.70378	58.00
0.72045	58.00
0.73712	58.00
0.75378	58.00
0.77045	58.00
0.78712	58.00
0.80378	58.00
0.82045	58.00
0.83712	58.00
0.85378	58.00
0.87045	58.00
0.88712	58.00
0.90378	58.00
0.92045	58.00
0.93712	58.00
0.95378	58.00
0.97045	58.00
0.98712	58.00
1.00378	58.00
1.02045	58.00
1.03712	58.00
1.05378	58.00
1.07045	58.00
1.08712	58.00
1.10378	58.00
1.12045	58.00
1.13712	58.00
1.15378	58.00
1.17045	58.00
1.18712	58.00
1.20378	58.00
1.22045	58.00
1.23712	58.00
1.25378	58.00
1.27045	58.00
1.28712	58.00
1.30378	58.00
1.32045	58.00
1.33712	58.00
1.35378	58.00
1.37045	58.00
1.38712	58.00
1.40378	58.00
1.42045	58.00
1.43712	58.00
1.45378	58.00
1.47045	58.00
1.48712	58.00
1.50378	58.00
1.52045	58.00
1.53712	58.00
1.55378	58.00
1.57045	58.00
1.58712	58.00
1.60378	58.00
1.62045	58.00
1.63712	58.00
1.65378	58.00
1.67045	58.01
1.68712	58.01
1.70378	58.00
1.72045	58.00
1.73712	58.00
1.75378	58.00
1.77045	58.00
1.78712	58.00
1.80378	58.00
1.82045	58.00
1.83712	58.00
1.85378	58.00
1.87045	58.00
1.88712	58.00
1.90378	58.00
1.92045	58.00
1.93712	58.00
1.95378	58.00
1.97045	58.00
1.98712	58.00
2.00378	58.00
2.02045	58.00
2.03712	58.00
2.05378	58.00
2.07045	58.00
2.08712	58.00
2.10378	58.00
2.12045	58.00
2.13712	58.00
2.15378	58.00
2.17045	58.00
2.18712	58.00
2.20378	58.00
2.22045	58.00
2.23712	58.00
2.25378	58.00
2.27045	58.00
2.28712	58.00
2.30378	58.00
2.32045	58.00
2.33712	58.00
2.35378	58.00
2.37045	58.00
2.38712	57.99
2.40378	57.99
2.42045	58.00
2.43712	58.00
2.45378	58.00
2.47045	58.00
2.48712	58.00
2.50378	57.98
2.52045	57.99
2.53712	57.99
2.55378	58.00
2.57045	58.00
2.58712	58.00
2.60378	58.00
2.62045	58.00
2.63712	58.00
2.65378	58.00
2.67045	58.00
2.68712	58.00
2.70378	58.00
2.72045	58.00
2.73712	58.00
2.75378	58.00
2.77045	58.00
2.78712	58.00
2.80378	58.00
2.82045	58.00
2.83712	58.00
2.85378	58.00
2.87045	58.00
2.88712	58.00
2.90378	58.00
2.92045	58.00
2.93712	58.00
2.95378	58.00
2.97045	58.00
2.98712	58.00
3.00378	58.00
3.02045	58.00
3.03712	58.00
3.05378	58.00
3.07045	58.00
3.08712	58.00
3.10378	58.00
3.12045	58.00
3.13712	58.00
3.15378	58.00
3.17045	58.00
3.18712	58.00
3.20378	58.00
3.22045	58.00
3.23712	58.00
3.25378	58.00
3.27045	58.00
3.28712	58.00
3.30378	58.00
3.32045	58.00
3.33712	58.00
3.35378	58.00
3.37045	58.00
3.38712	58.00
3.40378	58.00
3.42045	58.00
3.43712	58.00
3.45378	58.00
3.47045	58.00
3.48712	58.00
3.50378	58.00
3.52045	58.00
3.53712	58.00
3.55378	58.00
3.57045	58.00
3.58712	58.00
3.60378	58.00
3.62045	58.00
3.63712	58.00
3.65378	58.00
3.67045	58.00
3.68712	58.00
3.70378	58.00
3.72045	58.00
3.73712	58.00
3.75378	58.00
3.77045	58.00
3.78712	58.00
3.80378	58.00
3.82045	58.00
3.83712	58.00
3.85378	58.00
3.87045	58.00
3.88712	58.00
3.90378	58.00
3.92045	58.00
3.93712	58.00
3.95378	58.00
3.97045	58.00
3.98712	58.00

[Status Trace (Carrier Gas Flow)]
Interval(msec)	1000
# of Points	240
Start Time(min)	0.004
End Time(min)	3.987
Intensity Units	
Intensity Multiplier	1
R.Time (min)	Intensity
0.00378	34.52
0.02045	34.56
0.03712	34.55
0.05378	34.55
0.07045	34.49
0.08712	34.51
0.10378	34.52
0.12045	34.52
0.13712	34.52
0.15378	34.52
0.17045	34.52
0.18712	34.52
0.20378	34.52
0.22045	34.52
0.23712	34.52
0.25378	34.52
0.27045	34.52
0.28712	34.52
0.30378	34.51
0.32045	34.52
0.33712	34.52
0.35378	34.52
0.37045	34.52
0.38712	34.52
0.40378	34.52
0.42045	34.52
0.43712	34.52
0.45378	34.52
0.47045	34.52
0.48712	34.52
0.50378	34.52
0.52045	34.52
0.53712	34.52
0.55378	34.52
0.57045	34.52
0.58712	34.52
0.60378	34.52
0.62045	34.51
0.63712	34.52
0.65378	34.51
0.67045	34.52
0.68712	34.52
0.70378	34.52
0.72045	34.52
0.73712	34.52
0.75378	34.52
0.77045	34.52
0.78712	34.52
0.80378	34.52
0.82045	34.52
0.83712	34.52
0.85378	34.52
0.87045	34.52
0.88712	34.52
0.90378	34.52
0.92045	34.52
0.93712	34.52
0.95378	34.52
0.97045	34.52
0.98712	34.52
1.00378	34.52
1.02045	34.52
1.03712	34.52
1.05378	34.52
1.07045	34.52
1.08712	34.52
1.10378	34.52
1.12045	34.52
1.13712	34.52
1.15378	34.52
1.17045	34.52
1.18712	34.52
1.20378	34.52
1.22045	34.52
1.23712	34.51
1.25378	34.52
1.27045	34.52
1.28712	34.52
1.30378	34.52
1.32045	34.52
1.33712	34.52
1.35378	34.52
1.37045	34.52
1.38712	34.52
1.40378	34.52
1.42045	34.52
1.43712	34.52
1.45378	34.52
1.47045	34.52
1.48712	34.52
1.50378	34.52
1.52045	34.52
1.53712	34.52
1.55378	34.52
1.57045	34.52
1.58712	34.52
1.60378	34.52
1.62045	34.52
1.63712	34.52
1.65378	34.52
1.67045	34.52
1.68712	34.52
1.70378	34.52
1.72045	34.53
1.73712	34.52
1.75378	34.52
1.77045	34.52
1.78712	34.52
1.80378	34.52
1.82045	34.52
1.83712	34.52
1.85378	34.52
1.87045	34.52
1.88712	34.52
1.90378	34.51
1.92045	34.52
1.93712	34.52
1.95378	34.52
1.97045	34.52
1.98712	34.52
2.00378	34.52
2.02045	34.51
2.03712	34.53
2.05378	34.52
2.07045	34.52
2.08712	34.52
2.10378	34.52
2.12045	34.52
2.13712	34.52
2.15378	34.52
2.17045	34.52
2.18712	34.52
2.20378	34.52
2.22045	34.52
2.23712	34.52
2.25378	34.52
2.27045	34.52
2.28712	34.51
2.30378	34.52
2.32045	34.52
2.33712	34.52
2.35378	34.52
2.37045	34.52
2.38712	34.51
2.40378	34.52
2.42045	34.52
2.43712	34.52
2.45378	34.51
2.47045	34.52
2.48712	34.52
2.50378	34.63
2.52045	34.52
2.53712	34.52
2.55378	34.52
2.57045	34.52
2.58712	34.52
2.60378	34.52
2.62045	34.52
2.63712	34.52
2.65378	34.52
2.67045	34.52
2.68712	34.52
2.70378	34.52
2.72045	34.52
2.73712	34.52
2.75378	34.52
2.77045	34.52
2.78712	34.52
2.80378	34.52
2.82045	34.52
2.83712	34.52
2.85378	34.52
2.87045	34.52
2.88712	34.52
2.90378	34.52
2.92045	34.52
2.93712	34.52
2.95378	34.52
2.97045	34.52
2.98712	34.52
3.00378	34.52
3.02045	34.52
3.03712	34.52
3.05378	34.52
3.07045	34.52
3.08712	34.52
3.10378	34.52
3.12045	34.52
3.13712	34.52
3.15378	34.52
3.17045	34.52
3.18712	34.51
3.20378	34.52
3.22045	34.52
3.23712	34.52
3.25378	34.52
3.27045	34.51
3.28712	34.52
3.30378	34.52
3.32045	34.52
3.33712	34.52
3.35378	34.52
3.37045	34.52
3.38712	34.52
3.40378	34.52
3.42045	34.52
3.43712	34.52
3.45378	34.52
3.47045	34.51
3.48712	34.52
3.50378	34.52
3.52045	34.52
3.53712	34.52
3.55378	34.52
3.57045	34.52
3.58712	34.52
3.60378	34.52
3.62045	34.52
3.63712	34.51
3.65378	34.52
3.67045	34.52
3.68712	34.51
3.70378	34.52
3.72045	34.52
3.73712	34.52
3.75378	34.52
3.77045	34.52
3.78712	34.53
3.80378	34.52
3.82045	34.52
3.83712	34.52
3.85378	34.52
3.87045	34.52
3.88712	34.51
3.90378	34.52
3.92045	34.52
3.93712	34.52
3.95378	34.52
3.97045	34.52
3.98712	34.52

[Status Trace (Column Flow)]
Interval(msec)	1000
# of Points	240
Start Time(min)	0.004
End Time(min)	3.987
Intensity Units	
Intensity Multiplier	1
R.Time (min)	Intensity
0.00378	5.56
0.02045	5.33
0.03712	5.39
0.05378	5.65
0.07045	5.77
0.08712	5.59
0.10378	5.56
0.12045	5.57
0.13712	5.57
0.15378	5.57
0.17045	5.57
0.18712	5.56
0.20378	5.56
0.22045	5.56
0.23712	5.56
0.25378	5.56
0.27045	5.56
0.28712	5.56
0.30378	5.57
0.32045	5.57
0.33712	5.57
0.35378	5.57
0.37045	5.57
0.38712	5.57
0.40378	5.57
0.42045	5.57
0.43712	5.57
0.45378	5.57
0.47045	5.57
0.48712	5.57
0.50378	5.57
0.52045	5.57
0.53712	5.57
0.55378	5.57
0.57045	5.57
0.58712	5.57
0.60378	5.57
0.62045	5.57
0.63712	5.57
0.65378	5.57
0.67045	5.57
0.68712	5.57
0.70378	5.57
0.72045	5.57
0.73712	5.57
0.75378	5.57
0.77045	5.57
0.78712	5.57
0.80378	5.57
0.82045	5.57
0.83712	5.57
0.85378	5.57
0.87045	5.57
0.88712	5.57
0.90378	5.56
0.92045	5.56
0.93712	5.56
0.95378	5.56
0.97045	5.56
0.98712	5.57
1.00378	5.57
1.02045	5.57
1.03712	5.57
1.05378	5.57
1.07045	5.57
1.08712	5.57
1.10378	5.56
1.12045	5.56
1.13712	5.56
1.15378	5.56
1.17045	5.56
1.18712	5.56
1.20378	5.57
1.22045	5.57
1.23712	5.57
1.25378	5.57
1.27045	5.57
1.28712	5.57
1.30378	5.57
1.32045	5.57
1.33712	5.57
1.35378	5.57
1.37045	5.57
1.38712	5.57
1.40378	5.57
1.42045	5.57
1.43712	5.57
1.45378	5.57
1.47045	5.57
1.48712	5.57
1.50378	5.57
1.52045	5.57
1.53712	5.57
1.55378	5.57
1.57045	5.57
1.58712	5.57
1.60378	5.56
1.62045	5.56
1.63712	5.56
1.65378	5.55
1.67045	5.54
1.68712	5.53
1.70378	5.52
1.72045	5.50
1.73712	5.50
1.75378	5.48
1.77045	5.47
1.78712	5.46
1.80378	5.45
1.82045	5.44
1.83712	5.43
1.85378	5.42
1.87045	5.41
1.88712	5.40
1.90378	5.39
1.92045	5.38
1.93712	5.37
1.95378	5.36
1.97045	5.35
1.98712	5.34
2.00378	5.33
2.02045	5.32
2.03712	5.32
2.05378	5.31
2.07045	5.30
2.08712	5.29
2.10378	5.28
2.12045	5.27
2.13712	5.26
2.15378	5.25
2.17045	5.24
2.18712	5.23
2.20378	5.22
2.22045	5.21
2.23712	5.20
2.25378	5.19
2.27045	5.18
2.28712	5.17
2.30378	5.16
2.32045	5.15
2.33712	5.14
2.35378	5.14
2.37045	5.13
2.38712	5.13
2.40378	5.13
2.42045	5.13
2.43712	5.13
2.45378	5.13
2.47045	5.13
2.48712	5.13
2.50378	5.12
2.52045	5.13
2.53712	5.13
2.55378	5.13
2.57045	5.13
2.58712	5.13
2.60378	5.12
2.62045	5.12
2.63712	5.12
2.65378	5.12
2.67045	5.12
2.68712	5.12
2.70378	5.12
2.72045	5.12
2.73712	5.12
2.75378	5.12
2.77045	5.12
2.78712	5.12
2.80378	5.12
2.82045	5.12
2.83712	5.12
2.85378	5.12
2.87045	5.12
2.88712	5.12
2.90378	5.12
2.92045	5.12
2.93712	5.12
2.95378	5.12
2.97045	5.12
2.98712	5.12
3.00378	5.12
3.02045	5.12
3.03712	5.12
3.05378	5.12
3.07045	5.12
3.08712	5.12
3.10378	5.12
3.12045	5.12
3.13712	5.12
3.15378	5.12
3.17045	5.12
3.18712	5.12
3.20378	5.12
3.22045	5.12
3.23712	5.12
3.25378	5.12
3.27045	5.12
3.28712	5.12
3.30378	5.12
3.32045	5.12
3.33712	5.12
3.35378	5.12
3.37045	5.12
3.38712	5.12
3.40378	5.12
3.42045	5.12
3.43712	5.12
3.45378	5.12
3.47045	5.12
3.48712	5.12
3.50378	5.12
3.52045	5.12
3.53712	5.12
3.55378	5.12
3.57045	5.12
3.58712	5.12
3.60378	5.12
3.62045	5.12
3.63712	5.12
3.65378	5.12
3.67045	5.12
3.68712	5.12
3.70378	5.12
3.72045	5.12
3.73712	5.12
3.75378	5.12
3.77045	5.12
3.78712	5.12
3.80378	5.12
3.82045	5.12
3.83712	5.12
3.85378	5.12
3.87045	5.12
3.88712	5.12
3.90378	5.12
3.92045	5.12
3.93712	5.12
3.95378	5.12
3.97045	5.12
3.98712	5.12

[Status Trace (Linear Velocity)]
Interval(msec)	1000
# of Points	240
Start Time(min)	0.004
End Time(min)	3.987
Intensity Units	
Intensity Multiplier	1
R.Time (min)	Intensity
0.00378	39.02
0.02045	37.68
0.03712	38.03
0.05378	39.52
0.07045	40.18
0.08712	39.17
0.10378	39.00
0.12045	39.03
0.13712	39.03
0.15378	39.03
0.17045	39.03
0.18712	39.03
0.20378	39.02
0.22045	39.03
0.23712	39.03
0.25378	39.02
0.27045	39.03
0.28712	39.03
0.30378	39.03
0.32045	39.03
0.33712	39.03
0.35378	39.03
0.37045	39.03
0.38712	39.03
0.40378	39.03
0.42045	39.03
0.43712	39.03
0.45378	39.03
0.47045	39.03
0.48712	39.03
0.50378	39.03
0.52045	39.03
0.53712	39.03
0.55378	39.03
0.57045	39.03
0.58712	39.03
0.60378	39.03
0.62045	39.03
0.63712	39.03
0.65378	39.03
0.67045	39.03
0.68712	39.03
0.70378	39.03
0.72045	39.03
0.73712	39.03
0.75378	39.03
0.77045	39.03
0.78712	39.03
0.80378	39.03
0.82045	39.03
0.83712	39.03
0.85378	39.03
0.87045	39.03
0.88712	39.03
0.90378	39.03
0.92045	39.03
0.93712	39.03
0.95378	39.03
0.97045	39.03
0.98712	39.03
1.00378	39.03
1.02045	39.03
1.03712	39.03
1.05378	39.03
1.07045	39.03
1.08712	39.03
1.10378	39.03
1.12045	39.03
1.13712	39.02
1.15378	39.02
1.17045	39.03
1.18712	39.03
1.20378	39.03
1.22045	39.03
1.23712	39.03
1.25378	39.03
1.27045	39.03
1.28712	39.03
1.30378	39.03
1.32045	39.03
1.33712	39.03
1.35378	39.03
1.37045	39.03
1.38712	39.03
1.40378	39.03
1.42045	39.03
1.43712	39.03
1.45378	39.03
1.47045	39.03
1.48712	39.03
1.50378	39.03
1.52045	39.03
1.53712	39.03
1.55378	39.03
1.57045	39.03
1.58712	39.03
1.60378	39.03
1.62045	39.02
1.63712	39.00
1.65378	38.98
1.67045	38.95
1.68712	38.92
1.70378	38.88
1.72045	38.84
1.73712	38.81
1.75378	38.78
1.77045	38.75
1.78712	38.72
1.80378	38.69
1.82045	38.66
1.83712	38.63
1.85378	38.59
1.87045	38.56
1.88712	38.53
1.90378	38.50
1.92045	38.47
1.93712	38.44
1.95378	38.41
1.97045	38.38
1.98712	38.35
2.00378	38.32
2.02045	38.29
2.03712	38.26
2.05378	38.23
2.07045	38.20
2.08712	38.17
2.10378	38.14
2.12045	38.11
2.13712	38.08
2.15378	38.05
2.17045	38.02
2.18712	37.99
2.20378	37.96
2.22045	37.93
2.23712	37.91
2.25378	37.87
2.27045	37.84
2.28712	37.82
2.30378	37.78
2.32045	37.75
2.33712	37.73
2.35378	37.70
2.37045	37.68
2.38712	37.67
2.40378	37.67
2.42045	37.67
2.43712	37.67
2.45378	37.67
2.47045	37.67
2.48712	37.67
2.50378	37.66
2.52045	37.66
2.53712	37.66
2.55378	37.67
2.57045	37.67
2.58712	37.66
2.60378	37.66
2.62045	37.66
2.63712	37.66
2.65378	37.66
2.67045	37.66
2.68712	37.66
2.70378	37.66
2.72045	37.66
2.73712	37.65
2.75378	37.66
2.77045	37.66
2.78712	37.66
2.80378	37.65
2.82045	37.65
2.83712	37.65
2.85378	37.65
2.87045	37.65
2.88712	37.65
2.90378	37.65
2.92045	37.65
2.93712	37.65
2.95378	37.65
2.97045	37.65
2.98712	37.65
3.00378	37.65
3.02045	37.64
3.03712	37.64
3.05378	37.64
3.07045	37.64
3.08712	37.64
3.10378	37.64
3.12045	37.64
3.13712	37.64
3.15378	37.64
3.17045	37.64
3.18712	37.64
3.20378	37.64
3.22045	37.64
3.23712	37.64
3.25378	37.64
3.27045	37.64
3.28712	37.64
3.30378	37.63
3.32045	37.63
3.33712	37.63
3.35378	37.63
3.37045	37.63
3.38712	37.63
3.40378	37.63
3.42045	37.63
3.43712	37.63
3.45378	37.63
3.47045	37.63
3.48712	37.64
3.50378	37.64
3.52045	37.64
3.53712	37.64
3.55378	37.64
3.57045	37.64
3.58712	37.64
3.60378	37.64
3.62045	37.64
3.63712	37.64
3.65378	37.64
3.67045	37.64
3.68712	37.64
3.70378	37.64
3.72045	37.64
3.73712	37.64
3.75378	37.63
3.77045	37.63
3.78712	37.63
3.80378	37.64
3.82045	37.64
3.83712	37.64
3.85378	37.64
3.87045	37.64
3.88712	37.64
3.90378	37.64
3.92045	37.63
3.93712	37.64
3.95378	37.64
3.97045	37.64
3.98712	37.64

