[Header]
Application Name	LabSolutions
Version	5.110
Data File Name	C:\Users\User\Desktop\GC Analyses\Jack\Nachusa Grasslands Sampling\T1 Timepoint July 12th\T1_07122022_068.gcd
Output Date	3/14/2023
Output Time	3:41:01 PM

[File Information]
Type	Data File
Generated	3/8/2023 8:48:54 PM
Generated by	System Administrator
Modified	3/8/2023 8:55:46 PM
Modified by	System Administrator

[Sample Information]
Operator Name	System Administrator
Acquired	3/8/2023 8:51:45 PM
Sample Type	0:Unknown
Level	0
Sample Name	068
Sample ID	068
ISTD Amount1	1
ISTD Amount2	1
ISTD Amount3	1
ISTD Amount4	1
ISTD Amount5	1
ISTD Amount6	1
ISTD Amount7	1
ISTD Amount8	1
ISTD Amount9	1
ISTD Amount10	1
ISTD Amount11	1
ISTD Amount12	1
ISTD Amount13	1
ISTD Amount14	1
ISTD Amount15	1
ISTD Amount16	1
ISTD Amount17	1
ISTD Amount18	1
ISTD Amount19	1
ISTD Amount20	1
ISTD Amount21	1
ISTD Amount22	1
ISTD Amount23	1
ISTD Amount24	1
ISTD Amount25	1
ISTD Amount26	1
ISTD Amount27	1
ISTD Amount28	1
ISTD Amount29	1
ISTD Amount30	1
ISTD Amount31	1
ISTD Amount32	1
Sample Amount	1
Dilution Factor	1
Vial#	67
Injection Volume	1
Injection Count	1
Bar Code	

[Original Files]
Data File	C:\Users\User\Desktop\GC Analyses\Jack\Nachusa Grasslands Sampling\T1 Timepoint July 12th\T1_07122022_068.gcd
Method File	C:\LabSolutions\Data\GHG_4min_2022\ghg3_togas_w_acet_4 min_new_int.gcm
Batch File	C:\LabSolutions\Data\AutoSamplerTesting\T1_07122022.gcb
Report Format File	c:\LabSolutions\System\DEFAULT.lsr

[File Description]


[Configuration]
Instrument Name	C0B7VH3-Instrument1
Instrument #	1
Line #	1
# of Detectors	3
Detector ID	DET#1	DET#2	DET#3
Detector Name	FID	PTCD	ECD
# of Channels	1	1	1

[Peak Table(Ch1)]
# of Peaks	3
Peak#	R.Time	I.Time	F.Time	Area	Height	A/H	Conc.	Mark	ID#	Name	k'	Plate #	Plate Ht.	Tailing	Resolution	Sep.Factor	Area Ratio	Height Ratio	Conc. %	Norm Conc.
1	1.476	1.435	1.538	29968	14160	2.116	211.578	   	1	CO	0.000	9374	16.002	1.312	0.000	0.000	0	0	19.922	19.922
2	1.567	1.538	1.633	4827	2293	2.105	93.339	 V 	2	CH4	0.062	10148	14.781	0.000	1.488	0.000	0	0	8.789	8.789
3	1.996	1.949	2.451	3016645	1429338	2.111	757.096	   	3	CO2	0.353	16960	8.844	1.271	6.945	5.680	0	0	71.289	71.289

[Peak Table(Ch2)]
# of Peaks	0

[Peak Table(Ch3)]
# of Peaks	5
Peak#	R.Time	I.Time	F.Time	Area	Height	A/H	Conc.	Mark	ID#	Name	k'	Plate #	Plate Ht.	Tailing	Resolution	Sep.Factor	Area Ratio	Height Ratio	Conc. %	Norm Conc.
1	2.462	2.253	2.513	2688	591	4.547	0.000	   			0.000	7654	19.598	0.000	0.000	0.000	0	0	0.000	0.000
2	2.539	2.513	2.627	1378	322	4.274	0.000	 V 			0.031	3132	47.889	0.000	0.524	0.000	0	0	0.000	0.000
3	2.678	2.642	2.719	225	73	3.084	0.000	   			0.088	8069	18.590	0.000	0.927	2.810	0	0	0.000	0.000
4	2.873	2.719	3.041	19969	5009	3.987	0.510	 V 	1	N2O	0.167	13029	11.513	1.742	1.767	1.898	0	0	100.000	100.000
5	3.148	3.045	3.995	15165	480	31.597	0.000	   	2	SF6	0.278	289	519.530	4.634	0.653	1.670	0	0	0.000	0.000

[Compound Results(Ch1)]
# of IDs	6
ID#	Name	R.Time	Area	Height	Conc.	Curve	3rd	2nd	1st	Constant	Area Ratio	Height Ratio	Conc. %	Norm Conc.
1	CO	1.476	29968	14160	211.578	Linear	0.000000e+00	0.000000e+00	1.416423e+002	0.000000e+00	0	0	19.922	19.922
2	CH4	1.567	4827	2293	93.339	Linear	0.000000e+00	0.000000e+00	5.171738e+001	0.000000e+00	0	0	8.789	8.789
3	CO2	1.996	3016645	1429338	757.096	Linear	0.000000e+00	0.000000e+00	3.984494e+003	0.000000e+00	0	0	71.289	71.289
4	Ethylene	0.000	0	0	0.000	Linear	0.000000e+00	0.000000e+00	0.000000e+00	0.000000e+00	0	0	0.000	0.000
5	Acetylene	0.000	0	0	0.000	Linear	0.000000e+00	0.000000e+00	0.000000e+00	0.000000e+00	0	0	0.000	0.000
6	Ethane	0.000	0	0	0.000	Linear	0.000000e+00	0.000000e+00	0.000000e+00	0.000000e+00	0	0	0.000	0.000

[Compound Results(Ch2)]
# of IDs	5
ID#	Name	R.Time	Area	Height	Conc.	Curve	3rd	2nd	1st	Constant	Area Ratio	Height Ratio	Conc. %	Norm Conc.
1	Hydrogen	0.000	0	0	0.000	Linear	0.000000e+00	0.000000e+00	0.000000e+00	0.000000e+00	0	0	0.000	0.000
2	Oxygen	0.000	0	0	0.000	Linear	0.000000e+00	0.000000e+00	0.000000e+00	0.000000e+00	0	0	0.000	0.000
3	Nitrogen	0.000	0	0	0.000	Linear	0.000000e+00	0.000000e+00	0.000000e+00	0.000000e+00	0	0	0.000	0.000
4	Methane	0.000	0	0	0.000	Linear	0.000000e+00	0.000000e+00	0.000000e+00	0.000000e+00	0	0	0.000	0.000
5	Carbon Monoxide	0.000	0	0	0.000	Linear	0.000000e+00	0.000000e+00	0.000000e+00	0.000000e+00	0	0	0.000	0.000

[Compound Results(Ch3)]
# of IDs	2
ID#	Name	R.Time	Area	Height	Conc.	Curve	3rd	2nd	1st	Constant	Area Ratio	Height Ratio	Conc. %	Norm Conc.
1	N2O	2.873	19969	5009	0.510	Linear	0.000000e+00	0.000000e+00	3.915173e+004	0.000000e+00	0	0	100.000	100.000
2	SF6	3.148	15165	480	0.000	Linear	0.000000e+00	0.000000e+00	0.000000e+00	0.000000e+00	0	0	0.000	0.000

[Group Results(Ch1)]
# of Groups	0

[Group Results(Ch2)]
# of Groups	0

[Group Results(Ch3)]
# of Groups	0

[Chromatogram (Ch1)]
Interval(msec)	220
# of Points	1091
Start Time(min)	0.002
End Time(min)	3.998
R.Time (min)	Intensity
0.00167	-34
0.00533	-47
0.00900	-63
0.01267	-75
0.01633	-77
0.02000	-70
0.02367	-51
0.02733	-30
0.03100	-15
0.03467	-7
0.03833	-4
0.04200	-1
0.04567	-3
0.04933	-9
0.05300	-16
0.05667	-26
0.06033	-35
0.06400	-39
0.06767	-37
0.07133	-35
0.07500	-35
0.07867	-32
0.08233	-28
0.08600	-24
0.08967	-19
0.09333	-13
0.09700	-5
0.10067	3
0.10433	11
0.10800	16
0.11167	17
0.11533	16
0.11900	13
0.12267	8
0.12633	4
0.13000	1
0.13367	1
0.13733	-1
0.14100	-1
0.14467	-2
0.14833	-1
0.15200	3
0.15567	2
0.15933	-6
0.16300	-9
0.16667	-6
0.17033	-5
0.17400	-6
0.17767	-2
0.18133	2
0.18500	6
0.18867	8
0.19233	7
0.19600	3
0.19967	-4
0.20333	-11
0.20700	-12
0.21067	-7
0.21433	-3
0.21800	-1
0.22167	-5
0.22533	-6
0.22900	-6
0.23267	-7
0.23633	-12
0.24000	-20
0.24367	-27
0.24733	-33
0.25100	-37
0.25467	-35
0.25833	-28
0.26200	-20
0.26567	-11
0.26933	-7
0.27300	-8
0.27667	-11
0.28033	-13
0.28400	-15
0.28767	-15
0.29133	-14
0.29500	-10
0.29867	-5
0.30233	-4
0.30600	-3
0.30967	-1
0.31333	2
0.31700	2
0.32067	-6
0.32433	-16
0.32800	-22
0.33167	-24
0.33533	-20
0.33900	-13
0.34267	-6
0.34633	-2
0.35000	-5
0.35367	-13
0.35733	-21
0.36100	-25
0.36467	-25
0.36833	-22
0.37200	-17
0.37567	-16
0.37933	-20
0.38300	-22
0.38667	-22
0.39033	-22
0.39400	-25
0.39767	-29
0.40133	-31
0.40500	-31
0.40867	-29
0.41233	-24
0.41600	-17
0.41967	-13
0.42333	-15
0.42700	-18
0.43067	-19
0.43433	-19
0.43800	-21
0.44167	-27
0.44533	-39
0.44900	-48
0.45267	-43
0.45633	-41
0.46000	-36
0.46367	-32
0.46733	-30
0.47100	-34
0.47467	-37
0.47833	-38
0.48200	-37
0.48567	-36
0.48933	-35
0.49300	-32
0.49667	-32
0.50033	-33
0.50400	-31
0.50767	-25
0.51133	-18
0.51500	-10
0.51867	-3
0.52233	2
0.52600	2
0.52967	1
0.53333	-5
0.53700	-10
0.54067	-9
0.54433	-6
0.54800	-8
0.55167	-12
0.55533	-16
0.55900	-20
0.56267	-28
0.56633	-41
0.57000	-52
0.57367	-53
0.57733	-49
0.58100	-43
0.58467	-40
0.58833	-39
0.59200	-38
0.59567	-38
0.59933	-41
0.60300	-41
0.60667	-38
0.61033	-37
0.61400	-35
0.61767	-29
0.62133	-20
0.62500	-7
0.62867	-3
0.63233	-9
0.63600	-16
0.63967	-21
0.64333	-27
0.64700	-28
0.65067	-20
0.65433	-10
0.65800	-4
0.66167	-6
0.66533	-23
0.66900	-28
0.67267	-31
0.67633	-35
0.68000	-40
0.68367	-46
0.68733	-49
0.69100	-48
0.69467	-47
0.69833	-47
0.70200	-47
0.70567	-46
0.70933	-43
0.71300	-40
0.71667	-37
0.72033	-33
0.72400	-30
0.72767	-26
0.73133	-21
0.73500	-19
0.73867	-18
0.74233	-20
0.74600	-23
0.74967	-25
0.75333	-25
0.75700	-27
0.76067	-31
0.76433	-35
0.76800	-35
0.77167	-28
0.77533	-23
0.77900	-21
0.78267	-25
0.78633	-27
0.79000	-26
0.79367	-22
0.79733	-22
0.80100	-26
0.80467	-32
0.80833	-34
0.81200	-36
0.81567	-40
0.81933	-40
0.82300	-39
0.82667	-33
0.83033	-26
0.83400	-27
0.83767	-34
0.84133	-46
0.84500	-59
0.84867	-68
0.85233	-69
0.85600	-64
0.85967	-56
0.86333	-48
0.86700	-42
0.87067	-40
0.87433	-40
0.87800	-39
0.88167	-35
0.88533	-25
0.88900	-19
0.89267	-23
0.89633	-36
0.90000	-51
0.90367	-62
0.90733	-66
0.91100	-66
0.91467	-63
0.91833	-59
0.92200	-55
0.92567	-53
0.92933	-51
0.93300	-44
0.93667	-31
0.94033	-8
0.94400	15
0.94767	29
0.95133	34
0.95500	32
0.95867	26
0.96233	21
0.96600	18
0.96967	14
0.97333	12
0.97700	10
0.98067	9
0.98433	10
0.98800	11
0.99167	10
0.99533	6
0.99900	-3
1.00267	-15
1.00633	-21
1.01000	-19
1.01367	-14
1.01733	-13
1.02100	-12
1.02467	-13
1.02833	-15
1.03200	-16
1.03567	-20
1.03933	-17
1.04300	-12
1.04667	-8
1.05033	-6
1.05400	-6
1.05767	-5
1.06133	0
1.06500	4
1.06867	3
1.07233	3
1.07600	4
1.07967	4
1.08333	-2
1.08700	-8
1.09067	-12
1.09433	-14
1.09800	-11
1.10167	-5
1.10533	3
1.10900	7
1.11267	5
1.11633	1
1.12000	-6
1.12367	-15
1.12733	-23
1.13100	-25
1.13467	-22
1.13833	-17
1.14200	-12
1.14567	-7
1.14933	-2
1.15300	1
1.15667	3
1.16033	4
1.16400	4
1.16767	2
1.17133	-4
1.17500	-9
1.17867	-18
1.18233	-26
1.18600	-28
1.18967	-25
1.19333	-25
1.19700	-26
1.20067	-23
1.20433	-19
1.20800	-21
1.21167	-23
1.21533	-24
1.21900	-24
1.22267	-22
1.22633	-21
1.23000	-22
1.23367	-26
1.23733	-30
1.24100	-34
1.24467	-34
1.24833	-31
1.25200	-27
1.25567	-25
1.25933	-26
1.26300	-27
1.26667	-28
1.27033	-21
1.27400	-13
1.27767	-7
1.28133	-6
1.28500	-6
1.28867	-7
1.29233	-9
1.29600	-13
1.29967	-20
1.30333	-28
1.30700	-34
1.31067	-35
1.31433	-31
1.31800	-28
1.32167	-25
1.32533	-19
1.32900	-15
1.33267	-13
1.33633	-14
1.34000	-18
1.34367	-25
1.34733	-30
1.35100	-31
1.35467	-26
1.35833	-18
1.36200	-10
1.36567	-3
1.36933	4
1.37300	3
1.37667	-8
1.38033	-27
1.38400	-34
1.38767	-44
1.39133	-48
1.39500	-36
1.39867	-21
1.40233	-14
1.40600	-10
1.40967	-11
1.41333	-12
1.41700	-16
1.42067	-21
1.42433	-26
1.42800	-34
1.43167	-38
1.43533	-33
1.43900	-1
1.44267	109
1.44633	364
1.45000	977
1.45367	2381
1.45733	4678
1.46100	7409
1.46467	9995
1.46833	12084
1.47200	13508
1.47567	14131
1.47933	13834
1.48300	12631
1.48667	10764
1.49033	8628
1.49400	6586
1.49767	4858
1.50133	3509
1.50500	2511
1.50867	1796
1.51233	1293
1.51600	944
1.51967	708
1.52333	547
1.52700	431
1.53067	345
1.53433	283
1.53800	257
1.54167	302
1.54533	469
1.54900	783
1.55267	1188
1.55633	1593
1.56000	1930
1.56367	2164
1.56733	2271
1.57100	2231
1.57467	2029
1.57833	1706
1.58200	1337
1.58567	992
1.58933	708
1.59300	498
1.59667	347
1.60033	242
1.60400	168
1.60767	116
1.61133	80
1.61500	57
1.61867	41
1.62233	26
1.62600	9
1.62967	-6
1.63333	-17
1.63700	-21
1.64067	-24
1.64433	-24
1.64800	-24
1.65167	-27
1.65533	-32
1.65900	-34
1.66267	-34
1.66633	-33
1.67000	-32
1.67367	-31
1.67733	-32
1.68100	-33
1.68467	-31
1.68833	-24
1.69200	-18
1.69567	-15
1.69933	-12
1.70300	-10
1.70667	-11
1.71033	-18
1.71400	-26
1.71767	-31
1.72133	-35
1.72500	-36
1.72867	-40
1.73233	-49
1.73600	-56
1.73967	-62
1.74333	-65
1.74700	-64
1.75067	-63
1.75433	-65
1.75800	-66
1.76167	-65
1.76533	-61
1.76900	-55
1.77267	-54
1.77633	-47
1.78000	-38
1.78367	-32
1.78733	-28
1.79100	-30
1.79467	-34
1.79833	-37
1.80200	-36
1.80567	-37
1.80933	-35
1.81300	-32
1.81667	-30
1.82033	-32
1.82400	-31
1.82767	-25
1.83133	-27
1.83500	-31
1.83867	-36
1.84233	-40
1.84600	-37
1.84967	-29
1.85333	-24
1.85700	-24
1.86067	-27
1.86433	-33
1.86800	-35
1.87167	-32
1.87533	-27
1.87900	-25
1.88267	-31
1.88633	-37
1.89000	-41
1.89367	-42
1.89733	-39
1.90100	-37
1.90467	-34
1.90833	-30
1.91200	-27
1.91567	-26
1.91933	-27
1.92300	-26
1.92667	-25
1.93033	-23
1.93400	-23
1.93767	-23
1.94133	-22
1.94500	-19
1.94867	-11
1.95233	28
1.95600	315
1.95967	2006
1.96333	9638
1.96700	35866
1.97067	104848
1.97433	243777
1.97800	460778
1.98167	729828
1.98533	1001816
1.98900	1228795
1.99267	1377330
1.99633	1429401
2.00000	1382954
2.00367	1252100
2.00733	1064765
2.01100	855200
2.01467	654032
2.01833	481108
2.02200	344189
2.02567	242104
2.02933	169170
2.03300	118542
2.03667	84007
2.04033	60653
2.04400	44889
2.04767	34192
2.05133	26843
2.05500	21704
2.05867	18035
2.06233	15350
2.06600	13339
2.06967	11794
2.07333	10576
2.07700	9593
2.08067	8776
2.08433	8085
2.08800	7496
2.09167	6990
2.09533	6554
2.09900	6169
2.10267	5827
2.10633	5519
2.11000	5240
2.11367	4982
2.11733	4742
2.12100	4523
2.12467	4324
2.12833	4140
2.13200	3968
2.13567	3813
2.13933	3669
2.14300	3532
2.14667	3405
2.15033	3287
2.15400	3176
2.15767	3070
2.16133	2970
2.16500	2877
2.16867	2790
2.17233	2708
2.17600	2630
2.17967	2557
2.18333	2488
2.18700	2420
2.19067	2353
2.19433	2286
2.19800	2227
2.20167	2174
2.20533	2124
2.20900	2072
2.21267	2019
2.21633	1965
2.22000	1913
2.22367	1865
2.22733	1819
2.23100	1780
2.23467	1745
2.23833	1711
2.24200	1677
2.24567	1643
2.24933	1611
2.25300	1577
2.25667	1542
2.26033	1507
2.26400	1478
2.26767	1454
2.27133	1429
2.27500	1399
2.27867	1370
2.28233	1343
2.28600	1317
2.28967	1294
2.29333	1273
2.29700	1252
2.30067	1235
2.30433	1222
2.30800	1209
2.31167	1194
2.31533	1179
2.31900	1163
2.32267	1143
2.32633	1124
2.33000	1111
2.33367	1103
2.33733	1096
2.34100	1087
2.34467	1072
2.34833	1053
2.35200	1032
2.35567	1010
2.35933	986
2.36300	963
2.36667	940
2.37033	919
2.37400	901
2.37767	890
2.38133	886
2.38500	885
2.38867	882
2.39233	878
2.39600	872
2.39967	863
2.40333	855
2.40700	848
2.41067	836
2.41433	821
2.41800	810
2.42167	804
2.42533	799
2.42900	796
2.43267	789
2.43633	779
2.44000	768
2.44367	760
2.44733	758
2.45100	758
2.45467	760
2.45833	758
2.46200	752
2.46567	743
2.46933	733
2.47300	721
2.47667	706
2.48033	692
2.48400	681
2.48767	671
2.49133	659
2.49500	645
2.49867	631
2.50233	620
2.50600	613
2.50967	610
2.51333	610
2.51700	609
2.52067	612
2.52433	618
2.52800	621
2.53167	625
2.53533	629
2.53900	627
2.54267	622
2.54633	617
2.55000	611
2.55367	603
2.55733	594
2.56100	584
2.56467	570
2.56833	554
2.57200	542
2.57567	536
2.57933	533
2.58300	534
2.58667	536
2.59033	540
2.59400	545
2.59767	555
2.60133	569
2.60500	580
2.60867	583
2.61233	577
2.61600	563
2.61967	546
2.62333	526
2.62700	502
2.63067	482
2.63433	467
2.63800	454
2.64167	445
2.64533	441
2.64900	446
2.65267	454
2.65633	459
2.66000	464
2.66367	467
2.66733	468
2.67100	466
2.67467	462
2.67833	458
2.68200	456
2.68567	455
2.68933	458
2.69300	461
2.69667	464
2.70033	463
2.70400	459
2.70767	455
2.71133	449
2.71500	443
2.71867	439
2.72233	437
2.72600	438
2.72967	441
2.73333	443
2.73700	446
2.74067	445
2.74433	445
2.74800	446
2.75167	447
2.75533	448
2.75900	447
2.76267	447
2.76633	442
2.77000	429
2.77367	415
2.77733	404
2.78100	400
2.78467	403
2.78833	407
2.79200	411
2.79567	413
2.79933	415
2.80300	415
2.80667	415
2.81033	416
2.81400	417
2.81767	418
2.82133	418
2.82500	419
2.82867	419
2.83233	417
2.83600	411
2.83967	398
2.84333	385
2.84700	374
2.85067	369
2.85433	367
2.85800	367
2.86167	369
2.86533	371
2.86900	374
2.87267	379
2.87633	384
2.88000	385
2.88367	382
2.88733	380
2.89100	382
2.89467	391
2.89833	399
2.90200	399
2.90567	392
2.90933	383
2.91300	376
2.91667	367
2.92033	356
2.92400	346
2.92767	340
2.93133	340
2.93500	346
2.93867	353
2.94233	360
2.94600	365
2.94967	366
2.95333	365
2.95700	361
2.96067	357
2.96433	354
2.96800	350
2.97167	349
2.97533	354
2.97900	358
2.98267	360
2.98633	362
2.99000	365
2.99367	369
2.99733	371
3.00100	369
3.00467	362
3.00833	353
3.01200	344
3.01567	339
3.01933	339
3.02300	344
3.02667	343
3.03033	336
3.03400	329
3.03767	324
3.04133	318
3.04500	314
3.04867	313
3.05233	315
3.05600	319
3.05967	324
3.06333	328
3.06700	328
3.07067	325
3.07433	323
3.07800	323
3.08167	323
3.08533	322
3.08900	317
3.09267	313
3.09633	309
3.10000	305
3.10367	301
3.10733	297
3.11100	298
3.11467	301
3.11833	305
3.12200	309
3.12567	310
3.12933	309
3.13300	310
3.13667	310
3.14033	310
3.14400	310
3.14767	309
3.15133	308
3.15500	308
3.15867	308
3.16233	308
3.16600	310
3.16967	311
3.17333	310
3.17700	305
3.18067	298
3.18433	294
3.18800	291
3.19167	288
3.19533	281
3.19900	274
3.20267	270
3.20633	268
3.21000	269
3.21367	272
3.21733	275
3.22100	277
3.22467	281
3.22833	287
3.23200	291
3.23567	292
3.23933	292
3.24300	288
3.24667	282
3.25033	276
3.25400	271
3.25767	265
3.26133	263
3.26500	264
3.26867	265
3.27233	267
3.27600	268
3.27967	268
3.28333	265
3.28700	262
3.29067	256
3.29433	251
3.29800	247
3.30167	248
3.30533	253
3.30900	258
3.31267	263
3.31633	265
3.32000	263
3.32367	263
3.32733	265
3.33100	269
3.33467	271
3.33833	274
3.34200	279
3.34567	284
3.34933	283
3.35300	276
3.35667	269
3.36033	261
3.36400	252
3.36767	247
3.37133	246
3.37500	246
3.37867	249
3.38233	254
3.38600	262
3.38967	270
3.39333	272
3.39700	269
3.40067	261
3.40433	250
3.40800	242
3.41167	236
3.41533	232
3.41900	230
3.42267	227
3.42633	223
3.43000	219
3.43367	218
3.43733	222
3.44100	228
3.44467	236
3.44833	242
3.45200	244
3.45567	242
3.45933	240
3.46300	238
3.46667	235
3.47033	227
3.47400	220
3.47767	217
3.48133	219
3.48500	223
3.48867	224
3.49233	221
3.49600	219
3.49967	212
3.50333	203
3.50700	197
3.51067	196
3.51433	202
3.51800	210
3.52167	217
3.52533	220
3.52900	220
3.53267	219
3.53633	222
3.54000	224
3.54367	220
3.54733	214
3.55100	212
3.55467	210
3.55833	205
3.56200	200
3.56567	200
3.56933	204
3.57300	209
3.57667	212
3.58033	212
3.58400	214
3.58767	216
3.59133	216
3.59500	218
3.59867	223
3.60233	225
3.60600	224
3.60967	223
3.61333	218
3.61700	212
3.62067	207
3.62433	202
3.62800	200
3.63167	201
3.63533	206
3.63900	211
3.64267	214
3.64633	214
3.65000	212
3.65367	208
3.65733	203
3.66100	198
3.66467	198
3.66833	203
3.67200	204
3.67567	196
3.67933	183
3.68300	176
3.68667	173
3.69033	173
3.69400	175
3.69767	177
3.70133	177
3.70500	176
3.70867	176
3.71233	178
3.71600	183
3.71967	185
3.72333	188
3.72700	191
3.73067	187
3.73433	179
3.73800	170
3.74167	163
3.74533	162
3.74900	165
3.75267	169
3.75633	167
3.76000	165
3.76367	167
3.76733	168
3.77100	164
3.77467	156
3.77833	149
3.78200	145
3.78567	143
3.78933	146
3.79300	153
3.79667	162
3.80033	167
3.80400	169
3.80767	168
3.81133	162
3.81500	158
3.81867	158
3.82233	159
3.82600	163
3.82967	168
3.83333	168
3.83700	165
3.84067	161
3.84433	158
3.84800	155
3.85167	155
3.85533	160
3.85900	171
3.86267	176
3.86633	173
3.87000	163
3.87367	152
3.87733	146
3.88100	143
3.88467	142
3.88833	141
3.89200	137
3.89567	130
3.89933	125
3.90300	127
3.90667	133
3.91033	139
3.91400	146
3.91767	149
3.92133	153
3.92500	154
3.92867	154
3.93233	149
3.93600	146
3.93967	152
3.94333	157
3.94700	157
3.95067	149
3.95433	139
3.95800	131
3.96167	127
3.96533	124
3.96900	123
3.97267	122
3.97633	121
3.98000	119
3.98367	110
3.98733	99
3.99100	94
3.99467	94
3.99833	96

[Chromatogram (Ch2)]
Interval(msec)	220
# of Points	1091
Start Time(min)	0.002
End Time(min)	3.998
R.Time (min)	Intensity
0.00167	-0
0.00533	0
0.00900	0
0.01267	0
0.01633	1
0.02000	1
0.02367	1
0.02733	1
0.03100	1
0.03467	2
0.03833	2
0.04200	2
0.04567	2
0.04933	3
0.05300	3
0.05667	3
0.06033	3
0.06400	3
0.06767	3
0.07133	2
0.07500	2
0.07867	3
0.08233	3
0.08600	3
0.08967	3
0.09333	3
0.09700	3
0.10067	3
0.10433	3
0.10800	3
0.11167	3
0.11533	3
0.11900	3
0.12267	3
0.12633	3
0.13000	3
0.13367	4
0.13733	4
0.14100	3
0.14467	3
0.14833	3
0.15200	3
0.15567	2
0.15933	2
0.16300	2
0.16667	2
0.17033	3
0.17400	3
0.17767	3
0.18133	3
0.18500	3
0.18867	2
0.19233	2
0.19600	2
0.19967	2
0.20333	2
0.20700	2
0.21067	2
0.21433	2
0.21800	2
0.22167	2
0.22533	2
0.22900	2
0.23267	2
0.23633	2
0.24000	3
0.24367	3
0.24733	3
0.25100	3
0.25467	3
0.25833	3
0.26200	3
0.26567	3
0.26933	3
0.27300	2
0.27667	2
0.28033	2
0.28400	2
0.28767	2
0.29133	2
0.29500	2
0.29867	2
0.30233	3
0.30600	3
0.30967	3
0.31333	3
0.31700	3
0.32067	3
0.32433	3
0.32800	3
0.33167	2
0.33533	2
0.33900	2
0.34267	2
0.34633	2
0.35000	1
0.35367	1
0.35733	1
0.36100	1
0.36467	1
0.36833	1
0.37200	1
0.37567	2
0.37933	2
0.38300	2
0.38667	2
0.39033	2
0.39400	1
0.39767	1
0.40133	1
0.40500	1
0.40867	1
0.41233	1
0.41600	1
0.41967	0
0.42333	0
0.42700	0
0.43067	0
0.43433	0
0.43800	1
0.44167	1
0.44533	1
0.44900	1
0.45267	1
0.45633	2
0.46000	2
0.46367	2
0.46733	2
0.47100	2
0.47467	2
0.47833	2
0.48200	1
0.48567	1
0.48933	1
0.49300	1
0.49667	1
0.50033	1
0.50400	1
0.50767	1
0.51133	2
0.51500	2
0.51867	2
0.52233	2
0.52600	1
0.52967	1
0.53333	1
0.53700	1
0.54067	1
0.54433	1
0.54800	1
0.55167	1
0.55533	1
0.55900	1
0.56267	1
0.56633	1
0.57000	1
0.57367	1
0.57733	1
0.58100	1
0.58467	0
0.58833	0
0.59200	0
0.59567	0
0.59933	-0
0.60300	0
0.60667	0
0.61033	1
0.61400	1
0.61767	1
0.62133	2
0.62500	2
0.62867	2
0.63233	2
0.63600	2
0.63967	2
0.64333	2
0.64700	2
0.65067	2
0.65433	2
0.65800	2
0.66167	1
0.66533	1
0.66900	1
0.67267	1
0.67633	1
0.68000	1
0.68367	1
0.68733	1
0.69100	1
0.69467	1
0.69833	1
0.70200	1
0.70567	1
0.70933	1
0.71300	1
0.71667	0
0.72033	0
0.72400	0
0.72767	0
0.73133	0
0.73500	0
0.73867	0
0.74233	1
0.74600	1
0.74967	1
0.75333	1
0.75700	1
0.76067	1
0.76433	1
0.76800	1
0.77167	1
0.77533	1
0.77900	1
0.78267	1
0.78633	1
0.79000	1
0.79367	1
0.79733	0
0.80100	-0
0.80467	-0
0.80833	-0
0.81200	-0
0.81567	-0
0.81933	-0
0.82300	-0
0.82667	-0
0.83033	-0
0.83400	-0
0.83767	-0
0.84133	-0
0.84500	0
0.84867	0
0.85233	1
0.85600	1
0.85967	1
0.86333	2
0.86700	2
0.87067	2
0.87433	2
0.87800	2
0.88167	2
0.88533	2
0.88900	2
0.89267	2
0.89633	2
0.90000	2
0.90367	1
0.90733	1
0.91100	1
0.91467	1
0.91833	1
0.92200	1
0.92567	2
0.92933	2
0.93300	2
0.93667	2
0.94033	2
0.94400	2
0.94767	2
0.95133	1
0.95500	1
0.95867	1
0.96233	0
0.96600	-0
0.96967	-1
0.97333	-1
0.97700	-1
0.98067	-2
0.98433	-2
0.98800	-2
0.99167	-2
0.99533	-2
0.99900	-2
1.00267	-2
1.00633	-2
1.01000	-2
1.01367	-2
1.01733	-2
1.02100	-2
1.02467	-2
1.02833	-2
1.03200	-2
1.03567	-2
1.03933	-2
1.04300	-1
1.04667	-1
1.05033	-0
1.05400	-0
1.05767	0
1.06133	0
1.06500	0
1.06867	1
1.07233	1
1.07600	1
1.07967	1
1.08333	2
1.08700	2
1.09067	2
1.09433	2
1.09800	2
1.10167	2
1.10533	2
1.10900	2
1.11267	1
1.11633	1
1.12000	1
1.12367	1
1.12733	1
1.13100	1
1.13467	0
1.13833	0
1.14200	-0
1.14567	-1
1.14933	-1
1.15300	-1
1.15667	-1
1.16033	-1
1.16400	-2
1.16767	-2
1.17133	-2
1.17500	-2
1.17867	-2
1.18233	-2
1.18600	-2
1.18967	-2
1.19333	-2
1.19700	-2
1.20067	-2
1.20433	-2
1.20800	-1
1.21167	-1
1.21533	-1
1.21900	-1
1.22267	-2
1.22633	-2
1.23000	-2
1.23367	-3
1.23733	-3
1.24100	-4
1.24467	-4
1.24833	-4
1.25200	-4
1.25567	-4
1.25933	-4
1.26300	-4
1.26667	-4
1.27033	-3
1.27400	-3
1.27767	-3
1.28133	-3
1.28500	-2
1.28867	-2
1.29233	-2
1.29600	-1
1.29967	-1
1.30333	-1
1.30700	-1
1.31067	-1
1.31433	-1
1.31800	-1
1.32167	-1
1.32533	-2
1.32900	-2
1.33267	-2
1.33633	-2
1.34000	-2
1.34367	-2
1.34733	-2
1.35100	-2
1.35467	-2
1.35833	-1
1.36200	-1
1.36567	-1
1.36933	-1
1.37300	-1
1.37667	-1
1.38033	-1
1.38400	-1
1.38767	-1
1.39133	-1
1.39500	-1
1.39867	-1
1.40233	-1
1.40600	-1
1.40967	-2
1.41333	-2
1.41700	-2
1.42067	-2
1.42433	-2
1.42800	-2
1.43167	-3
1.43533	-3
1.43900	-3
1.44267	-3
1.44633	-3
1.45000	-3
1.45367	-3
1.45733	-2
1.46100	-2
1.46467	-2
1.46833	-2
1.47200	-2
1.47567	-2
1.47933	-2
1.48300	-2
1.48667	-2
1.49033	-1
1.49400	-2
1.49767	-2
1.50133	-2
1.50500	-2
1.50867	-2
1.51233	-2
1.51600	-2
1.51967	-2
1.52333	-2
1.52700	-2
1.53067	-2
1.53433	-2
1.53800	-2
1.54167	-2
1.54533	-2
1.54900	-2
1.55267	-2
1.55633	-2
1.56000	-2
1.56367	-2
1.56733	-2
1.57100	-2
1.57467	-2
1.57833	-2
1.58200	-2
1.58567	-2
1.58933	-2
1.59300	-2
1.59667	-3
1.60033	-4
1.60400	-5
1.60767	-7
1.61133	-8
1.61500	-10
1.61867	-13
1.62233	-15
1.62600	-18
1.62967	-21
1.63333	-24
1.63700	-28
1.64067	-31
1.64433	-35
1.64800	-38
1.65167	-42
1.65533	-45
1.65900	-49
1.66267	-52
1.66633	-56
1.67000	-60
1.67367	-65
1.67733	-69
1.68100	-75
1.68467	-80
1.68833	-85
1.69200	-90
1.69567	-94
1.69933	-97
1.70300	-100
1.70667	-102
1.71033	-104
1.71400	-106
1.71767	-108
1.72133	-109
1.72500	-110
1.72867	-110
1.73233	-111
1.73600	-112
1.73967	-112
1.74333	-112
1.74700	-112
1.75067	-112
1.75433	-111
1.75800	-111
1.76167	-111
1.76533	-111
1.76900	-111
1.77267	-111
1.77633	-112
1.78000	-113
1.78367	-113
1.78733	-114
1.79100	-115
1.79467	-115
1.79833	-115
1.80200	-115
1.80567	-114
1.80933	-114
1.81300	-114
1.81667	-114
1.82033	-113
1.82400	-113
1.82767	-114
1.83133	-114
1.83500	-115
1.83867	-115
1.84233	-116
1.84600	-116
1.84967	-116
1.85333	-117
1.85700	-117
1.86067	-116
1.86433	-116
1.86800	-115
1.87167	-115
1.87533	-115
1.87900	-115
1.88267	-115
1.88633	-116
1.89000	-116
1.89367	-116
1.89733	-115
1.90100	-115
1.90467	-115
1.90833	-115
1.91200	-115
1.91567	-115
1.91933	-115
1.92300	-115
1.92667	-114
1.93033	-114
1.93400	-114
1.93767	-113
1.94133	-113
1.94500	-113
1.94867	-113
1.95233	-113
1.95600	-113
1.95967	-113
1.96333	-113
1.96700	-112
1.97067	-112
1.97433	-111
1.97800	-111
1.98167	-110
1.98533	-110
1.98900	-110
1.99267	-110
1.99633	-110
2.00000	-109
2.00367	-109
2.00733	-109
2.01100	-109
2.01467	-109
2.01833	-109
2.02200	-109
2.02567	-109
2.02933	-109
2.03300	-109
2.03667	-108
2.04033	-107
2.04400	-107
2.04767	-107
2.05133	-106
2.05500	-106
2.05867	-105
2.06233	-105
2.06600	-104
2.06967	-104
2.07333	-103
2.07700	-102
2.08067	-102
2.08433	-101
2.08800	-100
2.09167	-100
2.09533	-99
2.09900	-99
2.10267	-99
2.10633	-100
2.11000	-100
2.11367	-100
2.11733	-101
2.12100	-101
2.12467	-100
2.12833	-99
2.13200	-98
2.13567	-97
2.13933	-96
2.14300	-96
2.14667	-95
2.15033	-95
2.15400	-95
2.15767	-95
2.16133	-96
2.16500	-96
2.16867	-96
2.17233	-96
2.17600	-96
2.17967	-96
2.18333	-95
2.18700	-94
2.19067	-93
2.19433	-93
2.19800	-93
2.20167	-93
2.20533	-93
2.20900	-93
2.21267	-92
2.21633	-91
2.22000	-90
2.22367	-89
2.22733	-88
2.23100	-88
2.23467	-88
2.23833	-89
2.24200	-89
2.24567	-89
2.24933	-89
2.25300	-89
2.25667	-89
2.26033	-89
2.26400	-88
2.26767	-88
2.27133	-88
2.27500	-88
2.27867	-88
2.28233	-87
2.28600	-87
2.28967	-87
2.29333	-88
2.29700	-88
2.30067	-89
2.30433	-89
2.30800	-89
2.31167	-88
2.31533	-87
2.31900	-86
2.32267	-85
2.32633	-85
2.33000	-84
2.33367	-84
2.33733	-83
2.34100	-82
2.34467	-81
2.34833	-80
2.35200	-79
2.35567	-77
2.35933	-76
2.36300	-74
2.36667	-72
2.37033	-69
2.37400	-66
2.37767	-63
2.38133	-59
2.38500	-55
2.38867	-51
2.39233	-47
2.39600	-43
2.39967	-38
2.40333	-34
2.40700	-30
2.41067	-27
2.41433	-24
2.41800	-22
2.42167	-20
2.42533	-18
2.42900	-17
2.43267	-15
2.43633	-13
2.44000	-11
2.44367	-10
2.44733	-9
2.45100	-8
2.45467	-7
2.45833	-6
2.46200	-5
2.46567	-4
2.46933	-2
2.47300	-1
2.47667	1
2.48033	2
2.48400	4
2.48767	5
2.49133	6
2.49500	8
2.49867	9
2.50233	9
2.50600	10
2.50967	10
2.51333	10
2.51700	11
2.52067	11
2.52433	11
2.52800	12
2.53167	13
2.53533	13
2.53900	14
2.54267	14
2.54633	15
2.55000	15
2.55367	15
2.55733	15
2.56100	15
2.56467	15
2.56833	14
2.57200	14
2.57567	14
2.57933	14
2.58300	14
2.58667	14
2.59033	14
2.59400	15
2.59767	15
2.60133	15
2.60500	16
2.60867	16
2.61233	16
2.61600	16
2.61967	16
2.62333	17
2.62700	17
2.63067	17
2.63433	17
2.63800	17
2.64167	17
2.64533	17
2.64900	17
2.65267	17
2.65633	18
2.66000	18
2.66367	18
2.66733	19
2.67100	19
2.67467	19
2.67833	20
2.68200	20
2.68567	21
2.68933	22
2.69300	22
2.69667	23
2.70033	24
2.70400	24
2.70767	25
2.71133	25
2.71500	24
2.71867	24
2.72233	24
2.72600	24
2.72967	24
2.73333	24
2.73700	24
2.74067	24
2.74433	25
2.74800	25
2.75167	25
2.75533	25
2.75900	25
2.76267	25
2.76633	24
2.77000	24
2.77367	24
2.77733	24
2.78100	24
2.78467	24
2.78833	24
2.79200	24
2.79567	24
2.79933	24
2.80300	25
2.80667	25
2.81033	25
2.81400	26
2.81767	26
2.82133	27
2.82500	27
2.82867	27
2.83233	26
2.83600	26
2.83967	24
2.84333	21
2.84700	16
2.85067	9
2.85433	-1
2.85800	-15
2.86167	-32
2.86533	-54
2.86900	-80
2.87267	-111
2.87633	-145
2.88000	-184
2.88367	-226
2.88733	-271
2.89100	-318
2.89467	-369
2.89833	-420
2.90200	-473
2.90567	-527
2.90933	-581
2.91300	-635
2.91667	-690
2.92033	-743
2.92400	-795
2.92767	-846
2.93133	-900
2.93500	-958
2.93867	-1017
2.94233	-1067
2.94600	-1099
2.94967	-1105
2.95333	-1085
2.95700	-1042
2.96067	-982
2.96433	-910
2.96800	-832
2.97167	-751
2.97533	-671
2.97900	-595
2.98267	-523
2.98633	-457
2.99000	-397
2.99367	-344
2.99733	-296
3.00100	-254
3.00467	-217
3.00833	-184
3.01200	-156
3.01567	-132
3.01933	-112
3.02300	-94
3.02667	-78
3.03033	-65
3.03400	-54
3.03767	-44
3.04133	-36
3.04500	-29
3.04867	-23
3.05233	-17
3.05600	-13
3.05967	-9
3.06333	-6
3.06700	-3
3.07067	-1
3.07433	1
3.07800	3
3.08167	5
3.08533	6
3.08900	7
3.09267	8
3.09633	9
3.10000	10
3.10367	11
3.10733	12
3.11100	12
3.11467	13
3.11833	13
3.12200	14
3.12567	14
3.12933	14
3.13300	15
3.13667	15
3.14033	16
3.14400	16
3.14767	16
3.15133	16
3.15500	17
3.15867	17
3.16233	17
3.16600	17
3.16967	18
3.17333	18
3.17700	18
3.18067	19
3.18433	19
3.18800	19
3.19167	20
3.19533	20
3.19900	20
3.20267	21
3.20633	21
3.21000	21
3.21367	21
3.21733	21
3.22100	21
3.22467	21
3.22833	21
3.23200	21
3.23567	21
3.23933	21
3.24300	21
3.24667	21
3.25033	22
3.25400	22
3.25767	22
3.26133	22
3.26500	22
3.26867	22
3.27233	22
3.27600	23
3.27967	23
3.28333	23
3.28700	23
3.29067	23
3.29433	23
3.29800	23
3.30167	23
3.30533	23
3.30900	23
3.31267	23
3.31633	23
3.32000	23
3.32367	23
3.32733	23
3.33100	24
3.33467	24
3.33833	25
3.34200	25
3.34567	26
3.34933	26
3.35300	26
3.35667	27
3.36033	27
3.36400	27
3.36767	27
3.37133	27
3.37500	27
3.37867	27
3.38233	27
3.38600	27
3.38967	27
3.39333	27
3.39700	27
3.40067	27
3.40433	28
3.40800	28
3.41167	28
3.41533	28
3.41900	27
3.42267	27
3.42633	27
3.43000	28
3.43367	28
3.43733	28
3.44100	28
3.44467	28
3.44833	28
3.45200	28
3.45567	28
3.45933	29
3.46300	29
3.46667	28
3.47033	28
3.47400	28
3.47767	28
3.48133	28
3.48500	28
3.48867	28
3.49233	28
3.49600	28
3.49967	28
3.50333	28
3.50700	28
3.51067	28
3.51433	28
3.51800	28
3.52167	28
3.52533	28
3.52900	28
3.53267	28
3.53633	28
3.54000	28
3.54367	28
3.54733	28
3.55100	28
3.55467	28
3.55833	28
3.56200	28
3.56567	28
3.56933	28
3.57300	28
3.57667	28
3.58033	28
3.58400	28
3.58767	28
3.59133	28
3.59500	28
3.59867	29
3.60233	29
3.60600	29
3.60967	29
3.61333	28
3.61700	28
3.62067	28
3.62433	28
3.62800	28
3.63167	27
3.63533	27
3.63900	27
3.64267	27
3.64633	26
3.65000	26
3.65367	26
3.65733	26
3.66100	26
3.66467	26
3.66833	26
3.67200	26
3.67567	25
3.67933	25
3.68300	25
3.68667	25
3.69033	25
3.69400	25
3.69767	24
3.70133	24
3.70500	24
3.70867	24
3.71233	24
3.71600	24
3.71967	24
3.72333	24
3.72700	25
3.73067	25
3.73433	25
3.73800	26
3.74167	26
3.74533	26
3.74900	26
3.75267	26
3.75633	27
3.76000	27
3.76367	27
3.76733	27
3.77100	27
3.77467	27
3.77833	27
3.78200	27
3.78567	27
3.78933	27
3.79300	27
3.79667	27
3.80033	28
3.80400	28
3.80767	28
3.81133	28
3.81500	27
3.81867	27
3.82233	27
3.82600	27
3.82967	27
3.83333	27
3.83700	27
3.84067	27
3.84433	27
3.84800	27
3.85167	27
3.85533	26
3.85900	26
3.86267	26
3.86633	26
3.87000	26
3.87367	26
3.87733	26
3.88100	26
3.88467	26
3.88833	26
3.89200	26
3.89567	26
3.89933	27
3.90300	27
3.90667	27
3.91033	27
3.91400	27
3.91767	27
3.92133	27
3.92500	26
3.92867	26
3.93233	26
3.93600	25
3.93967	25
3.94333	25
3.94700	25
3.95067	25
3.95433	25
3.95800	25
3.96167	25
3.96533	26
3.96900	26
3.97267	26
3.97633	26
3.98000	26
3.98367	26
3.98733	26
3.99100	26
3.99467	26
3.99833	26

[Chromatogram (Ch3)]
Interval(msec)	220
# of Points	1091
Start Time(min)	0.002
End Time(min)	3.998
R.Time (min)	Intensity
0.00167	0
0.00533	2
0.00900	3
0.01267	3
0.01633	3
0.02000	4
0.02367	4
0.02733	4
0.03100	3
0.03467	4
0.03833	5
0.04200	7
0.04567	6
0.04933	5
0.05300	5
0.05667	4
0.06033	2
0.06400	2
0.06767	2
0.07133	2
0.07500	4
0.07867	4
0.08233	4
0.08600	3
0.08967	1
0.09333	1
0.09700	3
0.10067	4
0.10433	3
0.10800	2
0.11167	3
0.11533	3
0.11900	4
0.12267	5
0.12633	6
0.13000	9
0.13367	10
0.13733	7
0.14100	5
0.14467	5
0.14833	7
0.15200	8
0.15567	9
0.15933	9
0.16300	8
0.16667	4
0.17033	2
0.17400	3
0.17767	3
0.18133	4
0.18500	5
0.18867	4
0.19233	4
0.19600	5
0.19967	5
0.20333	6
0.20700	7
0.21067	9
0.21433	7
0.21800	7
0.22167	7
0.22533	6
0.22900	7
0.23267	8
0.23633	10
0.24000	10
0.24367	12
0.24733	14
0.25100	15
0.25467	16
0.25833	14
0.26200	12
0.26567	10
0.26933	10
0.27300	11
0.27667	10
0.28033	9
0.28400	8
0.28767	7
0.29133	7
0.29500	10
0.29867	11
0.30233	10
0.30600	10
0.30967	11
0.31333	11
0.31700	12
0.32067	14
0.32433	15
0.32800	16
0.33167	15
0.33533	14
0.33900	15
0.34267	14
0.34633	12
0.35000	12
0.35367	12
0.35733	10
0.36100	8
0.36467	9
0.36833	12
0.37200	14
0.37567	14
0.37933	14
0.38300	13
0.38667	13
0.39033	12
0.39400	13
0.39767	15
0.40133	16
0.40500	16
0.40867	16
0.41233	15
0.41600	12
0.41967	9
0.42333	10
0.42700	12
0.43067	12
0.43433	12
0.43800	11
0.44167	10
0.44533	10
0.44900	10
0.45267	11
0.45633	11
0.46000	11
0.46367	10
0.46733	10
0.47100	10
0.47467	10
0.47833	13
0.48200	15
0.48567	14
0.48933	12
0.49300	9
0.49667	8
0.50033	9
0.50400	11
0.50767	13
0.51133	13
0.51500	14
0.51867	13
0.52233	11
0.52600	10
0.52967	11
0.53333	14
0.53700	13
0.54067	13
0.54433	12
0.54800	11
0.55167	14
0.55533	16
0.55900	18
0.56267	16
0.56633	15
0.57000	16
0.57367	18
0.57733	18
0.58100	17
0.58467	16
0.58833	15
0.59200	13
0.59567	11
0.59933	12
0.60300	14
0.60667	14
0.61033	14
0.61400	14
0.61767	16
0.62133	17
0.62500	18
0.62867	17
0.63233	17
0.63600	18
0.63967	17
0.64333	15
0.64700	15
0.65067	14
0.65433	14
0.65800	14
0.66167	14
0.66533	13
0.66900	14
0.67267	16
0.67633	17
0.68000	17
0.68367	18
0.68733	20
0.69100	23
0.69467	24
0.69833	22
0.70200	22
0.70567	21
0.70933	20
0.71300	21
0.71667	23
0.72033	23
0.72400	22
0.72767	21
0.73133	20
0.73500	18
0.73867	18
0.74233	17
0.74600	18
0.74967	20
0.75333	21
0.75700	21
0.76067	22
0.76433	22
0.76800	22
0.77167	22
0.77533	22
0.77900	23
0.78267	23
0.78633	22
0.79000	21
0.79367	22
0.79733	23
0.80100	23
0.80467	23
0.80833	22
0.81200	19
0.81567	17
0.81933	16
0.82300	14
0.82667	14
0.83033	15
0.83400	18
0.83767	19
0.84133	21
0.84500	21
0.84867	21
0.85233	21
0.85600	19
0.85967	18
0.86333	17
0.86700	18
0.87067	20
0.87433	20
0.87800	21
0.88167	22
0.88533	23
0.88900	23
0.89267	23
0.89633	22
0.90000	24
0.90367	24
0.90733	23
0.91100	23
0.91467	21
0.91833	20
0.92200	20
0.92567	22
0.92933	22
0.93300	24
0.93667	24
0.94033	25
0.94400	25
0.94767	24
0.95133	23
0.95500	21
0.95867	21
0.96233	23
0.96600	24
0.96967	25
0.97333	24
0.97700	22
0.98067	22
0.98433	24
0.98800	28
0.99167	28
0.99533	27
0.99900	28
1.00267	28
1.00633	28
1.01000	28
1.01367	28
1.01733	29
1.02100	29
1.02467	30
1.02833	31
1.03200	33
1.03567	34
1.03933	34
1.04300	35
1.04667	35
1.05033	33
1.05400	32
1.05767	32
1.06133	32
1.06500	33
1.06867	32
1.07233	31
1.07600	27
1.07967	26
1.08333	29
1.08700	30
1.09067	30
1.09433	29
1.09800	28
1.10167	29
1.10533	31
1.10900	34
1.11267	33
1.11633	34
1.12000	37
1.12367	39
1.12733	39
1.13100	40
1.13467	39
1.13833	36
1.14200	35
1.14567	35
1.14933	36
1.15300	35
1.15667	32
1.16033	31
1.16400	30
1.16767	28
1.17133	27
1.17500	27
1.17867	30
1.18233	33
1.18600	35
1.18967	37
1.19333	38
1.19700	37
1.20067	37
1.20433	38
1.20800	38
1.21167	38
1.21533	40
1.21900	41
1.22267	39
1.22633	38
1.23000	36
1.23367	35
1.23733	36
1.24100	36
1.24467	39
1.24833	39
1.25200	37
1.25567	35
1.25933	36
1.26300	37
1.26667	39
1.27033	39
1.27400	39
1.27767	39
1.28133	39
1.28500	37
1.28867	36
1.29233	36
1.29600	38
1.29967	39
1.30333	40
1.30700	41
1.31067	39
1.31433	39
1.31800	39
1.32167	41
1.32533	42
1.32900	43
1.33267	44
1.33633	43
1.34000	42
1.34367	40
1.34733	39
1.35100	40
1.35467	41
1.35833	41
1.36200	39
1.36567	38
1.36933	40
1.37300	39
1.37667	40
1.38033	39
1.38400	41
1.38767	41
1.39133	42
1.39500	45
1.39867	47
1.40233	48
1.40600	47
1.40967	47
1.41333	47
1.41700	46
1.42067	47
1.42433	48
1.42800	49
1.43167	47
1.43533	47
1.43900	46
1.44267	44
1.44633	44
1.45000	46
1.45367	46
1.45733	49
1.46100	50
1.46467	51
1.46833	49
1.47200	48
1.47567	49
1.47933	50
1.48300	50
1.48667	50
1.49033	50
1.49400	50
1.49767	49
1.50133	48
1.50500	47
1.50867	49
1.51233	50
1.51600	51
1.51967	50
1.52333	48
1.52700	49
1.53067	50
1.53433	50
1.53800	51
1.54167	53
1.54533	54
1.54900	54
1.55267	56
1.55633	56
1.56000	55
1.56367	54
1.56733	52
1.57100	51
1.57467	51
1.57833	52
1.58200	53
1.58567	54
1.58933	53
1.59300	54
1.59667	54
1.60033	53
1.60400	52
1.60767	53
1.61133	54
1.61500	53
1.61867	50
1.62233	51
1.62600	51
1.62967	51
1.63333	54
1.63700	57
1.64067	59
1.64433	59
1.64800	57
1.65167	54
1.65533	53
1.65900	55
1.66267	57
1.66633	57
1.67000	56
1.67367	59
1.67733	61
1.68100	61
1.68467	62
1.68833	63
1.69200	60
1.69567	59
1.69933	59
1.70300	58
1.70667	57
1.71033	56
1.71400	56
1.71767	55
1.72133	55
1.72500	54
1.72867	53
1.73233	55
1.73600	54
1.73967	52
1.74333	50
1.74700	50
1.75067	49
1.75433	48
1.75800	49
1.76167	52
1.76533	54
1.76900	56
1.77267	58
1.77633	58
1.78000	59
1.78367	59
1.78733	59
1.79100	57
1.79467	57
1.79833	60
1.80200	63
1.80567	64
1.80933	67
1.81300	70
1.81667	68
1.82033	66
1.82400	65
1.82767	64
1.83133	64
1.83500	65
1.83867	67
1.84233	69
1.84600	70
1.84967	71
1.85333	72
1.85700	74
1.86067	76
1.86433	78
1.86800	80
1.87167	83
1.87533	85
1.87900	83
1.88267	81
1.88633	79
1.89000	77
1.89367	77
1.89733	78
1.90100	78
1.90467	80
1.90833	82
1.91200	81
1.91567	80
1.91933	81
1.92300	82
1.92667	82
1.93033	81
1.93400	81
1.93767	82
1.94133	83
1.94500	85
1.94867	88
1.95233	91
1.95600	94
1.95967	94
1.96333	95
1.96700	96
1.97067	98
1.97433	100
1.97800	101
1.98167	104
1.98533	103
1.98900	101
1.99267	102
1.99633	104
2.00000	105
2.00367	105
2.00733	107
2.01100	108
2.01467	107
2.01833	106
2.02200	106
2.02567	106
2.02933	108
2.03300	111
2.03667	114
2.04033	116
2.04400	117
2.04767	118
2.05133	121
2.05500	123
2.05867	125
2.06233	126
2.06600	126
2.06967	124
2.07333	124
2.07700	124
2.08067	126
2.08433	127
2.08800	127
2.09167	126
2.09533	127
2.09900	126
2.10267	128
2.10633	131
2.11000	134
2.11367	135
2.11733	134
2.12100	134
2.12467	131
2.12833	130
2.13200	130
2.13567	130
2.13933	130
2.14300	133
2.14667	136
2.15033	138
2.15400	138
2.15767	138
2.16133	139
2.16500	139
2.16867	140
2.17233	142
2.17600	143
2.17967	144
2.18333	145
2.18700	146
2.19067	147
2.19433	147
2.19800	150
2.20167	155
2.20533	158
2.20900	159
2.21267	159
2.21633	158
2.22000	161
2.22367	163
2.22733	166
2.23100	170
2.23467	173
2.23833	175
2.24200	176
2.24567	176
2.24933	176
2.25300	177
2.25667	178
2.26033	180
2.26400	182
2.26767	183
2.27133	183
2.27500	184
2.27867	183
2.28233	182
2.28600	183
2.28967	186
2.29333	186
2.29700	187
2.30067	191
2.30433	194
2.30800	198
2.31167	203
2.31533	208
2.31900	209
2.32267	209
2.32633	208
2.33000	210
2.33367	212
2.33733	214
2.34100	215
2.34467	217
2.34833	219
2.35200	222
2.35567	226
2.35933	228
2.36300	231
2.36667	231
2.37033	229
2.37400	230
2.37767	233
2.38133	237
2.38500	237
2.38867	236
2.39233	237
2.39600	240
2.39967	245
2.40333	248
2.40700	250
2.41067	251
2.41433	254
2.41800	258
2.42167	260
2.42533	260
2.42900	259
2.43267	261
2.43633	264
2.44000	268
2.44367	309
2.44733	417
2.45100	532
2.45467	628
2.45833	683
2.46200	681
2.46567	644
2.46933	601
2.47300	571
2.47667	552
2.48033	538
2.48400	522
2.48767	496
2.49133	461
2.49500	423
2.49867	390
2.50233	362
2.50600	343
2.50967	331
2.51333	324
2.51700	324
2.52067	330
2.52433	340
2.52800	353
2.53167	368
2.53533	377
2.53900	381
2.54267	375
2.54633	363
2.55000	345
2.55367	325
2.55733	305
2.56100	285
2.56467	265
2.56833	252
2.57200	242
2.57567	233
2.57933	225
2.58300	220
2.58667	217
2.59033	214
2.59400	208
2.59767	197
2.60133	179
2.60500	157
2.60867	132
2.61233	106
2.61600	80
2.61967	57
2.62333	37
2.62700	22
2.63067	13
2.63433	11
2.63800	12
2.64167	18
2.64533	25
2.64900	32
2.65267	37
2.65633	45
2.66000	54
2.66367	63
2.66733	72
2.67100	80
2.67467	88
2.67833	90
2.68200	89
2.68567	87
2.68933	85
2.69300	82
2.69667	78
2.70033	75
2.70400	70
2.70767	65
2.71133	63
2.71500	63
2.71867	63
2.72233	64
2.72600	67
2.72967	68
2.73333	69
2.73700	73
2.74067	77
2.74433	79
2.74800	81
2.75167	81
2.75533	83
2.75900	83
2.76267	83
2.76633	83
2.77000	84
2.77367	84
2.77733	85
2.78100	87
2.78467	89
2.78833	91
2.79200	92
2.79567	94
2.79933	95
2.80300	95
2.80667	94
2.81033	95
2.81400	97
2.81767	105
2.82133	127
2.82500	174
2.82867	265
2.83233	419
2.83600	661
2.83967	1009
2.84333	1463
2.84700	2006
2.85067	2607
2.85433	3225
2.85800	3811
2.86167	4314
2.86533	4695
2.86900	4933
2.87267	5023
2.87633	4973
2.88000	4808
2.88367	4553
2.88733	4237
2.89100	3887
2.89467	3527
2.89833	3173
2.90200	2835
2.90567	2519
2.90933	2230
2.91300	1969
2.91667	1735
2.92033	1527
2.92400	1347
2.92767	1190
2.93133	1051
2.93500	930
2.93867	822
2.94233	730
2.94600	651
2.94967	581
2.95333	520
2.95700	468
2.96067	425
2.96433	387
2.96800	355
2.97167	326
2.97533	300
2.97900	278
2.98267	259
2.98633	241
2.99000	224
2.99367	207
2.99733	194
3.00100	182
3.00467	171
3.00833	163
3.01200	155
3.01567	150
3.01933	146
3.02300	143
3.02667	136
3.03033	115
3.03400	78
3.03767	35
3.04133	11
3.04500	12
3.04867	31
3.05233	58
3.05600	91
3.05967	126
3.06333	166
3.06700	205
3.07067	243
3.07433	281
3.07800	317
3.08167	349
3.08533	376
3.08900	400
3.09267	425
3.09633	445
3.10000	462
3.10367	475
3.10733	484
3.11100	492
3.11467	497
3.11833	502
3.12200	508
3.12567	515
3.12933	522
3.13300	526
3.13667	529
3.14033	531
3.14400	533
3.14767	534
3.15133	535
3.15500	535
3.15867	535
3.16233	538
3.16600	541
3.16967	543
3.17333	544
3.17700	545
3.18067	546
3.18433	545
3.18800	544
3.19167	543
3.19533	544
3.19900	545
3.20267	547
3.20633	549
3.21000	550
3.21367	549
3.21733	548
3.22100	549
3.22467	550
3.22833	549
3.23200	549
3.23567	547
3.23933	546
3.24300	545
3.24667	544
3.25033	545
3.25400	546
3.25767	546
3.26133	548
3.26500	548
3.26867	547
3.27233	548
3.27600	549
3.27967	548
3.28333	547
3.28700	546
3.29067	544
3.29433	541
3.29800	541
3.30167	541
3.30533	541
3.30900	541
3.31267	542
3.31633	543
3.32000	542
3.32367	542
3.32733	543
3.33100	543
3.33467	543
3.33833	544
3.34200	547
3.34567	549
3.34933	549
3.35300	548
3.35667	547
3.36033	547
3.36400	545
3.36767	544
3.37133	542
3.37500	539
3.37867	539
3.38233	540
3.38600	541
3.38967	542
3.39333	543
3.39700	544
3.40067	545
3.40433	545
3.40800	543
3.41167	539
3.41533	536
3.41900	535
3.42267	535
3.42633	536
3.43000	536
3.43367	537
3.43733	536
3.44100	531
3.44467	528
3.44833	525
3.45200	523
3.45567	521
3.45933	518
3.46300	517
3.46667	517
3.47033	515
3.47400	514
3.47767	514
3.48133	513
3.48500	514
3.48867	515
3.49233	513
3.49600	510
3.49967	505
3.50333	500
3.50700	499
3.51067	500
3.51433	500
3.51800	499
3.52167	496
3.52533	493
3.52900	492
3.53267	490
3.53633	488
3.54000	485
3.54367	483
3.54733	480
3.55100	476
3.55467	476
3.55833	477
3.56200	474
3.56567	470
3.56933	469
3.57300	470
3.57667	470
3.58033	469
3.58400	468
3.58767	467
3.59133	467
3.59500	465
3.59867	466
3.60233	466
3.60600	464
3.60967	464
3.61333	463
3.61700	465
3.62067	465
3.62433	464
3.62800	464
3.63167	464
3.63533	464
3.63900	463
3.64267	462
3.64633	461
3.65000	458
3.65367	457
3.65733	456
3.66100	457
3.66467	456
3.66833	456
3.67200	459
3.67567	460
3.67933	458
3.68300	458
3.68667	457
3.69033	458
3.69400	461
3.69767	463
3.70133	462
3.70500	460
3.70867	459
3.71233	456
3.71600	455
3.71967	456
3.72333	456
3.72700	455
3.73067	452
3.73433	449
3.73800	449
3.74167	452
3.74533	456
3.74900	458
3.75267	457
3.75633	457
3.76000	455
3.76367	454
3.76733	456
3.77100	456
3.77467	454
3.77833	451
3.78200	450
3.78567	450
3.78933	449
3.79300	448
3.79667	448
3.80033	448
3.80400	450
3.80767	450
3.81133	449
3.81500	447
3.81867	445
3.82233	443
3.82600	443
3.82967	444
3.83333	446
3.83700	448
3.84067	448
3.84433	447
3.84800	446
3.85167	446
3.85533	444
3.85900	443
3.86267	442
3.86633	440
3.87000	437
3.87367	436
3.87733	436
3.88100	437
3.88467	437
3.88833	437
3.89200	436
3.89567	434
3.89933	431
3.90300	431
3.90667	433
3.91033	431
3.91400	429
3.91767	430
3.92133	431
3.92500	428
3.92867	423
3.93233	419
3.93600	418
3.93967	418
3.94333	418
3.94700	417
3.95067	416
3.95433	417
3.95800	416
3.96167	414
3.96533	414
3.96900	414
3.97267	414
3.97633	412
3.98000	411
3.98367	410
3.98733	409
3.99100	408
3.99467	407
3.99833	403

[Status Trace (Column Oven Temperature)]
Interval(msec)	1000
# of Points	239
Start Time(min)	0.016
End Time(min)	3.982
Intensity Units	
Intensity Multiplier	1
R.Time (min)	Intensity
0.01568	35.09
0.03235	35.08
0.04902	35.08
0.06568	35.08
0.08235	35.07
0.09902	35.07
0.11568	35.07
0.13235	35.07
0.14902	35.07
0.16568	35.06
0.18235	35.06
0.19902	35.05
0.21568	35.05
0.23235	35.06
0.24902	35.05
0.26568	35.04
0.28235	35.04
0.29902	35.04
0.31568	35.03
0.33235	35.02
0.34902	35.03
0.36568	35.02
0.38235	35.01
0.39902	35.02
0.41568	35.03
0.43235	35.03
0.44902	35.02
0.46568	35.01
0.48235	35.01
0.49902	35.02
0.51568	35.02
0.53235	35.02
0.54902	35.03
0.56568	35.02
0.58235	35.02
0.59902	35.01
0.61568	34.99
0.63235	35.00
0.64902	35.00
0.66568	35.01
0.68235	35.01
0.69902	35.01
0.71568	35.01
0.73235	35.00
0.74902	35.01
0.76568	35.01
0.78235	35.01
0.79902	35.02
0.81568	35.02
0.83235	35.01
0.84902	35.00
0.86568	34.99
0.88235	34.97
0.89902	34.97
0.91568	34.97
0.93235	34.95
0.94902	34.95
0.96568	34.97
0.98235	34.99
0.99902	34.99
1.01568	34.99
1.03235	35.00
1.04902	34.98
1.06568	34.97
1.08235	34.96
1.09902	34.96
1.11568	34.95
1.13235	34.96
1.14902	34.97
1.16568	34.98
1.18235	34.98
1.19902	34.98
1.21568	34.99
1.23235	35.00
1.24902	35.01
1.26568	35.01
1.28235	35.00
1.29902	35.00
1.31568	35.00
1.33235	35.00
1.34902	35.00
1.36568	34.99
1.38235	34.99
1.39902	34.99
1.41568	35.00
1.43235	35.00
1.44902	35.00
1.46568	34.99
1.48235	34.99
1.49902	34.99
1.51568	34.99
1.53235	34.99
1.54902	35.00
1.56568	35.00
1.58235	35.00
1.59902	35.03
1.61568	35.12
1.63235	35.27
1.64902	35.48
1.66568	35.76
1.68235	36.12
1.69902	36.49
1.71568	36.84
1.73235	37.18
1.74902	37.49
1.76568	37.82
1.78235	38.16
1.79902	38.50
1.81568	38.82
1.83235	39.15
1.84902	39.48
1.86568	39.80
1.88235	40.13
1.89902	40.46
1.91568	40.79
1.93235	41.12
1.94902	41.45
1.96568	41.77
1.98235	42.09
1.99902	42.42
2.01568	42.74
2.03235	43.06
2.04902	43.40
2.06568	43.72
2.08235	44.04
2.09902	44.36
2.11568	44.70
2.13235	45.01
2.14902	45.32
2.16568	45.66
2.18235	45.98
2.19902	46.32
2.21568	46.64
2.23235	46.99
2.24902	47.32
2.26568	47.65
2.28235	47.97
2.29902	48.35
2.31568	48.68
2.33235	49.01
2.34902	49.31
2.36568	49.53
2.38235	49.63
2.39902	49.64
2.41568	49.65
2.43235	49.66
2.44902	49.68
2.46568	49.69
2.48235	49.70
2.49902	49.70
2.51568	49.72
2.53235	49.74
2.54902	49.75
2.56568	49.78
2.58235	49.79
2.59902	49.81
2.61568	49.81
2.63235	49.82
2.64902	49.83
2.66568	49.84
2.68235	49.85
2.69902	49.84
2.71568	49.85
2.73235	49.85
2.74902	49.85
2.76568	49.86
2.78235	49.87
2.79902	49.87
2.81568	49.86
2.83235	49.86
2.84902	49.86
2.86568	49.87
2.88235	49.87
2.89902	49.87
2.91568	49.90
2.93235	49.92
2.94902	49.93
2.96568	49.94
2.98235	49.95
2.99902	49.97
3.01568	49.98
3.03235	49.98
3.04902	49.99
3.06568	50.00
3.08235	50.00
3.09902	50.01
3.11568	50.02
3.13235	50.03
3.14902	50.04
3.16568	50.05
3.18235	50.05
3.19902	50.06
3.21568	50.07
3.23235	50.08
3.24902	50.09
3.26568	50.09
3.28235	50.10
3.29902	50.10
3.31568	50.11
3.33235	50.11
3.34902	50.11
3.36568	50.09
3.38235	50.08
3.39902	50.08
3.41568	50.07
3.43235	50.06
3.44902	50.05
3.46568	50.04
3.48235	50.04
3.49902	50.04
3.51568	50.03
3.53235	50.03
3.54902	50.02
3.56568	50.02
3.58235	50.01
3.59902	50.00
3.61568	50.01
3.63235	50.02
3.64902	50.02
3.66568	50.03
3.68235	50.04
3.69902	50.05
3.71568	50.06
3.73235	50.06
3.74902	50.06
3.76568	50.06
3.78235	50.05
3.79902	50.05
3.81568	50.05
3.83235	50.04
3.84902	50.04
3.86568	50.05
3.88235	50.05
3.89902	50.05
3.91568	50.04
3.93235	50.05
3.94902	50.06
3.96568	50.05
3.98235	50.05

[Status Trace (Injection Unit Temperature)]
Interval(msec)	1000
# of Points	239
Start Time(min)	0.016
End Time(min)	3.982
Intensity Units	
Intensity Multiplier	1
R.Time (min)	Intensity
0.01568	99.98
0.03235	99.98
0.04902	99.98
0.06568	99.98
0.08235	99.98
0.09902	99.98
0.11568	99.98
0.13235	99.98
0.14902	99.98
0.16568	99.98
0.18235	99.98
0.19902	99.98
0.21568	99.98
0.23235	99.98
0.24902	99.98
0.26568	99.99
0.28235	99.99
0.29902	99.98
0.31568	99.99
0.33235	99.99
0.34902	99.99
0.36568	99.98
0.38235	99.98
0.39902	99.98
0.41568	99.98
0.43235	99.98
0.44902	99.98
0.46568	99.98
0.48235	99.98
0.49902	99.98
0.51568	99.98
0.53235	99.98
0.54902	99.98
0.56568	99.98
0.58235	99.98
0.59902	99.98
0.61568	99.98
0.63235	99.98
0.64902	99.98
0.66568	99.98
0.68235	99.98
0.69902	99.98
0.71568	99.98
0.73235	99.98
0.74902	99.98
0.76568	99.98
0.78235	99.98
0.79902	99.98
0.81568	99.98
0.83235	99.99
0.84902	99.98
0.86568	99.98
0.88235	99.99
0.89902	99.98
0.91568	99.98
0.93235	99.99
0.94902	99.99
0.96568	99.98
0.98235	99.99
0.99902	99.99
1.01568	99.99
1.03235	99.98
1.04902	99.99
1.06568	99.98
1.08235	99.99
1.09902	99.98
1.11568	99.99
1.13235	99.99
1.14902	99.98
1.16568	99.98
1.18235	99.98
1.19902	99.98
1.21568	99.99
1.23235	99.98
1.24902	99.98
1.26568	99.99
1.28235	99.98
1.29902	99.99
1.31568	99.98
1.33235	99.98
1.34902	99.98
1.36568	99.98
1.38235	99.98
1.39902	99.98
1.41568	99.98
1.43235	99.98
1.44902	99.98
1.46568	99.98
1.48235	99.99
1.49902	99.99
1.51568	99.99
1.53235	99.98
1.54902	99.98
1.56568	99.98
1.58235	99.98
1.59902	99.99
1.61568	99.99
1.63235	99.98
1.64902	99.99
1.66568	99.98
1.68235	99.99
1.69902	99.98
1.71568	99.98
1.73235	99.99
1.74902	99.99
1.76568	99.99
1.78235	99.99
1.79902	99.98
1.81568	99.98
1.83235	99.99
1.84902	99.98
1.86568	99.99
1.88235	99.98
1.89902	99.98
1.91568	99.98
1.93235	99.98
1.94902	99.98
1.96568	99.98
1.98235	99.98
1.99902	99.98
2.01568	99.98
2.03235	99.98
2.04902	99.98
2.06568	99.97
2.08235	99.98
2.09902	99.98
2.11568	99.97
2.13235	99.97
2.14902	99.97
2.16568	99.97
2.18235	99.97
2.19902	99.97
2.21568	99.97
2.23235	99.97
2.24902	99.97
2.26568	99.97
2.28235	99.97
2.29902	99.97
2.31568	99.96
2.33235	99.96
2.34902	99.96
2.36568	99.96
2.38235	99.96
2.39902	99.96
2.41568	99.96
2.43235	99.96
2.44902	99.96
2.46568	99.96
2.48235	99.96
2.49902	99.96
2.51568	99.96
2.53235	99.96
2.54902	99.96
2.56568	99.96
2.58235	99.97
2.59902	99.97
2.61568	99.97
2.63235	99.97
2.64902	99.97
2.66568	99.97
2.68235	99.98
2.69902	99.98
2.71568	99.98
2.73235	99.98
2.74902	99.98
2.76568	99.98
2.78235	99.99
2.79902	99.99
2.81568	99.99
2.83235	99.99
2.84902	99.99
2.86568	100.00
2.88235	100.00
2.89902	100.00
2.91568	100.00
2.93235	100.00
2.94902	100.01
2.96568	100.01
2.98235	100.01
2.99902	100.01
3.01568	100.01
3.03235	100.02
3.04902	100.02
3.06568	100.02
3.08235	100.01
3.09902	100.02
3.11568	100.02
3.13235	100.02
3.14902	100.02
3.16568	100.02
3.18235	100.02
3.19902	100.02
3.21568	100.02
3.23235	100.03
3.24902	100.03
3.26568	100.03
3.28235	100.03
3.29902	100.03
3.31568	100.03
3.33235	100.03
3.34902	100.04
3.36568	100.04
3.38235	100.04
3.39902	100.04
3.41568	100.04
3.43235	100.04
3.44902	100.04
3.46568	100.04
3.48235	100.04
3.49902	100.05
3.51568	100.04
3.53235	100.04
3.54902	100.05
3.56568	100.05
3.58235	100.05
3.59902	100.04
3.61568	100.04
3.63235	100.05
3.64902	100.05
3.66568	100.05
3.68235	100.05
3.69902	100.05
3.71568	100.05
3.73235	100.05
3.74902	100.05
3.76568	100.05
3.78235	100.05
3.79902	100.05
3.81568	100.06
3.83235	100.05
3.84902	100.05
3.86568	100.05
3.88235	100.05
3.89902	100.05
3.91568	100.05
3.93235	100.05
3.94902	100.05
3.96568	100.05
3.98235	100.06

[Status Trace (Carrier Gas Pressure)]
Interval(msec)	1000
# of Points	239
Start Time(min)	0.016
End Time(min)	3.982
Intensity Units	
Intensity Multiplier	1
R.Time (min)	Intensity
0.01568	56.93
0.03235	55.72
0.04902	58.14
0.06568	59.89
0.08235	58.57
0.09902	57.97
0.11568	58.00
0.13235	58.01
0.14902	58.01
0.16568	58.00
0.18235	58.00
0.19902	58.00
0.21568	58.00
0.23235	58.00
0.24902	58.00
0.26568	58.00
0.28235	58.00
0.29902	58.00
0.31568	58.00
0.33235	58.00
0.34902	58.00
0.36568	58.00
0.38235	58.00
0.39902	58.00
0.41568	58.00
0.43235	58.00
0.44902	58.00
0.46568	58.00
0.48235	58.00
0.49902	58.00
0.51568	58.00
0.53235	58.00
0.54902	58.00
0.56568	58.00
0.58235	58.00
0.59902	58.00
0.61568	58.00
0.63235	58.00
0.64902	58.00
0.66568	58.00
0.68235	58.00
0.69902	58.00
0.71568	58.00
0.73235	58.00
0.74902	58.00
0.76568	58.00
0.78235	58.00
0.79902	58.00
0.81568	58.00
0.83235	58.00
0.84902	58.00
0.86568	58.00
0.88235	58.00
0.89902	58.00
0.91568	58.00
0.93235	58.00
0.94902	58.00
0.96568	58.00
0.98235	58.00
0.99902	58.00
1.01568	58.00
1.03235	58.00
1.04902	58.00
1.06568	58.00
1.08235	58.00
1.09902	58.00
1.11568	58.00
1.13235	58.00
1.14902	58.00
1.16568	58.00
1.18235	58.00
1.19902	58.00
1.21568	58.00
1.23235	58.00
1.24902	58.00
1.26568	58.00
1.28235	58.00
1.29902	58.00
1.31568	58.00
1.33235	58.00
1.34902	58.00
1.36568	58.00
1.38235	58.00
1.39902	58.00
1.41568	58.00
1.43235	58.00
1.44902	58.00
1.46568	58.00
1.48235	58.00
1.49902	58.00
1.51568	58.00
1.53235	58.00
1.54902	58.00
1.56568	58.00
1.58235	58.00
1.59902	58.00
1.61568	58.00
1.63235	58.00
1.64902	58.00
1.66568	58.00
1.68235	58.01
1.69902	58.00
1.71568	58.00
1.73235	58.00
1.74902	58.00
1.76568	58.00
1.78235	58.00
1.79902	58.00
1.81568	58.00
1.83235	58.00
1.84902	58.00
1.86568	58.00
1.88235	58.00
1.89902	58.00
1.91568	58.00
1.93235	58.00
1.94902	58.00
1.96568	58.00
1.98235	58.00
1.99902	58.00
2.01568	58.00
2.03235	58.00
2.04902	58.00
2.06568	58.00
2.08235	58.00
2.09902	58.00
2.11568	58.00
2.13235	58.00
2.14902	58.00
2.16568	58.00
2.18235	58.00
2.19902	58.00
2.21568	58.00
2.23235	58.00
2.24902	58.00
2.26568	58.00
2.28235	58.00
2.29902	58.00
2.31568	58.00
2.33235	58.00
2.34902	58.00
2.36568	58.00
2.38235	57.99
2.39902	57.99
2.41568	58.00
2.43235	58.00
2.44902	58.00
2.46568	58.00
2.48235	58.00
2.49902	58.00
2.51568	57.99
2.53235	57.99
2.54902	58.00
2.56568	58.00
2.58235	58.00
2.59902	58.00
2.61568	58.00
2.63235	58.00
2.64902	58.00
2.66568	58.00
2.68235	58.00
2.69902	58.00
2.71568	58.00
2.73235	58.00
2.74902	58.00
2.76568	58.00
2.78235	58.00
2.79902	58.00
2.81568	58.00
2.83235	58.00
2.84902	58.00
2.86568	58.00
2.88235	58.00
2.89902	58.00
2.91568	58.00
2.93235	58.00
2.94902	58.00
2.96568	58.00
2.98235	58.00
2.99902	58.00
3.01568	58.00
3.03235	58.00
3.04902	58.00
3.06568	58.00
3.08235	58.00
3.09902	58.00
3.11568	58.00
3.13235	58.00
3.14902	58.00
3.16568	58.00
3.18235	58.00
3.19902	58.00
3.21568	58.00
3.23235	58.00
3.24902	58.00
3.26568	58.00
3.28235	58.00
3.29902	58.00
3.31568	58.00
3.33235	58.00
3.34902	58.00
3.36568	58.00
3.38235	58.00
3.39902	58.00
3.41568	58.00
3.43235	58.00
3.44902	58.00
3.46568	58.00
3.48235	58.00
3.49902	58.00
3.51568	58.00
3.53235	58.00
3.54902	58.00
3.56568	58.00
3.58235	58.00
3.59902	58.00
3.61568	58.00
3.63235	58.00
3.64902	58.00
3.66568	58.00
3.68235	58.00
3.69902	58.00
3.71568	58.00
3.73235	58.00
3.74902	58.00
3.76568	58.00
3.78235	58.00
3.79902	58.00
3.81568	58.00
3.83235	58.00
3.84902	58.00
3.86568	58.00
3.88235	58.00
3.89902	58.00
3.91568	58.00
3.93235	58.00
3.94902	58.00
3.96568	58.00
3.98235	58.00

[Status Trace (Carrier Gas Flow)]
Interval(msec)	1000
# of Points	239
Start Time(min)	0.016
End Time(min)	3.982
Intensity Units	
Intensity Multiplier	1
R.Time (min)	Intensity
0.01568	33.87
0.03235	34.54
0.04902	34.54
0.06568	34.50
0.08235	34.51
0.09902	34.52
0.11568	34.52
0.13235	34.52
0.14902	34.52
0.16568	34.52
0.18235	34.52
0.19902	34.52
0.21568	34.52
0.23235	34.52
0.24902	34.52
0.26568	34.52
0.28235	34.52
0.29902	34.52
0.31568	34.52
0.33235	34.52
0.34902	34.52
0.36568	34.52
0.38235	34.52
0.39902	34.52
0.41568	34.52
0.43235	34.53
0.44902	34.52
0.46568	34.52
0.48235	34.52
0.49902	34.52
0.51568	34.52
0.53235	34.52
0.54902	34.52
0.56568	34.52
0.58235	34.52
0.59902	34.52
0.61568	34.52
0.63235	34.52
0.64902	34.52
0.66568	34.52
0.68235	34.52
0.69902	34.52
0.71568	34.52
0.73235	34.52
0.74902	34.52
0.76568	34.52
0.78235	34.52
0.79902	34.52
0.81568	34.51
0.83235	34.51
0.84902	34.52
0.86568	34.52
0.88235	34.52
0.89902	34.52
0.91568	34.52
0.93235	34.52
0.94902	34.52
0.96568	34.52
0.98235	34.52
0.99902	34.52
1.01568	34.52
1.03235	34.52
1.04902	34.52
1.06568	34.52
1.08235	34.52
1.09902	34.52
1.11568	34.52
1.13235	34.52
1.14902	34.52
1.16568	34.52
1.18235	34.52
1.19902	34.52
1.21568	34.52
1.23235	34.51
1.24902	34.51
1.26568	34.52
1.28235	34.52
1.29902	34.52
1.31568	34.52
1.33235	34.52
1.34902	34.52
1.36568	34.52
1.38235	34.52
1.39902	34.52
1.41568	34.52
1.43235	34.52
1.44902	34.52
1.46568	34.51
1.48235	34.52
1.49902	34.52
1.51568	34.52
1.53235	34.52
1.54902	34.52
1.56568	34.52
1.58235	34.52
1.59902	34.52
1.61568	34.52
1.63235	34.52
1.64902	34.52
1.66568	34.52
1.68235	34.52
1.69902	34.52
1.71568	34.52
1.73235	34.52
1.74902	34.51
1.76568	34.52
1.78235	34.52
1.79902	34.52
1.81568	34.52
1.83235	34.52
1.84902	34.52
1.86568	34.52
1.88235	34.51
1.89902	34.52
1.91568	34.52
1.93235	34.52
1.94902	34.52
1.96568	34.52
1.98235	34.52
1.99902	34.52
2.01568	34.52
2.03235	34.52
2.04902	34.52
2.06568	34.52
2.08235	34.52
2.09902	34.52
2.11568	34.52
2.13235	34.51
2.14902	34.52
2.16568	34.52
2.18235	34.52
2.19902	34.52
2.21568	34.52
2.23235	34.52
2.24902	34.52
2.26568	34.52
2.28235	34.52
2.29902	34.52
2.31568	34.52
2.33235	34.52
2.34902	34.52
2.36568	34.52
2.38235	34.52
2.39902	34.52
2.41568	34.52
2.43235	34.52
2.44902	34.52
2.46568	34.52
2.48235	34.52
2.49902	34.52
2.51568	34.52
2.53235	34.52
2.54902	34.51
2.56568	34.52
2.58235	34.52
2.59902	34.52
2.61568	34.51
2.63235	34.52
2.64902	34.52
2.66568	34.52
2.68235	34.52
2.69902	34.52
2.71568	34.52
2.73235	34.52
2.74902	34.51
2.76568	34.52
2.78235	34.52
2.79902	34.52
2.81568	34.52
2.83235	34.52
2.84902	34.52
2.86568	34.52
2.88235	34.51
2.89902	34.51
2.91568	34.52
2.93235	34.52
2.94902	34.52
2.96568	34.52
2.98235	34.52
2.99902	34.52
3.01568	34.52
3.03235	34.52
3.04902	34.52
3.06568	34.52
3.08235	34.52
3.09902	34.52
3.11568	34.52
3.13235	34.52
3.14902	34.52
3.16568	34.52
3.18235	34.52
3.19902	34.52
3.21568	34.52
3.23235	34.52
3.24902	34.52
3.26568	34.53
3.28235	34.52
3.29902	34.51
3.31568	34.52
3.33235	34.52
3.34902	34.52
3.36568	34.52
3.38235	34.52
3.39902	34.52
3.41568	34.53
3.43235	34.52
3.44902	34.51
3.46568	34.52
3.48235	34.53
3.49902	34.52
3.51568	34.52
3.53235	34.52
3.54902	34.52
3.56568	34.52
3.58235	34.52
3.59902	34.52
3.61568	34.52
3.63235	34.52
3.64902	34.52
3.66568	34.52
3.68235	34.52
3.69902	34.52
3.71568	34.52
3.73235	34.51
3.74902	34.52
3.76568	34.52
3.78235	34.52
3.79902	34.52
3.81568	34.52
3.83235	34.52
3.84902	34.52
3.86568	34.52
3.88235	34.52
3.89902	34.52
3.91568	34.52
3.93235	34.51
3.94902	34.52
3.96568	34.52
3.98235	34.52

[Status Trace (Column Flow)]
Interval(msec)	1000
# of Points	239
Start Time(min)	0.016
End Time(min)	3.982
Intensity Units	
Intensity Multiplier	1
R.Time (min)	Intensity
0.01568	5.44
0.03235	5.30
0.04902	5.58
0.06568	5.79
0.08235	5.63
0.09902	5.56
0.11568	5.56
0.13235	5.56
0.14902	5.56
0.16568	5.56
0.18235	5.56
0.19902	5.56
0.21568	5.56
0.23235	5.56
0.24902	5.56
0.26568	5.56
0.28235	5.56
0.29902	5.56
0.31568	5.56
0.33235	5.56
0.34902	5.56
0.36568	5.56
0.38235	5.56
0.39902	5.56
0.41568	5.56
0.43235	5.56
0.44902	5.56
0.46568	5.56
0.48235	5.56
0.49902	5.56
0.51568	5.56
0.53235	5.56
0.54902	5.56
0.56568	5.56
0.58235	5.56
0.59902	5.56
0.61568	5.56
0.63235	5.56
0.64902	5.56
0.66568	5.56
0.68235	5.56
0.69902	5.56
0.71568	5.56
0.73235	5.56
0.74902	5.56
0.76568	5.56
0.78235	5.56
0.79902	5.56
0.81568	5.56
0.83235	5.56
0.84902	5.56
0.86568	5.56
0.88235	5.57
0.89902	5.57
0.91568	5.57
0.93235	5.57
0.94902	5.57
0.96568	5.57
0.98235	5.57
0.99902	5.56
1.01568	5.56
1.03235	5.56
1.04902	5.56
1.06568	5.57
1.08235	5.57
1.09902	5.57
1.11568	5.57
1.13235	5.57
1.14902	5.57
1.16568	5.57
1.18235	5.57
1.19902	5.57
1.21568	5.57
1.23235	5.56
1.24902	5.56
1.26568	5.56
1.28235	5.56
1.29902	5.56
1.31568	5.56
1.33235	5.56
1.34902	5.56
1.36568	5.57
1.38235	5.57
1.39902	5.56
1.41568	5.56
1.43235	5.56
1.44902	5.56
1.46568	5.56
1.48235	5.57
1.49902	5.56
1.51568	5.56
1.53235	5.56
1.54902	5.56
1.56568	5.56
1.58235	5.56
1.59902	5.56
1.61568	5.56
1.63235	5.56
1.64902	5.55
1.66568	5.54
1.68235	5.53
1.69902	5.52
1.71568	5.51
1.73235	5.50
1.74902	5.49
1.76568	5.48
1.78235	5.47
1.79902	5.46
1.81568	5.45
1.83235	5.44
1.84902	5.42
1.86568	5.41
1.88235	5.41
1.89902	5.40
1.91568	5.39
1.93235	5.38
1.94902	5.37
1.96568	5.36
1.98235	5.35
1.99902	5.34
2.01568	5.33
2.03235	5.32
2.04902	5.31
2.06568	5.30
2.08235	5.29
2.09902	5.28
2.11568	5.27
2.13235	5.26
2.14902	5.25
2.16568	5.24
2.18235	5.23
2.19902	5.22
2.21568	5.21
2.23235	5.20
2.24902	5.19
2.26568	5.18
2.28235	5.18
2.29902	5.16
2.31568	5.15
2.33235	5.15
2.34902	5.14
2.36568	5.13
2.38235	5.13
2.39902	5.13
2.41568	5.13
2.43235	5.13
2.44902	5.13
2.46568	5.13
2.48235	5.13
2.49902	5.13
2.51568	5.12
2.53235	5.12
2.54902	5.13
2.56568	5.12
2.58235	5.12
2.59902	5.12
2.61568	5.12
2.63235	5.12
2.64902	5.12
2.66568	5.12
2.68235	5.12
2.69902	5.12
2.71568	5.12
2.73235	5.12
2.74902	5.12
2.76568	5.12
2.78235	5.12
2.79902	5.12
2.81568	5.12
2.83235	5.12
2.84902	5.12
2.86568	5.12
2.88235	5.12
2.89902	5.12
2.91568	5.12
2.93235	5.12
2.94902	5.12
2.96568	5.12
2.98235	5.12
2.99902	5.12
3.01568	5.12
3.03235	5.12
3.04902	5.12
3.06568	5.12
3.08235	5.12
3.09902	5.12
3.11568	5.12
3.13235	5.12
3.14902	5.12
3.16568	5.12
3.18235	5.12
3.19902	5.12
3.21568	5.12
3.23235	5.12
3.24902	5.12
3.26568	5.12
3.28235	5.12
3.29902	5.12
3.31568	5.12
3.33235	5.11
3.34902	5.12
3.36568	5.12
3.38235	5.12
3.39902	5.12
3.41568	5.12
3.43235	5.12
3.44902	5.12
3.46568	5.12
3.48235	5.12
3.49902	5.12
3.51568	5.12
3.53235	5.12
3.54902	5.12
3.56568	5.12
3.58235	5.12
3.59902	5.12
3.61568	5.12
3.63235	5.12
3.64902	5.12
3.66568	5.12
3.68235	5.12
3.69902	5.12
3.71568	5.12
3.73235	5.12
3.74902	5.12
3.76568	5.12
3.78235	5.12
3.79902	5.12
3.81568	5.12
3.83235	5.12
3.84902	5.12
3.86568	5.12
3.88235	5.12
3.89902	5.12
3.91568	5.12
3.93235	5.12
3.94902	5.12
3.96568	5.12
3.98235	5.12

[Status Trace (Linear Velocity)]
Interval(msec)	1000
# of Points	239
Start Time(min)	0.016
End Time(min)	3.982
Intensity Units	
Intensity Multiplier	1
R.Time (min)	Intensity
0.01568	38.32
0.03235	37.52
0.04902	39.11
0.06568	40.26
0.08235	39.39
0.09902	39.00
0.11568	39.02
0.13235	39.03
0.14902	39.02
0.16568	39.02
0.18235	39.02
0.19902	39.02
0.21568	39.02
0.23235	39.02
0.24902	39.02
0.26568	39.02
0.28235	39.02
0.29902	39.02
0.31568	39.02
0.33235	39.03
0.34902	39.02
0.36568	39.02
0.38235	39.03
0.39902	39.03
0.41568	39.02
0.43235	39.02
0.44902	39.02
0.46568	39.03
0.48235	39.03
0.49902	39.02
0.51568	39.02
0.53235	39.03
0.54902	39.02
0.56568	39.03
0.58235	39.03
0.59902	39.03
0.61568	39.03
0.63235	39.03
0.64902	39.03
0.66568	39.03
0.68235	39.03
0.69902	39.03
0.71568	39.03
0.73235	39.03
0.74902	39.03
0.76568	39.03
0.78235	39.03
0.79902	39.03
0.81568	39.02
0.83235	39.03
0.84902	39.03
0.86568	39.03
0.88235	39.03
0.89902	39.03
0.91568	39.03
0.93235	39.03
0.94902	39.03
0.96568	39.03
0.98235	39.03
0.99902	39.03
1.01568	39.03
1.03235	39.03
1.04902	39.03
1.06568	39.03
1.08235	39.03
1.09902	39.03
1.11568	39.03
1.13235	39.03
1.14902	39.03
1.16568	39.03
1.18235	39.03
1.19902	39.03
1.21568	39.03
1.23235	39.03
1.24902	39.03
1.26568	39.03
1.28235	39.03
1.29902	39.03
1.31568	39.03
1.33235	39.03
1.34902	39.03
1.36568	39.03
1.38235	39.03
1.39902	39.03
1.41568	39.03
1.43235	39.03
1.44902	39.03
1.46568	39.03
1.48235	39.03
1.49902	39.03
1.51568	39.03
1.53235	39.03
1.54902	39.03
1.56568	39.03
1.58235	39.03
1.59902	39.02
1.61568	39.02
1.63235	39.01
1.64902	38.98
1.66568	38.96
1.68235	38.93
1.69902	38.89
1.71568	38.85
1.73235	38.82
1.74902	38.79
1.76568	38.76
1.78235	38.73
1.79902	38.69
1.81568	38.66
1.83235	38.64
1.84902	38.60
1.86568	38.57
1.88235	38.54
1.89902	38.51
1.91568	38.48
1.93235	38.45
1.94902	38.42
1.96568	38.39
1.98235	38.36
1.99902	38.33
2.01568	38.30
2.03235	38.27
2.04902	38.24
2.06568	38.21
2.08235	38.18
2.09902	38.15
2.11568	38.12
2.13235	38.09
2.14902	38.06
2.16568	38.03
2.18235	38.00
2.19902	37.97
2.21568	37.94
2.23235	37.91
2.24902	37.88
2.26568	37.85
2.28235	37.83
2.29902	37.79
2.31568	37.76
2.33235	37.73
2.34902	37.70
2.36568	37.68
2.38235	37.67
2.39902	37.67
2.41568	37.67
2.43235	37.67
2.44902	37.67
2.46568	37.67
2.48235	37.67
2.49902	37.67
2.51568	37.66
2.53235	37.66
2.54902	37.67
2.56568	37.66
2.58235	37.66
2.59902	37.66
2.61568	37.66
2.63235	37.66
2.64902	37.66
2.66568	37.66
2.68235	37.66
2.69902	37.66
2.71568	37.66
2.73235	37.66
2.74902	37.66
2.76568	37.66
2.78235	37.65
2.79902	37.65
2.81568	37.65
2.83235	37.65
2.84902	37.65
2.86568	37.65
2.88235	37.65
2.89902	37.65
2.91568	37.65
2.93235	37.65
2.94902	37.65
2.96568	37.65
2.98235	37.65
2.99902	37.64
3.01568	37.64
3.03235	37.64
3.04902	37.64
3.06568	37.64
3.08235	37.64
3.09902	37.64
3.11568	37.64
3.13235	37.64
3.14902	37.64
3.16568	37.64
3.18235	37.64
3.19902	37.64
3.21568	37.64
3.23235	37.64
3.24902	37.63
3.26568	37.63
3.28235	37.63
3.29902	37.63
3.31568	37.63
3.33235	37.63
3.34902	37.63
3.36568	37.63
3.38235	37.63
3.39902	37.64
3.41568	37.64
3.43235	37.64
3.44902	37.64
3.46568	37.64
3.48235	37.64
3.49902	37.64
3.51568	37.64
3.53235	37.64
3.54902	37.64
3.56568	37.64
3.58235	37.64
3.59902	37.64
3.61568	37.64
3.63235	37.64
3.64902	37.64
3.66568	37.64
3.68235	37.64
3.69902	37.64
3.71568	37.64
3.73235	37.64
3.74902	37.64
3.76568	37.64
3.78235	37.64
3.79902	37.64
3.81568	37.64
3.83235	37.64
3.84902	37.64
3.86568	37.64
3.88235	37.64
3.89902	37.64
3.91568	37.64
3.93235	37.64
3.94902	37.64
3.96568	37.64
3.98235	37.64

