[Header]
Application Name	LabSolutions
Version	5.110
Data File Name	C:\Users\User\Desktop\GC Analyses\Jack\Nachusa Grasslands Sampling\T1 Timepoint July 12th\T1_07122022_021.gcd
Output Date	3/14/2023
Output Time	3:40:58 PM

[File Information]
Type	Data File
Generated	3/8/2023 3:29:18 PM
Generated by	System Administrator
Modified	3/8/2023 3:35:49 PM
Modified by	System Administrator

[Sample Information]
Operator Name	System Administrator
Acquired	3/8/2023 3:31:47 PM
Sample Type	0:Unknown
Level	0
Sample Name	021
Sample ID	021
ISTD Amount1	1
ISTD Amount2	1
ISTD Amount3	1
ISTD Amount4	1
ISTD Amount5	1
ISTD Amount6	1
ISTD Amount7	1
ISTD Amount8	1
ISTD Amount9	1
ISTD Amount10	1
ISTD Amount11	1
ISTD Amount12	1
ISTD Amount13	1
ISTD Amount14	1
ISTD Amount15	1
ISTD Amount16	1
ISTD Amount17	1
ISTD Amount18	1
ISTD Amount19	1
ISTD Amount20	1
ISTD Amount21	1
ISTD Amount22	1
ISTD Amount23	1
ISTD Amount24	1
ISTD Amount25	1
ISTD Amount26	1
ISTD Amount27	1
ISTD Amount28	1
ISTD Amount29	1
ISTD Amount30	1
ISTD Amount31	1
ISTD Amount32	1
Sample Amount	1
Dilution Factor	1
Vial#	20
Injection Volume	1
Injection Count	1
Bar Code	

[Original Files]
Data File	C:\Users\User\Desktop\GC Analyses\Jack\Nachusa Grasslands Sampling\T1 Timepoint July 12th\T1_07122022_021.gcd
Method File	C:\LabSolutions\Data\GHG_4min_2022\ghg3_togas_w_acet_4 min_new_int.gcm
Batch File	C:\LabSolutions\Data\AutoSamplerTesting\T1_07122022.gcb
Report Format File	c:\LabSolutions\System\DEFAULT.lsr

[File Description]


[Configuration]
Instrument Name	C0B7VH3-Instrument1
Instrument #	1
Line #	1
# of Detectors	3
Detector ID	DET#1	DET#2	DET#3
Detector Name	FID	PTCD	ECD
# of Channels	1	1	1

[Peak Table(Ch1)]
# of Peaks	4
Peak#	R.Time	I.Time	F.Time	Area	Height	A/H	Conc.	Mark	ID#	Name	k'	Plate #	Plate Ht.	Tailing	Resolution	Sep.Factor	Area Ratio	Height Ratio	Conc. %	Norm Conc.
1	1.476	1.439	1.538	31783	15000	2.119	224.391	   	1	CO	0.000	9128	16.434	1.339	0.000	0.000	0	0	28.688	28.688
2	1.567	1.538	1.615	4799	2336	2.054	92.800	 V 	2	CH4	0.062	10443	14.364	0.000	1.489	0.000	0	0	11.864	11.864
3	1.996	1.952	2.517	1852770	873731	2.121	464.995	   	3	CO2	0.353	17231	8.705	1.316	7.022	5.680	0	0	59.448	59.448
4	3.159	2.642	3.624	3414	111	30.876	0.000	   	5	Acetylene	1.141	7754	19.345	0.965	11.378	3.232	0	0	0.000	0.000

[Peak Table(Ch2)]
# of Peaks	0

[Peak Table(Ch3)]
# of Peaks	7
Peak#	R.Time	I.Time	F.Time	Area	Height	A/H	Conc.	Mark	ID#	Name	k'	Plate #	Plate Ht.	Tailing	Resolution	Sep.Factor	Area Ratio	Height Ratio	Conc. %	Norm Conc.
1	2.458	2.117	2.513	2933	421	6.960	0.000	   			0.000	13628	11.007	0.000	0.000	0.000	0	0	0.000	0.000
2	2.543	2.513	2.587	659	191	3.457	0.000	 V 			0.034	4565	32.859	0.000	0.718	0.000	0	0	0.000	0.000
3	2.594	2.587	2.631	209	131	1.601	0.000	 V 			0.055	5437	27.588	0.000	0.353	1.609	0	0	0.000	0.000
4	2.711	2.642	2.715	360	117	3.081	0.000	   			0.103	519	288.766	0.000	0.381	1.865	0	0	0.000	0.000
5	2.873	2.715	3.313	23077	5032	4.586	0.589	SV 	1	N2O	0.169	12732	11.781	1.879	0.559	1.638	0	0	100.000	100.000
6	3.294	3.199	3.313	405	106	3.825	0.000	T  	2	SF6	0.340	13691	10.956	0.596	3.933	2.018	0	0	0.000	0.000
7	3.434	3.320	3.980	10501	488	21.537	0.000	   	2	SF6	0.397	549	273.195	2.893	0.399	1.167	0	0	0.000	0.000

[Compound Results(Ch1)]
# of IDs	6
ID#	Name	R.Time	Area	Height	Conc.	Curve	3rd	2nd	1st	Constant	Area Ratio	Height Ratio	Conc. %	Norm Conc.
1	CO	1.476	31783	15000	224.391	Linear	0.000000e+00	0.000000e+00	1.416423e+002	0.000000e+00	0	0	28.688	28.688
2	CH4	1.567	4799	2336	92.800	Linear	0.000000e+00	0.000000e+00	5.171738e+001	0.000000e+00	0	0	11.864	11.864
3	CO2	1.996	1852770	873731	464.995	Linear	0.000000e+00	0.000000e+00	3.984494e+003	0.000000e+00	0	0	59.448	59.448
4	Ethylene	0.000	0	0	0.000	Linear	0.000000e+00	0.000000e+00	0.000000e+00	0.000000e+00	0	0	0.000	0.000
5	Acetylene	3.159	3414	111	0.000	Linear	0.000000e+00	0.000000e+00	0.000000e+00	0.000000e+00	0	0	0.000	0.000
6	Ethane	0.000	0	0	0.000	Linear	0.000000e+00	0.000000e+00	0.000000e+00	0.000000e+00	0	0	0.000	0.000

[Compound Results(Ch2)]
# of IDs	5
ID#	Name	R.Time	Area	Height	Conc.	Curve	3rd	2nd	1st	Constant	Area Ratio	Height Ratio	Conc. %	Norm Conc.
1	Hydrogen	0.000	0	0	0.000	Linear	0.000000e+00	0.000000e+00	0.000000e+00	0.000000e+00	0	0	0.000	0.000
2	Oxygen	0.000	0	0	0.000	Linear	0.000000e+00	0.000000e+00	0.000000e+00	0.000000e+00	0	0	0.000	0.000
3	Nitrogen	0.000	0	0	0.000	Linear	0.000000e+00	0.000000e+00	0.000000e+00	0.000000e+00	0	0	0.000	0.000
4	Methane	0.000	0	0	0.000	Linear	0.000000e+00	0.000000e+00	0.000000e+00	0.000000e+00	0	0	0.000	0.000
5	Carbon Monoxide	0.000	0	0	0.000	Linear	0.000000e+00	0.000000e+00	0.000000e+00	0.000000e+00	0	0	0.000	0.000

[Compound Results(Ch3)]
# of IDs	2
ID#	Name	R.Time	Area	Height	Conc.	Curve	3rd	2nd	1st	Constant	Area Ratio	Height Ratio	Conc. %	Norm Conc.
1	N2O	2.873	23077	5032	0.589	Linear	0.000000e+00	0.000000e+00	3.915173e+004	0.000000e+00	0	0	100.000	100.000
2	SF6	3.434	10906	593	0.000	Linear	0.000000e+00	0.000000e+00	0.000000e+00	0.000000e+00	0	0	0.000	0.000

[Group Results(Ch1)]
# of Groups	0

[Group Results(Ch2)]
# of Groups	0

[Group Results(Ch3)]
# of Groups	0

[Chromatogram (Ch1)]
Interval(msec)	220
# of Points	1091
Start Time(min)	0.002
End Time(min)	3.998
R.Time (min)	Intensity
0.00167	9
0.00533	1
0.00900	-6
0.01267	-9
0.01633	-8
0.02000	-6
0.02367	-2
0.02733	2
0.03100	6
0.03467	11
0.03833	14
0.04200	15
0.04567	13
0.04933	7
0.05300	1
0.05667	-2
0.06033	-2
0.06400	-1
0.06767	-4
0.07133	-5
0.07500	-4
0.07867	-0
0.08233	0
0.08600	0
0.08967	-1
0.09333	0
0.09700	5
0.10067	14
0.10433	23
0.10800	24
0.11167	20
0.11533	17
0.11900	15
0.12267	10
0.12633	1
0.13000	-11
0.13367	-21
0.13733	-28
0.14100	-31
0.14467	-33
0.14833	-30
0.15200	-20
0.15567	-7
0.15933	7
0.16300	18
0.16667	26
0.17033	33
0.17400	39
0.17767	41
0.18133	32
0.18500	17
0.18867	1
0.19233	-12
0.19600	-21
0.19967	-26
0.20333	-20
0.20700	-9
0.21067	3
0.21433	7
0.21800	-1
0.22167	-15
0.22533	-24
0.22900	-27
0.23267	-28
0.23633	-27
0.24000	-32
0.24367	-39
0.24733	-45
0.25100	-46
0.25467	-43
0.25833	-41
0.26200	-33
0.26567	-20
0.26933	-9
0.27300	-4
0.27667	-1
0.28033	3
0.28400	8
0.28767	12
0.29133	16
0.29500	23
0.29867	30
0.30233	31
0.30600	28
0.30967	22
0.31333	12
0.31700	3
0.32067	3
0.32433	8
0.32800	9
0.33167	7
0.33533	6
0.33900	8
0.34267	10
0.34633	11
0.35000	12
0.35367	10
0.35733	6
0.36100	0
0.36467	-4
0.36833	-7
0.37200	-10
0.37567	-10
0.37933	-8
0.38300	-8
0.38667	-5
0.39033	0
0.39400	3
0.39767	3
0.40133	1
0.40500	-1
0.40867	-0
0.41233	4
0.41600	9
0.41967	14
0.42333	20
0.42700	27
0.43067	33
0.43433	37
0.43800	36
0.44167	32
0.44533	28
0.44900	26
0.45267	24
0.45633	19
0.46000	12
0.46367	7
0.46733	7
0.47100	11
0.47467	17
0.47833	26
0.48200	34
0.48567	36
0.48933	37
0.49300	36
0.49667	29
0.50033	24
0.50400	21
0.50767	18
0.51133	15
0.51500	14
0.51867	14
0.52233	16
0.52600	19
0.52967	20
0.53333	20
0.53700	17
0.54067	11
0.54433	6
0.54800	5
0.55167	8
0.55533	10
0.55900	9
0.56267	6
0.56633	2
0.57000	-2
0.57367	-5
0.57733	-8
0.58100	-10
0.58467	-12
0.58833	-12
0.59200	-13
0.59567	-20
0.59933	-26
0.60300	-25
0.60667	-21
0.61033	-18
0.61400	-14
0.61767	-10
0.62133	-8
0.62500	-7
0.62867	-8
0.63233	-8
0.63600	-8
0.63967	-13
0.64333	-18
0.64700	-20
0.65067	-23
0.65433	-23
0.65800	-20
0.66167	-18
0.66533	-18
0.66900	-19
0.67267	-22
0.67633	-26
0.68000	-30
0.68367	-30
0.68733	-29
0.69100	-27
0.69467	-24
0.69833	-18
0.70200	-10
0.70567	-8
0.70933	-13
0.71300	-22
0.71667	-30
0.72033	-36
0.72400	-38
0.72767	-32
0.73133	-22
0.73500	-14
0.73867	-9
0.74233	-4
0.74600	-1
0.74967	-1
0.75333	-5
0.75700	-14
0.76067	-26
0.76433	-39
0.76800	-50
0.77167	-53
0.77533	-51
0.77900	-48
0.78267	-42
0.78633	-35
0.79000	-28
0.79367	-20
0.79733	-16
0.80100	-13
0.80467	-13
0.80833	-12
0.81200	-9
0.81567	-8
0.81933	-8
0.82300	-10
0.82667	-13
0.83033	-18
0.83400	-22
0.83767	-23
0.84133	-28
0.84500	-28
0.84867	-27
0.85233	-27
0.85600	-30
0.85967	-33
0.86333	-32
0.86700	-28
0.87067	-21
0.87433	-19
0.87800	-24
0.88167	-30
0.88533	-38
0.88900	-41
0.89267	-38
0.89633	-31
0.90000	-18
0.90367	-6
0.90733	4
0.91100	6
0.91467	-0
0.91833	-10
0.92200	-18
0.92567	-26
0.92933	-33
0.93300	-35
0.93667	-35
0.94033	-33
0.94400	-29
0.94767	-25
0.95133	-23
0.95500	-25
0.95867	-33
0.96233	-42
0.96600	-48
0.96967	-49
0.97333	-44
0.97700	-38
0.98067	-32
0.98433	-27
0.98800	-24
0.99167	-30
0.99533	-38
0.99900	-42
1.00267	-44
1.00633	-42
1.01000	-38
1.01367	-33
1.01733	-28
1.02100	-23
1.02467	-24
1.02833	-30
1.03200	-35
1.03567	-33
1.03933	-34
1.04300	-39
1.04667	-42
1.05033	-40
1.05400	-37
1.05767	-35
1.06133	-35
1.06500	-30
1.06867	-27
1.07233	-30
1.07600	-34
1.07967	-37
1.08333	-39
1.08700	-41
1.09067	-40
1.09433	-39
1.09800	-43
1.10167	-44
1.10533	-43
1.10900	-41
1.11267	-39
1.11633	-35
1.12000	-29
1.12367	-26
1.12733	-25
1.13100	-28
1.13467	-32
1.13833	-37
1.14200	-42
1.14567	-42
1.14933	-40
1.15300	-35
1.15667	-24
1.16033	-16
1.16400	-14
1.16767	-19
1.17133	-25
1.17500	-33
1.17867	-38
1.18233	-35
1.18600	-26
1.18967	-20
1.19333	-25
1.19700	-34
1.20067	-39
1.20433	-46
1.20800	-54
1.21167	-57
1.21533	-54
1.21900	-51
1.22267	-45
1.22633	-41
1.23000	-39
1.23367	-36
1.23733	-31
1.24100	-28
1.24467	-27
1.24833	-27
1.25200	-31
1.25567	-35
1.25933	-40
1.26300	-44
1.26667	-44
1.27033	-44
1.27400	-46
1.27767	-45
1.28133	-43
1.28500	-37
1.28867	-28
1.29233	-19
1.29600	-13
1.29967	-10
1.30333	-13
1.30700	-23
1.31067	-33
1.31433	-43
1.31800	-52
1.32167	-57
1.32533	-61
1.32900	-64
1.33267	-66
1.33633	-69
1.34000	-69
1.34367	-62
1.34733	-52
1.35100	-42
1.35467	-35
1.35833	-36
1.36200	-41
1.36567	-47
1.36933	-54
1.37300	-57
1.37667	-55
1.38033	-52
1.38400	-49
1.38767	-46
1.39133	-42
1.39500	-34
1.39867	-28
1.40233	-29
1.40600	-34
1.40967	-40
1.41333	-43
1.41700	-40
1.42067	-40
1.42433	-44
1.42800	-50
1.43167	-55
1.43533	-56
1.43900	-42
1.44267	36
1.44633	264
1.45000	848
1.45367	2236
1.45733	4598
1.46100	7491
1.46467	10290
1.46833	12582
1.47200	14189
1.47567	14977
1.47933	14815
1.48300	13679
1.48667	11783
1.49033	9526
1.49400	7320
1.49767	5430
1.50133	3945
1.50500	2834
1.50867	2028
1.51233	1455
1.51600	1055
1.51967	775
1.52333	589
1.52700	468
1.53067	387
1.53433	328
1.53800	294
1.54167	321
1.54533	463
1.54900	763
1.55267	1175
1.55633	1598
1.56000	1958
1.56367	2218
1.56733	2363
1.57100	2359
1.57467	2185
1.57833	1871
1.58200	1491
1.58567	1122
1.58933	810
1.59300	574
1.59667	400
1.60033	270
1.60400	176
1.60767	112
1.61133	74
1.61500	52
1.61867	41
1.62233	39
1.62600	45
1.62967	53
1.63333	59
1.63700	65
1.64067	68
1.64433	68
1.64800	61
1.65167	49
1.65533	41
1.65900	38
1.66267	38
1.66633	40
1.67000	40
1.67367	37
1.67733	35
1.68100	32
1.68467	29
1.68833	32
1.69200	36
1.69567	39
1.69933	39
1.70300	39
1.70667	41
1.71033	47
1.71400	52
1.71767	53
1.72133	49
1.72500	42
1.72867	41
1.73233	45
1.73600	49
1.73967	55
1.74333	58
1.74700	60
1.75067	62
1.75433	62
1.75800	59
1.76167	55
1.76533	54
1.76900	52
1.77267	49
1.77633	47
1.78000	46
1.78367	45
1.78733	46
1.79100	53
1.79467	60
1.79833	61
1.80200	58
1.80567	54
1.80933	53
1.81300	55
1.81667	56
1.82033	59
1.82400	63
1.82767	65
1.83133	70
1.83500	79
1.83867	86
1.84233	85
1.84600	74
1.84967	60
1.85333	48
1.85700	39
1.86067	33
1.86433	31
1.86800	33
1.87167	40
1.87533	49
1.87900	53
1.88267	52
1.88633	54
1.89000	57
1.89367	54
1.89733	48
1.90100	44
1.90467	48
1.90833	57
1.91200	66
1.91567	71
1.91933	71
1.92300	67
1.92667	63
1.93033	57
1.93400	54
1.93767	57
1.94133	62
1.94500	66
1.94867	66
1.95233	80
1.95600	209
1.95967	988
1.96333	4594
1.96700	17309
1.97067	51704
1.97433	123718
1.97800	241898
1.98167	396912
1.98533	563451
1.98900	712358
1.99267	820743
1.99633	873848
2.00000	865508
2.00367	799924
2.00733	692150
2.01100	563740
2.01467	435678
2.01833	322806
2.02200	231942
2.02567	163469
2.02933	114223
2.03300	79906
2.03667	56459
2.04033	40608
2.04400	29918
2.04767	22673
2.05133	17714
2.05500	14265
2.05867	11818
2.06233	10041
2.06600	8713
2.06967	7690
2.07333	6881
2.07700	6227
2.08067	5687
2.08433	5235
2.08800	4854
2.09167	4530
2.09533	4248
2.09900	4000
2.10267	3780
2.10633	3580
2.11000	3395
2.11367	3225
2.11733	3068
2.12100	2923
2.12467	2793
2.12833	2681
2.13200	2583
2.13567	2489
2.13933	2397
2.14300	2312
2.14667	2234
2.15033	2162
2.15400	2092
2.15767	2022
2.16133	1955
2.16500	1897
2.16867	1840
2.17233	1783
2.17600	1730
2.17967	1681
2.18333	1638
2.18700	1600
2.19067	1563
2.19433	1523
2.19800	1484
2.20167	1447
2.20533	1413
2.20900	1380
2.21267	1345
2.21633	1307
2.22000	1268
2.22367	1239
2.22733	1219
2.23100	1204
2.23467	1190
2.23833	1176
2.24200	1156
2.24567	1134
2.24933	1113
2.25300	1090
2.25667	1066
2.26033	1045
2.26400	1025
2.26767	1003
2.27133	984
2.27500	968
2.27867	952
2.28233	933
2.28600	915
2.28967	899
2.29333	885
2.29700	872
2.30067	861
2.30433	848
2.30800	838
2.31167	833
2.31533	832
2.31900	829
2.32267	822
2.32633	815
2.33000	809
2.33367	801
2.33733	789
2.34100	773
2.34467	757
2.34833	741
2.35200	727
2.35567	717
2.35933	713
2.36300	713
2.36667	709
2.37033	696
2.37400	677
2.37767	661
2.38133	650
2.38500	643
2.38867	643
2.39233	646
2.39600	649
2.39967	651
2.40333	647
2.40700	638
2.41067	629
2.41433	629
2.41800	632
2.42167	638
2.42533	644
2.42900	647
2.43267	643
2.43633	634
2.44000	622
2.44367	608
2.44733	597
2.45100	590
2.45467	587
2.45833	584
2.46200	584
2.46567	589
2.46933	590
2.47300	587
2.47667	577
2.48033	570
2.48400	570
2.48767	572
2.49133	574
2.49500	575
2.49867	576
2.50233	578
2.50600	578
2.50967	577
2.51333	572
2.51700	562
2.52067	555
2.52433	552
2.52800	554
2.53167	559
2.53533	564
2.53900	567
2.54267	566
2.54633	564
2.55000	566
2.55367	567
2.55733	568
2.56100	566
2.56467	561
2.56833	554
2.57200	544
2.57567	532
2.57933	518
2.58300	502
2.58667	494
2.59033	495
2.59400	497
2.59767	495
2.60133	494
2.60500	497
2.60867	501
2.61233	506
2.61600	507
2.61967	504
2.62333	498
2.62700	490
2.63067	487
2.63433	487
2.63800	492
2.64167	499
2.64533	506
2.64900	508
2.65267	505
2.65633	503
2.66000	504
2.66367	504
2.66733	504
2.67100	506
2.67467	510
2.67833	515
2.68200	522
2.68567	525
2.68933	521
2.69300	514
2.69667	507
2.70033	502
2.70400	504
2.70767	508
2.71133	512
2.71500	515
2.71867	518
2.72233	521
2.72600	524
2.72967	525
2.73333	522
2.73700	520
2.74067	521
2.74433	522
2.74800	520
2.75167	518
2.75533	519
2.75900	518
2.76267	514
2.76633	512
2.77000	515
2.77367	519
2.77733	522
2.78100	525
2.78467	524
2.78833	525
2.79200	529
2.79567	534
2.79933	535
2.80300	531
2.80667	529
2.81033	531
2.81400	530
2.81767	531
2.82133	532
2.82500	531
2.82867	529
2.83233	530
2.83600	535
2.83967	541
2.84333	543
2.84700	541
2.85067	538
2.85433	537
2.85800	534
2.86167	530
2.86533	527
2.86900	530
2.87267	532
2.87633	532
2.88000	531
2.88367	534
2.88733	538
2.89100	538
2.89467	536
2.89833	537
2.90200	538
2.90567	540
2.90933	546
2.91300	553
2.91667	558
2.92033	559
2.92400	563
2.92767	569
2.93133	571
2.93500	568
2.93867	560
2.94233	552
2.94600	549
2.94967	549
2.95333	549
2.95700	545
2.96067	539
2.96433	541
2.96800	550
2.97167	560
2.97533	567
2.97900	568
2.98267	566
2.98633	564
2.99000	563
2.99367	562
2.99733	563
3.00100	562
3.00467	557
3.00833	549
3.01200	545
3.01567	544
3.01933	542
3.02300	542
3.02667	542
3.03033	541
3.03400	540
3.03767	543
3.04133	552
3.04500	563
3.04867	572
3.05233	580
3.05600	582
3.05967	576
3.06333	565
3.06700	555
3.07067	544
3.07433	534
3.07800	526
3.08167	520
3.08533	518
3.08900	521
3.09267	527
3.09633	535
3.10000	544
3.10367	552
3.10733	558
3.11100	558
3.11467	557
3.11833	556
3.12200	554
3.12567	551
3.12933	550
3.13300	552
3.13667	555
3.14033	560
3.14400	563
3.14767	567
3.15133	573
3.15500	579
3.15867	580
3.16233	573
3.16600	561
3.16967	548
3.17333	538
3.17700	531
3.18067	530
3.18433	532
3.18800	533
3.19167	535
3.19533	532
3.19900	528
3.20267	531
3.20633	537
3.21000	540
3.21367	539
3.21733	537
3.22100	538
3.22467	541
3.22833	542
3.23200	540
3.23567	537
3.23933	538
3.24300	543
3.24667	548
3.25033	550
3.25400	548
3.25767	546
3.26133	543
3.26500	538
3.26867	532
3.27233	530
3.27600	533
3.27967	538
3.28333	539
3.28700	535
3.29067	529
3.29433	526
3.29800	526
3.30167	526
3.30533	526
3.30900	530
3.31267	536
3.31633	538
3.32000	538
3.32367	537
3.32733	539
3.33100	543
3.33467	552
3.33833	559
3.34200	561
3.34567	556
3.34933	548
3.35300	543
3.35667	536
3.36033	526
3.36400	514
3.36767	503
3.37133	497
3.37500	497
3.37867	495
3.38233	494
3.38600	497
3.38967	503
3.39333	508
3.39700	512
3.40067	515
3.40433	518
3.40800	517
3.41167	513
3.41533	510
3.41900	511
3.42267	518
3.42633	527
3.43000	537
3.43367	545
3.43733	551
3.44100	554
3.44467	554
3.44833	545
3.45200	530
3.45567	515
3.45933	501
3.46300	491
3.46667	488
3.47033	490
3.47400	494
3.47767	495
3.48133	495
3.48500	497
3.48867	502
3.49233	508
3.49600	511
3.49967	507
3.50333	498
3.50700	487
3.51067	481
3.51433	477
3.51800	478
3.52167	479
3.52533	482
3.52900	489
3.53267	493
3.53633	495
3.54000	495
3.54367	495
3.54733	494
3.55100	494
3.55467	495
3.55833	497
3.56200	501
3.56567	504
3.56933	506
3.57300	508
3.57667	510
3.58033	508
3.58400	503
3.58767	495
3.59133	490
3.59500	489
3.59867	495
3.60233	501
3.60600	501
3.60967	495
3.61333	481
3.61700	464
3.62067	450
3.62433	443
3.62800	441
3.63167	442
3.63533	439
3.63900	438
3.64267	441
3.64633	446
3.65000	453
3.65367	459
3.65733	466
3.66100	470
3.66467	468
3.66833	462
3.67200	454
3.67567	450
3.67933	449
3.68300	451
3.68667	454
3.69033	451
3.69400	443
3.69767	436
3.70133	425
3.70500	419
3.70867	416
3.71233	417
3.71600	422
3.71967	430
3.72333	441
3.72700	455
3.73067	460
3.73433	460
3.73800	463
3.74167	467
3.74533	470
3.74900	469
3.75267	463
3.75633	457
3.76000	450
3.76367	438
3.76733	430
3.77100	426
3.77467	424
3.77833	422
3.78200	422
3.78567	427
3.78933	436
3.79300	438
3.79667	435
3.80033	429
3.80400	425
3.80767	424
3.81133	424
3.81500	426
3.81867	430
3.82233	431
3.82600	427
3.82967	421
3.83333	416
3.83700	414
3.84067	414
3.84433	417
3.84800	422
3.85167	430
3.85533	431
3.85900	425
3.86267	418
3.86633	411
3.87000	407
3.87367	405
3.87733	402
3.88100	401
3.88467	401
3.88833	398
3.89200	391
3.89567	382
3.89933	376
3.90300	371
3.90667	369
3.91033	371
3.91400	377
3.91767	386
3.92133	394
3.92500	400
3.92867	400
3.93233	397
3.93600	393
3.93967	390
3.94333	389
3.94700	385
3.95067	376
3.95433	364
3.95800	355
3.96167	352
3.96533	354
3.96900	360
3.97267	363
3.97633	363
3.98000	360
3.98367	356
3.98733	352
3.99100	350
3.99467	352
3.99833	357

[Chromatogram (Ch2)]
Interval(msec)	220
# of Points	1091
Start Time(min)	0.002
End Time(min)	3.998
R.Time (min)	Intensity
0.00167	-1
0.00533	-1
0.00900	-2
0.01267	-2
0.01633	-3
0.02000	-3
0.02367	-4
0.02733	-4
0.03100	-5
0.03467	-5
0.03833	-5
0.04200	-5
0.04567	-6
0.04933	-6
0.05300	-6
0.05667	-6
0.06033	-6
0.06400	-7
0.06767	-6
0.07133	-6
0.07500	-6
0.07867	-6
0.08233	-5
0.08600	-5
0.08967	-4
0.09333	-3
0.09700	-3
0.10067	-2
0.10433	-2
0.10800	-2
0.11167	-2
0.11533	-2
0.11900	-2
0.12267	-2
0.12633	-2
0.13000	-3
0.13367	-2
0.13733	-2
0.14100	-2
0.14467	-2
0.14833	-2
0.15200	-2
0.15567	-2
0.15933	-2
0.16300	-1
0.16667	-1
0.17033	-1
0.17400	-1
0.17767	-1
0.18133	-1
0.18500	-1
0.18867	-1
0.19233	-1
0.19600	-1
0.19967	-1
0.20333	-1
0.20700	-0
0.21067	-0
0.21433	-0
0.21800	-0
0.22167	-0
0.22533	-0
0.22900	-0
0.23267	-0
0.23633	-0
0.24000	-0
0.24367	-0
0.24733	-0
0.25100	-0
0.25467	-0
0.25833	-0
0.26200	-0
0.26567	-0
0.26933	-0
0.27300	-1
0.27667	-1
0.28033	-1
0.28400	-1
0.28767	-0
0.29133	-0
0.29500	0
0.29867	0
0.30233	0
0.30600	0
0.30967	0
0.31333	-0
0.31700	-0
0.32067	-0
0.32433	-0
0.32800	-0
0.33167	0
0.33533	0
0.33900	0
0.34267	-0
0.34633	-0
0.35000	-0
0.35367	-1
0.35733	-1
0.36100	-1
0.36467	-1
0.36833	-2
0.37200	-2
0.37567	-2
0.37933	-2
0.38300	-2
0.38667	-2
0.39033	-2
0.39400	-2
0.39767	-1
0.40133	-1
0.40500	-1
0.40867	-1
0.41233	-0
0.41600	-1
0.41967	-1
0.42333	-1
0.42700	-1
0.43067	-1
0.43433	-2
0.43800	-2
0.44167	-2
0.44533	-2
0.44900	-2
0.45267	-2
0.45633	-1
0.46000	-1
0.46367	-1
0.46733	-2
0.47100	-2
0.47467	-2
0.47833	-3
0.48200	-3
0.48567	-3
0.48933	-3
0.49300	-3
0.49667	-3
0.50033	-3
0.50400	-3
0.50767	-4
0.51133	-4
0.51500	-4
0.51867	-4
0.52233	-4
0.52600	-5
0.52967	-5
0.53333	-5
0.53700	-5
0.54067	-5
0.54433	-5
0.54800	-5
0.55167	-4
0.55533	-4
0.55900	-3
0.56267	-3
0.56633	-3
0.57000	-2
0.57367	-2
0.57733	-2
0.58100	-1
0.58467	-1
0.58833	-1
0.59200	-1
0.59567	-1
0.59933	-0
0.60300	-0
0.60667	0
0.61033	0
0.61400	0
0.61767	0
0.62133	0
0.62500	-0
0.62867	-0
0.63233	-1
0.63600	-1
0.63967	-1
0.64333	-1
0.64700	-2
0.65067	-2
0.65433	-2
0.65800	-2
0.66167	-2
0.66533	-2
0.66900	-2
0.67267	-2
0.67633	-2
0.68000	-2
0.68367	-2
0.68733	-2
0.69100	-3
0.69467	-3
0.69833	-3
0.70200	-3
0.70567	-4
0.70933	-4
0.71300	-4
0.71667	-4
0.72033	-4
0.72400	-4
0.72767	-4
0.73133	-4
0.73500	-4
0.73867	-4
0.74233	-4
0.74600	-4
0.74967	-4
0.75333	-4
0.75700	-4
0.76067	-3
0.76433	-3
0.76800	-3
0.77167	-3
0.77533	-3
0.77900	-4
0.78267	-4
0.78633	-4
0.79000	-4
0.79367	-4
0.79733	-4
0.80100	-4
0.80467	-4
0.80833	-4
0.81200	-4
0.81567	-4
0.81933	-3
0.82300	-3
0.82667	-3
0.83033	-3
0.83400	-3
0.83767	-3
0.84133	-3
0.84500	-2
0.84867	-2
0.85233	-2
0.85600	-2
0.85967	-2
0.86333	-1
0.86700	-1
0.87067	-1
0.87433	-1
0.87800	-0
0.88167	0
0.88533	0
0.88900	0
0.89267	1
0.89633	1
0.90000	1
0.90367	1
0.90733	1
0.91100	1
0.91467	2
0.91833	2
0.92200	2
0.92567	1
0.92933	1
0.93300	1
0.93667	1
0.94033	0
0.94400	0
0.94767	0
0.95133	-0
0.95500	-1
0.95867	-1
0.96233	-1
0.96600	-0
0.96967	0
0.97333	0
0.97700	1
0.98067	1
0.98433	1
0.98800	1
0.99167	0
0.99533	0
0.99900	-0
1.00267	-1
1.00633	-1
1.01000	-1
1.01367	-2
1.01733	-2
1.02100	-2
1.02467	-2
1.02833	-2
1.03200	-2
1.03567	-2
1.03933	-2
1.04300	-3
1.04667	-3
1.05033	-3
1.05400	-3
1.05767	-3
1.06133	-3
1.06500	-3
1.06867	-3
1.07233	-3
1.07600	-3
1.07967	-3
1.08333	-3
1.08700	-3
1.09067	-3
1.09433	-3
1.09800	-3
1.10167	-3
1.10533	-3
1.10900	-3
1.11267	-3
1.11633	-3
1.12000	-3
1.12367	-3
1.12733	-3
1.13100	-3
1.13467	-3
1.13833	-3
1.14200	-3
1.14567	-3
1.14933	-3
1.15300	-2
1.15667	-2
1.16033	-2
1.16400	-3
1.16767	-3
1.17133	-3
1.17500	-2
1.17867	-2
1.18233	-2
1.18600	-3
1.18967	-3
1.19333	-3
1.19700	-3
1.20067	-3
1.20433	-3
1.20800	-4
1.21167	-4
1.21533	-4
1.21900	-5
1.22267	-5
1.22633	-5
1.23000	-5
1.23367	-6
1.23733	-6
1.24100	-6
1.24467	-6
1.24833	-6
1.25200	-5
1.25567	-5
1.25933	-5
1.26300	-4
1.26667	-4
1.27033	-3
1.27400	-3
1.27767	-2
1.28133	-2
1.28500	-1
1.28867	-1
1.29233	-0
1.29600	0
1.29967	0
1.30333	1
1.30700	0
1.31067	0
1.31433	-0
1.31800	-0
1.32167	-1
1.32533	-1
1.32900	-1
1.33267	-1
1.33633	-1
1.34000	-2
1.34367	-2
1.34733	-2
1.35100	-2
1.35467	-2
1.35833	-2
1.36200	-2
1.36567	-3
1.36933	-3
1.37300	-3
1.37667	-3
1.38033	-3
1.38400	-4
1.38767	-4
1.39133	-4
1.39500	-4
1.39867	-5
1.40233	-5
1.40600	-5
1.40967	-5
1.41333	-5
1.41700	-5
1.42067	-4
1.42433	-4
1.42800	-4
1.43167	-4
1.43533	-4
1.43900	-3
1.44267	-3
1.44633	-3
1.45000	-2
1.45367	-2
1.45733	-2
1.46100	-2
1.46467	-2
1.46833	-2
1.47200	-2
1.47567	-2
1.47933	-2
1.48300	-2
1.48667	-2
1.49033	-3
1.49400	-3
1.49767	-3
1.50133	-3
1.50500	-3
1.50867	-3
1.51233	-4
1.51600	-4
1.51967	-4
1.52333	-4
1.52700	-4
1.53067	-4
1.53433	-4
1.53800	-3
1.54167	-3
1.54533	-3
1.54900	-3
1.55267	-3
1.55633	-3
1.56000	-3
1.56367	-3
1.56733	-3
1.57100	-3
1.57467	-2
1.57833	-2
1.58200	-2
1.58567	-2
1.58933	-2
1.59300	-2
1.59667	-2
1.60033	-3
1.60400	-3
1.60767	-5
1.61133	-6
1.61500	-8
1.61867	-11
1.62233	-14
1.62600	-17
1.62967	-20
1.63333	-24
1.63700	-28
1.64067	-32
1.64433	-36
1.64800	-40
1.65167	-44
1.65533	-48
1.65900	-52
1.66267	-57
1.66633	-62
1.67000	-67
1.67367	-73
1.67733	-79
1.68100	-85
1.68467	-90
1.68833	-95
1.69200	-99
1.69567	-102
1.69933	-105
1.70300	-108
1.70667	-109
1.71033	-111
1.71400	-112
1.71767	-113
1.72133	-113
1.72500	-113
1.72867	-113
1.73233	-112
1.73600	-112
1.73967	-111
1.74333	-110
1.74700	-110
1.75067	-109
1.75433	-109
1.75800	-110
1.76167	-111
1.76533	-112
1.76900	-114
1.77267	-115
1.77633	-116
1.78000	-117
1.78367	-117
1.78733	-117
1.79100	-118
1.79467	-118
1.79833	-118
1.80200	-119
1.80567	-119
1.80933	-119
1.81300	-119
1.81667	-120
1.82033	-120
1.82400	-121
1.82767	-122
1.83133	-122
1.83500	-122
1.83867	-122
1.84233	-122
1.84600	-121
1.84967	-120
1.85333	-119
1.85700	-118
1.86067	-118
1.86433	-117
1.86800	-117
1.87167	-117
1.87533	-117
1.87900	-117
1.88267	-117
1.88633	-116
1.89000	-116
1.89367	-116
1.89733	-117
1.90100	-117
1.90467	-117
1.90833	-118
1.91200	-118
1.91567	-118
1.91933	-117
1.92300	-117
1.92667	-117
1.93033	-116
1.93400	-116
1.93767	-115
1.94133	-115
1.94500	-114
1.94867	-114
1.95233	-114
1.95600	-114
1.95967	-114
1.96333	-114
1.96700	-113
1.97067	-113
1.97433	-113
1.97800	-112
1.98167	-112
1.98533	-112
1.98900	-112
1.99267	-111
1.99633	-111
2.00000	-111
2.00367	-111
2.00733	-111
2.01100	-111
2.01467	-110
2.01833	-111
2.02200	-110
2.02567	-110
2.02933	-110
2.03300	-109
2.03667	-109
2.04033	-109
2.04400	-109
2.04767	-109
2.05133	-108
2.05500	-107
2.05867	-107
2.06233	-106
2.06600	-106
2.06967	-106
2.07333	-105
2.07700	-105
2.08067	-105
2.08433	-105
2.08800	-105
2.09167	-105
2.09533	-105
2.09900	-105
2.10267	-104
2.10633	-104
2.11000	-104
2.11367	-104
2.11733	-103
2.12100	-103
2.12467	-103
2.12833	-102
2.13200	-101
2.13567	-100
2.13933	-100
2.14300	-100
2.14667	-99
2.15033	-99
2.15400	-99
2.15767	-98
2.16133	-98
2.16500	-98
2.16867	-97
2.17233	-97
2.17600	-96
2.17967	-96
2.18333	-95
2.18700	-95
2.19067	-96
2.19433	-96
2.19800	-96
2.20167	-97
2.20533	-97
2.20900	-97
2.21267	-96
2.21633	-95
2.22000	-95
2.22367	-94
2.22733	-93
2.23100	-93
2.23467	-92
2.23833	-91
2.24200	-91
2.24567	-90
2.24933	-89
2.25300	-89
2.25667	-88
2.26033	-88
2.26400	-88
2.26767	-87
2.27133	-87
2.27500	-87
2.27867	-87
2.28233	-87
2.28600	-87
2.28967	-87
2.29333	-87
2.29700	-87
2.30067	-87
2.30433	-87
2.30800	-87
2.31167	-87
2.31533	-86
2.31900	-86
2.32267	-86
2.32633	-85
2.33000	-85
2.33367	-84
2.33733	-84
2.34100	-83
2.34467	-83
2.34833	-82
2.35200	-81
2.35567	-80
2.35933	-79
2.36300	-77
2.36667	-75
2.37033	-73
2.37400	-70
2.37767	-66
2.38133	-63
2.38500	-59
2.38867	-55
2.39233	-51
2.39600	-46
2.39967	-42
2.40333	-38
2.40700	-34
2.41067	-31
2.41433	-28
2.41800	-25
2.42167	-23
2.42533	-22
2.42900	-20
2.43267	-19
2.43633	-17
2.44000	-16
2.44367	-14
2.44733	-13
2.45100	-13
2.45467	-12
2.45833	-11
2.46200	-10
2.46567	-9
2.46933	-8
2.47300	-7
2.47667	-5
2.48033	-4
2.48400	-3
2.48767	-1
2.49133	-0
2.49500	1
2.49867	2
2.50233	3
2.50600	4
2.50967	5
2.51333	6
2.51700	6
2.52067	7
2.52433	8
2.52800	9
2.53167	9
2.53533	10
2.53900	10
2.54267	10
2.54633	11
2.55000	11
2.55367	11
2.55733	12
2.56100	12
2.56467	12
2.56833	12
2.57200	12
2.57567	12
2.57933	12
2.58300	12
2.58667	12
2.59033	12
2.59400	12
2.59767	12
2.60133	12
2.60500	13
2.60867	13
2.61233	14
2.61600	14
2.61967	14
2.62333	14
2.62700	14
2.63067	14
2.63433	14
2.63800	14
2.64167	15
2.64533	15
2.64900	15
2.65267	16
2.65633	17
2.66000	17
2.66367	18
2.66733	18
2.67100	19
2.67467	19
2.67833	20
2.68200	20
2.68567	20
2.68933	20
2.69300	19
2.69667	19
2.70033	19
2.70400	20
2.70767	20
2.71133	20
2.71500	21
2.71867	21
2.72233	21
2.72600	21
2.72967	21
2.73333	21
2.73700	21
2.74067	21
2.74433	21
2.74800	21
2.75167	22
2.75533	22
2.75900	22
2.76267	22
2.76633	22
2.77000	22
2.77367	22
2.77733	22
2.78100	22
2.78467	22
2.78833	22
2.79200	22
2.79567	22
2.79933	23
2.80300	23
2.80667	23
2.81033	23
2.81400	24
2.81767	24
2.82133	25
2.82500	25
2.82867	25
2.83233	25
2.83600	24
2.83967	22
2.84333	19
2.84700	14
2.85067	6
2.85433	-4
2.85800	-19
2.86167	-37
2.86533	-59
2.86900	-86
2.87267	-117
2.87633	-152
2.88000	-191
2.88367	-233
2.88733	-278
2.89100	-326
2.89467	-377
2.89833	-429
2.90200	-482
2.90567	-536
2.90933	-590
2.91300	-644
2.91667	-698
2.92033	-750
2.92400	-802
2.92767	-853
2.93133	-906
2.93500	-964
2.93867	-1022
2.94233	-1072
2.94600	-1103
2.94967	-1109
2.95333	-1088
2.95700	-1045
2.96067	-984
2.96433	-912
2.96800	-833
2.97167	-752
2.97533	-672
2.97900	-595
2.98267	-523
2.98633	-457
2.99000	-398
2.99367	-344
2.99733	-296
3.00100	-254
3.00467	-218
3.00833	-186
3.01200	-158
3.01567	-134
3.01933	-113
3.02300	-95
3.02667	-79
3.03033	-66
3.03400	-55
3.03767	-45
3.04133	-37
3.04500	-29
3.04867	-23
3.05233	-18
3.05600	-13
3.05967	-9
3.06333	-5
3.06700	-2
3.07067	0
3.07433	3
3.07800	5
3.08167	6
3.08533	7
3.08900	8
3.09267	9
3.09633	9
3.10000	10
3.10367	11
3.10733	11
3.11100	12
3.11467	12
3.11833	13
3.12200	13
3.12567	13
3.12933	14
3.13300	14
3.13667	14
3.14033	14
3.14400	15
3.14767	15
3.15133	15
3.15500	15
3.15867	15
3.16233	16
3.16600	16
3.16967	16
3.17333	16
3.17700	16
3.18067	16
3.18433	16
3.18800	16
3.19167	16
3.19533	15
3.19900	15
3.20267	16
3.20633	16
3.21000	16
3.21367	16
3.21733	16
3.22100	16
3.22467	17
3.22833	17
3.23200	17
3.23567	18
3.23933	18
3.24300	19
3.24667	19
3.25033	20
3.25400	20
3.25767	21
3.26133	21
3.26500	22
3.26867	22
3.27233	23
3.27600	24
3.27967	24
3.28333	24
3.28700	25
3.29067	25
3.29433	25
3.29800	25
3.30167	25
3.30533	26
3.30900	26
3.31267	26
3.31633	27
3.32000	27
3.32367	27
3.32733	27
3.33100	27
3.33467	28
3.33833	28
3.34200	28
3.34567	27
3.34933	27
3.35300	27
3.35667	27
3.36033	28
3.36400	28
3.36767	28
3.37133	28
3.37500	27
3.37867	27
3.38233	27
3.38600	27
3.38967	27
3.39333	27
3.39700	26
3.40067	26
3.40433	25
3.40800	25
3.41167	24
3.41533	24
3.41900	24
3.42267	23
3.42633	23
3.43000	23
3.43367	22
3.43733	22
3.44100	22
3.44467	21
3.44833	21
3.45200	21
3.45567	21
3.45933	21
3.46300	21
3.46667	21
3.47033	21
3.47400	21
3.47767	21
3.48133	21
3.48500	22
3.48867	22
3.49233	22
3.49600	22
3.49967	23
3.50333	23
3.50700	23
3.51067	23
3.51433	23
3.51800	23
3.52167	23
3.52533	23
3.52900	24
3.53267	24
3.53633	24
3.54000	24
3.54367	24
3.54733	24
3.55100	24
3.55467	24
3.55833	24
3.56200	24
3.56567	23
3.56933	23
3.57300	23
3.57667	23
3.58033	23
3.58400	23
3.58767	23
3.59133	23
3.59500	23
3.59867	23
3.60233	23
3.60600	23
3.60967	23
3.61333	23
3.61700	23
3.62067	23
3.62433	24
3.62800	24
3.63167	24
3.63533	24
3.63900	24
3.64267	25
3.64633	24
3.65000	24
3.65367	24
3.65733	24
3.66100	24
3.66467	24
3.66833	24
3.67200	23
3.67567	23
3.67933	23
3.68300	23
3.68667	23
3.69033	23
3.69400	23
3.69767	23
3.70133	23
3.70500	23
3.70867	23
3.71233	24
3.71600	24
3.71967	24
3.72333	23
3.72700	23
3.73067	24
3.73433	24
3.73800	24
3.74167	24
3.74533	24
3.74900	24
3.75267	24
3.75633	24
3.76000	24
3.76367	24
3.76733	24
3.77100	24
3.77467	24
3.77833	24
3.78200	24
3.78567	24
3.78933	23
3.79300	23
3.79667	24
3.80033	24
3.80400	24
3.80767	24
3.81133	24
3.81500	24
3.81867	24
3.82233	24
3.82600	23
3.82967	23
3.83333	23
3.83700	23
3.84067	23
3.84433	23
3.84800	22
3.85167	23
3.85533	23
3.85900	23
3.86267	23
3.86633	23
3.87000	23
3.87367	23
3.87733	23
3.88100	23
3.88467	23
3.88833	23
3.89200	23
3.89567	23
3.89933	24
3.90300	24
3.90667	24
3.91033	24
3.91400	24
3.91767	24
3.92133	24
3.92500	25
3.92867	25
3.93233	25
3.93600	25
3.93967	25
3.94333	25
3.94700	25
3.95067	25
3.95433	25
3.95800	25
3.96167	25
3.96533	25
3.96900	25
3.97267	25
3.97633	25
3.98000	25
3.98367	26
3.98733	26
3.99100	26
3.99467	26
3.99833	25

[Chromatogram (Ch3)]
Interval(msec)	220
# of Points	1091
Start Time(min)	0.002
End Time(min)	3.998
R.Time (min)	Intensity
0.00167	1
0.00533	3
0.00900	4
0.01267	5
0.01633	5
0.02000	5
0.02367	5
0.02733	5
0.03100	6
0.03467	5
0.03833	4
0.04200	2
0.04567	0
0.04933	-0
0.05300	-2
0.05667	-2
0.06033	-2
0.06400	-2
0.06767	-1
0.07133	1
0.07500	4
0.07867	8
0.08233	8
0.08600	6
0.08967	8
0.09333	8
0.09700	8
0.10067	7
0.10433	5
0.10800	2
0.11167	0
0.11533	1
0.11900	4
0.12267	5
0.12633	4
0.13000	4
0.13367	4
0.13733	3
0.14100	3
0.14467	2
0.14833	2
0.15200	0
0.15567	-2
0.15933	-3
0.16300	-4
0.16667	-4
0.17033	-1
0.17400	-0
0.17767	-0
0.18133	2
0.18500	3
0.18867	4
0.19233	4
0.19600	2
0.19967	2
0.20333	1
0.20700	1
0.21067	1
0.21433	1
0.21800	1
0.22167	2
0.22533	4
0.22900	6
0.23267	5
0.23633	4
0.24000	1
0.24367	1
0.24733	2
0.25100	3
0.25467	2
0.25833	2
0.26200	1
0.26567	0
0.26933	1
0.27300	1
0.27667	2
0.28033	3
0.28400	4
0.28767	2
0.29133	-0
0.29500	-0
0.29867	1
0.30233	2
0.30600	1
0.30967	-2
0.31333	-2
0.31700	-1
0.32067	-1
0.32433	-3
0.32800	-2
0.33167	-2
0.33533	-2
0.33900	-2
0.34267	-2
0.34633	-1
0.35000	-1
0.35367	-1
0.35733	-2
0.36100	-3
0.36467	-1
0.36833	2
0.37200	3
0.37567	1
0.37933	-1
0.38300	-2
0.38667	-1
0.39033	-1
0.39400	-2
0.39767	-3
0.40133	-3
0.40500	-3
0.40867	-1
0.41233	2
0.41600	4
0.41967	4
0.42333	4
0.42700	5
0.43067	8
0.43433	9
0.43800	6
0.44167	5
0.44533	3
0.44900	1
0.45267	1
0.45633	2
0.46000	2
0.46367	2
0.46733	3
0.47100	2
0.47467	1
0.47833	0
0.48200	1
0.48567	1
0.48933	1
0.49300	-0
0.49667	-2
0.50033	-3
0.50400	-2
0.50767	-1
0.51133	-1
0.51500	-2
0.51867	-1
0.52233	1
0.52600	3
0.52967	6
0.53333	8
0.53700	7
0.54067	6
0.54433	5
0.54800	4
0.55167	4
0.55533	2
0.55900	3
0.56267	6
0.56633	7
0.57000	8
0.57367	9
0.57733	9
0.58100	6
0.58467	7
0.58833	9
0.59200	9
0.59567	8
0.59933	6
0.60300	6
0.60667	5
0.61033	4
0.61400	6
0.61767	7
0.62133	8
0.62500	8
0.62867	7
0.63233	7
0.63600	7
0.63967	7
0.64333	9
0.64700	10
0.65067	10
0.65433	10
0.65800	11
0.66167	11
0.66533	10
0.66900	10
0.67267	11
0.67633	13
0.68000	14
0.68367	15
0.68733	14
0.69100	13
0.69467	10
0.69833	9
0.70200	10
0.70567	11
0.70933	11
0.71300	11
0.71667	11
0.72033	12
0.72400	13
0.72767	13
0.73133	13
0.73500	12
0.73867	11
0.74233	9
0.74600	9
0.74967	10
0.75333	12
0.75700	12
0.76067	11
0.76433	9
0.76800	10
0.77167	10
0.77533	10
0.77900	13
0.78267	16
0.78633	17
0.79000	15
0.79367	14
0.79733	14
0.80100	15
0.80467	16
0.80833	17
0.81200	15
0.81567	12
0.81933	12
0.82300	11
0.82667	12
0.83033	14
0.83400	13
0.83767	13
0.84133	13
0.84500	13
0.84867	12
0.85233	10
0.85600	9
0.85967	10
0.86333	11
0.86700	12
0.87067	13
0.87433	14
0.87800	15
0.88167	15
0.88533	16
0.88900	17
0.89267	16
0.89633	15
0.90000	14
0.90367	13
0.90733	12
0.91100	13
0.91467	13
0.91833	14
0.92200	16
0.92567	18
0.92933	18
0.93300	18
0.93667	18
0.94033	19
0.94400	21
0.94767	23
0.95133	24
0.95500	24
0.95867	22
0.96233	17
0.96600	15
0.96967	19
0.97333	22
0.97700	23
0.98067	20
0.98433	18
0.98800	17
0.99167	18
0.99533	17
0.99900	15
1.00267	14
1.00633	16
1.01000	20
1.01367	25
1.01733	28
1.02100	27
1.02467	25
1.02833	22
1.03200	19
1.03567	17
1.03933	16
1.04300	16
1.04667	15
1.05033	13
1.05400	13
1.05767	15
1.06133	16
1.06500	17
1.06867	17
1.07233	18
1.07600	21
1.07967	23
1.08333	24
1.08700	23
1.09067	20
1.09433	18
1.09800	18
1.10167	17
1.10533	19
1.10900	21
1.11267	22
1.11633	23
1.12000	22
1.12367	20
1.12733	19
1.13100	20
1.13467	19
1.13833	19
1.14200	21
1.14567	21
1.14933	22
1.15300	23
1.15667	25
1.16033	26
1.16400	25
1.16767	25
1.17133	26
1.17500	26
1.17867	26
1.18233	26
1.18600	27
1.18967	26
1.19333	27
1.19700	28
1.20067	28
1.20433	27
1.20800	26
1.21167	25
1.21533	25
1.21900	26
1.22267	24
1.22633	22
1.23000	24
1.23367	26
1.23733	25
1.24100	21
1.24467	19
1.24833	18
1.25200	20
1.25567	22
1.25933	24
1.26300	25
1.26667	28
1.27033	30
1.27400	29
1.27767	26
1.28133	24
1.28500	25
1.28867	27
1.29233	27
1.29600	25
1.29967	25
1.30333	25
1.30700	24
1.31067	23
1.31433	21
1.31800	21
1.32167	19
1.32533	17
1.32900	18
1.33267	18
1.33633	19
1.34000	20
1.34367	20
1.34733	21
1.35100	19
1.35467	17
1.35833	16
1.36200	15
1.36567	16
1.36933	15
1.37300	14
1.37667	13
1.38033	14
1.38400	15
1.38767	17
1.39133	19
1.39500	21
1.39867	23
1.40233	22
1.40600	21
1.40967	22
1.41333	22
1.41700	20
1.42067	21
1.42433	22
1.42800	26
1.43167	27
1.43533	26
1.43900	25
1.44267	25
1.44633	25
1.45000	23
1.45367	21
1.45733	22
1.46100	22
1.46467	21
1.46833	22
1.47200	22
1.47567	23
1.47933	24
1.48300	23
1.48667	21
1.49033	22
1.49400	22
1.49767	23
1.50133	24
1.50500	23
1.50867	21
1.51233	21
1.51600	22
1.51967	21
1.52333	20
1.52700	20
1.53067	22
1.53433	23
1.53800	25
1.54167	24
1.54533	23
1.54900	22
1.55267	22
1.55633	23
1.56000	24
1.56367	23
1.56733	24
1.57100	22
1.57467	21
1.57833	22
1.58200	23
1.58567	23
1.58933	23
1.59300	23
1.59667	20
1.60033	18
1.60400	19
1.60767	22
1.61133	23
1.61500	23
1.61867	22
1.62233	24
1.62600	26
1.62967	28
1.63333	29
1.63700	28
1.64067	30
1.64433	31
1.64800	32
1.65167	31
1.65533	31
1.65900	31
1.66267	30
1.66633	27
1.67000	27
1.67367	28
1.67733	30
1.68100	31
1.68467	32
1.68833	32
1.69200	31
1.69567	31
1.69933	34
1.70300	36
1.70667	37
1.71033	37
1.71400	39
1.71767	41
1.72133	40
1.72500	38
1.72867	36
1.73233	37
1.73600	37
1.73967	38
1.74333	38
1.74700	39
1.75067	39
1.75433	37
1.75800	35
1.76167	34
1.76533	35
1.76900	34
1.77267	36
1.77633	38
1.78000	39
1.78367	39
1.78733	40
1.79100	41
1.79467	42
1.79833	41
1.80200	39
1.80567	38
1.80933	38
1.81300	39
1.81667	40
1.82033	41
1.82400	42
1.82767	41
1.83133	42
1.83500	42
1.83867	41
1.84233	40
1.84600	42
1.84967	43
1.85333	45
1.85700	47
1.86067	47
1.86433	47
1.86800	48
1.87167	48
1.87533	49
1.87900	48
1.88267	47
1.88633	46
1.89000	49
1.89367	51
1.89733	51
1.90100	49
1.90467	49
1.90833	50
1.91200	49
1.91567	48
1.91933	50
1.92300	52
1.92667	55
1.93033	56
1.93400	57
1.93767	56
1.94133	55
1.94500	53
1.94867	52
1.95233	51
1.95600	53
1.95967	53
1.96333	53
1.96700	55
1.97067	58
1.97433	59
1.97800	60
1.98167	62
1.98533	62
1.98900	61
1.99267	61
1.99633	61
2.00000	63
2.00367	63
2.00733	63
2.01100	64
2.01467	63
2.01833	64
2.02200	65
2.02567	67
2.02933	70
2.03300	70
2.03667	71
2.04033	70
2.04400	72
2.04767	73
2.05133	73
2.05500	73
2.05867	74
2.06233	74
2.06600	74
2.06967	76
2.07333	76
2.07700	77
2.08067	79
2.08433	82
2.08800	84
2.09167	86
2.09533	86
2.09900	87
2.10267	87
2.10633	86
2.11000	88
2.11367	89
2.11733	90
2.12100	91
2.12467	93
2.12833	94
2.13200	92
2.13567	93
2.13933	94
2.14300	98
2.14667	98
2.15033	97
2.15400	98
2.15767	99
2.16133	101
2.16500	102
2.16867	104
2.17233	106
2.17600	107
2.17967	107
2.18333	108
2.18700	109
2.19067	109
2.19433	109
2.19800	110
2.20167	111
2.20533	114
2.20900	117
2.21267	120
2.21633	122
2.22000	123
2.22367	121
2.22733	122
2.23100	124
2.23467	126
2.23833	124
2.24200	125
2.24567	127
2.24933	128
2.25300	129
2.25667	132
2.26033	134
2.26400	136
2.26767	137
2.27133	138
2.27500	137
2.27867	140
2.28233	142
2.28600	144
2.28967	145
2.29333	146
2.29700	148
2.30067	149
2.30433	150
2.30800	152
2.31167	153
2.31533	153
2.31900	154
2.32267	155
2.32633	157
2.33000	158
2.33367	159
2.33733	161
2.34100	162
2.34467	164
2.34833	165
2.35200	166
2.35567	168
2.35933	171
2.36300	173
2.36667	175
2.37033	177
2.37400	180
2.37767	181
2.38133	182
2.38500	182
2.38867	181
2.39233	179
2.39600	181
2.39967	186
2.40333	191
2.40700	195
2.41067	198
2.41433	202
2.41800	203
2.42167	205
2.42533	207
2.42900	208
2.43267	209
2.43633	209
2.44000	212
2.44367	242
2.44733	313
2.45100	377
2.45467	414
2.45833	426
2.46200	404
2.46567	358
2.46933	314
2.47300	281
2.47667	259
2.48033	248
2.48400	239
2.48767	222
2.49133	199
2.49500	173
2.49867	149
2.50233	130
2.50600	118
2.50967	110
2.51333	107
2.51700	108
2.52067	112
2.52433	120
2.52800	130
2.53167	144
2.53533	158
2.53900	170
2.54267	175
2.54633	173
2.55000	167
2.55367	156
2.55733	146
2.56100	136
2.56467	124
2.56833	115
2.57200	109
2.57567	102
2.57933	97
2.58300	97
2.58667	98
2.59033	101
2.59400	102
2.59767	98
2.60133	88
2.60500	74
2.60867	56
2.61233	37
2.61600	19
2.61967	2
2.62333	-14
2.62700	-29
2.63067	-38
2.63433	-44
2.63800	-44
2.64167	-40
2.64533	-32
2.64900	-22
2.65267	-10
2.65633	1
2.66000	12
2.66367	26
2.66733	40
2.67100	52
2.67467	62
2.67833	70
2.68200	75
2.68567	77
2.68933	79
2.69300	83
2.69667	84
2.70033	84
2.70400	85
2.70767	87
2.71133	89
2.71500	88
2.71867	86
2.72233	85
2.72600	86
2.72967	88
2.73333	90
2.73700	91
2.74067	92
2.74433	96
2.74800	101
2.75167	105
2.75533	105
2.75900	108
2.76267	112
2.76633	113
2.77000	117
2.77367	121
2.77733	125
2.78100	128
2.78467	131
2.78833	135
2.79200	136
2.79567	137
2.79933	138
2.80300	139
2.80667	140
2.81033	145
2.81400	150
2.81767	159
2.82133	176
2.82500	215
2.82867	294
2.83233	433
2.83600	657
2.83967	980
2.84333	1408
2.84700	1932
2.85067	2522
2.85433	3134
2.85800	3724
2.86167	4242
2.86533	4645
2.86900	4911
2.87267	5030
2.87633	5012
2.88000	4869
2.88367	4629
2.88733	4326
2.89100	3986
2.89467	3632
2.89833	3279
2.90200	2939
2.90567	2621
2.90933	2326
2.91300	2060
2.91667	1824
2.92033	1615
2.92400	1432
2.92767	1271
2.93133	1131
2.93500	1007
2.93867	898
2.94233	804
2.94600	720
2.94967	652
2.95333	594
2.95700	542
2.96067	496
2.96433	458
2.96800	425
2.97167	397
2.97533	373
2.97900	352
2.98267	332
2.98633	316
2.99000	302
2.99367	291
2.99733	279
3.00100	269
3.00467	263
3.00833	257
3.01200	251
3.01567	247
3.01933	240
3.02300	233
3.02667	227
3.03033	223
3.03400	220
3.03767	217
3.04133	213
3.04500	209
3.04867	206
3.05233	204
3.05600	202
3.05967	197
3.06333	193
3.06700	189
3.07067	188
3.07433	187
3.07800	186
3.08167	186
3.08533	186
3.08900	184
3.09267	182
3.09633	182
3.10000	181
3.10367	178
3.10733	176
3.11100	174
3.11467	172
3.11833	172
3.12200	174
3.12567	178
3.12933	180
3.13300	178
3.13667	175
3.14033	175
3.14400	174
3.14767	174
3.15133	174
3.15500	174
3.15867	176
3.16233	177
3.16600	177
3.16967	178
3.17333	179
3.17700	182
3.18067	181
3.18433	181
3.18800	182
3.19167	181
3.19533	179
3.19900	179
3.20267	180
3.20633	182
3.21000	182
3.21367	183
3.21733	184
3.22100	186
3.22467	189
3.22833	191
3.23200	192
3.23567	191
3.23933	191
3.24300	191
3.24667	191
3.25033	194
3.25400	197
3.25767	198
3.26133	198
3.26500	196
3.26867	195
3.27233	195
3.27600	195
3.27967	194
3.28333	194
3.28700	194
3.29067	194
3.29433	192
3.29800	187
3.30167	171
3.30533	135
3.30900	94
3.31267	69
3.31633	64
3.32000	75
3.32367	96
3.32733	121
3.33100	152
3.33467	187
3.33833	227
3.34200	268
3.34567	310
3.34933	350
3.35300	386
3.35667	419
3.36033	448
3.36400	471
3.36767	494
3.37133	516
3.37500	534
3.37867	550
3.38233	563
3.38600	574
3.38967	582
3.39333	587
3.39700	592
3.40067	599
3.40433	606
3.40800	614
3.41167	619
3.41533	622
3.41900	624
3.42267	626
3.42633	628
3.43000	633
3.43367	637
3.43733	638
3.44100	638
3.44467	640
3.44833	642
3.45200	643
3.45567	643
3.45933	642
3.46300	643
3.46667	644
3.47033	646
3.47400	649
3.47767	651
3.48133	651
3.48500	650
3.48867	646
3.49233	644
3.49600	647
3.49967	649
3.50333	651
3.50700	650
3.51067	648
3.51433	647
3.51800	646
3.52167	645
3.52533	644
3.52900	643
3.53267	640
3.53633	637
3.54000	635
3.54367	632
3.54733	633
3.55100	634
3.55467	638
3.55833	638
3.56200	633
3.56567	629
3.56933	629
3.57300	629
3.57667	629
3.58033	628
3.58400	626
3.58767	624
3.59133	620
3.59500	619
3.59867	615
3.60233	611
3.60600	608
3.60967	610
3.61333	610
3.61700	608
3.62067	607
3.62433	604
3.62800	600
3.63167	597
3.63533	595
3.63900	593
3.64267	592
3.64633	593
3.65000	591
3.65367	587
3.65733	585
3.66100	584
3.66467	583
3.66833	581
3.67200	580
3.67567	579
3.67933	578
3.68300	574
3.68667	572
3.69033	572
3.69400	570
3.69767	569
3.70133	567
3.70500	565
3.70867	564
3.71233	564
3.71600	563
3.71967	561
3.72333	560
3.72700	557
3.73067	552
3.73433	549
3.73800	551
3.74167	553
3.74533	554
3.74900	554
3.75267	553
3.75633	552
3.76000	548
3.76367	544
3.76733	539
3.77100	538
3.77467	540
3.77833	542
3.78200	544
3.78567	544
3.78933	543
3.79300	542
3.79667	544
3.80033	545
3.80400	544
3.80767	542
3.81133	539
3.81500	537
3.81867	534
3.82233	531
3.82600	529
3.82967	527
3.83333	528
3.83700	527
3.84067	527
3.84433	528
3.84800	527
3.85167	525
3.85533	524
3.85900	523
3.86267	525
3.86633	525
3.87000	524
3.87367	523
3.87733	524
3.88100	523
3.88467	521
3.88833	522
3.89200	520
3.89567	519
3.89933	519
3.90300	519
3.90667	521
3.91033	523
3.91400	523
3.91767	522
3.92133	519
3.92500	520
3.92867	520
3.93233	519
3.93600	519
3.93967	518
3.94333	517
3.94700	518
3.95067	517
3.95433	516
3.95800	515
3.96167	514
3.96533	511
3.96900	510
3.97267	510
3.97633	508
3.98000	507
3.98367	506
3.98733	504
3.99100	504
3.99467	505
3.99833	503

[Status Trace (Column Oven Temperature)]
Interval(msec)	1000
# of Points	240
Start Time(min)	0.013
End Time(min)	3.996
Intensity Units	
Intensity Multiplier	1
R.Time (min)	Intensity
0.01262	35.02
0.02928	35.04
0.04595	35.06
0.06262	35.08
0.07928	35.08
0.09595	35.07
0.11262	35.07
0.12928	35.07
0.14595	35.07
0.16262	35.07
0.17928	35.05
0.19595	35.04
0.21262	35.03
0.22928	35.03
0.24595	35.01
0.26262	35.02
0.27928	35.01
0.29595	34.99
0.31262	34.99
0.32928	34.99
0.34595	35.01
0.36262	35.01
0.37928	35.00
0.39595	35.00
0.41262	35.00
0.42928	34.98
0.44595	34.98
0.46262	34.98
0.47928	34.99
0.49595	35.00
0.51262	35.02
0.52928	35.04
0.54595	35.04
0.56262	35.03
0.57928	35.03
0.59595	35.02
0.61262	35.00
0.62928	34.99
0.64595	35.01
0.66262	35.01
0.67928	35.01
0.69595	35.01
0.71262	35.02
0.72928	35.03
0.74595	35.03
0.76262	35.03
0.77928	35.04
0.79595	35.05
0.81262	35.05
0.82928	35.05
0.84595	35.04
0.86262	35.03
0.87928	35.02
0.89595	35.01
0.91262	35.00
0.92928	34.99
0.94595	34.99
0.96262	34.98
0.97928	34.97
0.99595	34.96
1.01262	34.97
1.02928	34.97
1.04595	34.97
1.06262	34.97
1.07928	34.98
1.09595	34.98
1.11262	34.98
1.12928	34.99
1.14595	34.99
1.16262	34.99
1.17928	34.99
1.19595	35.00
1.21262	35.01
1.22928	35.02
1.24595	35.03
1.26262	35.02
1.27928	35.00
1.29595	34.99
1.31262	34.98
1.32928	34.99
1.34595	34.99
1.36262	34.99
1.37928	35.00
1.39595	35.01
1.41262	35.01
1.42928	35.01
1.44595	34.99
1.46262	34.98
1.47928	34.98
1.49595	34.99
1.51262	34.99
1.52928	34.99
1.54595	34.99
1.56262	34.98
1.57928	34.98
1.59595	34.99
1.61262	35.06
1.62928	35.20
1.64595	35.41
1.66262	35.70
1.67928	36.09
1.69595	36.46
1.71262	36.81
1.72928	37.12
1.74595	37.41
1.76262	37.76
1.77928	38.10
1.79595	38.44
1.81262	38.77
1.82928	39.12
1.84595	39.43
1.86262	39.75
1.87928	40.08
1.89595	40.41
1.91262	40.75
1.92928	41.07
1.94595	41.40
1.96262	41.72
1.97928	42.05
1.99595	42.37
2.01262	42.69
2.02928	43.02
2.04595	43.36
2.06262	43.68
2.07928	44.01
2.09595	44.34
2.11262	44.67
2.12928	44.99
2.14595	45.31
2.16262	45.65
2.17928	45.96
2.19595	46.31
2.21262	46.65
2.22928	46.97
2.24595	47.29
2.26262	47.61
2.27928	47.94
2.29595	48.27
2.31262	48.59
2.32928	48.92
2.34595	49.25
2.36262	49.51
2.37928	49.65
2.39595	49.66
2.41262	49.65
2.42928	49.66
2.44595	49.68
2.46262	49.70
2.47928	49.71
2.49595	49.73
2.51262	49.74
2.52928	49.76
2.54595	49.77
2.56262	49.79
2.57928	49.81
2.59595	49.82
2.61262	49.83
2.62928	49.84
2.64595	49.85
2.66262	49.85
2.67928	49.85
2.69595	49.85
2.71262	49.85
2.72928	49.85
2.74595	49.87
2.76262	49.87
2.77928	49.87
2.79595	49.88
2.81262	49.88
2.82928	49.88
2.84595	49.91
2.86262	49.93
2.87928	49.93
2.89595	49.94
2.91262	49.95
2.92928	49.95
2.94595	49.96
2.96262	49.98
2.97928	50.00
2.99595	50.01
3.01262	50.01
3.02928	50.01
3.04595	50.01
3.06262	50.01
3.07928	50.01
3.09595	50.01
3.11262	50.02
3.12928	50.03
3.14595	50.04
3.16262	50.05
3.17928	50.08
3.19595	50.10
3.21262	50.12
3.22928	50.12
3.24595	50.12
3.26262	50.11
3.27928	50.08
3.29595	50.06
3.31262	50.03
3.32928	50.01
3.34595	49.98
3.36262	49.97
3.37928	49.95
3.39595	49.95
3.41262	49.97
3.42928	49.98
3.44595	50.00
3.46262	50.02
3.47928	50.02
3.49595	50.02
3.51262	50.03
3.52928	50.02
3.54595	50.02
3.56262	50.03
3.57928	50.03
3.59595	50.04
3.61262	50.04
3.62928	50.04
3.64595	50.04
3.66262	50.05
3.67928	50.05
3.69595	50.05
3.71262	50.05
3.72928	50.05
3.74595	50.05
3.76262	50.05
3.77928	50.06
3.79595	50.06
3.81262	50.06
3.82928	50.07
3.84595	50.07
3.86262	50.08
3.87928	50.08
3.89595	50.07
3.91262	50.07
3.92928	50.06
3.94595	50.05
3.96262	50.05
3.97928	50.05
3.99595	50.05

[Status Trace (Injection Unit Temperature)]
Interval(msec)	1000
# of Points	240
Start Time(min)	0.013
End Time(min)	3.996
Intensity Units	
Intensity Multiplier	1
R.Time (min)	Intensity
0.01262	99.97
0.02928	99.98
0.04595	99.97
0.06262	99.98
0.07928	99.97
0.09595	99.98
0.11262	99.97
0.12928	99.98
0.14595	99.98
0.16262	99.98
0.17928	99.98
0.19595	99.98
0.21262	99.98
0.22928	99.98
0.24595	99.98
0.26262	99.98
0.27928	99.98
0.29595	99.98
0.31262	99.98
0.32928	99.98
0.34595	99.98
0.36262	99.98
0.37928	99.98
0.39595	99.98
0.41262	99.98
0.42928	99.98
0.44595	99.98
0.46262	99.98
0.47928	99.98
0.49595	99.99
0.51262	99.98
0.52928	99.98
0.54595	99.99
0.56262	99.99
0.57928	99.98
0.59595	99.98
0.61262	99.98
0.62928	99.98
0.64595	99.98
0.66262	99.99
0.67928	99.98
0.69595	99.98
0.71262	99.98
0.72928	99.98
0.74595	99.98
0.76262	99.98
0.77928	99.98
0.79595	99.98
0.81262	99.99
0.82928	99.98
0.84595	99.98
0.86262	99.98
0.87928	99.98
0.89595	99.98
0.91262	99.98
0.92928	99.98
0.94595	99.98
0.96262	99.98
0.97928	99.98
0.99595	99.98
1.01262	99.98
1.02928	99.98
1.04595	99.98
1.06262	99.98
1.07928	99.98
1.09595	99.98
1.11262	99.98
1.12928	99.98
1.14595	99.98
1.16262	99.98
1.17928	99.98
1.19595	99.98
1.21262	99.97
1.22928	99.98
1.24595	99.97
1.26262	99.98
1.27928	99.98
1.29595	99.98
1.31262	99.97
1.32928	99.98
1.34595	99.98
1.36262	99.98
1.37928	99.98
1.39595	99.98
1.41262	99.98
1.42928	99.98
1.44595	99.98
1.46262	99.98
1.47928	99.98
1.49595	99.98
1.51262	99.98
1.52928	99.98
1.54595	99.98
1.56262	99.98
1.57928	99.98
1.59595	99.98
1.61262	99.98
1.62928	99.98
1.64595	99.98
1.66262	99.98
1.67928	99.98
1.69595	99.98
1.71262	99.98
1.72928	99.98
1.74595	99.98
1.76262	99.98
1.77928	99.98
1.79595	99.98
1.81262	99.98
1.82928	99.98
1.84595	99.98
1.86262	99.98
1.87928	99.98
1.89595	99.97
1.91262	99.98
1.92928	99.98
1.94595	99.98
1.96262	99.98
1.97928	99.97
1.99595	99.97
2.01262	99.97
2.02928	99.97
2.04595	99.97
2.06262	99.97
2.07928	99.97
2.09595	99.97
2.11262	99.97
2.12928	99.97
2.14595	99.97
2.16262	99.96
2.17928	99.97
2.19595	99.97
2.21262	99.96
2.22928	99.96
2.24595	99.97
2.26262	99.97
2.27928	99.96
2.29595	99.96
2.31262	99.96
2.32928	99.96
2.34595	99.96
2.36262	99.96
2.37928	99.96
2.39595	99.96
2.41262	99.96
2.42928	99.96
2.44595	99.96
2.46262	99.96
2.47928	99.96
2.49595	99.96
2.51262	99.96
2.52928	99.97
2.54595	99.96
2.56262	99.96
2.57928	99.96
2.59595	99.96
2.61262	99.97
2.62928	99.96
2.64595	99.97
2.66262	99.97
2.67928	99.98
2.69595	99.98
2.71262	99.98
2.72928	99.98
2.74595	99.98
2.76262	99.98
2.77928	99.98
2.79595	99.98
2.81262	99.98
2.82928	99.99
2.84595	99.99
2.86262	99.99
2.87928	99.99
2.89595	99.99
2.91262	100.00
2.92928	99.99
2.94595	100.00
2.96262	100.00
2.97928	100.00
2.99595	100.01
3.01262	100.00
3.02928	100.01
3.04595	100.01
3.06262	100.01
3.07928	100.01
3.09595	100.02
3.11262	100.02
3.12928	100.02
3.14595	100.02
3.16262	100.02
3.17928	100.02
3.19595	100.02
3.21262	100.02
3.22928	100.02
3.24595	100.02
3.26262	100.03
3.27928	100.03
3.29595	100.03
3.31262	100.03
3.32928	100.03
3.34595	100.03
3.36262	100.03
3.37928	100.03
3.39595	100.04
3.41262	100.03
3.42928	100.03
3.44595	100.04
3.46262	100.03
3.47928	100.04
3.49595	100.04
3.51262	100.04
3.52928	100.04
3.54595	100.04
3.56262	100.04
3.57928	100.04
3.59595	100.04
3.61262	100.04
3.62928	100.04
3.64595	100.05
3.66262	100.05
3.67928	100.04
3.69595	100.05
3.71262	100.04
3.72928	100.04
3.74595	100.04
3.76262	100.04
3.77928	100.04
3.79595	100.04
3.81262	100.04
3.82928	100.04
3.84595	100.05
3.86262	100.05
3.87928	100.05
3.89595	100.04
3.91262	100.04
3.92928	100.05
3.94595	100.05
3.96262	100.05
3.97928	100.04
3.99595	100.04

[Status Trace (Carrier Gas Pressure)]
Interval(msec)	1000
# of Points	240
Start Time(min)	0.013
End Time(min)	3.996
Intensity Units	
Intensity Multiplier	1
R.Time (min)	Intensity
0.01262	57.98
0.02928	55.01
0.04595	57.79
0.06262	59.71
0.07928	58.86
0.09595	57.99
0.11262	57.99
0.12928	58.01
0.14595	58.01
0.16262	58.00
0.17928	58.00
0.19595	58.00
0.21262	58.00
0.22928	58.00
0.24595	58.00
0.26262	58.00
0.27928	58.00
0.29595	58.00
0.31262	58.00
0.32928	58.00
0.34595	58.00
0.36262	58.00
0.37928	58.00
0.39595	58.00
0.41262	58.00
0.42928	58.00
0.44595	58.00
0.46262	58.00
0.47928	58.00
0.49595	58.00
0.51262	58.00
0.52928	58.00
0.54595	58.00
0.56262	58.00
0.57928	58.00
0.59595	58.00
0.61262	58.00
0.62928	58.00
0.64595	58.00
0.66262	58.00
0.67928	58.00
0.69595	58.00
0.71262	58.00
0.72928	58.00
0.74595	58.00
0.76262	58.00
0.77928	58.00
0.79595	58.00
0.81262	58.00
0.82928	58.00
0.84595	58.00
0.86262	58.00
0.87928	58.00
0.89595	58.00
0.91262	58.00
0.92928	58.00
0.94595	58.00
0.96262	58.00
0.97928	58.00
0.99595	58.00
1.01262	58.00
1.02928	58.00
1.04595	58.00
1.06262	58.00
1.07928	58.00
1.09595	58.00
1.11262	58.00
1.12928	58.00
1.14595	58.00
1.16262	58.00
1.17928	58.00
1.19595	58.00
1.21262	58.00
1.22928	58.00
1.24595	58.00
1.26262	58.00
1.27928	58.00
1.29595	58.00
1.31262	58.00
1.32928	58.00
1.34595	58.00
1.36262	58.00
1.37928	58.00
1.39595	58.00
1.41262	58.00
1.42928	58.00
1.44595	58.00
1.46262	58.00
1.47928	58.00
1.49595	58.00
1.51262	58.00
1.52928	58.00
1.54595	58.00
1.56262	58.00
1.57928	58.00
1.59595	58.00
1.61262	58.00
1.62928	58.01
1.64595	58.00
1.66262	58.01
1.67928	58.01
1.69595	58.00
1.71262	58.00
1.72928	58.00
1.74595	58.00
1.76262	58.00
1.77928	58.00
1.79595	58.00
1.81262	58.00
1.82928	58.00
1.84595	58.00
1.86262	58.00
1.87928	58.00
1.89595	58.00
1.91262	58.00
1.92928	58.00
1.94595	58.00
1.96262	58.00
1.97928	58.00
1.99595	58.00
2.01262	58.00
2.02928	58.00
2.04595	58.00
2.06262	58.00
2.07928	58.00
2.09595	58.00
2.11262	58.00
2.12928	58.00
2.14595	58.00
2.16262	58.00
2.17928	58.00
2.19595	58.00
2.21262	58.00
2.22928	58.00
2.24595	58.00
2.26262	58.00
2.27928	58.00
2.29595	58.00
2.31262	58.00
2.32928	58.00
2.34595	58.00
2.36262	58.00
2.37928	57.99
2.39595	57.99
2.41262	58.00
2.42928	58.00
2.44595	58.00
2.46262	58.00
2.47928	58.00
2.49595	58.00
2.51262	57.99
2.52928	57.99
2.54595	58.00
2.56262	58.00
2.57928	58.00
2.59595	58.00
2.61262	58.00
2.62928	58.00
2.64595	58.00
2.66262	58.00
2.67928	58.00
2.69595	58.00
2.71262	58.00
2.72928	58.00
2.74595	58.00
2.76262	58.00
2.77928	58.00
2.79595	58.00
2.81262	58.00
2.82928	58.00
2.84595	58.00
2.86262	58.00
2.87928	58.00
2.89595	58.00
2.91262	58.00
2.92928	58.00
2.94595	58.00
2.96262	58.00
2.97928	58.00
2.99595	58.00
3.01262	58.00
3.02928	58.00
3.04595	58.00
3.06262	58.00
3.07928	58.00
3.09595	58.00
3.11262	58.00
3.12928	58.00
3.14595	58.00
3.16262	58.00
3.17928	58.00
3.19595	58.00
3.21262	58.00
3.22928	58.00
3.24595	58.00
3.26262	58.00
3.27928	58.00
3.29595	58.00
3.31262	58.00
3.32928	58.00
3.34595	58.00
3.36262	58.00
3.37928	58.00
3.39595	58.00
3.41262	58.00
3.42928	58.00
3.44595	58.00
3.46262	58.00
3.47928	58.00
3.49595	58.00
3.51262	58.00
3.52928	58.00
3.54595	58.00
3.56262	58.00
3.57928	58.00
3.59595	58.00
3.61262	58.00
3.62928	58.00
3.64595	58.00
3.66262	58.00
3.67928	58.00
3.69595	58.00
3.71262	58.00
3.72928	58.00
3.74595	58.00
3.76262	58.00
3.77928	58.00
3.79595	58.00
3.81262	58.00
3.82928	58.00
3.84595	58.00
3.86262	58.00
3.87928	58.00
3.89595	58.00
3.91262	58.00
3.92928	58.00
3.94595	58.00
3.96262	58.00
3.97928	58.00
3.99595	58.00

[Status Trace (Carrier Gas Flow)]
Interval(msec)	1000
# of Points	240
Start Time(min)	0.013
End Time(min)	3.996
Intensity Units	
Intensity Multiplier	1
R.Time (min)	Intensity
0.01262	34.56
0.02928	34.54
0.04595	34.55
0.06262	34.54
0.07928	34.51
0.09595	34.52
0.11262	34.52
0.12928	34.52
0.14595	34.52
0.16262	34.52
0.17928	34.51
0.19595	34.52
0.21262	34.52
0.22928	34.52
0.24595	34.52
0.26262	34.52
0.27928	34.51
0.29595	34.51
0.31262	34.52
0.32928	34.52
0.34595	34.51
0.36262	34.52
0.37928	34.52
0.39595	34.52
0.41262	34.52
0.42928	34.52
0.44595	34.52
0.46262	34.52
0.47928	34.52
0.49595	34.52
0.51262	34.52
0.52928	34.51
0.54595	34.52
0.56262	34.52
0.57928	34.52
0.59595	34.51
0.61262	34.52
0.62928	34.52
0.64595	34.51
0.66262	34.52
0.67928	34.52
0.69595	34.52
0.71262	34.52
0.72928	34.52
0.74595	34.52
0.76262	34.52
0.77928	34.52
0.79595	34.51
0.81262	34.52
0.82928	34.52
0.84595	34.52
0.86262	34.52
0.87928	34.52
0.89595	34.52
0.91262	34.52
0.92928	34.52
0.94595	34.52
0.96262	34.52
0.97928	34.52
0.99595	34.52
1.01262	34.52
1.02928	34.52
1.04595	34.52
1.06262	34.52
1.07928	34.52
1.09595	34.52
1.11262	34.52
1.12928	34.52
1.14595	34.52
1.16262	34.51
1.17928	34.52
1.19595	34.52
1.21262	34.51
1.22928	34.51
1.24595	34.52
1.26262	34.52
1.27928	34.52
1.29595	34.52
1.31262	34.51
1.32928	34.52
1.34595	34.52
1.36262	34.52
1.37928	34.52
1.39595	34.52
1.41262	34.52
1.42928	34.52
1.44595	34.51
1.46262	34.52
1.47928	34.52
1.49595	34.52
1.51262	34.52
1.52928	34.51
1.54595	34.51
1.56262	34.51
1.57928	34.52
1.59595	34.51
1.61262	34.52
1.62928	34.52
1.64595	34.52
1.66262	34.52
1.67928	34.52
1.69595	34.52
1.71262	34.51
1.72928	34.52
1.74595	34.51
1.76262	34.52
1.77928	34.52
1.79595	34.52
1.81262	34.51
1.82928	34.52
1.84595	34.52
1.86262	34.52
1.87928	34.52
1.89595	34.52
1.91262	34.52
1.92928	34.52
1.94595	34.52
1.96262	34.52
1.97928	34.52
1.99595	34.52
2.01262	34.51
2.02928	34.51
2.04595	34.51
2.06262	34.52
2.07928	34.52
2.09595	34.52
2.11262	34.51
2.12928	34.52
2.14595	34.52
2.16262	34.51
2.17928	34.52
2.19595	34.52
2.21262	34.52
2.22928	34.52
2.24595	34.52
2.26262	34.51
2.27928	34.52
2.29595	34.51
2.31262	34.52
2.32928	34.52
2.34595	34.51
2.36262	34.53
2.37928	34.52
2.39595	34.51
2.41262	34.52
2.42928	34.52
2.44595	34.52
2.46262	34.52
2.47928	34.51
2.49595	34.52
2.51262	34.52
2.52928	34.53
2.54595	34.51
2.56262	34.52
2.57928	34.52
2.59595	34.53
2.61262	34.52
2.62928	34.52
2.64595	34.52
2.66262	34.52
2.67928	34.52
2.69595	34.52
2.71262	34.52
2.72928	34.52
2.74595	34.52
2.76262	34.52
2.77928	34.52
2.79595	34.51
2.81262	34.52
2.82928	34.52
2.84595	34.52
2.86262	34.52
2.87928	34.52
2.89595	34.52
2.91262	34.52
2.92928	34.52
2.94595	34.52
2.96262	34.52
2.97928	34.52
2.99595	34.52
3.01262	34.52
3.02928	34.52
3.04595	34.52
3.06262	34.52
3.07928	34.52
3.09595	34.52
3.11262	34.52
3.12928	34.52
3.14595	34.51
3.16262	34.52
3.17928	34.52
3.19595	34.52
3.21262	34.51
3.22928	34.52
3.24595	34.52
3.26262	34.52
3.27928	34.52
3.29595	34.52
3.31262	34.52
3.32928	34.52
3.34595	34.52
3.36262	34.52
3.37928	34.52
3.39595	34.52
3.41262	34.52
3.42928	34.52
3.44595	34.51
3.46262	34.52
3.47928	34.52
3.49595	34.52
3.51262	34.52
3.52928	34.52
3.54595	34.52
3.56262	34.52
3.57928	34.53
3.59595	34.52
3.61262	34.51
3.62928	34.52
3.64595	34.52
3.66262	34.52
3.67928	34.51
3.69595	34.52
3.71262	34.52
3.72928	34.52
3.74595	34.52
3.76262	34.52
3.77928	34.52
3.79595	34.52
3.81262	34.52
3.82928	34.52
3.84595	34.52
3.86262	34.52
3.87928	34.51
3.89595	34.52
3.91262	34.52
3.92928	34.52
3.94595	34.52
3.96262	34.52
3.97928	34.52
3.99595	34.52

[Status Trace (Column Flow)]
Interval(msec)	1000
# of Points	240
Start Time(min)	0.013
End Time(min)	3.996
Intensity Units	
Intensity Multiplier	1
R.Time (min)	Intensity
0.01262	5.57
0.02928	5.22
0.04595	5.55
0.06262	5.77
0.07928	5.67
0.09595	5.57
0.11262	5.57
0.12928	5.57
0.14595	5.57
0.16262	5.57
0.17928	5.57
0.19595	5.57
0.21262	5.57
0.22928	5.57
0.24595	5.57
0.26262	5.57
0.27928	5.57
0.29595	5.57
0.31262	5.57
0.32928	5.57
0.34595	5.57
0.36262	5.57
0.37928	5.57
0.39595	5.57
0.41262	5.57
0.42928	5.57
0.44595	5.57
0.46262	5.57
0.47928	5.57
0.49595	5.57
0.51262	5.57
0.52928	5.57
0.54595	5.57
0.56262	5.57
0.57928	5.57
0.59595	5.57
0.61262	5.57
0.62928	5.57
0.64595	5.57
0.66262	5.57
0.67928	5.57
0.69595	5.57
0.71262	5.57
0.72928	5.57
0.74595	5.57
0.76262	5.57
0.77928	5.57
0.79595	5.57
0.81262	5.57
0.82928	5.57
0.84595	5.57
0.86262	5.57
0.87928	5.57
0.89595	5.57
0.91262	5.57
0.92928	5.57
0.94595	5.57
0.96262	5.57
0.97928	5.57
0.99595	5.57
1.01262	5.57
1.02928	5.57
1.04595	5.57
1.06262	5.57
1.07928	5.57
1.09595	5.57
1.11262	5.57
1.12928	5.57
1.14595	5.57
1.16262	5.57
1.17928	5.57
1.19595	5.57
1.21262	5.57
1.22928	5.57
1.24595	5.57
1.26262	5.57
1.27928	5.57
1.29595	5.57
1.31262	5.57
1.32928	5.57
1.34595	5.57
1.36262	5.57
1.37928	5.57
1.39595	5.57
1.41262	5.57
1.42928	5.57
1.44595	5.57
1.46262	5.57
1.47928	5.57
1.49595	5.57
1.51262	5.57
1.52928	5.57
1.54595	5.57
1.56262	5.57
1.57928	5.57
1.59595	5.57
1.61262	5.57
1.62928	5.57
1.64595	5.56
1.66262	5.55
1.67928	5.54
1.69595	5.53
1.71262	5.52
1.72928	5.51
1.74595	5.50
1.76262	5.49
1.77928	5.47
1.79595	5.46
1.81262	5.45
1.82928	5.44
1.84595	5.43
1.86262	5.42
1.87928	5.41
1.89595	5.40
1.91262	5.39
1.92928	5.38
1.94595	5.37
1.96262	5.37
1.97928	5.35
1.99595	5.34
2.01262	5.34
2.02928	5.33
2.04595	5.32
2.06262	5.31
2.07928	5.30
2.09595	5.29
2.11262	5.28
2.12928	5.27
2.14595	5.26
2.16262	5.25
2.17928	5.24
2.19595	5.23
2.21262	5.22
2.22928	5.21
2.24595	5.20
2.26262	5.19
2.27928	5.18
2.29595	5.17
2.31262	5.17
2.32928	5.16
2.34595	5.15
2.36262	5.14
2.37928	5.13
2.39595	5.13
2.41262	5.13
2.42928	5.13
2.44595	5.13
2.46262	5.13
2.47928	5.13
2.49595	5.13
2.51262	5.13
2.52928	5.13
2.54595	5.13
2.56262	5.13
2.57928	5.13
2.59595	5.13
2.61262	5.13
2.62928	5.13
2.64595	5.13
2.66262	5.13
2.67928	5.13
2.69595	5.13
2.71262	5.13
2.72928	5.13
2.74595	5.13
2.76262	5.13
2.77928	5.13
2.79595	5.13
2.81262	5.13
2.82928	5.13
2.84595	5.13
2.86262	5.13
2.87928	5.13
2.89595	5.13
2.91262	5.13
2.92928	5.13
2.94595	5.13
2.96262	5.13
2.97928	5.13
2.99595	5.12
3.01262	5.12
3.02928	5.12
3.04595	5.12
3.06262	5.12
3.07928	5.12
3.09595	5.12
3.11262	5.12
3.12928	5.12
3.14595	5.12
3.16262	5.12
3.17928	5.12
3.19595	5.12
3.21262	5.12
3.22928	5.12
3.24595	5.12
3.26262	5.12
3.27928	5.12
3.29595	5.12
3.31262	5.12
3.32928	5.12
3.34595	5.13
3.36262	5.13
3.37928	5.13
3.39595	5.13
3.41262	5.13
3.42928	5.13
3.44595	5.12
3.46262	5.12
3.47928	5.12
3.49595	5.12
3.51262	5.12
3.52928	5.12
3.54595	5.12
3.56262	5.12
3.57928	5.12
3.59595	5.12
3.61262	5.12
3.62928	5.12
3.64595	5.12
3.66262	5.12
3.67928	5.12
3.69595	5.12
3.71262	5.12
3.72928	5.12
3.74595	5.12
3.76262	5.12
3.77928	5.12
3.79595	5.12
3.81262	5.12
3.82928	5.12
3.84595	5.12
3.86262	5.12
3.87928	5.12
3.89595	5.12
3.91262	5.12
3.92928	5.12
3.94595	5.12
3.96262	5.12
3.97928	5.12
3.99595	5.12

[Status Trace (Linear Velocity)]
Interval(msec)	1000
# of Points	240
Start Time(min)	0.013
End Time(min)	3.996
Intensity Units	
Intensity Multiplier	1
R.Time (min)	Intensity
0.01262	39.02
0.02928	37.06
0.04595	38.88
0.06262	40.14
0.07928	39.58
0.09595	39.01
0.11262	39.02
0.12928	39.03
0.14595	39.03
0.16262	39.02
0.17928	39.03
0.19595	39.03
0.21262	39.03
0.22928	39.03
0.24595	39.03
0.26262	39.03
0.27928	39.03
0.29595	39.03
0.31262	39.03
0.32928	39.03
0.34595	39.03
0.36262	39.03
0.37928	39.03
0.39595	39.03
0.41262	39.03
0.42928	39.03
0.44595	39.03
0.46262	39.03
0.47928	39.03
0.49595	39.03
0.51262	39.03
0.52928	39.03
0.54595	39.02
0.56262	39.03
0.57928	39.03
0.59595	39.03
0.61262	39.03
0.62928	39.03
0.64595	39.03
0.66262	39.03
0.67928	39.03
0.69595	39.03
0.71262	39.03
0.72928	39.03
0.74595	39.03
0.76262	39.03
0.77928	39.02
0.79595	39.02
0.81262	39.02
0.82928	39.02
0.84595	39.02
0.86262	39.03
0.87928	39.03
0.89595	39.03
0.91262	39.03
0.92928	39.03
0.94595	39.03
0.96262	39.03
0.97928	39.03
0.99595	39.03
1.01262	39.03
1.02928	39.03
1.04595	39.03
1.06262	39.03
1.07928	39.03
1.09595	39.03
1.11262	39.03
1.12928	39.03
1.14595	39.03
1.16262	39.03
1.17928	39.03
1.19595	39.03
1.21262	39.03
1.22928	39.03
1.24595	39.03
1.26262	39.03
1.27928	39.03
1.29595	39.03
1.31262	39.03
1.32928	39.03
1.34595	39.03
1.36262	39.03
1.37928	39.03
1.39595	39.03
1.41262	39.03
1.42928	39.03
1.44595	39.03
1.46262	39.03
1.47928	39.03
1.49595	39.03
1.51262	39.03
1.52928	39.03
1.54595	39.03
1.56262	39.03
1.57928	39.03
1.59595	39.03
1.61262	39.03
1.62928	39.01
1.64595	38.99
1.66262	38.97
1.67928	38.93
1.69595	38.89
1.71262	38.86
1.72928	38.82
1.74595	38.80
1.76262	38.77
1.77928	38.73
1.79595	38.70
1.81262	38.67
1.82928	38.64
1.84595	38.61
1.86262	38.58
1.87928	38.55
1.89595	38.52
1.91262	38.49
1.92928	38.45
1.94595	38.42
1.96262	38.40
1.97928	38.36
1.99595	38.33
2.01262	38.31
2.02928	38.27
2.04595	38.24
2.06262	38.21
2.07928	38.18
2.09595	38.15
2.11262	38.12
2.12928	38.09
2.14595	38.06
2.16262	38.04
2.17928	38.00
2.19595	37.97
2.21262	37.95
2.22928	37.91
2.24595	37.89
2.26262	37.86
2.27928	37.83
2.29595	37.80
2.31262	37.77
2.32928	37.74
2.34595	37.71
2.36262	37.69
2.37928	37.67
2.39595	37.67
2.41262	37.67
2.42928	37.67
2.44595	37.67
2.46262	37.67
2.47928	37.67
2.49595	37.67
2.51262	37.66
2.52928	37.66
2.54595	37.66
2.56262	37.66
2.57928	37.66
2.59595	37.66
2.61262	37.66
2.62928	37.66
2.64595	37.66
2.66262	37.66
2.67928	37.66
2.69595	37.66
2.71262	37.66
2.72928	37.66
2.74595	37.66
2.76262	37.65
2.77928	37.65
2.79595	37.65
2.81262	37.65
2.82928	37.65
2.84595	37.65
2.86262	37.65
2.87928	37.65
2.89595	37.65
2.91262	37.65
2.92928	37.65
2.94595	37.65
2.96262	37.65
2.97928	37.64
2.99595	37.64
3.01262	37.64
3.02928	37.64
3.04595	37.64
3.06262	37.64
3.07928	37.64
3.09595	37.64
3.11262	37.64
3.12928	37.64
3.14595	37.64
3.16262	37.64
3.17928	37.64
3.19595	37.63
3.21262	37.63
3.22928	37.63
3.24595	37.63
3.26262	37.63
3.27928	37.64
3.29595	37.64
3.31262	37.64
3.32928	37.64
3.34595	37.65
3.36262	37.65
3.37928	37.65
3.39595	37.65
3.41262	37.65
3.42928	37.64
3.44595	37.64
3.46262	37.64
3.47928	37.64
3.49595	37.64
3.51262	37.64
3.52928	37.64
3.54595	37.64
3.56262	37.64
3.57928	37.64
3.59595	37.64
3.61262	37.64
3.62928	37.64
3.64595	37.64
3.66262	37.64
3.67928	37.64
3.69595	37.64
3.71262	37.64
3.72928	37.64
3.74595	37.64
3.76262	37.64
3.77928	37.64
3.79595	37.64
3.81262	37.64
3.82928	37.64
3.84595	37.64
3.86262	37.64
3.87928	37.64
3.89595	37.64
3.91262	37.64
3.92928	37.64
3.94595	37.64
3.96262	37.64
3.97928	37.64
3.99595	37.64

