[Header]
Application Name	LabSolutions
Version	5.110
Data File Name	C:\Users\User\Desktop\GC Analyses\Jack\Nachusa Grasslands Sampling\T1 Timepoint July 12th\T1_07122022_063.gcd
Output Date	3/14/2023
Output Time	3:41:01 PM

[File Information]
Type	Data File
Generated	3/8/2023 8:14:55 PM
Generated by	System Administrator
Modified	3/8/2023 8:21:33 PM
Modified by	System Administrator

[Sample Information]
Operator Name	System Administrator
Acquired	3/8/2023 8:17:32 PM
Sample Type	0:Unknown
Level	0
Sample Name	063
Sample ID	063
ISTD Amount1	1
ISTD Amount2	1
ISTD Amount3	1
ISTD Amount4	1
ISTD Amount5	1
ISTD Amount6	1
ISTD Amount7	1
ISTD Amount8	1
ISTD Amount9	1
ISTD Amount10	1
ISTD Amount11	1
ISTD Amount12	1
ISTD Amount13	1
ISTD Amount14	1
ISTD Amount15	1
ISTD Amount16	1
ISTD Amount17	1
ISTD Amount18	1
ISTD Amount19	1
ISTD Amount20	1
ISTD Amount21	1
ISTD Amount22	1
ISTD Amount23	1
ISTD Amount24	1
ISTD Amount25	1
ISTD Amount26	1
ISTD Amount27	1
ISTD Amount28	1
ISTD Amount29	1
ISTD Amount30	1
ISTD Amount31	1
ISTD Amount32	1
Sample Amount	1
Dilution Factor	1
Vial#	62
Injection Volume	1
Injection Count	1
Bar Code	

[Original Files]
Data File	C:\Users\User\Desktop\GC Analyses\Jack\Nachusa Grasslands Sampling\T1 Timepoint July 12th\T1_07122022_063.gcd
Method File	C:\LabSolutions\Data\GHG_4min_2022\ghg3_togas_w_acet_4 min_new_int.gcm
Batch File	C:\LabSolutions\Data\AutoSamplerTesting\T1_07122022.gcb
Report Format File	c:\LabSolutions\System\DEFAULT.lsr

[File Description]


[Configuration]
Instrument Name	C0B7VH3-Instrument1
Instrument #	1
Line #	1
# of Detectors	3
Detector ID	DET#1	DET#2	DET#3
Detector Name	FID	PTCD	ECD
# of Channels	1	1	1

[Peak Table(Ch1)]
# of Peaks	3
Peak#	R.Time	I.Time	F.Time	Area	Height	A/H	Conc.	Mark	ID#	Name	k'	Plate #	Plate Ht.	Tailing	Resolution	Sep.Factor	Area Ratio	Height Ratio	Conc. %	Norm Conc.
1	1.476	1.435	1.538	27933	13070	2.137	197.207	   	1	CO	0.000	9044	16.585	1.352	0.000	0.000	0	0	24.527	24.527
2	1.567	1.538	1.637	4918	2320	2.119	95.085	 V 	2	CH4	0.062	10192	14.717	0.000	1.477	0.000	0	0	11.826	11.826
3	1.996	1.952	2.601	2039038	959768	2.125	511.743	   	3	CO2	0.353	17240	8.701	1.322	6.980	5.680	0	0	63.647	63.647

[Peak Table(Ch2)]
# of Peaks	0

[Peak Table(Ch3)]
# of Peaks	6
Peak#	R.Time	I.Time	F.Time	Area	Height	A/H	Conc.	Mark	ID#	Name	k'	Plate #	Plate Ht.	Tailing	Resolution	Sep.Factor	Area Ratio	Height Ratio	Conc. %	Norm Conc.
1	2.462	2.253	2.513	2107	532	3.957	0.000	   			0.000	7586	19.773	0.000	0.000	0.000	0	0	0.000	0.000
2	2.539	2.513	2.638	1472	322	4.565	0.000	 V 			0.031	3266	45.922	0.000	0.530	0.000	0	0	0.000	0.000
3	2.678	2.638	2.733	468	104	4.511	0.000	 V 			0.088	2594	57.827	0.000	0.718	2.810	0	0	0.000	0.000
4	2.873	2.733	3.184	21493	5043	4.261	0.549	SV 	1	N2O	0.167	12858	11.666	1.832	1.247	1.898	0	0	100.000	100.000
5	3.170	3.159	3.181	32	43	0.756	0.000	T  	2	SF6	0.287	304313	0.493	1.000	4.778	1.723	0	0	0.000	0.000
6	3.375	3.192	3.995	14407	535	26.940	0.000	   	2	SF6	0.371	447	335.874	2.148	0.621	1.290	0	0	0.000	0.000

[Compound Results(Ch1)]
# of IDs	6
ID#	Name	R.Time	Area	Height	Conc.	Curve	3rd	2nd	1st	Constant	Area Ratio	Height Ratio	Conc. %	Norm Conc.
1	CO	1.476	27933	13070	197.207	Linear	0.000000e+00	0.000000e+00	1.416423e+002	0.000000e+00	0	0	24.527	24.527
2	CH4	1.567	4918	2320	95.085	Linear	0.000000e+00	0.000000e+00	5.171738e+001	0.000000e+00	0	0	11.826	11.826
3	CO2	1.996	2039038	959768	511.743	Linear	0.000000e+00	0.000000e+00	3.984494e+003	0.000000e+00	0	0	63.647	63.647
4	Ethylene	0.000	0	0	0.000	Linear	0.000000e+00	0.000000e+00	0.000000e+00	0.000000e+00	0	0	0.000	0.000
5	Acetylene	0.000	0	0	0.000	Linear	0.000000e+00	0.000000e+00	0.000000e+00	0.000000e+00	0	0	0.000	0.000
6	Ethane	0.000	0	0	0.000	Linear	0.000000e+00	0.000000e+00	0.000000e+00	0.000000e+00	0	0	0.000	0.000

[Compound Results(Ch2)]
# of IDs	5
ID#	Name	R.Time	Area	Height	Conc.	Curve	3rd	2nd	1st	Constant	Area Ratio	Height Ratio	Conc. %	Norm Conc.
1	Hydrogen	0.000	0	0	0.000	Linear	0.000000e+00	0.000000e+00	0.000000e+00	0.000000e+00	0	0	0.000	0.000
2	Oxygen	0.000	0	0	0.000	Linear	0.000000e+00	0.000000e+00	0.000000e+00	0.000000e+00	0	0	0.000	0.000
3	Nitrogen	0.000	0	0	0.000	Linear	0.000000e+00	0.000000e+00	0.000000e+00	0.000000e+00	0	0	0.000	0.000
4	Methane	0.000	0	0	0.000	Linear	0.000000e+00	0.000000e+00	0.000000e+00	0.000000e+00	0	0	0.000	0.000
5	Carbon Monoxide	0.000	0	0	0.000	Linear	0.000000e+00	0.000000e+00	0.000000e+00	0.000000e+00	0	0	0.000	0.000

[Compound Results(Ch3)]
# of IDs	2
ID#	Name	R.Time	Area	Height	Conc.	Curve	3rd	2nd	1st	Constant	Area Ratio	Height Ratio	Conc. %	Norm Conc.
1	N2O	2.873	21493	5043	0.549	Linear	0.000000e+00	0.000000e+00	3.915173e+004	0.000000e+00	0	0	100.000	100.000
2	SF6	3.375	14439	578	0.000	Linear	0.000000e+00	0.000000e+00	0.000000e+00	0.000000e+00	0	0	0.000	0.000

[Group Results(Ch1)]
# of Groups	0

[Group Results(Ch2)]
# of Groups	0

[Group Results(Ch3)]
# of Groups	0

[Chromatogram (Ch1)]
Interval(msec)	220
# of Points	1091
Start Time(min)	0.002
End Time(min)	3.998
R.Time (min)	Intensity
0.00167	37
0.00533	32
0.00900	27
0.01267	21
0.01633	16
0.02000	12
0.02367	13
0.02733	17
0.03100	19
0.03467	16
0.03833	14
0.04200	12
0.04567	12
0.04933	15
0.05300	17
0.05667	14
0.06033	10
0.06400	11
0.06767	17
0.07133	26
0.07500	38
0.07867	46
0.08233	43
0.08600	34
0.08967	24
0.09333	18
0.09700	17
0.10067	15
0.10433	15
0.10800	15
0.11167	16
0.11533	17
0.11900	14
0.12267	9
0.12633	5
0.13000	7
0.13367	10
0.13733	13
0.14100	13
0.14467	14
0.14833	18
0.15200	22
0.15567	24
0.15933	20
0.16300	14
0.16667	10
0.17033	6
0.17400	4
0.17767	4
0.18133	8
0.18500	16
0.18867	27
0.19233	38
0.19600	47
0.19967	50
0.20333	47
0.20700	39
0.21067	27
0.21433	17
0.21800	10
0.22167	4
0.22533	-1
0.22900	-3
0.23267	0
0.23633	7
0.24000	16
0.24367	26
0.24733	37
0.25100	48
0.25467	58
0.25833	66
0.26200	72
0.26567	74
0.26933	76
0.27300	82
0.27667	83
0.28033	84
0.28400	81
0.28767	71
0.29133	60
0.29500	50
0.29867	43
0.30233	44
0.30600	54
0.30967	73
0.31333	95
0.31700	113
0.32067	117
0.32433	111
0.32800	103
0.33167	93
0.33533	83
0.33900	74
0.34267	73
0.34633	71
0.35000	68
0.35367	66
0.35733	64
0.36100	62
0.36467	58
0.36833	56
0.37200	56
0.37567	60
0.37933	66
0.38300	73
0.38667	79
0.39033	77
0.39400	71
0.39767	69
0.40133	70
0.40500	74
0.40867	75
0.41233	77
0.41600	75
0.41967	72
0.42333	70
0.42700	64
0.43067	57
0.43433	52
0.43800	47
0.44167	39
0.44533	30
0.44900	22
0.45267	17
0.45633	14
0.46000	13
0.46367	20
0.46733	26
0.47100	27
0.47467	26
0.47833	25
0.48200	23
0.48567	21
0.48933	22
0.49300	22
0.49667	19
0.50033	15
0.50400	13
0.50767	12
0.51133	16
0.51500	22
0.51867	27
0.52233	30
0.52600	31
0.52967	33
0.53333	35
0.53700	35
0.54067	31
0.54433	25
0.54800	19
0.55167	13
0.55533	11
0.55900	13
0.56267	14
0.56633	13
0.57000	13
0.57367	14
0.57733	16
0.58100	16
0.58467	12
0.58833	9
0.59200	10
0.59567	12
0.59933	13
0.60300	14
0.60667	11
0.61033	8
0.61400	3
0.61767	-4
0.62133	-11
0.62500	-15
0.62867	-15
0.63233	-14
0.63600	-11
0.63967	-9
0.64333	-9
0.64700	-6
0.65067	-2
0.65433	-0
0.65800	1
0.66167	3
0.66533	2
0.66900	-2
0.67267	-2
0.67633	2
0.68000	7
0.68367	10
0.68733	12
0.69100	11
0.69467	7
0.69833	4
0.70200	1
0.70567	-2
0.70933	-0
0.71300	0
0.71667	-2
0.72033	-4
0.72400	-3
0.72767	0
0.73133	3
0.73500	2
0.73867	-1
0.74233	-1
0.74600	4
0.74967	9
0.75333	7
0.75700	0
0.76067	-5
0.76433	-7
0.76800	-10
0.77167	-12
0.77533	-10
0.77900	-3
0.78267	2
0.78633	2
0.79000	1
0.79367	-3
0.79733	-7
0.80100	-9
0.80467	-9
0.80833	-6
0.81200	-2
0.81567	0
0.81933	1
0.82300	3
0.82667	2
0.83033	-0
0.83400	-2
0.83767	-2
0.84133	-4
0.84500	-8
0.84867	-14
0.85233	-18
0.85600	-21
0.85967	-22
0.86333	-21
0.86700	-18
0.87067	-16
0.87433	-18
0.87800	-18
0.88167	-14
0.88533	-9
0.88900	-7
0.89267	-9
0.89633	-8
0.90000	-7
0.90367	-5
0.90733	-5
0.91100	-7
0.91467	-7
0.91833	-0
0.92200	6
0.92567	6
0.92933	4
0.93300	-1
0.93667	-6
0.94033	-10
0.94400	-15
0.94767	-16
0.95133	-11
0.95500	-5
0.95867	-5
0.96233	-13
0.96600	-24
0.96967	-33
0.97333	-40
0.97700	-43
0.98067	-43
0.98433	-42
0.98800	-40
0.99167	-37
0.99533	-34
0.99900	-26
1.00267	-13
1.00633	-2
1.01000	3
1.01367	3
1.01733	-1
1.02100	-6
1.02467	-13
1.02833	-22
1.03200	-26
1.03567	-22
1.03933	-14
1.04300	-11
1.04667	-14
1.05033	-21
1.05400	-27
1.05767	-33
1.06133	-38
1.06500	-36
1.06867	-32
1.07233	-27
1.07600	-24
1.07967	-21
1.08333	-20
1.08700	-17
1.09067	-15
1.09433	-15
1.09800	-18
1.10167	-21
1.10533	-25
1.10900	-25
1.11267	-23
1.11633	-19
1.12000	-12
1.12367	-9
1.12733	-9
1.13100	-13
1.13467	-18
1.13833	-20
1.14200	-19
1.14567	-17
1.14933	-15
1.15300	-15
1.15667	-18
1.16033	-18
1.16400	-19
1.16767	-24
1.17133	-30
1.17500	-34
1.17867	-36
1.18233	-35
1.18600	-35
1.18967	-36
1.19333	-33
1.19700	-27
1.20067	-21
1.20433	-15
1.20800	-7
1.21167	-5
1.21533	-7
1.21900	-10
1.22267	-14
1.22633	-17
1.23000	-19
1.23367	-21
1.23733	-19
1.24100	-17
1.24467	-16
1.24833	-18
1.25200	-22
1.25567	-23
1.25933	-23
1.26300	-21
1.26667	-20
1.27033	-18
1.27400	-17
1.27767	-16
1.28133	-15
1.28500	-11
1.28867	-7
1.29233	-6
1.29600	-9
1.29967	-13
1.30333	-13
1.30700	-13
1.31067	-12
1.31433	-9
1.31800	-5
1.32167	-4
1.32533	-2
1.32900	1
1.33267	8
1.33633	13
1.34000	17
1.34367	22
1.34733	28
1.35100	31
1.35467	31
1.35833	27
1.36200	21
1.36567	18
1.36933	17
1.37300	16
1.37667	18
1.38033	22
1.38400	29
1.38767	33
1.39133	33
1.39500	32
1.39867	32
1.40233	30
1.40600	25
1.40967	22
1.41333	18
1.41700	15
1.42067	16
1.42433	9
1.42800	-0
1.43167	-4
1.43533	3
1.43900	33
1.44267	126
1.44633	347
1.45000	863
1.45367	2052
1.45733	4077
1.46100	6571
1.46467	8991
1.46833	10986
1.47200	12389
1.47567	13083
1.47933	12950
1.48300	11970
1.48667	10327
1.49033	8371
1.49400	6455
1.49767	4804
1.50133	3501
1.50500	2530
1.50867	1833
1.51233	1346
1.51600	1009
1.51967	776
1.52333	611
1.52700	493
1.53067	405
1.53433	345
1.53800	317
1.54167	349
1.54533	494
1.54900	784
1.55267	1180
1.55633	1594
1.56000	1952
1.56367	2214
1.56733	2356
1.57100	2349
1.57467	2177
1.57833	1869
1.58200	1495
1.58567	1134
1.58933	836
1.59300	612
1.59667	449
1.60033	329
1.60400	241
1.60767	182
1.61133	144
1.61500	120
1.61867	103
1.62233	89
1.62600	77
1.62967	67
1.63333	59
1.63700	52
1.64067	50
1.64433	48
1.64800	49
1.65167	54
1.65533	61
1.65900	66
1.66267	68
1.66633	65
1.67000	58
1.67367	53
1.67733	50
1.68100	49
1.68467	47
1.68833	45
1.69200	48
1.69567	57
1.69933	62
1.70300	60
1.70667	50
1.71033	38
1.71400	32
1.71767	31
1.72133	31
1.72500	33
1.72867	34
1.73233	33
1.73600	30
1.73967	25
1.74333	21
1.74700	22
1.75067	32
1.75433	46
1.75800	56
1.76167	61
1.76533	59
1.76900	57
1.77267	54
1.77633	51
1.78000	44
1.78367	39
1.78733	32
1.79100	26
1.79467	23
1.79833	22
1.80200	21
1.80567	23
1.80933	28
1.81300	32
1.81667	33
1.82033	33
1.82400	34
1.82767	36
1.83133	38
1.83500	43
1.83867	50
1.84233	54
1.84600	55
1.84967	51
1.85333	45
1.85700	36
1.86067	31
1.86433	32
1.86800	31
1.87167	28
1.87533	29
1.87900	35
1.88267	44
1.88633	52
1.89000	58
1.89367	56
1.89733	53
1.90100	50
1.90467	45
1.90833	43
1.91200	41
1.91567	38
1.91933	35
1.92300	33
1.92667	33
1.93033	36
1.93400	41
1.93767	44
1.94133	47
1.94500	47
1.94867	47
1.95233	68
1.95600	206
1.95967	1009
1.96333	4778
1.96700	18241
1.97067	55091
1.97433	133201
1.97800	262429
1.98167	432914
1.98533	616586
1.98900	781034
1.99267	900909
1.99633	959865
2.00000	951106
2.00367	879547
2.00733	761665
2.01100	620941
2.01467	480396
2.01833	356340
2.02200	256340
2.02567	180877
2.02933	126518
2.03300	88584
2.03667	62634
2.04033	45072
2.04400	33219
2.04767	25186
2.05133	19687
2.05500	15860
2.05867	13136
2.06233	11150
2.06600	9669
2.06967	8537
2.07333	7647
2.07700	6929
2.08067	6342
2.08433	5847
2.08800	5426
2.09167	5065
2.09533	4749
2.09900	4469
2.10267	4220
2.10633	3995
2.11000	3791
2.11367	3607
2.11733	3444
2.12100	3297
2.12467	3159
2.12833	3029
2.13200	2910
2.13567	2799
2.13933	2693
2.14300	2591
2.14667	2495
2.15033	2404
2.15400	2323
2.15767	2249
2.16133	2177
2.16500	2108
2.16867	2048
2.17233	1998
2.17600	1956
2.17967	1917
2.18333	1878
2.18700	1832
2.19067	1783
2.19433	1733
2.19800	1680
2.20167	1631
2.20533	1583
2.20900	1536
2.21267	1488
2.21633	1445
2.22000	1409
2.22367	1380
2.22733	1353
2.23100	1327
2.23467	1304
2.23833	1283
2.24200	1261
2.24567	1235
2.24933	1207
2.25300	1179
2.25667	1157
2.26033	1136
2.26400	1112
2.26767	1089
2.27133	1071
2.27500	1058
2.27867	1046
2.28233	1036
2.28600	1025
2.28967	1011
2.29333	995
2.29700	982
2.30067	973
2.30433	968
2.30800	960
2.31167	946
2.31533	931
2.31900	917
2.32267	904
2.32633	890
2.33000	876
2.33367	863
2.33733	852
2.34100	842
2.34467	836
2.34833	834
2.35200	832
2.35567	821
2.35933	806
2.36300	791
2.36667	776
2.37033	762
2.37400	746
2.37767	731
2.38133	717
2.38500	706
2.38867	700
2.39233	697
2.39600	698
2.39967	699
2.40333	699
2.40700	698
2.41067	696
2.41433	689
2.41800	683
2.42167	680
2.42533	679
2.42900	676
2.43267	669
2.43633	661
2.44000	656
2.44367	651
2.44733	647
2.45100	642
2.45467	637
2.45833	632
2.46200	628
2.46567	625
2.46933	622
2.47300	621
2.47667	621
2.48033	620
2.48400	613
2.48767	599
2.49133	584
2.49500	571
2.49867	557
2.50233	549
2.50600	550
2.50967	552
2.51333	556
2.51700	562
2.52067	567
2.52433	566
2.52800	557
2.53167	550
2.53533	543
2.53900	537
2.54267	534
2.54633	533
2.55000	530
2.55367	529
2.55733	531
2.56100	530
2.56467	524
2.56833	516
2.57200	510
2.57567	509
2.57933	510
2.58300	510
2.58667	509
2.59033	507
2.59400	503
2.59767	498
2.60133	490
2.60500	485
2.60867	484
2.61233	482
2.61600	478
2.61967	479
2.62333	487
2.62700	487
2.63067	482
2.63433	474
2.63800	467
2.64167	470
2.64533	477
2.64900	482
2.65267	484
2.65633	485
2.66000	484
2.66367	480
2.66733	473
2.67100	467
2.67467	463
2.67833	460
2.68200	456
2.68567	449
2.68933	442
2.69300	436
2.69667	431
2.70033	424
2.70400	419
2.70767	415
2.71133	409
2.71500	403
2.71867	401
2.72233	403
2.72600	408
2.72967	411
2.73333	419
2.73700	432
2.74067	448
2.74433	461
2.74800	468
2.75167	468
2.75533	461
2.75900	451
2.76267	443
2.76633	435
2.77000	427
2.77367	418
2.77733	409
2.78100	401
2.78467	400
2.78833	404
2.79200	411
2.79567	421
2.79933	426
2.80300	427
2.80667	425
2.81033	426
2.81400	427
2.81767	423
2.82133	418
2.82500	420
2.82867	422
2.83233	422
2.83600	419
2.83967	416
2.84333	416
2.84700	420
2.85067	427
2.85433	429
2.85800	426
2.86167	421
2.86533	417
2.86900	412
2.87267	409
2.87633	407
2.88000	408
2.88367	411
2.88733	413
2.89100	414
2.89467	414
2.89833	417
2.90200	416
2.90567	415
2.90933	411
2.91300	406
2.91667	401
2.92033	395
2.92400	390
2.92767	388
2.93133	390
2.93500	392
2.93867	393
2.94233	394
2.94600	397
2.94967	399
2.95333	402
2.95700	408
2.96067	415
2.96433	419
2.96800	422
2.97167	422
2.97533	419
2.97900	415
2.98267	412
2.98633	410
2.99000	407
2.99367	404
2.99733	399
3.00100	391
3.00467	382
3.00833	376
3.01200	376
3.01567	377
3.01933	377
3.02300	377
3.02667	383
3.03033	388
3.03400	386
3.03767	385
3.04133	389
3.04500	396
3.04867	400
3.05233	399
3.05600	395
3.05967	389
3.06333	378
3.06700	369
3.07067	363
3.07433	359
3.07800	358
3.08167	358
3.08533	359
3.08900	360
3.09267	359
3.09633	359
3.10000	357
3.10367	355
3.10733	355
3.11100	360
3.11467	366
3.11833	367
3.12200	362
3.12567	359
3.12933	359
3.13300	358
3.13667	359
3.14033	365
3.14400	375
3.14767	383
3.15133	386
3.15500	386
3.15867	384
3.16233	378
3.16600	371
3.16967	363
3.17333	359
3.17700	356
3.18067	357
3.18433	362
3.18800	367
3.19167	368
3.19533	361
3.19900	354
3.20267	351
3.20633	349
3.21000	348
3.21367	346
3.21733	341
3.22100	334
3.22467	327
3.22833	322
3.23200	321
3.23567	326
3.23933	331
3.24300	332
3.24667	333
3.25033	332
3.25400	332
3.25767	336
3.26133	338
3.26500	343
3.26867	349
3.27233	352
3.27600	353
3.27967	351
3.28333	346
3.28700	338
3.29067	330
3.29433	328
3.29800	327
3.30167	328
3.30533	329
3.30900	329
3.31267	330
3.31633	335
3.32000	336
3.32367	331
3.32733	330
3.33100	330
3.33467	329
3.33833	326
3.34200	319
3.34567	318
3.34933	320
3.35300	322
3.35667	326
3.36033	327
3.36400	323
3.36767	316
3.37133	308
3.37500	305
3.37867	309
3.38233	318
3.38600	325
3.38967	326
3.39333	320
3.39700	310
3.40067	300
3.40433	295
3.40800	299
3.41167	307
3.41533	320
3.41900	329
3.42267	333
3.42633	334
3.43000	331
3.43367	330
3.43733	331
3.44100	333
3.44467	331
3.44833	325
3.45200	315
3.45567	303
3.45933	290
3.46300	280
3.46667	273
3.47033	270
3.47400	271
3.47767	275
3.48133	282
3.48500	283
3.48867	285
3.49233	290
3.49600	291
3.49967	291
3.50333	292
3.50700	292
3.51067	293
3.51433	291
3.51800	295
3.52167	305
3.52533	314
3.52900	316
3.53267	311
3.53633	298
3.54000	285
3.54367	279
3.54733	277
3.55100	282
3.55467	291
3.55833	297
3.56200	298
3.56567	299
3.56933	302
3.57300	304
3.57667	304
3.58033	298
3.58400	287
3.58767	275
3.59133	261
3.59500	250
3.59867	243
3.60233	243
3.60600	247
3.60967	248
3.61333	246
3.61700	244
3.62067	242
3.62433	242
3.62800	242
3.63167	242
3.63533	246
3.63900	252
3.64267	259
3.64633	264
3.65000	267
3.65367	266
3.65733	263
3.66100	261
3.66467	260
3.66833	260
3.67200	260
3.67567	256
3.67933	253
3.68300	255
3.68667	258
3.69033	263
3.69400	264
3.69767	259
3.70133	255
3.70500	252
3.70867	251
3.71233	253
3.71600	259
3.71967	265
3.72333	265
3.72700	260
3.73067	253
3.73433	249
3.73800	247
3.74167	244
3.74533	243
3.74900	246
3.75267	249
3.75633	250
3.76000	248
3.76367	245
3.76733	244
3.77100	242
3.77467	240
3.77833	236
3.78200	235
3.78567	238
3.78933	240
3.79300	240
3.79667	236
3.80033	230
3.80400	224
3.80767	219
3.81133	217
3.81500	220
3.81867	227
3.82233	240
3.82600	251
3.82967	251
3.83333	247
3.83700	246
3.84067	244
3.84433	235
3.84800	222
3.85167	212
3.85533	207
3.85900	208
3.86267	217
3.86633	225
3.87000	230
3.87367	232
3.87733	235
3.88100	240
3.88467	245
3.88833	245
3.89200	242
3.89567	240
3.89933	233
3.90300	224
3.90667	216
3.91033	208
3.91400	198
3.91767	190
3.92133	185
3.92500	184
3.92867	185
3.93233	186
3.93600	183
3.93967	180
3.94333	179
3.94700	182
3.95067	192
3.95433	204
3.95800	216
3.96167	219
3.96533	214
3.96900	208
3.97267	200
3.97633	194
3.98000	192
3.98367	193
3.98733	193
3.99100	197
3.99467	209
3.99833	220

[Chromatogram (Ch2)]
Interval(msec)	220
# of Points	1091
Start Time(min)	0.002
End Time(min)	3.998
R.Time (min)	Intensity
0.00167	-0
0.00533	0
0.00900	0
0.01267	0
0.01633	1
0.02000	1
0.02367	1
0.02733	1
0.03100	1
0.03467	1
0.03833	1
0.04200	0
0.04567	0
0.04933	0
0.05300	0
0.05667	0
0.06033	1
0.06400	1
0.06767	1
0.07133	1
0.07500	0
0.07867	0
0.08233	0
0.08600	-0
0.08967	-0
0.09333	-0
0.09700	-0
0.10067	-0
0.10433	-0
0.10800	0
0.11167	0
0.11533	1
0.11900	1
0.12267	1
0.12633	1
0.13000	1
0.13367	1
0.13733	1
0.14100	1
0.14467	2
0.14833	2
0.15200	2
0.15567	2
0.15933	2
0.16300	2
0.16667	2
0.17033	2
0.17400	2
0.17767	2
0.18133	2
0.18500	2
0.18867	2
0.19233	1
0.19600	1
0.19967	1
0.20333	2
0.20700	2
0.21067	2
0.21433	2
0.21800	2
0.22167	2
0.22533	2
0.22900	2
0.23267	3
0.23633	3
0.24000	3
0.24367	2
0.24733	2
0.25100	2
0.25467	2
0.25833	2
0.26200	1
0.26567	1
0.26933	1
0.27300	0
0.27667	0
0.28033	-0
0.28400	-0
0.28767	-1
0.29133	-1
0.29500	-2
0.29867	-2
0.30233	-3
0.30600	-3
0.30967	-4
0.31333	-4
0.31700	-4
0.32067	-5
0.32433	-5
0.32800	-5
0.33167	-5
0.33533	-6
0.33900	-6
0.34267	-6
0.34633	-6
0.35000	-6
0.35367	-6
0.35733	-6
0.36100	-6
0.36467	-6
0.36833	-5
0.37200	-5
0.37567	-5
0.37933	-5
0.38300	-4
0.38667	-4
0.39033	-3
0.39400	-3
0.39767	-2
0.40133	-1
0.40500	-1
0.40867	-0
0.41233	0
0.41600	0
0.41967	1
0.42333	1
0.42700	1
0.43067	1
0.43433	2
0.43800	2
0.44167	2
0.44533	2
0.44900	1
0.45267	1
0.45633	1
0.46000	0
0.46367	0
0.46733	-0
0.47100	-0
0.47467	-0
0.47833	-0
0.48200	-0
0.48567	-0
0.48933	-0
0.49300	-1
0.49667	-1
0.50033	-1
0.50400	-1
0.50767	-0
0.51133	-0
0.51500	-0
0.51867	0
0.52233	0
0.52600	0
0.52967	0
0.53333	0
0.53700	0
0.54067	-0
0.54433	-0
0.54800	-0
0.55167	-0
0.55533	-1
0.55900	-1
0.56267	-2
0.56633	-2
0.57000	-2
0.57367	-3
0.57733	-3
0.58100	-3
0.58467	-3
0.58833	-3
0.59200	-3
0.59567	-3
0.59933	-2
0.60300	-2
0.60667	-2
0.61033	-1
0.61400	-1
0.61767	-1
0.62133	-0
0.62500	-0
0.62867	-0
0.63233	0
0.63600	1
0.63967	1
0.64333	1
0.64700	1
0.65067	1
0.65433	1
0.65800	0
0.66167	0
0.66533	-0
0.66900	-0
0.67267	-1
0.67633	-1
0.68000	-2
0.68367	-2
0.68733	-3
0.69100	-3
0.69467	-3
0.69833	-4
0.70200	-4
0.70567	-4
0.70933	-5
0.71300	-5
0.71667	-5
0.72033	-5
0.72400	-5
0.72767	-4
0.73133	-4
0.73500	-4
0.73867	-4
0.74233	-3
0.74600	-3
0.74967	-3
0.75333	-2
0.75700	-2
0.76067	-2
0.76433	-2
0.76800	-1
0.77167	-1
0.77533	-0
0.77900	0
0.78267	1
0.78633	1
0.79000	1
0.79367	1
0.79733	1
0.80100	1
0.80467	1
0.80833	1
0.81200	1
0.81567	1
0.81933	1
0.82300	1
0.82667	1
0.83033	1
0.83400	1
0.83767	2
0.84133	2
0.84500	2
0.84867	2
0.85233	2
0.85600	2
0.85967	1
0.86333	1
0.86700	1
0.87067	1
0.87433	1
0.87800	1
0.88167	0
0.88533	-0
0.88900	-1
0.89267	-1
0.89633	-2
0.90000	-2
0.90367	-2
0.90733	-3
0.91100	-3
0.91467	-3
0.91833	-3
0.92200	-4
0.92567	-4
0.92933	-4
0.93300	-4
0.93667	-3
0.94033	-3
0.94400	-3
0.94767	-3
0.95133	-3
0.95500	-2
0.95867	-2
0.96233	-2
0.96600	-1
0.96967	-1
0.97333	-1
0.97700	-1
0.98067	-1
0.98433	-1
0.98800	-1
0.99167	-0
0.99533	-0
0.99900	-0
1.00267	-0
1.00633	-0
1.01000	-1
1.01367	-1
1.01733	-1
1.02100	-2
1.02467	-2
1.02833	-2
1.03200	-2
1.03567	-2
1.03933	-1
1.04300	-1
1.04667	-0
1.05033	-0
1.05400	0
1.05767	1
1.06133	1
1.06500	1
1.06867	1
1.07233	1
1.07600	1
1.07967	1
1.08333	1
1.08700	1
1.09067	2
1.09433	2
1.09800	2
1.10167	2
1.10533	2
1.10900	2
1.11267	1
1.11633	1
1.12000	1
1.12367	1
1.12733	1
1.13100	0
1.13467	0
1.13833	0
1.14200	-0
1.14567	-0
1.14933	-1
1.15300	-1
1.15667	-1
1.16033	-2
1.16400	-2
1.16767	-2
1.17133	-2
1.17500	-2
1.17867	-2
1.18233	-1
1.18600	-1
1.18967	-1
1.19333	-1
1.19700	-2
1.20067	-2
1.20433	-2
1.20800	-2
1.21167	-3
1.21533	-3
1.21900	-3
1.22267	-3
1.22633	-3
1.23000	-3
1.23367	-4
1.23733	-4
1.24100	-4
1.24467	-3
1.24833	-3
1.25200	-2
1.25567	-2
1.25933	-1
1.26300	-1
1.26667	0
1.27033	0
1.27400	1
1.27767	1
1.28133	2
1.28500	3
1.28867	3
1.29233	3
1.29600	3
1.29967	3
1.30333	3
1.30700	3
1.31067	3
1.31433	3
1.31800	3
1.32167	3
1.32533	3
1.32900	3
1.33267	3
1.33633	3
1.34000	2
1.34367	2
1.34733	2
1.35100	1
1.35467	1
1.35833	0
1.36200	0
1.36567	-0
1.36933	-0
1.37300	-1
1.37667	-1
1.38033	-2
1.38400	-2
1.38767	-3
1.39133	-3
1.39500	-4
1.39867	-4
1.40233	-4
1.40600	-4
1.40967	-4
1.41333	-4
1.41700	-4
1.42067	-4
1.42433	-4
1.42800	-4
1.43167	-4
1.43533	-4
1.43900	-5
1.44267	-4
1.44633	-4
1.45000	-4
1.45367	-4
1.45733	-4
1.46100	-4
1.46467	-4
1.46833	-3
1.47200	-3
1.47567	-3
1.47933	-4
1.48300	-4
1.48667	-4
1.49033	-4
1.49400	-4
1.49767	-4
1.50133	-4
1.50500	-3
1.50867	-3
1.51233	-3
1.51600	-2
1.51967	-2
1.52333	-2
1.52700	-2
1.53067	-1
1.53433	-1
1.53800	-1
1.54167	-1
1.54533	-1
1.54900	-0
1.55267	-0
1.55633	-0
1.56000	-0
1.56367	-1
1.56733	-1
1.57100	-1
1.57467	-1
1.57833	-1
1.58200	-1
1.58567	-1
1.58933	-0
1.59300	-0
1.59667	-0
1.60033	-1
1.60400	-1
1.60767	-2
1.61133	-4
1.61500	-6
1.61867	-8
1.62233	-11
1.62600	-14
1.62967	-18
1.63333	-22
1.63700	-27
1.64067	-31
1.64433	-35
1.64800	-39
1.65167	-43
1.65533	-47
1.65900	-51
1.66267	-55
1.66633	-59
1.67000	-63
1.67367	-68
1.67733	-72
1.68100	-77
1.68467	-81
1.68833	-85
1.69200	-89
1.69567	-93
1.69933	-96
1.70300	-99
1.70667	-101
1.71033	-103
1.71400	-105
1.71767	-106
1.72133	-107
1.72500	-107
1.72867	-108
1.73233	-108
1.73600	-108
1.73967	-109
1.74333	-109
1.74700	-109
1.75067	-109
1.75433	-109
1.75800	-110
1.76167	-110
1.76533	-111
1.76900	-112
1.77267	-113
1.77633	-114
1.78000	-114
1.78367	-114
1.78733	-114
1.79100	-114
1.79467	-114
1.79833	-114
1.80200	-115
1.80567	-115
1.80933	-116
1.81300	-116
1.81667	-116
1.82033	-116
1.82400	-116
1.82767	-116
1.83133	-115
1.83500	-115
1.83867	-115
1.84233	-116
1.84600	-116
1.84967	-115
1.85333	-115
1.85700	-115
1.86067	-115
1.86433	-115
1.86800	-116
1.87167	-116
1.87533	-116
1.87900	-116
1.88267	-116
1.88633	-116
1.89000	-115
1.89367	-115
1.89733	-114
1.90100	-114
1.90467	-114
1.90833	-114
1.91200	-113
1.91567	-113
1.91933	-113
1.92300	-112
1.92667	-112
1.93033	-112
1.93400	-111
1.93767	-111
1.94133	-111
1.94500	-111
1.94867	-111
1.95233	-110
1.95600	-111
1.95967	-111
1.96333	-111
1.96700	-111
1.97067	-111
1.97433	-111
1.97800	-110
1.98167	-110
1.98533	-109
1.98900	-109
1.99267	-108
1.99633	-108
2.00000	-107
2.00367	-107
2.00733	-107
2.01100	-107
2.01467	-107
2.01833	-108
2.02200	-108
2.02567	-108
2.02933	-108
2.03300	-108
2.03667	-107
2.04033	-107
2.04400	-107
2.04767	-107
2.05133	-106
2.05500	-105
2.05867	-104
2.06233	-104
2.06600	-103
2.06967	-103
2.07333	-102
2.07700	-102
2.08067	-102
2.08433	-101
2.08800	-100
2.09167	-99
2.09533	-98
2.09900	-98
2.10267	-98
2.10633	-98
2.11000	-98
2.11367	-99
2.11733	-99
2.12100	-99
2.12467	-99
2.12833	-100
2.13200	-100
2.13567	-100
2.13933	-100
2.14300	-100
2.14667	-100
2.15033	-99
2.15400	-99
2.15767	-99
2.16133	-98
2.16500	-98
2.16867	-97
2.17233	-97
2.17600	-95
2.17967	-95
2.18333	-94
2.18700	-93
2.19067	-92
2.19433	-92
2.19800	-92
2.20167	-91
2.20533	-91
2.20900	-91
2.21267	-91
2.21633	-90
2.22000	-90
2.22367	-89
2.22733	-89
2.23100	-88
2.23467	-87
2.23833	-86
2.24200	-85
2.24567	-84
2.24933	-84
2.25300	-83
2.25667	-83
2.26033	-83
2.26400	-83
2.26767	-83
2.27133	-83
2.27500	-84
2.27867	-84
2.28233	-85
2.28600	-86
2.28967	-86
2.29333	-86
2.29700	-86
2.30067	-85
2.30433	-84
2.30800	-83
2.31167	-82
2.31533	-82
2.31900	-81
2.32267	-81
2.32633	-82
2.33000	-82
2.33367	-81
2.33733	-81
2.34100	-81
2.34467	-80
2.34833	-80
2.35200	-79
2.35567	-78
2.35933	-77
2.36300	-76
2.36667	-75
2.37033	-73
2.37400	-70
2.37767	-67
2.38133	-64
2.38500	-60
2.38867	-55
2.39233	-51
2.39600	-46
2.39967	-42
2.40333	-37
2.40700	-33
2.41067	-29
2.41433	-26
2.41800	-23
2.42167	-20
2.42533	-18
2.42900	-17
2.43267	-16
2.43633	-15
2.44000	-14
2.44367	-13
2.44733	-12
2.45100	-10
2.45467	-8
2.45833	-6
2.46200	-4
2.46567	-3
2.46933	-1
2.47300	0
2.47667	1
2.48033	2
2.48400	3
2.48767	3
2.49133	4
2.49500	4
2.49867	5
2.50233	6
2.50600	7
2.50967	8
2.51333	9
2.51700	10
2.52067	10
2.52433	11
2.52800	11
2.53167	12
2.53533	12
2.53900	13
2.54267	13
2.54633	13
2.55000	13
2.55367	14
2.55733	14
2.56100	15
2.56467	15
2.56833	15
2.57200	15
2.57567	15
2.57933	15
2.58300	16
2.58667	15
2.59033	15
2.59400	15
2.59767	15
2.60133	15
2.60500	15
2.60867	16
2.61233	16
2.61600	17
2.61967	17
2.62333	18
2.62700	19
2.63067	19
2.63433	19
2.63800	18
2.64167	18
2.64533	17
2.64900	17
2.65267	18
2.65633	18
2.66000	18
2.66367	18
2.66733	19
2.67100	19
2.67467	19
2.67833	20
2.68200	20
2.68567	21
2.68933	21
2.69300	22
2.69667	22
2.70033	22
2.70400	22
2.70767	22
2.71133	22
2.71500	22
2.71867	23
2.72233	23
2.72600	23
2.72967	24
2.73333	24
2.73700	25
2.74067	25
2.74433	25
2.74800	25
2.75167	25
2.75533	25
2.75900	25
2.76267	25
2.76633	25
2.77000	25
2.77367	25
2.77733	26
2.78100	26
2.78467	26
2.78833	26
2.79200	26
2.79567	26
2.79933	27
2.80300	27
2.80667	26
2.81033	26
2.81400	26
2.81767	26
2.82133	26
2.82500	26
2.82867	26
2.83233	26
2.83600	25
2.83967	24
2.84333	21
2.84700	16
2.85067	9
2.85433	-1
2.85800	-15
2.86167	-33
2.86533	-55
2.86900	-81
2.87267	-112
2.87633	-147
2.88000	-185
2.88367	-228
2.88733	-273
2.89100	-321
2.89467	-372
2.89833	-424
2.90200	-477
2.90567	-531
2.90933	-585
2.91300	-640
2.91667	-694
2.92033	-747
2.92400	-799
2.92767	-850
2.93133	-904
2.93500	-962
2.93867	-1021
2.94233	-1071
2.94600	-1103
2.94967	-1110
2.95333	-1090
2.95700	-1048
2.96067	-987
2.96433	-915
2.96800	-836
2.97167	-754
2.97533	-673
2.97900	-596
2.98267	-524
2.98633	-457
2.99000	-397
2.99367	-343
2.99733	-295
3.00100	-253
3.00467	-215
3.00833	-183
3.01200	-155
3.01567	-131
3.01933	-110
3.02300	-92
3.02667	-77
3.03033	-64
3.03400	-52
3.03767	-43
3.04133	-34
3.04500	-27
3.04867	-21
3.05233	-16
3.05600	-11
3.05967	-7
3.06333	-4
3.06700	-1
3.07067	1
3.07433	3
3.07800	5
3.08167	7
3.08533	8
3.08900	9
3.09267	10
3.09633	11
3.10000	11
3.10367	12
3.10733	12
3.11100	13
3.11467	13
3.11833	14
3.12200	14
3.12567	15
3.12933	15
3.13300	15
3.13667	15
3.14033	15
3.14400	15
3.14767	16
3.15133	16
3.15500	16
3.15867	16
3.16233	17
3.16600	17
3.16967	17
3.17333	18
3.17700	18
3.18067	18
3.18433	18
3.18800	19
3.19167	19
3.19533	19
3.19900	19
3.20267	20
3.20633	20
3.21000	20
3.21367	20
3.21733	20
3.22100	20
3.22467	21
3.22833	21
3.23200	21
3.23567	21
3.23933	22
3.24300	22
3.24667	23
3.25033	23
3.25400	24
3.25767	24
3.26133	25
3.26500	26
3.26867	26
3.27233	27
3.27600	27
3.27967	27
3.28333	28
3.28700	28
3.29067	28
3.29433	28
3.29800	29
3.30167	29
3.30533	29
3.30900	29
3.31267	29
3.31633	29
3.32000	29
3.32367	29
3.32733	29
3.33100	29
3.33467	29
3.33833	29
3.34200	29
3.34567	29
3.34933	28
3.35300	29
3.35667	29
3.36033	29
3.36400	28
3.36767	28
3.37133	28
3.37500	28
3.37867	28
3.38233	28
3.38600	28
3.38967	28
3.39333	27
3.39700	27
3.40067	26
3.40433	26
3.40800	26
3.41167	26
3.41533	25
3.41900	25
3.42267	25
3.42633	25
3.43000	25
3.43367	25
3.43733	25
3.44100	25
3.44467	25
3.44833	25
3.45200	25
3.45567	25
3.45933	25
3.46300	25
3.46667	26
3.47033	26
3.47400	26
3.47767	26
3.48133	27
3.48500	27
3.48867	27
3.49233	27
3.49600	27
3.49967	27
3.50333	27
3.50700	27
3.51067	27
3.51433	27
3.51800	27
3.52167	27
3.52533	27
3.52900	27
3.53267	27
3.53633	27
3.54000	27
3.54367	26
3.54733	26
3.55100	26
3.55467	26
3.55833	26
3.56200	26
3.56567	26
3.56933	26
3.57300	26
3.57667	26
3.58033	26
3.58400	26
3.58767	26
3.59133	26
3.59500	26
3.59867	26
3.60233	26
3.60600	26
3.60967	27
3.61333	27
3.61700	27
3.62067	27
3.62433	27
3.62800	27
3.63167	27
3.63533	27
3.63900	27
3.64267	27
3.64633	28
3.65000	28
3.65367	28
3.65733	28
3.66100	28
3.66467	29
3.66833	29
3.67200	29
3.67567	29
3.67933	29
3.68300	29
3.68667	29
3.69033	28
3.69400	28
3.69767	28
3.70133	28
3.70500	28
3.70867	28
3.71233	28
3.71600	27
3.71967	27
3.72333	27
3.72700	27
3.73067	26
3.73433	26
3.73800	26
3.74167	26
3.74533	26
3.74900	26
3.75267	26
3.75633	26
3.76000	26
3.76367	26
3.76733	26
3.77100	26
3.77467	26
3.77833	26
3.78200	26
3.78567	27
3.78933	27
3.79300	27
3.79667	27
3.80033	27
3.80400	27
3.80767	27
3.81133	27
3.81500	27
3.81867	27
3.82233	27
3.82600	27
3.82967	27
3.83333	27
3.83700	27
3.84067	27
3.84433	26
3.84800	26
3.85167	26
3.85533	25
3.85900	25
3.86267	25
3.86633	24
3.87000	24
3.87367	24
3.87733	24
3.88100	24
3.88467	24
3.88833	24
3.89200	24
3.89567	25
3.89933	25
3.90300	25
3.90667	25
3.91033	25
3.91400	25
3.91767	25
3.92133	25
3.92500	25
3.92867	25
3.93233	25
3.93600	25
3.93967	25
3.94333	25
3.94700	25
3.95067	25
3.95433	25
3.95800	26
3.96167	26
3.96533	27
3.96900	27
3.97267	27
3.97633	27
3.98000	28
3.98367	28
3.98733	29
3.99100	29
3.99467	29
3.99833	30

[Chromatogram (Ch3)]
Interval(msec)	220
# of Points	1091
Start Time(min)	0.002
End Time(min)	3.998
R.Time (min)	Intensity
0.00167	0
0.00533	1
0.00900	1
0.01267	-2
0.01633	-2
0.02000	0
0.02367	0
0.02733	1
0.03100	1
0.03467	2
0.03833	1
0.04200	2
0.04567	4
0.04933	5
0.05300	5
0.05667	5
0.06033	3
0.06400	1
0.06767	1
0.07133	2
0.07500	3
0.07867	3
0.08233	2
0.08600	2
0.08967	3
0.09333	4
0.09700	6
0.10067	6
0.10433	5
0.10800	3
0.11167	0
0.11533	-1
0.11900	-2
0.12267	-4
0.12633	-5
0.13000	-4
0.13367	-2
0.13733	-2
0.14100	-3
0.14467	-1
0.14833	-0
0.15200	-1
0.15567	-0
0.15933	-1
0.16300	-3
0.16667	-3
0.17033	-3
0.17400	-2
0.17767	0
0.18133	0
0.18500	0
0.18867	-1
0.19233	-1
0.19600	-2
0.19967	-6
0.20333	-7
0.20700	-8
0.21067	-7
0.21433	-4
0.21800	-4
0.22167	-3
0.22533	-3
0.22900	-4
0.23267	-5
0.23633	-4
0.24000	-3
0.24367	-3
0.24733	-1
0.25100	-1
0.25467	-2
0.25833	-5
0.26200	-6
0.26567	-6
0.26933	-4
0.27300	-3
0.27667	-3
0.28033	-2
0.28400	0
0.28767	2
0.29133	4
0.29500	3
0.29867	-0
0.30233	-4
0.30600	-7
0.30967	-8
0.31333	-9
0.31700	-9
0.32067	-9
0.32433	-7
0.32800	-5
0.33167	-3
0.33533	-1
0.33900	1
0.34267	3
0.34633	3
0.35000	1
0.35367	0
0.35733	1
0.36100	1
0.36467	2
0.36833	1
0.37200	-0
0.37567	-1
0.37933	-0
0.38300	2
0.38667	3
0.39033	3
0.39400	4
0.39767	3
0.40133	2
0.40500	1
0.40867	0
0.41233	0
0.41600	0
0.41967	2
0.42333	3
0.42700	4
0.43067	4
0.43433	2
0.43800	2
0.44167	3
0.44533	4
0.44900	4
0.45267	5
0.45633	5
0.46000	4
0.46367	1
0.46733	2
0.47100	3
0.47467	3
0.47833	3
0.48200	2
0.48567	-1
0.48933	-3
0.49300	-3
0.49667	1
0.50033	4
0.50400	5
0.50767	3
0.51133	1
0.51500	-1
0.51867	-1
0.52233	1
0.52600	1
0.52967	1
0.53333	2
0.53700	5
0.54067	6
0.54433	6
0.54800	7
0.55167	5
0.55533	3
0.55900	4
0.56267	4
0.56633	4
0.57000	4
0.57367	3
0.57733	3
0.58100	4
0.58467	6
0.58833	8
0.59200	9
0.59567	9
0.59933	7
0.60300	4
0.60667	3
0.61033	4
0.61400	7
0.61767	7
0.62133	7
0.62500	7
0.62867	6
0.63233	5
0.63600	4
0.63967	3
0.64333	3
0.64700	3
0.65067	2
0.65433	2
0.65800	4
0.66167	6
0.66533	6
0.66900	5
0.67267	7
0.67633	8
0.68000	9
0.68367	10
0.68733	8
0.69100	7
0.69467	8
0.69833	10
0.70200	12
0.70567	10
0.70933	8
0.71300	5
0.71667	5
0.72033	7
0.72400	8
0.72767	8
0.73133	10
0.73500	12
0.73867	11
0.74233	11
0.74600	11
0.74967	12
0.75333	11
0.75700	10
0.76067	11
0.76433	11
0.76800	9
0.77167	8
0.77533	9
0.77900	10
0.78267	12
0.78633	12
0.79000	13
0.79367	11
0.79733	10
0.80100	9
0.80467	10
0.80833	13
0.81200	15
0.81567	15
0.81933	13
0.82300	12
0.82667	12
0.83033	11
0.83400	10
0.83767	8
0.84133	6
0.84500	6
0.84867	8
0.85233	10
0.85600	10
0.85967	7
0.86333	8
0.86700	9
0.87067	11
0.87433	14
0.87800	15
0.88167	16
0.88533	17
0.88900	17
0.89267	16
0.89633	16
0.90000	17
0.90367	18
0.90733	18
0.91100	17
0.91467	13
0.91833	10
0.92200	10
0.92567	11
0.92933	12
0.93300	10
0.93667	9
0.94033	10
0.94400	11
0.94767	13
0.95133	14
0.95500	15
0.95867	16
0.96233	16
0.96600	14
0.96967	12
0.97333	11
0.97700	11
0.98067	12
0.98433	13
0.98800	14
0.99167	14
0.99533	14
0.99900	14
1.00267	12
1.00633	12
1.01000	11
1.01367	10
1.01733	10
1.02100	12
1.02467	13
1.02833	14
1.03200	13
1.03567	13
1.03933	14
1.04300	15
1.04667	17
1.05033	20
1.05400	20
1.05767	18
1.06133	16
1.06500	13
1.06867	12
1.07233	12
1.07600	12
1.07967	11
1.08333	10
1.08700	11
1.09067	11
1.09433	10
1.09800	10
1.10167	11
1.10533	10
1.10900	11
1.11267	12
1.11633	12
1.12000	15
1.12367	16
1.12733	17
1.13100	15
1.13467	17
1.13833	19
1.14200	20
1.14567	21
1.14933	20
1.15300	18
1.15667	14
1.16033	12
1.16400	11
1.16767	12
1.17133	13
1.17500	17
1.17867	17
1.18233	17
1.18600	18
1.18967	20
1.19333	20
1.19700	20
1.20067	17
1.20433	16
1.20800	17
1.21167	15
1.21533	13
1.21900	14
1.22267	14
1.22633	14
1.23000	13
1.23367	14
1.23733	14
1.24100	14
1.24467	14
1.24833	14
1.25200	13
1.25567	14
1.25933	15
1.26300	15
1.26667	17
1.27033	18
1.27400	19
1.27767	18
1.28133	16
1.28500	16
1.28867	18
1.29233	20
1.29600	21
1.29967	21
1.30333	21
1.30700	20
1.31067	19
1.31433	18
1.31800	19
1.32167	20
1.32533	19
1.32900	18
1.33267	16
1.33633	15
1.34000	16
1.34367	16
1.34733	16
1.35100	17
1.35467	18
1.35833	20
1.36200	22
1.36567	23
1.36933	25
1.37300	27
1.37667	27
1.38033	25
1.38400	21
1.38767	17
1.39133	17
1.39500	17
1.39867	18
1.40233	20
1.40600	20
1.40967	20
1.41333	23
1.41700	24
1.42067	23
1.42433	23
1.42800	24
1.43167	22
1.43533	21
1.43900	22
1.44267	23
1.44633	22
1.45000	22
1.45367	22
1.45733	22
1.46100	22
1.46467	21
1.46833	21
1.47200	21
1.47567	21
1.47933	20
1.48300	17
1.48667	17
1.49033	18
1.49400	18
1.49767	19
1.50133	19
1.50500	18
1.50867	20
1.51233	20
1.51600	19
1.51967	21
1.52333	22
1.52700	22
1.53067	23
1.53433	24
1.53800	25
1.54167	26
1.54533	27
1.54900	28
1.55267	29
1.55633	30
1.56000	31
1.56367	30
1.56733	30
1.57100	28
1.57467	27
1.57833	25
1.58200	25
1.58567	24
1.58933	24
1.59300	27
1.59667	30
1.60033	30
1.60400	31
1.60767	31
1.61133	29
1.61500	27
1.61867	26
1.62233	25
1.62600	26
1.62967	26
1.63333	27
1.63700	29
1.64067	32
1.64433	33
1.64800	32
1.65167	33
1.65533	34
1.65900	34
1.66267	34
1.66633	35
1.67000	34
1.67367	34
1.67733	34
1.68100	35
1.68467	36
1.68833	37
1.69200	38
1.69567	39
1.69933	39
1.70300	39
1.70667	38
1.71033	39
1.71400	39
1.71767	39
1.72133	39
1.72500	38
1.72867	38
1.73233	41
1.73600	42
1.73967	43
1.74333	45
1.74700	45
1.75067	42
1.75433	41
1.75800	42
1.76167	42
1.76533	45
1.76900	47
1.77267	49
1.77633	49
1.78000	47
1.78367	47
1.78733	48
1.79100	50
1.79467	51
1.79833	53
1.80200	54
1.80567	53
1.80933	53
1.81300	53
1.81667	52
1.82033	53
1.82400	53
1.82767	53
1.83133	53
1.83500	54
1.83867	57
1.84233	57
1.84600	58
1.84967	58
1.85333	56
1.85700	53
1.86067	50
1.86433	49
1.86800	49
1.87167	48
1.87533	48
1.87900	50
1.88267	51
1.88633	52
1.89000	55
1.89367	59
1.89733	62
1.90100	64
1.90467	63
1.90833	62
1.91200	62
1.91567	64
1.91933	65
1.92300	65
1.92667	66
1.93033	69
1.93400	69
1.93767	70
1.94133	69
1.94500	67
1.94867	68
1.95233	68
1.95600	70
1.95967	71
1.96333	72
1.96700	73
1.97067	73
1.97433	72
1.97800	72
1.98167	72
1.98533	75
1.98900	75
1.99267	75
1.99633	77
2.00000	77
2.00367	77
2.00733	79
2.01100	81
2.01467	84
2.01833	86
2.02200	89
2.02567	90
2.02933	90
2.03300	89
2.03667	89
2.04033	88
2.04400	86
2.04767	85
2.05133	87
2.05500	90
2.05867	93
2.06233	94
2.06600	94
2.06967	95
2.07333	97
2.07700	100
2.08067	101
2.08433	100
2.08800	100
2.09167	101
2.09533	102
2.09900	101
2.10267	101
2.10633	101
2.11000	103
2.11367	105
2.11733	105
2.12100	106
2.12467	108
2.12833	109
2.13200	111
2.13567	114
2.13933	117
2.14300	118
2.14667	120
2.15033	121
2.15400	122
2.15767	122
2.16133	120
2.16500	118
2.16867	118
2.17233	122
2.17600	126
2.17967	128
2.18333	130
2.18700	132
2.19067	137
2.19433	139
2.19800	138
2.20167	139
2.20533	138
2.20900	138
2.21267	140
2.21633	141
2.22000	141
2.22367	143
2.22733	146
2.23100	148
2.23467	149
2.23833	151
2.24200	153
2.24567	153
2.24933	151
2.25300	151
2.25667	152
2.26033	152
2.26400	152
2.26767	152
2.27133	155
2.27500	159
2.27867	160
2.28233	161
2.28600	161
2.28967	164
2.29333	165
2.29700	165
2.30067	166
2.30433	165
2.30800	164
2.31167	165
2.31533	166
2.31900	169
2.32267	171
2.32633	175
2.33000	177
2.33367	181
2.33733	185
2.34100	189
2.34467	190
2.34833	192
2.35200	193
2.35567	195
2.35933	197
2.36300	198
2.36667	200
2.37033	203
2.37400	206
2.37767	207
2.38133	208
2.38500	209
2.38867	208
2.39233	208
2.39600	208
2.39967	212
2.40333	216
2.40700	220
2.41067	225
2.41433	227
2.41800	229
2.42167	231
2.42533	231
2.42900	234
2.43267	236
2.43633	237
2.44000	242
2.44367	282
2.44733	389
2.45100	506
2.45467	606
2.45833	668
2.46200	676
2.46567	653
2.46933	624
2.47300	602
2.47667	588
2.48033	578
2.48400	565
2.48767	542
2.49133	513
2.49500	482
2.49867	453
2.50233	430
2.50600	413
2.50967	402
2.51333	397
2.51700	399
2.52067	407
2.52433	419
2.52800	435
2.53167	451
2.53533	460
2.53900	464
2.54267	460
2.54633	447
2.55000	431
2.55367	411
2.55733	391
2.56100	371
2.56467	357
2.56833	347
2.57200	339
2.57567	334
2.57933	332
2.58300	329
2.58667	326
2.59033	324
2.59400	321
2.59767	315
2.60133	304
2.60500	288
2.60867	269
2.61233	251
2.61600	233
2.61967	214
2.62333	199
2.62700	187
2.63067	179
2.63433	174
2.63800	173
2.64167	177
2.64533	182
2.64900	191
2.65267	201
2.65633	210
2.66000	218
2.66367	224
2.66733	230
2.67100	235
2.67467	239
2.67833	240
2.68200	238
2.68567	236
2.68933	234
2.69300	232
2.69667	230
2.70033	226
2.70400	222
2.70767	220
2.71133	218
2.71500	217
2.71867	215
2.72233	215
2.72600	215
2.72967	214
2.73333	213
2.73700	212
2.74067	213
2.74433	215
2.74800	219
2.75167	220
2.75533	221
2.75900	222
2.76267	224
2.76633	227
2.77000	229
2.77367	229
2.77733	228
2.78100	228
2.78467	229
2.78833	231
2.79200	232
2.79567	233
2.79933	235
2.80300	237
2.80667	239
2.81033	241
2.81400	244
2.81767	251
2.82133	270
2.82500	308
2.82867	383
2.83233	520
2.83600	738
2.83967	1054
2.84333	1479
2.84700	2001
2.85067	2592
2.85433	3211
2.85800	3811
2.86167	4342
2.86533	4762
2.86900	5042
2.87267	5174
2.87633	5160
2.88000	5025
2.88367	4794
2.88733	4494
2.89100	4152
2.89467	3797
2.89833	3441
2.90200	3097
2.90567	2774
2.90933	2475
2.91300	2203
2.91667	1959
2.92033	1742
2.92400	1551
2.92767	1384
2.93133	1242
2.93500	1117
2.93867	1004
2.94233	907
2.94600	824
2.94967	752
2.95333	689
2.95700	636
2.96067	590
2.96433	552
2.96800	516
2.97167	486
2.97533	460
2.97900	435
2.98267	415
2.98633	396
2.99000	378
2.99367	364
2.99733	352
3.00100	341
3.00467	327
3.00833	317
3.01200	309
3.01567	302
3.01933	295
3.02300	291
3.02667	285
3.03033	279
3.03400	276
3.03767	273
3.04133	269
3.04500	264
3.04867	262
3.05233	259
3.05600	255
3.05967	253
3.06333	250
3.06700	247
3.07067	245
3.07433	243
3.07800	241
3.08167	239
3.08533	237
3.08900	235
3.09267	232
3.09633	228
3.10000	226
3.10367	224
3.10733	224
3.11100	225
3.11467	224
3.11833	223
3.12200	221
3.12567	219
3.12933	220
3.13300	223
3.13667	224
3.14033	224
3.14400	224
3.14767	223
3.15133	223
3.15500	223
3.15867	223
3.16233	225
3.16600	225
3.16967	221
3.17333	203
3.17700	166
3.18067	135
3.18433	120
3.18800	122
3.19167	134
3.19533	157
3.19900	192
3.20267	234
3.20633	280
3.21000	328
3.21367	375
3.21733	417
3.22100	456
3.22467	493
3.22833	528
3.23200	557
3.23567	582
3.23933	602
3.24300	619
3.24667	636
3.25033	648
3.25400	659
3.25767	666
3.26133	672
3.26500	675
3.26867	677
3.27233	683
3.27600	686
3.27967	687
3.28333	688
3.28700	693
3.29067	697
3.29433	702
3.29800	707
3.30167	711
3.30533	715
3.30900	719
3.31267	723
3.31633	724
3.32000	726
3.32367	728
3.32733	734
3.33100	742
3.33467	747
3.33833	750
3.34200	752
3.34567	753
3.34933	753
3.35300	754
3.35667	755
3.36033	756
3.36400	759
3.36767	763
3.37133	767
3.37500	770
3.37867	772
3.38233	772
3.38600	772
3.38967	774
3.39333	777
3.39700	780
3.40067	780
3.40433	780
3.40800	780
3.41167	780
3.41533	778
3.41900	775
3.42267	772
3.42633	769
3.43000	766
3.43367	763
3.43733	761
3.44100	761
3.44467	759
3.44833	755
3.45200	755
3.45567	754
3.45933	755
3.46300	752
3.46667	747
3.47033	742
3.47400	739
3.47767	738
3.48133	736
3.48500	733
3.48867	731
3.49233	731
3.49600	729
3.49967	728
3.50333	726
3.50700	722
3.51067	717
3.51433	712
3.51800	709
3.52167	705
3.52533	700
3.52900	698
3.53267	698
3.53633	697
3.54000	696
3.54367	696
3.54733	693
3.55100	691
3.55467	688
3.55833	685
3.56200	685
3.56567	686
3.56933	686
3.57300	684
3.57667	683
3.58033	682
3.58400	680
3.58767	676
3.59133	670
3.59500	666
3.59867	665
3.60233	666
3.60600	666
3.60967	664
3.61333	662
3.61700	661
3.62067	660
3.62433	658
3.62800	657
3.63167	655
3.63533	653
3.63900	652
3.64267	652
3.64633	652
3.65000	650
3.65367	648
3.65733	648
3.66100	647
3.66467	646
3.66833	644
3.67200	643
3.67567	644
3.67933	647
3.68300	649
3.68667	649
3.69033	645
3.69400	641
3.69767	641
3.70133	641
3.70500	640
3.70867	638
3.71233	637
3.71600	634
3.71967	633
3.72333	634
3.72700	636
3.73067	637
3.73433	640
3.73800	640
3.74167	640
3.74533	639
3.74900	637
3.75267	636
3.75633	637
3.76000	636
3.76367	635
3.76733	632
3.77100	629
3.77467	627
3.77833	628
3.78200	629
3.78567	629
3.78933	628
3.79300	628
3.79667	627
3.80033	628
3.80400	630
3.80767	629
3.81133	626
3.81500	625
3.81867	624
3.82233	623
3.82600	623
3.82967	623
3.83333	623
3.83700	623
3.84067	623
3.84433	624
3.84800	625
3.85167	625
3.85533	622
3.85900	620
3.86267	619
3.86633	617
3.87000	618
3.87367	618
3.87733	618
3.88100	619
3.88467	618
3.88833	618
3.89200	616
3.89567	615
3.89933	616
3.90300	614
3.90667	611
3.91033	609
3.91400	607
3.91767	607
3.92133	608
3.92500	606
3.92867	604
3.93233	604
3.93600	602
3.93967	601
3.94333	601
3.94700	600
3.95067	598
3.95433	596
3.95800	592
3.96167	588
3.96533	590
3.96900	593
3.97267	595
3.97633	593
3.98000	592
3.98367	590
3.98733	585
3.99100	582
3.99467	579
3.99833	577

[Status Trace (Column Oven Temperature)]
Interval(msec)	1000
# of Points	239
Start Time(min)	0.016
End Time(min)	3.982
Intensity Units	
Intensity Multiplier	1
R.Time (min)	Intensity
0.01562	35.03
0.03228	35.03
0.04895	35.02
0.06562	35.03
0.08228	35.03
0.09895	35.03
0.11562	35.02
0.13228	35.02
0.14895	35.01
0.16562	35.00
0.18228	35.00
0.19895	34.99
0.21562	34.97
0.23228	34.96
0.24895	34.96
0.26562	34.95
0.28228	34.97
0.29895	34.99
0.31562	35.00
0.33228	35.02
0.34895	35.04
0.36562	35.05
0.38228	35.04
0.39895	35.02
0.41562	35.00
0.43228	35.00
0.44895	34.99
0.46562	34.99
0.48228	34.99
0.49895	34.98
0.51562	34.98
0.53228	34.97
0.54895	34.97
0.56562	34.99
0.58228	34.99
0.59895	35.00
0.61562	34.99
0.63228	34.98
0.64895	34.98
0.66562	34.99
0.68228	35.01
0.69895	35.02
0.71562	35.04
0.73228	35.04
0.74895	35.03
0.76562	35.03
0.78228	35.01
0.79895	35.00
0.81562	35.00
0.83228	34.99
0.84895	34.98
0.86562	34.97
0.88228	34.98
0.89895	34.99
0.91562	35.00
0.93228	35.00
0.94895	35.01
0.96562	35.00
0.98228	35.00
0.99895	35.01
1.01562	35.03
1.03228	35.03
1.04895	35.01
1.06562	35.01
1.08228	34.99
1.09895	34.99
1.11562	34.99
1.13228	34.99
1.14895	35.00
1.16562	35.01
1.18228	35.02
1.19895	35.02
1.21562	35.03
1.23228	35.04
1.24895	35.04
1.26562	35.03
1.28228	35.00
1.29895	34.98
1.31562	34.97
1.33228	34.96
1.34895	34.96
1.36562	34.97
1.38228	34.97
1.39895	34.98
1.41562	34.99
1.43228	35.00
1.44895	35.01
1.46562	35.02
1.48228	35.03
1.49895	35.04
1.51562	35.03
1.53228	35.02
1.54895	35.01
1.56562	35.01
1.58228	35.00
1.59895	35.01
1.61562	35.09
1.63228	35.25
1.64895	35.47
1.66562	35.77
1.68228	36.13
1.69895	36.49
1.71562	36.85
1.73228	37.17
1.74895	37.50
1.76562	37.84
1.78228	38.17
1.79895	38.51
1.81562	38.84
1.83228	39.16
1.84895	39.49
1.86562	39.82
1.88228	40.14
1.89895	40.46
1.91562	40.80
1.93228	41.12
1.94895	41.44
1.96562	41.77
1.98228	42.09
1.99895	42.41
2.01562	42.75
2.03228	43.07
2.04895	43.41
2.06562	43.71
2.08228	44.05
2.09895	44.37
2.11562	44.70
2.13228	45.04
2.14895	45.37
2.16562	45.71
2.18228	46.04
2.19895	46.35
2.21562	46.70
2.23228	46.99
2.24895	47.32
2.26562	47.65
2.28228	48.00
2.29895	48.32
2.31562	48.66
2.33228	48.99
2.34895	49.30
2.36562	49.55
2.38228	49.68
2.39895	49.70
2.41562	49.69
2.43228	49.71
2.44895	49.72
2.46562	49.71
2.48228	49.73
2.49895	49.74
2.51562	49.75
2.53228	49.75
2.54895	49.77
2.56562	49.78
2.58228	49.79
2.59895	49.80
2.61562	49.80
2.63228	49.81
2.64895	49.83
2.66562	49.84
2.68228	49.85
2.69895	49.85
2.71562	49.86
2.73228	49.85
2.74895	49.86
2.76562	49.86
2.78228	49.86
2.79895	49.86
2.81562	49.87
2.83228	49.88
2.84895	49.89
2.86562	49.91
2.88228	49.92
2.89895	49.92
2.91562	49.93
2.93228	49.96
2.94895	49.97
2.96562	49.97
2.98228	49.97
2.99895	49.97
3.01562	49.99
3.03228	49.99
3.04895	49.99
3.06562	50.00
3.08228	50.00
3.09895	50.01
3.11562	50.02
3.13228	50.04
3.14895	50.06
3.16562	50.08
3.18228	50.08
3.19895	50.10
3.21562	50.11
3.23228	50.10
3.24895	50.09
3.26562	50.07
3.28228	50.05
3.29895	50.03
3.31562	50.02
3.33228	50.01
3.34895	50.00
3.36562	50.00
3.38228	50.00
3.39895	50.01
3.41562	50.03
3.43228	50.03
3.44895	50.05
3.46562	50.04
3.48228	50.05
3.49895	50.05
3.51562	50.06
3.53228	50.06
3.54895	50.06
3.56562	50.06
3.58228	50.07
3.59895	50.08
3.61562	50.07
3.63228	50.06
3.64895	50.05
3.66562	50.05
3.68228	50.04
3.69895	50.04
3.71562	50.04
3.73228	50.04
3.74895	50.05
3.76562	50.05
3.78228	50.05
3.79895	50.05
3.81562	50.04
3.83228	50.05
3.84895	50.07
3.86562	50.08
3.88228	50.09
3.89895	50.09
3.91562	50.09
3.93228	50.11
3.94895	50.10
3.96562	50.09
3.98228	50.07

[Status Trace (Injection Unit Temperature)]
Interval(msec)	1000
# of Points	239
Start Time(min)	0.016
End Time(min)	3.982
Intensity Units	
Intensity Multiplier	1
R.Time (min)	Intensity
0.01562	99.97
0.03228	99.97
0.04895	99.98
0.06562	99.97
0.08228	99.97
0.09895	99.97
0.11562	99.97
0.13228	99.97
0.14895	99.97
0.16562	99.97
0.18228	99.97
0.19895	99.97
0.21562	99.97
0.23228	99.97
0.24895	99.97
0.26562	99.97
0.28228	99.97
0.29895	99.97
0.31562	99.97
0.33228	99.97
0.34895	99.96
0.36562	99.98
0.38228	99.97
0.39895	99.97
0.41562	99.98
0.43228	99.97
0.44895	99.97
0.46562	99.97
0.48228	99.97
0.49895	99.97
0.51562	99.97
0.53228	99.97
0.54895	99.97
0.56562	99.98
0.58228	99.98
0.59895	99.97
0.61562	99.98
0.63228	99.97
0.64895	99.97
0.66562	99.98
0.68228	99.97
0.69895	99.97
0.71562	99.97
0.73228	99.97
0.74895	99.97
0.76562	99.98
0.78228	99.97
0.79895	99.97
0.81562	99.97
0.83228	99.98
0.84895	99.97
0.86562	99.97
0.88228	99.98
0.89895	99.97
0.91562	99.97
0.93228	99.97
0.94895	99.98
0.96562	99.97
0.98228	99.98
0.99895	99.97
1.01562	99.97
1.03228	99.97
1.04895	99.97
1.06562	99.98
1.08228	99.97
1.09895	99.98
1.11562	99.98
1.13228	99.98
1.14895	99.98
1.16562	99.97
1.18228	99.98
1.19895	99.98
1.21562	99.98
1.23228	99.98
1.24895	99.97
1.26562	99.98
1.28228	99.97
1.29895	99.98
1.31562	99.98
1.33228	99.97
1.34895	99.98
1.36562	99.98
1.38228	99.98
1.39895	99.98
1.41562	99.98
1.43228	99.98
1.44895	99.98
1.46562	99.98
1.48228	99.98
1.49895	99.98
1.51562	99.98
1.53228	99.98
1.54895	99.99
1.56562	99.98
1.58228	99.98
1.59895	99.98
1.61562	99.98
1.63228	99.98
1.64895	99.98
1.66562	99.98
1.68228	99.98
1.69895	99.98
1.71562	99.98
1.73228	99.98
1.74895	99.98
1.76562	99.98
1.78228	99.98
1.79895	99.99
1.81562	99.98
1.83228	99.98
1.84895	99.98
1.86562	99.98
1.88228	99.98
1.89895	99.98
1.91562	99.98
1.93228	99.98
1.94895	99.98
1.96562	99.98
1.98228	99.97
1.99895	99.97
2.01562	99.98
2.03228	99.98
2.04895	99.98
2.06562	99.97
2.08228	99.98
2.09895	99.97
2.11562	99.97
2.13228	99.98
2.14895	99.97
2.16562	99.97
2.18228	99.97
2.19895	99.97
2.21562	99.97
2.23228	99.96
2.24895	99.97
2.26562	99.97
2.28228	99.97
2.29895	99.97
2.31562	99.97
2.33228	99.97
2.34895	99.96
2.36562	99.97
2.38228	99.97
2.39895	99.97
2.41562	99.97
2.43228	99.97
2.44895	99.96
2.46562	99.96
2.48228	99.97
2.49895	99.96
2.51562	99.96
2.53228	99.96
2.54895	99.96
2.56562	99.96
2.58228	99.97
2.59895	99.97
2.61562	99.97
2.63228	99.97
2.64895	99.97
2.66562	99.97
2.68228	99.98
2.69895	99.98
2.71562	99.97
2.73228	99.97
2.74895	99.98
2.76562	99.98
2.78228	99.98
2.79895	99.98
2.81562	99.99
2.83228	99.99
2.84895	99.99
2.86562	99.99
2.88228	100.00
2.89895	100.00
2.91562	100.00
2.93228	100.00
2.94895	100.00
2.96562	100.00
2.98228	100.00
2.99895	100.00
3.01562	100.01
3.03228	100.01
3.04895	100.01
3.06562	100.01
3.08228	100.01
3.09895	100.01
3.11562	100.02
3.13228	100.02
3.14895	100.01
3.16562	100.02
3.18228	100.02
3.19895	100.02
3.21562	100.02
3.23228	100.02
3.24895	100.02
3.26562	100.02
3.28228	100.02
3.29895	100.03
3.31562	100.02
3.33228	100.03
3.34895	100.02
3.36562	100.03
3.38228	100.03
3.39895	100.02
3.41562	100.03
3.43228	100.03
3.44895	100.03
3.46562	100.03
3.48228	100.03
3.49895	100.03
3.51562	100.03
3.53228	100.03
3.54895	100.03
3.56562	100.03
3.58228	100.04
3.59895	100.03
3.61562	100.03
3.63228	100.03
3.64895	100.03
3.66562	100.03
3.68228	100.04
3.69895	100.04
3.71562	100.04
3.73228	100.03
3.74895	100.03
3.76562	100.03
3.78228	100.03
3.79895	100.04
3.81562	100.04
3.83228	100.03
3.84895	100.04
3.86562	100.03
3.88228	100.04
3.89895	100.04
3.91562	100.04
3.93228	100.04
3.94895	100.04
3.96562	100.03
3.98228	100.03

[Status Trace (Carrier Gas Pressure)]
Interval(msec)	1000
# of Points	239
Start Time(min)	0.016
End Time(min)	3.982
Intensity Units	
Intensity Multiplier	1
R.Time (min)	Intensity
0.01562	57.03
0.03228	55.83
0.04895	58.09
0.06562	59.89
0.08228	58.53
0.09895	57.97
0.11562	58.00
0.13228	58.01
0.14895	58.01
0.16562	58.00
0.18228	58.00
0.19895	58.00
0.21562	58.00
0.23228	58.00
0.24895	58.00
0.26562	58.00
0.28228	58.00
0.29895	58.00
0.31562	58.00
0.33228	58.00
0.34895	58.00
0.36562	58.00
0.38228	58.00
0.39895	58.00
0.41562	58.00
0.43228	58.00
0.44895	58.00
0.46562	58.00
0.48228	58.00
0.49895	58.00
0.51562	58.00
0.53228	58.00
0.54895	58.00
0.56562	58.00
0.58228	58.00
0.59895	58.00
0.61562	58.00
0.63228	58.00
0.64895	58.00
0.66562	58.00
0.68228	58.00
0.69895	58.00
0.71562	58.00
0.73228	58.00
0.74895	58.00
0.76562	58.00
0.78228	58.00
0.79895	58.00
0.81562	58.00
0.83228	58.00
0.84895	58.00
0.86562	58.00
0.88228	58.00
0.89895	58.00
0.91562	58.00
0.93228	58.00
0.94895	58.00
0.96562	58.00
0.98228	58.00
0.99895	58.00
1.01562	58.00
1.03228	58.00
1.04895	58.00
1.06562	58.00
1.08228	58.00
1.09895	58.00
1.11562	58.00
1.13228	58.00
1.14895	58.00
1.16562	58.00
1.18228	58.00
1.19895	58.00
1.21562	58.00
1.23228	58.00
1.24895	58.00
1.26562	58.00
1.28228	58.00
1.29895	58.00
1.31562	58.00
1.33228	58.00
1.34895	58.00
1.36562	58.00
1.38228	58.00
1.39895	58.00
1.41562	58.00
1.43228	58.00
1.44895	58.00
1.46562	58.00
1.48228	58.00
1.49895	58.00
1.51562	58.00
1.53228	58.00
1.54895	58.00
1.56562	58.00
1.58228	58.00
1.59895	58.00
1.61562	58.00
1.63228	58.01
1.64895	58.00
1.66562	58.00
1.68228	58.01
1.69895	58.00
1.71562	58.00
1.73228	58.00
1.74895	58.00
1.76562	58.00
1.78228	58.00
1.79895	58.00
1.81562	58.00
1.83228	58.00
1.84895	58.00
1.86562	58.00
1.88228	58.00
1.89895	58.00
1.91562	58.00
1.93228	58.00
1.94895	58.00
1.96562	58.00
1.98228	58.00
1.99895	58.00
2.01562	58.00
2.03228	58.00
2.04895	58.00
2.06562	58.00
2.08228	58.00
2.09895	58.00
2.11562	58.00
2.13228	58.00
2.14895	58.00
2.16562	58.00
2.18228	58.00
2.19895	58.00
2.21562	58.00
2.23228	58.00
2.24895	58.00
2.26562	58.00
2.28228	58.00
2.29895	58.00
2.31562	58.00
2.33228	58.00
2.34895	58.00
2.36562	58.00
2.38228	57.99
2.39895	57.99
2.41562	58.00
2.43228	58.00
2.44895	58.00
2.46562	58.00
2.48228	58.00
2.49895	58.00
2.51562	57.99
2.53228	57.99
2.54895	58.00
2.56562	58.00
2.58228	58.00
2.59895	58.00
2.61562	58.00
2.63228	58.00
2.64895	58.00
2.66562	58.00
2.68228	58.00
2.69895	58.00
2.71562	58.00
2.73228	58.00
2.74895	58.00
2.76562	58.00
2.78228	58.00
2.79895	58.00
2.81562	58.00
2.83228	58.00
2.84895	58.00
2.86562	58.00
2.88228	58.00
2.89895	58.00
2.91562	58.00
2.93228	58.00
2.94895	58.00
2.96562	58.00
2.98228	58.00
2.99895	58.00
3.01562	58.00
3.03228	58.00
3.04895	58.00
3.06562	58.00
3.08228	58.00
3.09895	58.00
3.11562	58.00
3.13228	58.00
3.14895	58.00
3.16562	58.00
3.18228	58.00
3.19895	58.00
3.21562	58.00
3.23228	58.00
3.24895	58.00
3.26562	58.00
3.28228	58.00
3.29895	58.00
3.31562	58.00
3.33228	58.00
3.34895	58.00
3.36562	58.00
3.38228	58.00
3.39895	58.00
3.41562	58.00
3.43228	58.00
3.44895	58.00
3.46562	58.00
3.48228	58.00
3.49895	58.00
3.51562	58.00
3.53228	58.00
3.54895	58.00
3.56562	58.00
3.58228	58.00
3.59895	58.00
3.61562	58.00
3.63228	58.00
3.64895	58.00
3.66562	58.00
3.68228	58.00
3.69895	58.00
3.71562	58.00
3.73228	58.00
3.74895	58.00
3.76562	58.00
3.78228	58.00
3.79895	58.00
3.81562	58.00
3.83228	58.00
3.84895	58.00
3.86562	58.00
3.88228	58.00
3.89895	58.00
3.91562	58.00
3.93228	58.00
3.94895	58.00
3.96562	58.00
3.98228	58.00

[Status Trace (Carrier Gas Flow)]
Interval(msec)	1000
# of Points	239
Start Time(min)	0.016
End Time(min)	3.982
Intensity Units	
Intensity Multiplier	1
R.Time (min)	Intensity
0.01562	33.85
0.03228	34.54
0.04895	34.54
0.06562	34.51
0.08228	34.52
0.09895	34.52
0.11562	34.52
0.13228	34.52
0.14895	34.52
0.16562	34.52
0.18228	34.52
0.19895	34.52
0.21562	34.52
0.23228	34.52
0.24895	34.52
0.26562	34.52
0.28228	34.52
0.29895	34.52
0.31562	34.52
0.33228	34.52
0.34895	34.53
0.36562	34.52
0.38228	34.52
0.39895	34.52
0.41562	34.52
0.43228	34.52
0.44895	34.52
0.46562	34.52
0.48228	34.52
0.49895	34.52
0.51562	34.52
0.53228	34.52
0.54895	34.52
0.56562	34.52
0.58228	34.52
0.59895	34.52
0.61562	34.52
0.63228	34.52
0.64895	34.52
0.66562	34.52
0.68228	34.52
0.69895	34.52
0.71562	34.52
0.73228	34.52
0.74895	34.52
0.76562	34.52
0.78228	34.52
0.79895	34.52
0.81562	34.52
0.83228	34.52
0.84895	34.52
0.86562	34.52
0.88228	34.52
0.89895	34.51
0.91562	34.52
0.93228	34.52
0.94895	34.52
0.96562	34.52
0.98228	34.52
0.99895	34.52
1.01562	34.52
1.03228	34.52
1.04895	34.52
1.06562	34.52
1.08228	34.52
1.09895	34.51
1.11562	34.52
1.13228	34.52
1.14895	34.52
1.16562	34.52
1.18228	34.52
1.19895	34.52
1.21562	34.52
1.23228	34.52
1.24895	34.52
1.26562	34.52
1.28228	34.52
1.29895	34.52
1.31562	34.52
1.33228	34.52
1.34895	34.52
1.36562	34.52
1.38228	34.52
1.39895	34.52
1.41562	34.52
1.43228	34.52
1.44895	34.51
1.46562	34.52
1.48228	34.52
1.49895	34.52
1.51562	34.52
1.53228	34.52
1.54895	34.52
1.56562	34.52
1.58228	34.52
1.59895	34.52
1.61562	34.52
1.63228	34.52
1.64895	34.52
1.66562	34.52
1.68228	34.52
1.69895	34.52
1.71562	34.52
1.73228	34.52
1.74895	34.52
1.76562	34.51
1.78228	34.52
1.79895	34.52
1.81562	34.52
1.83228	34.52
1.84895	34.52
1.86562	34.52
1.88228	34.52
1.89895	34.52
1.91562	34.52
1.93228	34.52
1.94895	34.52
1.96562	34.52
1.98228	34.52
1.99895	34.52
2.01562	34.52
2.03228	34.52
2.04895	34.52
2.06562	34.52
2.08228	34.52
2.09895	34.51
2.11562	34.52
2.13228	34.51
2.14895	34.52
2.16562	34.52
2.18228	34.52
2.19895	34.52
2.21562	34.52
2.23228	34.52
2.24895	34.52
2.26562	34.52
2.28228	34.52
2.29895	34.52
2.31562	34.52
2.33228	34.52
2.34895	34.52
2.36562	34.52
2.38228	34.53
2.39895	34.51
2.41562	34.52
2.43228	34.52
2.44895	34.52
2.46562	34.52
2.48228	34.51
2.49895	34.52
2.51562	34.51
2.53228	34.52
2.54895	34.52
2.56562	34.51
2.58228	34.53
2.59895	34.52
2.61562	34.51
2.63228	34.52
2.64895	34.52
2.66562	34.52
2.68228	34.52
2.69895	34.52
2.71562	34.52
2.73228	34.52
2.74895	34.52
2.76562	34.51
2.78228	34.52
2.79895	34.51
2.81562	34.52
2.83228	34.52
2.84895	34.52
2.86562	34.52
2.88228	34.52
2.89895	34.52
2.91562	34.52
2.93228	34.52
2.94895	34.52
2.96562	34.51
2.98228	34.52
2.99895	34.52
3.01562	34.52
3.03228	34.52
3.04895	34.52
3.06562	34.52
3.08228	34.52
3.09895	34.52
3.11562	34.52
3.13228	34.52
3.14895	34.52
3.16562	34.52
3.18228	34.52
3.19895	34.52
3.21562	34.52
3.23228	34.52
3.24895	34.52
3.26562	34.52
3.28228	34.52
3.29895	34.52
3.31562	34.51
3.33228	34.52
3.34895	34.52
3.36562	34.52
3.38228	34.52
3.39895	34.52
3.41562	34.51
3.43228	34.52
3.44895	34.52
3.46562	34.52
3.48228	34.52
3.49895	34.52
3.51562	34.52
3.53228	34.52
3.54895	34.52
3.56562	34.52
3.58228	34.52
3.59895	34.52
3.61562	34.52
3.63228	34.52
3.64895	34.52
3.66562	34.52
3.68228	34.52
3.69895	34.52
3.71562	34.52
3.73228	34.52
3.74895	34.52
3.76562	34.52
3.78228	34.52
3.79895	34.52
3.81562	34.52
3.83228	34.52
3.84895	34.52
3.86562	34.52
3.88228	34.52
3.89895	34.52
3.91562	34.51
3.93228	34.52
3.94895	34.52
3.96562	34.52
3.98228	34.52

[Status Trace (Column Flow)]
Interval(msec)	1000
# of Points	239
Start Time(min)	0.016
End Time(min)	3.982
Intensity Units	
Intensity Multiplier	1
R.Time (min)	Intensity
0.01562	5.45
0.03228	5.31
0.04895	5.58
0.06562	5.79
0.08228	5.63
0.09895	5.56
0.11562	5.56
0.13228	5.57
0.14895	5.57
0.16562	5.57
0.18228	5.57
0.19895	5.57
0.21562	5.57
0.23228	5.57
0.24895	5.57
0.26562	5.57
0.28228	5.57
0.29895	5.57
0.31562	5.57
0.33228	5.57
0.34895	5.56
0.36562	5.56
0.38228	5.56
0.39895	5.57
0.41562	5.57
0.43228	5.57
0.44895	5.57
0.46562	5.57
0.48228	5.57
0.49895	5.57
0.51562	5.57
0.53228	5.57
0.54895	5.57
0.56562	5.57
0.58228	5.57
0.59895	5.57
0.61562	5.57
0.63228	5.57
0.64895	5.57
0.66562	5.57
0.68228	5.57
0.69895	5.56
0.71562	5.56
0.73228	5.56
0.74895	5.56
0.76562	5.56
0.78228	5.57
0.79895	5.57
0.81562	5.57
0.83228	5.57
0.84895	5.57
0.86562	5.57
0.88228	5.57
0.89895	5.57
0.91562	5.57
0.93228	5.57
0.94895	5.57
0.96562	5.57
0.98228	5.57
0.99895	5.56
1.01562	5.56
1.03228	5.56
1.04895	5.56
1.06562	5.56
1.08228	5.57
1.09895	5.57
1.11562	5.57
1.13228	5.57
1.14895	5.57
1.16562	5.56
1.18228	5.56
1.19895	5.56
1.21562	5.56
1.23228	5.56
1.24895	5.56
1.26562	5.56
1.28228	5.57
1.29895	5.57
1.31562	5.57
1.33228	5.57
1.34895	5.57
1.36562	5.57
1.38228	5.57
1.39895	5.57
1.41562	5.57
1.43228	5.57
1.44895	5.57
1.46562	5.56
1.48228	5.56
1.49895	5.56
1.51562	5.56
1.53228	5.56
1.54895	5.56
1.56562	5.56
1.58228	5.57
1.59895	5.57
1.61562	5.56
1.63228	5.56
1.64895	5.55
1.66562	5.54
1.68228	5.53
1.69895	5.52
1.71562	5.51
1.73228	5.50
1.74895	5.49
1.76562	5.48
1.78228	5.47
1.79895	5.46
1.81562	5.45
1.83228	5.44
1.84895	5.43
1.86562	5.42
1.88228	5.41
1.89895	5.40
1.91562	5.39
1.93228	5.38
1.94895	5.37
1.96562	5.36
1.98228	5.35
1.99895	5.34
2.01562	5.33
2.03228	5.32
2.04895	5.31
2.06562	5.30
2.08228	5.29
2.09895	5.28
2.11562	5.27
2.13228	5.26
2.14895	5.25
2.16562	5.24
2.18228	5.23
2.19895	5.22
2.21562	5.21
2.23228	5.20
2.24895	5.20
2.26562	5.18
2.28228	5.17
2.29895	5.17
2.31562	5.16
2.33228	5.15
2.34895	5.14
2.36562	5.13
2.38228	5.13
2.39895	5.13
2.41562	5.13
2.43228	5.13
2.44895	5.13
2.46562	5.13
2.48228	5.13
2.49895	5.13
2.51562	5.12
2.53228	5.12
2.54895	5.12
2.56562	5.12
2.58228	5.12
2.59895	5.12
2.61562	5.12
2.63228	5.12
2.64895	5.12
2.66562	5.12
2.68228	5.12
2.69895	5.12
2.71562	5.12
2.73228	5.12
2.74895	5.12
2.76562	5.12
2.78228	5.12
2.79895	5.12
2.81562	5.12
2.83228	5.12
2.84895	5.12
2.86562	5.12
2.88228	5.12
2.89895	5.12
2.91562	5.12
2.93228	5.12
2.94895	5.12
2.96562	5.12
2.98228	5.12
2.99895	5.12
3.01562	5.12
3.03228	5.12
3.04895	5.12
3.06562	5.12
3.08228	5.12
3.09895	5.12
3.11562	5.12
3.13228	5.12
3.14895	5.12
3.16562	5.12
3.18228	5.12
3.19895	5.12
3.21562	5.12
3.23228	5.12
3.24895	5.12
3.26562	5.12
3.28228	5.12
3.29895	5.12
3.31562	5.12
3.33228	5.12
3.34895	5.12
3.36562	5.12
3.38228	5.12
3.39895	5.12
3.41562	5.12
3.43228	5.12
3.44895	5.12
3.46562	5.12
3.48228	5.12
3.49895	5.12
3.51562	5.12
3.53228	5.12
3.54895	5.12
3.56562	5.12
3.58228	5.12
3.59895	5.12
3.61562	5.12
3.63228	5.12
3.64895	5.12
3.66562	5.12
3.68228	5.12
3.69895	5.12
3.71562	5.12
3.73228	5.12
3.74895	5.12
3.76562	5.12
3.78228	5.12
3.79895	5.12
3.81562	5.12
3.83228	5.12
3.84895	5.12
3.86562	5.12
3.88228	5.12
3.89895	5.12
3.91562	5.12
3.93228	5.12
3.94895	5.12
3.96562	5.12
3.98228	5.12

[Status Trace (Linear Velocity)]
Interval(msec)	1000
# of Points	239
Start Time(min)	0.016
End Time(min)	3.982
Intensity Units	
Intensity Multiplier	1
R.Time (min)	Intensity
0.01562	38.39
0.03228	37.60
0.04895	39.08
0.06562	40.26
0.08228	39.37
0.09895	39.01
0.11562	39.02
0.13228	39.03
0.14895	39.03
0.16562	39.03
0.18228	39.03
0.19895	39.03
0.21562	39.03
0.23228	39.03
0.24895	39.03
0.26562	39.03
0.28228	39.03
0.29895	39.03
0.31562	39.03
0.33228	39.03
0.34895	39.02
0.36562	39.02
0.38228	39.02
0.39895	39.02
0.41562	39.03
0.43228	39.03
0.44895	39.03
0.46562	39.03
0.48228	39.03
0.49895	39.03
0.51562	39.03
0.53228	39.03
0.54895	39.03
0.56562	39.03
0.58228	39.03
0.59895	39.03
0.61562	39.03
0.63228	39.03
0.64895	39.03
0.66562	39.03
0.68228	39.03
0.69895	39.02
0.71562	39.02
0.73228	39.02
0.74895	39.02
0.76562	39.02
0.78228	39.03
0.79895	39.03
0.81562	39.03
0.83228	39.03
0.84895	39.03
0.86562	39.03
0.88228	39.03
0.89895	39.03
0.91562	39.03
0.93228	39.03
0.94895	39.03
0.96562	39.03
0.98228	39.03
0.99895	39.03
1.01562	39.02
1.03228	39.02
1.04895	39.02
1.06562	39.03
1.08228	39.03
1.09895	39.03
1.11562	39.03
1.13228	39.03
1.14895	39.03
1.16562	39.03
1.18228	39.02
1.19895	39.03
1.21562	39.02
1.23228	39.02
1.24895	39.02
1.26562	39.02
1.28228	39.03
1.29895	39.03
1.31562	39.03
1.33228	39.03
1.34895	39.03
1.36562	39.03
1.38228	39.03
1.39895	39.03
1.41562	39.03
1.43228	39.03
1.44895	39.03
1.46562	39.02
1.48228	39.02
1.49895	39.02
1.51562	39.02
1.53228	39.02
1.54895	39.03
1.56562	39.03
1.58228	39.03
1.59895	39.03
1.61562	39.02
1.63228	39.01
1.64895	38.99
1.66562	38.96
1.68228	38.92
1.69895	38.89
1.71562	38.85
1.73228	38.82
1.74895	38.79
1.76562	38.76
1.78228	38.73
1.79895	38.70
1.81562	38.66
1.83228	38.63
1.84895	38.60
1.86562	38.57
1.88228	38.54
1.89895	38.51
1.91562	38.48
1.93228	38.45
1.94895	38.42
1.96562	38.39
1.98228	38.36
1.99895	38.33
2.01562	38.30
2.03228	38.27
2.04895	38.24
2.06562	38.21
2.08228	38.18
2.09895	38.15
2.11562	38.12
2.13228	38.09
2.14895	38.06
2.16562	38.03
2.18228	38.00
2.19895	37.97
2.21562	37.94
2.23228	37.91
2.24895	37.88
2.26562	37.85
2.28228	37.82
2.29895	37.79
2.31562	37.76
2.33228	37.73
2.34895	37.71
2.36562	37.68
2.38228	37.67
2.39895	37.66
2.41562	37.67
2.43228	37.67
2.44895	37.67
2.46562	37.67
2.48228	37.67
2.49895	37.66
2.51562	37.66
2.53228	37.66
2.54895	37.66
2.56562	37.66
2.58228	37.66
2.59895	37.66
2.61562	37.66
2.63228	37.66
2.64895	37.66
2.66562	37.66
2.68228	37.66
2.69895	37.66
2.71562	37.65
2.73228	37.66
2.74895	37.66
2.76562	37.65
2.78228	37.65
2.79895	37.65
2.81562	37.65
2.83228	37.65
2.84895	37.65
2.86562	37.65
2.88228	37.65
2.89895	37.65
2.91562	37.65
2.93228	37.65
2.94895	37.64
2.96562	37.64
2.98228	37.65
2.99895	37.65
3.01562	37.64
3.03228	37.64
3.04895	37.64
3.06562	37.64
3.08228	37.64
3.09895	37.64
3.11562	37.64
3.13228	37.64
3.14895	37.64
3.16562	37.64
3.18228	37.64
3.19895	37.63
3.21562	37.63
3.23228	37.63
3.24895	37.63
3.26562	37.64
3.28228	37.64
3.29895	37.64
3.31562	37.64
3.33228	37.64
3.34895	37.64
3.36562	37.64
3.38228	37.64
3.39895	37.64
3.41562	37.64
3.43228	37.64
3.44895	37.64
3.46562	37.64
3.48228	37.64
3.49895	37.64
3.51562	37.64
3.53228	37.64
3.54895	37.64
3.56562	37.64
3.58228	37.64
3.59895	37.64
3.61562	37.64
3.63228	37.64
3.64895	37.64
3.66562	37.64
3.68228	37.64
3.69895	37.64
3.71562	37.64
3.73228	37.64
3.74895	37.64
3.76562	37.64
3.78228	37.64
3.79895	37.64
3.81562	37.64
3.83228	37.64
3.84895	37.64
3.86562	37.64
3.88228	37.63
3.89895	37.63
3.91562	37.63
3.93228	37.63
3.94895	37.63
3.96562	37.63
3.98228	37.64

