[Header]
Application Name	LabSolutions
Version	5.110
Data File Name	C:\Users\User\Desktop\GC Analyses\Jack\Nachusa Grasslands Sampling\T1 Timepoint July 12th\T1_07122022_043.gcd
Output Date	3/14/2023
Output Time	3:40:59 PM

[File Information]
Type	Data File
Generated	3/8/2023 5:58:24 PM
Generated by	System Administrator
Modified	3/8/2023 6:05:14 PM
Modified by	System Administrator

[Sample Information]
Operator Name	System Administrator
Acquired	3/8/2023 6:01:12 PM
Sample Type	0:Unknown
Level	0
Sample Name	043
Sample ID	043
ISTD Amount1	1
ISTD Amount2	1
ISTD Amount3	1
ISTD Amount4	1
ISTD Amount5	1
ISTD Amount6	1
ISTD Amount7	1
ISTD Amount8	1
ISTD Amount9	1
ISTD Amount10	1
ISTD Amount11	1
ISTD Amount12	1
ISTD Amount13	1
ISTD Amount14	1
ISTD Amount15	1
ISTD Amount16	1
ISTD Amount17	1
ISTD Amount18	1
ISTD Amount19	1
ISTD Amount20	1
ISTD Amount21	1
ISTD Amount22	1
ISTD Amount23	1
ISTD Amount24	1
ISTD Amount25	1
ISTD Amount26	1
ISTD Amount27	1
ISTD Amount28	1
ISTD Amount29	1
ISTD Amount30	1
ISTD Amount31	1
ISTD Amount32	1
Sample Amount	1
Dilution Factor	1
Vial#	42
Injection Volume	1
Injection Count	1
Bar Code	

[Original Files]
Data File	C:\Users\User\Desktop\GC Analyses\Jack\Nachusa Grasslands Sampling\T1 Timepoint July 12th\T1_07122022_043.gcd
Method File	C:\LabSolutions\Data\GHG_4min_2022\ghg3_togas_w_acet_4 min_new_int.gcm
Batch File	C:\LabSolutions\Data\AutoSamplerTesting\T1_07122022.gcb
Report Format File	c:\LabSolutions\System\DEFAULT.lsr

[File Description]


[Configuration]
Instrument Name	C0B7VH3-Instrument1
Instrument #	1
Line #	1
# of Detectors	3
Detector ID	DET#1	DET#2	DET#3
Detector Name	FID	PTCD	ECD
# of Channels	1	1	1

[Peak Table(Ch1)]
# of Peaks	3
Peak#	R.Time	I.Time	F.Time	Area	Height	A/H	Conc.	Mark	ID#	Name	k'	Plate #	Plate Ht.	Tailing	Resolution	Sep.Factor	Area Ratio	Height Ratio	Conc. %	Norm Conc.
1	1.476	1.439	1.538	48795	23435	2.082	344.496	   	1	CO	0.000	9609	15.611	1.326	0.000	0.000	0	0	45.294	45.294
2	1.567	1.538	1.622	4883	2331	2.095	94.410	 V 	2	CH4	0.062	10003	14.995	0.000	1.492	0.000	0	0	12.413	12.413
3	1.996	1.952	2.462	1281672	606518	2.113	321.665	   	3	CO2	0.353	17326	8.658	1.305	6.956	5.680	0	0	42.293	42.293

[Peak Table(Ch2)]
# of Peaks	0

[Peak Table(Ch3)]
# of Peaks	5
Peak#	R.Time	I.Time	F.Time	Area	Height	A/H	Conc.	Mark	ID#	Name	k'	Plate #	Plate Ht.	Tailing	Resolution	Sep.Factor	Area Ratio	Height Ratio	Conc. %	Norm Conc.
1	2.462	2.180	2.517	2143	475	4.514	0.000	   			0.000	8492	17.664	0.000	0.000	0.000	0	0	0.000	0.000
2	2.543	2.517	2.631	1050	252	4.164	0.000	 V 			0.033	3471	43.216	0.000	0.577	0.000	0	0	0.000	0.000
3	2.678	2.645	2.792	207	55	3.802	0.000	   			0.088	11597	12.934	2.229	0.997	2.682	0	0	0.000	0.000
4	2.873	2.810	3.030	18122	4882	3.712	0.463	   	1	N2O	0.167	13499	11.112	1.624	1.959	1.898	0	0	100.000	100.000
5	3.243	3.144	3.995	11645	459	25.396	0.000	   	2	SF6	0.317	349	429.479	4.452	0.934	1.902	0	0	0.000	0.000

[Compound Results(Ch1)]
# of IDs	6
ID#	Name	R.Time	Area	Height	Conc.	Curve	3rd	2nd	1st	Constant	Area Ratio	Height Ratio	Conc. %	Norm Conc.
1	CO	1.476	48795	23435	344.496	Linear	0.000000e+00	0.000000e+00	1.416423e+002	0.000000e+00	0	0	45.294	45.294
2	CH4	1.567	4883	2331	94.410	Linear	0.000000e+00	0.000000e+00	5.171738e+001	0.000000e+00	0	0	12.413	12.413
3	CO2	1.996	1281672	606518	321.665	Linear	0.000000e+00	0.000000e+00	3.984494e+003	0.000000e+00	0	0	42.293	42.293
4	Ethylene	0.000	0	0	0.000	Linear	0.000000e+00	0.000000e+00	0.000000e+00	0.000000e+00	0	0	0.000	0.000
5	Acetylene	0.000	0	0	0.000	Linear	0.000000e+00	0.000000e+00	0.000000e+00	0.000000e+00	0	0	0.000	0.000
6	Ethane	0.000	0	0	0.000	Linear	0.000000e+00	0.000000e+00	0.000000e+00	0.000000e+00	0	0	0.000	0.000

[Compound Results(Ch2)]
# of IDs	5
ID#	Name	R.Time	Area	Height	Conc.	Curve	3rd	2nd	1st	Constant	Area Ratio	Height Ratio	Conc. %	Norm Conc.
1	Hydrogen	0.000	0	0	0.000	Linear	0.000000e+00	0.000000e+00	0.000000e+00	0.000000e+00	0	0	0.000	0.000
2	Oxygen	0.000	0	0	0.000	Linear	0.000000e+00	0.000000e+00	0.000000e+00	0.000000e+00	0	0	0.000	0.000
3	Nitrogen	0.000	0	0	0.000	Linear	0.000000e+00	0.000000e+00	0.000000e+00	0.000000e+00	0	0	0.000	0.000
4	Methane	0.000	0	0	0.000	Linear	0.000000e+00	0.000000e+00	0.000000e+00	0.000000e+00	0	0	0.000	0.000
5	Carbon Monoxide	0.000	0	0	0.000	Linear	0.000000e+00	0.000000e+00	0.000000e+00	0.000000e+00	0	0	0.000	0.000

[Compound Results(Ch3)]
# of IDs	2
ID#	Name	R.Time	Area	Height	Conc.	Curve	3rd	2nd	1st	Constant	Area Ratio	Height Ratio	Conc. %	Norm Conc.
1	N2O	2.873	18122	4882	0.463	Linear	0.000000e+00	0.000000e+00	3.915173e+004	0.000000e+00	0	0	100.000	100.000
2	SF6	3.243	11645	459	0.000	Linear	0.000000e+00	0.000000e+00	0.000000e+00	0.000000e+00	0	0	0.000	0.000

[Group Results(Ch1)]
# of Groups	0

[Group Results(Ch2)]
# of Groups	0

[Group Results(Ch3)]
# of Groups	0

[Chromatogram (Ch1)]
Interval(msec)	220
# of Points	1091
Start Time(min)	0.002
End Time(min)	3.998
R.Time (min)	Intensity
0.00167	52
0.00533	53
0.00900	47
0.01267	35
0.01633	26
0.02000	19
0.02367	13
0.02733	11
0.03100	14
0.03467	19
0.03833	25
0.04200	31
0.04567	35
0.04933	35
0.05300	37
0.05667	46
0.06033	52
0.06400	53
0.06767	52
0.07133	48
0.07500	48
0.07867	48
0.08233	50
0.08600	51
0.08967	52
0.09333	57
0.09700	65
0.10067	77
0.10433	90
0.10800	98
0.11167	102
0.11533	107
0.11900	112
0.12267	122
0.12633	130
0.13000	131
0.13367	124
0.13733	116
0.14100	105
0.14467	97
0.14833	91
0.15200	90
0.15567	94
0.15933	104
0.16300	120
0.16667	132
0.17033	134
0.17400	124
0.17767	107
0.18133	97
0.18500	95
0.18867	99
0.19233	106
0.19600	113
0.19967	110
0.20333	97
0.20700	76
0.21067	58
0.21433	45
0.21800	35
0.22167	27
0.22533	22
0.22900	22
0.23267	26
0.23633	29
0.24000	29
0.24367	29
0.24733	34
0.25100	39
0.25467	38
0.25833	38
0.26200	33
0.26567	24
0.26933	21
0.27300	25
0.27667	31
0.28033	35
0.28400	36
0.28767	33
0.29133	27
0.29500	23
0.29867	23
0.30233	27
0.30600	31
0.30967	34
0.31333	37
0.31700	37
0.32067	32
0.32433	25
0.32800	19
0.33167	16
0.33533	19
0.33900	25
0.34267	30
0.34633	33
0.35000	35
0.35367	39
0.35733	45
0.36100	50
0.36467	52
0.36833	55
0.37200	58
0.37567	59
0.37933	56
0.38300	52
0.38667	47
0.39033	44
0.39400	42
0.39767	42
0.40133	42
0.40500	42
0.40867	41
0.41233	42
0.41600	43
0.41967	43
0.42333	44
0.42700	45
0.43067	44
0.43433	42
0.43800	40
0.44167	38
0.44533	41
0.44900	50
0.45267	54
0.45633	53
0.46000	51
0.46367	46
0.46733	39
0.47100	36
0.47467	36
0.47833	41
0.48200	47
0.48567	50
0.48933	54
0.49300	58
0.49667	60
0.50033	58
0.50400	53
0.50767	45
0.51133	39
0.51500	37
0.51867	36
0.52233	36
0.52600	36
0.52967	38
0.53333	40
0.53700	42
0.54067	46
0.54433	52
0.54800	60
0.55167	69
0.55533	77
0.55900	84
0.56267	88
0.56633	87
0.57000	80
0.57367	68
0.57733	53
0.58100	42
0.58467	36
0.58833	35
0.59200	35
0.59567	31
0.59933	28
0.60300	33
0.60667	42
0.61033	48
0.61400	50
0.61767	52
0.62133	59
0.62500	69
0.62867	76
0.63233	75
0.63600	68
0.63967	60
0.64333	55
0.64700	49
0.65067	44
0.65433	42
0.65800	43
0.66167	46
0.66533	49
0.66900	51
0.67267	53
0.67633	56
0.68000	62
0.68367	67
0.68733	65
0.69100	58
0.69467	50
0.69833	48
0.70200	52
0.70567	55
0.70933	56
0.71300	56
0.71667	51
0.72033	44
0.72400	40
0.72767	37
0.73133	38
0.73500	40
0.73867	45
0.74233	51
0.74600	58
0.74967	60
0.75333	58
0.75700	53
0.76067	47
0.76433	50
0.76800	58
0.77167	66
0.77533	74
0.77900	84
0.78267	87
0.78633	82
0.79000	69
0.79367	53
0.79733	39
0.80100	27
0.80467	22
0.80833	19
0.81200	21
0.81567	25
0.81933	33
0.82300	45
0.82667	54
0.83033	59
0.83400	60
0.83767	62
0.84133	63
0.84500	64
0.84867	66
0.85233	70
0.85600	70
0.85967	60
0.86333	46
0.86700	34
0.87067	29
0.87433	29
0.87800	30
0.88167	34
0.88533	35
0.88900	35
0.89267	36
0.89633	35
0.90000	31
0.90367	30
0.90733	35
0.91100	42
0.91467	50
0.91833	56
0.92200	59
0.92567	61
0.92933	60
0.93300	58
0.93667	58
0.94033	58
0.94400	58
0.94767	56
0.95133	50
0.95500	46
0.95867	44
0.96233	42
0.96600	42
0.96967	41
0.97333	39
0.97700	37
0.98067	37
0.98433	34
0.98800	32
0.99167	32
0.99533	37
0.99900	41
1.00267	43
1.00633	44
1.01000	46
1.01367	48
1.01733	52
1.02100	53
1.02467	52
1.02833	51
1.03200	52
1.03567	58
1.03933	66
1.04300	73
1.04667	78
1.05033	79
1.05400	77
1.05767	72
1.06133	65
1.06500	58
1.06867	53
1.07233	46
1.07600	36
1.07967	29
1.08333	27
1.08700	27
1.09067	27
1.09433	30
1.09800	36
1.10167	41
1.10533	42
1.10900	44
1.11267	45
1.11633	43
1.12000	39
1.12367	35
1.12733	31
1.13100	28
1.13467	28
1.13833	31
1.14200	35
1.14567	39
1.14933	42
1.15300	41
1.15667	41
1.16033	46
1.16400	53
1.16767	54
1.17133	49
1.17500	43
1.17867	36
1.18233	30
1.18600	28
1.18967	30
1.19333	35
1.19700	42
1.20067	52
1.20433	58
1.20800	58
1.21167	55
1.21533	54
1.21900	55
1.22267	57
1.22633	59
1.23000	61
1.23367	63
1.23733	62
1.24100	58
1.24467	51
1.24833	44
1.25200	42
1.25567	41
1.25933	38
1.26300	33
1.26667	29
1.27033	25
1.27400	23
1.27767	19
1.28133	15
1.28500	12
1.28867	14
1.29233	20
1.29600	30
1.29967	43
1.30333	54
1.30700	58
1.31067	56
1.31433	51
1.31800	46
1.32167	41
1.32533	39
1.32900	36
1.33267	33
1.33633	30
1.34000	29
1.34367	29
1.34733	29
1.35100	31
1.35467	35
1.35833	36
1.36200	36
1.36567	38
1.36933	40
1.37300	43
1.37667	44
1.38033	44
1.38400	39
1.38767	29
1.39133	18
1.39500	10
1.39867	4
1.40233	-1
1.40600	-0
1.40967	5
1.41333	10
1.41700	13
1.42067	12
1.42433	9
1.42800	6
1.43167	5
1.43533	11
1.43900	36
1.44267	137
1.44633	440
1.45000	1367
1.45367	3674
1.45733	7526
1.46100	12127
1.46467	16491
1.46833	20019
1.47200	22425
1.47567	23485
1.47933	22999
1.48300	20989
1.48667	17859
1.49033	14275
1.49400	10858
1.49767	7981
1.50133	5752
1.50500	4112
1.50867	2944
1.51233	2128
1.51600	1565
1.51967	1181
1.52333	914
1.52700	726
1.53067	592
1.53433	497
1.53800	443
1.54167	460
1.54533	604
1.54900	903
1.55267	1305
1.55633	1715
1.56000	2055
1.56367	2297
1.56733	2419
1.57100	2389
1.57467	2195
1.57833	1874
1.58200	1499
1.58567	1141
1.58933	844
1.59300	624
1.59667	467
1.60033	355
1.60400	276
1.60767	217
1.61133	169
1.61500	136
1.61867	118
1.62233	110
1.62600	107
1.62967	108
1.63333	111
1.63700	112
1.64067	109
1.64433	100
1.64800	92
1.65167	86
1.65533	81
1.65900	78
1.66267	76
1.66633	75
1.67000	77
1.67367	82
1.67733	85
1.68100	84
1.68467	85
1.68833	85
1.69200	78
1.69567	69
1.69933	61
1.70300	54
1.70667	48
1.71033	44
1.71400	41
1.71767	39
1.72133	43
1.72500	54
1.72867	63
1.73233	62
1.73600	54
1.73967	48
1.74333	47
1.74700	52
1.75067	56
1.75433	57
1.75800	56
1.76167	53
1.76533	47
1.76900	40
1.77267	37
1.77633	36
1.78000	35
1.78367	33
1.78733	32
1.79100	30
1.79467	32
1.79833	39
1.80200	47
1.80567	52
1.80933	54
1.81300	56
1.81667	54
1.82033	50
1.82400	45
1.82767	41
1.83133	41
1.83500	37
1.83867	33
1.84233	29
1.84600	30
1.84967	35
1.85333	43
1.85700	49
1.86067	53
1.86433	55
1.86800	53
1.87167	51
1.87533	52
1.87900	53
1.88267	56
1.88633	60
1.89000	59
1.89367	51
1.89733	41
1.90100	38
1.90467	38
1.90833	38
1.91200	37
1.91567	32
1.91933	31
1.92300	34
1.92667	41
1.93033	45
1.93400	48
1.93767	49
1.94133	52
1.94500	55
1.94867	57
1.95233	67
1.95600	169
1.95967	778
1.96333	3526
1.96700	12951
1.97067	37755
1.97433	88549
1.97800	170629
1.98167	277515
1.98533	392258
1.98900	495225
1.99267	570310
1.99633	606616
2.00000	599708
2.00367	552662
2.00733	476212
2.01100	385986
2.01467	296972
2.01833	219282
2.02200	157227
2.02567	110732
2.02933	77419
2.03300	54264
2.03667	38469
2.04033	27799
2.04400	20598
2.04767	15713
2.05133	12361
2.05500	10020
2.05867	8350
2.06233	7127
2.06600	6208
2.06967	5501
2.07333	4943
2.07700	4490
2.08067	4112
2.08433	3793
2.08800	3516
2.09167	3276
2.09533	3074
2.09900	2900
2.10267	2740
2.10633	2594
2.11000	2461
2.11367	2337
2.11733	2228
2.12100	2131
2.12467	2044
2.12833	1966
2.13200	1895
2.13567	1828
2.13933	1761
2.14300	1696
2.14667	1635
2.15033	1582
2.15400	1533
2.15767	1487
2.16133	1441
2.16500	1400
2.16867	1358
2.17233	1315
2.17600	1274
2.17967	1236
2.18333	1203
2.18700	1174
2.19067	1145
2.19433	1116
2.19800	1087
2.20167	1059
2.20533	1029
2.20900	997
2.21267	970
2.21633	950
2.22000	933
2.22367	915
2.22733	900
2.23100	885
2.23467	876
2.23833	868
2.24200	855
2.24567	834
2.24933	810
2.25300	786
2.25667	769
2.26033	757
2.26400	745
2.26767	736
2.27133	727
2.27500	716
2.27867	700
2.28233	682
2.28600	669
2.28967	662
2.29333	659
2.29700	656
2.30067	653
2.30433	653
2.30800	654
2.31167	649
2.31533	633
2.31900	611
2.32267	590
2.32633	574
2.33000	563
2.33367	560
2.33733	558
2.34100	553
2.34467	545
2.34833	543
2.35200	543
2.35567	541
2.35933	534
2.36300	521
2.36667	507
2.37033	496
2.37400	491
2.37767	490
2.38133	493
2.38500	496
2.38867	495
2.39233	491
2.39600	486
2.39967	483
2.40333	480
2.40700	476
2.41067	476
2.41433	478
2.41800	479
2.42167	476
2.42533	469
2.42900	467
2.43267	470
2.43633	471
2.44000	467
2.44367	456
2.44733	445
2.45100	437
2.45467	431
2.45833	426
2.46200	423
2.46567	425
2.46933	428
2.47300	432
2.47667	433
2.48033	432
2.48400	428
2.48767	422
2.49133	421
2.49500	418
2.49867	417
2.50233	419
2.50600	420
2.50967	425
2.51333	436
2.51700	447
2.52067	451
2.52433	450
2.52800	448
2.53167	449
2.53533	455
2.53900	460
2.54267	465
2.54633	467
2.55000	461
2.55367	448
2.55733	432
2.56100	416
2.56467	405
2.56833	398
2.57200	396
2.57567	397
2.57933	397
2.58300	394
2.58667	390
2.59033	390
2.59400	395
2.59767	401
2.60133	407
2.60500	412
2.60867	413
2.61233	419
2.61600	429
2.61967	436
2.62333	441
2.62700	447
2.63067	449
2.63433	447
2.63800	444
2.64167	440
2.64533	436
2.64900	436
2.65267	436
2.65633	436
2.66000	431
2.66367	423
2.66733	417
2.67100	416
2.67467	417
2.67833	419
2.68200	420
2.68567	420
2.68933	420
2.69300	421
2.69667	423
2.70033	424
2.70400	425
2.70767	428
2.71133	430
2.71500	432
2.71867	431
2.72233	431
2.72600	429
2.72967	424
2.73333	422
2.73700	422
2.74067	424
2.74433	425
2.74800	427
2.75167	431
2.75533	436
2.75900	437
2.76267	433
2.76633	430
2.77000	432
2.77367	436
2.77733	435
2.78100	427
2.78467	418
2.78833	411
2.79200	407
2.79567	412
2.79933	425
2.80300	440
2.80667	447
2.81033	441
2.81400	435
2.81767	433
2.82133	432
2.82500	428
2.82867	422
2.83233	414
2.83600	405
2.83967	400
2.84333	398
2.84700	400
2.85067	403
2.85433	404
2.85800	404
2.86167	402
2.86533	401
2.86900	403
2.87267	407
2.87633	409
2.88000	406
2.88367	399
2.88733	397
2.89100	401
2.89467	408
2.89833	418
2.90200	423
2.90567	421
2.90933	418
2.91300	415
2.91667	417
2.92033	419
2.92400	419
2.92767	415
2.93133	413
2.93500	421
2.93867	429
2.94233	430
2.94600	427
2.94967	422
2.95333	420
2.95700	423
2.96067	425
2.96433	428
2.96800	428
2.97167	425
2.97533	420
2.97900	419
2.98267	426
2.98633	437
2.99000	452
2.99367	466
2.99733	468
3.00100	460
3.00467	445
3.00833	434
3.01200	431
3.01567	434
3.01933	433
3.02300	427
3.02667	420
3.03033	417
3.03400	416
3.03767	417
3.04133	416
3.04500	416
3.04867	419
3.05233	423
3.05600	426
3.05967	426
3.06333	423
3.06700	423
3.07067	428
3.07433	436
3.07800	441
3.08167	443
3.08533	440
3.08900	434
3.09267	429
3.09633	426
3.10000	425
3.10367	425
3.10733	421
3.11100	416
3.11467	415
3.11833	418
3.12200	421
3.12567	426
3.12933	433
3.13300	438
3.13667	439
3.14033	436
3.14400	430
3.14767	426
3.15133	423
3.15500	421
3.15867	421
3.16233	420
3.16600	423
3.16967	433
3.17333	438
3.17700	431
3.18067	419
3.18433	409
3.18800	400
3.19167	395
3.19533	391
3.19900	389
3.20267	388
3.20633	391
3.21000	396
3.21367	403
3.21733	411
3.22100	416
3.22467	418
3.22833	418
3.23200	416
3.23567	412
3.23933	407
3.24300	403
3.24667	401
3.25033	399
3.25400	398
3.25767	396
3.26133	401
3.26500	412
3.26867	422
3.27233	427
3.27600	426
3.27967	423
3.28333	424
3.28700	425
3.29067	424
3.29433	423
3.29800	422
3.30167	420
3.30533	415
3.30900	411
3.31267	406
3.31633	402
3.32000	400
3.32367	400
3.32733	400
3.33100	402
3.33467	409
3.33833	421
3.34200	428
3.34567	430
3.34933	427
3.35300	425
3.35667	423
3.36033	419
3.36400	417
3.36767	416
3.37133	414
3.37500	410
3.37867	403
3.38233	398
3.38600	397
3.38967	399
3.39333	399
3.39700	399
3.40067	397
3.40433	397
3.40800	403
3.41167	412
3.41533	425
3.41900	438
3.42267	443
3.42633	439
3.43000	427
3.43367	410
3.43733	391
3.44100	379
3.44467	374
3.44833	370
3.45200	368
3.45567	369
3.45933	368
3.46300	366
3.46667	362
3.47033	361
3.47400	363
3.47767	368
3.48133	373
3.48500	377
3.48867	379
3.49233	380
3.49600	381
3.49967	385
3.50333	391
3.50700	396
3.51067	400
3.51433	400
3.51800	396
3.52167	389
3.52533	383
3.52900	382
3.53267	381
3.53633	379
3.54000	379
3.54367	376
3.54733	372
3.55100	368
3.55467	367
3.55833	367
3.56200	362
3.56567	357
3.56933	350
3.57300	344
3.57667	344
3.58033	350
3.58400	356
3.58767	363
3.59133	375
3.59500	385
3.59867	389
3.60233	389
3.60600	384
3.60967	377
3.61333	370
3.61700	363
3.62067	355
3.62433	350
3.62800	347
3.63167	344
3.63533	343
3.63900	346
3.64267	348
3.64633	348
3.65000	347
3.65367	348
3.65733	349
3.66100	353
3.66467	359
3.66833	362
3.67200	358
3.67567	350
3.67933	345
3.68300	343
3.68667	343
3.69033	344
3.69400	344
3.69767	345
3.70133	346
3.70500	346
3.70867	347
3.71233	348
3.71600	347
3.71967	346
3.72333	343
3.72700	338
3.73067	337
3.73433	343
3.73800	349
3.74167	351
3.74533	350
3.74900	352
3.75267	357
3.75633	357
3.76000	349
3.76367	341
3.76733	336
3.77100	333
3.77467	330
3.77833	327
3.78200	325
3.78567	328
3.78933	331
3.79300	329
3.79667	324
3.80033	320
3.80400	319
3.80767	320
3.81133	315
3.81500	309
3.81867	308
3.82233	312
3.82600	323
3.82967	336
3.83333	347
3.83700	349
3.84067	344
3.84433	335
3.84800	325
3.85167	313
3.85533	299
3.85900	289
3.86267	285
3.86633	283
3.87000	281
3.87367	283
3.87733	288
3.88100	294
3.88467	298
3.88833	301
3.89200	300
3.89567	296
3.89933	295
3.90300	297
3.90667	300
3.91033	303
3.91400	306
3.91767	306
3.92133	300
3.92500	294
3.92867	287
3.93233	280
3.93600	278
3.93967	277
3.94333	277
3.94700	279
3.95067	288
3.95433	299
3.95800	306
3.96167	306
3.96533	302
3.96900	298
3.97267	295
3.97633	296
3.98000	295
3.98367	288
3.98733	281
3.99100	274
3.99467	270
3.99833	275

[Chromatogram (Ch2)]
Interval(msec)	220
# of Points	1091
Start Time(min)	0.002
End Time(min)	3.998
R.Time (min)	Intensity
0.00167	-1
0.00533	-1
0.00900	-1
0.01267	-2
0.01633	-2
0.02000	-2
0.02367	-2
0.02733	-2
0.03100	-1
0.03467	-1
0.03833	-1
0.04200	-1
0.04567	-1
0.04933	-1
0.05300	-0
0.05667	-0
0.06033	-0
0.06400	0
0.06767	0
0.07133	1
0.07500	1
0.07867	2
0.08233	2
0.08600	2
0.08967	2
0.09333	2
0.09700	2
0.10067	2
0.10433	2
0.10800	2
0.11167	2
0.11533	2
0.11900	2
0.12267	2
0.12633	2
0.13000	2
0.13367	3
0.13733	3
0.14100	4
0.14467	4
0.14833	4
0.15200	5
0.15567	5
0.15933	5
0.16300	4
0.16667	4
0.17033	4
0.17400	3
0.17767	3
0.18133	2
0.18500	1
0.18867	1
0.19233	0
0.19600	-0
0.19967	-1
0.20333	-1
0.20700	-1
0.21067	-1
0.21433	-1
0.21800	-1
0.22167	-1
0.22533	-1
0.22900	-0
0.23267	-0
0.23633	0
0.24000	0
0.24367	1
0.24733	1
0.25100	2
0.25467	2
0.25833	2
0.26200	2
0.26567	2
0.26933	3
0.27300	3
0.27667	3
0.28033	4
0.28400	4
0.28767	4
0.29133	4
0.29500	3
0.29867	3
0.30233	2
0.30600	2
0.30967	1
0.31333	1
0.31700	1
0.32067	0
0.32433	0
0.32800	0
0.33167	0
0.33533	0
0.33900	0
0.34267	0
0.34633	0
0.35000	0
0.35367	0
0.35733	0
0.36100	0
0.36467	0
0.36833	0
0.37200	0
0.37567	0
0.37933	0
0.38300	0
0.38667	-0
0.39033	-0
0.39400	-1
0.39767	-1
0.40133	-1
0.40500	-1
0.40867	-1
0.41233	-1
0.41600	-1
0.41967	-1
0.42333	-1
0.42700	-2
0.43067	-2
0.43433	-1
0.43800	-1
0.44167	-1
0.44533	-0
0.44900	-0
0.45267	0
0.45633	0
0.46000	0
0.46367	0
0.46733	0
0.47100	0
0.47467	1
0.47833	1
0.48200	1
0.48567	2
0.48933	2
0.49300	2
0.49667	2
0.50033	2
0.50400	2
0.50767	2
0.51133	1
0.51500	1
0.51867	1
0.52233	1
0.52600	1
0.52967	2
0.53333	2
0.53700	2
0.54067	3
0.54433	3
0.54800	2
0.55167	2
0.55533	2
0.55900	2
0.56267	2
0.56633	2
0.57000	2
0.57367	2
0.57733	2
0.58100	2
0.58467	2
0.58833	2
0.59200	2
0.59567	2
0.59933	3
0.60300	3
0.60667	3
0.61033	3
0.61400	3
0.61767	3
0.62133	3
0.62500	3
0.62867	2
0.63233	2
0.63600	1
0.63967	1
0.64333	0
0.64700	-0
0.65067	-0
0.65433	-1
0.65800	-1
0.66167	-1
0.66533	-1
0.66900	-1
0.67267	-0
0.67633	-0
0.68000	-0
0.68367	-1
0.68733	-1
0.69100	-1
0.69467	-1
0.69833	-1
0.70200	-1
0.70567	-2
0.70933	-2
0.71300	-2
0.71667	-2
0.72033	-2
0.72400	-2
0.72767	-2
0.73133	-2
0.73500	-2
0.73867	-2
0.74233	-2
0.74600	-3
0.74967	-2
0.75333	-2
0.75700	-2
0.76067	-2
0.76433	-1
0.76800	-1
0.77167	-1
0.77533	-1
0.77900	-1
0.78267	-0
0.78633	0
0.79000	0
0.79367	1
0.79733	1
0.80100	1
0.80467	1
0.80833	1
0.81200	2
0.81567	2
0.81933	2
0.82300	2
0.82667	2
0.83033	1
0.83400	1
0.83767	1
0.84133	1
0.84500	1
0.84867	1
0.85233	1
0.85600	1
0.85967	1
0.86333	1
0.86700	0
0.87067	0
0.87433	-0
0.87800	-0
0.88167	-1
0.88533	-1
0.88900	-2
0.89267	-2
0.89633	-3
0.90000	-3
0.90367	-4
0.90733	-4
0.91100	-4
0.91467	-4
0.91833	-5
0.92200	-5
0.92567	-5
0.92933	-5
0.93300	-6
0.93667	-6
0.94033	-6
0.94400	-6
0.94767	-5
0.95133	-5
0.95500	-5
0.95867	-4
0.96233	-4
0.96600	-4
0.96967	-3
0.97333	-3
0.97700	-2
0.98067	-2
0.98433	-1
0.98800	-1
0.99167	-0
0.99533	-0
0.99900	0
1.00267	1
1.00633	1
1.01000	1
1.01367	1
1.01733	0
1.02100	-0
1.02467	-1
1.02833	-1
1.03200	-1
1.03567	-2
1.03933	-2
1.04300	-2
1.04667	-2
1.05033	-3
1.05400	-3
1.05767	-3
1.06133	-3
1.06500	-3
1.06867	-3
1.07233	-3
1.07600	-4
1.07967	-4
1.08333	-4
1.08700	-4
1.09067	-4
1.09433	-4
1.09800	-4
1.10167	-3
1.10533	-3
1.10900	-3
1.11267	-3
1.11633	-3
1.12000	-3
1.12367	-3
1.12733	-3
1.13100	-4
1.13467	-4
1.13833	-4
1.14200	-4
1.14567	-4
1.14933	-4
1.15300	-4
1.15667	-4
1.16033	-4
1.16400	-4
1.16767	-4
1.17133	-4
1.17500	-4
1.17867	-4
1.18233	-4
1.18600	-4
1.18967	-4
1.19333	-4
1.19700	-4
1.20067	-4
1.20433	-5
1.20800	-5
1.21167	-5
1.21533	-5
1.21900	-5
1.22267	-5
1.22633	-5
1.23000	-5
1.23367	-5
1.23733	-5
1.24100	-5
1.24467	-5
1.24833	-5
1.25200	-5
1.25567	-5
1.25933	-5
1.26300	-5
1.26667	-5
1.27033	-5
1.27400	-5
1.27767	-6
1.28133	-5
1.28500	-5
1.28867	-5
1.29233	-5
1.29600	-4
1.29967	-4
1.30333	-4
1.30700	-4
1.31067	-4
1.31433	-4
1.31800	-3
1.32167	-3
1.32533	-3
1.32900	-3
1.33267	-2
1.33633	-2
1.34000	-2
1.34367	-2
1.34733	-2
1.35100	-2
1.35467	-2
1.35833	-2
1.36200	-2
1.36567	-2
1.36933	-2
1.37300	-2
1.37667	-2
1.38033	-2
1.38400	-2
1.38767	-2
1.39133	-2
1.39500	-2
1.39867	-3
1.40233	-3
1.40600	-3
1.40967	-3
1.41333	-3
1.41700	-3
1.42067	-3
1.42433	-3
1.42800	-2
1.43167	-2
1.43533	-2
1.43900	-2
1.44267	-2
1.44633	-2
1.45000	-2
1.45367	-2
1.45733	-2
1.46100	-2
1.46467	-3
1.46833	-3
1.47200	-2
1.47567	-2
1.47933	-2
1.48300	-2
1.48667	-1
1.49033	-1
1.49400	-1
1.49767	-1
1.50133	-1
1.50500	-2
1.50867	-2
1.51233	-2
1.51600	-2
1.51967	-2
1.52333	-2
1.52700	-3
1.53067	-3
1.53433	-3
1.53800	-3
1.54167	-3
1.54533	-3
1.54900	-3
1.55267	-4
1.55633	-4
1.56000	-5
1.56367	-5
1.56733	-5
1.57100	-6
1.57467	-6
1.57833	-6
1.58200	-6
1.58567	-6
1.58933	-6
1.59300	-6
1.59667	-6
1.60033	-7
1.60400	-8
1.60767	-9
1.61133	-11
1.61500	-13
1.61867	-15
1.62233	-17
1.62600	-20
1.62967	-23
1.63333	-26
1.63700	-30
1.64067	-33
1.64433	-37
1.64800	-41
1.65167	-45
1.65533	-48
1.65900	-52
1.66267	-56
1.66633	-60
1.67000	-64
1.67367	-69
1.67733	-73
1.68100	-78
1.68467	-83
1.68833	-87
1.69200	-91
1.69567	-95
1.69933	-97
1.70300	-100
1.70667	-101
1.71033	-103
1.71400	-105
1.71767	-106
1.72133	-107
1.72500	-109
1.72867	-110
1.73233	-111
1.73600	-112
1.73967	-113
1.74333	-114
1.74700	-115
1.75067	-115
1.75433	-116
1.75800	-116
1.76167	-115
1.76533	-115
1.76900	-115
1.77267	-114
1.77633	-115
1.78000	-115
1.78367	-116
1.78733	-116
1.79100	-117
1.79467	-117
1.79833	-117
1.80200	-117
1.80567	-117
1.80933	-117
1.81300	-117
1.81667	-117
1.82033	-117
1.82400	-117
1.82767	-117
1.83133	-117
1.83500	-117
1.83867	-118
1.84233	-119
1.84600	-120
1.84967	-120
1.85333	-120
1.85700	-120
1.86067	-119
1.86433	-119
1.86800	-118
1.87167	-118
1.87533	-117
1.87900	-117
1.88267	-117
1.88633	-117
1.89000	-117
1.89367	-117
1.89733	-117
1.90100	-117
1.90467	-117
1.90833	-117
1.91200	-116
1.91567	-116
1.91933	-116
1.92300	-116
1.92667	-115
1.93033	-115
1.93400	-115
1.93767	-114
1.94133	-114
1.94500	-114
1.94867	-114
1.95233	-114
1.95600	-114
1.95967	-114
1.96333	-114
1.96700	-114
1.97067	-114
1.97433	-114
1.97800	-114
1.98167	-113
1.98533	-113
1.98900	-113
1.99267	-113
1.99633	-113
2.00000	-112
2.00367	-112
2.00733	-111
2.01100	-111
2.01467	-111
2.01833	-110
2.02200	-110
2.02567	-109
2.02933	-108
2.03300	-108
2.03667	-107
2.04033	-107
2.04400	-106
2.04767	-105
2.05133	-104
2.05500	-104
2.05867	-103
2.06233	-103
2.06600	-103
2.06967	-103
2.07333	-103
2.07700	-103
2.08067	-103
2.08433	-104
2.08800	-104
2.09167	-104
2.09533	-105
2.09900	-105
2.10267	-105
2.10633	-104
2.11000	-103
2.11367	-103
2.11733	-102
2.12100	-102
2.12467	-101
2.12833	-101
2.13200	-102
2.13567	-102
2.13933	-102
2.14300	-102
2.14667	-101
2.15033	-101
2.15400	-100
2.15767	-99
2.16133	-99
2.16500	-99
2.16867	-98
2.17233	-98
2.17600	-97
2.17967	-96
2.18333	-96
2.18700	-95
2.19067	-95
2.19433	-94
2.19800	-94
2.20167	-94
2.20533	-94
2.20900	-94
2.21267	-94
2.21633	-93
2.22000	-93
2.22367	-93
2.22733	-92
2.23100	-91
2.23467	-91
2.23833	-90
2.24200	-90
2.24567	-91
2.24933	-91
2.25300	-91
2.25667	-91
2.26033	-90
2.26400	-90
2.26767	-89
2.27133	-88
2.27500	-88
2.27867	-87
2.28233	-87
2.28600	-87
2.28967	-87
2.29333	-88
2.29700	-89
2.30067	-90
2.30433	-90
2.30800	-89
2.31167	-88
2.31533	-87
2.31900	-85
2.32267	-84
2.32633	-83
2.33000	-82
2.33367	-81
2.33733	-80
2.34100	-80
2.34467	-79
2.34833	-78
2.35200	-78
2.35567	-77
2.35933	-76
2.36300	-75
2.36667	-73
2.37033	-71
2.37400	-69
2.37767	-66
2.38133	-62
2.38500	-59
2.38867	-54
2.39233	-50
2.39600	-46
2.39967	-41
2.40333	-38
2.40700	-34
2.41067	-30
2.41433	-27
2.41800	-25
2.42167	-23
2.42533	-21
2.42900	-19
2.43267	-18
2.43633	-17
2.44000	-15
2.44367	-13
2.44733	-11
2.45100	-9
2.45467	-7
2.45833	-6
2.46200	-5
2.46567	-3
2.46933	-2
2.47300	0
2.47667	2
2.48033	3
2.48400	5
2.48767	6
2.49133	6
2.49500	7
2.49867	6
2.50233	6
2.50600	6
2.50967	6
2.51333	6
2.51700	7
2.52067	8
2.52433	8
2.52800	9
2.53167	10
2.53533	11
2.53900	12
2.54267	13
2.54633	14
2.55000	14
2.55367	15
2.55733	15
2.56100	15
2.56467	15
2.56833	15
2.57200	15
2.57567	15
2.57933	15
2.58300	15
2.58667	15
2.59033	15
2.59400	15
2.59767	14
2.60133	15
2.60500	15
2.60867	15
2.61233	14
2.61600	14
2.61967	14
2.62333	14
2.62700	14
2.63067	13
2.63433	13
2.63800	13
2.64167	13
2.64533	13
2.64900	14
2.65267	14
2.65633	15
2.66000	16
2.66367	16
2.66733	17
2.67100	17
2.67467	17
2.67833	17
2.68200	17
2.68567	18
2.68933	18
2.69300	19
2.69667	19
2.70033	20
2.70400	21
2.70767	22
2.71133	22
2.71500	22
2.71867	22
2.72233	22
2.72600	22
2.72967	22
2.73333	22
2.73700	22
2.74067	22
2.74433	22
2.74800	22
2.75167	22
2.75533	22
2.75900	22
2.76267	23
2.76633	23
2.77000	24
2.77367	24
2.77733	25
2.78100	25
2.78467	26
2.78833	26
2.79200	26
2.79567	26
2.79933	26
2.80300	27
2.80667	27
2.81033	27
2.81400	27
2.81767	27
2.82133	26
2.82500	26
2.82867	26
2.83233	26
2.83600	25
2.83967	23
2.84333	20
2.84700	15
2.85067	8
2.85433	-2
2.85800	-16
2.86167	-34
2.86533	-55
2.86900	-81
2.87267	-112
2.87633	-146
2.88000	-184
2.88367	-226
2.88733	-270
2.89100	-318
2.89467	-368
2.89833	-419
2.90200	-472
2.90567	-526
2.90933	-580
2.91300	-634
2.91667	-687
2.92033	-740
2.92400	-792
2.92767	-843
2.93133	-895
2.93500	-953
2.93867	-1012
2.94233	-1064
2.94600	-1099
2.94967	-1109
2.95333	-1092
2.95700	-1053
2.96067	-994
2.96433	-924
2.96800	-846
2.97167	-765
2.97533	-685
2.97900	-607
2.98267	-535
2.98633	-468
2.99000	-407
2.99367	-353
2.99733	-304
3.00100	-261
3.00467	-223
3.00833	-190
3.01200	-161
3.01567	-137
3.01933	-115
3.02300	-97
3.02667	-81
3.03033	-67
3.03400	-56
3.03767	-46
3.04133	-37
3.04500	-29
3.04867	-23
3.05233	-18
3.05600	-13
3.05967	-9
3.06333	-6
3.06700	-3
3.07067	-0
3.07433	2
3.07800	4
3.08167	5
3.08533	6
3.08900	7
3.09267	8
3.09633	9
3.10000	10
3.10367	11
3.10733	11
3.11100	12
3.11467	12
3.11833	13
3.12200	13
3.12567	14
3.12933	14
3.13300	15
3.13667	15
3.14033	15
3.14400	15
3.14767	15
3.15133	15
3.15500	15
3.15867	15
3.16233	15
3.16600	16
3.16967	16
3.17333	16
3.17700	17
3.18067	17
3.18433	17
3.18800	18
3.19167	18
3.19533	18
3.19900	18
3.20267	18
3.20633	18
3.21000	18
3.21367	18
3.21733	18
3.22100	19
3.22467	19
3.22833	19
3.23200	19
3.23567	19
3.23933	19
3.24300	19
3.24667	20
3.25033	20
3.25400	20
3.25767	20
3.26133	21
3.26500	21
3.26867	22
3.27233	22
3.27600	23
3.27967	24
3.28333	24
3.28700	25
3.29067	25
3.29433	26
3.29800	26
3.30167	26
3.30533	27
3.30900	27
3.31267	27
3.31633	27
3.32000	27
3.32367	27
3.32733	27
3.33100	27
3.33467	26
3.33833	26
3.34200	26
3.34567	26
3.34933	26
3.35300	26
3.35667	25
3.36033	25
3.36400	25
3.36767	25
3.37133	25
3.37500	25
3.37867	25
3.38233	25
3.38600	25
3.38967	25
3.39333	25
3.39700	25
3.40067	25
3.40433	25
3.40800	25
3.41167	25
3.41533	25
3.41900	25
3.42267	25
3.42633	25
3.43000	26
3.43367	26
3.43733	25
3.44100	25
3.44467	25
3.44833	25
3.45200	25
3.45567	25
3.45933	25
3.46300	25
3.46667	26
3.47033	26
3.47400	26
3.47767	26
3.48133	26
3.48500	27
3.48867	27
3.49233	27
3.49600	27
3.49967	27
3.50333	27
3.50700	27
3.51067	27
3.51433	26
3.51800	26
3.52167	26
3.52533	26
3.52900	26
3.53267	26
3.53633	25
3.54000	25
3.54367	25
3.54733	25
3.55100	25
3.55467	25
3.55833	24
3.56200	24
3.56567	24
3.56933	24
3.57300	23
3.57667	23
3.58033	23
3.58400	24
3.58767	24
3.59133	24
3.59500	24
3.59867	25
3.60233	25
3.60600	25
3.60967	25
3.61333	25
3.61700	25
3.62067	25
3.62433	25
3.62800	25
3.63167	26
3.63533	26
3.63900	26
3.64267	27
3.64633	27
3.65000	27
3.65367	27
3.65733	27
3.66100	27
3.66467	28
3.66833	28
3.67200	28
3.67567	28
3.67933	28
3.68300	28
3.68667	27
3.69033	26
3.69400	26
3.69767	25
3.70133	25
3.70500	25
3.70867	25
3.71233	24
3.71600	24
3.71967	24
3.72333	24
3.72700	24
3.73067	23
3.73433	24
3.73800	24
3.74167	24
3.74533	24
3.74900	24
3.75267	24
3.75633	24
3.76000	25
3.76367	25
3.76733	25
3.77100	24
3.77467	24
3.77833	24
3.78200	25
3.78567	25
3.78933	25
3.79300	25
3.79667	25
3.80033	25
3.80400	25
3.80767	25
3.81133	25
3.81500	25
3.81867	25
3.82233	25
3.82600	26
3.82967	26
3.83333	26
3.83700	26
3.84067	26
3.84433	26
3.84800	26
3.85167	26
3.85533	26
3.85900	26
3.86267	26
3.86633	26
3.87000	26
3.87367	26
3.87733	26
3.88100	27
3.88467	27
3.88833	27
3.89200	27
3.89567	27
3.89933	26
3.90300	26
3.90667	26
3.91033	26
3.91400	26
3.91767	26
3.92133	26
3.92500	26
3.92867	26
3.93233	26
3.93600	26
3.93967	26
3.94333	26
3.94700	26
3.95067	26
3.95433	26
3.95800	26
3.96167	26
3.96533	26
3.96900	26
3.97267	26
3.97633	26
3.98000	26
3.98367	25
3.98733	25
3.99100	25
3.99467	24
3.99833	24

[Chromatogram (Ch3)]
Interval(msec)	220
# of Points	1091
Start Time(min)	0.002
End Time(min)	3.998
R.Time (min)	Intensity
0.00167	0
0.00533	1
0.00900	1
0.01267	3
0.01633	3
0.02000	5
0.02367	6
0.02733	5
0.03100	2
0.03467	-1
0.03833	-2
0.04200	-2
0.04567	-2
0.04933	-1
0.05300	1
0.05667	2
0.06033	4
0.06400	5
0.06767	6
0.07133	5
0.07500	5
0.07867	3
0.08233	3
0.08600	1
0.08967	1
0.09333	2
0.09700	2
0.10067	2
0.10433	1
0.10800	-1
0.11167	-2
0.11533	-1
0.11900	1
0.12267	1
0.12633	0
0.13000	-0
0.13367	0
0.13733	2
0.14100	3
0.14467	4
0.14833	3
0.15200	1
0.15567	2
0.15933	4
0.16300	5
0.16667	6
0.17033	5
0.17400	5
0.17767	6
0.18133	8
0.18500	10
0.18867	11
0.19233	12
0.19600	11
0.19967	9
0.20333	7
0.20700	6
0.21067	3
0.21433	0
0.21800	2
0.22167	5
0.22533	6
0.22900	7
0.23267	7
0.23633	9
0.24000	11
0.24367	13
0.24733	15
0.25100	14
0.25467	12
0.25833	7
0.26200	5
0.26567	3
0.26933	3
0.27300	3
0.27667	2
0.28033	1
0.28400	1
0.28767	4
0.29133	5
0.29500	5
0.29867	4
0.30233	4
0.30600	5
0.30967	7
0.31333	8
0.31700	8
0.32067	8
0.32433	9
0.32800	10
0.33167	8
0.33533	10
0.33900	12
0.34267	12
0.34633	10
0.35000	6
0.35367	5
0.35733	6
0.36100	7
0.36467	8
0.36833	8
0.37200	7
0.37567	7
0.37933	7
0.38300	7
0.38667	7
0.39033	9
0.39400	10
0.39767	8
0.40133	6
0.40500	7
0.40867	8
0.41233	11
0.41600	12
0.41967	12
0.42333	13
0.42700	13
0.43067	11
0.43433	10
0.43800	8
0.44167	7
0.44533	6
0.44900	5
0.45267	5
0.45633	6
0.46000	7
0.46367	7
0.46733	5
0.47100	5
0.47467	6
0.47833	8
0.48200	8
0.48567	8
0.48933	8
0.49300	9
0.49667	10
0.50033	11
0.50400	12
0.50767	14
0.51133	12
0.51500	10
0.51867	9
0.52233	8
0.52600	8
0.52967	7
0.53333	7
0.53700	7
0.54067	9
0.54433	10
0.54800	11
0.55167	12
0.55533	11
0.55900	10
0.56267	8
0.56633	8
0.57000	9
0.57367	10
0.57733	11
0.58100	11
0.58467	12
0.58833	12
0.59200	12
0.59567	13
0.59933	12
0.60300	12
0.60667	12
0.61033	12
0.61400	11
0.61767	11
0.62133	11
0.62500	12
0.62867	11
0.63233	11
0.63600	11
0.63967	13
0.64333	14
0.64700	11
0.65067	8
0.65433	9
0.65800	9
0.66167	10
0.66533	8
0.66900	6
0.67267	5
0.67633	3
0.68000	3
0.68367	5
0.68733	11
0.69100	12
0.69467	11
0.69833	11
0.70200	12
0.70567	11
0.70933	11
0.71300	10
0.71667	9
0.72033	9
0.72400	10
0.72767	11
0.73133	12
0.73500	13
0.73867	14
0.74233	15
0.74600	14
0.74967	10
0.75333	10
0.75700	11
0.76067	12
0.76433	13
0.76800	12
0.77167	12
0.77533	13
0.77900	14
0.78267	15
0.78633	16
0.79000	17
0.79367	17
0.79733	19
0.80100	19
0.80467	19
0.80833	19
0.81200	18
0.81567	15
0.81933	13
0.82300	13
0.82667	13
0.83033	14
0.83400	16
0.83767	17
0.84133	16
0.84500	14
0.84867	14
0.85233	13
0.85600	13
0.85967	13
0.86333	13
0.86700	12
0.87067	12
0.87433	13
0.87800	14
0.88167	16
0.88533	15
0.88900	15
0.89267	17
0.89633	20
0.90000	23
0.90367	23
0.90733	24
0.91100	23
0.91467	19
0.91833	16
0.92200	18
0.92567	22
0.92933	21
0.93300	21
0.93667	19
0.94033	18
0.94400	17
0.94767	17
0.95133	19
0.95500	18
0.95867	19
0.96233	20
0.96600	20
0.96967	19
0.97333	19
0.97700	19
0.98067	20
0.98433	22
0.98800	26
0.99167	27
0.99533	28
0.99900	27
1.00267	25
1.00633	24
1.01000	23
1.01367	23
1.01733	22
1.02100	21
1.02467	19
1.02833	17
1.03200	20
1.03567	23
1.03933	24
1.04300	21
1.04667	20
1.05033	20
1.05400	22
1.05767	24
1.06133	26
1.06500	26
1.06867	25
1.07233	24
1.07600	22
1.07967	20
1.08333	20
1.08700	21
1.09067	23
1.09433	24
1.09800	25
1.10167	26
1.10533	26
1.10900	26
1.11267	26
1.11633	25
1.12000	23
1.12367	23
1.12733	23
1.13100	24
1.13467	25
1.13833	26
1.14200	27
1.14567	28
1.14933	28
1.15300	27
1.15667	26
1.16033	26
1.16400	25
1.16767	25
1.17133	24
1.17500	23
1.17867	22
1.18233	22
1.18600	22
1.18967	25
1.19333	28
1.19700	28
1.20067	26
1.20433	26
1.20800	27
1.21167	29
1.21533	30
1.21900	28
1.22267	27
1.22633	29
1.23000	29
1.23367	29
1.23733	29
1.24100	29
1.24467	30
1.24833	31
1.25200	33
1.25567	36
1.25933	36
1.26300	36
1.26667	36
1.27033	32
1.27400	28
1.27767	28
1.28133	28
1.28500	29
1.28867	31
1.29233	32
1.29600	33
1.29967	34
1.30333	33
1.30700	31
1.31067	30
1.31433	30
1.31800	31
1.32167	31
1.32533	31
1.32900	30
1.33267	29
1.33633	29
1.34000	30
1.34367	33
1.34733	35
1.35100	32
1.35467	31
1.35833	32
1.36200	32
1.36567	32
1.36933	31
1.37300	32
1.37667	32
1.38033	31
1.38400	32
1.38767	32
1.39133	32
1.39500	33
1.39867	33
1.40233	33
1.40600	33
1.40967	33
1.41333	32
1.41700	31
1.42067	30
1.42433	31
1.42800	31
1.43167	30
1.43533	29
1.43900	26
1.44267	25
1.44633	26
1.45000	26
1.45367	27
1.45733	29
1.46100	29
1.46467	29
1.46833	27
1.47200	26
1.47567	28
1.47933	30
1.48300	33
1.48667	34
1.49033	37
1.49400	36
1.49767	34
1.50133	32
1.50500	31
1.50867	30
1.51233	29
1.51600	29
1.51967	29
1.52333	28
1.52700	29
1.53067	32
1.53433	32
1.53800	33
1.54167	30
1.54533	31
1.54900	33
1.55267	33
1.55633	34
1.56000	35
1.56367	38
1.56733	39
1.57100	38
1.57467	36
1.57833	34
1.58200	33
1.58567	34
1.58933	33
1.59300	32
1.59667	31
1.60033	31
1.60400	31
1.60767	33
1.61133	35
1.61500	37
1.61867	37
1.62233	36
1.62600	38
1.62967	40
1.63333	40
1.63700	37
1.64067	34
1.64433	33
1.64800	32
1.65167	32
1.65533	33
1.65900	34
1.66267	37
1.66633	37
1.67000	39
1.67367	41
1.67733	44
1.68100	45
1.68467	44
1.68833	45
1.69200	45
1.69567	45
1.69933	45
1.70300	46
1.70667	46
1.71033	45
1.71400	45
1.71767	47
1.72133	48
1.72500	49
1.72867	53
1.73233	54
1.73600	54
1.73967	54
1.74333	55
1.74700	57
1.75067	60
1.75433	62
1.75800	60
1.76167	58
1.76533	57
1.76900	55
1.77267	58
1.77633	59
1.78000	60
1.78367	61
1.78733	63
1.79100	64
1.79467	66
1.79833	67
1.80200	68
1.80567	69
1.80933	69
1.81300	67
1.81667	65
1.82033	64
1.82400	64
1.82767	65
1.83133	66
1.83500	66
1.83867	66
1.84233	65
1.84600	66
1.84967	67
1.85333	69
1.85700	70
1.86067	68
1.86433	67
1.86800	68
1.87167	68
1.87533	69
1.87900	74
1.88267	76
1.88633	77
1.89000	75
1.89367	74
1.89733	75
1.90100	74
1.90467	75
1.90833	76
1.91200	79
1.91567	82
1.91933	84
1.92300	85
1.92667	86
1.93033	87
1.93400	87
1.93767	87
1.94133	87
1.94500	87
1.94867	86
1.95233	85
1.95600	85
1.95967	87
1.96333	91
1.96700	94
1.97067	96
1.97433	97
1.97800	97
1.98167	96
1.98533	96
1.98900	97
1.99267	100
1.99633	102
2.00000	103
2.00367	101
2.00733	100
2.01100	102
2.01467	104
2.01833	105
2.02200	106
2.02567	107
2.02933	108
2.03300	109
2.03667	109
2.04033	110
2.04400	110
2.04767	110
2.05133	110
2.05500	111
2.05867	113
2.06233	115
2.06600	115
2.06967	116
2.07333	117
2.07700	116
2.08067	117
2.08433	119
2.08800	122
2.09167	124
2.09533	125
2.09900	127
2.10267	128
2.10633	129
2.11000	129
2.11367	127
2.11733	127
2.12100	130
2.12467	133
2.12833	134
2.13200	134
2.13567	134
2.13933	135
2.14300	135
2.14667	137
2.15033	138
2.15400	140
2.15767	142
2.16133	143
2.16500	142
2.16867	142
2.17233	142
2.17600	143
2.17967	141
2.18333	142
2.18700	145
2.19067	148
2.19433	148
2.19800	150
2.20167	150
2.20533	149
2.20900	150
2.21267	151
2.21633	154
2.22000	157
2.22367	159
2.22733	161
2.23100	161
2.23467	161
2.23833	161
2.24200	160
2.24567	160
2.24933	160
2.25300	160
2.25667	161
2.26033	164
2.26400	168
2.26767	169
2.27133	169
2.27500	170
2.27867	171
2.28233	174
2.28600	178
2.28967	181
2.29333	181
2.29700	181
2.30067	181
2.30433	182
2.30800	183
2.31167	185
2.31533	188
2.31900	188
2.32267	188
2.32633	187
2.33000	187
2.33367	189
2.33733	193
2.34100	198
2.34467	201
2.34833	203
2.35200	204
2.35567	208
2.35933	212
2.36300	214
2.36667	215
2.37033	217
2.37400	218
2.37767	218
2.38133	219
2.38500	221
2.38867	222
2.39233	224
2.39600	227
2.39967	230
2.40333	231
2.40700	233
2.41067	238
2.41433	241
2.41800	244
2.42167	246
2.42533	248
2.42900	251
2.43267	251
2.43633	253
2.44000	256
2.44367	290
2.44733	387
2.45100	490
2.45467	571
2.45833	621
2.46200	628
2.46567	605
2.46933	576
2.47300	551
2.47667	538
2.48033	529
2.48400	517
2.48767	497
2.49133	470
2.49500	438
2.49867	409
2.50233	385
2.50600	370
2.50967	359
2.51333	355
2.51700	355
2.52067	360
2.52433	367
2.52800	379
2.53167	392
2.53533	401
2.53900	408
2.54267	409
2.54633	406
2.55000	395
2.55367	381
2.55733	366
2.56100	349
2.56467	335
2.56833	322
2.57200	311
2.57567	305
2.57933	300
2.58300	298
2.58667	297
2.59033	294
2.59400	290
2.59767	283
2.60133	273
2.60500	261
2.60867	245
2.61233	228
2.61600	211
2.61967	196
2.62333	182
2.62700	169
2.63067	160
2.63433	156
2.63800	155
2.64167	158
2.64533	164
2.64900	172
2.65267	180
2.65633	188
2.66000	197
2.66367	207
2.66733	215
2.67100	220
2.67467	225
2.67833	227
2.68200	225
2.68567	223
2.68933	222
2.69300	220
2.69667	219
2.70033	220
2.70400	220
2.70767	217
2.71133	214
2.71500	211
2.71867	208
2.72233	205
2.72600	203
2.72967	201
2.73333	198
2.73700	198
2.74067	197
2.74433	195
2.74800	194
2.75167	195
2.75533	196
2.75900	199
2.76267	200
2.76633	200
2.77000	200
2.77367	199
2.77733	199
2.78100	200
2.78467	200
2.78833	199
2.79200	198
2.79567	197
2.79933	198
2.80300	200
2.80667	203
2.81033	206
2.81400	209
2.81767	218
2.82133	238
2.82500	279
2.82867	364
2.83233	514
2.83600	749
2.83967	1088
2.84333	1529
2.84700	2059
2.85067	2654
2.85433	3269
2.85800	3853
2.86167	4361
2.86533	4751
2.86900	4997
2.87267	5096
2.87633	5057
2.88000	4900
2.88367	4654
2.88733	4345
2.89100	4000
2.89467	3645
2.89833	3293
2.90200	2953
2.90567	2635
2.90933	2343
2.91300	2078
2.91667	1844
2.92033	1638
2.92400	1454
2.92767	1293
2.93133	1153
2.93500	1030
2.93867	924
2.94233	834
2.94600	755
2.94967	686
2.95333	626
2.95700	575
2.96067	531
2.96433	491
2.96800	458
2.97167	428
2.97533	398
2.97900	373
2.98267	354
2.98633	338
2.99000	322
2.99367	309
2.99733	298
3.00100	288
3.00467	282
3.00833	273
3.01200	264
3.01567	256
3.01933	249
3.02300	240
3.02667	236
3.03033	234
3.03400	232
3.03767	229
3.04133	227
3.04500	224
3.04867	220
3.05233	215
3.05600	213
3.05967	211
3.06333	207
3.06700	201
3.07067	196
3.07433	193
3.07800	191
3.08167	189
3.08533	187
3.08900	186
3.09267	184
3.09633	180
3.10000	177
3.10367	179
3.10733	179
3.11100	178
3.11467	178
3.11833	176
3.12200	175
3.12567	169
3.12933	163
3.13300	157
3.13667	154
3.14033	154
3.14400	157
3.14767	165
3.15133	176
3.15500	194
3.15867	218
3.16233	246
3.16600	279
3.16967	312
3.17333	346
3.17700	383
3.18067	418
3.18433	450
3.18800	475
3.19167	495
3.19533	515
3.19900	535
3.20267	555
3.20633	574
3.21000	589
3.21367	603
3.21733	614
3.22100	623
3.22467	630
3.22833	637
3.23200	643
3.23567	645
3.23933	648
3.24300	650
3.24667	651
3.25033	652
3.25400	653
3.25767	653
3.26133	650
3.26500	649
3.26867	651
3.27233	649
3.27600	646
3.27967	645
3.28333	643
3.28700	638
3.29067	634
3.29433	634
3.29800	632
3.30167	631
3.30533	631
3.30900	628
3.31267	622
3.31633	618
3.32000	616
3.32367	613
3.32733	609
3.33100	608
3.33467	607
3.33833	604
3.34200	604
3.34567	601
3.34933	600
3.35300	599
3.35667	598
3.36033	599
3.36400	600
3.36767	601
3.37133	601
3.37500	600
3.37867	598
3.38233	595
3.38600	597
3.38967	599
3.39333	602
3.39700	603
3.40067	603
3.40433	602
3.40800	601
3.41167	600
3.41533	600
3.41900	600
3.42267	600
3.42633	600
3.43000	598
3.43367	598
3.43733	599
3.44100	600
3.44467	603
3.44833	607
3.45200	607
3.45567	604
3.45933	602
3.46300	601
3.46667	602
3.47033	601
3.47400	599
3.47767	594
3.48133	593
3.48500	592
3.48867	592
3.49233	592
3.49600	590
3.49967	588
3.50333	584
3.50700	582
3.51067	580
3.51433	580
3.51800	581
3.52167	578
3.52533	576
3.52900	575
3.53267	573
3.53633	571
3.54000	567
3.54367	564
3.54733	563
3.55100	563
3.55467	562
3.55833	560
3.56200	558
3.56567	558
3.56933	556
3.57300	554
3.57667	552
3.58033	548
3.58400	546
3.58767	544
3.59133	541
3.59500	539
3.59867	540
3.60233	541
3.60600	539
3.60967	539
3.61333	536
3.61700	533
3.62067	533
3.62433	534
3.62800	533
3.63167	530
3.63533	530
3.63900	529
3.64267	529
3.64633	528
3.65000	524
3.65367	522
3.65733	520
3.66100	520
3.66467	517
3.66833	514
3.67200	512
3.67567	511
3.67933	512
3.68300	513
3.68667	514
3.69033	514
3.69400	515
3.69767	514
3.70133	512
3.70500	510
3.70867	509
3.71233	506
3.71600	504
3.71967	506
3.72333	506
3.72700	504
3.73067	502
3.73433	502
3.73800	502
3.74167	501
3.74533	499
3.74900	498
3.75267	498
3.75633	496
3.76000	494
3.76367	494
3.76733	496
3.77100	497
3.77467	496
3.77833	496
3.78200	496
3.78567	496
3.78933	496
3.79300	495
3.79667	495
3.80033	493
3.80400	490
3.80767	489
3.81133	490
3.81500	490
3.81867	489
3.82233	490
3.82600	491
3.82967	491
3.83333	493
3.83700	494
3.84067	494
3.84433	491
3.84800	490
3.85167	491
3.85533	492
3.85900	492
3.86267	490
3.86633	488
3.87000	487
3.87367	488
3.87733	487
3.88100	484
3.88467	483
3.88833	484
3.89200	485
3.89567	484
3.89933	483
3.90300	482
3.90667	481
3.91033	480
3.91400	478
3.91767	476
3.92133	475
3.92500	474
3.92867	472
3.93233	472
3.93600	473
3.93967	471
3.94333	470
3.94700	469
3.95067	468
3.95433	467
3.95800	464
3.96167	462
3.96533	462
3.96900	463
3.97267	463
3.97633	464
3.98000	464
3.98367	462
3.98733	459
3.99100	458
3.99467	456
3.99833	453

[Status Trace (Column Oven Temperature)]
Interval(msec)	1000
# of Points	240
Start Time(min)	0.016
End Time(min)	3.999
Intensity Units	
Intensity Multiplier	1
R.Time (min)	Intensity
0.01567	35.09
0.03233	35.09
0.04900	35.09
0.06567	35.08
0.08233	35.07
0.09900	35.07
0.11567	35.06
0.13233	35.06
0.14900	35.04
0.16567	35.04
0.18233	35.05
0.19900	35.04
0.21567	35.05
0.23233	35.05
0.24900	35.04
0.26567	35.02
0.28233	35.02
0.29900	35.02
0.31567	35.03
0.33233	35.02
0.34900	35.02
0.36567	35.01
0.38233	35.02
0.39900	35.03
0.41567	35.04
0.43233	35.04
0.44900	35.04
0.46567	35.04
0.48233	35.03
0.49900	35.02
0.51567	35.01
0.53233	35.01
0.54900	35.00
0.56567	34.99
0.58233	34.99
0.59900	34.98
0.61567	34.98
0.63233	34.99
0.64900	34.99
0.66567	34.99
0.68233	34.99
0.69900	35.00
0.71567	35.00
0.73233	35.01
0.74900	35.00
0.76567	35.00
0.78233	35.00
0.79900	34.99
0.81567	34.99
0.83233	34.97
0.84900	34.96
0.86567	34.97
0.88233	34.97
0.89900	34.99
0.91567	34.99
0.93233	35.00
0.94900	35.01
0.96567	35.00
0.98233	34.99
0.99900	34.98
1.01567	34.98
1.03233	34.98
1.04900	34.98
1.06567	34.98
1.08233	34.99
1.09900	34.98
1.11567	34.99
1.13233	34.99
1.14900	34.99
1.16567	35.00
1.18233	35.00
1.19900	35.01
1.21567	35.02
1.23233	35.02
1.24900	35.02
1.26567	35.04
1.28233	35.04
1.29900	35.02
1.31567	35.01
1.33233	35.01
1.34900	35.02
1.36567	35.01
1.38233	35.00
1.39900	35.00
1.41567	35.00
1.43233	34.99
1.44900	34.98
1.46567	34.97
1.48233	34.97
1.49900	34.97
1.51567	34.97
1.53233	34.97
1.54900	34.98
1.56567	34.98
1.58233	34.99
1.59900	35.03
1.61567	35.12
1.63233	35.28
1.64900	35.50
1.66567	35.78
1.68233	36.14
1.69900	36.48
1.71567	36.83
1.73233	37.17
1.74900	37.52
1.76567	37.82
1.78233	38.17
1.79900	38.50
1.81567	38.82
1.83233	39.16
1.84900	39.50
1.86567	39.82
1.88233	40.16
1.89900	40.49
1.91567	40.80
1.93233	41.13
1.94900	41.47
1.96567	41.79
1.98233	42.12
1.99900	42.45
2.01567	42.76
2.03233	43.08
2.04900	43.40
2.06567	43.71
2.08233	44.05
2.09900	44.38
2.11567	44.69
2.13233	45.04
2.14900	45.36
2.16567	45.70
2.18233	46.02
2.19900	46.36
2.21567	46.68
2.23233	47.00
2.24900	47.33
2.26567	47.64
2.28233	47.98
2.29900	48.35
2.31567	48.66
2.33233	48.98
2.34900	49.29
2.36567	49.55
2.38233	49.66
2.39900	49.67
2.41567	49.67
2.43233	49.69
2.44900	49.69
2.46567	49.70
2.48233	49.69
2.49900	49.73
2.51567	49.74
2.53233	49.75
2.54900	49.75
2.56567	49.77
2.58233	49.78
2.59900	49.79
2.61567	49.80
2.63233	49.82
2.64900	49.83
2.66567	49.85
2.68233	49.87
2.69900	49.85
2.71567	49.85
2.73233	49.87
2.74900	49.88
2.76567	49.87
2.78233	49.86
2.79900	49.85
2.81567	49.86
2.83233	49.87
2.84900	49.89
2.86567	49.90
2.88233	49.91
2.89900	49.91
2.91567	49.91
2.93233	49.91
2.94900	49.92
2.96567	49.94
2.98233	49.96
2.99900	49.98
3.01567	49.99
3.03233	49.99
3.04900	49.99
3.06567	50.00
3.08233	50.00
3.09900	50.01
3.11567	50.03
3.13233	50.03
3.14900	50.05
3.16567	50.07
3.18233	50.07
3.19900	50.08
3.21567	50.10
3.23233	50.11
3.24900	50.11
3.26567	50.09
3.28233	50.09
3.29900	50.07
3.31567	50.05
3.33233	50.06
3.34900	50.07
3.36567	50.07
3.38233	50.07
3.39900	50.07
3.41567	50.06
3.43233	50.06
3.44900	50.06
3.46567	50.06
3.48233	50.06
3.49900	50.06
3.51567	50.06
3.53233	50.07
3.54900	50.08
3.56567	50.08
3.58233	50.08
3.59900	50.08
3.61567	50.08
3.63233	50.08
3.64900	50.06
3.66567	50.05
3.68233	50.06
3.69900	50.07
3.71567	50.08
3.73233	50.08
3.74900	50.09
3.76567	50.10
3.78233	50.10
3.79900	50.09
3.81567	50.08
3.83233	50.08
3.84900	50.08
3.86567	50.07
3.88233	50.06
3.89900	50.07
3.91567	50.06
3.93233	50.05
3.94900	50.04
3.96567	50.05
3.98233	50.06
3.99900	50.06

[Status Trace (Injection Unit Temperature)]
Interval(msec)	1000
# of Points	240
Start Time(min)	0.016
End Time(min)	3.999
Intensity Units	
Intensity Multiplier	1
R.Time (min)	Intensity
0.01567	99.98
0.03233	99.98
0.04900	99.98
0.06567	99.98
0.08233	99.98
0.09900	99.98
0.11567	99.98
0.13233	99.98
0.14900	99.98
0.16567	99.98
0.18233	99.98
0.19900	99.98
0.21567	99.98
0.23233	99.98
0.24900	99.98
0.26567	99.98
0.28233	99.99
0.29900	99.98
0.31567	99.98
0.33233	99.98
0.34900	99.98
0.36567	99.99
0.38233	99.98
0.39900	99.98
0.41567	99.98
0.43233	99.99
0.44900	99.98
0.46567	99.98
0.48233	99.98
0.49900	99.98
0.51567	99.98
0.53233	99.99
0.54900	99.99
0.56567	99.98
0.58233	99.98
0.59900	99.98
0.61567	99.99
0.63233	99.98
0.64900	99.99
0.66567	99.99
0.68233	99.98
0.69900	99.99
0.71567	99.99
0.73233	99.98
0.74900	99.99
0.76567	99.98
0.78233	99.99
0.79900	99.99
0.81567	99.99
0.83233	99.98
0.84900	99.99
0.86567	99.98
0.88233	99.99
0.89900	99.99
0.91567	99.99
0.93233	99.98
0.94900	99.99
0.96567	99.99
0.98233	99.99
0.99900	99.99
1.01567	99.99
1.03233	99.99
1.04900	99.98
1.06567	99.99
1.08233	99.99
1.09900	99.99
1.11567	99.99
1.13233	99.98
1.14900	99.99
1.16567	99.99
1.18233	99.99
1.19900	99.99
1.21567	99.99
1.23233	99.99
1.24900	99.99
1.26567	99.99
1.28233	99.99
1.29900	99.99
1.31567	99.99
1.33233	99.99
1.34900	99.99
1.36567	99.99
1.38233	99.99
1.39900	99.98
1.41567	99.99
1.43233	99.99
1.44900	99.99
1.46567	99.99
1.48233	99.99
1.49900	99.99
1.51567	99.99
1.53233	99.99
1.54900	99.99
1.56567	99.99
1.58233	99.99
1.59900	99.98
1.61567	99.99
1.63233	99.99
1.64900	99.99
1.66567	99.99
1.68233	99.99
1.69900	99.99
1.71567	99.99
1.73233	99.99
1.74900	99.99
1.76567	99.99
1.78233	99.99
1.79900	99.99
1.81567	99.98
1.83233	99.98
1.84900	99.98
1.86567	99.99
1.88233	99.98
1.89900	99.98
1.91567	99.98
1.93233	99.98
1.94900	99.98
1.96567	99.98
1.98233	99.98
1.99900	99.98
2.01567	99.97
2.03233	99.97
2.04900	99.98
2.06567	99.97
2.08233	99.97
2.09900	99.97
2.11567	99.97
2.13233	99.97
2.14900	99.96
2.16567	99.96
2.18233	99.96
2.19900	99.96
2.21567	99.96
2.23233	99.96
2.24900	99.96
2.26567	99.96
2.28233	99.96
2.29900	99.96
2.31567	99.96
2.33233	99.96
2.34900	99.96
2.36567	99.96
2.38233	99.96
2.39900	99.96
2.41567	99.96
2.43233	99.96
2.44900	99.96
2.46567	99.96
2.48233	99.96
2.49900	99.97
2.51567	99.96
2.53233	99.96
2.54900	99.96
2.56567	99.97
2.58233	99.97
2.59900	99.97
2.61567	99.97
2.63233	99.97
2.64900	99.97
2.66567	99.97
2.68233	99.98
2.69900	99.97
2.71567	99.98
2.73233	99.98
2.74900	99.98
2.76567	99.98
2.78233	99.98
2.79900	99.99
2.81567	99.99
2.83233	99.99
2.84900	99.99
2.86567	99.99
2.88233	100.00
2.89900	100.00
2.91567	100.00
2.93233	100.00
2.94900	100.00
2.96567	100.00
2.98233	100.01
2.99900	100.00
3.01567	100.01
3.03233	100.01
3.04900	100.01
3.06567	100.01
3.08233	100.01
3.09900	100.01
3.11567	100.01
3.13233	100.02
3.14900	100.02
3.16567	100.02
3.18233	100.02
3.19900	100.02
3.21567	100.02
3.23233	100.02
3.24900	100.02
3.26567	100.02
3.28233	100.02
3.29900	100.02
3.31567	100.02
3.33233	100.02
3.34900	100.03
3.36567	100.03
3.38233	100.02
3.39900	100.03
3.41567	100.03
3.43233	100.03
3.44900	100.02
3.46567	100.03
3.48233	100.03
3.49900	100.03
3.51567	100.03
3.53233	100.03
3.54900	100.03
3.56567	100.04
3.58233	100.03
3.59900	100.03
3.61567	100.04
3.63233	100.04
3.64900	100.04
3.66567	100.04
3.68233	100.04
3.69900	100.05
3.71567	100.04
3.73233	100.05
3.74900	100.05
3.76567	100.04
3.78233	100.05
3.79900	100.05
3.81567	100.05
3.83233	100.05
3.84900	100.05
3.86567	100.05
3.88233	100.06
3.89900	100.05
3.91567	100.05
3.93233	100.05
3.94900	100.05
3.96567	100.05
3.98233	100.05
3.99900	100.05

[Status Trace (Carrier Gas Pressure)]
Interval(msec)	1000
# of Points	240
Start Time(min)	0.016
End Time(min)	3.999
Intensity Units	
Intensity Multiplier	1
R.Time (min)	Intensity
0.01567	56.93
0.03233	55.73
0.04900	58.14
0.06567	59.89
0.08233	58.58
0.09900	57.97
0.11567	58.00
0.13233	58.01
0.14900	58.01
0.16567	58.01
0.18233	58.00
0.19900	58.00
0.21567	58.00
0.23233	58.00
0.24900	58.00
0.26567	58.00
0.28233	58.00
0.29900	58.00
0.31567	58.00
0.33233	58.00
0.34900	58.00
0.36567	58.00
0.38233	58.00
0.39900	58.00
0.41567	58.00
0.43233	58.00
0.44900	58.00
0.46567	58.00
0.48233	58.00
0.49900	58.00
0.51567	58.00
0.53233	58.00
0.54900	58.00
0.56567	58.00
0.58233	58.00
0.59900	58.00
0.61567	58.00
0.63233	58.00
0.64900	58.00
0.66567	58.00
0.68233	58.00
0.69900	58.00
0.71567	58.00
0.73233	58.00
0.74900	58.00
0.76567	58.00
0.78233	58.00
0.79900	58.00
0.81567	58.00
0.83233	58.00
0.84900	58.00
0.86567	58.00
0.88233	58.00
0.89900	58.00
0.91567	58.00
0.93233	58.00
0.94900	58.00
0.96567	58.00
0.98233	58.00
0.99900	58.00
1.01567	58.00
1.03233	58.00
1.04900	58.00
1.06567	58.00
1.08233	58.00
1.09900	58.00
1.11567	58.00
1.13233	58.00
1.14900	58.00
1.16567	58.00
1.18233	58.00
1.19900	58.00
1.21567	58.00
1.23233	58.00
1.24900	58.00
1.26567	58.00
1.28233	58.00
1.29900	58.00
1.31567	58.00
1.33233	58.00
1.34900	58.00
1.36567	58.00
1.38233	58.00
1.39900	58.00
1.41567	58.00
1.43233	58.00
1.44900	58.00
1.46567	58.00
1.48233	58.00
1.49900	58.00
1.51567	58.00
1.53233	58.00
1.54900	58.00
1.56567	58.00
1.58233	58.00
1.59900	58.00
1.61567	58.00
1.63233	58.01
1.64900	58.00
1.66567	58.00
1.68233	58.01
1.69900	58.00
1.71567	58.00
1.73233	58.00
1.74900	58.00
1.76567	58.00
1.78233	58.00
1.79900	58.00
1.81567	58.00
1.83233	58.00
1.84900	58.00
1.86567	58.00
1.88233	58.00
1.89900	58.00
1.91567	58.00
1.93233	58.00
1.94900	58.00
1.96567	58.00
1.98233	58.00
1.99900	58.00
2.01567	58.00
2.03233	58.00
2.04900	58.00
2.06567	58.00
2.08233	58.00
2.09900	58.00
2.11567	58.00
2.13233	58.00
2.14900	58.00
2.16567	58.00
2.18233	58.00
2.19900	58.00
2.21567	58.00
2.23233	58.00
2.24900	58.00
2.26567	58.00
2.28233	58.00
2.29900	58.00
2.31567	58.00
2.33233	58.00
2.34900	58.00
2.36567	58.00
2.38233	57.99
2.39900	57.99
2.41567	58.00
2.43233	58.00
2.44900	58.00
2.46567	58.00
2.48233	58.00
2.49900	58.00
2.51567	57.99
2.53233	57.99
2.54900	58.00
2.56567	58.00
2.58233	58.00
2.59900	58.00
2.61567	58.00
2.63233	58.00
2.64900	58.00
2.66567	58.00
2.68233	58.00
2.69900	58.00
2.71567	58.00
2.73233	58.00
2.74900	58.00
2.76567	58.00
2.78233	58.00
2.79900	58.00
2.81567	58.00
2.83233	58.00
2.84900	58.00
2.86567	58.00
2.88233	58.00
2.89900	58.00
2.91567	58.00
2.93233	58.00
2.94900	58.00
2.96567	58.00
2.98233	58.00
2.99900	58.00
3.01567	58.00
3.03233	58.00
3.04900	58.00
3.06567	58.00
3.08233	58.00
3.09900	58.00
3.11567	58.00
3.13233	58.00
3.14900	58.00
3.16567	58.00
3.18233	58.00
3.19900	58.00
3.21567	58.00
3.23233	58.00
3.24900	58.00
3.26567	58.00
3.28233	58.00
3.29900	58.00
3.31567	58.00
3.33233	58.00
3.34900	58.00
3.36567	58.00
3.38233	58.00
3.39900	58.00
3.41567	58.00
3.43233	58.00
3.44900	58.00
3.46567	58.00
3.48233	58.00
3.49900	58.00
3.51567	58.00
3.53233	58.00
3.54900	58.00
3.56567	58.00
3.58233	58.00
3.59900	58.00
3.61567	58.00
3.63233	58.00
3.64900	58.00
3.66567	58.00
3.68233	58.00
3.69900	58.00
3.71567	58.00
3.73233	58.00
3.74900	58.00
3.76567	58.00
3.78233	58.00
3.79900	58.00
3.81567	58.00
3.83233	58.00
3.84900	58.00
3.86567	58.00
3.88233	58.00
3.89900	58.00
3.91567	58.00
3.93233	58.00
3.94900	58.00
3.96567	58.00
3.98233	58.00
3.99900	58.00

[Status Trace (Carrier Gas Flow)]
Interval(msec)	1000
# of Points	240
Start Time(min)	0.016
End Time(min)	3.999
Intensity Units	
Intensity Multiplier	1
R.Time (min)	Intensity
0.01567	33.73
0.03233	34.54
0.04900	34.54
0.06567	34.50
0.08233	34.51
0.09900	34.52
0.11567	34.52
0.13233	34.52
0.14900	34.52
0.16567	34.52
0.18233	34.52
0.19900	34.52
0.21567	34.52
0.23233	34.52
0.24900	34.52
0.26567	34.52
0.28233	34.52
0.29900	34.52
0.31567	34.52
0.33233	34.52
0.34900	34.52
0.36567	34.52
0.38233	34.52
0.39900	34.52
0.41567	34.52
0.43233	34.52
0.44900	34.52
0.46567	34.52
0.48233	34.52
0.49900	34.52
0.51567	34.52
0.53233	34.52
0.54900	34.52
0.56567	34.51
0.58233	34.52
0.59900	34.52
0.61567	34.51
0.63233	34.52
0.64900	34.52
0.66567	34.52
0.68233	34.52
0.69900	34.51
0.71567	34.51
0.73233	34.51
0.74900	34.51
0.76567	34.52
0.78233	34.52
0.79900	34.52
0.81567	34.52
0.83233	34.52
0.84900	34.52
0.86567	34.52
0.88233	34.52
0.89900	34.52
0.91567	34.52
0.93233	34.52
0.94900	34.52
0.96567	34.52
0.98233	34.52
0.99900	34.52
1.01567	34.51
1.03233	34.52
1.04900	34.52
1.06567	34.52
1.08233	34.52
1.09900	34.52
1.11567	34.52
1.13233	34.52
1.14900	34.52
1.16567	34.52
1.18233	34.52
1.19900	34.52
1.21567	34.52
1.23233	34.52
1.24900	34.52
1.26567	34.52
1.28233	34.51
1.29900	34.52
1.31567	34.52
1.33233	34.51
1.34900	34.52
1.36567	34.52
1.38233	34.52
1.39900	34.52
1.41567	34.52
1.43233	34.52
1.44900	34.52
1.46567	34.52
1.48233	34.52
1.49900	34.52
1.51567	34.52
1.53233	34.52
1.54900	34.51
1.56567	34.51
1.58233	34.52
1.59900	34.52
1.61567	34.51
1.63233	34.52
1.64900	34.52
1.66567	34.52
1.68233	34.52
1.69900	34.52
1.71567	34.52
1.73233	34.52
1.74900	34.52
1.76567	34.52
1.78233	34.52
1.79900	34.52
1.81567	34.52
1.83233	34.52
1.84900	34.52
1.86567	34.52
1.88233	34.51
1.89900	34.52
1.91567	34.52
1.93233	34.52
1.94900	34.52
1.96567	34.52
1.98233	34.52
1.99900	34.52
2.01567	34.52
2.03233	34.51
2.04900	34.52
2.06567	34.52
2.08233	34.52
2.09900	34.52
2.11567	34.52
2.13233	34.52
2.14900	34.52
2.16567	34.53
2.18233	34.51
2.19900	34.51
2.21567	34.52
2.23233	34.52
2.24900	34.52
2.26567	34.52
2.28233	34.52
2.29900	34.52
2.31567	34.52
2.33233	34.52
2.34900	34.52
2.36567	34.51
2.38233	34.52
2.39900	34.52
2.41567	34.52
2.43233	34.52
2.44900	34.51
2.46567	34.52
2.48233	34.52
2.49900	34.52
2.51567	34.52
2.53233	34.52
2.54900	34.52
2.56567	34.52
2.58233	34.52
2.59900	34.52
2.61567	34.52
2.63233	34.52
2.64900	34.51
2.66567	34.51
2.68233	34.52
2.69900	34.52
2.71567	34.52
2.73233	34.52
2.74900	34.52
2.76567	34.52
2.78233	34.52
2.79900	34.52
2.81567	34.52
2.83233	34.52
2.84900	34.52
2.86567	34.52
2.88233	34.52
2.89900	34.53
2.91567	34.52
2.93233	34.51
2.94900	34.52
2.96567	34.52
2.98233	34.51
2.99900	34.52
3.01567	34.52
3.03233	34.52
3.04900	34.52
3.06567	34.52
3.08233	34.51
3.09900	34.52
3.11567	34.52
3.13233	34.51
3.14900	34.52
3.16567	34.52
3.18233	34.51
3.19900	34.51
3.21567	34.52
3.23233	34.51
3.24900	34.52
3.26567	34.52
3.28233	34.52
3.29900	34.52
3.31567	34.52
3.33233	34.51
3.34900	34.52
3.36567	34.52
3.38233	34.52
3.39900	34.52
3.41567	34.52
3.43233	34.53
3.44900	34.52
3.46567	34.52
3.48233	34.52
3.49900	34.52
3.51567	34.52
3.53233	34.52
3.54900	34.52
3.56567	34.52
3.58233	34.52
3.59900	34.52
3.61567	34.51
3.63233	34.52
3.64900	34.52
3.66567	34.52
3.68233	34.51
3.69900	34.52
3.71567	34.52
3.73233	34.52
3.74900	34.52
3.76567	34.52
3.78233	34.51
3.79900	34.52
3.81567	34.52
3.83233	34.52
3.84900	34.52
3.86567	34.52
3.88233	34.52
3.89900	34.52
3.91567	34.52
3.93233	34.52
3.94900	34.51
3.96567	34.51
3.98233	34.52
3.99900	34.52

[Status Trace (Column Flow)]
Interval(msec)	1000
# of Points	240
Start Time(min)	0.016
End Time(min)	3.999
Intensity Units	
Intensity Multiplier	1
R.Time (min)	Intensity
0.01567	5.44
0.03233	5.30
0.04900	5.58
0.06567	5.79
0.08233	5.63
0.09900	5.56
0.11567	5.56
0.13233	5.57
0.14900	5.57
0.16567	5.57
0.18233	5.57
0.19900	5.57
0.21567	5.57
0.23233	5.57
0.24900	5.57
0.26567	5.57
0.28233	5.57
0.29900	5.57
0.31567	5.57
0.33233	5.57
0.34900	5.57
0.36567	5.57
0.38233	5.57
0.39900	5.57
0.41567	5.57
0.43233	5.57
0.44900	5.57
0.46567	5.57
0.48233	5.57
0.49900	5.57
0.51567	5.57
0.53233	5.57
0.54900	5.57
0.56567	5.57
0.58233	5.57
0.59900	5.57
0.61567	5.57
0.63233	5.57
0.64900	5.57
0.66567	5.57
0.68233	5.57
0.69900	5.57
0.71567	5.57
0.73233	5.57
0.74900	5.57
0.76567	5.57
0.78233	5.57
0.79900	5.57
0.81567	5.57
0.83233	5.57
0.84900	5.57
0.86567	5.57
0.88233	5.57
0.89900	5.57
0.91567	5.57
0.93233	5.57
0.94900	5.57
0.96567	5.57
0.98233	5.57
0.99900	5.57
1.01567	5.57
1.03233	5.57
1.04900	5.57
1.06567	5.57
1.08233	5.57
1.09900	5.57
1.11567	5.57
1.13233	5.57
1.14900	5.57
1.16567	5.57
1.18233	5.57
1.19900	5.57
1.21567	5.57
1.23233	5.57
1.24900	5.57
1.26567	5.57
1.28233	5.57
1.29900	5.57
1.31567	5.57
1.33233	5.57
1.34900	5.57
1.36567	5.57
1.38233	5.57
1.39900	5.57
1.41567	5.57
1.43233	5.57
1.44900	5.57
1.46567	5.57
1.48233	5.57
1.49900	5.57
1.51567	5.57
1.53233	5.57
1.54900	5.57
1.56567	5.57
1.58233	5.57
1.59900	5.57
1.61567	5.56
1.63233	5.56
1.64900	5.55
1.66567	5.54
1.68233	5.53
1.69900	5.52
1.71567	5.51
1.73233	5.50
1.74900	5.49
1.76567	5.48
1.78233	5.47
1.79900	5.46
1.81567	5.45
1.83233	5.44
1.84900	5.43
1.86567	5.42
1.88233	5.41
1.89900	5.40
1.91567	5.39
1.93233	5.38
1.94900	5.37
1.96567	5.36
1.98233	5.35
1.99900	5.34
2.01567	5.33
2.03233	5.32
2.04900	5.31
2.06567	5.30
2.08233	5.29
2.09900	5.28
2.11567	5.27
2.13233	5.26
2.14900	5.25
2.16567	5.24
2.18233	5.23
2.19900	5.22
2.21567	5.21
2.23233	5.21
2.24900	5.20
2.26567	5.19
2.28233	5.18
2.29900	5.17
2.31567	5.16
2.33233	5.15
2.34900	5.14
2.36567	5.13
2.38233	5.13
2.39900	5.13
2.41567	5.13
2.43233	5.13
2.44900	5.13
2.46567	5.13
2.48233	5.13
2.49900	5.13
2.51567	5.13
2.53233	5.13
2.54900	5.13
2.56567	5.13
2.58233	5.13
2.59900	5.13
2.61567	5.13
2.63233	5.13
2.64900	5.12
2.66567	5.12
2.68233	5.12
2.69900	5.12
2.71567	5.12
2.73233	5.12
2.74900	5.12
2.76567	5.12
2.78233	5.12
2.79900	5.12
2.81567	5.12
2.83233	5.12
2.84900	5.12
2.86567	5.12
2.88233	5.12
2.89900	5.12
2.91567	5.12
2.93233	5.12
2.94900	5.12
2.96567	5.12
2.98233	5.12
2.99900	5.12
3.01567	5.12
3.03233	5.12
3.04900	5.12
3.06567	5.12
3.08233	5.12
3.09900	5.12
3.11567	5.12
3.13233	5.12
3.14900	5.12
3.16567	5.12
3.18233	5.12
3.19900	5.12
3.21567	5.12
3.23233	5.12
3.24900	5.12
3.26567	5.12
3.28233	5.12
3.29900	5.12
3.31567	5.12
3.33233	5.12
3.34900	5.12
3.36567	5.12
3.38233	5.12
3.39900	5.12
3.41567	5.12
3.43233	5.12
3.44900	5.12
3.46567	5.12
3.48233	5.12
3.49900	5.12
3.51567	5.12
3.53233	5.12
3.54900	5.12
3.56567	5.12
3.58233	5.12
3.59900	5.12
3.61567	5.12
3.63233	5.12
3.64900	5.12
3.66567	5.12
3.68233	5.12
3.69900	5.12
3.71567	5.12
3.73233	5.12
3.74900	5.12
3.76567	5.12
3.78233	5.12
3.79900	5.12
3.81567	5.12
3.83233	5.12
3.84900	5.12
3.86567	5.12
3.88233	5.12
3.89900	5.12
3.91567	5.12
3.93233	5.12
3.94900	5.12
3.96567	5.12
3.98233	5.12
3.99900	5.12

[Status Trace (Linear Velocity)]
Interval(msec)	1000
# of Points	240
Start Time(min)	0.016
End Time(min)	3.999
Intensity Units	
Intensity Multiplier	1
R.Time (min)	Intensity
0.01567	38.32
0.03233	37.53
0.04900	39.11
0.06567	40.26
0.08233	39.40
0.09900	39.00
0.11567	39.02
0.13233	39.03
0.14900	39.03
0.16567	39.03
0.18233	39.03
0.19900	39.02
0.21567	39.02
0.23233	39.02
0.24900	39.02
0.26567	39.03
0.28233	39.03
0.29900	39.03
0.31567	39.03
0.33233	39.03
0.34900	39.03
0.36567	39.03
0.38233	39.03
0.39900	39.02
0.41567	39.02
0.43233	39.02
0.44900	39.02
0.46567	39.02
0.48233	39.02
0.49900	39.03
0.51567	39.03
0.53233	39.03
0.54900	39.03
0.56567	39.03
0.58233	39.03
0.59900	39.03
0.61567	39.03
0.63233	39.03
0.64900	39.03
0.66567	39.03
0.68233	39.03
0.69900	39.03
0.71567	39.03
0.73233	39.03
0.74900	39.03
0.76567	39.03
0.78233	39.03
0.79900	39.03
0.81567	39.03
0.83233	39.03
0.84900	39.03
0.86567	39.03
0.88233	39.03
0.89900	39.03
0.91567	39.03
0.93233	39.03
0.94900	39.03
0.96567	39.03
0.98233	39.03
0.99900	39.03
1.01567	39.03
1.03233	39.03
1.04900	39.03
1.06567	39.03
1.08233	39.03
1.09900	39.03
1.11567	39.03
1.13233	39.03
1.14900	39.03
1.16567	39.03
1.18233	39.03
1.19900	39.03
1.21567	39.03
1.23233	39.02
1.24900	39.02
1.26567	39.02
1.28233	39.02
1.29900	39.03
1.31567	39.03
1.33233	39.03
1.34900	39.03
1.36567	39.03
1.38233	39.03
1.39900	39.03
1.41567	39.03
1.43233	39.03
1.44900	39.03
1.46567	39.03
1.48233	39.03
1.49900	39.03
1.51567	39.03
1.53233	39.03
1.54900	39.03
1.56567	39.03
1.58233	39.03
1.59900	39.02
1.61567	39.02
1.63233	39.01
1.64900	38.98
1.66567	38.96
1.68233	38.93
1.69900	38.89
1.71567	38.85
1.73233	38.82
1.74900	38.79
1.76567	38.76
1.78233	38.73
1.79900	38.69
1.81567	38.66
1.83233	38.64
1.84900	38.60
1.86567	38.57
1.88233	38.54
1.89900	38.51
1.91567	38.48
1.93233	38.45
1.94900	38.42
1.96567	38.39
1.98233	38.36
1.99900	38.32
2.01567	38.30
2.03233	38.27
2.04900	38.24
2.06567	38.21
2.08233	38.18
2.09900	38.15
2.11567	38.12
2.13233	38.09
2.14900	38.06
2.16567	38.03
2.18233	38.00
2.19900	37.97
2.21567	37.94
2.23233	37.91
2.24900	37.88
2.26567	37.85
2.28233	37.83
2.29900	37.79
2.31567	37.76
2.33233	37.74
2.34900	37.71
2.36567	37.68
2.38233	37.67
2.39900	37.67
2.41567	37.67
2.43233	37.67
2.44900	37.67
2.46567	37.67
2.48233	37.67
2.49900	37.67
2.51567	37.66
2.53233	37.66
2.54900	37.66
2.56567	37.66
2.58233	37.66
2.59900	37.66
2.61567	37.66
2.63233	37.66
2.64900	37.66
2.66567	37.66
2.68233	37.65
2.69900	37.66
2.71567	37.66
2.73233	37.66
2.74900	37.65
2.76567	37.65
2.78233	37.65
2.79900	37.66
2.81567	37.66
2.83233	37.65
2.84900	37.65
2.86567	37.65
2.88233	37.65
2.89900	37.65
2.91567	37.65
2.93233	37.65
2.94900	37.65
2.96567	37.65
2.98233	37.65
2.99900	37.64
3.01567	37.64
3.03233	37.64
3.04900	37.64
3.06567	37.64
3.08233	37.64
3.09900	37.64
3.11567	37.64
3.13233	37.64
3.14900	37.64
3.16567	37.64
3.18233	37.64
3.19900	37.64
3.21567	37.63
3.23233	37.63
3.24900	37.63
3.26567	37.63
3.28233	37.63
3.29900	37.64
3.31567	37.64
3.33233	37.64
3.34900	37.64
3.36567	37.64
3.38233	37.64
3.39900	37.64
3.41567	37.64
3.43233	37.64
3.44900	37.64
3.46567	37.64
3.48233	37.64
3.49900	37.64
3.51567	37.64
3.53233	37.64
3.54900	37.64
3.56567	37.64
3.58233	37.64
3.59900	37.64
3.61567	37.64
3.63233	37.64
3.64900	37.64
3.66567	37.64
3.68233	37.64
3.69900	37.64
3.71567	37.64
3.73233	37.64
3.74900	37.63
3.76567	37.63
3.78233	37.63
3.79900	37.63
3.81567	37.64
3.83233	37.64
3.84900	37.64
3.86567	37.64
3.88233	37.64
3.89900	37.64
3.91567	37.64
3.93233	37.64
3.94900	37.64
3.96567	37.64
3.98233	37.64
3.99900	37.64

