[Header]
Application Name	LabSolutions
Version	5.110
Data File Name	C:\Users\User\Desktop\GC Analyses\Jack\Nachusa Grasslands Sampling\T1 Timepoint July 12th\T1_07122022_025.gcd
Output Date	3/14/2023
Output Time	3:40:58 PM

[File Information]
Type	Data File
Generated	3/8/2023 3:55:55 PM
Generated by	System Administrator
Modified	3/8/2023 4:02:40 PM
Modified by	System Administrator

[Sample Information]
Operator Name	System Administrator
Acquired	3/8/2023 3:58:39 PM
Sample Type	0:Unknown
Level	0
Sample Name	025
Sample ID	025
ISTD Amount1	1
ISTD Amount2	1
ISTD Amount3	1
ISTD Amount4	1
ISTD Amount5	1
ISTD Amount6	1
ISTD Amount7	1
ISTD Amount8	1
ISTD Amount9	1
ISTD Amount10	1
ISTD Amount11	1
ISTD Amount12	1
ISTD Amount13	1
ISTD Amount14	1
ISTD Amount15	1
ISTD Amount16	1
ISTD Amount17	1
ISTD Amount18	1
ISTD Amount19	1
ISTD Amount20	1
ISTD Amount21	1
ISTD Amount22	1
ISTD Amount23	1
ISTD Amount24	1
ISTD Amount25	1
ISTD Amount26	1
ISTD Amount27	1
ISTD Amount28	1
ISTD Amount29	1
ISTD Amount30	1
ISTD Amount31	1
ISTD Amount32	1
Sample Amount	1
Dilution Factor	1
Vial#	24
Injection Volume	1
Injection Count	1
Bar Code	

[Original Files]
Data File	C:\Users\User\Desktop\GC Analyses\Jack\Nachusa Grasslands Sampling\T1 Timepoint July 12th\T1_07122022_025.gcd
Method File	C:\LabSolutions\Data\GHG_4min_2022\ghg3_togas_w_acet_4 min_new_int.gcm
Batch File	C:\LabSolutions\Data\AutoSamplerTesting\T1_07122022.gcb
Report Format File	c:\LabSolutions\System\DEFAULT.lsr

[File Description]


[Configuration]
Instrument Name	C0B7VH3-Instrument1
Instrument #	1
Line #	1
# of Detectors	3
Detector ID	DET#1	DET#2	DET#3
Detector Name	FID	PTCD	ECD
# of Channels	1	1	1

[Peak Table(Ch1)]
# of Peaks	3
Peak#	R.Time	I.Time	F.Time	Area	Height	A/H	Conc.	Mark	ID#	Name	k'	Plate #	Plate Ht.	Tailing	Resolution	Sep.Factor	Area Ratio	Height Ratio	Conc. %	Norm Conc.
1	1.476	1.435	1.538	33708	16040	2.102	237.983	   	1	CO	0.000	9482	15.819	1.319	0.000	0.000	0	0	23.468	23.468
2	1.567	1.538	1.626	4771	2279	2.094	92.260	 V 	2	CH4	0.062	10116	14.828	0.000	1.491	0.000	0	0	9.098	9.098
3	1.996	1.949	2.623	2724655	1292254	2.108	683.815	   	3	CO2	0.353	17118	8.763	1.278	6.955	5.680	0	0	67.434	67.434

[Peak Table(Ch2)]
# of Peaks	0

[Peak Table(Ch3)]
# of Peaks	5
Peak#	R.Time	I.Time	F.Time	Area	Height	A/H	Conc.	Mark	ID#	Name	k'	Plate #	Plate Ht.	Tailing	Resolution	Sep.Factor	Area Ratio	Height Ratio	Conc. %	Norm Conc.
1	2.462	2.059	2.517	3136	501	6.258	0.000	   			0.000	5884	25.493	0.000	0.000	0.000	0	0	0.000	0.000
2	2.546	2.517	2.631	1447	313	4.629	0.000	 V 			0.034	2764	54.278	0.000	0.524	0.000	0	0	0.000	0.000
3	2.697	2.642	2.741	507	114	4.430	0.000	   			0.095	1055	142.114	0.000	0.572	2.783	0	0	0.000	0.000
4	2.873	2.741	3.140	20219	4938	4.094	0.516	 V 	1	N2O	0.167	13016	11.524	1.710	0.813	1.750	0	0	100.000	100.000
5	3.287	3.151	3.995	12179	451	26.998	0.000	   	2	SF6	0.335	385	389.571	3.066	1.075	2.009	0	0	0.000	0.000

[Compound Results(Ch1)]
# of IDs	6
ID#	Name	R.Time	Area	Height	Conc.	Curve	3rd	2nd	1st	Constant	Area Ratio	Height Ratio	Conc. %	Norm Conc.
1	CO	1.476	33708	16040	237.983	Linear	0.000000e+00	0.000000e+00	1.416423e+002	0.000000e+00	0	0	23.468	23.468
2	CH4	1.567	4771	2279	92.260	Linear	0.000000e+00	0.000000e+00	5.171738e+001	0.000000e+00	0	0	9.098	9.098
3	CO2	1.996	2724655	1292254	683.815	Linear	0.000000e+00	0.000000e+00	3.984494e+003	0.000000e+00	0	0	67.434	67.434
4	Ethylene	0.000	0	0	0.000	Linear	0.000000e+00	0.000000e+00	0.000000e+00	0.000000e+00	0	0	0.000	0.000
5	Acetylene	0.000	0	0	0.000	Linear	0.000000e+00	0.000000e+00	0.000000e+00	0.000000e+00	0	0	0.000	0.000
6	Ethane	0.000	0	0	0.000	Linear	0.000000e+00	0.000000e+00	0.000000e+00	0.000000e+00	0	0	0.000	0.000

[Compound Results(Ch2)]
# of IDs	5
ID#	Name	R.Time	Area	Height	Conc.	Curve	3rd	2nd	1st	Constant	Area Ratio	Height Ratio	Conc. %	Norm Conc.
1	Hydrogen	0.000	0	0	0.000	Linear	0.000000e+00	0.000000e+00	0.000000e+00	0.000000e+00	0	0	0.000	0.000
2	Oxygen	0.000	0	0	0.000	Linear	0.000000e+00	0.000000e+00	0.000000e+00	0.000000e+00	0	0	0.000	0.000
3	Nitrogen	0.000	0	0	0.000	Linear	0.000000e+00	0.000000e+00	0.000000e+00	0.000000e+00	0	0	0.000	0.000
4	Methane	0.000	0	0	0.000	Linear	0.000000e+00	0.000000e+00	0.000000e+00	0.000000e+00	0	0	0.000	0.000
5	Carbon Monoxide	0.000	0	0	0.000	Linear	0.000000e+00	0.000000e+00	0.000000e+00	0.000000e+00	0	0	0.000	0.000

[Compound Results(Ch3)]
# of IDs	2
ID#	Name	R.Time	Area	Height	Conc.	Curve	3rd	2nd	1st	Constant	Area Ratio	Height Ratio	Conc. %	Norm Conc.
1	N2O	2.873	20219	4938	0.516	Linear	0.000000e+00	0.000000e+00	3.915173e+004	0.000000e+00	0	0	100.000	100.000
2	SF6	3.287	12179	451	0.000	Linear	0.000000e+00	0.000000e+00	0.000000e+00	0.000000e+00	0	0	0.000	0.000

[Group Results(Ch1)]
# of Groups	0

[Group Results(Ch2)]
# of Groups	0

[Group Results(Ch3)]
# of Groups	0

[Chromatogram (Ch1)]
Interval(msec)	220
# of Points	1091
Start Time(min)	0.002
End Time(min)	3.998
R.Time (min)	Intensity
0.00167	-21
0.00533	-23
0.00900	-22
0.01267	-18
0.01633	-14
0.02000	-8
0.02367	-2
0.02733	1
0.03100	3
0.03467	9
0.03833	15
0.04200	16
0.04567	8
0.04933	3
0.05300	0
0.05667	-1
0.06033	-2
0.06400	-1
0.06767	3
0.07133	9
0.07500	13
0.07867	10
0.08233	7
0.08600	6
0.08967	6
0.09333	7
0.09700	7
0.10067	9
0.10433	8
0.10800	3
0.11167	-1
0.11533	-2
0.11900	2
0.12267	-0
0.12633	-3
0.13000	-2
0.13367	1
0.13733	3
0.14100	4
0.14467	5
0.14833	5
0.15200	6
0.15567	8
0.15933	10
0.16300	12
0.16667	16
0.17033	22
0.17400	28
0.17767	34
0.18133	35
0.18500	33
0.18867	33
0.19233	36
0.19600	41
0.19967	47
0.20333	52
0.20700	52
0.21067	50
0.21433	49
0.21800	49
0.22167	51
0.22533	54
0.22900	54
0.23267	51
0.23633	44
0.24000	34
0.24367	23
0.24733	17
0.25100	18
0.25467	24
0.25833	28
0.26200	30
0.26567	30
0.26933	26
0.27300	18
0.27667	11
0.28033	10
0.28400	12
0.28767	15
0.29133	16
0.29500	17
0.29867	16
0.30233	14
0.30600	13
0.30967	15
0.31333	17
0.31700	18
0.32067	18
0.32433	13
0.32800	6
0.33167	-1
0.33533	-7
0.33900	-11
0.34267	-15
0.34633	-20
0.35000	-21
0.35367	-16
0.35733	-8
0.36100	-4
0.36467	1
0.36833	5
0.37200	4
0.37567	1
0.37933	-3
0.38300	-5
0.38667	-2
0.39033	3
0.39400	5
0.39767	4
0.40133	-1
0.40500	-8
0.40867	-15
0.41233	-20
0.41600	-19
0.41967	-16
0.42333	-16
0.42700	-16
0.43067	-13
0.43433	-9
0.43800	-12
0.44167	-24
0.44533	-36
0.44900	-42
0.45267	-41
0.45633	-35
0.46000	-26
0.46367	-20
0.46733	-19
0.47100	-19
0.47467	-20
0.47833	-21
0.48200	-22
0.48567	-22
0.48933	-18
0.49300	-14
0.49667	-10
0.50033	-9
0.50400	-10
0.50767	-13
0.51133	-19
0.51500	-21
0.51867	-17
0.52233	-13
0.52600	-7
0.52967	-2
0.53333	0
0.53700	-0
0.54067	-2
0.54433	-5
0.54800	-6
0.55167	-9
0.55533	-12
0.55900	-13
0.56267	-15
0.56633	-15
0.57000	-12
0.57367	-7
0.57733	-4
0.58100	-5
0.58467	-11
0.58833	-15
0.59200	-14
0.59567	-14
0.59933	-12
0.60300	-9
0.60667	-3
0.61033	3
0.61400	7
0.61767	11
0.62133	11
0.62500	9
0.62867	9
0.63233	7
0.63600	4
0.63967	-0
0.64333	-5
0.64700	-6
0.65067	-4
0.65433	-8
0.65800	-16
0.66167	-23
0.66533	-29
0.66900	-31
0.67267	-28
0.67633	-22
0.68000	-21
0.68367	-23
0.68733	-26
0.69100	-25
0.69467	-22
0.69833	-19
0.70200	-18
0.70567	-19
0.70933	-20
0.71300	-23
0.71667	-22
0.72033	-19
0.72400	-18
0.72767	-17
0.73133	-13
0.73500	-9
0.73867	-12
0.74233	-19
0.74600	-29
0.74967	-33
0.75333	-28
0.75700	-22
0.76067	-18
0.76433	-16
0.76800	-15
0.77167	-17
0.77533	-24
0.77900	-29
0.78267	-29
0.78633	-30
0.79000	-31
0.79367	-31
0.79733	-30
0.80100	-30
0.80467	-30
0.80833	-29
0.81200	-24
0.81567	-18
0.81933	-14
0.82300	-13
0.82667	-14
0.83033	-16
0.83400	-18
0.83767	-17
0.84133	-14
0.84500	-11
0.84867	-11
0.85233	-9
0.85600	-8
0.85967	-4
0.86333	-0
0.86700	-2
0.87067	-7
0.87433	-13
0.87800	-14
0.88167	-17
0.88533	-26
0.88900	-39
0.89267	-45
0.89633	-44
0.90000	-42
0.90367	-42
0.90733	-40
0.91100	-36
0.91467	-34
0.91833	-34
0.92200	-34
0.92567	-31
0.92933	-26
0.93300	-23
0.93667	-21
0.94033	-21
0.94400	-21
0.94767	-21
0.95133	-19
0.95500	-15
0.95867	-15
0.96233	-19
0.96600	-23
0.96967	-23
0.97333	-19
0.97700	-11
0.98067	-1
0.98433	5
0.98800	6
0.99167	-0
0.99533	-10
0.99900	-18
1.00267	-20
1.00633	-20
1.01000	-22
1.01367	-26
1.01733	-26
1.02100	-25
1.02467	-23
1.02833	-22
1.03200	-22
1.03567	-21
1.03933	-19
1.04300	-17
1.04667	-18
1.05033	-20
1.05400	-25
1.05767	-24
1.06133	-14
1.06500	-3
1.06867	-0
1.07233	-5
1.07600	-13
1.07967	-20
1.08333	-22
1.08700	-20
1.09067	-18
1.09433	-18
1.09800	-20
1.10167	-19
1.10533	-18
1.10900	-17
1.11267	-19
1.11633	-26
1.12000	-27
1.12367	-21
1.12733	-15
1.13100	-13
1.13467	-16
1.13833	-20
1.14200	-22
1.14567	-23
1.14933	-22
1.15300	-22
1.15667	-20
1.16033	-19
1.16400	-22
1.16767	-26
1.17133	-28
1.17500	-24
1.17867	-17
1.18233	-11
1.18600	-6
1.18967	-4
1.19333	-5
1.19700	-11
1.20067	-18
1.20433	-23
1.20800	-29
1.21167	-33
1.21533	-30
1.21900	-25
1.22267	-24
1.22633	-27
1.23000	-31
1.23367	-32
1.23733	-25
1.24100	-15
1.24467	-7
1.24833	-4
1.25200	-7
1.25567	-15
1.25933	-19
1.26300	-20
1.26667	-19
1.27033	-14
1.27400	-7
1.27767	-6
1.28133	-9
1.28500	-14
1.28867	-17
1.29233	-20
1.29600	-22
1.29967	-21
1.30333	-20
1.30700	-20
1.31067	-19
1.31433	-17
1.31800	-18
1.32167	-22
1.32533	-26
1.32900	-27
1.33267	-28
1.33633	-28
1.34000	-29
1.34367	-32
1.34733	-36
1.35100	-39
1.35467	-35
1.35833	-29
1.36200	-26
1.36567	-27
1.36933	-29
1.37300	-29
1.37667	-32
1.38033	-37
1.38400	-41
1.38767	-42
1.39133	-44
1.39500	-46
1.39867	-46
1.40233	-41
1.40600	-32
1.40967	-25
1.41333	-22
1.41700	-22
1.42067	-24
1.42433	-28
1.42800	-32
1.43167	-32
1.43533	-26
1.43900	-5
1.44267	83
1.44633	328
1.45000	984
1.45367	2547
1.45733	5149
1.46100	8266
1.46467	11235
1.46833	13639
1.47200	15283
1.47567	16024
1.47933	15727
1.48300	14391
1.48667	12280
1.49033	9847
1.49400	7511
1.49767	5525
1.50133	3976
1.50500	2835
1.50867	2024
1.51233	1456
1.51600	1064
1.51967	793
1.52333	604
1.52700	472
1.53067	380
1.53433	315
1.53800	280
1.54167	310
1.54533	467
1.54900	770
1.55267	1170
1.55633	1577
1.56000	1921
1.56367	2165
1.56733	2287
1.57100	2264
1.57467	2086
1.57833	1780
1.58200	1420
1.58567	1080
1.58933	790
1.59300	558
1.59667	386
1.60033	266
1.60400	183
1.60767	124
1.61133	86
1.61500	60
1.61867	42
1.62233	29
1.62600	23
1.62967	22
1.63333	20
1.63700	19
1.64067	20
1.64433	22
1.64800	23
1.65167	24
1.65533	29
1.65900	36
1.66267	37
1.66633	34
1.67000	30
1.67367	25
1.67733	16
1.68100	2
1.68467	-9
1.68833	-16
1.69200	-16
1.69567	-12
1.69933	-6
1.70300	-1
1.70667	1
1.71033	2
1.71400	3
1.71767	6
1.72133	6
1.72500	2
1.72867	-3
1.73233	-5
1.73600	-3
1.73967	5
1.74333	13
1.74700	16
1.75067	15
1.75433	11
1.75800	-1
1.76167	-17
1.76533	-28
1.76900	-35
1.77267	-41
1.77633	-47
1.78000	-51
1.78367	-52
1.78733	-51
1.79100	-46
1.79467	-42
1.79833	-36
1.80200	-33
1.80567	-33
1.80933	-29
1.81300	-22
1.81667	-15
1.82033	-12
1.82400	-12
1.82767	-13
1.83133	-16
1.83500	-18
1.83867	-19
1.84233	-16
1.84600	-12
1.84967	-8
1.85333	-9
1.85700	-14
1.86067	-19
1.86433	-23
1.86800	-25
1.87167	-27
1.87533	-27
1.87900	-22
1.88267	-17
1.88633	-14
1.89000	-17
1.89367	-20
1.89733	-20
1.90100	-17
1.90467	-15
1.90833	-17
1.91200	-19
1.91567	-20
1.91933	-21
1.92300	-16
1.92667	-8
1.93033	-5
1.93400	-8
1.93767	-13
1.94133	-16
1.94500	-14
1.94867	-7
1.95233	30
1.95600	275
1.95967	1704
1.96333	8203
1.96700	30647
1.97067	89983
1.97433	210493
1.97800	400713
1.98167	640003
1.98533	886447
1.98900	1096494
1.99267	1237930
1.99633	1292288
2.00000	1256007
2.00367	1141125
2.00733	972731
2.01100	782521
2.01467	599003
2.01833	440790
2.02200	315315
2.02567	221697
2.02933	154792
2.03300	108345
2.03667	76673
2.04033	55270
2.04400	40829
2.04767	31040
2.05133	24328
2.05500	19646
2.05867	16306
2.06233	13866
2.06600	12032
2.06967	10617
2.07333	9501
2.07700	8601
2.08067	7861
2.08433	7245
2.08800	6720
2.09167	6265
2.09533	5866
2.09900	5510
2.10267	5189
2.10633	4897
2.11000	4633
2.11367	4400
2.11733	4197
2.12100	4014
2.12467	3842
2.12833	3676
2.13200	3520
2.13567	3377
2.13933	3251
2.14300	3137
2.14667	3033
2.15033	2930
2.15400	2827
2.15767	2728
2.16133	2633
2.16500	2545
2.16867	2465
2.17233	2396
2.17600	2330
2.17967	2264
2.18333	2199
2.18700	2140
2.19067	2080
2.19433	2018
2.19800	1960
2.20167	1910
2.20533	1861
2.20900	1809
2.21267	1758
2.21633	1714
2.22000	1678
2.22367	1643
2.22733	1614
2.23100	1587
2.23467	1561
2.23833	1533
2.24200	1505
2.24567	1477
2.24933	1448
2.25300	1421
2.25667	1397
2.26033	1373
2.26400	1346
2.26767	1320
2.27133	1300
2.27500	1279
2.27867	1259
2.28233	1238
2.28600	1217
2.28967	1193
2.29333	1168
2.29700	1142
2.30067	1113
2.30433	1086
2.30800	1066
2.31167	1052
2.31533	1043
2.31900	1033
2.32267	1018
2.32633	1004
2.33000	990
2.33367	976
2.33733	962
2.34100	949
2.34467	939
2.34833	928
2.35200	912
2.35567	900
2.35933	893
2.36300	887
2.36667	880
2.37033	874
2.37400	867
2.37767	861
2.38133	861
2.38500	860
2.38867	854
2.39233	842
2.39600	829
2.39967	816
2.40333	806
2.40700	799
2.41067	790
2.41433	780
2.41800	772
2.42167	766
2.42533	760
2.42900	753
2.43267	747
2.43633	742
2.44000	741
2.44367	742
2.44733	744
2.45100	742
2.45467	735
2.45833	724
2.46200	716
2.46567	712
2.46933	709
2.47300	701
2.47667	689
2.48033	672
2.48400	657
2.48767	650
2.49133	651
2.49500	656
2.49867	660
2.50233	660
2.50600	659
2.50967	661
2.51333	664
2.51700	668
2.52067	670
2.52433	672
2.52800	674
2.53167	671
2.53533	662
2.53900	651
2.54267	639
2.54633	630
2.55000	624
2.55367	620
2.55733	615
2.56100	612
2.56467	610
2.56833	611
2.57200	610
2.57567	605
2.57933	599
2.58300	594
2.58667	593
2.59033	597
2.59400	600
2.59767	600
2.60133	600
2.60500	603
2.60867	606
2.61233	606
2.61600	600
2.61967	588
2.62333	574
2.62700	563
2.63067	555
2.63433	553
2.63800	559
2.64167	571
2.64533	580
2.64900	583
2.65267	587
2.65633	590
2.66000	586
2.66367	581
2.66733	582
2.67100	585
2.67467	589
2.67833	592
2.68200	595
2.68567	600
2.68933	606
2.69300	609
2.69667	609
2.70033	605
2.70400	599
2.70767	594
2.71133	590
2.71500	589
2.71867	591
2.72233	593
2.72600	595
2.72967	597
2.73333	600
2.73700	607
2.74067	619
2.74433	629
2.74800	638
2.75167	645
2.75533	648
2.75900	648
2.76267	647
2.76633	644
2.77000	638
2.77367	626
2.77733	614
2.78100	603
2.78467	596
2.78833	596
2.79200	600
2.79567	604
2.79933	603
2.80300	604
2.80667	606
2.81033	607
2.81400	607
2.81767	607
2.82133	605
2.82500	604
2.82867	604
2.83233	600
2.83600	596
2.83967	598
2.84333	605
2.84700	611
2.85067	614
2.85433	617
2.85800	618
2.86167	618
2.86533	618
2.86900	617
2.87267	613
2.87633	609
2.88000	605
2.88367	602
2.88733	596
2.89100	590
2.89467	586
2.89833	588
2.90200	592
2.90567	593
2.90933	592
2.91300	591
2.91667	593
2.92033	596
2.92400	597
2.92767	598
2.93133	604
2.93500	613
2.93867	621
2.94233	623
2.94600	619
2.94967	613
2.95333	611
2.95700	611
2.96067	610
2.96433	609
2.96800	609
2.97167	615
2.97533	625
2.97900	634
2.98267	636
2.98633	630
2.99000	624
2.99367	623
2.99733	624
3.00100	619
3.00467	607
3.00833	597
3.01200	589
3.01567	580
3.01933	575
3.02300	572
3.02667	571
3.03033	569
3.03400	573
3.03767	583
3.04133	591
3.04500	590
3.04867	585
3.05233	586
3.05600	594
3.05967	599
3.06333	595
3.06700	588
3.07067	583
3.07433	579
3.07800	576
3.08167	572
3.08533	567
3.08900	566
3.09267	570
3.09633	576
3.10000	578
3.10367	582
3.10733	586
3.11100	589
3.11467	592
3.11833	593
3.12200	594
3.12567	594
3.12933	594
3.13300	591
3.13667	586
3.14033	583
3.14400	577
3.14767	569
3.15133	565
3.15500	566
3.15867	564
3.16233	557
3.16600	554
3.16967	561
3.17333	571
3.17700	572
3.18067	568
3.18433	562
3.18800	558
3.19167	561
3.19533	569
3.19900	580
3.20267	588
3.20633	590
3.21000	586
3.21367	577
3.21733	568
3.22100	559
3.22467	558
3.22833	560
3.23200	557
3.23567	553
3.23933	548
3.24300	545
3.24667	546
3.25033	550
3.25400	555
3.25767	556
3.26133	554
3.26500	554
3.26867	556
3.27233	556
3.27600	555
3.27967	554
3.28333	552
3.28700	552
3.29067	557
3.29433	566
3.29800	574
3.30167	575
3.30533	570
3.30900	558
3.31267	542
3.31633	530
3.32000	526
3.32367	530
3.32733	535
3.33100	535
3.33467	532
3.33833	530
3.34200	526
3.34567	521
3.34933	518
3.35300	517
3.35667	516
3.36033	517
3.36400	524
3.36767	531
3.37133	540
3.37500	545
3.37867	548
3.38233	550
3.38600	544
3.38967	534
3.39333	528
3.39700	527
3.40067	525
3.40433	520
3.40800	515
3.41167	513
3.41533	514
3.41900	519
3.42267	525
3.42633	531
3.43000	532
3.43367	526
3.43733	520
3.44100	518
3.44467	518
3.44833	520
3.45200	523
3.45567	524
3.45933	523
3.46300	522
3.46667	521
3.47033	520
3.47400	518
3.47767	518
3.48133	520
3.48500	523
3.48867	524
3.49233	520
3.49600	514
3.49967	508
3.50333	505
3.50700	502
3.51067	497
3.51433	493
3.51800	494
3.52167	499
3.52533	501
3.52900	502
3.53267	506
3.53633	512
3.54000	513
3.54367	506
3.54733	500
3.55100	497
3.55467	494
3.55833	493
3.56200	493
3.56567	492
3.56933	489
3.57300	484
3.57667	477
3.58033	472
3.58400	475
3.58767	481
3.59133	482
3.59500	474
3.59867	461
3.60233	448
3.60600	440
3.60967	439
3.61333	438
3.61700	438
3.62067	444
3.62433	450
3.62800	452
3.63167	450
3.63533	447
3.63900	446
3.64267	446
3.64633	447
3.65000	451
3.65367	456
3.65733	460
3.66100	465
3.66467	469
3.66833	468
3.67200	463
3.67567	459
3.67933	459
3.68300	466
3.68667	478
3.69033	487
3.69400	489
3.69767	484
3.70133	475
3.70500	464
3.70867	452
3.71233	443
3.71600	440
3.71967	439
3.72333	434
3.72700	427
3.73067	422
3.73433	418
3.73800	414
3.74167	411
3.74533	414
3.74900	420
3.75267	429
3.75633	435
3.76000	436
3.76367	433
3.76733	427
3.77100	425
3.77467	424
3.77833	425
3.78200	427
3.78567	423
3.78933	418
3.79300	416
3.79667	417
3.80033	417
3.80400	419
3.80767	417
3.81133	416
3.81500	416
3.81867	415
3.82233	414
3.82600	418
3.82967	425
3.83333	428
3.83700	424
3.84067	418
3.84433	413
3.84800	408
3.85167	405
3.85533	403
3.85900	403
3.86267	402
3.86633	403
3.87000	406
3.87367	409
3.87733	411
3.88100	415
3.88467	416
3.88833	413
3.89200	409
3.89567	402
3.89933	397
3.90300	394
3.90667	392
3.91033	389
3.91400	386
3.91767	384
3.92133	384
3.92500	385
3.92867	383
3.93233	386
3.93600	390
3.93967	388
3.94333	382
3.94700	375
3.95067	368
3.95433	361
3.95800	356
3.96167	353
3.96533	356
3.96900	362
3.97267	368
3.97633	368
3.98000	364
3.98367	359
3.98733	351
3.99100	342
3.99467	334
3.99833	335

[Chromatogram (Ch2)]
Interval(msec)	220
# of Points	1091
Start Time(min)	0.002
End Time(min)	3.998
R.Time (min)	Intensity
0.00167	-1
0.00533	-1
0.00900	-2
0.01267	-2
0.01633	-2
0.02000	-2
0.02367	-3
0.02733	-3
0.03100	-3
0.03467	-3
0.03833	-3
0.04200	-3
0.04567	-2
0.04933	-2
0.05300	-2
0.05667	-2
0.06033	-2
0.06400	-2
0.06767	-2
0.07133	-2
0.07500	-2
0.07867	-2
0.08233	-2
0.08600	-3
0.08967	-3
0.09333	-3
0.09700	-3
0.10067	-3
0.10433	-3
0.10800	-3
0.11167	-3
0.11533	-2
0.11900	-2
0.12267	-2
0.12633	-2
0.13000	-2
0.13367	-2
0.13733	-2
0.14100	-1
0.14467	-1
0.14833	-1
0.15200	-1
0.15567	-0
0.15933	-0
0.16300	-0
0.16667	0
0.17033	1
0.17400	1
0.17767	1
0.18133	1
0.18500	1
0.18867	1
0.19233	1
0.19600	1
0.19967	1
0.20333	1
0.20700	1
0.21067	1
0.21433	1
0.21800	1
0.22167	0
0.22533	0
0.22900	-0
0.23267	-1
0.23633	-1
0.24000	-1
0.24367	-2
0.24733	-2
0.25100	-3
0.25467	-3
0.25833	-3
0.26200	-2
0.26567	-2
0.26933	-2
0.27300	-1
0.27667	-1
0.28033	-1
0.28400	-1
0.28767	-1
0.29133	-1
0.29500	-2
0.29867	-2
0.30233	-2
0.30600	-2
0.30967	-2
0.31333	-2
0.31700	-1
0.32067	-2
0.32433	-2
0.32800	-2
0.33167	-2
0.33533	-2
0.33900	-3
0.34267	-3
0.34633	-2
0.35000	-2
0.35367	-2
0.35733	-3
0.36100	-3
0.36467	-3
0.36833	-3
0.37200	-3
0.37567	-3
0.37933	-3
0.38300	-3
0.38667	-3
0.39033	-3
0.39400	-3
0.39767	-3
0.40133	-2
0.40500	-2
0.40867	-2
0.41233	-2
0.41600	-1
0.41967	-1
0.42333	-0
0.42700	0
0.43067	0
0.43433	0
0.43800	0
0.44167	0
0.44533	0
0.44900	0
0.45267	-0
0.45633	-1
0.46000	-1
0.46367	-1
0.46733	-1
0.47100	-1
0.47467	-1
0.47833	-1
0.48200	-1
0.48567	-1
0.48933	-0
0.49300	-0
0.49667	-1
0.50033	-1
0.50400	-1
0.50767	-1
0.51133	-2
0.51500	-2
0.51867	-2
0.52233	-2
0.52600	-2
0.52967	-2
0.53333	-2
0.53700	-2
0.54067	-2
0.54433	-3
0.54800	-3
0.55167	-3
0.55533	-3
0.55900	-3
0.56267	-4
0.56633	-4
0.57000	-4
0.57367	-4
0.57733	-4
0.58100	-4
0.58467	-4
0.58833	-4
0.59200	-4
0.59567	-4
0.59933	-3
0.60300	-3
0.60667	-3
0.61033	-3
0.61400	-3
0.61767	-3
0.62133	-3
0.62500	-3
0.62867	-4
0.63233	-4
0.63600	-4
0.63967	-5
0.64333	-5
0.64700	-5
0.65067	-5
0.65433	-5
0.65800	-5
0.66167	-5
0.66533	-5
0.66900	-5
0.67267	-5
0.67633	-4
0.68000	-4
0.68367	-3
0.68733	-3
0.69100	-3
0.69467	-2
0.69833	-2
0.70200	-2
0.70567	-2
0.70933	-2
0.71300	-1
0.71667	-1
0.72033	-1
0.72400	-1
0.72767	-1
0.73133	-1
0.73500	-1
0.73867	-1
0.74233	-1
0.74600	-1
0.74967	-1
0.75333	-1
0.75700	-1
0.76067	-0
0.76433	-0
0.76800	-0
0.77167	-0
0.77533	0
0.77900	0
0.78267	0
0.78633	1
0.79000	1
0.79367	1
0.79733	1
0.80100	1
0.80467	1
0.80833	1
0.81200	1
0.81567	1
0.81933	1
0.82300	-0
0.82667	-1
0.83033	-2
0.83400	-3
0.83767	-4
0.84133	-4
0.84500	-5
0.84867	-6
0.85233	-6
0.85600	-6
0.85967	-7
0.86333	-7
0.86700	-7
0.87067	-6
0.87433	-6
0.87800	-6
0.88167	-6
0.88533	-6
0.88900	-5
0.89267	-5
0.89633	-6
0.90000	-6
0.90367	-6
0.90733	-6
0.91100	-6
0.91467	-6
0.91833	-6
0.92200	-5
0.92567	-5
0.92933	-5
0.93300	-4
0.93667	-4
0.94033	-4
0.94400	-4
0.94767	-4
0.95133	-3
0.95500	-4
0.95867	-4
0.96233	-3
0.96600	-3
0.96967	-4
0.97333	-4
0.97700	-4
0.98067	-4
0.98433	-4
0.98800	-4
0.99167	-4
0.99533	-4
0.99900	-4
1.00267	-4
1.00633	-3
1.01000	-3
1.01367	-3
1.01733	-3
1.02100	-3
1.02467	-3
1.02833	-3
1.03200	-3
1.03567	-3
1.03933	-3
1.04300	-3
1.04667	-3
1.05033	-3
1.05400	-3
1.05767	-3
1.06133	-3
1.06500	-3
1.06867	-3
1.07233	-4
1.07600	-4
1.07967	-4
1.08333	-4
1.08700	-4
1.09067	-4
1.09433	-4
1.09800	-4
1.10167	-4
1.10533	-4
1.10900	-4
1.11267	-4
1.11633	-4
1.12000	-4
1.12367	-4
1.12733	-4
1.13100	-4
1.13467	-4
1.13833	-4
1.14200	-5
1.14567	-5
1.14933	-5
1.15300	-5
1.15667	-5
1.16033	-5
1.16400	-5
1.16767	-5
1.17133	-5
1.17500	-5
1.17867	-4
1.18233	-4
1.18600	-4
1.18967	-3
1.19333	-3
1.19700	-3
1.20067	-3
1.20433	-3
1.20800	-3
1.21167	-3
1.21533	-3
1.21900	-3
1.22267	-3
1.22633	-4
1.23000	-4
1.23367	-4
1.23733	-4
1.24100	-5
1.24467	-5
1.24833	-5
1.25200	-5
1.25567	-5
1.25933	-5
1.26300	-5
1.26667	-5
1.27033	-5
1.27400	-5
1.27767	-5
1.28133	-5
1.28500	-5
1.28867	-5
1.29233	-5
1.29600	-5
1.29967	-5
1.30333	-5
1.30700	-5
1.31067	-5
1.31433	-5
1.31800	-6
1.32167	-6
1.32533	-6
1.32900	-6
1.33267	-6
1.33633	-6
1.34000	-6
1.34367	-6
1.34733	-6
1.35100	-6
1.35467	-6
1.35833	-6
1.36200	-6
1.36567	-6
1.36933	-5
1.37300	-5
1.37667	-5
1.38033	-5
1.38400	-5
1.38767	-5
1.39133	-5
1.39500	-6
1.39867	-6
1.40233	-6
1.40600	-6
1.40967	-6
1.41333	-5
1.41700	-5
1.42067	-5
1.42433	-5
1.42800	-4
1.43167	-4
1.43533	-4
1.43900	-4
1.44267	-4
1.44633	-4
1.45000	-4
1.45367	-4
1.45733	-4
1.46100	-4
1.46467	-3
1.46833	-3
1.47200	-3
1.47567	-3
1.47933	-3
1.48300	-3
1.48667	-3
1.49033	-3
1.49400	-3
1.49767	-2
1.50133	-2
1.50500	-2
1.50867	-2
1.51233	-1
1.51600	-1
1.51967	-1
1.52333	-2
1.52700	-2
1.53067	-2
1.53433	-2
1.53800	-2
1.54167	-2
1.54533	-2
1.54900	-3
1.55267	-3
1.55633	-4
1.56000	-4
1.56367	-4
1.56733	-4
1.57100	-4
1.57467	-4
1.57833	-4
1.58200	-4
1.58567	-4
1.58933	-5
1.59300	-5
1.59667	-6
1.60033	-6
1.60400	-8
1.60767	-9
1.61133	-11
1.61500	-13
1.61867	-16
1.62233	-19
1.62600	-22
1.62967	-25
1.63333	-28
1.63700	-31
1.64067	-34
1.64433	-38
1.64800	-41
1.65167	-45
1.65533	-49
1.65900	-53
1.66267	-57
1.66633	-62
1.67000	-67
1.67367	-72
1.67733	-78
1.68100	-83
1.68467	-88
1.68833	-92
1.69200	-95
1.69567	-99
1.69933	-101
1.70300	-103
1.70667	-105
1.71033	-106
1.71400	-107
1.71767	-108
1.72133	-109
1.72500	-110
1.72867	-111
1.73233	-112
1.73600	-112
1.73967	-113
1.74333	-113
1.74700	-114
1.75067	-115
1.75433	-116
1.75800	-116
1.76167	-116
1.76533	-116
1.76900	-116
1.77267	-115
1.77633	-115
1.78000	-114
1.78367	-115
1.78733	-115
1.79100	-116
1.79467	-117
1.79833	-118
1.80200	-118
1.80567	-120
1.80933	-120
1.81300	-121
1.81667	-122
1.82033	-122
1.82400	-122
1.82767	-122
1.83133	-121
1.83500	-120
1.83867	-120
1.84233	-119
1.84600	-119
1.84967	-118
1.85333	-118
1.85700	-118
1.86067	-119
1.86433	-119
1.86800	-119
1.87167	-119
1.87533	-119
1.87900	-119
1.88267	-119
1.88633	-119
1.89000	-119
1.89367	-119
1.89733	-119
1.90100	-119
1.90467	-119
1.90833	-119
1.91200	-118
1.91567	-118
1.91933	-118
1.92300	-118
1.92667	-118
1.93033	-118
1.93400	-118
1.93767	-118
1.94133	-118
1.94500	-118
1.94867	-117
1.95233	-116
1.95600	-116
1.95967	-115
1.96333	-115
1.96700	-115
1.97067	-115
1.97433	-114
1.97800	-114
1.98167	-114
1.98533	-114
1.98900	-114
1.99267	-114
1.99633	-114
2.00000	-113
2.00367	-113
2.00733	-112
2.01100	-111
2.01467	-111
2.01833	-111
2.02200	-111
2.02567	-111
2.02933	-110
2.03300	-110
2.03667	-109
2.04033	-109
2.04400	-109
2.04767	-109
2.05133	-109
2.05500	-109
2.05867	-109
2.06233	-108
2.06600	-108
2.06967	-108
2.07333	-108
2.07700	-107
2.08067	-107
2.08433	-107
2.08800	-106
2.09167	-105
2.09533	-105
2.09900	-104
2.10267	-103
2.10633	-102
2.11000	-101
2.11367	-101
2.11733	-101
2.12100	-101
2.12467	-101
2.12833	-102
2.13200	-102
2.13567	-102
2.13933	-102
2.14300	-102
2.14667	-101
2.15033	-101
2.15400	-100
2.15767	-100
2.16133	-99
2.16500	-98
2.16867	-98
2.17233	-98
2.17600	-97
2.17967	-97
2.18333	-97
2.18700	-96
2.19067	-96
2.19433	-96
2.19800	-95
2.20167	-95
2.20533	-95
2.20900	-95
2.21267	-94
2.21633	-94
2.22000	-93
2.22367	-93
2.22733	-92
2.23100	-92
2.23467	-91
2.23833	-91
2.24200	-91
2.24567	-91
2.24933	-91
2.25300	-91
2.25667	-91
2.26033	-90
2.26400	-89
2.26767	-88
2.27133	-87
2.27500	-86
2.27867	-86
2.28233	-85
2.28600	-85
2.28967	-86
2.29333	-86
2.29700	-87
2.30067	-87
2.30433	-86
2.30800	-86
2.31167	-85
2.31533	-85
2.31900	-85
2.32267	-85
2.32633	-86
2.33000	-86
2.33367	-87
2.33733	-87
2.34100	-87
2.34467	-86
2.34833	-85
2.35200	-84
2.35567	-83
2.35933	-81
2.36300	-79
2.36667	-77
2.37033	-75
2.37400	-72
2.37767	-69
2.38133	-65
2.38500	-61
2.38867	-56
2.39233	-52
2.39600	-47
2.39967	-42
2.40333	-38
2.40700	-34
2.41067	-31
2.41433	-28
2.41800	-26
2.42167	-24
2.42533	-22
2.42900	-21
2.43267	-19
2.43633	-17
2.44000	-16
2.44367	-14
2.44733	-13
2.45100	-12
2.45467	-10
2.45833	-9
2.46200	-8
2.46567	-6
2.46933	-5
2.47300	-4
2.47667	-3
2.48033	-1
2.48400	0
2.48767	1
2.49133	2
2.49500	3
2.49867	4
2.50233	5
2.50600	5
2.50967	6
2.51333	7
2.51700	8
2.52067	9
2.52433	9
2.52800	9
2.53167	10
2.53533	10
2.53900	10
2.54267	11
2.54633	11
2.55000	12
2.55367	12
2.55733	12
2.56100	12
2.56467	12
2.56833	12
2.57200	12
2.57567	12
2.57933	13
2.58300	13
2.58667	13
2.59033	13
2.59400	13
2.59767	13
2.60133	13
2.60500	13
2.60867	12
2.61233	12
2.61600	12
2.61967	12
2.62333	12
2.62700	13
2.63067	13
2.63433	14
2.63800	14
2.64167	14
2.64533	14
2.64900	15
2.65267	15
2.65633	15
2.66000	15
2.66367	16
2.66733	16
2.67100	17
2.67467	17
2.67833	18
2.68200	18
2.68567	18
2.68933	18
2.69300	18
2.69667	19
2.70033	19
2.70400	19
2.70767	19
2.71133	19
2.71500	19
2.71867	19
2.72233	19
2.72600	19
2.72967	20
2.73333	20
2.73700	20
2.74067	20
2.74433	20
2.74800	20
2.75167	20
2.75533	20
2.75900	20
2.76267	21
2.76633	21
2.77000	22
2.77367	22
2.77733	23
2.78100	23
2.78467	24
2.78833	24
2.79200	24
2.79567	24
2.79933	23
2.80300	23
2.80667	23
2.81033	22
2.81400	22
2.81767	22
2.82133	22
2.82500	22
2.82867	22
2.83233	22
2.83600	22
2.83967	20
2.84333	18
2.84700	14
2.85067	7
2.85433	-3
2.85800	-16
2.86167	-33
2.86533	-55
2.86900	-80
2.87267	-110
2.87633	-143
2.88000	-181
2.88367	-222
2.88733	-267
2.89100	-314
2.89467	-363
2.89833	-414
2.90200	-467
2.90567	-520
2.90933	-574
2.91300	-629
2.91667	-683
2.92033	-736
2.92400	-788
2.92767	-840
2.93133	-893
2.93500	-951
2.93867	-1011
2.94233	-1063
2.94600	-1097
2.94967	-1106
2.95333	-1089
2.95700	-1049
2.96067	-991
2.96433	-920
2.96800	-842
2.97167	-762
2.97533	-682
2.97900	-605
2.98267	-533
2.98633	-466
2.99000	-406
2.99367	-351
2.99733	-303
3.00100	-260
3.00467	-222
3.00833	-190
3.01200	-161
3.01567	-136
3.01933	-115
3.02300	-97
3.02667	-82
3.03033	-68
3.03400	-57
3.03767	-47
3.04133	-38
3.04500	-31
3.04867	-25
3.05233	-19
3.05600	-14
3.05967	-10
3.06333	-6
3.06700	-3
3.07067	-1
3.07433	1
3.07800	3
3.08167	4
3.08533	6
3.08900	7
3.09267	8
3.09633	9
3.10000	9
3.10367	10
3.10733	11
3.11100	12
3.11467	12
3.11833	13
3.12200	14
3.12567	14
3.12933	14
3.13300	15
3.13667	15
3.14033	15
3.14400	15
3.14767	15
3.15133	15
3.15500	15
3.15867	16
3.16233	16
3.16600	16
3.16967	16
3.17333	17
3.17700	17
3.18067	18
3.18433	18
3.18800	18
3.19167	19
3.19533	19
3.19900	19
3.20267	19
3.20633	20
3.21000	20
3.21367	20
3.21733	20
3.22100	20
3.22467	20
3.22833	20
3.23200	20
3.23567	20
3.23933	20
3.24300	19
3.24667	19
3.25033	19
3.25400	19
3.25767	19
3.26133	19
3.26500	20
3.26867	20
3.27233	20
3.27600	21
3.27967	21
3.28333	21
3.28700	21
3.29067	21
3.29433	21
3.29800	22
3.30167	22
3.30533	22
3.30900	22
3.31267	22
3.31633	22
3.32000	22
3.32367	22
3.32733	22
3.33100	23
3.33467	23
3.33833	23
3.34200	23
3.34567	23
3.34933	22
3.35300	22
3.35667	22
3.36033	21
3.36400	21
3.36767	21
3.37133	21
3.37500	21
3.37867	21
3.38233	21
3.38600	22
3.38967	22
3.39333	22
3.39700	22
3.40067	22
3.40433	22
3.40800	22
3.41167	22
3.41533	22
3.41900	22
3.42267	22
3.42633	22
3.43000	22
3.43367	23
3.43733	23
3.44100	23
3.44467	23
3.44833	23
3.45200	23
3.45567	23
3.45933	24
3.46300	24
3.46667	25
3.47033	25
3.47400	25
3.47767	25
3.48133	25
3.48500	26
3.48867	26
3.49233	26
3.49600	26
3.49967	27
3.50333	27
3.50700	27
3.51067	27
3.51433	27
3.51800	27
3.52167	27
3.52533	27
3.52900	27
3.53267	27
3.53633	27
3.54000	27
3.54367	27
3.54733	26
3.55100	26
3.55467	26
3.55833	26
3.56200	25
3.56567	25
3.56933	25
3.57300	25
3.57667	25
3.58033	25
3.58400	25
3.58767	25
3.59133	25
3.59500	25
3.59867	25
3.60233	25
3.60600	26
3.60967	25
3.61333	25
3.61700	25
3.62067	25
3.62433	25
3.62800	25
3.63167	25
3.63533	24
3.63900	25
3.64267	25
3.64633	25
3.65000	26
3.65367	26
3.65733	26
3.66100	26
3.66467	25
3.66833	25
3.67200	25
3.67567	25
3.67933	25
3.68300	25
3.68667	25
3.69033	25
3.69400	25
3.69767	24
3.70133	24
3.70500	24
3.70867	24
3.71233	24
3.71600	24
3.71967	24
3.72333	24
3.72700	23
3.73067	23
3.73433	23
3.73800	22
3.74167	22
3.74533	22
3.74900	22
3.75267	22
3.75633	22
3.76000	22
3.76367	22
3.76733	22
3.77100	22
3.77467	22
3.77833	22
3.78200	21
3.78567	21
3.78933	21
3.79300	21
3.79667	21
3.80033	21
3.80400	21
3.80767	21
3.81133	21
3.81500	22
3.81867	22
3.82233	22
3.82600	22
3.82967	23
3.83333	23
3.83700	23
3.84067	24
3.84433	24
3.84800	24
3.85167	24
3.85533	24
3.85900	24
3.86267	24
3.86633	24
3.87000	24
3.87367	24
3.87733	24
3.88100	24
3.88467	24
3.88833	24
3.89200	24
3.89567	24
3.89933	24
3.90300	24
3.90667	24
3.91033	25
3.91400	24
3.91767	24
3.92133	24
3.92500	24
3.92867	24
3.93233	24
3.93600	24
3.93967	24
3.94333	24
3.94700	24
3.95067	24
3.95433	24
3.95800	24
3.96167	24
3.96533	24
3.96900	24
3.97267	24
3.97633	24
3.98000	24
3.98367	24
3.98733	24
3.99100	24
3.99467	24
3.99833	24

[Chromatogram (Ch3)]
Interval(msec)	220
# of Points	1091
Start Time(min)	0.002
End Time(min)	3.998
R.Time (min)	Intensity
0.00167	0
0.00533	1
0.00900	1
0.01267	2
0.01633	4
0.02000	5
0.02367	5
0.02733	5
0.03100	6
0.03467	7
0.03833	7
0.04200	6
0.04567	8
0.04933	9
0.05300	9
0.05667	10
0.06033	9
0.06400	7
0.06767	4
0.07133	4
0.07500	4
0.07867	3
0.08233	4
0.08600	6
0.08967	8
0.09333	9
0.09700	8
0.10067	9
0.10433	9
0.10800	8
0.11167	8
0.11533	8
0.11900	9
0.12267	9
0.12633	10
0.13000	11
0.13367	10
0.13733	10
0.14100	9
0.14467	9
0.14833	9
0.15200	6
0.15567	5
0.15933	5
0.16300	5
0.16667	6
0.17033	6
0.17400	5
0.17767	5
0.18133	7
0.18500	7
0.18867	10
0.19233	13
0.19600	14
0.19967	14
0.20333	14
0.20700	14
0.21067	13
0.21433	11
0.21800	10
0.22167	11
0.22533	10
0.22900	6
0.23267	5
0.23633	4
0.24000	4
0.24367	6
0.24733	7
0.25100	7
0.25467	9
0.25833	10
0.26200	12
0.26567	12
0.26933	9
0.27300	8
0.27667	7
0.28033	6
0.28400	4
0.28767	3
0.29133	4
0.29500	5
0.29867	5
0.30233	6
0.30600	7
0.30967	8
0.31333	8
0.31700	7
0.32067	6
0.32433	6
0.32800	8
0.33167	8
0.33533	9
0.33900	8
0.34267	7
0.34633	7
0.35000	8
0.35367	8
0.35733	8
0.36100	10
0.36467	12
0.36833	12
0.37200	13
0.37567	13
0.37933	13
0.38300	15
0.38667	15
0.39033	13
0.39400	12
0.39767	12
0.40133	12
0.40500	12
0.40867	11
0.41233	12
0.41600	15
0.41967	15
0.42333	14
0.42700	13
0.43067	13
0.43433	13
0.43800	12
0.44167	12
0.44533	13
0.44900	11
0.45267	10
0.45633	11
0.46000	10
0.46367	10
0.46733	10
0.47100	10
0.47467	10
0.47833	11
0.48200	12
0.48567	13
0.48933	14
0.49300	14
0.49667	14
0.50033	12
0.50400	10
0.50767	10
0.51133	13
0.51500	15
0.51867	14
0.52233	13
0.52600	12
0.52967	12
0.53333	12
0.53700	11
0.54067	9
0.54433	7
0.54800	8
0.55167	10
0.55533	12
0.55900	13
0.56267	14
0.56633	16
0.57000	16
0.57367	16
0.57733	15
0.58100	13
0.58467	11
0.58833	11
0.59200	11
0.59567	10
0.59933	9
0.60300	10
0.60667	11
0.61033	13
0.61400	12
0.61767	13
0.62133	14
0.62500	15
0.62867	13
0.63233	12
0.63600	12
0.63967	14
0.64333	17
0.64700	19
0.65067	19
0.65433	17
0.65800	16
0.66167	15
0.66533	14
0.66900	13
0.67267	15
0.67633	17
0.68000	16
0.68367	15
0.68733	14
0.69100	15
0.69467	16
0.69833	16
0.70200	18
0.70567	19
0.70933	19
0.71300	19
0.71667	19
0.72033	18
0.72400	17
0.72767	16
0.73133	18
0.73500	20
0.73867	22
0.74233	21
0.74600	19
0.74967	19
0.75333	19
0.75700	19
0.76067	17
0.76433	16
0.76800	17
0.77167	20
0.77533	20
0.77900	19
0.78267	18
0.78633	19
0.79000	18
0.79367	17
0.79733	17
0.80100	17
0.80467	15
0.80833	14
0.81200	13
0.81567	13
0.81933	15
0.82300	16
0.82667	18
0.83033	19
0.83400	18
0.83767	19
0.84133	19
0.84500	20
0.84867	20
0.85233	19
0.85600	17
0.85967	17
0.86333	18
0.86700	20
0.87067	20
0.87433	18
0.87800	18
0.88167	21
0.88533	23
0.88900	22
0.89267	21
0.89633	20
0.90000	20
0.90367	20
0.90733	21
0.91100	21
0.91467	19
0.91833	17
0.92200	16
0.92567	15
0.92933	17
0.93300	20
0.93667	21
0.94033	23
0.94400	25
0.94767	25
0.95133	23
0.95500	23
0.95867	23
0.96233	23
0.96600	24
0.96967	26
0.97333	25
0.97700	24
0.98067	23
0.98433	24
0.98800	22
0.99167	22
0.99533	21
0.99900	20
1.00267	20
1.00633	21
1.01000	21
1.01367	21
1.01733	22
1.02100	24
1.02467	27
1.02833	28
1.03200	26
1.03567	23
1.03933	24
1.04300	23
1.04667	21
1.05033	20
1.05400	18
1.05767	17
1.06133	20
1.06500	22
1.06867	21
1.07233	20
1.07600	21
1.07967	22
1.08333	21
1.08700	22
1.09067	23
1.09433	25
1.09800	24
1.10167	24
1.10533	27
1.10900	28
1.11267	28
1.11633	27
1.12000	28
1.12367	28
1.12733	28
1.13100	28
1.13467	29
1.13833	28
1.14200	27
1.14567	26
1.14933	27
1.15300	29
1.15667	29
1.16033	28
1.16400	27
1.16767	28
1.17133	28
1.17500	29
1.17867	30
1.18233	29
1.18600	27
1.18967	27
1.19333	28
1.19700	28
1.20067	28
1.20433	28
1.20800	26
1.21167	25
1.21533	25
1.21900	26
1.22267	27
1.22633	28
1.23000	29
1.23367	31
1.23733	33
1.24100	34
1.24467	33
1.24833	31
1.25200	28
1.25567	26
1.25933	26
1.26300	26
1.26667	27
1.27033	27
1.27400	27
1.27767	26
1.28133	27
1.28500	30
1.28867	32
1.29233	33
1.29600	33
1.29967	31
1.30333	32
1.30700	34
1.31067	36
1.31433	37
1.31800	37
1.32167	33
1.32533	30
1.32900	29
1.33267	33
1.33633	35
1.34000	36
1.34367	35
1.34733	32
1.35100	28
1.35467	28
1.35833	29
1.36200	30
1.36567	31
1.36933	32
1.37300	32
1.37667	34
1.38033	36
1.38400	37
1.38767	36
1.39133	34
1.39500	31
1.39867	29
1.40233	28
1.40600	29
1.40967	31
1.41333	32
1.41700	31
1.42067	29
1.42433	30
1.42800	31
1.43167	31
1.43533	32
1.43900	31
1.44267	32
1.44633	32
1.45000	29
1.45367	30
1.45733	30
1.46100	31
1.46467	32
1.46833	32
1.47200	34
1.47567	34
1.47933	31
1.48300	30
1.48667	31
1.49033	32
1.49400	34
1.49767	34
1.50133	33
1.50500	32
1.50867	33
1.51233	32
1.51600	31
1.51967	30
1.52333	29
1.52700	30
1.53067	30
1.53433	33
1.53800	32
1.54167	32
1.54533	32
1.54900	31
1.55267	28
1.55633	24
1.56000	26
1.56367	29
1.56733	29
1.57100	28
1.57467	29
1.57833	30
1.58200	32
1.58567	35
1.58933	40
1.59300	42
1.59667	40
1.60033	38
1.60400	37
1.60767	36
1.61133	35
1.61500	35
1.61867	33
1.62233	33
1.62600	33
1.62967	32
1.63333	33
1.63700	35
1.64067	36
1.64433	37
1.64800	37
1.65167	38
1.65533	40
1.65900	40
1.66267	39
1.66633	38
1.67000	38
1.67367	39
1.67733	40
1.68100	41
1.68467	41
1.68833	42
1.69200	43
1.69567	43
1.69933	44
1.70300	45
1.70667	47
1.71033	49
1.71400	49
1.71767	48
1.72133	47
1.72500	47
1.72867	47
1.73233	48
1.73600	48
1.73967	48
1.74333	49
1.74700	50
1.75067	52
1.75433	54
1.75800	56
1.76167	55
1.76533	53
1.76900	51
1.77267	48
1.77633	45
1.78000	44
1.78367	45
1.78733	47
1.79100	47
1.79467	47
1.79833	47
1.80200	48
1.80567	49
1.80933	51
1.81300	53
1.81667	54
1.82033	55
1.82400	54
1.82767	54
1.83133	52
1.83500	52
1.83867	52
1.84233	52
1.84600	53
1.84967	54
1.85333	55
1.85700	57
1.86067	57
1.86433	58
1.86800	61
1.87167	62
1.87533	62
1.87900	62
1.88267	63
1.88633	61
1.89000	61
1.89367	62
1.89733	61
1.90100	62
1.90467	64
1.90833	64
1.91200	63
1.91567	61
1.91933	59
1.92300	60
1.92667	61
1.93033	62
1.93400	62
1.93767	62
1.94133	63
1.94500	66
1.94867	68
1.95233	70
1.95600	71
1.95967	74
1.96333	74
1.96700	74
1.97067	73
1.97433	75
1.97800	78
1.98167	79
1.98533	77
1.98900	76
1.99267	76
1.99633	77
2.00000	79
2.00367	82
2.00733	84
2.01100	86
2.01467	89
2.01833	91
2.02200	91
2.02567	89
2.02933	89
2.03300	90
2.03667	89
2.04033	89
2.04400	91
2.04767	91
2.05133	91
2.05500	90
2.05867	91
2.06233	92
2.06600	95
2.06967	97
2.07333	96
2.07700	95
2.08067	96
2.08433	97
2.08800	95
2.09167	95
2.09533	95
2.09900	96
2.10267	98
2.10633	99
2.11000	103
2.11367	106
2.11733	107
2.12100	108
2.12467	110
2.12833	111
2.13200	111
2.13567	111
2.13933	112
2.14300	115
2.14667	119
2.15033	119
2.15400	119
2.15767	118
2.16133	118
2.16500	117
2.16867	118
2.17233	121
2.17600	124
2.17967	126
2.18333	127
2.18700	127
2.19067	128
2.19433	130
2.19800	132
2.20167	132
2.20533	132
2.20900	133
2.21267	135
2.21633	136
2.22000	137
2.22367	140
2.22733	141
2.23100	142
2.23467	141
2.23833	142
2.24200	144
2.24567	146
2.24933	147
2.25300	149
2.25667	152
2.26033	153
2.26400	154
2.26767	155
2.27133	156
2.27500	157
2.27867	158
2.28233	158
2.28600	160
2.28967	164
2.29333	165
2.29700	166
2.30067	167
2.30433	168
2.30800	169
2.31167	170
2.31533	174
2.31900	179
2.32267	181
2.32633	182
2.33000	184
2.33367	186
2.33733	186
2.34100	187
2.34467	187
2.34833	189
2.35200	193
2.35567	195
2.35933	197
2.36300	199
2.36667	201
2.37033	203
2.37400	205
2.37767	206
2.38133	205
2.38500	207
2.38867	207
2.39233	208
2.39600	211
2.39967	214
2.40333	218
2.40700	221
2.41067	225
2.41433	230
2.41800	233
2.42167	237
2.42533	241
2.42900	244
2.43267	244
2.43633	243
2.44000	246
2.44367	280
2.44733	370
2.45100	464
2.45467	538
2.45833	582
2.46200	586
2.46567	559
2.46933	526
2.47300	500
2.47667	483
2.48033	475
2.48400	467
2.48767	450
2.49133	424
2.49500	399
2.49867	377
2.50233	360
2.50600	347
2.50967	338
2.51333	331
2.51700	330
2.52067	336
2.52433	345
2.52800	356
2.53167	370
2.53533	382
2.53900	391
2.54267	396
2.54633	396
2.55000	390
2.55367	377
2.55733	363
2.56100	349
2.56467	335
2.56833	324
2.57200	317
2.57567	312
2.57933	306
2.58300	301
2.58667	299
2.59033	295
2.59400	288
2.59767	279
2.60133	265
2.60500	246
2.60867	222
2.61233	195
2.61600	167
2.61967	139
2.62333	115
2.62700	96
2.63067	82
2.63433	75
2.63800	74
2.64167	78
2.64533	85
2.64900	94
2.65267	106
2.65633	117
2.66000	128
2.66367	140
2.66733	154
2.67100	165
2.67467	176
2.67833	182
2.68200	188
2.68567	193
2.68933	197
2.69300	201
2.69667	202
2.70033	200
2.70400	200
2.70767	198
2.71133	197
2.71500	197
2.71867	197
2.72233	198
2.72600	197
2.72967	196
2.73333	197
2.73700	198
2.74067	198
2.74433	197
2.74800	198
2.75167	200
2.75533	202
2.75900	205
2.76267	206
2.76633	208
2.77000	209
2.77367	212
2.77733	213
2.78100	214
2.78467	217
2.78833	219
2.79200	220
2.79567	220
2.79933	222
2.80300	223
2.80667	222
2.81033	223
2.81400	227
2.81767	236
2.82133	255
2.82500	296
2.82867	379
2.83233	526
2.83600	757
2.83967	1088
2.84333	1524
2.84700	2049
2.85067	2635
2.85433	3244
2.85800	3821
2.86167	4323
2.86533	4709
2.86900	4955
2.87267	5055
2.87633	5015
2.88000	4856
2.88367	4608
2.88733	4298
2.89100	3955
2.89467	3601
2.89833	3253
2.90200	2919
2.90567	2608
2.90933	2323
2.91300	2063
2.91667	1831
2.92033	1625
2.92400	1444
2.92767	1286
2.93133	1150
2.93500	1033
2.93867	930
2.94233	840
2.94600	760
2.94967	691
2.95333	630
2.95700	578
2.96067	537
2.96433	501
2.96800	470
2.97167	441
2.97533	414
2.97900	394
2.98267	377
2.98633	364
2.99000	351
2.99367	338
2.99733	324
3.00100	312
3.00467	304
3.00833	298
3.01200	295
3.01567	289
3.01933	280
3.02300	273
3.02667	269
3.03033	262
3.03400	256
3.03767	252
3.04133	250
3.04500	244
3.04867	239
3.05233	234
3.05600	230
3.05967	225
3.06333	222
3.06700	221
3.07067	221
3.07433	220
3.07800	216
3.08167	212
3.08533	209
3.08900	208
3.09267	207
3.09633	207
3.10000	207
3.10367	204
3.10733	200
3.11100	196
3.11467	195
3.11833	194
3.12200	193
3.12567	192
3.12933	186
3.13300	176
3.13667	166
3.14033	161
3.14400	159
3.14767	160
3.15133	170
3.15500	187
3.15867	210
3.16233	239
3.16600	272
3.16967	307
3.17333	343
3.17700	380
3.18067	414
3.18433	446
3.18800	475
3.19167	500
3.19533	520
3.19900	537
3.20267	553
3.20633	568
3.21000	582
3.21367	594
3.21733	605
3.22100	613
3.22467	621
3.22833	628
3.23200	632
3.23567	636
3.23933	640
3.24300	643
3.24667	644
3.25033	645
3.25400	647
3.25767	649
3.26133	649
3.26500	650
3.26867	653
3.27233	654
3.27600	655
3.27967	656
3.28333	659
3.28700	663
3.29067	663
3.29433	660
3.29800	658
3.30167	657
3.30533	657
3.30900	656
3.31267	657
3.31633	660
3.32000	660
3.32367	660
3.32733	658
3.33100	656
3.33467	653
3.33833	650
3.34200	649
3.34567	649
3.34933	648
3.35300	646
3.35667	643
3.36033	642
3.36400	639
3.36767	637
3.37133	635
3.37500	635
3.37867	637
3.38233	637
3.38600	634
3.38967	632
3.39333	632
3.39700	630
3.40067	628
3.40433	626
3.40800	624
3.41167	622
3.41533	623
3.41900	623
3.42267	622
3.42633	624
3.43000	624
3.43367	623
3.43733	623
3.44100	624
3.44467	623
3.44833	624
3.45200	624
3.45567	621
3.45933	619
3.46300	617
3.46667	615
3.47033	613
3.47400	611
3.47767	608
3.48133	607
3.48500	608
3.48867	608
3.49233	606
3.49600	602
3.49967	601
3.50333	600
3.50700	600
3.51067	599
3.51433	596
3.51800	595
3.52167	594
3.52533	590
3.52900	588
3.53267	587
3.53633	584
3.54000	581
3.54367	579
3.54733	575
3.55100	572
3.55467	570
3.55833	570
3.56200	568
3.56567	565
3.56933	563
3.57300	561
3.57667	558
3.58033	555
3.58400	550
3.58767	548
3.59133	548
3.59500	549
3.59867	548
3.60233	547
3.60600	545
3.60967	542
3.61333	540
3.61700	538
3.62067	536
3.62433	535
3.62800	533
3.63167	531
3.63533	528
3.63900	529
3.64267	529
3.64633	528
3.65000	527
3.65367	525
3.65733	523
3.66100	524
3.66467	524
3.66833	524
3.67200	523
3.67567	522
3.67933	519
3.68300	517
3.68667	513
3.69033	511
3.69400	509
3.69767	505
3.70133	502
3.70500	501
3.70867	501
3.71233	501
3.71600	502
3.71967	503
3.72333	501
3.72700	498
3.73067	496
3.73433	493
3.73800	490
3.74167	490
3.74533	489
3.74900	487
3.75267	488
3.75633	489
3.76000	489
3.76367	491
3.76733	492
3.77100	492
3.77467	492
3.77833	493
3.78200	492
3.78567	489
3.78933	488
3.79300	487
3.79667	484
3.80033	485
3.80400	486
3.80767	486
3.81133	483
3.81500	482
3.81867	482
3.82233	482
3.82600	479
3.82967	477
3.83333	476
3.83700	476
3.84067	478
3.84433	480
3.84800	479
3.85167	476
3.85533	476
3.85900	476
3.86267	473
3.86633	470
3.87000	470
3.87367	470
3.87733	470
3.88100	468
3.88467	467
3.88833	467
3.89200	466
3.89567	464
3.89933	464
3.90300	464
3.90667	463
3.91033	461
3.91400	459
3.91767	458
3.92133	457
3.92500	455
3.92867	455
3.93233	455
3.93600	454
3.93967	454
3.94333	453
3.94700	451
3.95067	450
3.95433	449
3.95800	445
3.96167	440
3.96533	437
3.96900	435
3.97267	435
3.97633	437
3.98000	438
3.98367	438
3.98733	437
3.99100	436
3.99467	432
3.99833	429

[Status Trace (Column Oven Temperature)]
Interval(msec)	1000
# of Points	240
Start Time(min)	0.016
End Time(min)	3.999
Intensity Units	
Intensity Multiplier	1
R.Time (min)	Intensity
0.01595	35.04
0.03262	35.04
0.04928	35.04
0.06595	35.05
0.08262	35.06
0.09928	35.07
0.11595	35.07
0.13262	35.07
0.14928	35.07
0.16595	35.06
0.18262	35.05
0.19928	35.03
0.21595	35.03
0.23262	35.03
0.24928	35.03
0.26595	35.03
0.28262	35.02
0.29928	35.03
0.31595	35.03
0.33262	35.03
0.34928	35.03
0.36595	35.03
0.38262	35.03
0.39928	35.02
0.41595	35.01
0.43262	35.01
0.44928	35.01
0.46595	35.01
0.48262	35.01
0.49928	35.00
0.51595	35.00
0.53262	35.00
0.54928	35.02
0.56595	35.02
0.58262	35.01
0.59928	35.02
0.61595	35.02
0.63262	35.02
0.64928	35.04
0.66595	35.03
0.68262	35.03
0.69928	35.03
0.71595	35.03
0.73262	35.01
0.74928	35.00
0.76595	34.99
0.78262	34.96
0.79928	34.95
0.81595	34.95
0.83262	34.97
0.84928	34.98
0.86595	34.99
0.88262	35.00
0.89928	35.00
0.91595	35.01
0.93262	35.00
0.94928	35.01
0.96595	35.01
0.98262	35.01
0.99928	35.01
1.01595	35.00
1.03262	35.01
1.04928	35.00
1.06595	35.00
1.08262	35.00
1.09928	35.00
1.11595	35.00
1.13262	35.01
1.14928	35.02
1.16595	35.02
1.18262	35.01
1.19928	35.00
1.21595	35.01
1.23262	35.01
1.24928	35.00
1.26595	35.01
1.28262	35.01
1.29928	35.01
1.31595	35.02
1.33262	35.03
1.34928	35.02
1.36595	35.02
1.38262	35.03
1.39928	35.03
1.41595	35.03
1.43262	35.02
1.44928	35.01
1.46595	35.01
1.48262	35.00
1.49928	34.99
1.51595	34.99
1.53262	34.98
1.54928	34.97
1.56595	34.97
1.58262	34.96
1.59928	34.99
1.61595	35.09
1.63262	35.25
1.64928	35.47
1.66595	35.77
1.68262	36.14
1.69928	36.49
1.71595	36.83
1.73262	37.17
1.74928	37.51
1.76595	37.83
1.78262	38.15
1.79928	38.49
1.81595	38.83
1.83262	39.16
1.84928	39.49
1.86595	39.82
1.88262	40.15
1.89928	40.49
1.91595	40.81
1.93262	41.14
1.94928	41.47
1.96595	41.80
1.98262	42.12
1.99928	42.46
2.01595	42.78
2.03262	43.10
2.04928	43.44
2.06595	43.76
2.08262	44.08
2.09928	44.41
2.11595	44.72
2.13262	45.05
2.14928	45.37
2.16595	45.71
2.18262	46.02
2.19928	46.36
2.21595	46.68
2.23262	47.00
2.24928	47.34
2.26595	47.65
2.28262	47.99
2.29928	48.33
2.31595	48.65
2.33262	49.02
2.34928	49.32
2.36595	49.56
2.38262	49.65
2.39928	49.65
2.41595	49.66
2.43262	49.66
2.44928	49.67
2.46595	49.67
2.48262	49.68
2.49928	49.69
2.51595	49.70
2.53262	49.72
2.54928	49.73
2.56595	49.75
2.58262	49.75
2.59928	49.77
2.61595	49.78
2.63262	49.78
2.64928	49.80
2.66595	49.80
2.68262	49.81
2.69928	49.83
2.71595	49.84
2.73262	49.85
2.74928	49.86
2.76595	49.85
2.78262	49.85
2.79928	49.86
2.81595	49.87
2.83262	49.86
2.84928	49.87
2.86595	49.87
2.88262	49.86
2.89928	49.87
2.91595	49.89
2.93262	49.92
2.94928	49.95
2.96595	49.97
2.98262	49.98
2.99928	49.99
3.01595	49.99
3.03262	50.00
3.04928	50.00
3.06595	49.99
3.08262	50.00
3.09928	50.00
3.11595	50.00
3.13262	50.01
3.14928	50.02
3.16595	50.03
3.18262	50.03
3.19928	50.04
3.21595	50.05
3.23262	50.05
3.24928	50.06
3.26595	50.06
3.28262	50.06
3.29928	50.07
3.31595	50.07
3.33262	50.07
3.34928	50.08
3.36595	50.09
3.38262	50.10
3.39928	50.11
3.41595	50.11
3.43262	50.10
3.44928	50.11
3.46595	50.09
3.48262	50.07
3.49928	50.06
3.51595	50.05
3.53262	50.03
3.54928	50.03
3.56595	50.03
3.58262	50.02
3.59928	50.01
3.61595	50.01
3.63262	50.00
3.64928	50.00
3.66595	50.00
3.68262	50.00
3.69928	50.01
3.71595	50.02
3.73262	50.02
3.74928	50.03
3.76595	50.05
3.78262	50.06
3.79928	50.07
3.81595	50.07
3.83262	50.06
3.84928	50.06
3.86595	50.06
3.88262	50.05
3.89928	50.05
3.91595	50.05
3.93262	50.04
3.94928	50.04
3.96595	50.04
3.98262	50.04
3.99928	50.04

[Status Trace (Injection Unit Temperature)]
Interval(msec)	1000
# of Points	240
Start Time(min)	0.016
End Time(min)	3.999
Intensity Units	
Intensity Multiplier	1
R.Time (min)	Intensity
0.01595	99.98
0.03262	99.98
0.04928	99.98
0.06595	99.98
0.08262	99.98
0.09928	99.98
0.11595	99.98
0.13262	99.98
0.14928	99.99
0.16595	99.98
0.18262	99.98
0.19928	99.98
0.21595	99.98
0.23262	99.98
0.24928	99.99
0.26595	99.99
0.28262	99.99
0.29928	99.98
0.31595	99.99
0.33262	99.99
0.34928	99.99
0.36595	99.99
0.38262	99.99
0.39928	99.99
0.41595	99.99
0.43262	99.99
0.44928	99.99
0.46595	99.99
0.48262	99.99
0.49928	99.99
0.51595	99.99
0.53262	99.99
0.54928	99.98
0.56595	99.98
0.58262	99.98
0.59928	99.99
0.61595	99.99
0.63262	99.98
0.64928	99.98
0.66595	99.98
0.68262	99.98
0.69928	99.98
0.71595	99.98
0.73262	99.98
0.74928	99.98
0.76595	99.98
0.78262	99.98
0.79928	99.98
0.81595	99.98
0.83262	99.98
0.84928	99.98
0.86595	99.98
0.88262	99.98
0.89928	99.98
0.91595	99.98
0.93262	99.98
0.94928	99.98
0.96595	99.98
0.98262	99.99
0.99928	99.98
1.01595	99.98
1.03262	99.98
1.04928	99.98
1.06595	99.99
1.08262	99.98
1.09928	99.99
1.11595	99.98
1.13262	99.98
1.14928	99.98
1.16595	99.99
1.18262	99.99
1.19928	99.98
1.21595	99.98
1.23262	99.98
1.24928	99.99
1.26595	99.98
1.28262	99.98
1.29928	99.98
1.31595	99.98
1.33262	99.98
1.34928	99.98
1.36595	99.98
1.38262	99.98
1.39928	99.99
1.41595	99.98
1.43262	99.99
1.44928	99.98
1.46595	99.99
1.48262	99.98
1.49928	99.99
1.51595	99.98
1.53262	99.99
1.54928	99.98
1.56595	99.99
1.58262	99.99
1.59928	99.98
1.61595	99.98
1.63262	99.99
1.64928	99.99
1.66595	99.98
1.68262	99.98
1.69928	99.99
1.71595	99.99
1.73262	99.98
1.74928	99.99
1.76595	99.99
1.78262	99.98
1.79928	99.98
1.81595	99.99
1.83262	99.99
1.84928	99.98
1.86595	99.98
1.88262	99.99
1.89928	99.98
1.91595	99.98
1.93262	99.98
1.94928	99.98
1.96595	99.98
1.98262	99.98
1.99928	99.98
2.01595	99.98
2.03262	99.97
2.04928	99.98
2.06595	99.98
2.08262	99.97
2.09928	99.97
2.11595	99.97
2.13262	99.97
2.14928	99.97
2.16595	99.98
2.18262	99.97
2.19928	99.97
2.21595	99.97
2.23262	99.97
2.24928	99.97
2.26595	99.97
2.28262	99.97
2.29928	99.97
2.31595	99.97
2.33262	99.96
2.34928	99.97
2.36595	99.97
2.38262	99.97
2.39928	99.97
2.41595	99.97
2.43262	99.97
2.44928	99.97
2.46595	99.97
2.48262	99.97
2.49928	99.97
2.51595	99.97
2.53262	99.97
2.54928	99.97
2.56595	99.97
2.58262	99.97
2.59928	99.97
2.61595	99.97
2.63262	99.98
2.64928	99.97
2.66595	99.98
2.68262	99.98
2.69928	99.98
2.71595	99.98
2.73262	99.98
2.74928	99.99
2.76595	99.99
2.78262	99.99
2.79928	99.98
2.81595	99.99
2.83262	99.99
2.84928	99.99
2.86595	99.99
2.88262	99.99
2.89928	100.00
2.91595	100.00
2.93262	100.00
2.94928	100.00
2.96595	100.00
2.98262	100.00
2.99928	100.01
3.01595	100.01
3.03262	100.01
3.04928	100.01
3.06595	100.01
3.08262	100.01
3.09928	100.01
3.11595	100.02
3.13262	100.02
3.14928	100.02
3.16595	100.02
3.18262	100.02
3.19928	100.02
3.21595	100.02
3.23262	100.02
3.24928	100.02
3.26595	100.03
3.28262	100.03
3.29928	100.03
3.31595	100.03
3.33262	100.03
3.34928	100.03
3.36595	100.03
3.38262	100.03
3.39928	100.03
3.41595	100.03
3.43262	100.03
3.44928	100.03
3.46595	100.03
3.48262	100.04
3.49928	100.04
3.51595	100.04
3.53262	100.03
3.54928	100.04
3.56595	100.04
3.58262	100.04
3.59928	100.04
3.61595	100.04
3.63262	100.04
3.64928	100.04
3.66595	100.04
3.68262	100.04
3.69928	100.04
3.71595	100.04
3.73262	100.04
3.74928	100.04
3.76595	100.04
3.78262	100.04
3.79928	100.05
3.81595	100.05
3.83262	100.05
3.84928	100.05
3.86595	100.05
3.88262	100.05
3.89928	100.05
3.91595	100.05
3.93262	100.05
3.94928	100.05
3.96595	100.05
3.98262	100.05
3.99928	100.05

[Status Trace (Carrier Gas Pressure)]
Interval(msec)	1000
# of Points	240
Start Time(min)	0.016
End Time(min)	3.999
Intensity Units	
Intensity Multiplier	1
R.Time (min)	Intensity
0.01595	56.93
0.03262	55.91
0.04928	58.16
0.06595	59.89
0.08262	58.48
0.09928	57.97
0.11595	58.00
0.13262	58.01
0.14928	58.01
0.16595	58.00
0.18262	58.00
0.19928	58.00
0.21595	58.00
0.23262	58.00
0.24928	58.00
0.26595	58.00
0.28262	58.00
0.29928	58.00
0.31595	58.00
0.33262	58.00
0.34928	58.00
0.36595	58.00
0.38262	58.00
0.39928	58.00
0.41595	58.00
0.43262	58.00
0.44928	58.00
0.46595	58.00
0.48262	58.00
0.49928	58.00
0.51595	58.00
0.53262	58.00
0.54928	58.00
0.56595	58.00
0.58262	58.00
0.59928	58.00
0.61595	58.00
0.63262	58.00
0.64928	58.00
0.66595	58.00
0.68262	58.00
0.69928	58.00
0.71595	58.00
0.73262	58.00
0.74928	58.00
0.76595	58.00
0.78262	58.00
0.79928	58.00
0.81595	58.00
0.83262	58.00
0.84928	58.00
0.86595	58.00
0.88262	58.00
0.89928	58.00
0.91595	58.00
0.93262	58.00
0.94928	58.00
0.96595	58.00
0.98262	58.00
0.99928	58.00
1.01595	58.00
1.03262	58.00
1.04928	58.00
1.06595	58.00
1.08262	58.00
1.09928	58.00
1.11595	58.00
1.13262	58.00
1.14928	58.00
1.16595	58.00
1.18262	58.00
1.19928	58.00
1.21595	58.00
1.23262	58.00
1.24928	58.00
1.26595	58.00
1.28262	58.00
1.29928	58.00
1.31595	58.00
1.33262	58.00
1.34928	58.00
1.36595	58.00
1.38262	58.00
1.39928	58.00
1.41595	58.00
1.43262	58.00
1.44928	58.00
1.46595	58.00
1.48262	58.00
1.49928	58.00
1.51595	58.00
1.53262	58.00
1.54928	58.00
1.56595	58.00
1.58262	58.00
1.59928	58.00
1.61595	58.00
1.63262	58.00
1.64928	58.00
1.66595	58.01
1.68262	58.01
1.69928	58.00
1.71595	58.00
1.73262	58.00
1.74928	58.00
1.76595	58.00
1.78262	58.00
1.79928	58.00
1.81595	58.00
1.83262	58.00
1.84928	58.00
1.86595	58.00
1.88262	58.00
1.89928	58.00
1.91595	58.00
1.93262	58.00
1.94928	58.00
1.96595	58.00
1.98262	58.00
1.99928	58.00
2.01595	58.00
2.03262	58.00
2.04928	58.00
2.06595	58.00
2.08262	58.00
2.09928	58.00
2.11595	58.00
2.13262	58.00
2.14928	58.00
2.16595	58.00
2.18262	58.00
2.19928	58.00
2.21595	58.00
2.23262	58.00
2.24928	58.00
2.26595	58.00
2.28262	58.00
2.29928	58.00
2.31595	58.00
2.33262	58.00
2.34928	58.00
2.36595	58.00
2.38262	57.99
2.39928	57.99
2.41595	58.00
2.43262	58.00
2.44928	58.00
2.46595	58.00
2.48262	58.00
2.49928	58.00
2.51595	57.99
2.53262	57.99
2.54928	58.00
2.56595	58.00
2.58262	58.00
2.59928	58.00
2.61595	58.00
2.63262	58.00
2.64928	58.00
2.66595	58.00
2.68262	58.00
2.69928	58.00
2.71595	58.00
2.73262	58.00
2.74928	58.00
2.76595	58.00
2.78262	58.00
2.79928	58.00
2.81595	58.00
2.83262	58.00
2.84928	58.00
2.86595	58.00
2.88262	58.00
2.89928	58.00
2.91595	58.00
2.93262	58.00
2.94928	58.00
2.96595	58.00
2.98262	58.00
2.99928	58.00
3.01595	58.00
3.03262	58.00
3.04928	58.00
3.06595	58.00
3.08262	58.00
3.09928	58.00
3.11595	58.00
3.13262	58.00
3.14928	58.00
3.16595	58.00
3.18262	58.00
3.19928	58.00
3.21595	58.00
3.23262	58.00
3.24928	58.00
3.26595	58.00
3.28262	58.00
3.29928	58.00
3.31595	58.00
3.33262	58.00
3.34928	58.00
3.36595	58.00
3.38262	58.00
3.39928	58.00
3.41595	58.00
3.43262	58.00
3.44928	58.00
3.46595	58.00
3.48262	58.00
3.49928	58.00
3.51595	58.00
3.53262	58.00
3.54928	58.00
3.56595	58.00
3.58262	58.00
3.59928	58.00
3.61595	58.00
3.63262	58.00
3.64928	58.00
3.66595	58.00
3.68262	58.00
3.69928	58.00
3.71595	58.00
3.73262	58.00
3.74928	58.00
3.76595	58.00
3.78262	58.00
3.79928	58.00
3.81595	58.00
3.83262	58.00
3.84928	58.00
3.86595	58.00
3.88262	58.00
3.89928	58.00
3.91595	58.00
3.93262	58.00
3.94928	58.00
3.96595	58.00
3.98262	58.00
3.99928	58.00

[Status Trace (Carrier Gas Flow)]
Interval(msec)	1000
# of Points	240
Start Time(min)	0.016
End Time(min)	3.999
Intensity Units	
Intensity Multiplier	1
R.Time (min)	Intensity
0.01595	33.74
0.03262	34.54
0.04928	34.55
0.06595	34.50
0.08262	34.52
0.09928	34.52
0.11595	34.52
0.13262	34.52
0.14928	34.52
0.16595	34.52
0.18262	34.52
0.19928	34.52
0.21595	34.51
0.23262	34.52
0.24928	34.52
0.26595	34.52
0.28262	34.52
0.29928	34.52
0.31595	34.52
0.33262	34.53
0.34928	34.52
0.36595	34.51
0.38262	34.52
0.39928	34.52
0.41595	34.51
0.43262	34.52
0.44928	34.52
0.46595	34.52
0.48262	34.51
0.49928	34.52
0.51595	34.52
0.53262	34.52
0.54928	34.52
0.56595	34.52
0.58262	34.52
0.59928	34.52
0.61595	34.51
0.63262	34.52
0.64928	34.52
0.66595	34.51
0.68262	34.52
0.69928	34.51
0.71595	34.51
0.73262	34.52
0.74928	34.52
0.76595	34.52
0.78262	34.52
0.79928	34.53
0.81595	34.52
0.83262	34.52
0.84928	34.52
0.86595	34.52
0.88262	34.52
0.89928	34.52
0.91595	34.52
0.93262	34.52
0.94928	34.52
0.96595	34.52
0.98262	34.52
0.99928	34.52
1.01595	34.52
1.03262	34.52
1.04928	34.52
1.06595	34.52
1.08262	34.52
1.09928	34.51
1.11595	34.52
1.13262	34.52
1.14928	34.52
1.16595	34.51
1.18262	34.52
1.19928	34.52
1.21595	34.52
1.23262	34.51
1.24928	34.51
1.26595	34.52
1.28262	34.52
1.29928	34.52
1.31595	34.52
1.33262	34.52
1.34928	34.52
1.36595	34.52
1.38262	34.51
1.39928	34.52
1.41595	34.52
1.43262	34.51
1.44928	34.52
1.46595	34.52
1.48262	34.52
1.49928	34.52
1.51595	34.52
1.53262	34.51
1.54928	34.52
1.56595	34.52
1.58262	34.52
1.59928	34.52
1.61595	34.52
1.63262	34.53
1.64928	34.52
1.66595	34.51
1.68262	34.52
1.69928	34.52
1.71595	34.51
1.73262	34.51
1.74928	34.52
1.76595	34.52
1.78262	34.51
1.79928	34.52
1.81595	34.52
1.83262	34.52
1.84928	34.52
1.86595	34.52
1.88262	34.52
1.89928	34.52
1.91595	34.52
1.93262	34.51
1.94928	34.52
1.96595	34.52
1.98262	34.52
1.99928	34.52
2.01595	34.52
2.03262	34.52
2.04928	34.52
2.06595	34.52
2.08262	34.51
2.09928	34.52
2.11595	34.51
2.13262	34.52
2.14928	34.52
2.16595	34.52
2.18262	34.53
2.19928	34.52
2.21595	34.52
2.23262	34.52
2.24928	34.52
2.26595	34.51
2.28262	34.51
2.29928	34.51
2.31595	34.52
2.33262	34.51
2.34928	34.51
2.36595	34.52
2.38262	34.51
2.39928	34.52
2.41595	34.52
2.43262	34.52
2.44928	34.52
2.46595	34.51
2.48262	34.52
2.49928	34.52
2.51595	34.52
2.53262	34.51
2.54928	34.52
2.56595	34.52
2.58262	34.52
2.59928	34.52
2.61595	34.53
2.63262	34.51
2.64928	34.51
2.66595	34.52
2.68262	34.53
2.69928	34.52
2.71595	34.52
2.73262	34.52
2.74928	34.52
2.76595	34.51
2.78262	34.51
2.79928	34.52
2.81595	34.52
2.83262	34.52
2.84928	34.51
2.86595	34.51
2.88262	34.52
2.89928	34.52
2.91595	34.51
2.93262	34.52
2.94928	34.52
2.96595	34.52
2.98262	34.51
2.99928	34.52
3.01595	34.52
3.03262	34.52
3.04928	34.52
3.06595	34.52
3.08262	34.52
3.09928	34.52
3.11595	34.52
3.13262	34.52
3.14928	34.52
3.16595	34.53
3.18262	34.52
3.19928	34.51
3.21595	34.51
3.23262	34.51
3.24928	34.52
3.26595	34.52
3.28262	34.52
3.29928	34.52
3.31595	34.53
3.33262	34.52
3.34928	34.52
3.36595	34.51
3.38262	34.51
3.39928	34.52
3.41595	34.52
3.43262	34.51
3.44928	34.52
3.46595	34.52
3.48262	34.52
3.49928	34.52
3.51595	34.52
3.53262	34.52
3.54928	34.52
3.56595	34.52
3.58262	34.52
3.59928	34.52
3.61595	34.52
3.63262	34.52
3.64928	34.52
3.66595	34.52
3.68262	34.52
3.69928	34.52
3.71595	34.52
3.73262	34.52
3.74928	34.52
3.76595	34.52
3.78262	34.51
3.79928	34.52
3.81595	34.51
3.83262	34.52
3.84928	34.52
3.86595	34.53
3.88262	34.52
3.89928	34.52
3.91595	34.52
3.93262	34.52
3.94928	34.52
3.96595	34.52
3.98262	34.52
3.99928	34.52

[Status Trace (Column Flow)]
Interval(msec)	1000
# of Points	240
Start Time(min)	0.016
End Time(min)	3.999
Intensity Units	
Intensity Multiplier	1
R.Time (min)	Intensity
0.01595	5.44
0.03262	5.33
0.04928	5.59
0.06595	5.79
0.08262	5.63
0.09928	5.57
0.11595	5.57
0.13262	5.57
0.14928	5.57
0.16595	5.57
0.18262	5.57
0.19928	5.57
0.21595	5.57
0.23262	5.57
0.24928	5.57
0.26595	5.57
0.28262	5.57
0.29928	5.57
0.31595	5.57
0.33262	5.57
0.34928	5.57
0.36595	5.57
0.38262	5.57
0.39928	5.57
0.41595	5.57
0.43262	5.57
0.44928	5.57
0.46595	5.57
0.48262	5.57
0.49928	5.57
0.51595	5.57
0.53262	5.57
0.54928	5.57
0.56595	5.57
0.58262	5.57
0.59928	5.57
0.61595	5.57
0.63262	5.57
0.64928	5.57
0.66595	5.57
0.68262	5.57
0.69928	5.57
0.71595	5.57
0.73262	5.57
0.74928	5.57
0.76595	5.57
0.78262	5.57
0.79928	5.57
0.81595	5.57
0.83262	5.57
0.84928	5.57
0.86595	5.57
0.88262	5.57
0.89928	5.57
0.91595	5.57
0.93262	5.57
0.94928	5.57
0.96595	5.57
0.98262	5.57
0.99928	5.57
1.01595	5.57
1.03262	5.57
1.04928	5.57
1.06595	5.57
1.08262	5.57
1.09928	5.57
1.11595	5.57
1.13262	5.57
1.14928	5.57
1.16595	5.57
1.18262	5.57
1.19928	5.57
1.21595	5.57
1.23262	5.57
1.24928	5.57
1.26595	5.57
1.28262	5.57
1.29928	5.57
1.31595	5.57
1.33262	5.57
1.34928	5.57
1.36595	5.57
1.38262	5.57
1.39928	5.57
1.41595	5.57
1.43262	5.57
1.44928	5.57
1.46595	5.57
1.48262	5.57
1.49928	5.57
1.51595	5.57
1.53262	5.57
1.54928	5.57
1.56595	5.57
1.58262	5.57
1.59928	5.57
1.61595	5.57
1.63262	5.56
1.64928	5.56
1.66595	5.55
1.68262	5.54
1.69928	5.53
1.71595	5.51
1.73262	5.50
1.74928	5.49
1.76595	5.48
1.78262	5.47
1.79928	5.46
1.81595	5.45
1.83262	5.44
1.84928	5.43
1.86595	5.42
1.88262	5.41
1.89928	5.40
1.91595	5.39
1.93262	5.38
1.94928	5.37
1.96595	5.36
1.98262	5.35
1.99928	5.34
2.01595	5.33
2.03262	5.32
2.04928	5.31
2.06595	5.30
2.08262	5.29
2.09928	5.28
2.11595	5.27
2.13262	5.27
2.14928	5.26
2.16595	5.25
2.18262	5.24
2.19928	5.23
2.21595	5.22
2.23262	5.21
2.24928	5.20
2.26595	5.19
2.28262	5.18
2.29928	5.17
2.31595	5.16
2.33262	5.15
2.34928	5.14
2.36595	5.14
2.38262	5.13
2.39928	5.13
2.41595	5.13
2.43262	5.13
2.44928	5.13
2.46595	5.13
2.48262	5.13
2.49928	5.13
2.51595	5.13
2.53262	5.13
2.54928	5.13
2.56595	5.13
2.58262	5.13
2.59928	5.13
2.61595	5.13
2.63262	5.13
2.64928	5.13
2.66595	5.13
2.68262	5.13
2.69928	5.13
2.71595	5.13
2.73262	5.13
2.74928	5.13
2.76595	5.13
2.78262	5.13
2.79928	5.13
2.81595	5.13
2.83262	5.13
2.84928	5.13
2.86595	5.13
2.88262	5.13
2.89928	5.13
2.91595	5.13
2.93262	5.13
2.94928	5.13
2.96595	5.13
2.98262	5.13
2.99928	5.12
3.01595	5.12
3.03262	5.12
3.04928	5.12
3.06595	5.12
3.08262	5.12
3.09928	5.12
3.11595	5.12
3.13262	5.12
3.14928	5.12
3.16595	5.12
3.18262	5.12
3.19928	5.12
3.21595	5.12
3.23262	5.12
3.24928	5.12
3.26595	5.12
3.28262	5.12
3.29928	5.12
3.31595	5.12
3.33262	5.12
3.34928	5.12
3.36595	5.12
3.38262	5.12
3.39928	5.12
3.41595	5.12
3.43262	5.12
3.44928	5.12
3.46595	5.12
3.48262	5.12
3.49928	5.12
3.51595	5.12
3.53262	5.12
3.54928	5.12
3.56595	5.12
3.58262	5.12
3.59928	5.12
3.61595	5.12
3.63262	5.12
3.64928	5.12
3.66595	5.12
3.68262	5.12
3.69928	5.12
3.71595	5.12
3.73262	5.12
3.74928	5.12
3.76595	5.12
3.78262	5.12
3.79928	5.12
3.81595	5.12
3.83262	5.12
3.84928	5.12
3.86595	5.12
3.88262	5.12
3.89928	5.12
3.91595	5.12
3.93262	5.12
3.94928	5.12
3.96595	5.12
3.98262	5.12
3.99928	5.12

[Status Trace (Linear Velocity)]
Interval(msec)	1000
# of Points	240
Start Time(min)	0.016
End Time(min)	3.999
Intensity Units	
Intensity Multiplier	1
R.Time (min)	Intensity
0.01595	38.32
0.03262	37.65
0.04928	39.13
0.06595	40.26
0.08262	39.33
0.09928	39.00
0.11595	39.02
0.13262	39.03
0.14928	39.03
0.16595	39.02
0.18262	39.03
0.19928	39.03
0.21595	39.03
0.23262	39.03
0.24928	39.03
0.26595	39.03
0.28262	39.03
0.29928	39.03
0.31595	39.03
0.33262	39.03
0.34928	39.03
0.36595	39.03
0.38262	39.03
0.39928	39.03
0.41595	39.03
0.43262	39.03
0.44928	39.03
0.46595	39.03
0.48262	39.03
0.49928	39.03
0.51595	39.03
0.53262	39.03
0.54928	39.03
0.56595	39.03
0.58262	39.03
0.59928	39.03
0.61595	39.03
0.63262	39.03
0.64928	39.03
0.66595	39.02
0.68262	39.03
0.69928	39.03
0.71595	39.03
0.73262	39.03
0.74928	39.03
0.76595	39.03
0.78262	39.03
0.79928	39.03
0.81595	39.03
0.83262	39.03
0.84928	39.03
0.86595	39.03
0.88262	39.03
0.89928	39.03
0.91595	39.03
0.93262	39.03
0.94928	39.03
0.96595	39.03
0.98262	39.03
0.99928	39.03
1.01595	39.03
1.03262	39.03
1.04928	39.03
1.06595	39.03
1.08262	39.03
1.09928	39.03
1.11595	39.03
1.13262	39.03
1.14928	39.03
1.16595	39.03
1.18262	39.03
1.19928	39.03
1.21595	39.03
1.23262	39.03
1.24928	39.03
1.26595	39.03
1.28262	39.03
1.29928	39.03
1.31595	39.03
1.33262	39.03
1.34928	39.03
1.36595	39.03
1.38262	39.03
1.39928	39.03
1.41595	39.03
1.43262	39.03
1.44928	39.03
1.46595	39.03
1.48262	39.03
1.49928	39.03
1.51595	39.03
1.53262	39.03
1.54928	39.03
1.56595	39.03
1.58262	39.03
1.59928	39.03
1.61595	39.02
1.63262	39.01
1.64928	38.99
1.66595	38.96
1.68262	38.92
1.69928	38.89
1.71595	38.85
1.73262	38.82
1.74928	38.79
1.76595	38.76
1.78262	38.73
1.79928	38.70
1.81595	38.66
1.83262	38.63
1.84928	38.60
1.86595	38.57
1.88262	38.54
1.89928	38.51
1.91595	38.48
1.93262	38.45
1.94928	38.42
1.96595	38.39
1.98262	38.36
1.99928	38.33
2.01595	38.29
2.03262	38.27
2.04928	38.24
2.06595	38.21
2.08262	38.18
2.09928	38.15
2.11595	38.12
2.13262	38.09
2.14928	38.06
2.16595	38.03
2.18262	38.00
2.19928	37.97
2.21595	37.94
2.23262	37.91
2.24928	37.88
2.26595	37.85
2.28262	37.82
2.29928	37.80
2.31595	37.76
2.33262	37.73
2.34928	37.71
2.36595	37.68
2.38262	37.67
2.39928	37.67
2.41595	37.67
2.43262	37.67
2.44928	37.67
2.46595	37.67
2.48262	37.67
2.49928	37.67
2.51595	37.66
2.53262	37.66
2.54928	37.67
2.56595	37.67
2.58262	37.67
2.59928	37.66
2.61595	37.66
2.63262	37.66
2.64928	37.66
2.66595	37.66
2.68262	37.66
2.69928	37.66
2.71595	37.66
2.73262	37.66
2.74928	37.66
2.76595	37.66
2.78262	37.66
2.79928	37.66
2.81595	37.66
2.83262	37.66
2.84928	37.66
2.86595	37.66
2.88262	37.66
2.89928	37.66
2.91595	37.65
2.93262	37.65
2.94928	37.65
2.96595	37.65
2.98262	37.65
2.99928	37.64
3.01595	37.64
3.03262	37.64
3.04928	37.64
3.06595	37.64
3.08262	37.64
3.09928	37.64
3.11595	37.64
3.13262	37.64
3.14928	37.64
3.16595	37.64
3.18262	37.64
3.19928	37.64
3.21595	37.64
3.23262	37.64
3.24928	37.64
3.26595	37.64
3.28262	37.64
3.29928	37.64
3.31595	37.64
3.33262	37.64
3.34928	37.64
3.36595	37.64
3.38262	37.63
3.39928	37.63
3.41595	37.63
3.43262	37.63
3.44928	37.63
3.46595	37.64
3.48262	37.64
3.49928	37.64
3.51595	37.64
3.53262	37.64
3.54928	37.64
3.56595	37.64
3.58262	37.64
3.59928	37.64
3.61595	37.64
3.63262	37.64
3.64928	37.64
3.66595	37.64
3.68262	37.64
3.69928	37.64
3.71595	37.64
3.73262	37.64
3.74928	37.64
3.76595	37.64
3.78262	37.64
3.79928	37.64
3.81595	37.64
3.83262	37.64
3.84928	37.64
3.86595	37.64
3.88262	37.64
3.89928	37.64
3.91595	37.64
3.93262	37.64
3.94928	37.64
3.96595	37.64
3.98262	37.64
3.99928	37.64

