[Header]
Application Name	LabSolutions
Version	5.110
Data File Name	C:\Users\User\Desktop\GC Analyses\Jack\Nachusa Grasslands Sampling\T1 Timepoint July 12th\T1_07122022_089.gcd
Output Date	3/14/2023
Output Time	3:41:02 PM

[File Information]
Type	Data File
Generated	3/8/2023 11:11:54 PM
Generated by	System Administrator
Modified	3/8/2023 11:18:27 PM
Modified by	System Administrator

[Sample Information]
Operator Name	System Administrator
Acquired	3/8/2023 11:14:27 PM
Sample Type	0:Unknown
Level	0
Sample Name	089
Sample ID	089
ISTD Amount1	1
ISTD Amount2	1
ISTD Amount3	1
ISTD Amount4	1
ISTD Amount5	1
ISTD Amount6	1
ISTD Amount7	1
ISTD Amount8	1
ISTD Amount9	1
ISTD Amount10	1
ISTD Amount11	1
ISTD Amount12	1
ISTD Amount13	1
ISTD Amount14	1
ISTD Amount15	1
ISTD Amount16	1
ISTD Amount17	1
ISTD Amount18	1
ISTD Amount19	1
ISTD Amount20	1
ISTD Amount21	1
ISTD Amount22	1
ISTD Amount23	1
ISTD Amount24	1
ISTD Amount25	1
ISTD Amount26	1
ISTD Amount27	1
ISTD Amount28	1
ISTD Amount29	1
ISTD Amount30	1
ISTD Amount31	1
ISTD Amount32	1
Sample Amount	1
Dilution Factor	1
Vial#	88
Injection Volume	1
Injection Count	1
Bar Code	

[Original Files]
Data File	C:\Users\User\Desktop\GC Analyses\Jack\Nachusa Grasslands Sampling\T1 Timepoint July 12th\T1_07122022_089.gcd
Method File	C:\LabSolutions\Data\GHG_4min_2022\ghg3_togas_w_acet_4 min_new_int.gcm
Batch File	C:\LabSolutions\Data\AutoSamplerTesting\T1_07122022.gcb
Report Format File	c:\LabSolutions\System\DEFAULT.lsr

[File Description]


[Configuration]
Instrument Name	C0B7VH3-Instrument1
Instrument #	1
Line #	1
# of Detectors	3
Detector ID	DET#1	DET#2	DET#3
Detector Name	FID	PTCD	ECD
# of Channels	1	1	1

[Peak Table(Ch1)]
# of Peaks	3
Peak#	R.Time	I.Time	F.Time	Area	Height	A/H	Conc.	Mark	ID#	Name	k'	Plate #	Plate Ht.	Tailing	Resolution	Sep.Factor	Area Ratio	Height Ratio	Conc. %	Norm Conc.
1	1.483	1.435	1.531	2651	732	3.622	18.714	   	1	CO	0.000	4101	36.578	0.000	0.000	0.000	0	0	1.981	1.981
2	1.567	1.531	1.655	20654	10245	2.016	399.370	 V 	2	CH4	0.057	11209	13.382	1.262	1.111	0.000	0	0	42.279	42.279
3	1.996	1.952	2.634	2097881	986391	2.127	526.511	   	3	CO2	0.346	17099	8.772	1.299	7.133	6.087	0	0	55.739	55.739

[Peak Table(Ch2)]
# of Peaks	0

[Peak Table(Ch3)]
# of Peaks	7
Peak#	R.Time	I.Time	F.Time	Area	Height	A/H	Conc.	Mark	ID#	Name	k'	Plate #	Plate Ht.	Tailing	Resolution	Sep.Factor	Area Ratio	Height Ratio	Conc. %	Norm Conc.
1	2.458	2.268	2.517	2273	587	3.872	0.000	   			0.000	10430	14.381	0.000	0.000	0.000	0	0	0.000	0.000
2	2.539	2.517	2.627	951	258	3.687	0.000	 V 			0.033	6842	21.924	0.000	0.736	0.000	0	0	0.000	0.000
3	2.667	2.642	2.711	127	50	2.524	0.000	   			0.085	25133	5.968	1.344	1.350	2.591	0	0	0.000	0.000
4	2.873	2.803	3.137	60735	15448	3.932	1.551	S  	1	N2O	0.169	12596	11.909	1.670	2.420	1.982	0	0	100.000	100.000
5	3.126	3.111	3.137	58	68	0.854	0.000	T  	2	SF6	0.271	236975	0.633	0.877	3.951	1.611	0	0	0.000	0.000
6	3.217	3.144	3.327	5156	564	9.139	0.000	   	2	SF6	0.309	293	511.422	0.000	0.236	1.137	0	0	0.000	0.000
7	3.364	3.327	3.767	7065	513	13.774	0.000	 V 	2	SF6	0.368	25	5920.597	0.000	0.086	1.193	0	0	0.000	0.000

[Compound Results(Ch1)]
# of IDs	6
ID#	Name	R.Time	Area	Height	Conc.	Curve	3rd	2nd	1st	Constant	Area Ratio	Height Ratio	Conc. %	Norm Conc.
1	CO	1.483	2651	732	18.714	Linear	0.000000e+00	0.000000e+00	1.416423e+002	0.000000e+00	0	0	1.981	1.981
2	CH4	1.567	20654	10245	399.370	Linear	0.000000e+00	0.000000e+00	5.171738e+001	0.000000e+00	0	0	42.279	42.279
3	CO2	1.996	2097881	986391	526.511	Linear	0.000000e+00	0.000000e+00	3.984494e+003	0.000000e+00	0	0	55.739	55.739
4	Ethylene	0.000	0	0	0.000	Linear	0.000000e+00	0.000000e+00	0.000000e+00	0.000000e+00	0	0	0.000	0.000
5	Acetylene	0.000	0	0	0.000	Linear	0.000000e+00	0.000000e+00	0.000000e+00	0.000000e+00	0	0	0.000	0.000
6	Ethane	0.000	0	0	0.000	Linear	0.000000e+00	0.000000e+00	0.000000e+00	0.000000e+00	0	0	0.000	0.000

[Compound Results(Ch2)]
# of IDs	5
ID#	Name	R.Time	Area	Height	Conc.	Curve	3rd	2nd	1st	Constant	Area Ratio	Height Ratio	Conc. %	Norm Conc.
1	Hydrogen	0.000	0	0	0.000	Linear	0.000000e+00	0.000000e+00	0.000000e+00	0.000000e+00	0	0	0.000	0.000
2	Oxygen	0.000	0	0	0.000	Linear	0.000000e+00	0.000000e+00	0.000000e+00	0.000000e+00	0	0	0.000	0.000
3	Nitrogen	0.000	0	0	0.000	Linear	0.000000e+00	0.000000e+00	0.000000e+00	0.000000e+00	0	0	0.000	0.000
4	Methane	0.000	0	0	0.000	Linear	0.000000e+00	0.000000e+00	0.000000e+00	0.000000e+00	0	0	0.000	0.000
5	Carbon Monoxide	0.000	0	0	0.000	Linear	0.000000e+00	0.000000e+00	0.000000e+00	0.000000e+00	0	0	0.000	0.000

[Compound Results(Ch3)]
# of IDs	2
ID#	Name	R.Time	Area	Height	Conc.	Curve	3rd	2nd	1st	Constant	Area Ratio	Height Ratio	Conc. %	Norm Conc.
1	N2O	2.873	60735	15448	1.551	Linear	0.000000e+00	0.000000e+00	3.915173e+004	0.000000e+00	0	0	100.000	100.000
2	SF6	3.217	12278	1145	0.000	Linear	0.000000e+00	0.000000e+00	0.000000e+00	0.000000e+00	0	0	0.000	0.000

[Group Results(Ch1)]
# of Groups	0

[Group Results(Ch2)]
# of Groups	0

[Group Results(Ch3)]
# of Groups	0

[Chromatogram (Ch1)]
Interval(msec)	220
# of Points	1091
Start Time(min)	0.002
End Time(min)	3.998
R.Time (min)	Intensity
0.00167	19
0.00533	23
0.00900	23
0.01267	21
0.01633	19
0.02000	15
0.02367	10
0.02733	6
0.03100	6
0.03467	9
0.03833	16
0.04200	22
0.04567	27
0.04933	28
0.05300	23
0.05667	15
0.06033	10
0.06400	8
0.06767	8
0.07133	9
0.07500	10
0.07867	9
0.08233	9
0.08600	9
0.08967	13
0.09333	18
0.09700	20
0.10067	18
0.10433	19
0.10800	20
0.11167	20
0.11533	17
0.11900	12
0.12267	4
0.12633	-2
0.13000	-2
0.13367	1
0.13733	8
0.14100	16
0.14467	18
0.14833	14
0.15200	10
0.15567	5
0.15933	-1
0.16300	-3
0.16667	-1
0.17033	2
0.17400	6
0.17767	9
0.18133	12
0.18500	17
0.18867	23
0.19233	24
0.19600	17
0.19967	11
0.20333	12
0.20700	20
0.21067	26
0.21433	28
0.21800	24
0.22167	15
0.22533	8
0.22900	4
0.23267	1
0.23633	-0
0.24000	-0
0.24367	3
0.24733	10
0.25100	20
0.25467	28
0.25833	33
0.26200	34
0.26567	28
0.26933	18
0.27300	13
0.27667	11
0.28033	11
0.28400	9
0.28767	7
0.29133	10
0.29500	22
0.29867	34
0.30233	41
0.30600	47
0.30967	51
0.31333	51
0.31700	52
0.32067	57
0.32433	62
0.32800	62
0.33167	61
0.33533	57
0.33900	52
0.34267	48
0.34633	47
0.35000	50
0.35367	57
0.35733	66
0.36100	78
0.36467	91
0.36833	103
0.37200	115
0.37567	123
0.37933	123
0.38300	118
0.38667	114
0.39033	109
0.39400	101
0.39767	94
0.40133	89
0.40500	85
0.40867	81
0.41233	81
0.41600	82
0.41967	74
0.42333	65
0.42700	60
0.43067	60
0.43433	65
0.43800	71
0.44167	76
0.44533	76
0.44900	70
0.45267	59
0.45633	47
0.46000	36
0.46367	27
0.46733	25
0.47100	23
0.47467	18
0.47833	15
0.48200	16
0.48567	18
0.48933	20
0.49300	22
0.49667	25
0.50033	25
0.50400	26
0.50767	25
0.51133	24
0.51500	23
0.51867	22
0.52233	24
0.52600	31
0.52967	39
0.53333	41
0.53700	37
0.54067	31
0.54433	24
0.54800	14
0.55167	5
0.55533	-1
0.55900	-1
0.56267	-2
0.56633	-4
0.57000	-9
0.57367	-15
0.57733	-19
0.58100	-22
0.58467	-20
0.58833	-14
0.59200	-10
0.59567	-11
0.59933	-12
0.60300	-12
0.60667	-5
0.61033	9
0.61400	20
0.61767	23
0.62133	21
0.62500	15
0.62867	7
0.63233	-0
0.63600	-4
0.63967	-10
0.64333	-19
0.64700	-27
0.65067	-28
0.65433	-21
0.65800	-11
0.66167	-7
0.66533	-10
0.66900	-10
0.67267	-7
0.67633	-6
0.68000	-6
0.68367	-7
0.68733	-11
0.69100	-16
0.69467	-17
0.69833	-15
0.70200	-10
0.70567	-5
0.70933	1
0.71300	8
0.71667	11
0.72033	12
0.72400	14
0.72767	15
0.73133	11
0.73500	6
0.73867	-1
0.74233	-6
0.74600	-8
0.74967	-9
0.75333	-8
0.75700	-5
0.76067	-2
0.76433	-1
0.76800	-5
0.77167	-13
0.77533	-18
0.77900	-25
0.78267	-31
0.78633	-32
0.79000	-32
0.79367	-30
0.79733	-28
0.80100	-27
0.80467	-25
0.80833	-23
0.81200	-19
0.81567	-15
0.81933	-12
0.82300	-12
0.82667	-13
0.83033	-11
0.83400	-9
0.83767	-11
0.84133	-12
0.84500	-10
0.84867	-7
0.85233	-1
0.85600	6
0.85967	9
0.86333	6
0.86700	-5
0.87067	-17
0.87433	-25
0.87800	-29
0.88167	-31
0.88533	-28
0.88900	-20
0.89267	-14
0.89633	-12
0.90000	-15
0.90367	-18
0.90733	-23
0.91100	-26
0.91467	-27
0.91833	-28
0.92200	-33
0.92567	-37
0.92933	-38
0.93300	-33
0.93667	-25
0.94033	-19
0.94400	-16
0.94767	-13
0.95133	-10
0.95500	-8
0.95867	-4
0.96233	-1
0.96600	1
0.96967	-2
0.97333	-9
0.97700	-13
0.98067	-13
0.98433	-6
0.98800	1
0.99167	5
0.99533	7
0.99900	7
1.00267	5
1.00633	2
1.01000	-1
1.01367	-7
1.01733	-13
1.02100	-17
1.02467	-22
1.02833	-24
1.03200	-22
1.03567	-15
1.03933	-6
1.04300	1
1.04667	9
1.05033	15
1.05400	18
1.05767	20
1.06133	18
1.06500	12
1.06867	11
1.07233	9
1.07600	5
1.07967	-3
1.08333	-6
1.08700	-4
1.09067	-3
1.09433	-6
1.09800	-10
1.10167	-15
1.10533	-17
1.10900	-15
1.11267	-10
1.11633	-3
1.12000	4
1.12367	14
1.12733	21
1.13100	27
1.13467	31
1.13833	31
1.14200	31
1.14567	31
1.14933	27
1.15300	19
1.15667	11
1.16033	4
1.16400	-0
1.16767	0
1.17133	2
1.17500	7
1.17867	11
1.18233	13
1.18600	13
1.18967	10
1.19333	7
1.19700	12
1.20067	21
1.20433	28
1.20800	32
1.21167	33
1.21533	30
1.21900	27
1.22267	22
1.22633	17
1.23000	10
1.23367	8
1.23733	10
1.24100	11
1.24467	12
1.24833	15
1.25200	15
1.25567	13
1.25933	5
1.26300	-3
1.26667	-8
1.27033	-10
1.27400	-11
1.27767	-10
1.28133	-9
1.28500	-8
1.28867	-7
1.29233	-7
1.29600	-5
1.29967	-1
1.30333	1
1.30700	-1
1.31067	-3
1.31433	-1
1.31800	6
1.32167	12
1.32533	16
1.32900	17
1.33267	11
1.33633	5
1.34000	0
1.34367	-6
1.34733	-8
1.35100	-7
1.35467	-6
1.35833	-4
1.36200	1
1.36567	9
1.36933	9
1.37300	1
1.37667	-5
1.38033	-8
1.38400	-10
1.38767	-11
1.39133	-13
1.39500	-14
1.39867	-13
1.40233	-13
1.40600	-20
1.40967	-31
1.41333	-40
1.41700	-43
1.42067	-43
1.42433	-40
1.42800	-36
1.43167	-33
1.43533	-27
1.43900	5
1.44267	104
1.44633	277
1.45000	450
1.45367	569
1.45733	635
1.46100	658
1.46467	653
1.46833	640
1.47200	637
1.47567	654
1.47933	686
1.48300	710
1.48667	705
1.49033	669
1.49400	611
1.49767	541
1.50133	468
1.50500	400
1.50867	338
1.51233	283
1.51600	236
1.51967	197
1.52333	164
1.52700	141
1.53067	129
1.53433	134
1.53800	203
1.54167	520
1.54533	1379
1.54900	2910
1.55267	4865
1.55633	6814
1.56000	8445
1.56367	9618
1.56733	10233
1.57100	10155
1.57467	9317
1.57833	7886
1.58200	6202
1.58567	4598
1.58933	3260
1.59300	2240
1.59667	1510
1.60033	1010
1.60400	676
1.60767	456
1.61133	310
1.61500	212
1.61867	149
1.62233	110
1.62600	86
1.62967	67
1.63333	50
1.63700	35
1.64067	22
1.64433	14
1.64800	7
1.65167	0
1.65533	-3
1.65900	-2
1.66267	-1
1.66633	-8
1.67000	-13
1.67367	-14
1.67733	-12
1.68100	-8
1.68467	-4
1.68833	-0
1.69200	-2
1.69567	-5
1.69933	-9
1.70300	-12
1.70667	-13
1.71033	-11
1.71400	-7
1.71767	-1
1.72133	6
1.72500	11
1.72867	9
1.73233	4
1.73600	-2
1.73967	-8
1.74333	-18
1.74700	-28
1.75067	-32
1.75433	-27
1.75800	-16
1.76167	-7
1.76533	-1
1.76900	2
1.77267	2
1.77633	-2
1.78000	-6
1.78367	-9
1.78733	-12
1.79100	-15
1.79467	-18
1.79833	-18
1.80200	-18
1.80567	-18
1.80933	-13
1.81300	-4
1.81667	7
1.82033	16
1.82400	23
1.82767	23
1.83133	21
1.83500	20
1.83867	21
1.84233	19
1.84600	13
1.84967	3
1.85333	-7
1.85700	-15
1.86067	-21
1.86433	-27
1.86800	-31
1.87167	-28
1.87533	-22
1.87900	-19
1.88267	-14
1.88633	-6
1.89000	0
1.89367	2
1.89733	-2
1.90100	-5
1.90467	-4
1.90833	1
1.91200	8
1.91567	15
1.91933	17
1.92300	17
1.92667	19
1.93033	22
1.93400	22
1.93767	19
1.94133	15
1.94500	11
1.94867	9
1.95233	28
1.95600	196
1.95967	1207
1.96333	5830
1.96700	21820
1.97067	64142
1.97433	150824
1.97800	289811
1.98167	467698
1.98533	654701
1.98900	818583
1.99267	934254
1.99633	986443
2.00000	969736
2.00367	890459
2.00733	766262
2.01100	621303
2.01467	478609
2.01833	353927
2.02200	254110
2.02567	179145
2.02933	125327
2.03300	87850
2.03667	62245
2.04033	44914
2.04400	33211
2.04767	25273
2.05133	19826
2.05500	16031
2.05867	13322
2.06233	11335
2.06600	9840
2.06967	8689
2.07333	7780
2.07700	7050
2.08067	6454
2.08433	5957
2.08800	5530
2.09167	5153
2.09533	4826
2.09900	4541
2.10267	4293
2.10633	4070
2.11000	3863
2.11367	3672
2.11733	3502
2.12100	3350
2.12467	3209
2.12833	3073
2.13200	2946
2.13567	2828
2.13933	2720
2.14300	2619
2.14667	2531
2.15033	2449
2.15400	2367
2.15767	2284
2.16133	2207
2.16500	2138
2.16867	2079
2.17233	2024
2.17600	1968
2.17967	1913
2.18333	1859
2.18700	1808
2.19067	1761
2.19433	1711
2.19800	1658
2.20167	1611
2.20533	1571
2.20900	1537
2.21267	1504
2.21633	1471
2.22000	1439
2.22367	1406
2.22733	1373
2.23100	1342
2.23467	1310
2.23833	1283
2.24200	1256
2.24567	1231
2.24933	1212
2.25300	1196
2.25667	1179
2.26033	1165
2.26400	1147
2.26767	1122
2.27133	1095
2.27500	1073
2.27867	1057
2.28233	1048
2.28600	1038
2.28967	1027
2.29333	1015
2.29700	997
2.30067	974
2.30433	952
2.30800	934
2.31167	920
2.31533	907
2.31900	891
2.32267	878
2.32633	869
2.33000	860
2.33367	850
2.33733	840
2.34100	828
2.34467	817
2.34833	804
2.35200	787
2.35567	773
2.35933	765
2.36300	759
2.36667	754
2.37033	749
2.37400	744
2.37767	740
2.38133	732
2.38500	724
2.38867	718
2.39233	713
2.39600	705
2.39967	695
2.40333	690
2.40700	688
2.41067	682
2.41433	673
2.41800	664
2.42167	656
2.42533	651
2.42900	643
2.43267	634
2.43633	628
2.44000	618
2.44367	608
2.44733	599
2.45100	593
2.45467	589
2.45833	585
2.46200	582
2.46567	580
2.46933	576
2.47300	570
2.47667	566
2.48033	566
2.48400	566
2.48767	563
2.49133	561
2.49500	559
2.49867	551
2.50233	543
2.50600	538
2.50967	535
2.51333	532
2.51700	528
2.52067	528
2.52433	528
2.52800	521
2.53167	513
2.53533	506
2.53900	495
2.54267	484
2.54633	473
2.55000	464
2.55367	462
2.55733	463
2.56100	461
2.56467	456
2.56833	456
2.57200	458
2.57567	460
2.57933	453
2.58300	443
2.58667	436
2.59033	434
2.59400	434
2.59767	437
2.60133	439
2.60500	442
2.60867	450
2.61233	456
2.61600	457
2.61967	452
2.62333	440
2.62700	425
2.63067	409
2.63433	395
2.63800	388
2.64167	384
2.64533	384
2.64900	389
2.65267	395
2.65633	401
2.66000	404
2.66367	404
2.66733	405
2.67100	407
2.67467	410
2.67833	408
2.68200	401
2.68567	390
2.68933	378
2.69300	371
2.69667	367
2.70033	366
2.70400	368
2.70767	373
2.71133	378
2.71500	380
2.71867	378
2.72233	376
2.72600	373
2.72967	367
2.73333	363
2.73700	364
2.74067	364
2.74433	362
2.74800	356
2.75167	348
2.75533	345
2.75900	345
2.76267	345
2.76633	345
2.77000	345
2.77367	344
2.77733	343
2.78100	345
2.78467	344
2.78833	340
2.79200	334
2.79567	333
2.79933	337
2.80300	342
2.80667	343
2.81033	343
2.81400	339
2.81767	332
2.82133	326
2.82500	321
2.82867	316
2.83233	316
2.83600	321
2.83967	323
2.84333	321
2.84700	318
2.85067	319
2.85433	321
2.85800	318
2.86167	312
2.86533	310
2.86900	310
2.87267	310
2.87633	311
2.88000	314
2.88367	317
2.88733	316
2.89100	314
2.89467	312
2.89833	305
2.90200	296
2.90567	291
2.90933	284
2.91300	274
2.91667	265
2.92033	260
2.92400	260
2.92767	260
2.93133	259
2.93500	255
2.93867	253
2.94233	255
2.94600	262
2.94967	269
2.95333	270
2.95700	271
2.96067	275
2.96433	277
2.96800	278
2.97167	278
2.97533	279
2.97900	284
2.98267	291
2.98633	294
2.99000	294
2.99367	288
2.99733	274
3.00100	263
3.00467	260
3.00833	262
3.01200	264
3.01567	264
3.01933	258
3.02300	251
3.02667	247
3.03033	246
3.03400	245
3.03767	244
3.04133	243
3.04500	241
3.04867	238
3.05233	235
3.05600	233
3.05967	230
3.06333	226
3.06700	226
3.07067	229
3.07433	233
3.07800	235
3.08167	235
3.08533	234
3.08900	233
3.09267	234
3.09633	240
3.10000	242
3.10367	236
3.10733	227
3.11100	220
3.11467	216
3.11833	216
3.12200	216
3.12567	218
3.12933	219
3.13300	221
3.13667	221
3.14033	223
3.14400	223
3.14767	227
3.15133	234
3.15500	236
3.15867	229
3.16233	219
3.16600	208
3.16967	205
3.17333	210
3.17700	218
3.18067	222
3.18433	222
3.18800	216
3.19167	207
3.19533	201
3.19900	194
3.20267	189
3.20633	187
3.21000	189
3.21367	191
3.21733	195
3.22100	197
3.22467	195
3.22833	191
3.23200	186
3.23567	179
3.23933	174
3.24300	176
3.24667	181
3.25033	185
3.25400	187
3.25767	184
3.26133	176
3.26500	172
3.26867	169
3.27233	169
3.27600	173
3.27967	179
3.28333	188
3.28700	193
3.29067	193
3.29433	190
3.29800	188
3.30167	186
3.30533	183
3.30900	181
3.31267	180
3.31633	177
3.32000	171
3.32367	164
3.32733	160
3.33100	157
3.33467	156
3.33833	155
3.34200	155
3.34567	157
3.34933	158
3.35300	157
3.35667	156
3.36033	155
3.36400	155
3.36767	157
3.37133	162
3.37500	170
3.37867	172
3.38233	169
3.38600	163
3.38967	155
3.39333	147
3.39700	144
3.40067	143
3.40433	140
3.40800	136
3.41167	134
3.41533	132
3.41900	130
3.42267	131
3.42633	139
3.43000	149
3.43367	155
3.43733	160
3.44100	165
3.44467	166
3.44833	165
3.45200	163
3.45567	162
3.45933	162
3.46300	162
3.46667	160
3.47033	154
3.47400	142
3.47767	126
3.48133	115
3.48500	112
3.48867	114
3.49233	119
3.49600	124
3.49967	124
3.50333	120
3.50700	114
3.51067	108
3.51433	107
3.51800	108
3.52167	108
3.52533	109
3.52900	113
3.53267	113
3.53633	108
3.54000	106
3.54367	107
3.54733	108
3.55100	110
3.55467	108
3.55833	105
3.56200	104
3.56567	108
3.56933	114
3.57300	119
3.57667	121
3.58033	119
3.58400	115
3.58767	112
3.59133	107
3.59500	100
3.59867	89
3.60233	77
3.60600	73
3.60967	76
3.61333	84
3.61700	89
3.62067	91
3.62433	94
3.62800	101
3.63167	108
3.63533	111
3.63900	112
3.64267	116
3.64633	117
3.65000	115
3.65367	113
3.65733	110
3.66100	107
3.66467	104
3.66833	99
3.67200	93
3.67567	89
3.67933	91
3.68300	96
3.68667	96
3.69033	89
3.69400	82
3.69767	75
3.70133	69
3.70500	69
3.70867	73
3.71233	79
3.71600	86
3.71967	89
3.72333	89
3.72700	90
3.73067	93
3.73433	99
3.73800	104
3.74167	105
3.74533	102
3.74900	95
3.75267	90
3.75633	89
3.76000	91
3.76367	91
3.76733	84
3.77100	76
3.77467	70
3.77833	65
3.78200	62
3.78567	61
3.78933	64
3.79300	68
3.79667	74
3.80033	79
3.80400	81
3.80767	83
3.81133	88
3.81500	91
3.81867	91
3.82233	91
3.82600	90
3.82967	92
3.83333	95
3.83700	96
3.84067	93
3.84433	81
3.84800	69
3.85167	63
3.85533	61
3.85900	61
3.86267	63
3.86633	65
3.87000	69
3.87367	72
3.87733	74
3.88100	73
3.88467	70
3.88833	66
3.89200	64
3.89567	65
3.89933	69
3.90300	72
3.90667	72
3.91033	67
3.91400	58
3.91767	51
3.92133	46
3.92500	40
3.92867	36
3.93233	36
3.93600	39
3.93967	42
3.94333	41
3.94700	39
3.95067	41
3.95433	47
3.95800	55
3.96167	63
3.96533	67
3.96900	72
3.97267	78
3.97633	83
3.98000	81
3.98367	72
3.98733	61
3.99100	55
3.99467	54
3.99833	51

[Chromatogram (Ch2)]
Interval(msec)	220
# of Points	1091
Start Time(min)	0.002
End Time(min)	3.998
R.Time (min)	Intensity
0.00167	-1
0.00533	-1
0.00900	-0
0.01267	-0
0.01633	0
0.02000	1
0.02367	1
0.02733	1
0.03100	1
0.03467	1
0.03833	1
0.04200	1
0.04567	1
0.04933	1
0.05300	1
0.05667	1
0.06033	1
0.06400	1
0.06767	1
0.07133	2
0.07500	2
0.07867	2
0.08233	2
0.08600	2
0.08967	2
0.09333	3
0.09700	3
0.10067	3
0.10433	3
0.10800	3
0.11167	3
0.11533	3
0.11900	3
0.12267	3
0.12633	3
0.13000	3
0.13367	3
0.13733	4
0.14100	4
0.14467	4
0.14833	3
0.15200	3
0.15567	4
0.15933	4
0.16300	4
0.16667	4
0.17033	4
0.17400	4
0.17767	4
0.18133	4
0.18500	4
0.18867	4
0.19233	4
0.19600	4
0.19967	4
0.20333	4
0.20700	4
0.21067	4
0.21433	4
0.21800	4
0.22167	4
0.22533	3
0.22900	3
0.23267	3
0.23633	2
0.24000	2
0.24367	2
0.24733	2
0.25100	2
0.25467	2
0.25833	2
0.26200	3
0.26567	3
0.26933	3
0.27300	3
0.27667	4
0.28033	4
0.28400	4
0.28767	4
0.29133	3
0.29500	3
0.29867	2
0.30233	2
0.30600	2
0.30967	2
0.31333	2
0.31700	2
0.32067	2
0.32433	2
0.32800	2
0.33167	1
0.33533	1
0.33900	1
0.34267	1
0.34633	1
0.35000	1
0.35367	2
0.35733	2
0.36100	2
0.36467	3
0.36833	3
0.37200	3
0.37567	3
0.37933	3
0.38300	2
0.38667	2
0.39033	2
0.39400	2
0.39767	1
0.40133	1
0.40500	1
0.40867	1
0.41233	1
0.41600	1
0.41967	1
0.42333	1
0.42700	1
0.43067	1
0.43433	1
0.43800	1
0.44167	1
0.44533	1
0.44900	0
0.45267	0
0.45633	0
0.46000	1
0.46367	1
0.46733	0
0.47100	0
0.47467	0
0.47833	-0
0.48200	-0
0.48567	-0
0.48933	-0
0.49300	0
0.49667	0
0.50033	1
0.50400	1
0.50767	1
0.51133	1
0.51500	1
0.51867	2
0.52233	2
0.52600	2
0.52967	2
0.53333	2
0.53700	3
0.54067	3
0.54433	3
0.54800	3
0.55167	3
0.55533	3
0.55900	3
0.56267	3
0.56633	3
0.57000	3
0.57367	3
0.57733	3
0.58100	3
0.58467	2
0.58833	2
0.59200	2
0.59567	2
0.59933	2
0.60300	2
0.60667	1
0.61033	1
0.61400	0
0.61767	0
0.62133	-0
0.62500	-1
0.62867	-1
0.63233	-1
0.63600	-1
0.63967	-1
0.64333	-1
0.64700	-0
0.65067	-0
0.65433	-0
0.65800	-0
0.66167	-0
0.66533	0
0.66900	0
0.67267	1
0.67633	1
0.68000	0
0.68367	0
0.68733	0
0.69100	0
0.69467	0
0.69833	0
0.70200	1
0.70567	1
0.70933	1
0.71300	1
0.71667	1
0.72033	1
0.72400	1
0.72767	1
0.73133	1
0.73500	2
0.73867	2
0.74233	2
0.74600	3
0.74967	3
0.75333	3
0.75700	4
0.76067	4
0.76433	5
0.76800	5
0.77167	5
0.77533	5
0.77900	5
0.78267	4
0.78633	4
0.79000	3
0.79367	3
0.79733	2
0.80100	2
0.80467	1
0.80833	1
0.81200	1
0.81567	1
0.81933	1
0.82300	1
0.82667	1
0.83033	1
0.83400	1
0.83767	1
0.84133	1
0.84500	1
0.84867	1
0.85233	1
0.85600	1
0.85967	1
0.86333	2
0.86700	2
0.87067	2
0.87433	2
0.87800	2
0.88167	2
0.88533	2
0.88900	2
0.89267	2
0.89633	2
0.90000	2
0.90367	3
0.90733	2
0.91100	3
0.91467	3
0.91833	3
0.92200	3
0.92567	3
0.92933	3
0.93300	4
0.93667	4
0.94033	4
0.94400	4
0.94767	4
0.95133	4
0.95500	4
0.95867	4
0.96233	4
0.96600	4
0.96967	4
0.97333	4
0.97700	3
0.98067	3
0.98433	3
0.98800	3
0.99167	3
0.99533	3
0.99900	3
1.00267	3
1.00633	3
1.01000	3
1.01367	2
1.01733	2
1.02100	2
1.02467	2
1.02833	2
1.03200	2
1.03567	2
1.03933	3
1.04300	3
1.04667	3
1.05033	4
1.05400	4
1.05767	4
1.06133	4
1.06500	4
1.06867	4
1.07233	4
1.07600	4
1.07967	4
1.08333	4
1.08700	4
1.09067	4
1.09433	4
1.09800	4
1.10167	3
1.10533	3
1.10900	3
1.11267	2
1.11633	2
1.12000	2
1.12367	2
1.12733	3
1.13100	3
1.13467	3
1.13833	3
1.14200	3
1.14567	3
1.14933	3
1.15300	3
1.15667	3
1.16033	3
1.16400	3
1.16767	3
1.17133	3
1.17500	3
1.17867	4
1.18233	4
1.18600	4
1.18967	4
1.19333	4
1.19700	5
1.20067	4
1.20433	4
1.20800	4
1.21167	3
1.21533	3
1.21900	2
1.22267	2
1.22633	2
1.23000	1
1.23367	1
1.23733	0
1.24100	0
1.24467	-0
1.24833	-0
1.25200	-0
1.25567	-0
1.25933	-0
1.26300	-0
1.26667	-0
1.27033	0
1.27400	0
1.27767	1
1.28133	1
1.28500	2
1.28867	2
1.29233	2
1.29600	2
1.29967	2
1.30333	2
1.30700	3
1.31067	3
1.31433	2
1.31800	2
1.32167	2
1.32533	1
1.32900	1
1.33267	1
1.33633	1
1.34000	1
1.34367	1
1.34733	1
1.35100	1
1.35467	1
1.35833	1
1.36200	1
1.36567	1
1.36933	2
1.37300	2
1.37667	2
1.38033	2
1.38400	2
1.38767	2
1.39133	2
1.39500	2
1.39867	1
1.40233	1
1.40600	1
1.40967	1
1.41333	1
1.41700	2
1.42067	2
1.42433	2
1.42800	2
1.43167	2
1.43533	2
1.43900	3
1.44267	3
1.44633	3
1.45000	3
1.45367	4
1.45733	4
1.46100	4
1.46467	4
1.46833	4
1.47200	4
1.47567	5
1.47933	5
1.48300	4
1.48667	4
1.49033	4
1.49400	4
1.49767	4
1.50133	4
1.50500	4
1.50867	3
1.51233	3
1.51600	3
1.51967	2
1.52333	2
1.52700	1
1.53067	1
1.53433	1
1.53800	0
1.54167	0
1.54533	0
1.54900	0
1.55267	0
1.55633	0
1.56000	1
1.56367	1
1.56733	1
1.57100	1
1.57467	1
1.57833	1
1.58200	1
1.58567	1
1.58933	0
1.59300	0
1.59667	-0
1.60033	-1
1.60400	-2
1.60767	-2
1.61133	-4
1.61500	-6
1.61867	-8
1.62233	-10
1.62600	-13
1.62967	-17
1.63333	-20
1.63700	-24
1.64067	-28
1.64433	-32
1.64800	-35
1.65167	-39
1.65533	-43
1.65900	-47
1.66267	-51
1.66633	-55
1.67000	-60
1.67367	-65
1.67733	-70
1.68100	-75
1.68467	-80
1.68833	-85
1.69200	-89
1.69567	-93
1.69933	-96
1.70300	-99
1.70667	-101
1.71033	-103
1.71400	-104
1.71767	-105
1.72133	-106
1.72500	-106
1.72867	-107
1.73233	-107
1.73600	-107
1.73967	-107
1.74333	-107
1.74700	-107
1.75067	-106
1.75433	-106
1.75800	-106
1.76167	-106
1.76533	-107
1.76900	-107
1.77267	-108
1.77633	-110
1.78000	-111
1.78367	-111
1.78733	-112
1.79100	-112
1.79467	-113
1.79833	-113
1.80200	-113
1.80567	-113
1.80933	-113
1.81300	-114
1.81667	-114
1.82033	-114
1.82400	-114
1.82767	-114
1.83133	-113
1.83500	-113
1.83867	-112
1.84233	-111
1.84600	-111
1.84967	-111
1.85333	-112
1.85700	-113
1.86067	-113
1.86433	-114
1.86800	-114
1.87167	-114
1.87533	-114
1.87900	-113
1.88267	-113
1.88633	-112
1.89000	-112
1.89367	-111
1.89733	-110
1.90100	-110
1.90467	-109
1.90833	-109
1.91200	-109
1.91567	-109
1.91933	-109
1.92300	-109
1.92667	-109
1.93033	-109
1.93400	-108
1.93767	-108
1.94133	-108
1.94500	-108
1.94867	-108
1.95233	-109
1.95600	-109
1.95967	-110
1.96333	-111
1.96700	-111
1.97067	-111
1.97433	-110
1.97800	-109
1.98167	-108
1.98533	-107
1.98900	-105
1.99267	-104
1.99633	-103
2.00000	-102
2.00367	-102
2.00733	-102
2.01100	-102
2.01467	-102
2.01833	-103
2.02200	-103
2.02567	-103
2.02933	-103
2.03300	-103
2.03667	-102
2.04033	-102
2.04400	-103
2.04767	-103
2.05133	-102
2.05500	-102
2.05867	-101
2.06233	-101
2.06600	-101
2.06967	-101
2.07333	-101
2.07700	-102
2.08067	-103
2.08433	-103
2.08800	-103
2.09167	-102
2.09533	-102
2.09900	-101
2.10267	-100
2.10633	-99
2.11000	-98
2.11367	-97
2.11733	-97
2.12100	-96
2.12467	-96
2.12833	-95
2.13200	-95
2.13567	-95
2.13933	-95
2.14300	-95
2.14667	-95
2.15033	-95
2.15400	-95
2.15767	-95
2.16133	-95
2.16500	-94
2.16867	-93
2.17233	-92
2.17600	-92
2.17967	-91
2.18333	-90
2.18700	-90
2.19067	-90
2.19433	-90
2.19800	-89
2.20167	-89
2.20533	-89
2.20900	-90
2.21267	-90
2.21633	-90
2.22000	-90
2.22367	-90
2.22733	-90
2.23100	-89
2.23467	-88
2.23833	-87
2.24200	-86
2.24567	-85
2.24933	-85
2.25300	-84
2.25667	-84
2.26033	-83
2.26400	-83
2.26767	-83
2.27133	-84
2.27500	-84
2.27867	-85
2.28233	-85
2.28600	-85
2.28967	-84
2.29333	-83
2.29700	-82
2.30067	-81
2.30433	-80
2.30800	-80
2.31167	-79
2.31533	-79
2.31900	-79
2.32267	-78
2.32633	-78
2.33000	-78
2.33367	-77
2.33733	-76
2.34100	-76
2.34467	-75
2.34833	-74
2.35200	-73
2.35567	-72
2.35933	-71
2.36300	-70
2.36667	-69
2.37033	-67
2.37400	-65
2.37767	-63
2.38133	-60
2.38500	-57
2.38867	-54
2.39233	-50
2.39600	-45
2.39967	-41
2.40333	-36
2.40700	-32
2.41067	-28
2.41433	-24
2.41800	-21
2.42167	-19
2.42533	-17
2.42900	-15
2.43267	-14
2.43633	-13
2.44000	-11
2.44367	-9
2.44733	-7
2.45100	-6
2.45467	-4
2.45833	-3
2.46200	-1
2.46567	-0
2.46933	1
2.47300	2
2.47667	3
2.48033	4
2.48400	5
2.48767	6
2.49133	7
2.49500	8
2.49867	9
2.50233	11
2.50600	12
2.50967	12
2.51333	13
2.51700	13
2.52067	13
2.52433	14
2.52800	15
2.53167	15
2.53533	16
2.53900	17
2.54267	17
2.54633	18
2.55000	18
2.55367	18
2.55733	18
2.56100	19
2.56467	19
2.56833	19
2.57200	19
2.57567	18
2.57933	18
2.58300	19
2.58667	19
2.59033	19
2.59400	20
2.59767	20
2.60133	20
2.60500	21
2.60867	21
2.61233	21
2.61600	22
2.61967	22
2.62333	22
2.62700	23
2.63067	23
2.63433	23
2.63800	24
2.64167	24
2.64533	24
2.64900	24
2.65267	24
2.65633	24
2.66000	24
2.66367	24
2.66733	24
2.67100	24
2.67467	24
2.67833	24
2.68200	24
2.68567	25
2.68933	25
2.69300	26
2.69667	26
2.70033	26
2.70400	26
2.70767	26
2.71133	26
2.71500	26
2.71867	26
2.72233	26
2.72600	27
2.72967	27
2.73333	27
2.73700	28
2.74067	29
2.74433	29
2.74800	30
2.75167	30
2.75533	31
2.75900	31
2.76267	31
2.76633	31
2.77000	30
2.77367	29
2.77733	29
2.78100	28
2.78467	27
2.78833	27
2.79200	27
2.79567	26
2.79933	26
2.80300	26
2.80667	27
2.81033	27
2.81400	27
2.81767	28
2.82133	29
2.82500	29
2.82867	30
2.83233	30
2.83600	29
2.83967	27
2.84333	23
2.84700	17
2.85067	7
2.85433	-6
2.85800	-23
2.86167	-46
2.86533	-74
2.86900	-107
2.87267	-145
2.87633	-189
2.88000	-239
2.88367	-293
2.88733	-352
2.89100	-415
2.89467	-482
2.89833	-553
2.90200	-627
2.90567	-704
2.90933	-784
2.91300	-866
2.91667	-950
2.92033	-1037
2.92400	-1125
2.92767	-1214
2.93133	-1306
2.93500	-1396
2.93867	-1475
2.94233	-1529
2.94600	-1550
2.94967	-1534
2.95333	-1485
2.95700	-1409
2.96067	-1313
2.96433	-1206
2.96800	-1094
2.97167	-982
2.97533	-874
2.97900	-771
2.98267	-677
2.98633	-590
2.99000	-512
2.99367	-442
2.99733	-381
3.00100	-326
3.00467	-279
3.00833	-237
3.01200	-202
3.01567	-171
3.01933	-144
3.02300	-121
3.02667	-102
3.03033	-85
3.03400	-71
3.03767	-59
3.04133	-49
3.04500	-40
3.04867	-33
3.05233	-26
3.05600	-21
3.05967	-16
3.06333	-11
3.06700	-8
3.07067	-5
3.07433	-2
3.07800	1
3.08167	3
3.08533	5
3.08900	6
3.09267	7
3.09633	9
3.10000	10
3.10367	11
3.10733	12
3.11100	13
3.11467	13
3.11833	14
3.12200	15
3.12567	15
3.12933	16
3.13300	16
3.13667	17
3.14033	17
3.14400	17
3.14767	18
3.15133	18
3.15500	18
3.15867	18
3.16233	18
3.16600	19
3.16967	19
3.17333	19
3.17700	19
3.18067	19
3.18433	19
3.18800	20
3.19167	20
3.19533	20
3.19900	20
3.20267	21
3.20633	21
3.21000	21
3.21367	21
3.21733	21
3.22100	21
3.22467	21
3.22833	21
3.23200	21
3.23567	22
3.23933	22
3.24300	22
3.24667	22
3.25033	22
3.25400	23
3.25767	23
3.26133	23
3.26500	23
3.26867	24
3.27233	24
3.27600	25
3.27967	25
3.28333	25
3.28700	26
3.29067	26
3.29433	26
3.29800	26
3.30167	26
3.30533	26
3.30900	26
3.31267	27
3.31633	27
3.32000	27
3.32367	27
3.32733	27
3.33100	27
3.33467	27
3.33833	27
3.34200	27
3.34567	27
3.34933	26
3.35300	26
3.35667	26
3.36033	27
3.36400	27
3.36767	27
3.37133	28
3.37500	28
3.37867	29
3.38233	29
3.38600	29
3.38967	30
3.39333	30
3.39700	30
3.40067	30
3.40433	30
3.40800	30
3.41167	30
3.41533	30
3.41900	30
3.42267	30
3.42633	30
3.43000	30
3.43367	30
3.43733	31
3.44100	31
3.44467	31
3.44833	32
3.45200	32
3.45567	32
3.45933	32
3.46300	31
3.46667	31
3.47033	31
3.47400	31
3.47767	31
3.48133	31
3.48500	31
3.48867	31
3.49233	31
3.49600	30
3.49967	30
3.50333	30
3.50700	30
3.51067	30
3.51433	30
3.51800	30
3.52167	30
3.52533	30
3.52900	30
3.53267	30
3.53633	30
3.54000	30
3.54367	30
3.54733	30
3.55100	30
3.55467	30
3.55833	30
3.56200	30
3.56567	30
3.56933	29
3.57300	29
3.57667	29
3.58033	29
3.58400	29
3.58767	29
3.59133	29
3.59500	29
3.59867	29
3.60233	29
3.60600	29
3.60967	29
3.61333	28
3.61700	28
3.62067	28
3.62433	28
3.62800	28
3.63167	28
3.63533	29
3.63900	29
3.64267	29
3.64633	29
3.65000	29
3.65367	29
3.65733	29
3.66100	29
3.66467	29
3.66833	29
3.67200	29
3.67567	30
3.67933	30
3.68300	30
3.68667	31
3.69033	31
3.69400	31
3.69767	32
3.70133	31
3.70500	31
3.70867	31
3.71233	30
3.71600	30
3.71967	30
3.72333	30
3.72700	30
3.73067	30
3.73433	30
3.73800	30
3.74167	31
3.74533	31
3.74900	31
3.75267	31
3.75633	31
3.76000	31
3.76367	31
3.76733	31
3.77100	31
3.77467	31
3.77833	31
3.78200	31
3.78567	31
3.78933	30
3.79300	30
3.79667	30
3.80033	30
3.80400	30
3.80767	30
3.81133	30
3.81500	30
3.81867	30
3.82233	30
3.82600	29
3.82967	29
3.83333	29
3.83700	29
3.84067	28
3.84433	28
3.84800	28
3.85167	28
3.85533	28
3.85900	28
3.86267	28
3.86633	28
3.87000	29
3.87367	29
3.87733	29
3.88100	29
3.88467	29
3.88833	29
3.89200	29
3.89567	29
3.89933	29
3.90300	30
3.90667	30
3.91033	30
3.91400	30
3.91767	30
3.92133	30
3.92500	30
3.92867	30
3.93233	30
3.93600	30
3.93967	30
3.94333	30
3.94700	30
3.95067	30
3.95433	30
3.95800	30
3.96167	30
3.96533	30
3.96900	30
3.97267	30
3.97633	30
3.98000	31
3.98367	31
3.98733	31
3.99100	31
3.99467	32
3.99833	32

[Chromatogram (Ch3)]
Interval(msec)	220
# of Points	1091
Start Time(min)	0.002
End Time(min)	3.998
R.Time (min)	Intensity
0.00167	-0
0.00533	-1
0.00900	1
0.01267	2
0.01633	3
0.02000	4
0.02367	3
0.02733	2
0.03100	1
0.03467	1
0.03833	1
0.04200	2
0.04567	3
0.04933	3
0.05300	2
0.05667	0
0.06033	-1
0.06400	-1
0.06767	-1
0.07133	2
0.07500	3
0.07867	4
0.08233	6
0.08600	7
0.08967	8
0.09333	7
0.09700	5
0.10067	5
0.10433	5
0.10800	8
0.11167	7
0.11533	9
0.11900	11
0.12267	12
0.12633	11
0.13000	12
0.13367	14
0.13733	15
0.14100	15
0.14467	14
0.14833	14
0.15200	13
0.15567	12
0.15933	12
0.16300	11
0.16667	9
0.17033	8
0.17400	9
0.17767	10
0.18133	12
0.18500	14
0.18867	16
0.19233	16
0.19600	14
0.19967	14
0.20333	14
0.20700	13
0.21067	10
0.21433	9
0.21800	8
0.22167	8
0.22533	9
0.22900	10
0.23267	10
0.23633	10
0.24000	8
0.24367	5
0.24733	4
0.25100	4
0.25467	4
0.25833	6
0.26200	8
0.26567	8
0.26933	7
0.27300	7
0.27667	5
0.28033	4
0.28400	3
0.28767	5
0.29133	5
0.29500	5
0.29867	6
0.30233	7
0.30600	6
0.30967	4
0.31333	2
0.31700	1
0.32067	-1
0.32433	-1
0.32800	1
0.33167	4
0.33533	4
0.33900	4
0.34267	4
0.34633	2
0.35000	1
0.35367	2
0.35733	1
0.36100	-1
0.36467	-2
0.36833	-1
0.37200	-0
0.37567	3
0.37933	7
0.38300	7
0.38667	6
0.39033	5
0.39400	6
0.39767	6
0.40133	7
0.40500	8
0.40867	8
0.41233	7
0.41600	5
0.41967	4
0.42333	4
0.42700	7
0.43067	9
0.43433	10
0.43800	10
0.44167	10
0.44533	11
0.44900	9
0.45267	8
0.45633	6
0.46000	6
0.46367	5
0.46733	5
0.47100	4
0.47467	4
0.47833	3
0.48200	3
0.48567	6
0.48933	7
0.49300	8
0.49667	9
0.50033	11
0.50400	10
0.50767	9
0.51133	7
0.51500	7
0.51867	6
0.52233	5
0.52600	7
0.52967	8
0.53333	7
0.53700	5
0.54067	3
0.54433	5
0.54800	7
0.55167	8
0.55533	7
0.55900	5
0.56267	7
0.56633	7
0.57000	5
0.57367	2
0.57733	2
0.58100	2
0.58467	1
0.58833	1
0.59200	3
0.59567	4
0.59933	6
0.60300	6
0.60667	7
0.61033	8
0.61400	8
0.61767	8
0.62133	9
0.62500	9
0.62867	7
0.63233	6
0.63600	7
0.63967	8
0.64333	8
0.64700	7
0.65067	8
0.65433	7
0.65800	8
0.66167	9
0.66533	8
0.66900	6
0.67267	5
0.67633	5
0.68000	4
0.68367	2
0.68733	0
0.69100	1
0.69467	2
0.69833	3
0.70200	2
0.70567	1
0.70933	-1
0.71300	-1
0.71667	-1
0.72033	1
0.72400	3
0.72767	2
0.73133	4
0.73500	6
0.73867	3
0.74233	-0
0.74600	-1
0.74967	-0
0.75333	1
0.75700	-0
0.76067	2
0.76433	5
0.76800	6
0.77167	6
0.77533	7
0.77900	8
0.78267	7
0.78633	5
0.79000	4
0.79367	3
0.79733	4
0.80100	4
0.80467	3
0.80833	1
0.81200	-2
0.81567	-1
0.81933	1
0.82300	2
0.82667	1
0.83033	1
0.83400	2
0.83767	2
0.84133	3
0.84500	5
0.84867	6
0.85233	8
0.85600	6
0.85967	5
0.86333	5
0.86700	5
0.87067	4
0.87433	4
0.87800	3
0.88167	-0
0.88533	0
0.88900	4
0.89267	6
0.89633	8
0.90000	8
0.90367	8
0.90733	7
0.91100	6
0.91467	4
0.91833	4
0.92200	6
0.92567	6
0.92933	6
0.93300	6
0.93667	7
0.94033	6
0.94400	5
0.94767	3
0.95133	3
0.95500	5
0.95867	4
0.96233	4
0.96600	7
0.96967	8
0.97333	5
0.97700	4
0.98067	4
0.98433	7
0.98800	8
0.99167	7
0.99533	4
0.99900	1
1.00267	2
1.00633	2
1.01000	1
1.01367	1
1.01733	3
1.02100	4
1.02467	3
1.02833	3
1.03200	3
1.03567	4
1.03933	5
1.04300	7
1.04667	8
1.05033	8
1.05400	6
1.05767	6
1.06133	7
1.06500	7
1.06867	7
1.07233	8
1.07600	9
1.07967	10
1.08333	10
1.08700	11
1.09067	10
1.09433	8
1.09800	7
1.10167	7
1.10533	6
1.10900	6
1.11267	6
1.11633	4
1.12000	4
1.12367	5
1.12733	6
1.13100	8
1.13467	10
1.13833	10
1.14200	12
1.14567	13
1.14933	11
1.15300	11
1.15667	12
1.16033	15
1.16400	16
1.16767	17
1.17133	17
1.17500	16
1.17867	13
1.18233	11
1.18600	10
1.18967	11
1.19333	13
1.19700	14
1.20067	15
1.20433	14
1.20800	16
1.21167	19
1.21533	18
1.21900	16
1.22267	15
1.22633	16
1.23000	17
1.23367	17
1.23733	16
1.24100	15
1.24467	16
1.24833	16
1.25200	17
1.25567	18
1.25933	19
1.26300	18
1.26667	16
1.27033	16
1.27400	18
1.27767	19
1.28133	19
1.28500	19
1.28867	20
1.29233	20
1.29600	18
1.29967	16
1.30333	15
1.30700	13
1.31067	12
1.31433	12
1.31800	13
1.32167	15
1.32533	16
1.32900	17
1.33267	18
1.33633	18
1.34000	17
1.34367	16
1.34733	16
1.35100	16
1.35467	16
1.35833	16
1.36200	17
1.36567	17
1.36933	16
1.37300	16
1.37667	17
1.38033	17
1.38400	17
1.38767	17
1.39133	16
1.39500	13
1.39867	13
1.40233	15
1.40600	15
1.40967	16
1.41333	16
1.41700	16
1.42067	15
1.42433	12
1.42800	10
1.43167	10
1.43533	11
1.43900	11
1.44267	11
1.44633	12
1.45000	14
1.45367	15
1.45733	15
1.46100	15
1.46467	14
1.46833	13
1.47200	13
1.47567	13
1.47933	15
1.48300	17
1.48667	20
1.49033	21
1.49400	22
1.49767	21
1.50133	22
1.50500	23
1.50867	23
1.51233	22
1.51600	21
1.51967	21
1.52333	21
1.52700	22
1.53067	23
1.53433	25
1.53800	26
1.54167	26
1.54533	24
1.54900	23
1.55267	23
1.55633	22
1.56000	22
1.56367	23
1.56733	23
1.57100	23
1.57467	21
1.57833	20
1.58200	22
1.58567	24
1.58933	25
1.59300	27
1.59667	28
1.60033	29
1.60400	29
1.60767	28
1.61133	28
1.61500	29
1.61867	29
1.62233	28
1.62600	27
1.62967	28
1.63333	30
1.63700	29
1.64067	28
1.64433	28
1.64800	30
1.65167	30
1.65533	29
1.65900	29
1.66267	32
1.66633	34
1.67000	34
1.67367	32
1.67733	32
1.68100	33
1.68467	34
1.68833	33
1.69200	32
1.69567	31
1.69933	30
1.70300	30
1.70667	30
1.71033	32
1.71400	35
1.71767	36
1.72133	36
1.72500	35
1.72867	33
1.73233	33
1.73600	32
1.73967	32
1.74333	32
1.74700	33
1.75067	33
1.75433	34
1.75800	36
1.76167	36
1.76533	36
1.76900	36
1.77267	40
1.77633	43
1.78000	44
1.78367	42
1.78733	40
1.79100	38
1.79467	36
1.79833	36
1.80200	38
1.80567	41
1.80933	44
1.81300	46
1.81667	46
1.82033	43
1.82400	41
1.82767	42
1.83133	42
1.83500	44
1.83867	46
1.84233	46
1.84600	46
1.84967	45
1.85333	44
1.85700	44
1.86067	46
1.86433	47
1.86800	49
1.87167	50
1.87533	50
1.87900	49
1.88267	48
1.88633	50
1.89000	51
1.89367	50
1.89733	51
1.90100	51
1.90467	49
1.90833	48
1.91200	49
1.91567	50
1.91933	53
1.92300	53
1.92667	53
1.93033	53
1.93400	54
1.93767	54
1.94133	54
1.94500	55
1.94867	56
1.95233	57
1.95600	58
1.95967	59
1.96333	60
1.96700	61
1.97067	60
1.97433	59
1.97800	59
1.98167	59
1.98533	61
1.98900	62
1.99267	63
1.99633	63
2.00000	66
2.00367	71
2.00733	75
2.01100	79
2.01467	79
2.01833	80
2.02200	79
2.02567	78
2.02933	77
2.03300	79
2.03667	79
2.04033	79
2.04400	83
2.04767	86
2.05133	88
2.05500	88
2.05867	90
2.06233	91
2.06600	89
2.06967	88
2.07333	87
2.07700	89
2.08067	89
2.08433	91
2.08800	94
2.09167	96
2.09533	98
2.09900	99
2.10267	100
2.10633	101
2.11000	103
2.11367	102
2.11733	100
2.12100	97
2.12467	96
2.12833	99
2.13200	102
2.13567	104
2.13933	104
2.14300	106
2.14667	107
2.15033	108
2.15400	109
2.15767	111
2.16133	115
2.16500	116
2.16867	116
2.17233	115
2.17600	116
2.17967	118
2.18333	121
2.18700	124
2.19067	125
2.19433	125
2.19800	126
2.20167	128
2.20533	130
2.20900	132
2.21267	133
2.21633	135
2.22000	138
2.22367	142
2.22733	145
2.23100	147
2.23467	149
2.23833	148
2.24200	149
2.24567	152
2.24933	154
2.25300	156
2.25667	157
2.26033	158
2.26400	158
2.26767	159
2.27133	161
2.27500	160
2.27867	159
2.28233	161
2.28600	162
2.28967	161
2.29333	160
2.29700	160
2.30067	162
2.30433	165
2.30800	167
2.31167	170
2.31533	172
2.31900	174
2.32267	178
2.32633	181
2.33000	187
2.33367	191
2.33733	191
2.34100	194
2.34467	197
2.34833	198
2.35200	198
2.35567	200
2.35933	203
2.36300	204
2.36667	203
2.37033	203
2.37400	204
2.37767	207
2.38133	212
2.38500	212
2.38867	211
2.39233	211
2.39600	215
2.39967	220
2.40333	224
2.40700	224
2.41067	225
2.41433	231
2.41800	235
2.42167	237
2.42533	239
2.42900	241
2.43267	244
2.43633	245
2.44000	249
2.44367	290
2.44733	402
2.45100	525
2.45467	628
2.45833	690
2.46200	688
2.46567	641
2.46933	584
2.47300	540
2.47667	510
2.48033	492
2.48400	474
2.48767	443
2.49133	404
2.49500	366
2.49867	332
2.50233	307
2.50600	290
2.50967	280
2.51333	275
2.51700	275
2.52067	282
2.52433	298
2.52800	316
2.53167	329
2.53533	338
2.53900	338
2.54267	329
2.54633	314
2.55000	293
2.55367	272
2.55733	252
2.56100	233
2.56467	216
2.56833	202
2.57200	192
2.57567	189
2.57933	185
2.58300	182
2.58667	183
2.59033	184
2.59400	181
2.59767	173
2.60133	163
2.60500	149
2.60867	130
2.61233	111
2.61600	93
2.61967	76
2.62333	63
2.62700	54
2.63067	47
2.63433	45
2.63800	46
2.64167	52
2.64533	62
2.64900	72
2.65267	83
2.65633	96
2.66000	104
2.66367	109
2.66733	111
2.67100	111
2.67467	111
2.67833	110
2.68200	106
2.68567	105
2.68933	104
2.69300	101
2.69667	96
2.70033	88
2.70400	82
2.70767	79
2.71133	76
2.71500	75
2.71867	75
2.72233	77
2.72600	80
2.72967	83
2.73333	85
2.73700	85
2.74067	86
2.74433	88
2.74800	90
2.75167	91
2.75533	91
2.75900	92
2.76267	93
2.76633	95
2.77000	96
2.77367	99
2.77733	100
2.78100	99
2.78467	99
2.78833	101
2.79200	103
2.79567	103
2.79933	103
2.80300	103
2.80667	105
2.81033	109
2.81400	120
2.81767	152
2.82133	224
2.82500	375
2.82867	667
2.83233	1166
2.83600	1936
2.83967	3013
2.84333	4401
2.84700	6053
2.85067	7878
2.85433	9757
2.85800	11550
2.86167	13117
2.86533	14340
2.86900	15151
2.87267	15516
2.87633	15459
2.88000	15041
2.88367	14338
2.88733	13434
2.89100	12409
2.89467	11331
2.89833	10254
2.90200	9209
2.90567	8219
2.90933	7302
2.91300	6463
2.91667	5703
2.92033	5022
2.92400	4414
2.92767	3874
2.93133	3394
2.93500	2971
2.93867	2601
2.94233	2278
2.94600	1993
2.94967	1746
2.95333	1532
2.95700	1343
2.96067	1179
2.96433	1037
2.96800	914
2.97167	806
2.97533	713
2.97900	633
2.98267	564
2.98633	504
2.99000	451
2.99367	405
2.99733	363
3.00100	326
3.00467	295
3.00833	268
3.01200	246
3.01567	226
3.01933	208
3.02300	192
3.02667	176
3.03033	163
3.03400	153
3.03767	144
3.04133	137
3.04500	129
3.04867	121
3.05233	117
3.05600	114
3.05967	109
3.06333	104
3.06700	100
3.07067	97
3.07433	93
3.07800	87
3.08167	81
3.08533	77
3.08900	74
3.09267	74
3.09633	74
3.10000	74
3.10367	71
3.10733	67
3.11100	67
3.11467	67
3.11833	65
3.12200	64
3.12567	60
3.12933	34
3.13300	-17
3.13667	-65
3.14033	-81
3.14400	-68
3.14767	-35
3.15133	11
3.15500	67
3.15867	125
3.16233	182
3.16600	237
3.16967	286
3.17333	330
3.17700	371
3.18067	408
3.18433	441
3.18800	467
3.19167	486
3.19533	502
3.19900	518
3.20267	533
3.20633	545
3.21000	554
3.21367	560
3.21733	566
3.22100	569
3.22467	570
3.22833	572
3.23200	573
3.23567	575
3.23933	576
3.24300	576
3.24667	575
3.25033	576
3.25400	580
3.25767	582
3.26133	582
3.26500	582
3.26867	584
3.27233	587
3.27600	587
3.27967	587
3.28333	587
3.28700	587
3.29067	589
3.29433	589
3.29800	588
3.30167	589
3.30533	591
3.30900	594
3.31267	596
3.31633	599
3.32000	603
3.32367	607
3.32733	610
3.33100	615
3.33467	622
3.33833	625
3.34200	628
3.34567	630
3.34933	634
3.35300	639
3.35667	643
3.36033	647
3.36400	653
3.36767	655
3.37133	657
3.37500	659
3.37867	661
3.38233	664
3.38600	665
3.38967	665
3.39333	665
3.39700	668
3.40067	670
3.40433	671
3.40800	674
3.41167	675
3.41533	674
3.41900	673
3.42267	672
3.42633	670
3.43000	666
3.43367	664
3.43733	662
3.44100	658
3.44467	655
3.44833	652
3.45200	648
3.45567	642
3.45933	637
3.46300	633
3.46667	631
3.47033	628
3.47400	624
3.47767	618
3.48133	611
3.48500	606
3.48867	601
3.49233	596
3.49600	595
3.49967	593
3.50333	591
3.50700	590
3.51067	590
3.51433	586
3.51800	582
3.52167	577
3.52533	574
3.52900	572
3.53267	569
3.53633	567
3.54000	565
3.54367	563
3.54733	561
3.55100	558
3.55467	555
3.55833	555
3.56200	554
3.56567	554
3.56933	553
3.57300	550
3.57667	548
3.58033	547
3.58400	545
3.58767	543
3.59133	542
3.59500	540
3.59867	538
3.60233	536
3.60600	534
3.60967	533
3.61333	534
3.61700	533
3.62067	530
3.62433	530
3.62800	532
3.63167	532
3.63533	531
3.63900	528
3.64267	527
3.64633	526
3.65000	526
3.65367	525
3.65733	525
3.66100	525
3.66467	526
3.66833	527
3.67200	527
3.67567	526
3.67933	524
3.68300	523
3.68667	522
3.69033	521
3.69400	521
3.69767	520
3.70133	518
3.70500	517
3.70867	517
3.71233	517
3.71600	517
3.71967	518
3.72333	519
3.72700	519
3.73067	517
3.73433	515
3.73800	514
3.74167	514
3.74533	514
3.74900	516
3.75267	518
3.75633	520
3.76000	521
3.76367	520
3.76733	519
3.77100	519
3.77467	517
3.77833	513
3.78200	513
3.78567	513
3.78933	513
3.79300	511
3.79667	509
3.80033	510
3.80400	511
3.80767	511
3.81133	512
3.81500	515
3.81867	515
3.82233	514
3.82600	512
3.82967	511
3.83333	511
3.83700	513
3.84067	512
3.84433	512
3.84800	510
3.85167	508
3.85533	507
3.85900	507
3.86267	508
3.86633	507
3.87000	506
3.87367	502
3.87733	500
3.88100	499
3.88467	497
3.88833	496
3.89200	497
3.89567	499
3.89933	498
3.90300	496
3.90667	493
3.91033	493
3.91400	492
3.91767	492
3.92133	494
3.92500	492
3.92867	491
3.93233	490
3.93600	489
3.93967	490
3.94333	491
3.94700	489
3.95067	487
3.95433	484
3.95800	483
3.96167	480
3.96533	478
3.96900	478
3.97267	478
3.97633	479
3.98000	480
3.98367	479
3.98733	479
3.99100	478
3.99467	474
3.99833	470

[Status Trace (Column Oven Temperature)]
Interval(msec)	1000
# of Points	240
Start Time(min)	0.009
End Time(min)	3.992
Intensity Units	
Intensity Multiplier	1
R.Time (min)	Intensity
0.00862	35.04
0.02528	35.05
0.04195	35.06
0.05862	35.06
0.07528	35.07
0.09195	35.07
0.10862	35.06
0.12528	35.05
0.14195	35.05
0.15862	35.04
0.17528	35.04
0.19195	35.02
0.20862	35.00
0.22528	35.00
0.24195	35.01
0.25862	35.00
0.27528	34.99
0.29195	34.99
0.30862	34.99
0.32528	34.99
0.34195	34.99
0.35862	35.00
0.37528	35.00
0.39195	35.01
0.40862	35.01
0.42528	35.01
0.44195	35.01
0.45862	35.01
0.47528	35.02
0.49195	35.02
0.50862	35.02
0.52528	35.01
0.54195	35.00
0.55862	35.00
0.57528	34.99
0.59195	34.99
0.60862	35.00
0.62528	35.01
0.64195	35.01
0.65862	35.02
0.67528	35.03
0.69195	35.03
0.70862	35.04
0.72528	35.04
0.74195	35.02
0.75862	35.00
0.77528	35.00
0.79195	35.00
0.80862	35.01
0.82528	35.01
0.84195	35.01
0.85862	35.01
0.87528	35.01
0.89195	35.00
0.90862	35.01
0.92528	35.01
0.94195	35.00
0.95862	34.99
0.97528	34.98
0.99195	34.99
1.00862	34.99
1.02528	35.00
1.04195	35.00
1.05862	34.99
1.07528	34.99
1.09195	34.99
1.10862	34.99
1.12528	34.99
1.14195	34.99
1.15862	34.98
1.17528	34.97
1.19195	34.96
1.20862	34.97
1.22528	34.97
1.24195	34.98
1.25862	34.99
1.27528	34.98
1.29195	34.99
1.30862	34.99
1.32528	35.00
1.34195	35.00
1.35862	34.99
1.37528	35.00
1.39195	35.00
1.40862	35.01
1.42528	35.01
1.44195	34.99
1.45862	34.98
1.47528	34.97
1.49195	34.96
1.50862	34.97
1.52528	34.98
1.54195	34.99
1.55862	34.99
1.57528	35.00
1.59195	35.01
1.60862	35.06
1.62528	35.19
1.64195	35.38
1.65862	35.62
1.67528	35.96
1.69195	36.35
1.70862	36.71
1.72528	37.05
1.74195	37.36
1.75862	37.67
1.77528	38.02
1.79195	38.36
1.80862	38.71
1.82528	39.02
1.84195	39.33
1.85862	39.68
1.87528	40.01
1.89195	40.33
1.90862	40.65
1.92528	40.97
1.94195	41.29
1.95862	41.63
1.97528	41.96
1.99195	42.26
2.00862	42.59
2.02528	42.91
2.04195	43.25
2.05862	43.56
2.07528	43.91
2.09195	44.24
2.10862	44.57
2.12528	44.90
2.14195	45.24
2.15862	45.58
2.17528	45.90
2.19195	46.22
2.20862	46.56
2.22528	46.89
2.24195	47.23
2.25862	47.55
2.27528	47.90
2.29195	48.20
2.30862	48.52
2.32528	48.88
2.34195	49.17
2.35862	49.46
2.37528	49.65
2.39195	49.71
2.40862	49.70
2.42528	49.73
2.44195	49.72
2.45862	49.73
2.47528	49.74
2.49195	49.75
2.50862	49.77
2.52528	49.78
2.54195	49.79
2.55862	49.80
2.57528	49.81
2.59195	49.82
2.60862	49.82
2.62528	49.83
2.64195	49.82
2.65862	49.84
2.67528	49.85
2.69195	49.85
2.70862	49.87
2.72528	49.88
2.74195	49.85
2.75862	49.84
2.77528	49.87
2.79195	49.90
2.80862	49.91
2.82528	49.90
2.84195	49.91
2.85862	49.90
2.87528	49.91
2.89195	49.92
2.90862	49.93
2.92528	49.93
2.94195	49.94
2.95862	49.97
2.97528	49.97
2.99195	49.97
3.00862	49.97
3.02528	49.98
3.04195	49.99
3.05862	50.00
3.07528	50.01
3.09195	50.01
3.10862	50.01
3.12528	50.00
3.14195	50.01
3.15862	50.02
3.17528	50.04
3.19195	50.05
3.20862	50.07
3.22528	50.08
3.24195	50.09
3.25862	50.09
3.27528	50.09
3.29195	50.10
3.30862	50.10
3.32528	50.11
3.34195	50.11
3.35862	50.10
3.37528	50.09
3.39195	50.08
3.40862	50.08
3.42528	50.07
3.44195	50.05
3.45862	50.05
3.47528	50.04
3.49195	50.04
3.50862	50.04
3.52528	50.05
3.54195	50.05
3.55862	50.06
3.57528	50.07
3.59195	50.08
3.60862	50.08
3.62528	50.08
3.64195	50.08
3.65862	50.07
3.67528	50.06
3.69195	50.06
3.70862	50.06
3.72528	50.06
3.74195	50.05
3.75862	50.04
3.77528	50.05
3.79195	50.05
3.80862	50.05
3.82528	50.05
3.84195	50.06
3.85862	50.06
3.87528	50.06
3.89195	50.06
3.90862	50.07
3.92528	50.08
3.94195	50.09
3.95862	50.09
3.97528	50.08
3.99195	50.07

[Status Trace (Injection Unit Temperature)]
Interval(msec)	1000
# of Points	240
Start Time(min)	0.009
End Time(min)	3.992
Intensity Units	
Intensity Multiplier	1
R.Time (min)	Intensity
0.00862	99.98
0.02528	99.98
0.04195	99.97
0.05862	99.98
0.07528	99.98
0.09195	99.98
0.10862	99.98
0.12528	99.98
0.14195	99.98
0.15862	99.98
0.17528	99.97
0.19195	99.98
0.20862	99.97
0.22528	99.98
0.24195	99.98
0.25862	99.98
0.27528	99.97
0.29195	99.98
0.30862	99.98
0.32528	99.98
0.34195	99.98
0.35862	99.98
0.37528	99.98
0.39195	99.98
0.40862	99.98
0.42528	99.98
0.44195	99.98
0.45862	99.98
0.47528	99.98
0.49195	99.97
0.50862	99.98
0.52528	99.98
0.54195	99.98
0.55862	99.98
0.57528	99.98
0.59195	99.99
0.60862	99.98
0.62528	99.98
0.64195	99.99
0.65862	99.98
0.67528	99.99
0.69195	99.99
0.70862	99.99
0.72528	99.99
0.74195	99.99
0.75862	99.99
0.77528	99.99
0.79195	99.98
0.80862	99.99
0.82528	99.99
0.84195	99.98
0.85862	99.99
0.87528	99.99
0.89195	99.99
0.90862	99.99
0.92528	99.99
0.94195	99.99
0.95862	99.99
0.97528	99.99
0.99195	99.99
1.00862	99.99
1.02528	99.99
1.04195	99.99
1.05862	99.99
1.07528	99.99
1.09195	99.99
1.10862	99.98
1.12528	99.99
1.14195	99.99
1.15862	99.98
1.17528	99.99
1.19195	99.99
1.20862	99.99
1.22528	99.98
1.24195	99.99
1.25862	99.98
1.27528	99.98
1.29195	99.98
1.30862	99.98
1.32528	99.98
1.34195	99.98
1.35862	99.98
1.37528	99.98
1.39195	99.98
1.40862	99.98
1.42528	99.99
1.44195	99.98
1.45862	99.98
1.47528	99.98
1.49195	99.98
1.50862	99.99
1.52528	99.99
1.54195	99.98
1.55862	99.98
1.57528	99.98
1.59195	99.98
1.60862	99.98
1.62528	99.98
1.64195	99.98
1.65862	99.98
1.67528	99.98
1.69195	99.98
1.70862	99.98
1.72528	99.98
1.74195	99.98
1.75862	99.98
1.77528	99.98
1.79195	99.98
1.80862	99.98
1.82528	99.98
1.84195	99.98
1.85862	99.98
1.87528	99.97
1.89195	99.98
1.90862	99.97
1.92528	99.97
1.94195	99.98
1.95862	99.98
1.97528	99.98
1.99195	99.98
2.00862	99.97
2.02528	99.98
2.04195	99.97
2.05862	99.97
2.07528	99.97
2.09195	99.97
2.10862	99.97
2.12528	99.97
2.14195	99.97
2.15862	99.97
2.17528	99.97
2.19195	99.97
2.20862	99.96
2.22528	99.97
2.24195	99.97
2.25862	99.97
2.27528	99.97
2.29195	99.97
2.30862	99.97
2.32528	99.97
2.34195	99.97
2.35862	99.96
2.37528	99.97
2.39195	99.97
2.40862	99.97
2.42528	99.97
2.44195	99.96
2.45862	99.97
2.47528	99.97
2.49195	99.97
2.50862	99.97
2.52528	99.97
2.54195	99.97
2.55862	99.97
2.57528	99.98
2.59195	99.97
2.60862	99.98
2.62528	99.98
2.64195	99.98
2.65862	99.98
2.67528	99.98
2.69195	99.98
2.70862	99.98
2.72528	99.99
2.74195	99.99
2.75862	99.99
2.77528	99.99
2.79195	99.99
2.80862	99.99
2.82528	100.00
2.84195	100.00
2.85862	100.00
2.87528	100.00
2.89195	100.00
2.90862	100.01
2.92528	100.01
2.94195	100.01
2.95862	100.01
2.97528	100.01
2.99195	100.01
3.00862	100.02
3.02528	100.02
3.04195	100.02
3.05862	100.02
3.07528	100.02
3.09195	100.02
3.10862	100.02
3.12528	100.02
3.14195	100.03
3.15862	100.02
3.17528	100.02
3.19195	100.03
3.20862	100.03
3.22528	100.03
3.24195	100.03
3.25862	100.03
3.27528	100.03
3.29195	100.03
3.30862	100.03
3.32528	100.04
3.34195	100.03
3.35862	100.03
3.37528	100.03
3.39195	100.04
3.40862	100.03
3.42528	100.04
3.44195	100.03
3.45862	100.04
3.47528	100.04
3.49195	100.04
3.50862	100.04
3.52528	100.04
3.54195	100.04
3.55862	100.04
3.57528	100.04
3.59195	100.04
3.60862	100.04
3.62528	100.04
3.64195	100.05
3.65862	100.04
3.67528	100.05
3.69195	100.05
3.70862	100.05
3.72528	100.04
3.74195	100.04
3.75862	100.05
3.77528	100.05
3.79195	100.05
3.80862	100.04
3.82528	100.05
3.84195	100.04
3.85862	100.05
3.87528	100.05
3.89195	100.05
3.90862	100.05
3.92528	100.05
3.94195	100.05
3.95862	100.05
3.97528	100.05
3.99195	100.05

[Status Trace (Carrier Gas Pressure)]
Interval(msec)	1000
# of Points	240
Start Time(min)	0.009
End Time(min)	3.992
Intensity Units	
Intensity Multiplier	1
R.Time (min)	Intensity
0.00862	58.00
0.02528	55.26
0.04195	57.16
0.05862	59.34
0.07528	59.30
0.09195	58.06
0.10862	57.98
0.12528	58.01
0.14195	58.01
0.15862	58.00
0.17528	58.00
0.19195	58.00
0.20862	58.00
0.22528	58.00
0.24195	58.00
0.25862	58.00
0.27528	58.00
0.29195	58.00
0.30862	58.00
0.32528	58.00
0.34195	58.00
0.35862	58.00
0.37528	58.00
0.39195	58.00
0.40862	58.00
0.42528	58.00
0.44195	58.00
0.45862	58.00
0.47528	58.00
0.49195	58.00
0.50862	58.00
0.52528	58.00
0.54195	58.00
0.55862	58.00
0.57528	58.00
0.59195	58.00
0.60862	58.00
0.62528	58.00
0.64195	58.00
0.65862	58.00
0.67528	58.00
0.69195	58.00
0.70862	58.00
0.72528	58.00
0.74195	58.00
0.75862	58.00
0.77528	58.00
0.79195	58.00
0.80862	58.00
0.82528	58.00
0.84195	58.00
0.85862	58.00
0.87528	58.00
0.89195	58.00
0.90862	58.00
0.92528	58.00
0.94195	58.00
0.95862	58.00
0.97528	58.00
0.99195	58.00
1.00862	58.00
1.02528	58.00
1.04195	58.00
1.05862	58.00
1.07528	58.00
1.09195	58.00
1.10862	58.00
1.12528	58.00
1.14195	58.00
1.15862	58.00
1.17528	58.00
1.19195	58.00
1.20862	58.00
1.22528	58.00
1.24195	58.00
1.25862	58.00
1.27528	58.00
1.29195	58.00
1.30862	58.00
1.32528	58.00
1.34195	58.00
1.35862	58.00
1.37528	58.00
1.39195	58.00
1.40862	58.00
1.42528	58.00
1.44195	58.00
1.45862	58.00
1.47528	58.00
1.49195	58.00
1.50862	58.00
1.52528	58.00
1.54195	58.00
1.55862	58.00
1.57528	58.00
1.59195	58.00
1.60862	58.00
1.62528	58.00
1.64195	58.00
1.65862	58.01
1.67528	58.01
1.69195	58.00
1.70862	58.00
1.72528	58.00
1.74195	58.00
1.75862	58.00
1.77528	58.00
1.79195	58.00
1.80862	58.00
1.82528	58.00
1.84195	58.00
1.85862	58.00
1.87528	58.00
1.89195	58.00
1.90862	58.00
1.92528	58.00
1.94195	58.00
1.95862	58.00
1.97528	58.00
1.99195	58.00
2.00862	58.00
2.02528	58.00
2.04195	58.00
2.05862	58.00
2.07528	58.00
2.09195	58.00
2.10862	58.00
2.12528	58.00
2.14195	58.00
2.15862	58.00
2.17528	58.00
2.19195	58.00
2.20862	58.00
2.22528	58.00
2.24195	58.00
2.25862	58.00
2.27528	58.00
2.29195	58.00
2.30862	58.00
2.32528	58.00
2.34195	58.00
2.35862	58.00
2.37528	58.00
2.39195	57.99
2.40862	57.99
2.42528	58.00
2.44195	58.00
2.45862	58.00
2.47528	58.00
2.49195	58.00
2.50862	58.00
2.52528	57.99
2.54195	58.00
2.55862	58.00
2.57528	58.00
2.59195	58.00
2.60862	58.00
2.62528	58.00
2.64195	58.00
2.65862	58.00
2.67528	58.00
2.69195	58.00
2.70862	58.00
2.72528	58.00
2.74195	58.00
2.75862	58.00
2.77528	58.00
2.79195	58.00
2.80862	58.00
2.82528	58.00
2.84195	58.00
2.85862	58.00
2.87528	58.00
2.89195	58.00
2.90862	58.00
2.92528	58.00
2.94195	58.00
2.95862	58.00
2.97528	58.00
2.99195	58.00
3.00862	58.00
3.02528	58.00
3.04195	58.00
3.05862	58.00
3.07528	58.00
3.09195	58.00
3.10862	58.00
3.12528	58.00
3.14195	58.00
3.15862	58.00
3.17528	58.00
3.19195	58.00
3.20862	58.00
3.22528	58.00
3.24195	58.00
3.25862	58.00
3.27528	58.00
3.29195	58.00
3.30862	58.00
3.32528	58.00
3.34195	58.00
3.35862	58.00
3.37528	58.00
3.39195	58.00
3.40862	58.00
3.42528	58.00
3.44195	58.00
3.45862	58.00
3.47528	58.00
3.49195	58.00
3.50862	58.00
3.52528	58.00
3.54195	58.00
3.55862	58.00
3.57528	58.00
3.59195	58.00
3.60862	58.00
3.62528	58.00
3.64195	58.00
3.65862	58.00
3.67528	58.00
3.69195	58.00
3.70862	58.00
3.72528	58.00
3.74195	58.00
3.75862	58.00
3.77528	58.00
3.79195	58.00
3.80862	58.00
3.82528	58.00
3.84195	58.00
3.85862	58.00
3.87528	58.00
3.89195	58.00
3.90862	58.00
3.92528	58.00
3.94195	58.00
3.95862	58.00
3.97528	58.00
3.99195	58.00

[Status Trace (Carrier Gas Flow)]
Interval(msec)	1000
# of Points	240
Start Time(min)	0.009
End Time(min)	3.992
Intensity Units	
Intensity Multiplier	1
R.Time (min)	Intensity
0.00862	34.52
0.02528	34.54
0.04195	34.55
0.05862	34.54
0.07528	34.50
0.09195	34.52
0.10862	34.52
0.12528	34.51
0.14195	34.52
0.15862	34.52
0.17528	34.53
0.19195	34.51
0.20862	34.51
0.22528	34.52
0.24195	34.52
0.25862	34.52
0.27528	34.52
0.29195	34.51
0.30862	34.52
0.32528	34.52
0.34195	34.52
0.35862	34.52
0.37528	34.52
0.39195	34.52
0.40862	34.51
0.42528	34.53
0.44195	34.52
0.45862	34.52
0.47528	34.52
0.49195	34.52
0.50862	34.52
0.52528	34.52
0.54195	34.51
0.55862	34.52
0.57528	34.52
0.59195	34.53
0.60862	34.52
0.62528	34.52
0.64195	34.51
0.65862	34.52
0.67528	34.52
0.69195	34.52
0.70862	34.52
0.72528	34.52
0.74195	34.52
0.75862	34.52
0.77528	34.52
0.79195	34.51
0.80862	34.52
0.82528	34.51
0.84195	34.52
0.85862	34.52
0.87528	34.52
0.89195	34.51
0.90862	34.52
0.92528	34.52
0.94195	34.52
0.95862	34.52
0.97528	34.52
0.99195	34.52
1.00862	34.52
1.02528	34.52
1.04195	34.51
1.05862	34.52
1.07528	34.52
1.09195	34.51
1.10862	34.52
1.12528	34.51
1.14195	34.52
1.15862	34.52
1.17528	34.51
1.19195	34.51
1.20862	34.52
1.22528	34.52
1.24195	34.52
1.25862	34.52
1.27528	34.52
1.29195	34.52
1.30862	34.51
1.32528	34.51
1.34195	34.52
1.35862	34.52
1.37528	34.52
1.39195	34.51
1.40862	34.52
1.42528	34.52
1.44195	34.52
1.45862	34.52
1.47528	34.51
1.49195	34.53
1.50862	34.52
1.52528	34.51
1.54195	34.52
1.55862	34.52
1.57528	34.52
1.59195	34.51
1.60862	34.52
1.62528	34.52
1.64195	34.52
1.65862	34.51
1.67528	34.51
1.69195	34.52
1.70862	34.52
1.72528	34.52
1.74195	34.52
1.75862	34.52
1.77528	34.52
1.79195	34.52
1.80862	34.51
1.82528	34.52
1.84195	34.52
1.85862	34.52
1.87528	34.52
1.89195	34.52
1.90862	34.51
1.92528	34.52
1.94195	34.52
1.95862	34.51
1.97528	34.51
1.99195	34.53
2.00862	34.53
2.02528	34.52
2.04195	34.51
2.05862	34.52
2.07528	34.52
2.09195	34.51
2.10862	34.51
2.12528	34.52
2.14195	34.52
2.15862	34.52
2.17528	34.52
2.19195	34.52
2.20862	34.51
2.22528	34.52
2.24195	34.52
2.25862	34.51
2.27528	34.52
2.29195	34.52
2.30862	34.52
2.32528	34.52
2.34195	34.52
2.35862	34.52
2.37528	34.52
2.39195	34.52
2.40862	34.52
2.42528	34.52
2.44195	34.52
2.45862	34.52
2.47528	34.52
2.49195	34.52
2.50862	34.47
2.52528	34.52
2.54195	34.52
2.55862	34.52
2.57528	34.52
2.59195	34.51
2.60862	34.52
2.62528	34.51
2.64195	34.52
2.65862	34.52
2.67528	34.52
2.69195	34.52
2.70862	34.52
2.72528	34.52
2.74195	34.52
2.75862	34.52
2.77528	34.52
2.79195	34.52
2.80862	34.51
2.82528	34.52
2.84195	34.52
2.85862	34.52
2.87528	34.51
2.89195	34.52
2.90862	34.52
2.92528	34.53
2.94195	34.52
2.95862	34.52
2.97528	34.52
2.99195	34.51
3.00862	34.52
3.02528	34.53
3.04195	34.52
3.05862	34.51
3.07528	34.52
3.09195	34.52
3.10862	34.52
3.12528	34.52
3.14195	34.52
3.15862	34.52
3.17528	34.52
3.19195	34.52
3.20862	34.52
3.22528	34.52
3.24195	34.52
3.25862	34.52
3.27528	34.52
3.29195	34.52
3.30862	34.52
3.32528	34.52
3.34195	34.52
3.35862	34.52
3.37528	34.52
3.39195	34.52
3.40862	34.52
3.42528	34.52
3.44195	34.52
3.45862	34.52
3.47528	34.52
3.49195	34.51
3.50862	34.52
3.52528	34.52
3.54195	34.52
3.55862	34.52
3.57528	34.52
3.59195	34.52
3.60862	34.52
3.62528	34.52
3.64195	34.52
3.65862	34.52
3.67528	34.52
3.69195	34.51
3.70862	34.52
3.72528	34.51
3.74195	34.52
3.75862	34.52
3.77528	34.52
3.79195	34.52
3.80862	34.52
3.82528	34.52
3.84195	34.52
3.85862	34.51
3.87528	34.52
3.89195	34.52
3.90862	34.53
3.92528	34.52
3.94195	34.52
3.95862	34.52
3.97528	34.52
3.99195	34.52

[Status Trace (Column Flow)]
Interval(msec)	1000
# of Points	240
Start Time(min)	0.009
End Time(min)	3.992
Intensity Units	
Intensity Multiplier	1
R.Time (min)	Intensity
0.00862	5.56
0.02528	5.24
0.04195	5.46
0.05862	5.72
0.07528	5.72
0.09195	5.57
0.10862	5.56
0.12528	5.56
0.14195	5.56
0.15862	5.56
0.17528	5.56
0.19195	5.56
0.20862	5.56
0.22528	5.56
0.24195	5.56
0.25862	5.56
0.27528	5.56
0.29195	5.56
0.30862	5.57
0.32528	5.56
0.34195	5.56
0.35862	5.56
0.37528	5.56
0.39195	5.56
0.40862	5.56
0.42528	5.56
0.44195	5.56
0.45862	5.56
0.47528	5.56
0.49195	5.56
0.50862	5.56
0.52528	5.56
0.54195	5.56
0.55862	5.56
0.57528	5.56
0.59195	5.56
0.60862	5.56
0.62528	5.56
0.64195	5.56
0.65862	5.56
0.67528	5.56
0.69195	5.56
0.70862	5.56
0.72528	5.56
0.74195	5.56
0.75862	5.56
0.77528	5.56
0.79195	5.56
0.80862	5.56
0.82528	5.56
0.84195	5.56
0.85862	5.56
0.87528	5.56
0.89195	5.56
0.90862	5.56
0.92528	5.56
0.94195	5.56
0.95862	5.56
0.97528	5.56
0.99195	5.56
1.00862	5.56
1.02528	5.56
1.04195	5.56
1.05862	5.56
1.07528	5.56
1.09195	5.56
1.10862	5.56
1.12528	5.56
1.14195	5.56
1.15862	5.56
1.17528	5.57
1.19195	5.57
1.20862	5.57
1.22528	5.57
1.24195	5.56
1.25862	5.56
1.27528	5.56
1.29195	5.56
1.30862	5.56
1.32528	5.56
1.34195	5.56
1.35862	5.56
1.37528	5.56
1.39195	5.56
1.40862	5.56
1.42528	5.56
1.44195	5.56
1.45862	5.57
1.47528	5.57
1.49195	5.57
1.50862	5.57
1.52528	5.56
1.54195	5.56
1.55862	5.56
1.57528	5.56
1.59195	5.56
1.60862	5.56
1.62528	5.56
1.64195	5.55
1.65862	5.55
1.67528	5.53
1.69195	5.52
1.70862	5.51
1.72528	5.50
1.74195	5.49
1.75862	5.48
1.77528	5.47
1.79195	5.46
1.80862	5.45
1.82528	5.44
1.84195	5.43
1.85862	5.42
1.87528	5.41
1.89195	5.40
1.90862	5.39
1.92528	5.38
1.94195	5.37
1.95862	5.36
1.97528	5.35
1.99195	5.34
2.00862	5.33
2.02528	5.32
2.04195	5.31
2.05862	5.30
2.07528	5.29
2.09195	5.28
2.10862	5.27
2.12528	5.26
2.14195	5.25
2.15862	5.24
2.17528	5.23
2.19195	5.23
2.20862	5.21
2.22528	5.21
2.24195	5.20
2.25862	5.19
2.27528	5.18
2.29195	5.17
2.30862	5.16
2.32528	5.15
2.34195	5.14
2.35862	5.13
2.37528	5.13
2.39195	5.12
2.40862	5.13
2.42528	5.13
2.44195	5.13
2.45862	5.13
2.47528	5.12
2.49195	5.12
2.50862	5.12
2.52528	5.12
2.54195	5.12
2.55862	5.12
2.57528	5.12
2.59195	5.12
2.60862	5.12
2.62528	5.12
2.64195	5.12
2.65862	5.12
2.67528	5.12
2.69195	5.12
2.70862	5.12
2.72528	5.12
2.74195	5.12
2.75862	5.12
2.77528	5.12
2.79195	5.12
2.80862	5.12
2.82528	5.12
2.84195	5.12
2.85862	5.12
2.87528	5.12
2.89195	5.12
2.90862	5.12
2.92528	5.12
2.94195	5.12
2.95862	5.12
2.97528	5.12
2.99195	5.12
3.00862	5.12
3.02528	5.12
3.04195	5.12
3.05862	5.12
3.07528	5.12
3.09195	5.12
3.10862	5.12
3.12528	5.12
3.14195	5.12
3.15862	5.12
3.17528	5.12
3.19195	5.12
3.20862	5.12
3.22528	5.12
3.24195	5.11
3.25862	5.11
3.27528	5.11
3.29195	5.11
3.30862	5.11
3.32528	5.11
3.34195	5.11
3.35862	5.11
3.37528	5.11
3.39195	5.12
3.40862	5.12
3.42528	5.12
3.44195	5.12
3.45862	5.12
3.47528	5.12
3.49195	5.12
3.50862	5.12
3.52528	5.12
3.54195	5.12
3.55862	5.12
3.57528	5.12
3.59195	5.12
3.60862	5.12
3.62528	5.12
3.64195	5.12
3.65862	5.12
3.67528	5.12
3.69195	5.12
3.70862	5.12
3.72528	5.12
3.74195	5.12
3.75862	5.12
3.77528	5.12
3.79195	5.12
3.80862	5.12
3.82528	5.12
3.84195	5.12
3.85862	5.12
3.87528	5.12
3.89195	5.12
3.90862	5.12
3.92528	5.12
3.94195	5.12
3.95862	5.12
3.97528	5.12
3.99195	5.12

[Status Trace (Linear Velocity)]
Interval(msec)	1000
# of Points	240
Start Time(min)	0.009
End Time(min)	3.992
Intensity Units	
Intensity Multiplier	1
R.Time (min)	Intensity
0.00862	39.02
0.02528	37.22
0.04195	38.47
0.05862	39.90
0.07528	39.87
0.09195	39.06
0.10862	39.01
0.12528	39.03
0.14195	39.03
0.15862	39.03
0.17528	39.03
0.19195	39.03
0.20862	39.03
0.22528	39.03
0.24195	39.03
0.25862	39.03
0.27528	39.03
0.29195	39.03
0.30862	39.03
0.32528	39.03
0.34195	39.03
0.35862	39.03
0.37528	39.03
0.39195	39.03
0.40862	39.03
0.42528	39.03
0.44195	39.03
0.45862	39.03
0.47528	39.03
0.49195	39.03
0.50862	39.02
0.52528	39.03
0.54195	39.03
0.55862	39.03
0.57528	39.03
0.59195	39.03
0.60862	39.03
0.62528	39.03
0.64195	39.03
0.65862	39.03
0.67528	39.02
0.69195	39.02
0.70862	39.02
0.72528	39.02
0.74195	39.02
0.75862	39.03
0.77528	39.03
0.79195	39.03
0.80862	39.03
0.82528	39.03
0.84195	39.03
0.85862	39.03
0.87528	39.03
0.89195	39.03
0.90862	39.03
0.92528	39.03
0.94195	39.03
0.95862	39.03
0.97528	39.03
0.99195	39.03
1.00862	39.03
1.02528	39.03
1.04195	39.03
1.05862	39.03
1.07528	39.03
1.09195	39.03
1.10862	39.03
1.12528	39.03
1.14195	39.03
1.15862	39.03
1.17528	39.03
1.19195	39.03
1.20862	39.03
1.22528	39.03
1.24195	39.03
1.25862	39.03
1.27528	39.03
1.29195	39.03
1.30862	39.03
1.32528	39.03
1.34195	39.03
1.35862	39.03
1.37528	39.03
1.39195	39.03
1.40862	39.03
1.42528	39.03
1.44195	39.03
1.45862	39.03
1.47528	39.03
1.49195	39.03
1.50862	39.03
1.52528	39.03
1.54195	39.03
1.55862	39.03
1.57528	39.03
1.59195	39.03
1.60862	39.02
1.62528	39.01
1.64195	39.00
1.65862	38.97
1.67528	38.94
1.69195	38.90
1.70862	38.86
1.72528	38.83
1.74195	38.80
1.75862	38.77
1.77528	38.74
1.79195	38.71
1.80862	38.67
1.82528	38.64
1.84195	38.62
1.85862	38.58
1.87528	38.55
1.89195	38.52
1.90862	38.49
1.92528	38.46
1.94195	38.43
1.95862	38.40
1.97528	38.37
1.99195	38.34
2.00862	38.31
2.02528	38.28
2.04195	38.25
2.05862	38.22
2.07528	38.19
2.09195	38.16
2.10862	38.13
2.12528	38.10
2.14195	38.07
2.15862	38.04
2.17528	38.01
2.19195	37.98
2.20862	37.95
2.22528	37.92
2.24195	37.89
2.25862	37.86
2.27528	37.83
2.29195	37.80
2.30862	37.77
2.32528	37.74
2.34195	37.72
2.35862	37.69
2.37528	37.67
2.39195	37.66
2.40862	37.66
2.42528	37.67
2.44195	37.67
2.45862	37.67
2.47528	37.66
2.49195	37.66
2.50862	37.66
2.52528	37.65
2.54195	37.66
2.55862	37.66
2.57528	37.66
2.59195	37.66
2.60862	37.66
2.62528	37.66
2.64195	37.66
2.65862	37.66
2.67528	37.66
2.69195	37.66
2.70862	37.65
2.72528	37.65
2.74195	37.65
2.75862	37.66
2.77528	37.66
2.79195	37.65
2.80862	37.65
2.82528	37.65
2.84195	37.65
2.85862	37.65
2.87528	37.65
2.89195	37.65
2.90862	37.65
2.92528	37.65
2.94195	37.65
2.95862	37.65
2.97528	37.64
2.99195	37.64
3.00862	37.64
3.02528	37.64
3.04195	37.64
3.05862	37.64
3.07528	37.64
3.09195	37.64
3.10862	37.64
3.12528	37.64
3.14195	37.64
3.15862	37.64
3.17528	37.64
3.19195	37.64
3.20862	37.64
3.22528	37.64
3.24195	37.63
3.25862	37.63
3.27528	37.63
3.29195	37.63
3.30862	37.63
3.32528	37.63
3.34195	37.63
3.35862	37.63
3.37528	37.63
3.39195	37.64
3.40862	37.64
3.42528	37.64
3.44195	37.64
3.45862	37.64
3.47528	37.64
3.49195	37.64
3.50862	37.64
3.52528	37.64
3.54195	37.64
3.55862	37.64
3.57528	37.64
3.59195	37.63
3.60862	37.64
3.62528	37.63
3.64195	37.64
3.65862	37.64
3.67528	37.64
3.69195	37.64
3.70862	37.64
3.72528	37.64
3.74195	37.64
3.75862	37.64
3.77528	37.64
3.79195	37.64
3.80862	37.64
3.82528	37.64
3.84195	37.64
3.85862	37.64
3.87528	37.64
3.89195	37.64
3.90862	37.64
3.92528	37.63
3.94195	37.63
3.95862	37.63
3.97528	37.63
3.99195	37.64

