[Header]
Application Name	LabSolutions
Version	5.110
Data File Name	C:\Users\User\Desktop\GC Analyses\Jack\Nachusa Grasslands Sampling\T1 Timepoint July 12th\T1_07122022_023.gcd
Output Date	3/14/2023
Output Time	3:40:58 PM

[File Information]
Type	Data File
Generated	3/8/2023 3:42:27 PM
Generated by	System Administrator
Modified	3/8/2023 3:49:02 PM
Modified by	System Administrator

[Sample Information]
Operator Name	System Administrator
Acquired	3/8/2023 3:45:00 PM
Sample Type	0:Unknown
Level	0
Sample Name	023
Sample ID	023
ISTD Amount1	1
ISTD Amount2	1
ISTD Amount3	1
ISTD Amount4	1
ISTD Amount5	1
ISTD Amount6	1
ISTD Amount7	1
ISTD Amount8	1
ISTD Amount9	1
ISTD Amount10	1
ISTD Amount11	1
ISTD Amount12	1
ISTD Amount13	1
ISTD Amount14	1
ISTD Amount15	1
ISTD Amount16	1
ISTD Amount17	1
ISTD Amount18	1
ISTD Amount19	1
ISTD Amount20	1
ISTD Amount21	1
ISTD Amount22	1
ISTD Amount23	1
ISTD Amount24	1
ISTD Amount25	1
ISTD Amount26	1
ISTD Amount27	1
ISTD Amount28	1
ISTD Amount29	1
ISTD Amount30	1
ISTD Amount31	1
ISTD Amount32	1
Sample Amount	1
Dilution Factor	1
Vial#	22
Injection Volume	1
Injection Count	1
Bar Code	

[Original Files]
Data File	C:\Users\User\Desktop\GC Analyses\Jack\Nachusa Grasslands Sampling\T1 Timepoint July 12th\T1_07122022_023.gcd
Method File	C:\LabSolutions\Data\GHG_4min_2022\ghg3_togas_w_acet_4 min_new_int.gcm
Batch File	C:\LabSolutions\Data\AutoSamplerTesting\T1_07122022.gcb
Report Format File	c:\LabSolutions\System\DEFAULT.lsr

[File Description]


[Configuration]
Instrument Name	C0B7VH3-Instrument1
Instrument #	1
Line #	1
# of Detectors	3
Detector ID	DET#1	DET#2	DET#3
Detector Name	FID	PTCD	ECD
# of Channels	1	1	1

[Peak Table(Ch1)]
# of Peaks	3
Peak#	R.Time	I.Time	F.Time	Area	Height	A/H	Conc.	Mark	ID#	Name	k'	Plate #	Plate Ht.	Tailing	Resolution	Sep.Factor	Area Ratio	Height Ratio	Conc. %	Norm Conc.
1	1.483	1.439	1.534	2507	710	3.532	17.701	   	1	CO	0.000	4756	31.539	0.000	0.000	0.000	0	0	1.875	1.875
2	1.567	1.534	1.655	20631	10284	2.006	398.923	 V 	2	CH4	0.057	11291	13.285	1.273	1.163	0.000	0	0	42.250	42.250
3	1.996	1.941	2.576	2102150	989049	2.125	527.583	   	3	CO2	0.346	17118	8.763	1.308	7.148	6.087	0	0	55.876	55.876

[Peak Table(Ch2)]
# of Peaks	0

[Peak Table(Ch3)]
# of Peaks	5
Peak#	R.Time	I.Time	F.Time	Area	Height	A/H	Conc.	Mark	ID#	Name	k'	Plate #	Plate Ht.	Tailing	Resolution	Sep.Factor	Area Ratio	Height Ratio	Conc. %	Norm Conc.
1	2.458	1.993	2.513	3263	449	7.270	0.000	   			0.000	7604	19.727	0.000	0.000	0.000	0	0	0.000	0.000
2	2.543	2.513	2.631	1093	240	4.545	0.000	 V 			0.034	3884	38.622	0.000	0.611	0.000	0	0	0.000	0.000
3	2.689	2.642	2.722	331	95	3.475	0.000	   			0.094	5251	28.566	0.000	0.941	2.739	0	0	0.000	0.000
4	2.873	2.722	3.078	60513	15458	3.915	1.546	 V 	1	N2O	0.169	12575	11.928	1.644	1.461	1.794	0	0	100.000	100.000
5	3.346	3.239	3.962	12063	499	24.156	0.000	   	2	SF6	0.361	498	301.481	3.416	1.347	2.142	0	0	0.000	0.000

[Compound Results(Ch1)]
# of IDs	6
ID#	Name	R.Time	Area	Height	Conc.	Curve	3rd	2nd	1st	Constant	Area Ratio	Height Ratio	Conc. %	Norm Conc.
1	CO	1.483	2507	710	17.701	Linear	0.000000e+00	0.000000e+00	1.416423e+002	0.000000e+00	0	0	1.875	1.875
2	CH4	1.567	20631	10284	398.923	Linear	0.000000e+00	0.000000e+00	5.171738e+001	0.000000e+00	0	0	42.250	42.250
3	CO2	1.996	2102150	989049	527.583	Linear	0.000000e+00	0.000000e+00	3.984494e+003	0.000000e+00	0	0	55.876	55.876
4	Ethylene	0.000	0	0	0.000	Linear	0.000000e+00	0.000000e+00	0.000000e+00	0.000000e+00	0	0	0.000	0.000
5	Acetylene	0.000	0	0	0.000	Linear	0.000000e+00	0.000000e+00	0.000000e+00	0.000000e+00	0	0	0.000	0.000
6	Ethane	0.000	0	0	0.000	Linear	0.000000e+00	0.000000e+00	0.000000e+00	0.000000e+00	0	0	0.000	0.000

[Compound Results(Ch2)]
# of IDs	5
ID#	Name	R.Time	Area	Height	Conc.	Curve	3rd	2nd	1st	Constant	Area Ratio	Height Ratio	Conc. %	Norm Conc.
1	Hydrogen	0.000	0	0	0.000	Linear	0.000000e+00	0.000000e+00	0.000000e+00	0.000000e+00	0	0	0.000	0.000
2	Oxygen	0.000	0	0	0.000	Linear	0.000000e+00	0.000000e+00	0.000000e+00	0.000000e+00	0	0	0.000	0.000
3	Nitrogen	0.000	0	0	0.000	Linear	0.000000e+00	0.000000e+00	0.000000e+00	0.000000e+00	0	0	0.000	0.000
4	Methane	0.000	0	0	0.000	Linear	0.000000e+00	0.000000e+00	0.000000e+00	0.000000e+00	0	0	0.000	0.000
5	Carbon Monoxide	0.000	0	0	0.000	Linear	0.000000e+00	0.000000e+00	0.000000e+00	0.000000e+00	0	0	0.000	0.000

[Compound Results(Ch3)]
# of IDs	2
ID#	Name	R.Time	Area	Height	Conc.	Curve	3rd	2nd	1st	Constant	Area Ratio	Height Ratio	Conc. %	Norm Conc.
1	N2O	2.873	60513	15458	1.546	Linear	0.000000e+00	0.000000e+00	3.915173e+004	0.000000e+00	0	0	100.000	100.000
2	SF6	3.346	12063	499	0.000	Linear	0.000000e+00	0.000000e+00	0.000000e+00	0.000000e+00	0	0	0.000	0.000

[Group Results(Ch1)]
# of Groups	0

[Group Results(Ch2)]
# of Groups	0

[Group Results(Ch3)]
# of Groups	0

[Chromatogram (Ch1)]
Interval(msec)	220
# of Points	1091
Start Time(min)	0.002
End Time(min)	3.998
R.Time (min)	Intensity
0.00167	20
0.00533	20
0.00900	17
0.01267	13
0.01633	10
0.02000	10
0.02367	7
0.02733	5
0.03100	7
0.03467	10
0.03833	15
0.04200	20
0.04567	22
0.04933	18
0.05300	14
0.05667	13
0.06033	15
0.06400	20
0.06767	28
0.07133	29
0.07500	23
0.07867	13
0.08233	4
0.08600	-1
0.08967	-3
0.09333	2
0.09700	6
0.10067	4
0.10433	1
0.10800	1
0.11167	4
0.11533	6
0.11900	7
0.12267	10
0.12633	8
0.13000	3
0.13367	2
0.13733	10
0.14100	20
0.14467	26
0.14833	26
0.15200	20
0.15567	15
0.15933	11
0.16300	9
0.16667	10
0.17033	11
0.17400	8
0.17767	4
0.18133	0
0.18500	0
0.18867	1
0.19233	-2
0.19600	-4
0.19967	-3
0.20333	-0
0.20700	6
0.21067	13
0.21433	15
0.21800	14
0.22167	10
0.22533	6
0.22900	-1
0.23267	-6
0.23633	-6
0.24000	-0
0.24367	10
0.24733	20
0.25100	25
0.25467	27
0.25833	24
0.26200	18
0.26567	13
0.26933	10
0.27300	5
0.27667	-4
0.28033	-12
0.28400	-19
0.28767	-23
0.29133	-24
0.29500	-22
0.29867	-18
0.30233	-13
0.30600	-8
0.30967	-5
0.31333	-1
0.31700	6
0.32067	16
0.32433	24
0.32800	25
0.33167	22
0.33533	20
0.33900	22
0.34267	26
0.34633	23
0.35000	16
0.35367	15
0.35733	19
0.36100	26
0.36467	30
0.36833	31
0.37200	27
0.37567	21
0.37933	17
0.38300	15
0.38667	17
0.39033	18
0.39400	17
0.39767	16
0.40133	15
0.40500	17
0.40867	21
0.41233	27
0.41600	33
0.41967	35
0.42333	38
0.42700	38
0.43067	35
0.43433	29
0.43800	22
0.44167	15
0.44533	12
0.44900	11
0.45267	9
0.45633	7
0.46000	4
0.46367	2
0.46733	6
0.47100	11
0.47467	11
0.47833	6
0.48200	3
0.48567	1
0.48933	1
0.49300	0
0.49667	-4
0.50033	-10
0.50400	-8
0.50767	-4
0.51133	-3
0.51500	-3
0.51867	-2
0.52233	-2
0.52600	-2
0.52967	-3
0.53333	-5
0.53700	-10
0.54067	-17
0.54433	-21
0.54800	-24
0.55167	-25
0.55533	-26
0.55900	-29
0.56267	-31
0.56633	-28
0.57000	-22
0.57367	-18
0.57733	-17
0.58100	-12
0.58467	-5
0.58833	-4
0.59200	-10
0.59567	-17
0.59933	-18
0.60300	-14
0.60667	-10
0.61033	-8
0.61400	-3
0.61767	-2
0.62133	-9
0.62500	-18
0.62867	-26
0.63233	-29
0.63600	-30
0.63967	-27
0.64333	-22
0.64700	-17
0.65067	-14
0.65433	-10
0.65800	-10
0.66167	-13
0.66533	-12
0.66900	-7
0.67267	-1
0.67633	1
0.68000	0
0.68367	-2
0.68733	-6
0.69100	-14
0.69467	-21
0.69833	-25
0.70200	-25
0.70567	-22
0.70933	-15
0.71300	-14
0.71667	-19
0.72033	-27
0.72400	-37
0.72767	-45
0.73133	-49
0.73500	-50
0.73867	-48
0.74233	-45
0.74600	-36
0.74967	-23
0.75333	-13
0.75700	-11
0.76067	-13
0.76433	-16
0.76800	-21
0.77167	-24
0.77533	-25
0.77900	-23
0.78267	-21
0.78633	-18
0.79000	-16
0.79367	-16
0.79733	-18
0.80100	-22
0.80467	-27
0.80833	-32
0.81200	-35
0.81567	-34
0.81933	-31
0.82300	-28
0.82667	-26
0.83033	-24
0.83400	-21
0.83767	-21
0.84133	-24
0.84500	-30
0.84867	-34
0.85233	-29
0.85600	-21
0.85967	-14
0.86333	-11
0.86700	-9
0.87067	-9
0.87433	-16
0.87800	-28
0.88167	-41
0.88533	-50
0.88900	-51
0.89267	-48
0.89633	-47
0.90000	-51
0.90367	-53
0.90733	-53
0.91100	-48
0.91467	-43
0.91833	-45
0.92200	-52
0.92567	-56
0.92933	-56
0.93300	-55
0.93667	-56
0.94033	-52
0.94400	-44
0.94767	-39
0.95133	-35
0.95500	-34
0.95867	-29
0.96233	-17
0.96600	-4
0.96967	1
0.97333	-6
0.97700	-18
0.98067	-29
0.98433	-42
0.98800	-53
0.99167	-59
0.99533	-61
0.99900	-60
1.00267	-59
1.00633	-59
1.01000	-58
1.01367	-58
1.01733	-59
1.02100	-55
1.02467	-45
1.02833	-36
1.03200	-31
1.03567	-29
1.03933	-24
1.04300	-19
1.04667	-14
1.05033	-16
1.05400	-28
1.05767	-41
1.06133	-51
1.06500	-57
1.06867	-60
1.07233	-62
1.07600	-68
1.07967	-75
1.08333	-82
1.08700	-81
1.09067	-77
1.09433	-75
1.09800	-79
1.10167	-84
1.10533	-84
1.10900	-80
1.11267	-73
1.11633	-68
1.12000	-68
1.12367	-70
1.12733	-69
1.13100	-66
1.13467	-64
1.13833	-58
1.14200	-50
1.14567	-45
1.14933	-40
1.15300	-32
1.15667	-27
1.16033	-24
1.16400	-24
1.16767	-26
1.17133	-31
1.17500	-36
1.17867	-40
1.18233	-43
1.18600	-48
1.18967	-52
1.19333	-52
1.19700	-50
1.20067	-47
1.20433	-41
1.20800	-38
1.21167	-38
1.21533	-45
1.21900	-52
1.22267	-59
1.22633	-61
1.23000	-62
1.23367	-64
1.23733	-64
1.24100	-64
1.24467	-60
1.24833	-54
1.25200	-52
1.25567	-53
1.25933	-49
1.26300	-44
1.26667	-40
1.27033	-43
1.27400	-51
1.27767	-63
1.28133	-76
1.28500	-82
1.28867	-82
1.29233	-80
1.29600	-81
1.29967	-81
1.30333	-81
1.30700	-78
1.31067	-75
1.31433	-71
1.31800	-64
1.32167	-55
1.32533	-48
1.32900	-47
1.33267	-48
1.33633	-53
1.34000	-60
1.34367	-66
1.34733	-67
1.35100	-66
1.35467	-64
1.35833	-61
1.36200	-55
1.36567	-51
1.36933	-50
1.37300	-52
1.37667	-51
1.38033	-51
1.38400	-57
1.38767	-63
1.39133	-66
1.39500	-65
1.39867	-65
1.40233	-65
1.40600	-63
1.40967	-58
1.41333	-54
1.41700	-56
1.42067	-63
1.42433	-70
1.42800	-71
1.43167	-68
1.43533	-63
1.43900	-47
1.44267	26
1.44633	186
1.45000	370
1.45367	512
1.45733	595
1.46100	631
1.46467	639
1.46833	633
1.47200	630
1.47567	638
1.47933	654
1.48300	666
1.48667	655
1.49033	615
1.49400	552
1.49767	477
1.50133	402
1.50500	332
1.50867	267
1.51233	211
1.51600	168
1.51967	136
1.52333	108
1.52700	85
1.53067	65
1.53433	57
1.53800	113
1.54167	414
1.54533	1252
1.54900	2770
1.55267	4730
1.55633	6704
1.56000	8372
1.56367	9584
1.56733	10246
1.57100	10224
1.57467	9439
1.57833	8029
1.58200	6332
1.58567	4693
1.58933	3319
1.59300	2270
1.59667	1517
1.60033	996
1.60400	645
1.60767	411
1.61133	256
1.61500	153
1.61867	84
1.62233	40
1.62600	18
1.62967	14
1.63333	10
1.63700	3
1.64067	-9
1.64433	-19
1.64800	-22
1.65167	-25
1.65533	-33
1.65900	-38
1.66267	-36
1.66633	-29
1.67000	-26
1.67367	-34
1.67733	-50
1.68100	-67
1.68467	-82
1.68833	-92
1.69200	-97
1.69567	-94
1.69933	-83
1.70300	-68
1.70667	-55
1.71033	-46
1.71400	-42
1.71767	-42
1.72133	-43
1.72500	-42
1.72867	-41
1.73233	-47
1.73600	-55
1.73967	-59
1.74333	-60
1.74700	-53
1.75067	-43
1.75433	-32
1.75800	-24
1.76167	-20
1.76533	-18
1.76900	-19
1.77267	-20
1.77633	-21
1.78000	-23
1.78367	-28
1.78733	-31
1.79100	-33
1.79467	-33
1.79833	-34
1.80200	-35
1.80567	-37
1.80933	-36
1.81300	-30
1.81667	-21
1.82033	-16
1.82400	-15
1.82767	-17
1.83133	-19
1.83500	-24
1.83867	-28
1.84233	-29
1.84600	-30
1.84967	-34
1.85333	-36
1.85700	-31
1.86067	-19
1.86433	-8
1.86800	-3
1.87167	-5
1.87533	-11
1.87900	-13
1.88267	-12
1.88633	-11
1.89000	-12
1.89367	-17
1.89733	-21
1.90100	-25
1.90467	-32
1.90833	-40
1.91200	-50
1.91567	-59
1.91933	-66
1.92300	-72
1.92667	-70
1.93033	-65
1.93400	-61
1.93767	-56
1.94133	-50
1.94500	-43
1.94867	-31
1.95233	3
1.95600	173
1.95967	1115
1.96333	5438
1.96700	20549
1.97067	61117
1.97433	145394
1.97800	282159
1.98167	459149
1.98533	646825
1.98900	813103
1.99267	932625
1.99633	989046
2.00000	976180
2.00367	899866
2.00733	777376
2.01100	632537
2.01467	488572
2.01833	361927
2.02200	260068
2.02567	183327
2.02933	128132
2.03300	89657
2.03667	63360
2.04033	45574
2.04400	33569
2.04767	25425
2.05133	19846
2.05500	15965
2.05867	13208
2.06233	11204
2.06600	9704
2.06967	8549
2.07333	7639
2.07700	6904
2.08067	6301
2.08433	5798
2.08800	5377
2.09167	5016
2.09533	4697
2.09900	4410
2.10267	4147
2.10633	3909
2.11000	3692
2.11367	3498
2.11733	3329
2.12100	3178
2.12467	3040
2.12833	2910
2.13200	2792
2.13567	2688
2.13933	2590
2.14300	2495
2.14667	2407
2.15033	2323
2.15400	2242
2.15767	2164
2.16133	2092
2.16500	2026
2.16867	1967
2.17233	1911
2.17600	1856
2.17967	1802
2.18333	1748
2.18700	1697
2.19067	1648
2.19433	1599
2.19800	1555
2.20167	1514
2.20533	1478
2.20900	1444
2.21267	1409
2.21633	1374
2.22000	1344
2.22367	1320
2.22733	1299
2.23100	1280
2.23467	1257
2.23833	1231
2.24200	1203
2.24567	1173
2.24933	1144
2.25300	1120
2.25667	1101
2.26033	1080
2.26400	1064
2.26767	1052
2.27133	1041
2.27500	1024
2.27867	1003
2.28233	980
2.28600	959
2.28967	937
2.29333	915
2.29700	894
2.30067	876
2.30433	859
2.30800	844
2.31167	831
2.31533	822
2.31900	817
2.32267	814
2.32633	808
2.33000	800
2.33367	791
2.33733	781
2.34100	772
2.34467	766
2.34833	762
2.35200	758
2.35567	753
2.35933	747
2.36300	739
2.36667	727
2.37033	713
2.37400	707
2.37767	705
2.38133	699
2.38500	684
2.38867	665
2.39233	647
2.39600	633
2.39967	624
2.40333	621
2.40700	618
2.41067	615
2.41433	609
2.41800	601
2.42167	598
2.42533	598
2.42900	601
2.43267	604
2.43633	605
2.44000	605
2.44367	607
2.44733	604
2.45100	596
2.45467	591
2.45833	594
2.46200	594
2.46567	589
2.46933	587
2.47300	584
2.47667	576
2.48033	571
2.48400	569
2.48767	564
2.49133	559
2.49500	554
2.49867	551
2.50233	548
2.50600	543
2.50967	536
2.51333	530
2.51700	522
2.52067	512
2.52433	504
2.52800	499
2.53167	498
2.53533	503
2.53900	509
2.54267	513
2.54633	515
2.55000	515
2.55367	516
2.55733	520
2.56100	524
2.56467	521
2.56833	512
2.57200	501
2.57567	492
2.57933	487
2.58300	485
2.58667	485
2.59033	485
2.59400	486
2.59767	491
2.60133	499
2.60500	505
2.60867	507
2.61233	506
2.61600	506
2.61967	505
2.62333	502
2.62700	500
2.63067	497
2.63433	492
2.63800	485
2.64167	480
2.64533	480
2.64900	483
2.65267	485
2.65633	484
2.66000	482
2.66367	479
2.66733	478
2.67100	477
2.67467	479
2.67833	481
2.68200	484
2.68567	488
2.68933	490
2.69300	492
2.69667	492
2.70033	489
2.70400	486
2.70767	488
2.71133	490
2.71500	491
2.71867	490
2.72233	489
2.72600	491
2.72967	494
2.73333	497
2.73700	497
2.74067	495
2.74433	492
2.74800	490
2.75167	486
2.75533	481
2.75900	477
2.76267	477
2.76633	482
2.77000	487
2.77367	490
2.77733	489
2.78100	486
2.78467	482
2.78833	478
2.79200	478
2.79567	481
2.79933	487
2.80300	491
2.80667	493
2.81033	491
2.81400	486
2.81767	485
2.82133	493
2.82500	505
2.82867	514
2.83233	518
2.83600	521
2.83967	520
2.84333	515
2.84700	508
2.85067	501
2.85433	496
2.85800	491
2.86167	488
2.86533	489
2.86900	492
2.87267	496
2.87633	499
2.88000	500
2.88367	502
2.88733	506
2.89100	509
2.89467	504
2.89833	495
2.90200	487
2.90567	487
2.90933	494
2.91300	506
2.91667	516
2.92033	524
2.92400	527
2.92767	525
2.93133	525
2.93500	527
2.93867	525
2.94233	520
2.94600	516
2.94967	515
2.95333	514
2.95700	511
2.96067	510
2.96433	510
2.96800	511
2.97167	514
2.97533	518
2.97900	519
2.98267	517
2.98633	511
2.99000	504
2.99367	496
2.99733	492
3.00100	497
3.00467	510
3.00833	528
3.01200	544
3.01567	551
3.01933	553
3.02300	551
3.02667	544
3.03033	530
3.03400	516
3.03767	511
3.04133	514
3.04500	516
3.04867	514
3.05233	513
3.05600	514
3.05967	516
3.06333	520
3.06700	526
3.07067	536
3.07433	544
3.07800	548
3.08167	549
3.08533	549
3.08900	543
3.09267	535
3.09633	527
3.10000	522
3.10367	516
3.10733	511
3.11100	509
3.11467	510
3.11833	515
3.12200	519
3.12567	521
3.12933	527
3.13300	533
3.13667	535
3.14033	534
3.14400	532
3.14767	528
3.15133	525
3.15500	521
3.15867	517
3.16233	514
3.16600	514
3.16967	512
3.17333	509
3.17700	506
3.18067	507
3.18433	511
3.18800	515
3.19167	518
3.19533	523
3.19900	528
3.20267	529
3.20633	525
3.21000	518
3.21367	513
3.21733	509
3.22100	507
3.22467	509
3.22833	517
3.23200	526
3.23567	531
3.23933	532
3.24300	530
3.24667	524
3.25033	517
3.25400	510
3.25767	501
3.26133	491
3.26500	482
3.26867	478
3.27233	477
3.27600	477
3.27967	478
3.28333	484
3.28700	490
3.29067	494
3.29433	501
3.29800	508
3.30167	513
3.30533	515
3.30900	511
3.31267	504
3.31633	501
3.32000	504
3.32367	511
3.32733	518
3.33100	523
3.33467	524
3.33833	523
3.34200	519
3.34567	516
3.34933	519
3.35300	524
3.35667	526
3.36033	526
3.36400	524
3.36767	519
3.37133	517
3.37500	515
3.37867	514
3.38233	511
3.38600	509
3.38967	510
3.39333	509
3.39700	506
3.40067	504
3.40433	502
3.40800	502
3.41167	501
3.41533	501
3.41900	503
3.42267	507
3.42633	513
3.43000	521
3.43367	525
3.43733	527
3.44100	526
3.44467	526
3.44833	529
3.45200	527
3.45567	517
3.45933	502
3.46300	486
3.46667	471
3.47033	463
3.47400	458
3.47767	455
3.48133	451
3.48500	451
3.48867	456
3.49233	459
3.49600	459
3.49967	459
3.50333	460
3.50700	460
3.51067	462
3.51433	469
3.51800	478
3.52167	485
3.52533	486
3.52900	487
3.53267	494
3.53633	504
3.54000	514
3.54367	515
3.54733	507
3.55100	495
3.55467	486
3.55833	480
3.56200	475
3.56567	473
3.56933	472
3.57300	468
3.57667	465
3.58033	463
3.58400	462
3.58767	465
3.59133	468
3.59500	468
3.59867	468
3.60233	469
3.60600	471
3.60967	473
3.61333	476
3.61700	482
3.62067	488
3.62433	491
3.62800	491
3.63167	489
3.63533	487
3.63900	485
3.64267	479
3.64633	470
3.65000	463
3.65367	459
3.65733	458
3.66100	459
3.66467	460
3.66833	459
3.67200	455
3.67567	452
3.67933	451
3.68300	453
3.68667	452
3.69033	448
3.69400	442
3.69767	440
3.70133	440
3.70500	443
3.70867	447
3.71233	448
3.71600	445
3.71967	444
3.72333	446
3.72700	453
3.73067	458
3.73433	461
3.73800	460
3.74167	451
3.74533	439
3.74900	426
3.75267	416
3.75633	409
3.76000	404
3.76367	404
3.76733	408
3.77100	415
3.77467	425
3.77833	432
3.78200	433
3.78567	428
3.78933	423
3.79300	421
3.79667	419
3.80033	416
3.80400	414
3.80767	412
3.81133	412
3.81500	414
3.81867	418
3.82233	427
3.82600	437
3.82967	444
3.83333	447
3.83700	440
3.84067	428
3.84433	416
3.84800	407
3.85167	402
3.85533	403
3.85900	406
3.86267	408
3.86633	408
3.87000	413
3.87367	417
3.87733	418
3.88100	418
3.88467	415
3.88833	409
3.89200	403
3.89567	397
3.89933	390
3.90300	388
3.90667	391
3.91033	396
3.91400	401
3.91767	406
3.92133	406
3.92500	402
3.92867	395
3.93233	387
3.93600	379
3.93967	375
3.94333	375
3.94700	376
3.95067	378
3.95433	377
3.95800	374
3.96167	369
3.96533	366
3.96900	364
3.97267	365
3.97633	370
3.98000	378
3.98367	383
3.98733	386
3.99100	388
3.99467	386
3.99833	384

[Chromatogram (Ch2)]
Interval(msec)	220
# of Points	1091
Start Time(min)	0.002
End Time(min)	3.998
R.Time (min)	Intensity
0.00167	-0
0.00533	-0
0.00900	-0
0.01267	-1
0.01633	-1
0.02000	-1
0.02367	-1
0.02733	-1
0.03100	-1
0.03467	-1
0.03833	-1
0.04200	-1
0.04567	-1
0.04933	-1
0.05300	-1
0.05667	-1
0.06033	-1
0.06400	-1
0.06767	-1
0.07133	-1
0.07500	-1
0.07867	-0
0.08233	-0
0.08600	-0
0.08967	0
0.09333	1
0.09700	1
0.10067	1
0.10433	2
0.10800	2
0.11167	2
0.11533	2
0.11900	2
0.12267	1
0.12633	1
0.13000	1
0.13367	1
0.13733	1
0.14100	0
0.14467	-0
0.14833	-1
0.15200	-1
0.15567	-2
0.15933	-3
0.16300	-3
0.16667	-3
0.17033	-3
0.17400	-3
0.17767	-3
0.18133	-3
0.18500	-3
0.18867	-3
0.19233	-3
0.19600	-3
0.19967	-2
0.20333	-2
0.20700	-2
0.21067	-2
0.21433	-2
0.21800	-2
0.22167	-2
0.22533	-2
0.22900	-2
0.23267	-2
0.23633	-2
0.24000	-2
0.24367	-2
0.24733	-2
0.25100	-2
0.25467	-2
0.25833	-2
0.26200	-2
0.26567	-2
0.26933	-2
0.27300	-2
0.27667	-2
0.28033	-2
0.28400	-1
0.28767	-1
0.29133	-1
0.29500	-1
0.29867	-1
0.30233	-1
0.30600	-2
0.30967	-2
0.31333	-2
0.31700	-2
0.32067	-2
0.32433	-3
0.32800	-3
0.33167	-3
0.33533	-3
0.33900	-3
0.34267	-3
0.34633	-3
0.35000	-2
0.35367	-2
0.35733	-2
0.36100	-2
0.36467	-2
0.36833	-2
0.37200	-2
0.37567	-2
0.37933	-2
0.38300	-2
0.38667	-2
0.39033	-1
0.39400	-1
0.39767	-1
0.40133	-1
0.40500	-2
0.40867	-2
0.41233	-3
0.41600	-3
0.41967	-4
0.42333	-4
0.42700	-4
0.43067	-4
0.43433	-4
0.43800	-4
0.44167	-4
0.44533	-4
0.44900	-4
0.45267	-3
0.45633	-3
0.46000	-3
0.46367	-2
0.46733	-2
0.47100	-2
0.47467	-1
0.47833	-1
0.48200	-0
0.48567	-0
0.48933	0
0.49300	1
0.49667	1
0.50033	1
0.50400	1
0.50767	1
0.51133	1
0.51500	1
0.51867	1
0.52233	2
0.52600	2
0.52967	2
0.53333	1
0.53700	1
0.54067	1
0.54433	0
0.54800	0
0.55167	-0
0.55533	-0
0.55900	-0
0.56267	-1
0.56633	-1
0.57000	-1
0.57367	-1
0.57733	-1
0.58100	-1
0.58467	-1
0.58833	-1
0.59200	-1
0.59567	-2
0.59933	-2
0.60300	-2
0.60667	-2
0.61033	-2
0.61400	-2
0.61767	-2
0.62133	-2
0.62500	-2
0.62867	-1
0.63233	-1
0.63600	-1
0.63967	-1
0.64333	-1
0.64700	-1
0.65067	-1
0.65433	-1
0.65800	-0
0.66167	-0
0.66533	-0
0.66900	-0
0.67267	-1
0.67633	-1
0.68000	-1
0.68367	-2
0.68733	-2
0.69100	-2
0.69467	-1
0.69833	-1
0.70200	-1
0.70567	-1
0.70933	-1
0.71300	-1
0.71667	-1
0.72033	-1
0.72400	-1
0.72767	-1
0.73133	-1
0.73500	-1
0.73867	-1
0.74233	-2
0.74600	-2
0.74967	-2
0.75333	-3
0.75700	-3
0.76067	-3
0.76433	-3
0.76800	-3
0.77167	-4
0.77533	-4
0.77900	-4
0.78267	-3
0.78633	-3
0.79000	-3
0.79367	-3
0.79733	-2
0.80100	-2
0.80467	-2
0.80833	-2
0.81200	-2
0.81567	-2
0.81933	-2
0.82300	-2
0.82667	-1
0.83033	-1
0.83400	-2
0.83767	-2
0.84133	-2
0.84500	-2
0.84867	-2
0.85233	-2
0.85600	-2
0.85967	-2
0.86333	-2
0.86700	-2
0.87067	-1
0.87433	-1
0.87800	-1
0.88167	-1
0.88533	-1
0.88900	-1
0.89267	-1
0.89633	-1
0.90000	-1
0.90367	-0
0.90733	-0
0.91100	-0
0.91467	-1
0.91833	-1
0.92200	-1
0.92567	-2
0.92933	-2
0.93300	-2
0.93667	-2
0.94033	-2
0.94400	-3
0.94767	-3
0.95133	-4
0.95500	-4
0.95867	-4
0.96233	-5
0.96600	-5
0.96967	-5
0.97333	-5
0.97700	-5
0.98067	-5
0.98433	-5
0.98800	-5
0.99167	-6
0.99533	-6
0.99900	-6
1.00267	-6
1.00633	-5
1.01000	-5
1.01367	-5
1.01733	-5
1.02100	-5
1.02467	-5
1.02833	-5
1.03200	-4
1.03567	-4
1.03933	-4
1.04300	-4
1.04667	-3
1.05033	-3
1.05400	-3
1.05767	-2
1.06133	-2
1.06500	-2
1.06867	-1
1.07233	-1
1.07600	-1
1.07967	-1
1.08333	-1
1.08700	-1
1.09067	-1
1.09433	-0
1.09800	0
1.10167	0
1.10533	0
1.10900	1
1.11267	1
1.11633	1
1.12000	1
1.12367	1
1.12733	0
1.13100	-0
1.13467	-0
1.13833	-1
1.14200	-2
1.14567	-2
1.14933	-3
1.15300	-3
1.15667	-4
1.16033	-4
1.16400	-4
1.16767	-4
1.17133	-5
1.17500	-5
1.17867	-6
1.18233	-6
1.18600	-6
1.18967	-7
1.19333	-7
1.19700	-7
1.20067	-7
1.20433	-7
1.20800	-7
1.21167	-7
1.21533	-6
1.21900	-6
1.22267	-6
1.22633	-5
1.23000	-5
1.23367	-5
1.23733	-4
1.24100	-4
1.24467	-4
1.24833	-4
1.25200	-4
1.25567	-4
1.25933	-4
1.26300	-4
1.26667	-4
1.27033	-4
1.27400	-5
1.27767	-5
1.28133	-5
1.28500	-5
1.28867	-5
1.29233	-5
1.29600	-5
1.29967	-5
1.30333	-5
1.30700	-5
1.31067	-5
1.31433	-5
1.31800	-4
1.32167	-4
1.32533	-4
1.32900	-4
1.33267	-3
1.33633	-4
1.34000	-4
1.34367	-4
1.34733	-4
1.35100	-4
1.35467	-4
1.35833	-3
1.36200	-3
1.36567	-3
1.36933	-2
1.37300	-2
1.37667	-1
1.38033	-1
1.38400	-0
1.38767	0
1.39133	0
1.39500	1
1.39867	1
1.40233	0
1.40600	0
1.40967	0
1.41333	-0
1.41700	-0
1.42067	-0
1.42433	-0
1.42800	-0
1.43167	-0
1.43533	-0
1.43900	-0
1.44267	-1
1.44633	-1
1.45000	-1
1.45367	-2
1.45733	-2
1.46100	-3
1.46467	-3
1.46833	-4
1.47200	-4
1.47567	-5
1.47933	-5
1.48300	-6
1.48667	-6
1.49033	-6
1.49400	-7
1.49767	-7
1.50133	-7
1.50500	-7
1.50867	-6
1.51233	-6
1.51600	-6
1.51967	-6
1.52333	-6
1.52700	-6
1.53067	-5
1.53433	-5
1.53800	-5
1.54167	-5
1.54533	-5
1.54900	-5
1.55267	-5
1.55633	-5
1.56000	-5
1.56367	-5
1.56733	-4
1.57100	-4
1.57467	-4
1.57833	-4
1.58200	-4
1.58567	-4
1.58933	-4
1.59300	-4
1.59667	-5
1.60033	-6
1.60400	-7
1.60767	-8
1.61133	-10
1.61500	-11
1.61867	-14
1.62233	-16
1.62600	-19
1.62967	-22
1.63333	-25
1.63700	-28
1.64067	-32
1.64433	-35
1.64800	-39
1.65167	-43
1.65533	-47
1.65900	-51
1.66267	-55
1.66633	-59
1.67000	-63
1.67367	-68
1.67733	-74
1.68100	-79
1.68467	-84
1.68833	-88
1.69200	-93
1.69567	-96
1.69933	-99
1.70300	-101
1.70667	-103
1.71033	-105
1.71400	-107
1.71767	-109
1.72133	-110
1.72500	-110
1.72867	-111
1.73233	-111
1.73600	-111
1.73967	-111
1.74333	-110
1.74700	-110
1.75067	-110
1.75433	-110
1.75800	-110
1.76167	-111
1.76533	-112
1.76900	-113
1.77267	-114
1.77633	-115
1.78000	-116
1.78367	-116
1.78733	-117
1.79100	-117
1.79467	-117
1.79833	-116
1.80200	-116
1.80567	-116
1.80933	-116
1.81300	-116
1.81667	-117
1.82033	-118
1.82400	-119
1.82767	-119
1.83133	-120
1.83500	-120
1.83867	-120
1.84233	-120
1.84600	-120
1.84967	-120
1.85333	-120
1.85700	-120
1.86067	-119
1.86433	-118
1.86800	-118
1.87167	-117
1.87533	-117
1.87900	-117
1.88267	-117
1.88633	-117
1.89000	-116
1.89367	-116
1.89733	-116
1.90100	-116
1.90467	-116
1.90833	-116
1.91200	-116
1.91567	-116
1.91933	-116
1.92300	-115
1.92667	-115
1.93033	-115
1.93400	-114
1.93767	-114
1.94133	-113
1.94500	-113
1.94867	-113
1.95233	-114
1.95600	-114
1.95967	-114
1.96333	-115
1.96700	-115
1.97067	-115
1.97433	-116
1.97800	-116
1.98167	-115
1.98533	-114
1.98900	-113
1.99267	-112
1.99633	-111
2.00000	-111
2.00367	-110
2.00733	-110
2.01100	-110
2.01467	-110
2.01833	-110
2.02200	-109
2.02567	-109
2.02933	-109
2.03300	-109
2.03667	-108
2.04033	-108
2.04400	-107
2.04767	-107
2.05133	-106
2.05500	-106
2.05867	-106
2.06233	-106
2.06600	-106
2.06967	-106
2.07333	-106
2.07700	-105
2.08067	-105
2.08433	-104
2.08800	-103
2.09167	-102
2.09533	-102
2.09900	-102
2.10267	-102
2.10633	-102
2.11000	-102
2.11367	-101
2.11733	-101
2.12100	-101
2.12467	-101
2.12833	-101
2.13200	-101
2.13567	-101
2.13933	-101
2.14300	-100
2.14667	-100
2.15033	-99
2.15400	-98
2.15767	-98
2.16133	-97
2.16500	-96
2.16867	-96
2.17233	-95
2.17600	-95
2.17967	-94
2.18333	-93
2.18700	-92
2.19067	-92
2.19433	-92
2.19800	-92
2.20167	-93
2.20533	-93
2.20900	-93
2.21267	-94
2.21633	-93
2.22000	-93
2.22367	-93
2.22733	-92
2.23100	-92
2.23467	-91
2.23833	-90
2.24200	-89
2.24567	-89
2.24933	-89
2.25300	-89
2.25667	-89
2.26033	-89
2.26400	-88
2.26767	-88
2.27133	-88
2.27500	-88
2.27867	-88
2.28233	-87
2.28600	-87
2.28967	-87
2.29333	-87
2.29700	-87
2.30067	-87
2.30433	-86
2.30800	-86
2.31167	-85
2.31533	-84
2.31900	-84
2.32267	-83
2.32633	-83
2.33000	-82
2.33367	-82
2.33733	-82
2.34100	-82
2.34467	-81
2.34833	-80
2.35200	-79
2.35567	-78
2.35933	-77
2.36300	-76
2.36667	-75
2.37033	-73
2.37400	-71
2.37767	-68
2.38133	-65
2.38500	-61
2.38867	-57
2.39233	-52
2.39600	-48
2.39967	-43
2.40333	-39
2.40700	-35
2.41067	-31
2.41433	-28
2.41800	-26
2.42167	-24
2.42533	-22
2.42900	-20
2.43267	-18
2.43633	-17
2.44000	-14
2.44367	-12
2.44733	-11
2.45100	-9
2.45467	-8
2.45833	-7
2.46200	-6
2.46567	-5
2.46933	-4
2.47300	-3
2.47667	-2
2.48033	-0
2.48400	1
2.48767	2
2.49133	3
2.49500	4
2.49867	5
2.50233	6
2.50600	7
2.50967	8
2.51333	8
2.51700	9
2.52067	10
2.52433	10
2.52800	11
2.53167	11
2.53533	12
2.53900	12
2.54267	13
2.54633	13
2.55000	14
2.55367	14
2.55733	14
2.56100	14
2.56467	14
2.56833	14
2.57200	14
2.57567	14
2.57933	14
2.58300	15
2.58667	15
2.59033	15
2.59400	16
2.59767	16
2.60133	16
2.60500	16
2.60867	16
2.61233	16
2.61600	16
2.61967	17
2.62333	17
2.62700	17
2.63067	18
2.63433	18
2.63800	18
2.64167	17
2.64533	17
2.64900	17
2.65267	16
2.65633	16
2.66000	16
2.66367	16
2.66733	16
2.67100	17
2.67467	17
2.67833	18
2.68200	19
2.68567	20
2.68933	21
2.69300	22
2.69667	22
2.70033	23
2.70400	23
2.70767	24
2.71133	24
2.71500	24
2.71867	24
2.72233	24
2.72600	24
2.72967	23
2.73333	23
2.73700	22
2.74067	22
2.74433	22
2.74800	22
2.75167	22
2.75533	23
2.75900	24
2.76267	24
2.76633	25
2.77000	25
2.77367	25
2.77733	25
2.78100	25
2.78467	25
2.78833	25
2.79200	25
2.79567	25
2.79933	25
2.80300	25
2.80667	25
2.81033	25
2.81400	25
2.81767	25
2.82133	25
2.82500	25
2.82867	25
2.83233	24
2.83600	23
2.83967	21
2.84333	17
2.84700	11
2.85067	2
2.85433	-11
2.85800	-28
2.86167	-49
2.86533	-76
2.86900	-109
2.87267	-147
2.87633	-190
2.88000	-239
2.88367	-292
2.88733	-351
2.89100	-414
2.89467	-481
2.89833	-551
2.90200	-625
2.90567	-702
2.90933	-781
2.91300	-863
2.91667	-947
2.92033	-1033
2.92400	-1120
2.92767	-1210
2.93133	-1301
2.93500	-1391
2.93867	-1473
2.94233	-1532
2.94600	-1559
2.94967	-1550
2.95333	-1506
2.95700	-1434
2.96067	-1341
2.96433	-1236
2.96800	-1124
2.97167	-1012
2.97533	-903
2.97900	-799
2.98267	-702
2.98633	-614
2.99000	-535
2.99367	-464
2.99733	-401
3.00100	-346
3.00467	-297
3.00833	-255
3.01200	-218
3.01567	-187
3.01933	-159
3.02300	-136
3.02667	-115
3.03033	-98
3.03400	-83
3.03767	-70
3.04133	-59
3.04500	-50
3.04867	-42
3.05233	-35
3.05600	-29
3.05967	-24
3.06333	-20
3.06700	-16
3.07067	-12
3.07433	-9
3.07800	-7
3.08167	-5
3.08533	-3
3.08900	-1
3.09267	1
3.09633	3
3.10000	4
3.10367	5
3.10733	6
3.11100	7
3.11467	8
3.11833	8
3.12200	9
3.12567	9
3.12933	10
3.13300	10
3.13667	11
3.14033	11
3.14400	12
3.14767	13
3.15133	13
3.15500	14
3.15867	14
3.16233	15
3.16600	15
3.16967	16
3.17333	16
3.17700	16
3.18067	16
3.18433	16
3.18800	16
3.19167	16
3.19533	16
3.19900	16
3.20267	16
3.20633	16
3.21000	16
3.21367	17
3.21733	17
3.22100	17
3.22467	18
3.22833	18
3.23200	18
3.23567	18
3.23933	19
3.24300	19
3.24667	19
3.25033	19
3.25400	19
3.25767	19
3.26133	19
3.26500	19
3.26867	19
3.27233	20
3.27600	20
3.27967	20
3.28333	21
3.28700	21
3.29067	21
3.29433	22
3.29800	22
3.30167	22
3.30533	23
3.30900	23
3.31267	23
3.31633	23
3.32000	23
3.32367	23
3.32733	23
3.33100	23
3.33467	23
3.33833	23
3.34200	23
3.34567	23
3.34933	23
3.35300	23
3.35667	23
3.36033	23
3.36400	23
3.36767	23
3.37133	23
3.37500	23
3.37867	23
3.38233	23
3.38600	24
3.38967	24
3.39333	24
3.39700	25
3.40067	25
3.40433	25
3.40800	25
3.41167	25
3.41533	25
3.41900	25
3.42267	25
3.42633	26
3.43000	26
3.43367	26
3.43733	26
3.44100	26
3.44467	26
3.44833	27
3.45200	27
3.45567	27
3.45933	27
3.46300	27
3.46667	26
3.47033	26
3.47400	26
3.47767	27
3.48133	27
3.48500	27
3.48867	27
3.49233	26
3.49600	26
3.49967	26
3.50333	26
3.50700	26
3.51067	26
3.51433	26
3.51800	26
3.52167	26
3.52533	26
3.52900	26
3.53267	27
3.53633	27
3.54000	27
3.54367	27
3.54733	26
3.55100	26
3.55467	26
3.55833	26
3.56200	26
3.56567	26
3.56933	26
3.57300	26
3.57667	26
3.58033	25
3.58400	25
3.58767	24
3.59133	24
3.59500	24
3.59867	24
3.60233	24
3.60600	24
3.60967	24
3.61333	24
3.61700	24
3.62067	24
3.62433	24
3.62800	24
3.63167	24
3.63533	24
3.63900	24
3.64267	24
3.64633	24
3.65000	24
3.65367	24
3.65733	24
3.66100	24
3.66467	24
3.66833	24
3.67200	24
3.67567	24
3.67933	24
3.68300	24
3.68667	23
3.69033	23
3.69400	23
3.69767	22
3.70133	22
3.70500	22
3.70867	22
3.71233	22
3.71600	22
3.71967	22
3.72333	23
3.72700	23
3.73067	23
3.73433	23
3.73800	23
3.74167	23
3.74533	23
3.74900	23
3.75267	23
3.75633	23
3.76000	23
3.76367	23
3.76733	23
3.77100	23
3.77467	23
3.77833	23
3.78200	23
3.78567	23
3.78933	23
3.79300	23
3.79667	23
3.80033	23
3.80400	24
3.80767	24
3.81133	24
3.81500	24
3.81867	24
3.82233	24
3.82600	23
3.82967	23
3.83333	23
3.83700	23
3.84067	24
3.84433	24
3.84800	24
3.85167	24
3.85533	24
3.85900	24
3.86267	24
3.86633	24
3.87000	24
3.87367	24
3.87733	24
3.88100	24
3.88467	24
3.88833	24
3.89200	24
3.89567	24
3.89933	24
3.90300	24
3.90667	24
3.91033	24
3.91400	24
3.91767	24
3.92133	23
3.92500	23
3.92867	23
3.93233	23
3.93600	23
3.93967	23
3.94333	23
3.94700	23
3.95067	23
3.95433	23
3.95800	23
3.96167	24
3.96533	24
3.96900	24
3.97267	24
3.97633	24
3.98000	24
3.98367	24
3.98733	24
3.99100	24
3.99467	24
3.99833	24

[Chromatogram (Ch3)]
Interval(msec)	220
# of Points	1091
Start Time(min)	0.002
End Time(min)	3.998
R.Time (min)	Intensity
0.00167	1
0.00533	3
0.00900	5
0.01267	3
0.01633	2
0.02000	2
0.02367	1
0.02733	1
0.03100	0
0.03467	1
0.03833	0
0.04200	0
0.04567	-0
0.04933	-2
0.05300	-3
0.05667	-2
0.06033	-2
0.06400	-2
0.06767	-4
0.07133	-5
0.07500	-4
0.07867	-4
0.08233	-2
0.08600	1
0.08967	1
0.09333	-1
0.09700	-1
0.10067	-1
0.10433	-4
0.10800	-8
0.11167	-7
0.11533	-7
0.11900	-4
0.12267	-1
0.12633	1
0.13000	4
0.13367	6
0.13733	3
0.14100	0
0.14467	0
0.14833	2
0.15200	1
0.15567	-0
0.15933	1
0.16300	1
0.16667	-0
0.17033	1
0.17400	2
0.17767	1
0.18133	-0
0.18500	-2
0.18867	-3
0.19233	-2
0.19600	-1
0.19967	-2
0.20333	-2
0.20700	-4
0.21067	-6
0.21433	-8
0.21800	-7
0.22167	-5
0.22533	-3
0.22900	-1
0.23267	-1
0.23633	-2
0.24000	-2
0.24367	-2
0.24733	-2
0.25100	-1
0.25467	2
0.25833	5
0.26200	7
0.26567	7
0.26933	5
0.27300	3
0.27667	3
0.28033	3
0.28400	2
0.28767	3
0.29133	3
0.29500	3
0.29867	3
0.30233	3
0.30600	4
0.30967	4
0.31333	2
0.31700	2
0.32067	2
0.32433	2
0.32800	2
0.33167	1
0.33533	1
0.33900	-1
0.34267	-2
0.34633	-3
0.35000	-3
0.35367	-1
0.35733	2
0.36100	2
0.36467	3
0.36833	4
0.37200	6
0.37567	6
0.37933	4
0.38300	3
0.38667	3
0.39033	2
0.39400	2
0.39767	1
0.40133	0
0.40500	1
0.40867	1
0.41233	0
0.41600	2
0.41967	3
0.42333	3
0.42700	3
0.43067	4
0.43433	4
0.43800	2
0.44167	3
0.44533	5
0.44900	4
0.45267	5
0.45633	4
0.46000	3
0.46367	4
0.46733	6
0.47100	6
0.47467	5
0.47833	6
0.48200	7
0.48567	5
0.48933	3
0.49300	3
0.49667	4
0.50033	6
0.50400	6
0.50767	5
0.51133	3
0.51500	2
0.51867	2
0.52233	1
0.52600	1
0.52967	1
0.53333	3
0.53700	2
0.54067	2
0.54433	4
0.54800	4
0.55167	6
0.55533	7
0.55900	10
0.56267	10
0.56633	8
0.57000	7
0.57367	4
0.57733	2
0.58100	2
0.58467	2
0.58833	4
0.59200	6
0.59567	6
0.59933	7
0.60300	8
0.60667	9
0.61033	10
0.61400	11
0.61767	11
0.62133	9
0.62500	8
0.62867	6
0.63233	8
0.63600	11
0.63967	9
0.64333	6
0.64700	4
0.65067	4
0.65433	7
0.65800	8
0.66167	8
0.66533	9
0.66900	10
0.67267	9
0.67633	10
0.68000	9
0.68367	7
0.68733	6
0.69100	5
0.69467	6
0.69833	8
0.70200	9
0.70567	10
0.70933	12
0.71300	15
0.71667	16
0.72033	14
0.72400	12
0.72767	11
0.73133	10
0.73500	9
0.73867	9
0.74233	7
0.74600	7
0.74967	7
0.75333	8
0.75700	7
0.76067	6
0.76433	4
0.76800	4
0.77167	5
0.77533	9
0.77900	11
0.78267	12
0.78633	13
0.79000	13
0.79367	13
0.79733	13
0.80100	11
0.80467	9
0.80833	7
0.81200	5
0.81567	4
0.81933	5
0.82300	8
0.82667	9
0.83033	9
0.83400	9
0.83767	12
0.84133	14
0.84500	15
0.84867	17
0.85233	19
0.85600	19
0.85967	15
0.86333	12
0.86700	13
0.87067	14
0.87433	16
0.87800	15
0.88167	13
0.88533	12
0.88900	14
0.89267	14
0.89633	14
0.90000	15
0.90367	14
0.90733	13
0.91100	14
0.91467	15
0.91833	13
0.92200	14
0.92567	15
0.92933	15
0.93300	14
0.93667	16
0.94033	17
0.94400	17
0.94767	16
0.95133	16
0.95500	16
0.95867	15
0.96233	13
0.96600	12
0.96967	12
0.97333	14
0.97700	14
0.98067	16
0.98433	17
0.98800	15
0.99167	13
0.99533	15
0.99900	16
1.00267	17
1.00633	18
1.01000	18
1.01367	17
1.01733	17
1.02100	15
1.02467	14
1.02833	16
1.03200	18
1.03567	18
1.03933	18
1.04300	18
1.04667	18
1.05033	15
1.05400	14
1.05767	15
1.06133	16
1.06500	17
1.06867	16
1.07233	15
1.07600	17
1.07967	18
1.08333	19
1.08700	20
1.09067	19
1.09433	20
1.09800	22
1.10167	23
1.10533	23
1.10900	24
1.11267	24
1.11633	23
1.12000	22
1.12367	20
1.12733	18
1.13100	17
1.13467	16
1.13833	16
1.14200	16
1.14567	16
1.14933	16
1.15300	16
1.15667	17
1.16033	17
1.16400	17
1.16767	17
1.17133	16
1.17500	17
1.17867	18
1.18233	19
1.18600	15
1.18967	11
1.19333	10
1.19700	12
1.20067	14
1.20433	16
1.20800	18
1.21167	21
1.21533	22
1.21900	23
1.22267	24
1.22633	23
1.23000	23
1.23367	24
1.23733	24
1.24100	24
1.24467	23
1.24833	23
1.25200	21
1.25567	20
1.25933	22
1.26300	23
1.26667	24
1.27033	22
1.27400	20
1.27767	22
1.28133	22
1.28500	21
1.28867	22
1.29233	24
1.29600	27
1.29967	28
1.30333	28
1.30700	26
1.31067	24
1.31433	23
1.31800	22
1.32167	21
1.32533	22
1.32900	23
1.33267	22
1.33633	21
1.34000	21
1.34367	23
1.34733	23
1.35100	22
1.35467	21
1.35833	24
1.36200	26
1.36567	26
1.36933	27
1.37300	25
1.37667	24
1.38033	23
1.38400	23
1.38767	24
1.39133	23
1.39500	25
1.39867	26
1.40233	26
1.40600	27
1.40967	27
1.41333	26
1.41700	25
1.42067	22
1.42433	20
1.42800	21
1.43167	22
1.43533	21
1.43900	22
1.44267	22
1.44633	23
1.45000	24
1.45367	25
1.45733	24
1.46100	23
1.46467	24
1.46833	26
1.47200	26
1.47567	27
1.47933	26
1.48300	23
1.48667	21
1.49033	21
1.49400	22
1.49767	23
1.50133	24
1.50500	25
1.50867	27
1.51233	27
1.51600	28
1.51967	28
1.52333	29
1.52700	29
1.53067	29
1.53433	30
1.53800	32
1.54167	32
1.54533	31
1.54900	31
1.55267	29
1.55633	29
1.56000	28
1.56367	25
1.56733	25
1.57100	26
1.57467	28
1.57833	28
1.58200	30
1.58567	31
1.58933	30
1.59300	27
1.59667	27
1.60033	31
1.60400	33
1.60767	32
1.61133	31
1.61500	32
1.61867	31
1.62233	30
1.62600	30
1.62967	31
1.63333	32
1.63700	33
1.64067	32
1.64433	31
1.64800	28
1.65167	27
1.65533	27
1.65900	27
1.66267	28
1.66633	31
1.67000	35
1.67367	37
1.67733	40
1.68100	41
1.68467	39
1.68833	38
1.69200	36
1.69567	36
1.69933	37
1.70300	38
1.70667	39
1.71033	42
1.71400	46
1.71767	46
1.72133	47
1.72500	47
1.72867	46
1.73233	45
1.73600	44
1.73967	42
1.74333	41
1.74700	43
1.75067	46
1.75433	47
1.75800	46
1.76167	44
1.76533	45
1.76900	45
1.77267	43
1.77633	42
1.78000	42
1.78367	44
1.78733	46
1.79100	50
1.79467	52
1.79833	52
1.80200	51
1.80567	53
1.80933	54
1.81300	52
1.81667	52
1.82033	53
1.82400	55
1.82767	53
1.83133	52
1.83500	52
1.83867	51
1.84233	49
1.84600	49
1.84967	51
1.85333	52
1.85700	53
1.86067	52
1.86433	53
1.86800	52
1.87167	53
1.87533	55
1.87900	56
1.88267	56
1.88633	56
1.89000	54
1.89367	54
1.89733	55
1.90100	56
1.90467	59
1.90833	63
1.91200	64
1.91567	65
1.91933	65
1.92300	65
1.92667	66
1.93033	65
1.93400	66
1.93767	66
1.94133	68
1.94500	69
1.94867	69
1.95233	69
1.95600	72
1.95967	73
1.96333	74
1.96700	75
1.97067	75
1.97433	74
1.97800	73
1.98167	72
1.98533	72
1.98900	73
1.99267	74
1.99633	75
2.00000	75
2.00367	75
2.00733	77
2.01100	77
2.01467	77
2.01833	76
2.02200	76
2.02567	77
2.02933	81
2.03300	84
2.03667	86
2.04033	86
2.04400	82
2.04767	79
2.05133	79
2.05500	81
2.05867	82
2.06233	84
2.06600	85
2.06967	86
2.07333	88
2.07700	88
2.08067	88
2.08433	88
2.08800	89
2.09167	90
2.09533	93
2.09900	93
2.10267	93
2.10633	92
2.11000	93
2.11367	96
2.11733	99
2.12100	102
2.12467	101
2.12833	99
2.13200	99
2.13567	100
2.13933	100
2.14300	102
2.14667	104
2.15033	107
2.15400	108
2.15767	109
2.16133	111
2.16500	112
2.16867	112
2.17233	110
2.17600	110
2.17967	111
2.18333	111
2.18700	112
2.19067	112
2.19433	115
2.19800	118
2.20167	123
2.20533	125
2.20900	124
2.21267	125
2.21633	128
2.22000	131
2.22367	130
2.22733	127
2.23100	127
2.23467	129
2.23833	131
2.24200	132
2.24567	133
2.24933	134
2.25300	135
2.25667	137
2.26033	138
2.26400	140
2.26767	142
2.27133	142
2.27500	144
2.27867	147
2.28233	148
2.28600	148
2.28967	152
2.29333	155
2.29700	154
2.30067	154
2.30433	156
2.30800	157
2.31167	157
2.31533	161
2.31900	163
2.32267	163
2.32633	164
2.33000	165
2.33367	168
2.33733	170
2.34100	173
2.34467	174
2.34833	176
2.35200	178
2.35567	179
2.35933	183
2.36300	186
2.36667	186
2.37033	188
2.37400	191
2.37767	192
2.38133	192
2.38500	193
2.38867	192
2.39233	194
2.39600	196
2.39967	199
2.40333	201
2.40700	204
2.41067	208
2.41433	211
2.41800	213
2.42167	216
2.42533	217
2.42900	220
2.43267	223
2.43633	224
2.44000	227
2.44367	259
2.44733	341
2.45100	418
2.45467	469
2.45833	490
2.46200	473
2.46567	433
2.46933	395
2.47300	366
2.47667	349
2.48033	338
2.48400	327
2.48767	311
2.49133	290
2.49500	264
2.49867	240
2.50233	221
2.50600	207
2.50967	200
2.51333	197
2.51700	200
2.52067	206
2.52433	216
2.52800	229
2.53167	244
2.53533	260
2.53900	271
2.54267	276
2.54633	272
2.55000	262
2.55367	249
2.55733	236
2.56100	225
2.56467	213
2.56833	204
2.57200	197
2.57567	191
2.57933	188
2.58300	187
2.58667	188
2.59033	188
2.59400	186
2.59767	181
2.60133	173
2.60500	158
2.60867	139
2.61233	117
2.61600	96
2.61967	74
2.62333	54
2.62700	39
2.63067	29
2.63433	24
2.63800	22
2.64167	28
2.64533	35
2.64900	47
2.65267	61
2.65633	73
2.66000	87
2.66367	99
2.66733	110
2.67100	119
2.67467	126
2.67833	132
2.68200	137
2.68567	142
2.68933	144
2.69300	145
2.69667	143
2.70033	139
2.70400	136
2.70767	135
2.71133	136
2.71500	137
2.71867	139
2.72233	143
2.72600	145
2.72967	148
2.73333	150
2.73700	153
2.74067	155
2.74433	155
2.74800	155
2.75167	158
2.75533	162
2.75900	165
2.76267	167
2.76633	168
2.77000	170
2.77367	173
2.77733	177
2.78100	181
2.78467	182
2.78833	184
2.79200	184
2.79567	183
2.79933	184
2.80300	186
2.80667	189
2.81033	194
2.81400	205
2.81767	234
2.82133	303
2.82500	450
2.82867	731
2.83233	1214
2.83600	1964
2.83967	3018
2.84333	4384
2.84700	6017
2.85067	7832
2.85433	9711
2.85800	11512
2.86167	13094
2.86533	14345
2.86900	15187
2.87267	15589
2.87633	15568
2.88000	15181
2.88367	14501
2.88733	13615
2.89100	12604
2.89467	11530
2.89833	10449
2.90200	9398
2.90567	8400
2.90933	7472
2.91300	6621
2.91667	5851
2.92033	5162
2.92400	4545
2.92767	3998
2.93133	3513
2.93500	3086
2.93867	2711
2.94233	2385
2.94600	2102
2.94967	1856
2.95333	1642
2.95700	1453
2.96067	1291
2.96433	1149
2.96800	1027
2.97167	917
2.97533	825
2.97900	747
2.98267	679
2.98633	623
2.99000	574
2.99367	529
2.99733	490
3.00100	457
3.00467	429
3.00833	406
3.01200	384
3.01567	364
3.01933	347
3.02300	331
3.02667	317
3.03033	308
3.03400	298
3.03767	289
3.04133	279
3.04500	271
3.04867	265
3.05233	259
3.05600	253
3.05967	246
3.06333	239
3.06700	234
3.07067	228
3.07433	225
3.07800	223
3.08167	222
3.08533	221
3.08900	219
3.09267	217
3.09633	213
3.10000	211
3.10367	210
3.10733	208
3.11100	207
3.11467	206
3.11833	207
3.12200	206
3.12567	206
3.12933	205
3.13300	205
3.13667	205
3.14033	205
3.14400	206
3.14767	205
3.15133	202
3.15500	200
3.15867	199
3.16233	197
3.16600	196
3.16967	197
3.17333	200
3.17700	200
3.18067	197
3.18433	196
3.18800	195
3.19167	197
3.19533	199
3.19900	200
3.20267	201
3.20633	200
3.21000	199
3.21367	197
3.21733	196
3.22100	190
3.22467	166
3.22833	129
3.23200	100
3.23567	88
3.23933	93
3.24300	111
3.24667	138
3.25033	172
3.25400	209
3.25767	250
3.26133	295
3.26500	337
3.26867	375
3.27233	408
3.27600	441
3.27967	472
3.28333	502
3.28700	527
3.29067	548
3.29433	567
3.29800	585
3.30167	599
3.30533	608
3.30900	613
3.31267	618
3.31633	621
3.32000	625
3.32367	630
3.32733	633
3.33100	636
3.33467	639
3.33833	642
3.34200	647
3.34567	651
3.34933	652
3.35300	653
3.35667	654
3.36033	655
3.36400	656
3.36767	657
3.37133	658
3.37500	658
3.37867	657
3.38233	659
3.38600	663
3.38967	669
3.39333	670
3.39700	670
3.40067	671
3.40433	673
3.40800	675
3.41167	675
3.41533	676
3.41900	680
3.42267	683
3.42633	682
3.43000	681
3.43367	682
3.43733	683
3.44100	684
3.44467	685
3.44833	684
3.45200	685
3.45567	683
3.45933	678
3.46300	675
3.46667	673
3.47033	673
3.47400	672
3.47767	669
3.48133	667
3.48500	667
3.48867	667
3.49233	666
3.49600	663
3.49967	660
3.50333	660
3.50700	659
3.51067	659
3.51433	657
3.51800	652
3.52167	647
3.52533	645
3.52900	643
3.53267	642
3.53633	640
3.54000	640
3.54367	639
3.54733	635
3.55100	630
3.55467	625
3.55833	623
3.56200	622
3.56567	621
3.56933	619
3.57300	616
3.57667	617
3.58033	617
3.58400	615
3.58767	613
3.59133	611
3.59500	609
3.59867	607
3.60233	606
3.60600	602
3.60967	600
3.61333	597
3.61700	594
3.62067	590
3.62433	586
3.62800	586
3.63167	585
3.63533	583
3.63900	581
3.64267	576
3.64633	572
3.65000	570
3.65367	570
3.65733	571
3.66100	570
3.66467	565
3.66833	563
3.67200	561
3.67567	558
3.67933	557
3.68300	556
3.68667	552
3.69033	548
3.69400	546
3.69767	544
3.70133	544
3.70500	545
3.70867	545
3.71233	544
3.71600	543
3.71967	541
3.72333	539
3.72700	539
3.73067	541
3.73433	543
3.73800	544
3.74167	543
3.74533	544
3.74900	544
3.75267	542
3.75633	541
3.76000	539
3.76367	540
3.76733	541
3.77100	541
3.77467	540
3.77833	538
3.78200	534
3.78567	533
3.78933	531
3.79300	528
3.79667	525
3.80033	527
3.80400	528
3.80767	527
3.81133	526
3.81500	523
3.81867	520
3.82233	520
3.82600	519
3.82967	519
3.83333	519
3.83700	519
3.84067	518
3.84433	519
3.84800	519
3.85167	519
3.85533	520
3.85900	520
3.86267	517
3.86633	514
3.87000	511
3.87367	510
3.87733	510
3.88100	510
3.88467	508
3.88833	507
3.89200	507
3.89567	505
3.89933	505
3.90300	504
3.90667	502
3.91033	501
3.91400	501
3.91767	501
3.92133	501
3.92500	502
3.92867	502
3.93233	500
3.93600	500
3.93967	499
3.94333	497
3.94700	496
3.95067	496
3.95433	495
3.95800	492
3.96167	488
3.96533	489
3.96900	489
3.97267	489
3.97633	489
3.98000	488
3.98367	486
3.98733	485
3.99100	483
3.99467	481
3.99833	477

[Status Trace (Column Oven Temperature)]
Interval(msec)	1000
# of Points	240
Start Time(min)	0.001
End Time(min)	3.984
Intensity Units	
Intensity Multiplier	1
R.Time (min)	Intensity
0.00112	35.05
0.01778	35.04
0.03445	35.04
0.05112	35.03
0.06778	35.03
0.08445	35.02
0.10112	35.01
0.11778	35.01
0.13445	35.01
0.15112	35.02
0.16778	35.03
0.18445	35.02
0.20112	35.02
0.21778	35.02
0.23445	35.02
0.25112	35.03
0.26778	35.02
0.28445	35.02
0.30112	35.02
0.31778	35.02
0.33445	35.01
0.35112	35.01
0.36778	35.02
0.38445	35.01
0.40112	35.02
0.41778	35.03
0.43445	35.04
0.45112	35.03
0.46778	35.02
0.48445	35.01
0.50112	35.00
0.51778	34.99
0.53445	34.99
0.55112	34.99
0.56778	34.99
0.58445	34.99
0.60112	34.99
0.61778	35.00
0.63445	35.00
0.65112	34.99
0.66778	34.98
0.68445	34.98
0.70112	34.98
0.71778	34.97
0.73445	34.97
0.75112	34.99
0.76778	34.99
0.78445	35.00
0.80112	35.01
0.81778	34.99
0.83445	34.99
0.85112	34.98
0.86778	34.97
0.88445	34.96
0.90112	34.96
0.91778	34.97
0.93445	34.97
0.95112	34.98
0.96778	35.00
0.98445	35.00
1.00112	35.01
1.01778	35.01
1.03445	35.01
1.05112	35.00
1.06778	34.99
1.08445	34.99
1.10112	34.97
1.11778	34.96
1.13445	34.96
1.15112	34.97
1.16778	34.98
1.18445	35.00
1.20112	35.01
1.21778	35.01
1.23445	35.01
1.25112	35.01
1.26778	35.01
1.28445	35.01
1.30112	35.02
1.31778	35.02
1.33445	35.03
1.35112	35.02
1.36778	35.01
1.38445	34.99
1.40112	34.97
1.41778	34.96
1.43445	34.96
1.45112	34.97
1.46778	34.99
1.48445	35.01
1.50112	35.02
1.51778	35.02
1.53445	35.03
1.55112	35.03
1.56778	35.02
1.58445	35.02
1.60112	35.05
1.61778	35.14
1.63445	35.30
1.65112	35.53
1.66778	35.83
1.68445	36.19
1.70112	36.54
1.71778	36.89
1.73445	37.22
1.75112	37.53
1.76778	37.88
1.78445	38.22
1.80112	38.52
1.81778	38.87
1.83445	39.20
1.85112	39.54
1.86778	39.86
1.88445	40.19
1.90112	40.52
1.91778	40.86
1.93445	41.18
1.95112	41.50
1.96778	41.85
1.98445	42.16
2.00112	42.48
2.01778	42.81
2.03445	43.14
2.05112	43.46
2.06778	43.79
2.08445	44.10
2.10112	44.43
2.11778	44.75
2.13445	45.09
2.15112	45.40
2.16778	45.74
2.18445	46.04
2.20112	46.38
2.21778	46.72
2.23445	47.03
2.25112	47.37
2.26778	47.70
2.28445	48.02
2.30112	48.36
2.31778	48.68
2.33445	49.03
2.35112	49.33
2.36778	49.56
2.38445	49.66
2.40112	49.66
2.41778	49.68
2.43445	49.68
2.45112	49.68
2.46778	49.70
2.48445	49.71
2.50112	49.72
2.51778	49.73
2.53445	49.74
2.55112	49.74
2.56778	49.76
2.58445	49.77
2.60112	49.78
2.61778	49.80
2.63445	49.81
2.65112	49.86
2.66778	49.88
2.68445	49.87
2.70112	49.84
2.71778	49.84
2.73445	49.86
2.75112	49.87
2.76778	49.86
2.78445	49.87
2.80112	49.86
2.81778	49.85
2.83445	49.86
2.85112	49.88
2.86778	49.89
2.88445	49.92
2.90112	49.93
2.91778	49.92
2.93445	49.93
2.95112	49.96
2.96778	49.98
2.98445	50.00
3.00112	50.03
3.01778	50.05
3.03445	50.06
3.05112	50.07
3.06778	50.07
3.08445	50.08
3.10112	50.07
3.11778	50.08
3.13445	50.07
3.15112	50.07
3.16778	50.08
3.18445	50.08
3.20112	50.09
3.21778	50.10
3.23445	50.09
3.25112	50.10
3.26778	50.11
3.28445	50.11
3.30112	50.10
3.31778	50.10
3.33445	50.10
3.35112	50.10
3.36778	50.10
3.38445	50.09
3.40112	50.08
3.41778	50.07
3.43445	50.04
3.45112	50.03
3.46778	50.02
3.48445	50.01
3.50112	50.00
3.51778	49.99
3.53445	49.99
3.55112	49.98
3.56778	49.98
3.58445	49.99
3.60112	50.00
3.61778	50.00
3.63445	50.01
3.65112	50.00
3.66778	50.01
3.68445	50.03
3.70112	50.05
3.71778	50.05
3.73445	50.05
3.75112	50.06
3.76778	50.06
3.78445	50.06
3.80112	50.06
3.81778	50.06
3.83445	50.06
3.85112	50.06
3.86778	50.06
3.88445	50.06
3.90112	50.06
3.91778	50.08
3.93445	50.08
3.95112	50.08
3.96778	50.07
3.98445	50.07

[Status Trace (Injection Unit Temperature)]
Interval(msec)	1000
# of Points	240
Start Time(min)	0.001
End Time(min)	3.984
Intensity Units	
Intensity Multiplier	1
R.Time (min)	Intensity
0.00112	99.99
0.01778	99.98
0.03445	99.98
0.05112	99.99
0.06778	99.99
0.08445	99.99
0.10112	99.98
0.11778	99.98
0.13445	99.98
0.15112	99.99
0.16778	99.99
0.18445	99.99
0.20112	99.99
0.21778	99.98
0.23445	99.99
0.25112	99.99
0.26778	99.99
0.28445	99.98
0.30112	99.99
0.31778	99.99
0.33445	99.99
0.35112	99.99
0.36778	99.99
0.38445	99.99
0.40112	99.99
0.41778	99.98
0.43445	99.99
0.45112	99.99
0.46778	99.99
0.48445	99.99
0.50112	99.98
0.51778	99.99
0.53445	99.98
0.55112	99.99
0.56778	99.99
0.58445	99.99
0.60112	99.98
0.61778	99.98
0.63445	99.98
0.65112	99.99
0.66778	99.98
0.68445	99.98
0.70112	99.98
0.71778	99.98
0.73445	99.98
0.75112	99.98
0.76778	99.98
0.78445	99.98
0.80112	99.98
0.81778	99.98
0.83445	99.98
0.85112	99.98
0.86778	99.98
0.88445	99.98
0.90112	99.98
0.91778	99.97
0.93445	99.98
0.95112	99.97
0.96778	99.98
0.98445	99.98
1.00112	99.98
1.01778	99.98
1.03445	99.98
1.05112	99.98
1.06778	99.98
1.08445	99.97
1.10112	99.98
1.11778	99.98
1.13445	99.98
1.15112	99.98
1.16778	99.97
1.18445	99.98
1.20112	99.98
1.21778	99.98
1.23445	99.98
1.25112	99.98
1.26778	99.98
1.28445	99.98
1.30112	99.98
1.31778	99.98
1.33445	99.98
1.35112	99.98
1.36778	99.98
1.38445	99.98
1.40112	99.98
1.41778	99.99
1.43445	99.98
1.45112	99.98
1.46778	99.98
1.48445	99.98
1.50112	99.98
1.51778	99.98
1.53445	99.98
1.55112	99.98
1.56778	99.99
1.58445	99.99
1.60112	99.99
1.61778	99.98
1.63445	99.99
1.65112	99.98
1.66778	99.98
1.68445	99.98
1.70112	99.99
1.71778	99.99
1.73445	99.99
1.75112	99.99
1.76778	99.99
1.78445	99.98
1.80112	99.98
1.81778	99.98
1.83445	99.99
1.85112	99.98
1.86778	99.98
1.88445	99.98
1.90112	99.98
1.91778	99.98
1.93445	99.98
1.95112	99.98
1.96778	99.98
1.98445	99.97
2.00112	99.97
2.01778	99.97
2.03445	99.97
2.05112	99.97
2.06778	99.97
2.08445	99.97
2.10112	99.97
2.11778	99.97
2.13445	99.97
2.15112	99.97
2.16778	99.97
2.18445	99.97
2.20112	99.96
2.21778	99.97
2.23445	99.97
2.25112	99.97
2.26778	99.96
2.28445	99.97
2.30112	99.97
2.31778	99.97
2.33445	99.96
2.35112	99.97
2.36778	99.97
2.38445	99.97
2.40112	99.97
2.41778	99.97
2.43445	99.97
2.45112	99.96
2.46778	99.97
2.48445	99.97
2.50112	99.97
2.51778	99.98
2.53445	99.97
2.55112	99.98
2.56778	99.97
2.58445	99.98
2.60112	99.98
2.61778	99.98
2.63445	99.98
2.65112	99.97
2.66778	99.98
2.68445	99.98
2.70112	99.98
2.71778	99.98
2.73445	99.99
2.75112	99.99
2.76778	99.99
2.78445	99.99
2.80112	99.99
2.81778	100.00
2.83445	100.00
2.85112	100.00
2.86778	100.00
2.88445	100.00
2.90112	100.00
2.91778	100.00
2.93445	100.00
2.95112	100.00
2.96778	100.01
2.98445	100.01
3.00112	100.01
3.01778	100.00
3.03445	100.01
3.05112	100.02
3.06778	100.02
3.08445	100.01
3.10112	100.02
3.11778	100.02
3.13445	100.02
3.15112	100.02
3.16778	100.02
3.18445	100.03
3.20112	100.03
3.21778	100.03
3.23445	100.03
3.25112	100.03
3.26778	100.03
3.28445	100.03
3.30112	100.04
3.31778	100.03
3.33445	100.04
3.35112	100.03
3.36778	100.04
3.38445	100.04
3.40112	100.04
3.41778	100.04
3.43445	100.04
3.45112	100.04
3.46778	100.05
3.48445	100.05
3.50112	100.05
3.51778	100.04
3.53445	100.05
3.55112	100.04
3.56778	100.05
3.58445	100.05
3.60112	100.05
3.61778	100.05
3.63445	100.06
3.65112	100.05
3.66778	100.05
3.68445	100.05
3.70112	100.05
3.71778	100.05
3.73445	100.06
3.75112	100.06
3.76778	100.05
3.78445	100.05
3.80112	100.05
3.81778	100.05
3.83445	100.06
3.85112	100.05
3.86778	100.05
3.88445	100.06
3.90112	100.06
3.91778	100.06
3.93445	100.05
3.95112	100.06
3.96778	100.06
3.98445	100.06

[Status Trace (Carrier Gas Pressure)]
Interval(msec)	1000
# of Points	240
Start Time(min)	0.001
End Time(min)	3.984
Intensity Units	
Intensity Multiplier	1
R.Time (min)	Intensity
0.00112	58.00
0.01778	56.45
0.03445	56.09
0.05112	58.42
0.06778	59.89
0.08445	58.39
0.10112	57.97
0.11778	58.00
0.13445	58.01
0.15112	58.01
0.16778	58.00
0.18445	58.00
0.20112	58.00
0.21778	58.00
0.23445	58.00
0.25112	58.00
0.26778	58.00
0.28445	58.00
0.30112	58.00
0.31778	58.00
0.33445	58.00
0.35112	58.00
0.36778	58.00
0.38445	58.00
0.40112	58.00
0.41778	58.00
0.43445	58.00
0.45112	58.00
0.46778	58.00
0.48445	58.00
0.50112	58.00
0.51778	58.00
0.53445	58.00
0.55112	58.00
0.56778	58.00
0.58445	58.00
0.60112	58.00
0.61778	58.00
0.63445	58.00
0.65112	58.00
0.66778	58.00
0.68445	58.00
0.70112	58.00
0.71778	58.00
0.73445	58.00
0.75112	58.00
0.76778	58.00
0.78445	58.00
0.80112	58.00
0.81778	58.00
0.83445	58.00
0.85112	58.00
0.86778	58.00
0.88445	58.00
0.90112	58.00
0.91778	58.00
0.93445	58.00
0.95112	58.00
0.96778	58.00
0.98445	58.00
1.00112	58.00
1.01778	58.00
1.03445	58.00
1.05112	58.00
1.06778	58.00
1.08445	58.00
1.10112	58.00
1.11778	58.00
1.13445	58.00
1.15112	58.00
1.16778	58.00
1.18445	58.00
1.20112	58.00
1.21778	58.00
1.23445	58.00
1.25112	58.00
1.26778	58.00
1.28445	58.00
1.30112	58.00
1.31778	58.00
1.33445	58.00
1.35112	58.00
1.36778	58.00
1.38445	58.00
1.40112	58.00
1.41778	58.00
1.43445	58.00
1.45112	58.00
1.46778	58.00
1.48445	58.00
1.50112	58.00
1.51778	58.00
1.53445	58.00
1.55112	58.00
1.56778	58.00
1.58445	58.00
1.60112	58.00
1.61778	58.00
1.63445	58.00
1.65112	58.00
1.66778	58.00
1.68445	58.01
1.70112	58.00
1.71778	58.00
1.73445	58.00
1.75112	58.00
1.76778	58.00
1.78445	58.00
1.80112	58.00
1.81778	58.00
1.83445	58.00
1.85112	58.00
1.86778	58.00
1.88445	58.00
1.90112	58.00
1.91778	58.00
1.93445	58.00
1.95112	58.00
1.96778	58.00
1.98445	58.00
2.00112	58.00
2.01778	58.00
2.03445	58.00
2.05112	58.00
2.06778	58.00
2.08445	58.00
2.10112	58.00
2.11778	58.00
2.13445	58.00
2.15112	58.00
2.16778	58.00
2.18445	58.00
2.20112	58.00
2.21778	58.00
2.23445	58.00
2.25112	58.00
2.26778	58.00
2.28445	58.00
2.30112	58.00
2.31778	58.00
2.33445	58.00
2.35112	58.00
2.36778	58.00
2.38445	57.99
2.40112	57.99
2.41778	58.00
2.43445	58.00
2.45112	58.00
2.46778	58.00
2.48445	58.00
2.50112	58.00
2.51778	58.00
2.53445	57.99
2.55112	58.00
2.56778	58.00
2.58445	58.00
2.60112	58.00
2.61778	58.00
2.63445	58.00
2.65112	58.00
2.66778	58.00
2.68445	58.00
2.70112	58.00
2.71778	58.00
2.73445	58.00
2.75112	58.00
2.76778	58.00
2.78445	58.00
2.80112	58.00
2.81778	58.00
2.83445	58.00
2.85112	58.00
2.86778	58.00
2.88445	58.00
2.90112	58.00
2.91778	58.00
2.93445	58.00
2.95112	58.00
2.96778	58.00
2.98445	58.00
3.00112	58.00
3.01778	58.00
3.03445	58.00
3.05112	58.00
3.06778	58.00
3.08445	58.00
3.10112	58.00
3.11778	58.00
3.13445	58.00
3.15112	58.00
3.16778	58.00
3.18445	58.00
3.20112	58.00
3.21778	58.00
3.23445	58.00
3.25112	58.00
3.26778	58.00
3.28445	58.00
3.30112	58.00
3.31778	58.00
3.33445	58.00
3.35112	58.00
3.36778	58.00
3.38445	58.00
3.40112	58.00
3.41778	58.00
3.43445	58.00
3.45112	58.00
3.46778	58.00
3.48445	58.00
3.50112	58.00
3.51778	58.00
3.53445	58.00
3.55112	58.00
3.56778	58.00
3.58445	58.00
3.60112	58.00
3.61778	58.00
3.63445	58.00
3.65112	58.00
3.66778	58.00
3.68445	58.00
3.70112	58.00
3.71778	58.00
3.73445	58.00
3.75112	58.00
3.76778	58.00
3.78445	58.00
3.80112	58.00
3.81778	58.00
3.83445	58.00
3.85112	58.00
3.86778	58.00
3.88445	58.00
3.90112	58.00
3.91778	58.00
3.93445	58.00
3.95112	58.00
3.96778	58.00
3.98445	58.00

[Status Trace (Carrier Gas Flow)]
Interval(msec)	1000
# of Points	240
Start Time(min)	0.001
End Time(min)	3.984
Intensity Units	
Intensity Multiplier	1
R.Time (min)	Intensity
0.00112	34.52
0.01778	34.33
0.03445	34.53
0.05112	34.55
0.06778	34.50
0.08445	34.52
0.10112	34.52
0.11778	34.52
0.13445	34.52
0.15112	34.52
0.16778	34.51
0.18445	34.52
0.20112	34.52
0.21778	34.51
0.23445	34.52
0.25112	34.51
0.26778	34.52
0.28445	34.52
0.30112	34.52
0.31778	34.53
0.33445	34.52
0.35112	34.51
0.36778	34.52
0.38445	34.51
0.40112	34.52
0.41778	34.52
0.43445	34.52
0.45112	34.52
0.46778	34.52
0.48445	34.52
0.50112	34.52
0.51778	34.52
0.53445	34.52
0.55112	34.52
0.56778	34.52
0.58445	34.52
0.60112	34.52
0.61778	34.52
0.63445	34.52
0.65112	34.52
0.66778	34.52
0.68445	34.51
0.70112	34.52
0.71778	34.53
0.73445	34.52
0.75112	34.52
0.76778	34.52
0.78445	34.52
0.80112	34.51
0.81778	34.51
0.83445	34.52
0.85112	34.52
0.86778	34.52
0.88445	34.52
0.90112	34.52
0.91778	34.52
0.93445	34.53
0.95112	34.52
0.96778	34.52
0.98445	34.51
1.00112	34.52
1.01778	34.52
1.03445	34.52
1.05112	34.52
1.06778	34.52
1.08445	34.52
1.10112	34.51
1.11778	34.51
1.13445	34.51
1.15112	34.52
1.16778	34.52
1.18445	34.52
1.20112	34.52
1.21778	34.52
1.23445	34.52
1.25112	34.52
1.26778	34.52
1.28445	34.52
1.30112	34.52
1.31778	34.52
1.33445	34.52
1.35112	34.52
1.36778	34.52
1.38445	34.52
1.40112	34.52
1.41778	34.53
1.43445	34.51
1.45112	34.52
1.46778	34.52
1.48445	34.52
1.50112	34.51
1.51778	34.52
1.53445	34.52
1.55112	34.52
1.56778	34.52
1.58445	34.52
1.60112	34.52
1.61778	34.52
1.63445	34.52
1.65112	34.52
1.66778	34.51
1.68445	34.52
1.70112	34.52
1.71778	34.52
1.73445	34.52
1.75112	34.52
1.76778	34.52
1.78445	34.52
1.80112	34.52
1.81778	34.52
1.83445	34.52
1.85112	34.52
1.86778	34.51
1.88445	34.51
1.90112	34.52
1.91778	34.51
1.93445	34.52
1.95112	34.51
1.96778	34.52
1.98445	34.52
2.00112	34.52
2.01778	34.52
2.03445	34.52
2.05112	34.52
2.06778	34.52
2.08445	34.52
2.10112	34.52
2.11778	34.52
2.13445	34.52
2.15112	34.52
2.16778	34.52
2.18445	34.52
2.20112	34.52
2.21778	34.53
2.23445	34.51
2.25112	34.52
2.26778	34.52
2.28445	34.52
2.30112	34.52
2.31778	34.51
2.33445	34.52
2.35112	34.51
2.36778	34.53
2.38445	34.53
2.40112	34.52
2.41778	34.52
2.43445	34.53
2.45112	34.52
2.46778	34.52
2.48445	34.52
2.50112	34.52
2.51778	34.52
2.53445	34.52
2.55112	34.52
2.56778	34.51
2.58445	34.52
2.60112	34.52
2.61778	34.52
2.63445	34.52
2.65112	34.52
2.66778	34.52
2.68445	34.52
2.70112	34.53
2.71778	34.52
2.73445	34.52
2.75112	34.52
2.76778	34.52
2.78445	34.52
2.80112	34.52
2.81778	34.51
2.83445	34.52
2.85112	34.52
2.86778	34.52
2.88445	34.52
2.90112	34.52
2.91778	34.51
2.93445	34.53
2.95112	34.51
2.96778	34.51
2.98445	34.52
3.00112	34.51
3.01778	34.51
3.03445	34.52
3.05112	34.51
3.06778	34.51
3.08445	34.52
3.10112	34.53
3.11778	34.52
3.13445	34.51
3.15112	34.52
3.16778	34.52
3.18445	34.51
3.20112	34.51
3.21778	34.52
3.23445	34.52
3.25112	34.52
3.26778	34.52
3.28445	34.53
3.30112	34.53
3.31778	34.52
3.33445	34.52
3.35112	34.51
3.36778	34.52
3.38445	34.52
3.40112	34.52
3.41778	34.51
3.43445	34.52
3.45112	34.52
3.46778	34.52
3.48445	34.52
3.50112	34.52
3.51778	34.52
3.53445	34.52
3.55112	34.52
3.56778	34.52
3.58445	34.52
3.60112	34.52
3.61778	34.51
3.63445	34.52
3.65112	34.52
3.66778	34.52
3.68445	34.52
3.70112	34.51
3.71778	34.51
3.73445	34.52
3.75112	34.52
3.76778	34.52
3.78445	34.52
3.80112	34.52
3.81778	34.52
3.83445	34.52
3.85112	34.51
3.86778	34.52
3.88445	34.52
3.90112	34.52
3.91778	34.53
3.93445	34.52
3.95112	34.52
3.96778	34.52
3.98445	34.51

[Status Trace (Column Flow)]
Interval(msec)	1000
# of Points	240
Start Time(min)	0.001
End Time(min)	3.984
Intensity Units	
Intensity Multiplier	1
R.Time (min)	Intensity
0.00112	5.57
0.01778	5.39
0.03445	5.35
0.05112	5.62
0.06778	5.79
0.08445	5.62
0.10112	5.57
0.11778	5.57
0.13445	5.57
0.15112	5.57
0.16778	5.57
0.18445	5.57
0.20112	5.57
0.21778	5.57
0.23445	5.57
0.25112	5.57
0.26778	5.57
0.28445	5.57
0.30112	5.57
0.31778	5.57
0.33445	5.57
0.35112	5.57
0.36778	5.57
0.38445	5.57
0.40112	5.57
0.41778	5.57
0.43445	5.57
0.45112	5.57
0.46778	5.57
0.48445	5.57
0.50112	5.57
0.51778	5.57
0.53445	5.57
0.55112	5.57
0.56778	5.57
0.58445	5.57
0.60112	5.57
0.61778	5.57
0.63445	5.57
0.65112	5.57
0.66778	5.57
0.68445	5.57
0.70112	5.57
0.71778	5.57
0.73445	5.57
0.75112	5.57
0.76778	5.57
0.78445	5.57
0.80112	5.57
0.81778	5.57
0.83445	5.57
0.85112	5.57
0.86778	5.57
0.88445	5.57
0.90112	5.57
0.91778	5.57
0.93445	5.57
0.95112	5.57
0.96778	5.57
0.98445	5.57
1.00112	5.57
1.01778	5.57
1.03445	5.57
1.05112	5.57
1.06778	5.57
1.08445	5.57
1.10112	5.57
1.11778	5.57
1.13445	5.57
1.15112	5.57
1.16778	5.57
1.18445	5.57
1.20112	5.57
1.21778	5.57
1.23445	5.57
1.25112	5.57
1.26778	5.57
1.28445	5.57
1.30112	5.57
1.31778	5.57
1.33445	5.57
1.35112	5.57
1.36778	5.57
1.38445	5.57
1.40112	5.57
1.41778	5.57
1.43445	5.57
1.45112	5.57
1.46778	5.57
1.48445	5.57
1.50112	5.57
1.51778	5.57
1.53445	5.57
1.55112	5.57
1.56778	5.57
1.58445	5.57
1.60112	5.57
1.61778	5.57
1.63445	5.56
1.65112	5.56
1.66778	5.55
1.68445	5.54
1.70112	5.52
1.71778	5.51
1.73445	5.50
1.75112	5.49
1.76778	5.48
1.78445	5.47
1.80112	5.46
1.81778	5.45
1.83445	5.44
1.85112	5.43
1.86778	5.42
1.88445	5.41
1.90112	5.40
1.91778	5.39
1.93445	5.38
1.95112	5.37
1.96778	5.36
1.98445	5.35
2.00112	5.34
2.01778	5.33
2.03445	5.32
2.05112	5.31
2.06778	5.30
2.08445	5.29
2.10112	5.28
2.11778	5.28
2.13445	5.27
2.15112	5.26
2.16778	5.25
2.18445	5.24
2.20112	5.23
2.21778	5.22
2.23445	5.21
2.25112	5.20
2.26778	5.19
2.28445	5.18
2.30112	5.17
2.31778	5.16
2.33445	5.15
2.35112	5.14
2.36778	5.14
2.38445	5.13
2.40112	5.13
2.41778	5.13
2.43445	5.13
2.45112	5.13
2.46778	5.13
2.48445	5.13
2.50112	5.13
2.51778	5.13
2.53445	5.13
2.55112	5.13
2.56778	5.13
2.58445	5.13
2.60112	5.13
2.61778	5.13
2.63445	5.13
2.65112	5.13
2.66778	5.13
2.68445	5.13
2.70112	5.13
2.71778	5.13
2.73445	5.13
2.75112	5.13
2.76778	5.13
2.78445	5.13
2.80112	5.13
2.81778	5.13
2.83445	5.13
2.85112	5.13
2.86778	5.13
2.88445	5.13
2.90112	5.13
2.91778	5.13
2.93445	5.13
2.95112	5.13
2.96778	5.13
2.98445	5.13
3.00112	5.12
3.01778	5.12
3.03445	5.12
3.05112	5.12
3.06778	5.12
3.08445	5.12
3.10112	5.12
3.11778	5.12
3.13445	5.12
3.15112	5.12
3.16778	5.12
3.18445	5.12
3.20112	5.12
3.21778	5.12
3.23445	5.12
3.25112	5.12
3.26778	5.12
3.28445	5.12
3.30112	5.12
3.31778	5.12
3.33445	5.12
3.35112	5.12
3.36778	5.12
3.38445	5.12
3.40112	5.12
3.41778	5.12
3.43445	5.12
3.45112	5.12
3.46778	5.12
3.48445	5.12
3.50112	5.13
3.51778	5.13
3.53445	5.13
3.55112	5.13
3.56778	5.13
3.58445	5.13
3.60112	5.13
3.61778	5.12
3.63445	5.12
3.65112	5.12
3.66778	5.12
3.68445	5.12
3.70112	5.12
3.71778	5.12
3.73445	5.12
3.75112	5.12
3.76778	5.12
3.78445	5.12
3.80112	5.12
3.81778	5.12
3.83445	5.12
3.85112	5.12
3.86778	5.12
3.88445	5.12
3.90112	5.12
3.91778	5.12
3.93445	5.12
3.95112	5.12
3.96778	5.12
3.98445	5.12

[Status Trace (Linear Velocity)]
Interval(msec)	1000
# of Points	240
Start Time(min)	0.001
End Time(min)	3.984
Intensity Units	
Intensity Multiplier	1
R.Time (min)	Intensity
0.00112	39.02
0.01778	38.01
0.03445	37.77
0.05112	39.30
0.06778	40.26
0.08445	39.28
0.10112	39.01
0.11778	39.03
0.13445	39.04
0.15112	39.03
0.16778	39.03
0.18445	39.03
0.20112	39.03
0.21778	39.03
0.23445	39.03
0.25112	39.03
0.26778	39.03
0.28445	39.03
0.30112	39.03
0.31778	39.03
0.33445	39.03
0.35112	39.03
0.36778	39.03
0.38445	39.03
0.40112	39.03
0.41778	39.03
0.43445	39.03
0.45112	39.03
0.46778	39.03
0.48445	39.03
0.50112	39.03
0.51778	39.03
0.53445	39.03
0.55112	39.03
0.56778	39.03
0.58445	39.03
0.60112	39.03
0.61778	39.03
0.63445	39.03
0.65112	39.03
0.66778	39.03
0.68445	39.03
0.70112	39.03
0.71778	39.03
0.73445	39.03
0.75112	39.03
0.76778	39.03
0.78445	39.03
0.80112	39.03
0.81778	39.03
0.83445	39.03
0.85112	39.03
0.86778	39.03
0.88445	39.03
0.90112	39.03
0.91778	39.03
0.93445	39.03
0.95112	39.03
0.96778	39.03
0.98445	39.03
1.00112	39.03
1.01778	39.03
1.03445	39.03
1.05112	39.03
1.06778	39.03
1.08445	39.03
1.10112	39.03
1.11778	39.03
1.13445	39.03
1.15112	39.03
1.16778	39.03
1.18445	39.03
1.20112	39.03
1.21778	39.03
1.23445	39.03
1.25112	39.03
1.26778	39.03
1.28445	39.03
1.30112	39.03
1.31778	39.03
1.33445	39.03
1.35112	39.03
1.36778	39.03
1.38445	39.03
1.40112	39.03
1.41778	39.03
1.43445	39.03
1.45112	39.03
1.46778	39.03
1.48445	39.03
1.50112	39.03
1.51778	39.03
1.53445	39.03
1.55112	39.03
1.56778	39.03
1.58445	39.03
1.60112	39.02
1.61778	39.02
1.63445	39.00
1.65112	38.98
1.66778	38.95
1.68445	38.92
1.70112	38.88
1.71778	38.85
1.73445	38.82
1.75112	38.79
1.76778	38.75
1.78445	38.72
1.80112	38.69
1.81778	38.66
1.83445	38.63
1.85112	38.60
1.86778	38.57
1.88445	38.54
1.90112	38.51
1.91778	38.47
1.93445	38.45
1.95112	38.41
1.96778	38.38
1.98445	38.35
2.00112	38.32
2.01778	38.29
2.03445	38.26
2.05112	38.23
2.06778	38.20
2.08445	38.18
2.10112	38.14
2.11778	38.12
2.13445	38.09
2.15112	38.05
2.16778	38.03
2.18445	38.00
2.20112	37.97
2.21778	37.94
2.23445	37.91
2.25112	37.88
2.26778	37.85
2.28445	37.82
2.30112	37.79
2.31778	37.76
2.33445	37.73
2.35112	37.70
2.36778	37.68
2.38445	37.67
2.40112	37.67
2.41778	37.67
2.43445	37.67
2.45112	37.67
2.46778	37.67
2.48445	37.67
2.50112	37.67
2.51778	37.67
2.53445	37.66
2.55112	37.67
2.56778	37.67
2.58445	37.66
2.60112	37.66
2.61778	37.66
2.63445	37.66
2.65112	37.66
2.66778	37.65
2.68445	37.65
2.70112	37.66
2.71778	37.66
2.73445	37.66
2.75112	37.66
2.76778	37.66
2.78445	37.66
2.80112	37.66
2.81778	37.66
2.83445	37.66
2.85112	37.66
2.86778	37.65
2.88445	37.65
2.90112	37.65
2.91778	37.65
2.93445	37.65
2.95112	37.65
2.96778	37.65
2.98445	37.64
3.00112	37.64
3.01778	37.64
3.03445	37.64
3.05112	37.64
3.06778	37.64
3.08445	37.64
3.10112	37.64
3.11778	37.64
3.13445	37.64
3.15112	37.64
3.16778	37.64
3.18445	37.64
3.20112	37.64
3.21778	37.63
3.23445	37.64
3.25112	37.64
3.26778	37.63
3.28445	37.63
3.30112	37.63
3.31778	37.64
3.33445	37.64
3.35112	37.64
3.36778	37.63
3.38445	37.64
3.40112	37.64
3.41778	37.64
3.43445	37.64
3.45112	37.64
3.46778	37.64
3.48445	37.64
3.50112	37.64
3.51778	37.64
3.53445	37.64
3.55112	37.65
3.56778	37.65
3.58445	37.65
3.60112	37.64
3.61778	37.64
3.63445	37.64
3.65112	37.64
3.66778	37.64
3.68445	37.64
3.70112	37.64
3.71778	37.64
3.73445	37.64
3.75112	37.64
3.76778	37.64
3.78445	37.64
3.80112	37.64
3.81778	37.64
3.83445	37.64
3.85112	37.64
3.86778	37.64
3.88445	37.64
3.90112	37.64
3.91778	37.64
3.93445	37.64
3.95112	37.64
3.96778	37.64
3.98445	37.64

