[Header]
Application Name	LabSolutions
Version	5.110
Data File Name	C:\Users\User\Desktop\GC Analyses\Jack\Nachusa Grasslands Sampling\T1 Timepoint July 12th\T1_07122022_044.gcd
Output Date	3/14/2023
Output Time	3:40:59 PM

[File Information]
Type	Data File
Generated	3/8/2023 6:05:20 PM
Generated by	System Administrator
Modified	3/8/2023 6:12:09 PM
Modified by	System Administrator

[Sample Information]
Operator Name	System Administrator
Acquired	3/8/2023 6:08:08 PM
Sample Type	0:Unknown
Level	0
Sample Name	044
Sample ID	044
ISTD Amount1	1
ISTD Amount2	1
ISTD Amount3	1
ISTD Amount4	1
ISTD Amount5	1
ISTD Amount6	1
ISTD Amount7	1
ISTD Amount8	1
ISTD Amount9	1
ISTD Amount10	1
ISTD Amount11	1
ISTD Amount12	1
ISTD Amount13	1
ISTD Amount14	1
ISTD Amount15	1
ISTD Amount16	1
ISTD Amount17	1
ISTD Amount18	1
ISTD Amount19	1
ISTD Amount20	1
ISTD Amount21	1
ISTD Amount22	1
ISTD Amount23	1
ISTD Amount24	1
ISTD Amount25	1
ISTD Amount26	1
ISTD Amount27	1
ISTD Amount28	1
ISTD Amount29	1
ISTD Amount30	1
ISTD Amount31	1
ISTD Amount32	1
Sample Amount	1
Dilution Factor	1
Vial#	43
Injection Volume	1
Injection Count	1
Bar Code	

[Original Files]
Data File	C:\Users\User\Desktop\GC Analyses\Jack\Nachusa Grasslands Sampling\T1 Timepoint July 12th\T1_07122022_044.gcd
Method File	C:\LabSolutions\Data\GHG_4min_2022\ghg3_togas_w_acet_4 min_new_int.gcm
Batch File	C:\LabSolutions\Data\AutoSamplerTesting\T1_07122022.gcb
Report Format File	c:\LabSolutions\System\DEFAULT.lsr

[File Description]


[Configuration]
Instrument Name	C0B7VH3-Instrument1
Instrument #	1
Line #	1
# of Detectors	3
Detector ID	DET#1	DET#2	DET#3
Detector Name	FID	PTCD	ECD
# of Channels	1	1	1

[Peak Table(Ch1)]
# of Peaks	3
Peak#	R.Time	I.Time	F.Time	Area	Height	A/H	Conc.	Mark	ID#	Name	k'	Plate #	Plate Ht.	Tailing	Resolution	Sep.Factor	Area Ratio	Height Ratio	Conc. %	Norm Conc.
1	1.476	1.439	1.538	27406	12879	2.128	193.490	   	1	CO	0.000	9059	16.558	1.333	0.000	0.000	0	0	30.426	30.426
2	1.567	1.538	1.630	4885	2318	2.108	94.456	 V 	2	CH4	0.062	10187	14.725	0.000	1.477	0.000	0	0	14.853	14.853
3	1.996	1.952	2.484	1386544	656313	2.113	347.985	   	3	CO2	0.353	17373	8.634	1.314	6.993	5.680	0	0	54.721	54.721

[Peak Table(Ch2)]
# of Peaks	0

[Peak Table(Ch3)]
# of Peaks	5
Peak#	R.Time	I.Time	F.Time	Area	Height	A/H	Conc.	Mark	ID#	Name	k'	Plate #	Plate Ht.	Tailing	Resolution	Sep.Factor	Area Ratio	Height Ratio	Conc. %	Norm Conc.
1	2.462	2.235	2.517	2062	470	4.390	0.000	   			0.000	8243	18.196	0.000	0.000	0.000	0	0	0.000	0.000
2	2.543	2.517	2.631	1067	264	4.039	0.000	 V 			0.033	3929	38.173	0.000	0.596	0.000	0	0	0.000	0.000
3	2.675	2.649	2.715	94	42	2.230	0.000	   			0.086	26585	5.642	1.293	1.159	2.636	0	0	0.000	0.000
4	2.873	2.807	3.056	19098	4953	3.856	0.488	   	1	N2O	0.167	13283	11.293	1.743	2.395	1.931	0	0	100.000	100.000
5	3.214	3.060	3.995	15068	495	30.414	0.000	   	2	SF6	0.305	303	494.717	3.001	0.814	1.830	0	0	0.000	0.000

[Compound Results(Ch1)]
# of IDs	6
ID#	Name	R.Time	Area	Height	Conc.	Curve	3rd	2nd	1st	Constant	Area Ratio	Height Ratio	Conc. %	Norm Conc.
1	CO	1.476	27406	12879	193.490	Linear	0.000000e+00	0.000000e+00	1.416423e+002	0.000000e+00	0	0	30.426	30.426
2	CH4	1.567	4885	2318	94.456	Linear	0.000000e+00	0.000000e+00	5.171738e+001	0.000000e+00	0	0	14.853	14.853
3	CO2	1.996	1386544	656313	347.985	Linear	0.000000e+00	0.000000e+00	3.984494e+003	0.000000e+00	0	0	54.721	54.721
4	Ethylene	0.000	0	0	0.000	Linear	0.000000e+00	0.000000e+00	0.000000e+00	0.000000e+00	0	0	0.000	0.000
5	Acetylene	0.000	0	0	0.000	Linear	0.000000e+00	0.000000e+00	0.000000e+00	0.000000e+00	0	0	0.000	0.000
6	Ethane	0.000	0	0	0.000	Linear	0.000000e+00	0.000000e+00	0.000000e+00	0.000000e+00	0	0	0.000	0.000

[Compound Results(Ch2)]
# of IDs	5
ID#	Name	R.Time	Area	Height	Conc.	Curve	3rd	2nd	1st	Constant	Area Ratio	Height Ratio	Conc. %	Norm Conc.
1	Hydrogen	0.000	0	0	0.000	Linear	0.000000e+00	0.000000e+00	0.000000e+00	0.000000e+00	0	0	0.000	0.000
2	Oxygen	0.000	0	0	0.000	Linear	0.000000e+00	0.000000e+00	0.000000e+00	0.000000e+00	0	0	0.000	0.000
3	Nitrogen	0.000	0	0	0.000	Linear	0.000000e+00	0.000000e+00	0.000000e+00	0.000000e+00	0	0	0.000	0.000
4	Methane	0.000	0	0	0.000	Linear	0.000000e+00	0.000000e+00	0.000000e+00	0.000000e+00	0	0	0.000	0.000
5	Carbon Monoxide	0.000	0	0	0.000	Linear	0.000000e+00	0.000000e+00	0.000000e+00	0.000000e+00	0	0	0.000	0.000

[Compound Results(Ch3)]
# of IDs	2
ID#	Name	R.Time	Area	Height	Conc.	Curve	3rd	2nd	1st	Constant	Area Ratio	Height Ratio	Conc. %	Norm Conc.
1	N2O	2.873	19098	4953	0.488	Linear	0.000000e+00	0.000000e+00	3.915173e+004	0.000000e+00	0	0	100.000	100.000
2	SF6	3.214	15068	495	0.000	Linear	0.000000e+00	0.000000e+00	0.000000e+00	0.000000e+00	0	0	0.000	0.000

[Group Results(Ch1)]
# of Groups	0

[Group Results(Ch2)]
# of Groups	0

[Group Results(Ch3)]
# of Groups	0

[Chromatogram (Ch1)]
Interval(msec)	220
# of Points	1091
Start Time(min)	0.002
End Time(min)	3.998
R.Time (min)	Intensity
0.00167	-21
0.00533	-21
0.00900	-21
0.01267	-25
0.01633	-26
0.02000	-25
0.02367	-19
0.02733	-13
0.03100	-10
0.03467	-10
0.03833	-11
0.04200	-11
0.04567	-10
0.04933	-7
0.05300	-2
0.05667	0
0.06033	8
0.06400	19
0.06767	27
0.07133	34
0.07500	41
0.07867	48
0.08233	57
0.08600	59
0.08967	62
0.09333	61
0.09700	60
0.10067	60
0.10433	61
0.10800	60
0.11167	60
0.11533	63
0.11900	67
0.12267	75
0.12633	79
0.13000	81
0.13367	86
0.13733	90
0.14100	92
0.14467	89
0.14833	81
0.15200	72
0.15567	65
0.15933	64
0.16300	69
0.16667	77
0.17033	80
0.17400	78
0.17767	75
0.18133	69
0.18500	59
0.18867	51
0.19233	46
0.19600	41
0.19967	34
0.20333	28
0.20700	24
0.21067	22
0.21433	22
0.21800	23
0.22167	18
0.22533	11
0.22900	9
0.23267	8
0.23633	9
0.24000	14
0.24367	20
0.24733	22
0.25100	21
0.25467	16
0.25833	10
0.26200	3
0.26567	-5
0.26933	-8
0.27300	-7
0.27667	-3
0.28033	2
0.28400	3
0.28767	-1
0.29133	-2
0.29500	-2
0.29867	-5
0.30233	-10
0.30600	-12
0.30967	-10
0.31333	-7
0.31700	-9
0.32067	-16
0.32433	-22
0.32800	-24
0.33167	-23
0.33533	-20
0.33900	-14
0.34267	-7
0.34633	-2
0.35000	-1
0.35367	-2
0.35733	-1
0.36100	-2
0.36467	-1
0.36833	-1
0.37200	-5
0.37567	-10
0.37933	-14
0.38300	-15
0.38667	-16
0.39033	-16
0.39400	-11
0.39767	-5
0.40133	1
0.40500	8
0.40867	13
0.41233	14
0.41600	9
0.41967	-0
0.42333	-7
0.42700	-9
0.43067	-7
0.43433	-1
0.43800	4
0.44167	8
0.44533	9
0.44900	6
0.45267	1
0.45633	-5
0.46000	-11
0.46367	-12
0.46733	-9
0.47100	-2
0.47467	11
0.47833	24
0.48200	32
0.48567	30
0.48933	21
0.49300	6
0.49667	-9
0.50033	-21
0.50400	-27
0.50767	-29
0.51133	-32
0.51500	-34
0.51867	-37
0.52233	-40
0.52600	-38
0.52967	-35
0.53333	-35
0.53700	-35
0.54067	-33
0.54433	-26
0.54800	-19
0.55167	-12
0.55533	-8
0.55900	-5
0.56267	-5
0.56633	-9
0.57000	-16
0.57367	-22
0.57733	-24
0.58100	-21
0.58467	-18
0.58833	-18
0.59200	-22
0.59567	-24
0.59933	-24
0.60300	-20
0.60667	-19
0.61033	-19
0.61400	-17
0.61767	-13
0.62133	-9
0.62500	-9
0.62867	-12
0.63233	-16
0.63600	-22
0.63967	-29
0.64333	-29
0.64700	-23
0.65067	-13
0.65433	-6
0.65800	-6
0.66167	-10
0.66533	-16
0.66900	-20
0.67267	-22
0.67633	-23
0.68000	-24
0.68367	-22
0.68733	-21
0.69100	-23
0.69467	-29
0.69833	-31
0.70200	-29
0.70567	-28
0.70933	-28
0.71300	-24
0.71667	-19
0.72033	-11
0.72400	-9
0.72767	-15
0.73133	-23
0.73500	-29
0.73867	-32
0.74233	-35
0.74600	-35
0.74967	-34
0.75333	-33
0.75700	-32
0.76067	-28
0.76433	-19
0.76800	-10
0.77167	-8
0.77533	-9
0.77900	-13
0.78267	-21
0.78633	-27
0.79000	-33
0.79367	-32
0.79733	-27
0.80100	-27
0.80467	-32
0.80833	-33
0.81200	-33
0.81567	-31
0.81933	-29
0.82300	-25
0.82667	-22
0.83033	-22
0.83400	-23
0.83767	-29
0.84133	-37
0.84500	-43
0.84867	-47
0.85233	-50
0.85600	-51
0.85967	-52
0.86333	-52
0.86700	-50
0.87067	-48
0.87433	-44
0.87800	-38
0.88167	-33
0.88533	-29
0.88900	-29
0.89267	-33
0.89633	-36
0.90000	-33
0.90367	-28
0.90733	-26
0.91100	-29
0.91467	-33
0.91833	-35
0.92200	-37
0.92567	-41
0.92933	-43
0.93300	-46
0.93667	-48
0.94033	-48
0.94400	-44
0.94767	-39
0.95133	-36
0.95500	-33
0.95867	-29
0.96233	-28
0.96600	-31
0.96967	-38
0.97333	-49
0.97700	-54
0.98067	-52
0.98433	-53
0.98800	-58
0.99167	-61
0.99533	-58
0.99900	-53
1.00267	-52
1.00633	-52
1.01000	-51
1.01367	-51
1.01733	-50
1.02100	-53
1.02467	-59
1.02833	-60
1.03200	-55
1.03567	-52
1.03933	-53
1.04300	-53
1.04667	-50
1.05033	-44
1.05400	-41
1.05767	-42
1.06133	-48
1.06500	-56
1.06867	-62
1.07233	-61
1.07600	-57
1.07967	-55
1.08333	-59
1.08700	-63
1.09067	-63
1.09433	-61
1.09800	-58
1.10167	-54
1.10533	-52
1.10900	-53
1.11267	-52
1.11633	-51
1.12000	-49
1.12367	-44
1.12733	-36
1.13100	-30
1.13467	-27
1.13833	-27
1.14200	-26
1.14567	-20
1.14933	-8
1.15300	9
1.15667	18
1.16033	17
1.16400	12
1.16767	2
1.17133	-10
1.17500	-21
1.17867	-31
1.18233	-35
1.18600	-35
1.18967	-33
1.19333	-34
1.19700	-38
1.20067	-45
1.20433	-48
1.20800	-44
1.21167	-39
1.21533	-36
1.21900	-31
1.22267	-29
1.22633	-27
1.23000	-20
1.23367	-14
1.23733	-10
1.24100	-12
1.24467	-17
1.24833	-23
1.25200	-29
1.25567	-32
1.25933	-33
1.26300	-31
1.26667	-25
1.27033	-20
1.27400	-18
1.27767	-17
1.28133	-19
1.28500	-25
1.28867	-25
1.29233	-20
1.29600	-14
1.29967	-9
1.30333	-7
1.30700	-7
1.31067	-10
1.31433	-9
1.31800	-3
1.32167	-1
1.32533	-3
1.32900	-11
1.33267	-19
1.33633	-25
1.34000	-27
1.34367	-28
1.34733	-28
1.35100	-29
1.35467	-28
1.35833	-24
1.36200	-20
1.36567	-19
1.36933	-16
1.37300	-9
1.37667	-4
1.38033	-4
1.38400	-10
1.38767	-24
1.39133	-39
1.39500	-50
1.39867	-55
1.40233	-52
1.40600	-48
1.40967	-47
1.41333	-45
1.41700	-36
1.42067	-24
1.42433	-20
1.42800	-23
1.43167	-29
1.43533	-29
1.43900	-5
1.44267	95
1.44633	329
1.45000	862
1.45367	2073
1.45733	4104
1.46100	6569
1.46467	8940
1.46833	10880
1.47200	12230
1.47567	12873
1.47933	12697
1.48300	11693
1.48667	10049
1.49033	8112
1.49400	6227
1.49767	4611
1.50133	3342
1.50500	2397
1.50867	1719
1.51233	1244
1.51600	916
1.51967	692
1.52333	539
1.52700	432
1.53067	352
1.53433	295
1.53800	268
1.54167	301
1.54533	454
1.54900	759
1.55267	1166
1.55633	1582
1.56000	1931
1.56367	2180
1.56733	2308
1.57100	2286
1.57467	2106
1.57833	1797
1.58200	1426
1.58567	1067
1.58933	764
1.59300	535
1.59667	375
1.60033	268
1.60400	191
1.60767	136
1.61133	95
1.61500	60
1.61867	33
1.62233	11
1.62600	-4
1.62967	-12
1.63333	-13
1.63700	-6
1.64067	7
1.64433	16
1.64800	20
1.65167	20
1.65533	19
1.65900	13
1.66267	3
1.66633	-8
1.67000	-13
1.67367	-7
1.67733	3
1.68100	8
1.68467	4
1.68833	-8
1.69200	-22
1.69567	-33
1.69933	-39
1.70300	-39
1.70667	-36
1.71033	-39
1.71400	-44
1.71767	-47
1.72133	-49
1.72500	-47
1.72867	-40
1.73233	-31
1.73600	-23
1.73967	-20
1.74333	-22
1.74700	-25
1.75067	-26
1.75433	-27
1.75800	-27
1.76167	-24
1.76533	-21
1.76900	-18
1.77267	-16
1.77633	-16
1.78000	-16
1.78367	-17
1.78733	-22
1.79100	-25
1.79467	-25
1.79833	-22
1.80200	-17
1.80567	-14
1.80933	-13
1.81300	-12
1.81667	-11
1.82033	-10
1.82400	-12
1.82767	-16
1.83133	-21
1.83500	-27
1.83867	-33
1.84233	-36
1.84600	-35
1.84967	-29
1.85333	-21
1.85700	-14
1.86067	-11
1.86433	-11
1.86800	-12
1.87167	-15
1.87533	-19
1.87900	-23
1.88267	-26
1.88633	-28
1.89000	-27
1.89367	-24
1.89733	-26
1.90100	-28
1.90467	-25
1.90833	-18
1.91200	-13
1.91567	-13
1.91933	-17
1.92300	-16
1.92667	-11
1.93033	-6
1.93400	1
1.93767	11
1.94133	22
1.94500	32
1.94867	34
1.95233	36
1.95600	121
1.95967	716
1.96333	3493
1.96700	13168
1.97067	38943
1.97433	92389
1.97800	179932
1.98167	295291
1.98533	420298
1.98900	533160
1.99267	615784
1.99633	656375
2.00000	650051
2.00367	600109
2.00733	518150
2.01100	420879
2.01467	324436
2.01833	239912
2.02200	172178
2.02567	121301
2.02933	84794
2.03300	59385
2.03667	42035
2.04033	30304
2.04400	22388
2.04767	17021
2.05133	13343
2.05500	10776
2.05867	8944
2.06233	7603
2.06600	6592
2.06967	5810
2.07333	5195
2.07700	4703
2.08067	4299
2.08433	3961
2.08800	3673
2.09167	3423
2.09533	3210
2.09900	3027
2.10267	2866
2.10633	2716
2.11000	2576
2.11367	2450
2.11733	2335
2.12100	2229
2.12467	2132
2.12833	2045
2.13200	1967
2.13567	1891
2.13933	1821
2.14300	1753
2.14667	1687
2.15033	1624
2.15400	1566
2.15767	1512
2.16133	1464
2.16500	1420
2.16867	1379
2.17233	1341
2.17600	1303
2.17967	1267
2.18333	1234
2.18700	1200
2.19067	1167
2.19433	1135
2.19800	1106
2.20167	1081
2.20533	1055
2.20900	1026
2.21267	997
2.21633	972
2.22000	954
2.22367	941
2.22733	925
2.23100	909
2.23467	896
2.23833	881
2.24200	864
2.24567	845
2.24933	823
2.25300	801
2.25667	783
2.26033	768
2.26400	755
2.26767	741
2.27133	726
2.27500	709
2.27867	689
2.28233	671
2.28600	656
2.28967	643
2.29333	633
2.29700	625
2.30067	616
2.30433	606
2.30800	597
2.31167	591
2.31533	585
2.31900	579
2.32267	571
2.32633	565
2.33000	561
2.33367	557
2.33733	556
2.34100	560
2.34467	558
2.34833	547
2.35200	531
2.35567	513
2.35933	499
2.36300	492
2.36667	487
2.37033	480
2.37400	473
2.37767	468
2.38133	464
2.38500	462
2.38867	459
2.39233	458
2.39600	459
2.39967	459
2.40333	459
2.40700	453
2.41067	443
2.41433	435
2.41800	426
2.42167	420
2.42533	419
2.42900	418
2.43267	415
2.43633	412
2.44000	412
2.44367	414
2.44733	417
2.45100	416
2.45467	412
2.45833	403
2.46200	392
2.46567	382
2.46933	374
2.47300	367
2.47667	363
2.48033	357
2.48400	353
2.48767	351
2.49133	352
2.49500	355
2.49867	357
2.50233	355
2.50600	353
2.50967	353
2.51333	351
2.51700	352
2.52067	358
2.52433	367
2.52800	372
2.53167	371
2.53533	365
2.53900	361
2.54267	358
2.54633	354
2.55000	352
2.55367	351
2.55733	348
2.56100	345
2.56467	339
2.56833	329
2.57200	320
2.57567	316
2.57933	318
2.58300	318
2.58667	318
2.59033	316
2.59400	315
2.59767	314
2.60133	314
2.60500	316
2.60867	318
2.61233	320
2.61600	322
2.61967	324
2.62333	324
2.62700	324
2.63067	321
2.63433	316
2.63800	313
2.64167	311
2.64533	308
2.64900	307
2.65267	305
2.65633	301
2.66000	299
2.66367	298
2.66733	298
2.67100	297
2.67467	296
2.67833	299
2.68200	301
2.68567	302
2.68933	303
2.69300	305
2.69667	306
2.70033	306
2.70400	304
2.70767	302
2.71133	300
2.71500	298
2.71867	295
2.72233	294
2.72600	299
2.72967	309
2.73333	315
2.73700	314
2.74067	313
2.74433	311
2.74800	309
2.75167	306
2.75533	301
2.75900	297
2.76267	296
2.76633	298
2.77000	302
2.77367	310
2.77733	322
2.78100	331
2.78467	336
2.78833	333
2.79200	322
2.79567	309
2.79933	297
2.80300	288
2.80667	279
2.81033	272
2.81400	266
2.81767	266
2.82133	270
2.82500	275
2.82867	279
2.83233	285
2.83600	291
2.83967	297
2.84333	301
2.84700	303
2.85067	302
2.85433	299
2.85800	295
2.86167	291
2.86533	288
2.86900	287
2.87267	289
2.87633	294
2.88000	300
2.88367	303
2.88733	301
2.89100	300
2.89467	301
2.89833	303
2.90200	304
2.90567	308
2.90933	313
2.91300	315
2.91667	315
2.92033	313
2.92400	312
2.92767	309
2.93133	308
2.93500	306
2.93867	304
2.94233	303
2.94600	305
2.94967	312
2.95333	320
2.95700	324
2.96067	322
2.96433	314
2.96800	308
2.97167	307
2.97533	309
2.97900	313
2.98267	314
2.98633	315
2.99000	314
2.99367	312
2.99733	306
3.00100	303
3.00467	300
3.00833	300
3.01200	301
3.01567	306
3.01933	313
3.02300	315
3.02667	313
3.03033	308
3.03400	304
3.03767	306
3.04133	307
3.04500	306
3.04867	303
3.05233	300
3.05600	298
3.05967	299
3.06333	302
3.06700	307
3.07067	314
3.07433	318
3.07800	318
3.08167	315
3.08533	311
3.08900	309
3.09267	307
3.09633	306
3.10000	307
3.10367	310
3.10733	313
3.11100	316
3.11467	320
3.11833	326
3.12200	328
3.12567	323
3.12933	313
3.13300	298
3.13667	284
3.14033	276
3.14400	276
3.14767	282
3.15133	292
3.15500	301
3.15867	308
3.16233	309
3.16600	305
3.16967	301
3.17333	297
3.17700	297
3.18067	295
3.18433	292
3.18800	291
3.19167	293
3.19533	296
3.19900	299
3.20267	300
3.20633	301
3.21000	304
3.21367	308
3.21733	309
3.22100	305
3.22467	301
3.22833	299
3.23200	296
3.23567	292
3.23933	288
3.24300	284
3.24667	283
3.25033	283
3.25400	282
3.25767	281
3.26133	280
3.26500	279
3.26867	273
3.27233	268
3.27600	267
3.27967	272
3.28333	279
3.28700	288
3.29067	292
3.29433	292
3.29800	288
3.30167	279
3.30533	274
3.30900	276
3.31267	281
3.31633	285
3.32000	285
3.32367	284
3.32733	288
3.33100	299
3.33467	309
3.33833	313
3.34200	311
3.34567	307
3.34933	303
3.35300	298
3.35667	292
3.36033	290
3.36400	290
3.36767	286
3.37133	280
3.37500	274
3.37867	270
3.38233	272
3.38600	278
3.38967	282
3.39333	281
3.39700	279
3.40067	281
3.40433	282
3.40800	279
3.41167	274
3.41533	275
3.41900	280
3.42267	284
3.42633	288
3.43000	289
3.43367	288
3.43733	290
3.44100	294
3.44467	290
3.44833	279
3.45200	267
3.45567	257
3.45933	254
3.46300	256
3.46667	265
3.47033	278
3.47400	288
3.47767	291
3.48133	288
3.48500	281
3.48867	274
3.49233	267
3.49600	260
3.49967	252
3.50333	247
3.50700	249
3.51067	251
3.51433	248
3.51800	246
3.52167	247
3.52533	252
3.52900	258
3.53267	264
3.53633	267
3.54000	269
3.54367	271
3.54733	272
3.55100	275
3.55467	276
3.55833	268
3.56200	258
3.56567	249
3.56933	243
3.57300	239
3.57667	240
3.58033	240
3.58400	241
3.58767	240
3.59133	235
3.59500	231
3.59867	232
3.60233	234
3.60600	239
3.60967	246
3.61333	255
3.61700	263
3.62067	265
3.62433	261
3.62800	252
3.63167	242
3.63533	233
3.63900	229
3.64267	229
3.64633	229
3.65000	228
3.65367	229
3.65733	231
3.66100	233
3.66467	236
3.66833	236
3.67200	234
3.67567	232
3.67933	227
3.68300	224
3.68667	224
3.69033	224
3.69400	225
3.69767	227
3.70133	230
3.70500	232
3.70867	232
3.71233	231
3.71600	230
3.71967	225
3.72333	220
3.72700	218
3.73067	221
3.73433	227
3.73800	233
3.74167	237
3.74533	238
3.74900	237
3.75267	236
3.75633	232
3.76000	226
3.76367	218
3.76733	212
3.77100	208
3.77467	201
3.77833	192
3.78200	184
3.78567	180
3.78933	180
3.79300	186
3.79667	195
3.80033	199
3.80400	200
3.80767	203
3.81133	207
3.81500	210
3.81867	214
3.82233	212
3.82600	202
3.82967	193
3.83333	189
3.83700	192
3.84067	202
3.84433	218
3.84800	227
3.85167	229
3.85533	227
3.85900	225
3.86267	224
3.86633	221
3.87000	215
3.87367	204
3.87733	190
3.88100	179
3.88467	174
3.88833	176
3.89200	182
3.89567	184
3.89933	183
3.90300	182
3.90667	182
3.91033	183
3.91400	185
3.91767	187
3.92133	189
3.92500	190
3.92867	189
3.93233	186
3.93600	180
3.93967	177
3.94333	175
3.94700	174
3.95067	173
3.95433	173
3.95800	176
3.96167	181
3.96533	184
3.96900	181
3.97267	175
3.97633	172
3.98000	170
3.98367	170
3.98733	170
3.99100	173
3.99467	178
3.99833	183

[Chromatogram (Ch2)]
Interval(msec)	220
# of Points	1091
Start Time(min)	0.002
End Time(min)	3.998
R.Time (min)	Intensity
0.00167	0
0.00533	-0
0.00900	-0
0.01267	0
0.01633	0
0.02000	0
0.02367	1
0.02733	1
0.03100	0
0.03467	-0
0.03833	-0
0.04200	-1
0.04567	-1
0.04933	-1
0.05300	-1
0.05667	-1
0.06033	-1
0.06400	-1
0.06767	-1
0.07133	-1
0.07500	-1
0.07867	-1
0.08233	-1
0.08600	-1
0.08967	-1
0.09333	-1
0.09700	-2
0.10067	-2
0.10433	-2
0.10800	-3
0.11167	-3
0.11533	-4
0.11900	-4
0.12267	-4
0.12633	-4
0.13000	-4
0.13367	-4
0.13733	-3
0.14100	-3
0.14467	-4
0.14833	-4
0.15200	-4
0.15567	-4
0.15933	-4
0.16300	-4
0.16667	-4
0.17033	-4
0.17400	-4
0.17767	-4
0.18133	-4
0.18500	-4
0.18867	-4
0.19233	-3
0.19600	-3
0.19967	-3
0.20333	-3
0.20700	-3
0.21067	-3
0.21433	-3
0.21800	-3
0.22167	-3
0.22533	-3
0.22900	-3
0.23267	-3
0.23633	-3
0.24000	-3
0.24367	-3
0.24733	-2
0.25100	-2
0.25467	-2
0.25833	-2
0.26200	-2
0.26567	-2
0.26933	-2
0.27300	-2
0.27667	-2
0.28033	-2
0.28400	-1
0.28767	-1
0.29133	-1
0.29500	-1
0.29867	-1
0.30233	-1
0.30600	-1
0.30967	-1
0.31333	-1
0.31700	-1
0.32067	-1
0.32433	-1
0.32800	-1
0.33167	-1
0.33533	-1
0.33900	-1
0.34267	-0
0.34633	-0
0.35000	-0
0.35367	-0
0.35733	-0
0.36100	-0
0.36467	-0
0.36833	-0
0.37200	-0
0.37567	-0
0.37933	-1
0.38300	-1
0.38667	-2
0.39033	-2
0.39400	-3
0.39767	-4
0.40133	-4
0.40500	-4
0.40867	-4
0.41233	-4
0.41600	-4
0.41967	-4
0.42333	-4
0.42700	-4
0.43067	-4
0.43433	-3
0.43800	-3
0.44167	-3
0.44533	-3
0.44900	-3
0.45267	-3
0.45633	-3
0.46000	-3
0.46367	-3
0.46733	-3
0.47100	-3
0.47467	-3
0.47833	-3
0.48200	-3
0.48567	-2
0.48933	-2
0.49300	-2
0.49667	-2
0.50033	-2
0.50400	-2
0.50767	-1
0.51133	-1
0.51500	-1
0.51867	-1
0.52233	-1
0.52600	-1
0.52967	-2
0.53333	-2
0.53700	-2
0.54067	-2
0.54433	-2
0.54800	-2
0.55167	-2
0.55533	-3
0.55900	-3
0.56267	-3
0.56633	-3
0.57000	-3
0.57367	-3
0.57733	-3
0.58100	-3
0.58467	-3
0.58833	-3
0.59200	-3
0.59567	-3
0.59933	-3
0.60300	-3
0.60667	-3
0.61033	-3
0.61400	-2
0.61767	-2
0.62133	-2
0.62500	-2
0.62867	-2
0.63233	-2
0.63600	-2
0.63967	-2
0.64333	-2
0.64700	-1
0.65067	-1
0.65433	-1
0.65800	-1
0.66167	-1
0.66533	-1
0.66900	-0
0.67267	-0
0.67633	-1
0.68000	-1
0.68367	-1
0.68733	-1
0.69100	-1
0.69467	-1
0.69833	-1
0.70200	-0
0.70567	-0
0.70933	0
0.71300	0
0.71667	-0
0.72033	-0
0.72400	-1
0.72767	-1
0.73133	-1
0.73500	-1
0.73867	-1
0.74233	-1
0.74600	-2
0.74967	-2
0.75333	-2
0.75700	-2
0.76067	-3
0.76433	-3
0.76800	-3
0.77167	-3
0.77533	-3
0.77900	-3
0.78267	-3
0.78633	-3
0.79000	-3
0.79367	-3
0.79733	-3
0.80100	-3
0.80467	-3
0.80833	-3
0.81200	-3
0.81567	-3
0.81933	-3
0.82300	-4
0.82667	-4
0.83033	-4
0.83400	-4
0.83767	-4
0.84133	-4
0.84500	-4
0.84867	-4
0.85233	-4
0.85600	-4
0.85967	-4
0.86333	-4
0.86700	-4
0.87067	-4
0.87433	-4
0.87800	-4
0.88167	-4
0.88533	-4
0.88900	-4
0.89267	-4
0.89633	-5
0.90000	-5
0.90367	-5
0.90733	-5
0.91100	-5
0.91467	-5
0.91833	-4
0.92200	-4
0.92567	-4
0.92933	-4
0.93300	-4
0.93667	-3
0.94033	-3
0.94400	-3
0.94767	-3
0.95133	-4
0.95500	-4
0.95867	-4
0.96233	-4
0.96600	-4
0.96967	-4
0.97333	-4
0.97700	-4
0.98067	-4
0.98433	-4
0.98800	-4
0.99167	-4
0.99533	-4
0.99900	-4
1.00267	-4
1.00633	-4
1.01000	-4
1.01367	-4
1.01733	-4
1.02100	-4
1.02467	-4
1.02833	-4
1.03200	-4
1.03567	-4
1.03933	-4
1.04300	-4
1.04667	-4
1.05033	-4
1.05400	-4
1.05767	-4
1.06133	-3
1.06500	-3
1.06867	-3
1.07233	-2
1.07600	-2
1.07967	-1
1.08333	-1
1.08700	-1
1.09067	-1
1.09433	-1
1.09800	-1
1.10167	-1
1.10533	-1
1.10900	-1
1.11267	-1
1.11633	-1
1.12000	-1
1.12367	-1
1.12733	-2
1.13100	-2
1.13467	-3
1.13833	-3
1.14200	-4
1.14567	-4
1.14933	-5
1.15300	-6
1.15667	-6
1.16033	-6
1.16400	-7
1.16767	-7
1.17133	-7
1.17500	-7
1.17867	-7
1.18233	-6
1.18600	-6
1.18967	-6
1.19333	-6
1.19700	-6
1.20067	-6
1.20433	-6
1.20800	-6
1.21167	-6
1.21533	-6
1.21900	-6
1.22267	-5
1.22633	-5
1.23000	-5
1.23367	-5
1.23733	-4
1.24100	-4
1.24467	-4
1.24833	-3
1.25200	-3
1.25567	-3
1.25933	-3
1.26300	-4
1.26667	-4
1.27033	-4
1.27400	-4
1.27767	-4
1.28133	-4
1.28500	-4
1.28867	-4
1.29233	-4
1.29600	-4
1.29967	-3
1.30333	-3
1.30700	-3
1.31067	-3
1.31433	-3
1.31800	-3
1.32167	-2
1.32533	-2
1.32900	-2
1.33267	-2
1.33633	-1
1.34000	-2
1.34367	-2
1.34733	-2
1.35100	-2
1.35467	-3
1.35833	-3
1.36200	-3
1.36567	-4
1.36933	-4
1.37300	-4
1.37667	-5
1.38033	-5
1.38400	-5
1.38767	-5
1.39133	-5
1.39500	-5
1.39867	-5
1.40233	-5
1.40600	-5
1.40967	-5
1.41333	-5
1.41700	-5
1.42067	-5
1.42433	-5
1.42800	-4
1.43167	-4
1.43533	-4
1.43900	-3
1.44267	-3
1.44633	-2
1.45000	-2
1.45367	-1
1.45733	-1
1.46100	-0
1.46467	-0
1.46833	-0
1.47200	-1
1.47567	-1
1.47933	-1
1.48300	-2
1.48667	-2
1.49033	-3
1.49400	-3
1.49767	-4
1.50133	-4
1.50500	-4
1.50867	-4
1.51233	-4
1.51600	-4
1.51967	-4
1.52333	-4
1.52700	-4
1.53067	-4
1.53433	-4
1.53800	-4
1.54167	-5
1.54533	-5
1.54900	-5
1.55267	-5
1.55633	-5
1.56000	-5
1.56367	-5
1.56733	-5
1.57100	-5
1.57467	-5
1.57833	-5
1.58200	-5
1.58567	-6
1.58933	-6
1.59300	-7
1.59667	-8
1.60033	-8
1.60400	-9
1.60767	-10
1.61133	-11
1.61500	-12
1.61867	-14
1.62233	-16
1.62600	-19
1.62967	-22
1.63333	-25
1.63700	-28
1.64067	-31
1.64433	-35
1.64800	-39
1.65167	-42
1.65533	-46
1.65900	-50
1.66267	-54
1.66633	-58
1.67000	-63
1.67367	-69
1.67733	-74
1.68100	-80
1.68467	-85
1.68833	-89
1.69200	-93
1.69567	-96
1.69933	-99
1.70300	-101
1.70667	-103
1.71033	-104
1.71400	-105
1.71767	-106
1.72133	-107
1.72500	-108
1.72867	-109
1.73233	-110
1.73600	-111
1.73967	-112
1.74333	-113
1.74700	-113
1.75067	-113
1.75433	-113
1.75800	-114
1.76167	-114
1.76533	-115
1.76900	-115
1.77267	-116
1.77633	-116
1.78000	-117
1.78367	-117
1.78733	-118
1.79100	-118
1.79467	-119
1.79833	-119
1.80200	-119
1.80567	-119
1.80933	-119
1.81300	-119
1.81667	-120
1.82033	-120
1.82400	-119
1.82767	-119
1.83133	-119
1.83500	-119
1.83867	-119
1.84233	-119
1.84600	-120
1.84967	-120
1.85333	-120
1.85700	-119
1.86067	-119
1.86433	-118
1.86800	-117
1.87167	-117
1.87533	-116
1.87900	-115
1.88267	-114
1.88633	-114
1.89000	-114
1.89367	-115
1.89733	-115
1.90100	-115
1.90467	-116
1.90833	-116
1.91200	-116
1.91567	-117
1.91933	-116
1.92300	-116
1.92667	-116
1.93033	-115
1.93400	-115
1.93767	-114
1.94133	-113
1.94500	-113
1.94867	-113
1.95233	-114
1.95600	-114
1.95967	-113
1.96333	-113
1.96700	-113
1.97067	-112
1.97433	-111
1.97800	-111
1.98167	-110
1.98533	-110
1.98900	-110
1.99267	-110
1.99633	-110
2.00000	-109
2.00367	-109
2.00733	-109
2.01100	-109
2.01467	-110
2.01833	-110
2.02200	-110
2.02567	-111
2.02933	-111
2.03300	-111
2.03667	-110
2.04033	-110
2.04400	-109
2.04767	-109
2.05133	-109
2.05500	-109
2.05867	-108
2.06233	-108
2.06600	-107
2.06967	-107
2.07333	-107
2.07700	-107
2.08067	-107
2.08433	-107
2.08800	-107
2.09167	-107
2.09533	-107
2.09900	-106
2.10267	-106
2.10633	-105
2.11000	-105
2.11367	-104
2.11733	-104
2.12100	-104
2.12467	-104
2.12833	-103
2.13200	-103
2.13567	-102
2.13933	-101
2.14300	-101
2.14667	-100
2.15033	-99
2.15400	-99
2.15767	-99
2.16133	-99
2.16500	-99
2.16867	-98
2.17233	-98
2.17600	-98
2.17967	-97
2.18333	-97
2.18700	-97
2.19067	-97
2.19433	-97
2.19800	-96
2.20167	-95
2.20533	-95
2.20900	-94
2.21267	-93
2.21633	-93
2.22000	-92
2.22367	-91
2.22733	-91
2.23100	-90
2.23467	-90
2.23833	-89
2.24200	-88
2.24567	-88
2.24933	-87
2.25300	-87
2.25667	-87
2.26033	-87
2.26400	-88
2.26767	-88
2.27133	-88
2.27500	-87
2.27867	-87
2.28233	-87
2.28600	-87
2.28967	-87
2.29333	-87
2.29700	-87
2.30067	-87
2.30433	-87
2.30800	-87
2.31167	-87
2.31533	-86
2.31900	-86
2.32267	-85
2.32633	-84
2.33000	-83
2.33367	-82
2.33733	-82
2.34100	-81
2.34467	-81
2.34833	-81
2.35200	-80
2.35567	-80
2.35933	-79
2.36300	-78
2.36667	-77
2.37033	-75
2.37400	-72
2.37767	-69
2.38133	-66
2.38500	-62
2.38867	-58
2.39233	-54
2.39600	-49
2.39967	-45
2.40333	-40
2.40700	-37
2.41067	-33
2.41433	-30
2.41800	-27
2.42167	-24
2.42533	-22
2.42900	-20
2.43267	-19
2.43633	-18
2.44000	-17
2.44367	-15
2.44733	-14
2.45100	-13
2.45467	-11
2.45833	-9
2.46200	-7
2.46567	-6
2.46933	-5
2.47300	-4
2.47667	-3
2.48033	-1
2.48400	0
2.48767	1
2.49133	2
2.49500	3
2.49867	4
2.50233	4
2.50600	5
2.50967	6
2.51333	7
2.51700	8
2.52067	9
2.52433	9
2.52800	10
2.53167	10
2.53533	11
2.53900	11
2.54267	12
2.54633	12
2.55000	13
2.55367	13
2.55733	14
2.56100	14
2.56467	13
2.56833	13
2.57200	13
2.57567	12
2.57933	12
2.58300	12
2.58667	12
2.59033	12
2.59400	12
2.59767	12
2.60133	13
2.60500	13
2.60867	13
2.61233	14
2.61600	14
2.61967	14
2.62333	14
2.62700	14
2.63067	15
2.63433	15
2.63800	15
2.64167	15
2.64533	16
2.64900	16
2.65267	16
2.65633	17
2.66000	17
2.66367	17
2.66733	17
2.67100	18
2.67467	18
2.67833	18
2.68200	18
2.68567	18
2.68933	19
2.69300	19
2.69667	19
2.70033	20
2.70400	20
2.70767	21
2.71133	21
2.71500	22
2.71867	22
2.72233	22
2.72600	22
2.72967	22
2.73333	22
2.73700	23
2.74067	23
2.74433	23
2.74800	24
2.75167	24
2.75533	25
2.75900	26
2.76267	26
2.76633	26
2.77000	27
2.77367	27
2.77733	26
2.78100	26
2.78467	25
2.78833	25
2.79200	24
2.79567	24
2.79933	24
2.80300	24
2.80667	23
2.81033	23
2.81400	23
2.81767	24
2.82133	24
2.82500	24
2.82867	23
2.83233	23
2.83600	22
2.83967	21
2.84333	19
2.84700	15
2.85067	8
2.85433	-1
2.85800	-14
2.86167	-31
2.86533	-52
2.86900	-78
2.87267	-107
2.87633	-141
2.88000	-178
2.88367	-219
2.88733	-263
2.89100	-310
2.89467	-360
2.89833	-411
2.90200	-464
2.90567	-517
2.90933	-571
2.91300	-625
2.91667	-679
2.92033	-732
2.92400	-784
2.92767	-835
2.93133	-888
2.93500	-945
2.93867	-1005
2.94233	-1059
2.94600	-1098
2.94967	-1113
2.95333	-1101
2.95700	-1065
2.96067	-1009
2.96433	-940
2.96800	-862
2.97167	-781
2.97533	-700
2.97900	-621
2.98267	-548
2.98633	-480
2.99000	-418
2.99367	-362
2.99733	-313
3.00100	-269
3.00467	-231
3.00833	-197
3.01200	-168
3.01567	-143
3.01933	-121
3.02300	-102
3.02667	-86
3.03033	-72
3.03400	-60
3.03767	-49
3.04133	-40
3.04500	-32
3.04867	-26
3.05233	-20
3.05600	-15
3.05967	-11
3.06333	-8
3.06700	-5
3.07067	-2
3.07433	-0
3.07800	1
3.08167	3
3.08533	4
3.08900	6
3.09267	7
3.09633	8
3.10000	9
3.10367	10
3.10733	11
3.11100	12
3.11467	12
3.11833	13
3.12200	13
3.12567	13
3.12933	14
3.13300	14
3.13667	14
3.14033	14
3.14400	14
3.14767	15
3.15133	15
3.15500	15
3.15867	15
3.16233	15
3.16600	16
3.16967	16
3.17333	16
3.17700	16
3.18067	17
3.18433	17
3.18800	17
3.19167	17
3.19533	18
3.19900	18
3.20267	18
3.20633	19
3.21000	19
3.21367	19
3.21733	19
3.22100	19
3.22467	20
3.22833	20
3.23200	20
3.23567	20
3.23933	20
3.24300	21
3.24667	21
3.25033	21
3.25400	21
3.25767	22
3.26133	22
3.26500	22
3.26867	22
3.27233	22
3.27600	22
3.27967	22
3.28333	22
3.28700	22
3.29067	22
3.29433	22
3.29800	22
3.30167	21
3.30533	21
3.30900	21
3.31267	22
3.31633	22
3.32000	22
3.32367	22
3.32733	22
3.33100	22
3.33467	22
3.33833	23
3.34200	23
3.34567	23
3.34933	23
3.35300	24
3.35667	24
3.36033	24
3.36400	24
3.36767	24
3.37133	24
3.37500	24
3.37867	24
3.38233	24
3.38600	25
3.38967	25
3.39333	25
3.39700	25
3.40067	25
3.40433	25
3.40800	25
3.41167	25
3.41533	25
3.41900	25
3.42267	25
3.42633	25
3.43000	25
3.43367	25
3.43733	25
3.44100	25
3.44467	25
3.44833	25
3.45200	26
3.45567	26
3.45933	26
3.46300	26
3.46667	25
3.47033	25
3.47400	25
3.47767	25
3.48133	25
3.48500	25
3.48867	25
3.49233	25
3.49600	24
3.49967	24
3.50333	24
3.50700	25
3.51067	25
3.51433	25
3.51800	25
3.52167	25
3.52533	25
3.52900	25
3.53267	26
3.53633	26
3.54000	25
3.54367	26
3.54733	26
3.55100	26
3.55467	26
3.55833	26
3.56200	26
3.56567	26
3.56933	26
3.57300	26
3.57667	26
3.58033	26
3.58400	27
3.58767	27
3.59133	27
3.59500	27
3.59867	27
3.60233	27
3.60600	27
3.60967	27
3.61333	27
3.61700	26
3.62067	26
3.62433	26
3.62800	26
3.63167	26
3.63533	26
3.63900	25
3.64267	26
3.64633	26
3.65000	26
3.65367	25
3.65733	25
3.66100	25
3.66467	25
3.66833	25
3.67200	25
3.67567	25
3.67933	25
3.68300	25
3.68667	25
3.69033	25
3.69400	24
3.69767	24
3.70133	24
3.70500	24
3.70867	24
3.71233	24
3.71600	24
3.71967	24
3.72333	23
3.72700	23
3.73067	23
3.73433	23
3.73800	23
3.74167	23
3.74533	23
3.74900	24
3.75267	24
3.75633	24
3.76000	24
3.76367	24
3.76733	25
3.77100	25
3.77467	25
3.77833	25
3.78200	26
3.78567	26
3.78933	25
3.79300	25
3.79667	25
3.80033	25
3.80400	25
3.80767	25
3.81133	25
3.81500	25
3.81867	25
3.82233	25
3.82600	25
3.82967	25
3.83333	25
3.83700	25
3.84067	25
3.84433	24
3.84800	24
3.85167	24
3.85533	24
3.85900	23
3.86267	23
3.86633	23
3.87000	23
3.87367	23
3.87733	23
3.88100	23
3.88467	23
3.88833	23
3.89200	23
3.89567	22
3.89933	23
3.90300	23
3.90667	23
3.91033	23
3.91400	23
3.91767	24
3.92133	24
3.92500	24
3.92867	24
3.93233	24
3.93600	24
3.93967	24
3.94333	24
3.94700	24
3.95067	24
3.95433	24
3.95800	25
3.96167	25
3.96533	25
3.96900	26
3.97267	26
3.97633	26
3.98000	26
3.98367	26
3.98733	26
3.99100	26
3.99467	26
3.99833	26

[Chromatogram (Ch3)]
Interval(msec)	220
# of Points	1091
Start Time(min)	0.002
End Time(min)	3.998
R.Time (min)	Intensity
0.00167	-1
0.00533	-1
0.00900	-1
0.01267	1
0.01633	-0
0.02000	-1
0.02367	-1
0.02733	-1
0.03100	-3
0.03467	-4
0.03833	-3
0.04200	-2
0.04567	-1
0.04933	0
0.05300	3
0.05667	5
0.06033	7
0.06400	7
0.06767	5
0.07133	4
0.07500	3
0.07867	3
0.08233	3
0.08600	4
0.08967	3
0.09333	2
0.09700	3
0.10067	3
0.10433	3
0.10800	4
0.11167	5
0.11533	4
0.11900	4
0.12267	2
0.12633	3
0.13000	4
0.13367	5
0.13733	5
0.14100	5
0.14467	4
0.14833	4
0.15200	4
0.15567	4
0.15933	4
0.16300	3
0.16667	1
0.17033	2
0.17400	1
0.17767	-0
0.18133	-2
0.18500	-3
0.18867	-2
0.19233	2
0.19600	3
0.19967	3
0.20333	5
0.20700	6
0.21067	7
0.21433	8
0.21800	6
0.22167	4
0.22533	4
0.22900	3
0.23267	2
0.23633	4
0.24000	6
0.24367	7
0.24733	8
0.25100	8
0.25467	7
0.25833	6
0.26200	4
0.26567	3
0.26933	3
0.27300	1
0.27667	1
0.28033	4
0.28400	7
0.28767	8
0.29133	7
0.29500	6
0.29867	4
0.30233	2
0.30600	2
0.30967	4
0.31333	6
0.31700	7
0.32067	8
0.32433	8
0.32800	10
0.33167	9
0.33533	9
0.33900	8
0.34267	9
0.34633	10
0.35000	8
0.35367	7
0.35733	6
0.36100	4
0.36467	4
0.36833	5
0.37200	6
0.37567	8
0.37933	8
0.38300	6
0.38667	8
0.39033	9
0.39400	8
0.39767	4
0.40133	2
0.40500	2
0.40867	3
0.41233	5
0.41600	5
0.41967	3
0.42333	3
0.42700	4
0.43067	7
0.43433	9
0.43800	10
0.44167	11
0.44533	11
0.44900	12
0.45267	12
0.45633	11
0.46000	10
0.46367	10
0.46733	10
0.47100	9
0.47467	7
0.47833	6
0.48200	6
0.48567	5
0.48933	5
0.49300	6
0.49667	8
0.50033	8
0.50400	8
0.50767	9
0.51133	13
0.51500	13
0.51867	12
0.52233	12
0.52600	12
0.52967	12
0.53333	13
0.53700	10
0.54067	5
0.54433	3
0.54800	4
0.55167	4
0.55533	5
0.55900	8
0.56267	10
0.56633	13
0.57000	15
0.57367	16
0.57733	13
0.58100	11
0.58467	9
0.58833	8
0.59200	8
0.59567	10
0.59933	12
0.60300	12
0.60667	14
0.61033	16
0.61400	18
0.61767	19
0.62133	17
0.62500	14
0.62867	12
0.63233	13
0.63600	13
0.63967	14
0.64333	14
0.64700	15
0.65067	15
0.65433	15
0.65800	14
0.66167	12
0.66533	10
0.66900	11
0.67267	12
0.67633	12
0.68000	12
0.68367	14
0.68733	13
0.69100	14
0.69467	14
0.69833	13
0.70200	15
0.70567	15
0.70933	15
0.71300	17
0.71667	21
0.72033	23
0.72400	22
0.72767	21
0.73133	18
0.73500	16
0.73867	15
0.74233	17
0.74600	18
0.74967	17
0.75333	16
0.75700	14
0.76067	13
0.76433	15
0.76800	18
0.77167	19
0.77533	18
0.77900	17
0.78267	18
0.78633	20
0.79000	21
0.79367	20
0.79733	17
0.80100	16
0.80467	12
0.80833	9
0.81200	7
0.81567	6
0.81933	6
0.82300	8
0.82667	9
0.83033	11
0.83400	12
0.83767	12
0.84133	13
0.84500	13
0.84867	15
0.85233	17
0.85600	19
0.85967	21
0.86333	21
0.86700	21
0.87067	18
0.87433	17
0.87800	18
0.88167	20
0.88533	19
0.88900	18
0.89267	16
0.89633	18
0.90000	19
0.90367	18
0.90733	16
0.91100	14
0.91467	13
0.91833	12
0.92200	12
0.92567	13
0.92933	15
0.93300	17
0.93667	17
0.94033	16
0.94400	17
0.94767	19
0.95133	19
0.95500	18
0.95867	17
0.96233	17
0.96600	19
0.96967	19
0.97333	18
0.97700	17
0.98067	16
0.98433	16
0.98800	16
0.99167	16
0.99533	15
0.99900	14
1.00267	13
1.00633	14
1.01000	19
1.01367	23
1.01733	24
1.02100	24
1.02467	25
1.02833	26
1.03200	25
1.03567	23
1.03933	22
1.04300	21
1.04667	22
1.05033	21
1.05400	20
1.05767	21
1.06133	23
1.06500	24
1.06867	25
1.07233	24
1.07600	23
1.07967	21
1.08333	21
1.08700	21
1.09067	21
1.09433	22
1.09800	21
1.10167	20
1.10533	21
1.10900	22
1.11267	22
1.11633	21
1.12000	19
1.12367	19
1.12733	20
1.13100	19
1.13467	19
1.13833	21
1.14200	22
1.14567	21
1.14933	21
1.15300	23
1.15667	24
1.16033	24
1.16400	23
1.16767	21
1.17133	21
1.17500	18
1.17867	18
1.18233	19
1.18600	19
1.18967	18
1.19333	19
1.19700	20
1.20067	21
1.20433	20
1.20800	20
1.21167	20
1.21533	19
1.21900	18
1.22267	17
1.22633	15
1.23000	15
1.23367	16
1.23733	18
1.24100	18
1.24467	19
1.24833	18
1.25200	18
1.25567	17
1.25933	17
1.26300	17
1.26667	17
1.27033	18
1.27400	19
1.27767	19
1.28133	19
1.28500	19
1.28867	20
1.29233	22
1.29600	23
1.29967	23
1.30333	24
1.30700	25
1.31067	26
1.31433	24
1.31800	23
1.32167	23
1.32533	23
1.32900	24
1.33267	25
1.33633	28
1.34000	29
1.34367	26
1.34733	24
1.35100	22
1.35467	19
1.35833	20
1.36200	22
1.36567	23
1.36933	23
1.37300	23
1.37667	23
1.38033	23
1.38400	23
1.38767	25
1.39133	25
1.39500	25
1.39867	25
1.40233	25
1.40600	25
1.40967	25
1.41333	27
1.41700	29
1.42067	28
1.42433	28
1.42800	27
1.43167	27
1.43533	23
1.43900	21
1.44267	23
1.44633	26
1.45000	27
1.45367	28
1.45733	30
1.46100	31
1.46467	31
1.46833	29
1.47200	29
1.47567	27
1.47933	24
1.48300	22
1.48667	22
1.49033	23
1.49400	23
1.49767	24
1.50133	24
1.50500	23
1.50867	22
1.51233	21
1.51600	22
1.51967	23
1.52333	25
1.52700	25
1.53067	27
1.53433	26
1.53800	24
1.54167	23
1.54533	24
1.54900	25
1.55267	28
1.55633	29
1.56000	29
1.56367	28
1.56733	28
1.57100	26
1.57467	24
1.57833	22
1.58200	24
1.58567	25
1.58933	25
1.59300	25
1.59667	26
1.60033	26
1.60400	27
1.60767	27
1.61133	27
1.61500	26
1.61867	26
1.62233	27
1.62600	31
1.62967	33
1.63333	34
1.63700	35
1.64067	35
1.64433	36
1.64800	37
1.65167	37
1.65533	37
1.65900	37
1.66267	35
1.66633	31
1.67000	32
1.67367	35
1.67733	38
1.68100	40
1.68467	41
1.68833	42
1.69200	42
1.69567	40
1.69933	37
1.70300	38
1.70667	40
1.71033	40
1.71400	39
1.71767	38
1.72133	40
1.72500	42
1.72867	44
1.73233	44
1.73600	44
1.73967	44
1.74333	45
1.74700	45
1.75067	46
1.75433	47
1.75800	47
1.76167	47
1.76533	46
1.76900	47
1.77267	46
1.77633	44
1.78000	45
1.78367	49
1.78733	49
1.79100	49
1.79467	50
1.79833	53
1.80200	55
1.80567	56
1.80933	59
1.81300	61
1.81667	62
1.82033	64
1.82400	64
1.82767	64
1.83133	62
1.83500	61
1.83867	60
1.84233	59
1.84600	59
1.84967	60
1.85333	62
1.85700	63
1.86067	62
1.86433	60
1.86800	59
1.87167	59
1.87533	58
1.87900	57
1.88267	58
1.88633	56
1.89000	55
1.89367	57
1.89733	59
1.90100	59
1.90467	60
1.90833	61
1.91200	62
1.91567	63
1.91933	67
1.92300	71
1.92667	73
1.93033	71
1.93400	69
1.93767	70
1.94133	72
1.94500	74
1.94867	77
1.95233	78
1.95600	78
1.95967	78
1.96333	80
1.96700	79
1.97067	79
1.97433	80
1.97800	80
1.98167	78
1.98533	75
1.98900	76
1.99267	78
1.99633	81
2.00000	81
2.00367	82
2.00733	82
2.01100	81
2.01467	81
2.01833	82
2.02200	83
2.02567	83
2.02933	84
2.03300	85
2.03667	85
2.04033	87
2.04400	88
2.04767	91
2.05133	93
2.05500	94
2.05867	93
2.06233	95
2.06600	98
2.06967	104
2.07333	104
2.07700	104
2.08067	105
2.08433	105
2.08800	104
2.09167	104
2.09533	105
2.09900	105
2.10267	103
2.10633	102
2.11000	104
2.11367	106
2.11733	107
2.12100	109
2.12467	112
2.12833	113
2.13200	116
2.13567	118
2.13933	119
2.14300	120
2.14667	120
2.15033	120
2.15400	121
2.15767	124
2.16133	125
2.16500	126
2.16867	127
2.17233	128
2.17600	131
2.17967	134
2.18333	136
2.18700	138
2.19067	140
2.19433	143
2.19800	146
2.20167	147
2.20533	146
2.20900	144
2.21267	146
2.21633	147
2.22000	147
2.22367	147
2.22733	147
2.23100	147
2.23467	148
2.23833	150
2.24200	153
2.24567	153
2.24933	154
2.25300	154
2.25667	154
2.26033	156
2.26400	160
2.26767	164
2.27133	165
2.27500	164
2.27867	165
2.28233	167
2.28600	166
2.28967	167
2.29333	168
2.29700	168
2.30067	167
2.30433	167
2.30800	170
2.31167	174
2.31533	176
2.31900	178
2.32267	181
2.32633	187
2.33000	190
2.33367	192
2.33733	194
2.34100	197
2.34467	199
2.34833	202
2.35200	203
2.35567	203
2.35933	206
2.36300	208
2.36667	209
2.37033	210
2.37400	210
2.37767	212
2.38133	215
2.38500	216
2.38867	214
2.39233	215
2.39600	217
2.39967	222
2.40333	226
2.40700	230
2.41067	233
2.41433	236
2.41800	240
2.42167	242
2.42533	241
2.42900	242
2.43267	245
2.43633	250
2.44000	253
2.44367	288
2.44733	382
2.45100	483
2.45467	562
2.45833	608
2.46200	614
2.46567	591
2.46933	563
2.47300	540
2.47667	529
2.48033	522
2.48400	510
2.48767	489
2.49133	460
2.49500	431
2.49867	402
2.50233	380
2.50600	363
2.50967	352
2.51333	346
2.51700	346
2.52067	352
2.52433	362
2.52800	374
2.53167	386
2.53533	398
2.53900	407
2.54267	407
2.54633	397
2.55000	382
2.55367	366
2.55733	350
2.56100	334
2.56467	321
2.56833	309
2.57200	298
2.57567	291
2.57933	286
2.58300	283
2.58667	280
2.59033	276
2.59400	271
2.59767	263
2.60133	255
2.60500	244
2.60867	230
2.61233	212
2.61600	193
2.61967	176
2.62333	161
2.62700	149
2.63067	141
2.63433	139
2.63800	139
2.64167	141
2.64533	145
2.64900	150
2.65267	158
2.65633	168
2.66000	176
2.66367	185
2.66733	192
2.67100	199
2.67467	204
2.67833	205
2.68200	203
2.68567	201
2.68933	200
2.69300	199
2.69667	196
2.70033	193
2.70400	190
2.70767	187
2.71133	183
2.71500	180
2.71867	178
2.72233	176
2.72600	175
2.72967	174
2.73333	173
2.73700	172
2.74067	174
2.74433	175
2.74800	177
2.75167	178
2.75533	178
2.75900	179
2.76267	181
2.76633	184
2.77000	185
2.77367	184
2.77733	183
2.78100	185
2.78467	186
2.78833	186
2.79200	185
2.79567	183
2.79933	183
2.80300	181
2.80667	180
2.81033	181
2.81400	186
2.81767	196
2.82133	218
2.82500	260
2.82867	341
2.83233	483
2.83600	713
2.83967	1045
2.84333	1482
2.84700	2014
2.85067	2610
2.85433	3230
2.85800	3822
2.86167	4338
2.86533	4739
2.86900	5001
2.87267	5112
2.87633	5081
2.88000	4928
2.88367	4683
2.88733	4375
2.89100	4029
2.89467	3673
2.89833	3320
2.90200	2977
2.90567	2654
2.90933	2357
2.91300	2089
2.91667	1850
2.92033	1639
2.92400	1453
2.92767	1288
2.93133	1148
2.93500	1025
2.93867	918
2.94233	822
2.94600	740
2.94967	668
2.95333	605
2.95700	550
2.96067	504
2.96433	466
2.96800	435
2.97167	409
2.97533	384
2.97900	362
2.98267	343
2.98633	327
2.99000	313
2.99367	301
2.99733	290
3.00100	277
3.00467	265
3.00833	257
3.01200	250
3.01567	240
3.01933	233
3.02300	227
3.02667	221
3.03033	216
3.03400	213
3.03767	209
3.04133	203
3.04500	190
3.04867	153
3.05233	117
3.05600	102
3.05967	106
3.06333	121
3.06700	145
3.07067	174
3.07433	209
3.07800	245
3.08167	286
3.08533	327
3.08900	366
3.09267	398
3.09633	428
3.10000	456
3.10367	483
3.10733	504
3.11100	521
3.11467	536
3.11833	549
3.12200	561
3.12567	572
3.12933	578
3.13300	583
3.13667	589
3.14033	595
3.14400	598
3.14767	600
3.15133	603
3.15500	608
3.15867	611
3.16233	615
3.16600	619
3.16967	621
3.17333	623
3.17700	626
3.18067	631
3.18433	633
3.18800	638
3.19167	642
3.19533	646
3.19900	649
3.20267	651
3.20633	653
3.21000	656
3.21367	659
3.21733	659
3.22100	660
3.22467	661
3.22833	663
3.23200	665
3.23567	667
3.23933	666
3.24300	667
3.24667	669
3.25033	671
3.25400	670
3.25767	668
3.26133	667
3.26500	668
3.26867	669
3.27233	668
3.27600	665
3.27967	662
3.28333	658
3.28700	654
3.29067	650
3.29433	648
3.29800	646
3.30167	643
3.30533	641
3.30900	642
3.31267	641
3.31633	639
3.32000	637
3.32367	634
3.32733	629
3.33100	626
3.33467	625
3.33833	626
3.34200	628
3.34567	630
3.34933	630
3.35300	628
3.35667	624
3.36033	622
3.36400	622
3.36767	622
3.37133	620
3.37500	619
3.37867	620
3.38233	620
3.38600	620
3.38967	620
3.39333	620
3.39700	618
3.40067	619
3.40433	620
3.40800	618
3.41167	617
3.41533	615
3.41900	614
3.42267	616
3.42633	616
3.43000	614
3.43367	612
3.43733	611
3.44100	610
3.44467	608
3.44833	606
3.45200	603
3.45567	600
3.45933	601
3.46300	602
3.46667	601
3.47033	599
3.47400	597
3.47767	597
3.48133	596
3.48500	596
3.48867	595
3.49233	594
3.49600	592
3.49967	589
3.50333	586
3.50700	582
3.51067	579
3.51433	579
3.51800	578
3.52167	574
3.52533	571
3.52900	569
3.53267	567
3.53633	564
3.54000	562
3.54367	558
3.54733	556
3.55100	555
3.55467	553
3.55833	554
3.56200	554
3.56567	552
3.56933	548
3.57300	547
3.57667	547
3.58033	547
3.58400	548
3.58767	546
3.59133	544
3.59500	542
3.59867	541
3.60233	540
3.60600	540
3.60967	537
3.61333	536
3.61700	535
3.62067	534
3.62433	533
3.62800	533
3.63167	532
3.63533	530
3.63900	530
3.64267	531
3.64633	531
3.65000	530
3.65367	529
3.65733	530
3.66100	531
3.66467	529
3.66833	527
3.67200	526
3.67567	526
3.67933	526
3.68300	524
3.68667	521
3.69033	518
3.69400	517
3.69767	516
3.70133	517
3.70500	518
3.70867	518
3.71233	518
3.71600	517
3.71967	517
3.72333	516
3.72700	514
3.73067	512
3.73433	512
3.73800	513
3.74167	514
3.74533	513
3.74900	513
3.75267	514
3.75633	513
3.76000	509
3.76367	507
3.76733	507
3.77100	505
3.77467	504
3.77833	505
3.78200	505
3.78567	502
3.78933	500
3.79300	499
3.79667	499
3.80033	501
3.80400	500
3.80767	499
3.81133	499
3.81500	498
3.81867	496
3.82233	495
3.82600	497
3.82967	497
3.83333	500
3.83700	500
3.84067	499
3.84433	498
3.84800	497
3.85167	496
3.85533	495
3.85900	493
3.86267	491
3.86633	492
3.87000	494
3.87367	494
3.87733	493
3.88100	491
3.88467	490
3.88833	488
3.89200	489
3.89567	489
3.89933	486
3.90300	484
3.90667	481
3.91033	479
3.91400	478
3.91767	479
3.92133	479
3.92500	478
3.92867	478
3.93233	475
3.93600	473
3.93967	469
3.94333	468
3.94700	468
3.95067	468
3.95433	467
3.95800	465
3.96167	466
3.96533	466
3.96900	465
3.97267	465
3.97633	464
3.98000	462
3.98367	461
3.98733	460
3.99100	458
3.99467	455
3.99833	452

[Status Trace (Column Oven Temperature)]
Interval(msec)	1000
# of Points	240
Start Time(min)	0.014
End Time(min)	3.997
Intensity Units	
Intensity Multiplier	1
R.Time (min)	Intensity
0.01412	35.02
0.03078	35.02
0.04745	35.02
0.06412	35.02
0.08078	35.02
0.09745	35.03
0.11412	35.04
0.13078	35.05
0.14745	35.06
0.16412	35.06
0.18078	35.06
0.19745	35.06
0.21412	35.06
0.23078	35.05
0.24745	35.05
0.26412	35.05
0.28078	35.04
0.29745	35.03
0.31412	35.04
0.33078	35.03
0.34745	35.02
0.36412	35.01
0.38078	35.02
0.39745	35.04
0.41412	35.04
0.43078	35.03
0.44745	35.03
0.46412	35.03
0.48078	35.01
0.49745	35.01
0.51412	35.00
0.53078	35.00
0.54745	35.01
0.56412	35.01
0.58078	35.01
0.59745	35.01
0.61412	35.01
0.63078	35.00
0.64745	34.99
0.66412	34.98
0.68078	34.97
0.69745	34.97
0.71412	34.96
0.73078	34.96
0.74745	34.97
0.76412	34.97
0.78078	34.96
0.79745	34.97
0.81412	34.97
0.83078	34.99
0.84745	34.99
0.86412	35.00
0.88078	35.00
0.89745	35.01
0.91412	35.00
0.93078	35.00
0.94745	35.01
0.96412	35.01
0.98078	35.01
0.99745	35.00
1.01412	35.00
1.03078	35.00
1.04745	35.00
1.06412	34.99
1.08078	34.98
1.09745	34.97
1.11412	34.96
1.13078	34.97
1.14745	34.98
1.16412	35.00
1.18078	35.01
1.19745	35.02
1.21412	35.02
1.23078	35.02
1.24745	35.02
1.26412	35.01
1.28078	35.01
1.29745	35.00
1.31412	34.99
1.33078	34.98
1.34745	34.99
1.36412	34.99
1.38078	35.00
1.39745	35.01
1.41412	35.01
1.43078	35.00
1.44745	35.00
1.46412	34.98
1.48078	34.98
1.49745	34.98
1.51412	34.99
1.53078	34.99
1.54745	35.00
1.56412	35.01
1.58078	35.01
1.59745	35.03
1.61412	35.11
1.63078	35.25
1.64745	35.45
1.66412	35.73
1.68078	36.09
1.69745	36.46
1.71412	36.80
1.73078	37.14
1.74745	37.47
1.76412	37.80
1.78078	38.13
1.79745	38.46
1.81412	38.79
1.83078	39.13
1.84745	39.47
1.86412	39.80
1.88078	40.10
1.89745	40.43
1.91412	40.78
1.93078	41.08
1.94745	41.42
1.96412	41.73
1.98078	42.05
1.99745	42.37
2.01412	42.71
2.03078	43.03
2.04745	43.36
2.06412	43.69
2.08078	44.01
2.09745	44.34
2.11412	44.67
2.13078	45.00
2.14745	45.32
2.16412	45.67
2.18078	46.00
2.19745	46.33
2.21412	46.64
2.23078	46.96
2.24745	47.28
2.26412	47.64
2.28078	47.97
2.29745	48.30
2.31412	48.63
2.33078	48.95
2.34745	49.26
2.36412	49.53
2.38078	49.66
2.39745	49.68
2.41412	49.66
2.43078	49.69
2.44745	49.71
2.46412	49.71
2.48078	49.71
2.49745	49.74
2.51412	49.74
2.53078	49.75
2.54745	49.76
2.56412	49.78
2.58078	49.80
2.59745	49.81
2.61412	49.82
2.63078	49.83
2.64745	49.82
2.66412	49.83
2.68078	49.84
2.69745	49.85
2.71412	49.86
2.73078	49.86
2.74745	49.86
2.76412	49.84
2.78078	49.85
2.79745	49.87
2.81412	49.88
2.83078	49.89
2.84745	49.89
2.86412	49.89
2.88078	49.89
2.89745	49.89
2.91412	49.90
2.93078	49.91
2.94745	49.93
2.96412	49.93
2.98078	49.95
2.99745	49.96
3.01412	49.98
3.03078	49.98
3.04745	49.99
3.06412	50.00
3.08078	50.01
3.09745	50.02
3.11412	50.03
3.13078	50.05
3.14745	50.05
3.16412	50.07
3.18078	50.08
3.19745	50.09
3.21412	50.09
3.23078	50.09
3.24745	50.10
3.26412	50.09
3.28078	50.09
3.29745	50.10
3.31412	50.11
3.33078	50.11
3.34745	50.11
3.36412	50.10
3.38078	50.09
3.39745	50.08
3.41412	50.08
3.43078	50.07
3.44745	50.07
3.46412	50.07
3.48078	50.06
3.49745	50.07
3.51412	50.07
3.53078	50.07
3.54745	50.06
3.56412	50.06
3.58078	50.04
3.59745	50.04
3.61412	50.04
3.63078	50.04
3.64745	50.04
3.66412	50.04
3.68078	50.04
3.69745	50.05
3.71412	50.06
3.73078	50.06
3.74745	50.06
3.76412	50.05
3.78078	50.05
3.79745	50.05
3.81412	50.04
3.83078	50.04
3.84745	50.05
3.86412	50.05
3.88078	50.06
3.89745	50.06
3.91412	50.06
3.93078	50.06
3.94745	50.06
3.96412	50.05
3.98078	50.04
3.99745	50.03

[Status Trace (Injection Unit Temperature)]
Interval(msec)	1000
# of Points	240
Start Time(min)	0.014
End Time(min)	3.997
Intensity Units	
Intensity Multiplier	1
R.Time (min)	Intensity
0.01412	99.98
0.03078	99.98
0.04745	99.98
0.06412	99.98
0.08078	99.98
0.09745	99.98
0.11412	99.98
0.13078	99.98
0.14745	99.98
0.16412	99.98
0.18078	99.98
0.19745	99.98
0.21412	99.98
0.23078	99.98
0.24745	99.98
0.26412	99.98
0.28078	99.98
0.29745	99.98
0.31412	99.98
0.33078	99.98
0.34745	99.98
0.36412	99.98
0.38078	99.98
0.39745	99.98
0.41412	99.98
0.43078	99.98
0.44745	99.98
0.46412	99.98
0.48078	99.98
0.49745	99.98
0.51412	99.98
0.53078	99.98
0.54745	99.98
0.56412	99.98
0.58078	99.98
0.59745	99.98
0.61412	99.98
0.63078	99.98
0.64745	99.98
0.66412	99.98
0.68078	99.98
0.69745	99.98
0.71412	99.97
0.73078	99.98
0.74745	99.98
0.76412	99.98
0.78078	99.98
0.79745	99.98
0.81412	99.98
0.83078	99.98
0.84745	99.98
0.86412	99.98
0.88078	99.98
0.89745	99.98
0.91412	99.98
0.93078	99.98
0.94745	99.98
0.96412	99.98
0.98078	99.98
0.99745	99.98
1.01412	99.98
1.03078	99.98
1.04745	99.98
1.06412	99.98
1.08078	99.98
1.09745	99.98
1.11412	99.98
1.13078	99.98
1.14745	99.98
1.16412	99.98
1.18078	99.98
1.19745	99.98
1.21412	99.98
1.23078	99.98
1.24745	99.98
1.26412	99.98
1.28078	99.98
1.29745	99.99
1.31412	99.99
1.33078	99.98
1.34745	99.98
1.36412	99.99
1.38078	99.98
1.39745	99.98
1.41412	99.98
1.43078	99.99
1.44745	99.99
1.46412	99.99
1.48078	99.98
1.49745	99.98
1.51412	99.98
1.53078	99.98
1.54745	99.99
1.56412	99.99
1.58078	99.99
1.59745	99.99
1.61412	99.98
1.63078	99.99
1.64745	99.99
1.66412	99.99
1.68078	99.99
1.69745	99.99
1.71412	99.99
1.73078	99.99
1.74745	99.99
1.76412	99.99
1.78078	99.99
1.79745	99.98
1.81412	99.99
1.83078	99.98
1.84745	99.99
1.86412	99.99
1.88078	99.99
1.89745	99.98
1.91412	99.99
1.93078	99.98
1.94745	99.98
1.96412	99.99
1.98078	99.99
1.99745	99.97
2.01412	99.98
2.03078	99.98
2.04745	99.98
2.06412	99.98
2.08078	99.98
2.09745	99.98
2.11412	99.98
2.13078	99.98
2.14745	99.97
2.16412	99.97
2.18078	99.97
2.19745	99.97
2.21412	99.97
2.23078	99.97
2.24745	99.97
2.26412	99.97
2.28078	99.97
2.29745	99.97
2.31412	99.97
2.33078	99.97
2.34745	99.97
2.36412	99.97
2.38078	99.97
2.39745	99.97
2.41412	99.97
2.43078	99.97
2.44745	99.97
2.46412	99.97
2.48078	99.97
2.49745	99.96
2.51412	99.96
2.53078	99.97
2.54745	99.97
2.56412	99.97
2.58078	99.97
2.59745	99.98
2.61412	99.97
2.63078	99.97
2.64745	99.98
2.66412	99.98
2.68078	99.98
2.69745	99.98
2.71412	99.98
2.73078	99.99
2.74745	99.99
2.76412	99.99
2.78078	99.99
2.79745	99.99
2.81412	100.00
2.83078	99.99
2.84745	100.00
2.86412	100.00
2.88078	100.00
2.89745	100.00
2.91412	100.00
2.93078	100.00
2.94745	100.01
2.96412	100.01
2.98078	100.01
2.99745	100.01
3.01412	100.01
3.03078	100.01
3.04745	100.01
3.06412	100.01
3.08078	100.01
3.09745	100.01
3.11412	100.02
3.13078	100.02
3.14745	100.02
3.16412	100.02
3.18078	100.02
3.19745	100.02
3.21412	100.03
3.23078	100.02
3.24745	100.03
3.26412	100.03
3.28078	100.03
3.29745	100.03
3.31412	100.03
3.33078	100.03
3.34745	100.03
3.36412	100.03
3.38078	100.03
3.39745	100.03
3.41412	100.03
3.43078	100.04
3.44745	100.03
3.46412	100.04
3.48078	100.03
3.49745	100.03
3.51412	100.04
3.53078	100.04
3.54745	100.04
3.56412	100.04
3.58078	100.04
3.59745	100.04
3.61412	100.04
3.63078	100.04
3.64745	100.05
3.66412	100.04
3.68078	100.04
3.69745	100.04
3.71412	100.04
3.73078	100.04
3.74745	100.04
3.76412	100.04
3.78078	100.05
3.79745	100.04
3.81412	100.04
3.83078	100.04
3.84745	100.05
3.86412	100.04
3.88078	100.04
3.89745	100.05
3.91412	100.05
3.93078	100.05
3.94745	100.04
3.96412	100.04
3.98078	100.05
3.99745	100.04

[Status Trace (Carrier Gas Pressure)]
Interval(msec)	1000
# of Points	240
Start Time(min)	0.014
End Time(min)	3.997
Intensity Units	
Intensity Multiplier	1
R.Time (min)	Intensity
0.01412	57.61
0.03078	55.50
0.04745	57.99
0.06412	59.81
0.08078	58.69
0.09745	57.98
0.11412	58.00
0.13078	58.01
0.14745	58.01
0.16412	58.00
0.18078	58.00
0.19745	58.00
0.21412	58.00
0.23078	58.00
0.24745	58.00
0.26412	58.00
0.28078	58.00
0.29745	58.00
0.31412	58.00
0.33078	58.00
0.34745	58.00
0.36412	58.00
0.38078	58.00
0.39745	58.00
0.41412	58.00
0.43078	58.00
0.44745	58.00
0.46412	58.00
0.48078	58.00
0.49745	58.00
0.51412	58.00
0.53078	58.00
0.54745	58.00
0.56412	58.00
0.58078	58.00
0.59745	58.00
0.61412	58.00
0.63078	58.00
0.64745	58.00
0.66412	58.00
0.68078	58.00
0.69745	58.00
0.71412	58.00
0.73078	58.00
0.74745	58.00
0.76412	58.00
0.78078	58.00
0.79745	58.00
0.81412	58.00
0.83078	58.00
0.84745	58.00
0.86412	58.00
0.88078	58.00
0.89745	58.00
0.91412	58.00
0.93078	58.00
0.94745	58.00
0.96412	58.00
0.98078	58.00
0.99745	58.00
1.01412	58.00
1.03078	58.00
1.04745	58.00
1.06412	58.00
1.08078	58.00
1.09745	58.00
1.11412	58.00
1.13078	58.00
1.14745	58.00
1.16412	58.00
1.18078	58.00
1.19745	58.00
1.21412	58.00
1.23078	58.00
1.24745	58.00
1.26412	58.00
1.28078	58.00
1.29745	58.00
1.31412	58.00
1.33078	58.00
1.34745	58.00
1.36412	58.00
1.38078	58.00
1.39745	58.00
1.41412	58.00
1.43078	58.00
1.44745	58.00
1.46412	58.00
1.48078	58.00
1.49745	58.00
1.51412	58.00
1.53078	58.00
1.54745	58.00
1.56412	58.00
1.58078	58.00
1.59745	58.00
1.61412	58.00
1.63078	58.00
1.64745	58.00
1.66412	58.01
1.68078	58.01
1.69745	58.00
1.71412	58.00
1.73078	58.00
1.74745	58.00
1.76412	58.00
1.78078	58.00
1.79745	58.00
1.81412	58.00
1.83078	58.00
1.84745	58.00
1.86412	58.00
1.88078	58.00
1.89745	58.00
1.91412	58.00
1.93078	58.00
1.94745	58.00
1.96412	58.00
1.98078	58.00
1.99745	58.00
2.01412	58.00
2.03078	58.00
2.04745	58.00
2.06412	58.00
2.08078	58.00
2.09745	58.00
2.11412	58.00
2.13078	58.00
2.14745	58.00
2.16412	58.00
2.18078	58.00
2.19745	58.00
2.21412	58.00
2.23078	58.00
2.24745	58.00
2.26412	58.00
2.28078	58.00
2.29745	58.00
2.31412	58.00
2.33078	58.00
2.34745	58.00
2.36412	58.00
2.38078	57.99
2.39745	57.99
2.41412	58.00
2.43078	58.00
2.44745	58.00
2.46412	58.00
2.48078	58.00
2.49745	58.00
2.51412	57.99
2.53078	57.99
2.54745	58.00
2.56412	58.00
2.58078	58.00
2.59745	58.00
2.61412	58.00
2.63078	58.00
2.64745	58.00
2.66412	58.00
2.68078	58.00
2.69745	58.00
2.71412	58.00
2.73078	58.00
2.74745	58.00
2.76412	58.00
2.78078	58.00
2.79745	58.00
2.81412	58.00
2.83078	58.00
2.84745	58.00
2.86412	58.00
2.88078	58.00
2.89745	58.00
2.91412	58.00
2.93078	58.00
2.94745	58.00
2.96412	58.00
2.98078	58.00
2.99745	58.00
3.01412	58.00
3.03078	58.00
3.04745	58.00
3.06412	58.00
3.08078	58.00
3.09745	58.00
3.11412	58.00
3.13078	58.00
3.14745	58.00
3.16412	58.00
3.18078	58.00
3.19745	58.00
3.21412	58.00
3.23078	58.00
3.24745	58.00
3.26412	58.00
3.28078	58.00
3.29745	58.00
3.31412	58.00
3.33078	58.00
3.34745	58.00
3.36412	58.00
3.38078	58.00
3.39745	58.00
3.41412	58.00
3.43078	58.00
3.44745	58.00
3.46412	58.00
3.48078	58.00
3.49745	58.00
3.51412	58.00
3.53078	58.00
3.54745	58.00
3.56412	58.00
3.58078	58.00
3.59745	58.00
3.61412	58.00
3.63078	58.00
3.64745	58.00
3.66412	58.00
3.68078	58.00
3.69745	58.00
3.71412	58.00
3.73078	58.00
3.74745	58.00
3.76412	58.00
3.78078	58.00
3.79745	58.00
3.81412	58.00
3.83078	58.00
3.84745	58.00
3.86412	58.00
3.88078	58.00
3.89745	58.00
3.91412	58.00
3.93078	58.00
3.94745	58.00
3.96412	58.00
3.98078	58.00
3.99745	58.00

[Status Trace (Carrier Gas Flow)]
Interval(msec)	1000
# of Points	240
Start Time(min)	0.014
End Time(min)	3.997
Intensity Units	
Intensity Multiplier	1
R.Time (min)	Intensity
0.01412	34.25
0.03078	34.54
0.04745	34.55
0.06412	34.52
0.08078	34.51
0.09745	34.52
0.11412	34.52
0.13078	34.52
0.14745	34.53
0.16412	34.52
0.18078	34.52
0.19745	34.52
0.21412	34.52
0.23078	34.52
0.24745	34.52
0.26412	34.51
0.28078	34.52
0.29745	34.52
0.31412	34.52
0.33078	34.52
0.34745	34.52
0.36412	34.52
0.38078	34.52
0.39745	34.52
0.41412	34.52
0.43078	34.52
0.44745	34.52
0.46412	34.52
0.48078	34.52
0.49745	34.52
0.51412	34.52
0.53078	34.52
0.54745	34.52
0.56412	34.52
0.58078	34.52
0.59745	34.51
0.61412	34.52
0.63078	34.52
0.64745	34.52
0.66412	34.52
0.68078	34.51
0.69745	34.52
0.71412	34.52
0.73078	34.52
0.74745	34.52
0.76412	34.52
0.78078	34.52
0.79745	34.52
0.81412	34.51
0.83078	34.52
0.84745	34.52
0.86412	34.52
0.88078	34.52
0.89745	34.52
0.91412	34.51
0.93078	34.52
0.94745	34.51
0.96412	34.52
0.98078	34.52
0.99745	34.52
1.01412	34.52
1.03078	34.51
1.04745	34.52
1.06412	34.52
1.08078	34.51
1.09745	34.51
1.11412	34.52
1.13078	34.52
1.14745	34.52
1.16412	34.51
1.18078	34.52
1.19745	34.53
1.21412	34.52
1.23078	34.51
1.24745	34.52
1.26412	34.52
1.28078	34.52
1.29745	34.52
1.31412	34.52
1.33078	34.52
1.34745	34.52
1.36412	34.52
1.38078	34.52
1.39745	34.52
1.41412	34.52
1.43078	34.52
1.44745	34.52
1.46412	34.52
1.48078	34.52
1.49745	34.53
1.51412	34.52
1.53078	34.52
1.54745	34.52
1.56412	34.52
1.58078	34.52
1.59745	34.51
1.61412	34.52
1.63078	34.52
1.64745	34.52
1.66412	34.52
1.68078	34.52
1.69745	34.52
1.71412	34.52
1.73078	34.52
1.74745	34.52
1.76412	34.52
1.78078	34.52
1.79745	34.52
1.81412	34.51
1.83078	34.52
1.84745	34.52
1.86412	34.52
1.88078	34.52
1.89745	34.52
1.91412	34.52
1.93078	34.52
1.94745	34.51
1.96412	34.51
1.98078	34.52
1.99745	34.52
2.01412	34.52
2.03078	34.52
2.04745	34.52
2.06412	34.52
2.08078	34.52
2.09745	34.52
2.11412	34.52
2.13078	34.52
2.14745	34.52
2.16412	34.51
2.18078	34.52
2.19745	34.52
2.21412	34.52
2.23078	34.51
2.24745	34.52
2.26412	34.52
2.28078	34.52
2.29745	34.52
2.31412	34.51
2.33078	34.52
2.34745	34.52
2.36412	34.52
2.38078	34.52
2.39745	34.52
2.41412	34.52
2.43078	34.52
2.44745	34.51
2.46412	34.52
2.48078	34.52
2.49745	34.52
2.51412	34.52
2.53078	34.52
2.54745	34.52
2.56412	34.52
2.58078	34.52
2.59745	34.52
2.61412	34.52
2.63078	34.52
2.64745	34.52
2.66412	34.52
2.68078	34.52
2.69745	34.52
2.71412	34.52
2.73078	34.52
2.74745	34.51
2.76412	34.52
2.78078	34.52
2.79745	34.52
2.81412	34.52
2.83078	34.52
2.84745	34.52
2.86412	34.52
2.88078	34.52
2.89745	34.52
2.91412	34.52
2.93078	34.52
2.94745	34.52
2.96412	34.52
2.98078	34.52
2.99745	34.52
3.01412	34.52
3.03078	34.51
3.04745	34.52
3.06412	34.52
3.08078	34.52
3.09745	34.52
3.11412	34.52
3.13078	34.52
3.14745	34.52
3.16412	34.51
3.18078	34.52
3.19745	34.52
3.21412	34.52
3.23078	34.52
3.24745	34.52
3.26412	34.52
3.28078	34.52
3.29745	34.52
3.31412	34.52
3.33078	34.52
3.34745	34.52
3.36412	34.51
3.38078	34.52
3.39745	34.52
3.41412	34.52
3.43078	34.52
3.44745	34.52
3.46412	34.52
3.48078	34.52
3.49745	34.52
3.51412	34.52
3.53078	34.52
3.54745	34.51
3.56412	34.52
3.58078	34.52
3.59745	34.52
3.61412	34.52
3.63078	34.53
3.64745	34.52
3.66412	34.51
3.68078	34.51
3.69745	34.52
3.71412	34.52
3.73078	34.52
3.74745	34.52
3.76412	34.52
3.78078	34.52
3.79745	34.52
3.81412	34.52
3.83078	34.52
3.84745	34.52
3.86412	34.52
3.88078	34.52
3.89745	34.52
3.91412	34.52
3.93078	34.52
3.94745	34.52
3.96412	34.51
3.98078	34.52
3.99745	34.52

[Status Trace (Column Flow)]
Interval(msec)	1000
# of Points	240
Start Time(min)	0.014
End Time(min)	3.997
Intensity Units	
Intensity Multiplier	1
R.Time (min)	Intensity
0.01412	5.52
0.03078	5.27
0.04745	5.56
0.06412	5.78
0.08078	5.65
0.09745	5.56
0.11412	5.56
0.13078	5.57
0.14745	5.57
0.16412	5.57
0.18078	5.57
0.19745	5.57
0.21412	5.57
0.23078	5.57
0.24745	5.57
0.26412	5.57
0.28078	5.57
0.29745	5.57
0.31412	5.57
0.33078	5.57
0.34745	5.57
0.36412	5.57
0.38078	5.57
0.39745	5.57
0.41412	5.57
0.43078	5.57
0.44745	5.57
0.46412	5.57
0.48078	5.57
0.49745	5.57
0.51412	5.57
0.53078	5.57
0.54745	5.57
0.56412	5.57
0.58078	5.57
0.59745	5.57
0.61412	5.57
0.63078	5.57
0.64745	5.57
0.66412	5.57
0.68078	5.57
0.69745	5.57
0.71412	5.57
0.73078	5.57
0.74745	5.57
0.76412	5.57
0.78078	5.57
0.79745	5.57
0.81412	5.57
0.83078	5.57
0.84745	5.57
0.86412	5.57
0.88078	5.57
0.89745	5.57
0.91412	5.57
0.93078	5.57
0.94745	5.57
0.96412	5.57
0.98078	5.57
0.99745	5.57
1.01412	5.57
1.03078	5.57
1.04745	5.57
1.06412	5.57
1.08078	5.57
1.09745	5.57
1.11412	5.57
1.13078	5.57
1.14745	5.57
1.16412	5.57
1.18078	5.57
1.19745	5.57
1.21412	5.57
1.23078	5.57
1.24745	5.57
1.26412	5.57
1.28078	5.57
1.29745	5.57
1.31412	5.57
1.33078	5.57
1.34745	5.57
1.36412	5.57
1.38078	5.57
1.39745	5.57
1.41412	5.57
1.43078	5.57
1.44745	5.57
1.46412	5.57
1.48078	5.57
1.49745	5.57
1.51412	5.57
1.53078	5.57
1.54745	5.57
1.56412	5.57
1.58078	5.57
1.59745	5.57
1.61412	5.56
1.63078	5.56
1.64745	5.55
1.66412	5.55
1.68078	5.53
1.69745	5.52
1.71412	5.51
1.73078	5.50
1.74745	5.49
1.76412	5.48
1.78078	5.47
1.79745	5.46
1.81412	5.45
1.83078	5.44
1.84745	5.43
1.86412	5.42
1.88078	5.41
1.89745	5.40
1.91412	5.39
1.93078	5.38
1.94745	5.37
1.96412	5.36
1.98078	5.35
1.99745	5.34
2.01412	5.33
2.03078	5.32
2.04745	5.31
2.06412	5.30
2.08078	5.29
2.09745	5.28
2.11412	5.27
2.13078	5.26
2.14745	5.25
2.16412	5.24
2.18078	5.23
2.19745	5.22
2.21412	5.22
2.23078	5.21
2.24745	5.20
2.26412	5.19
2.28078	5.18
2.29745	5.17
2.31412	5.16
2.33078	5.15
2.34745	5.14
2.36412	5.13
2.38078	5.13
2.39745	5.13
2.41412	5.13
2.43078	5.13
2.44745	5.13
2.46412	5.13
2.48078	5.13
2.49745	5.13
2.51412	5.13
2.53078	5.13
2.54745	5.13
2.56412	5.13
2.58078	5.13
2.59745	5.13
2.61412	5.12
2.63078	5.12
2.64745	5.12
2.66412	5.12
2.68078	5.12
2.69745	5.12
2.71412	5.12
2.73078	5.12
2.74745	5.12
2.76412	5.12
2.78078	5.12
2.79745	5.12
2.81412	5.12
2.83078	5.12
2.84745	5.12
2.86412	5.12
2.88078	5.12
2.89745	5.12
2.91412	5.12
2.93078	5.12
2.94745	5.12
2.96412	5.12
2.98078	5.12
2.99745	5.12
3.01412	5.12
3.03078	5.12
3.04745	5.12
3.06412	5.12
3.08078	5.12
3.09745	5.12
3.11412	5.12
3.13078	5.12
3.14745	5.12
3.16412	5.12
3.18078	5.12
3.19745	5.12
3.21412	5.12
3.23078	5.12
3.24745	5.12
3.26412	5.12
3.28078	5.12
3.29745	5.12
3.31412	5.12
3.33078	5.12
3.34745	5.12
3.36412	5.12
3.38078	5.12
3.39745	5.12
3.41412	5.12
3.43078	5.12
3.44745	5.12
3.46412	5.12
3.48078	5.12
3.49745	5.12
3.51412	5.12
3.53078	5.12
3.54745	5.12
3.56412	5.12
3.58078	5.12
3.59745	5.12
3.61412	5.12
3.63078	5.12
3.64745	5.12
3.66412	5.12
3.68078	5.12
3.69745	5.12
3.71412	5.12
3.73078	5.12
3.74745	5.12
3.76412	5.12
3.78078	5.12
3.79745	5.12
3.81412	5.12
3.83078	5.12
3.84745	5.12
3.86412	5.12
3.88078	5.12
3.89745	5.12
3.91412	5.12
3.93078	5.12
3.94745	5.12
3.96412	5.12
3.98078	5.12
3.99745	5.12

[Status Trace (Linear Velocity)]
Interval(msec)	1000
# of Points	240
Start Time(min)	0.014
End Time(min)	3.997
Intensity Units	
Intensity Multiplier	1
R.Time (min)	Intensity
0.01412	38.77
0.03078	37.38
0.04745	39.02
0.06412	40.21
0.08078	39.48
0.09745	39.01
0.11412	39.02
0.13078	39.03
0.14745	39.03
0.16412	39.02
0.18078	39.02
0.19745	39.02
0.21412	39.02
0.23078	39.02
0.24745	39.02
0.26412	39.02
0.28078	39.02
0.29745	39.02
0.31412	39.02
0.33078	39.03
0.34745	39.03
0.36412	39.02
0.38078	39.03
0.39745	39.02
0.41412	39.02
0.43078	39.02
0.44745	39.02
0.46412	39.02
0.48078	39.03
0.49745	39.03
0.51412	39.03
0.53078	39.03
0.54745	39.03
0.56412	39.03
0.58078	39.03
0.59745	39.03
0.61412	39.03
0.63078	39.03
0.64745	39.03
0.66412	39.03
0.68078	39.03
0.69745	39.03
0.71412	39.03
0.73078	39.03
0.74745	39.03
0.76412	39.03
0.78078	39.03
0.79745	39.03
0.81412	39.03
0.83078	39.03
0.84745	39.03
0.86412	39.03
0.88078	39.03
0.89745	39.03
0.91412	39.03
0.93078	39.03
0.94745	39.03
0.96412	39.03
0.98078	39.03
0.99745	39.03
1.01412	39.03
1.03078	39.03
1.04745	39.03
1.06412	39.03
1.08078	39.03
1.09745	39.03
1.11412	39.03
1.13078	39.03
1.14745	39.03
1.16412	39.03
1.18078	39.03
1.19745	39.03
1.21412	39.02
1.23078	39.02
1.24745	39.03
1.26412	39.03
1.28078	39.03
1.29745	39.03
1.31412	39.03
1.33078	39.03
1.34745	39.03
1.36412	39.03
1.38078	39.03
1.39745	39.03
1.41412	39.03
1.43078	39.03
1.44745	39.03
1.46412	39.03
1.48078	39.03
1.49745	39.03
1.51412	39.03
1.53078	39.03
1.54745	39.03
1.56412	39.03
1.58078	39.03
1.59745	39.02
1.61412	39.02
1.63078	39.01
1.64745	38.99
1.66412	38.96
1.68078	38.93
1.69745	38.89
1.71412	38.86
1.73078	38.83
1.74745	38.79
1.76412	38.76
1.78078	38.73
1.79745	38.70
1.81412	38.67
1.83078	38.63
1.84745	38.60
1.86412	38.57
1.88078	38.54
1.89745	38.51
1.91412	38.48
1.93078	38.45
1.94745	38.42
1.96412	38.39
1.98078	38.36
1.99745	38.33
2.01412	38.30
2.03078	38.27
2.04745	38.24
2.06412	38.21
2.08078	38.18
2.09745	38.15
2.11412	38.12
2.13078	38.09
2.14745	38.06
2.16412	38.03
2.18078	38.00
2.19745	37.97
2.21412	37.94
2.23078	37.91
2.24745	37.88
2.26412	37.86
2.28078	37.82
2.29745	37.79
2.31412	37.77
2.33078	37.74
2.34745	37.71
2.36412	37.69
2.38078	37.67
2.39745	37.67
2.41412	37.67
2.43078	37.67
2.44745	37.67
2.46412	37.67
2.48078	37.67
2.49745	37.67
2.51412	37.66
2.53078	37.66
2.54745	37.66
2.56412	37.66
2.58078	37.66
2.59745	37.66
2.61412	37.66
2.63078	37.66
2.64745	37.66
2.66412	37.66
2.68078	37.66
2.69745	37.66
2.71412	37.66
2.73078	37.65
2.74745	37.65
2.76412	37.66
2.78078	37.66
2.79745	37.65
2.81412	37.65
2.83078	37.65
2.84745	37.65
2.86412	37.65
2.88078	37.65
2.89745	37.65
2.91412	37.65
2.93078	37.65
2.94745	37.65
2.96412	37.65
2.98078	37.65
2.99745	37.65
3.01412	37.64
3.03078	37.64
3.04745	37.64
3.06412	37.64
3.08078	37.64
3.09745	37.64
3.11412	37.64
3.13078	37.64
3.14745	37.64
3.16412	37.64
3.18078	37.64
3.19745	37.64
3.21412	37.63
3.23078	37.63
3.24745	37.63
3.26412	37.63
3.28078	37.63
3.29745	37.63
3.31412	37.63
3.33078	37.63
3.34745	37.63
3.36412	37.63
3.38078	37.63
3.39745	37.64
3.41412	37.64
3.43078	37.64
3.44745	37.64
3.46412	37.64
3.48078	37.64
3.49745	37.64
3.51412	37.64
3.53078	37.64
3.54745	37.64
3.56412	37.64
3.58078	37.64
3.59745	37.64
3.61412	37.64
3.63078	37.64
3.64745	37.64
3.66412	37.64
3.68078	37.64
3.69745	37.64
3.71412	37.64
3.73078	37.64
3.74745	37.64
3.76412	37.64
3.78078	37.64
3.79745	37.64
3.81412	37.64
3.83078	37.64
3.84745	37.64
3.86412	37.64
3.88078	37.64
3.89745	37.64
3.91412	37.64
3.93078	37.64
3.94745	37.64
3.96412	37.64
3.98078	37.64
3.99745	37.64

