[Header]
Application Name	LabSolutions
Version	5.110
Data File Name	C:\Users\User\Desktop\GC Analyses\Jack\Nachusa Grasslands Sampling\T1 Timepoint July 12th\T1_07122022_075.gcd
Output Date	3/14/2023
Output Time	3:41:01 PM

[File Information]
Type	Data File
Generated	3/8/2023 9:36:24 PM
Generated by	System Administrator
Modified	3/8/2023 9:43:14 PM
Modified by	System Administrator

[Sample Information]
Operator Name	System Administrator
Acquired	3/8/2023 9:39:13 PM
Sample Type	0:Unknown
Level	0
Sample Name	075
Sample ID	075
ISTD Amount1	1
ISTD Amount2	1
ISTD Amount3	1
ISTD Amount4	1
ISTD Amount5	1
ISTD Amount6	1
ISTD Amount7	1
ISTD Amount8	1
ISTD Amount9	1
ISTD Amount10	1
ISTD Amount11	1
ISTD Amount12	1
ISTD Amount13	1
ISTD Amount14	1
ISTD Amount15	1
ISTD Amount16	1
ISTD Amount17	1
ISTD Amount18	1
ISTD Amount19	1
ISTD Amount20	1
ISTD Amount21	1
ISTD Amount22	1
ISTD Amount23	1
ISTD Amount24	1
ISTD Amount25	1
ISTD Amount26	1
ISTD Amount27	1
ISTD Amount28	1
ISTD Amount29	1
ISTD Amount30	1
ISTD Amount31	1
ISTD Amount32	1
Sample Amount	1
Dilution Factor	1
Vial#	74
Injection Volume	1
Injection Count	1
Bar Code	

[Original Files]
Data File	C:\Users\User\Desktop\GC Analyses\Jack\Nachusa Grasslands Sampling\T1 Timepoint July 12th\T1_07122022_075.gcd
Method File	C:\LabSolutions\Data\GHG_4min_2022\ghg3_togas_w_acet_4 min_new_int.gcm
Batch File	C:\LabSolutions\Data\AutoSamplerTesting\T1_07122022.gcb
Report Format File	c:\LabSolutions\System\DEFAULT.lsr

[File Description]


[Configuration]
Instrument Name	C0B7VH3-Instrument1
Instrument #	1
Line #	1
# of Detectors	3
Detector ID	DET#1	DET#2	DET#3
Detector Name	FID	PTCD	ECD
# of Channels	1	1	1

[Peak Table(Ch1)]
# of Peaks	3
Peak#	R.Time	I.Time	F.Time	Area	Height	A/H	Conc.	Mark	ID#	Name	k'	Plate #	Plate Ht.	Tailing	Resolution	Sep.Factor	Area Ratio	Height Ratio	Conc. %	Norm Conc.
1	1.476	1.435	1.538	29398	13870	2.120	207.551	   	1	CO	0.000	9343	16.055	1.311	0.000	0.000	0	0	30.206	30.206
2	1.567	1.538	1.630	4855	2355	2.062	93.879	 V 	2	CH4	0.062	10392	14.434	0.000	1.496	0.000	0	0	13.663	13.663
3	1.996	1.949	2.513	1536757	727445	2.113	385.684	   	3	CO2	0.353	17287	8.677	1.297	7.019	5.680	0	0	56.131	56.131

[Peak Table(Ch2)]
# of Peaks	0

[Peak Table(Ch3)]
# of Peaks	5
Peak#	R.Time	I.Time	F.Time	Area	Height	A/H	Conc.	Mark	ID#	Name	k'	Plate #	Plate Ht.	Tailing	Resolution	Sep.Factor	Area Ratio	Height Ratio	Conc. %	Norm Conc.
1	2.458	2.246	2.517	2312	571	4.051	0.000	   			0.000	9836	15.250	0.000	0.000	0.000	0	0	0.000	0.000
2	2.539	2.517	2.631	982	260	3.784	0.000	 V 			0.033	5294	28.334	0.000	0.676	0.000	0	0	0.000	0.000
3	2.675	2.642	2.741	154	55	2.821	0.000	   			0.088	19440	7.716	1.449	1.254	2.682	0	0	0.000	0.000
4	2.873	2.785	3.001	18616	4930	3.776	0.475	   	1	N2O	0.169	13252	11.319	1.713	2.243	1.915	0	0	100.000	100.000
5	3.291	3.122	3.577	1184	82	14.429	0.000	   	2	SF6	0.339	1277	117.501	1.388	1.785	2.009	0	0	0.000	0.000

[Compound Results(Ch1)]
# of IDs	6
ID#	Name	R.Time	Area	Height	Conc.	Curve	3rd	2nd	1st	Constant	Area Ratio	Height Ratio	Conc. %	Norm Conc.
1	CO	1.476	29398	13870	207.551	Linear	0.000000e+00	0.000000e+00	1.416423e+002	0.000000e+00	0	0	30.206	30.206
2	CH4	1.567	4855	2355	93.879	Linear	0.000000e+00	0.000000e+00	5.171738e+001	0.000000e+00	0	0	13.663	13.663
3	CO2	1.996	1536757	727445	385.684	Linear	0.000000e+00	0.000000e+00	3.984494e+003	0.000000e+00	0	0	56.131	56.131
4	Ethylene	0.000	0	0	0.000	Linear	0.000000e+00	0.000000e+00	0.000000e+00	0.000000e+00	0	0	0.000	0.000
5	Acetylene	0.000	0	0	0.000	Linear	0.000000e+00	0.000000e+00	0.000000e+00	0.000000e+00	0	0	0.000	0.000
6	Ethane	0.000	0	0	0.000	Linear	0.000000e+00	0.000000e+00	0.000000e+00	0.000000e+00	0	0	0.000	0.000

[Compound Results(Ch2)]
# of IDs	5
ID#	Name	R.Time	Area	Height	Conc.	Curve	3rd	2nd	1st	Constant	Area Ratio	Height Ratio	Conc. %	Norm Conc.
1	Hydrogen	0.000	0	0	0.000	Linear	0.000000e+00	0.000000e+00	0.000000e+00	0.000000e+00	0	0	0.000	0.000
2	Oxygen	0.000	0	0	0.000	Linear	0.000000e+00	0.000000e+00	0.000000e+00	0.000000e+00	0	0	0.000	0.000
3	Nitrogen	0.000	0	0	0.000	Linear	0.000000e+00	0.000000e+00	0.000000e+00	0.000000e+00	0	0	0.000	0.000
4	Methane	0.000	0	0	0.000	Linear	0.000000e+00	0.000000e+00	0.000000e+00	0.000000e+00	0	0	0.000	0.000
5	Carbon Monoxide	0.000	0	0	0.000	Linear	0.000000e+00	0.000000e+00	0.000000e+00	0.000000e+00	0	0	0.000	0.000

[Compound Results(Ch3)]
# of IDs	2
ID#	Name	R.Time	Area	Height	Conc.	Curve	3rd	2nd	1st	Constant	Area Ratio	Height Ratio	Conc. %	Norm Conc.
1	N2O	2.873	18616	4930	0.475	Linear	0.000000e+00	0.000000e+00	3.915173e+004	0.000000e+00	0	0	100.000	100.000
2	SF6	3.291	1184	82	0.000	Linear	0.000000e+00	0.000000e+00	0.000000e+00	0.000000e+00	0	0	0.000	0.000

[Group Results(Ch1)]
# of Groups	0

[Group Results(Ch2)]
# of Groups	0

[Group Results(Ch3)]
# of Groups	0

[Chromatogram (Ch1)]
Interval(msec)	220
# of Points	1091
Start Time(min)	0.002
End Time(min)	3.998
R.Time (min)	Intensity
0.00167	6
0.00533	6
0.00900	4
0.01267	2
0.01633	-1
0.02000	-3
0.02367	-1
0.02733	4
0.03100	9
0.03467	9
0.03833	4
0.04200	-1
0.04567	-0
0.04933	2
0.05300	4
0.05667	9
0.06033	21
0.06400	33
0.06767	40
0.07133	43
0.07500	46
0.07867	52
0.08233	62
0.08600	70
0.08967	73
0.09333	74
0.09700	79
0.10067	84
0.10433	86
0.10800	86
0.11167	84
0.11533	80
0.11900	79
0.12267	80
0.12633	81
0.13000	80
0.13367	78
0.13733	78
0.14100	78
0.14467	74
0.14833	70
0.15200	67
0.15567	67
0.15933	67
0.16300	65
0.16667	64
0.17033	65
0.17400	66
0.17767	68
0.18133	68
0.18500	66
0.18867	64
0.19233	57
0.19600	49
0.19967	45
0.20333	46
0.20700	43
0.21067	36
0.21433	30
0.21800	29
0.22167	28
0.22533	22
0.22900	15
0.23267	10
0.23633	10
0.24000	11
0.24367	13
0.24733	15
0.25100	18
0.25467	20
0.25833	20
0.26200	18
0.26567	14
0.26933	13
0.27300	13
0.27667	15
0.28033	18
0.28400	18
0.28767	14
0.29133	10
0.29500	9
0.29867	11
0.30233	13
0.30600	18
0.30967	24
0.31333	21
0.31700	10
0.32067	2
0.32433	1
0.32800	2
0.33167	-1
0.33533	-5
0.33900	-6
0.34267	-2
0.34633	-0
0.35000	3
0.35367	10
0.35733	13
0.36100	12
0.36467	11
0.36833	11
0.37200	8
0.37567	6
0.37933	5
0.38300	5
0.38667	8
0.39033	11
0.39400	12
0.39767	14
0.40133	17
0.40500	22
0.40867	24
0.41233	19
0.41600	14
0.41967	12
0.42333	12
0.42700	6
0.43067	5
0.43433	5
0.43800	3
0.44167	-5
0.44533	-14
0.44900	-18
0.45267	-17
0.45633	-13
0.46000	-6
0.46367	3
0.46733	14
0.47100	19
0.47467	20
0.47833	20
0.48200	21
0.48567	26
0.48933	29
0.49300	28
0.49667	24
0.50033	21
0.50400	20
0.50767	19
0.51133	18
0.51500	14
0.51867	8
0.52233	2
0.52600	1
0.52967	4
0.53333	7
0.53700	9
0.54067	6
0.54433	4
0.54800	2
0.55167	2
0.55533	4
0.55900	7
0.56267	6
0.56633	4
0.57000	1
0.57367	-1
0.57733	-1
0.58100	2
0.58467	6
0.58833	10
0.59200	11
0.59567	15
0.59933	21
0.60300	31
0.60667	37
0.61033	34
0.61400	30
0.61767	26
0.62133	27
0.62500	40
0.62867	62
0.63233	77
0.63600	79
0.63967	80
0.64333	77
0.64700	73
0.65067	70
0.65433	67
0.65800	67
0.66167	66
0.66533	64
0.66900	64
0.67267	64
0.67633	57
0.68000	47
0.68367	37
0.68733	31
0.69100	28
0.69467	28
0.69833	35
0.70200	44
0.70567	51
0.70933	56
0.71300	60
0.71667	60
0.72033	60
0.72400	66
0.72767	78
0.73133	87
0.73500	88
0.73867	80
0.74233	68
0.74600	58
0.74967	51
0.75333	44
0.75700	41
0.76067	41
0.76433	40
0.76800	37
0.77167	38
0.77533	43
0.77900	47
0.78267	45
0.78633	43
0.79000	44
0.79367	50
0.79733	59
0.80100	66
0.80467	67
0.80833	64
0.81200	61
0.81567	60
0.81933	61
0.82300	66
0.82667	75
0.83033	81
0.83400	86
0.83767	85
0.84133	77
0.84500	69
0.84867	64
0.85233	65
0.85600	71
0.85967	81
0.86333	88
0.86700	89
0.87067	87
0.87433	81
0.87800	74
0.88167	66
0.88533	61
0.88900	58
0.89267	55
0.89633	51
0.90000	46
0.90367	42
0.90733	43
0.91100	49
0.91467	57
0.91833	62
0.92200	65
0.92567	66
0.92933	63
0.93300	59
0.93667	57
0.94033	56
0.94400	58
0.94767	62
0.95133	62
0.95500	61
0.95867	56
0.96233	51
0.96600	43
0.96967	36
0.97333	35
0.97700	33
0.98067	33
0.98433	36
0.98800	35
0.99167	34
0.99533	37
0.99900	41
1.00267	45
1.00633	45
1.01000	43
1.01367	39
1.01733	36
1.02100	35
1.02467	40
1.02833	47
1.03200	49
1.03567	51
1.03933	55
1.04300	56
1.04667	58
1.05033	61
1.05400	60
1.05767	57
1.06133	48
1.06500	38
1.06867	34
1.07233	33
1.07600	34
1.07967	32
1.08333	35
1.08700	38
1.09067	37
1.09433	31
1.09800	24
1.10167	20
1.10533	20
1.10900	21
1.11267	20
1.11633	21
1.12000	21
1.12367	19
1.12733	17
1.13100	17
1.13467	23
1.13833	27
1.14200	31
1.14567	31
1.14933	29
1.15300	28
1.15667	29
1.16033	29
1.16400	25
1.16767	25
1.17133	31
1.17500	40
1.17867	43
1.18233	40
1.18600	34
1.18967	30
1.19333	26
1.19700	23
1.20067	23
1.20433	27
1.20800	33
1.21167	31
1.21533	31
1.21900	30
1.22267	28
1.22633	29
1.23000	31
1.23367	31
1.23733	32
1.24100	35
1.24467	37
1.24833	38
1.25200	39
1.25567	39
1.25933	35
1.26300	30
1.26667	27
1.27033	25
1.27400	26
1.27767	28
1.28133	29
1.28500	33
1.28867	37
1.29233	36
1.29600	27
1.29967	13
1.30333	2
1.30700	-5
1.31067	-7
1.31433	-3
1.31800	1
1.32167	6
1.32533	6
1.32900	1
1.33267	-9
1.33633	-16
1.34000	-21
1.34367	-23
1.34733	-26
1.35100	-31
1.35467	-32
1.35833	-29
1.36200	-24
1.36567	-19
1.36933	-12
1.37300	2
1.37667	18
1.38033	24
1.38400	22
1.38767	18
1.39133	13
1.39500	8
1.39867	7
1.40233	7
1.40600	8
1.40967	12
1.41333	13
1.41700	9
1.42067	2
1.42433	-5
1.42800	-10
1.43167	-13
1.43533	-10
1.43900	17
1.44267	125
1.44633	382
1.45000	986
1.45367	2351
1.45733	4593
1.46100	7259
1.46467	9788
1.46833	11839
1.47200	13246
1.47567	13874
1.47933	13604
1.48300	12448
1.48667	10633
1.49033	8543
1.49400	6541
1.49767	4847
1.50133	3523
1.50500	2540
1.50867	1832
1.51233	1331
1.51600	982
1.51967	741
1.52333	571
1.52700	451
1.53067	369
1.53433	311
1.53800	282
1.54167	327
1.54533	505
1.54900	835
1.55267	1259
1.55633	1680
1.56000	2032
1.56367	2277
1.56733	2393
1.57100	2356
1.57467	2155
1.57833	1829
1.58200	1452
1.58567	1091
1.58933	788
1.59300	555
1.59667	388
1.60033	274
1.60400	198
1.60767	151
1.61133	122
1.61500	102
1.61867	87
1.62233	75
1.62600	67
1.62967	61
1.63333	59
1.63700	59
1.64067	55
1.64433	48
1.64800	47
1.65167	46
1.65533	43
1.65900	41
1.66267	36
1.66633	26
1.67000	15
1.67367	10
1.67733	11
1.68100	13
1.68467	10
1.68833	6
1.69200	8
1.69567	9
1.69933	10
1.70300	10
1.70667	5
1.71033	4
1.71400	2
1.71767	1
1.72133	2
1.72500	5
1.72867	9
1.73233	11
1.73600	10
1.73967	8
1.74333	8
1.74700	9
1.75067	12
1.75433	16
1.75800	20
1.76167	23
1.76533	23
1.76900	21
1.77267	21
1.77633	24
1.78000	28
1.78367	30
1.78733	30
1.79100	29
1.79467	29
1.79833	27
1.80200	25
1.80567	19
1.80933	12
1.81300	8
1.81667	4
1.82033	2
1.82400	4
1.82767	6
1.83133	9
1.83500	10
1.83867	13
1.84233	19
1.84600	27
1.84967	32
1.85333	36
1.85700	39
1.86067	36
1.86433	29
1.86800	19
1.87167	13
1.87533	9
1.87900	7
1.88267	11
1.88633	13
1.89000	18
1.89367	26
1.89733	31
1.90100	29
1.90467	23
1.90833	17
1.91200	12
1.91567	8
1.91933	5
1.92300	5
1.92667	8
1.93033	14
1.93400	23
1.93767	31
1.94133	35
1.94500	35
1.94867	38
1.95233	62
1.95600	206
1.95967	987
1.96333	4441
1.96700	16182
1.97067	46888
1.97433	109519
1.97800	210154
1.98167	339906
1.98533	477753
1.98900	599960
1.99267	687310
1.99633	727518
2.00000	715935
2.00367	656979
2.00733	564227
2.01100	456236
2.01467	350404
2.01833	258430
2.02200	185173
2.02567	130386
2.02933	91182
2.03300	63944
2.03667	45355
2.04033	32787
2.04400	24301
2.04767	18539
2.05133	14587
2.05500	11826
2.05867	9851
2.06233	8407
2.06600	7325
2.06967	6494
2.07333	5834
2.07700	5296
2.08067	4851
2.08433	4474
2.08800	4152
2.09167	3878
2.09533	3641
2.09900	3435
2.10267	3253
2.10633	3090
2.11000	2937
2.11367	2794
2.11733	2661
2.12100	2541
2.12467	2434
2.12833	2340
2.13200	2257
2.13567	2180
2.13933	2107
2.14300	2031
2.14667	1953
2.15033	1879
2.15400	1811
2.15767	1751
2.16133	1700
2.16500	1651
2.16867	1602
2.17233	1555
2.17600	1508
2.17967	1463
2.18333	1420
2.18700	1384
2.19067	1352
2.19433	1319
2.19800	1284
2.20167	1249
2.20533	1216
2.20900	1193
2.21267	1173
2.21633	1150
2.22000	1122
2.22367	1093
2.22733	1067
2.23100	1047
2.23467	1034
2.23833	1023
2.24200	1013
2.24567	995
2.24933	972
2.25300	949
2.25667	928
2.26033	911
2.26400	891
2.26767	872
2.27133	858
2.27500	845
2.27867	835
2.28233	827
2.28600	820
2.28967	815
2.29333	802
2.29700	782
2.30067	761
2.30433	737
2.30800	717
2.31167	702
2.31533	692
2.31900	692
2.32267	695
2.32633	695
2.33000	690
2.33367	683
2.33733	678
2.34100	672
2.34467	664
2.34833	653
2.35200	639
2.35567	626
2.35933	618
2.36300	614
2.36667	611
2.37033	608
2.37400	601
2.37767	595
2.38133	591
2.38500	583
2.38867	576
2.39233	575
2.39600	576
2.39967	574
2.40333	572
2.40700	566
2.41067	556
2.41433	545
2.41800	536
2.42167	529
2.42533	527
2.42900	526
2.43267	525
2.43633	522
2.44000	520
2.44367	520
2.44733	516
2.45100	511
2.45467	505
2.45833	501
2.46200	500
2.46567	501
2.46933	505
2.47300	505
2.47667	498
2.48033	487
2.48400	478
2.48767	469
2.49133	461
2.49500	454
2.49867	451
2.50233	451
2.50600	450
2.50967	451
2.51333	453
2.51700	457
2.52067	461
2.52433	462
2.52800	460
2.53167	457
2.53533	454
2.53900	450
2.54267	445
2.54633	441
2.55000	437
2.55367	435
2.55733	434
2.56100	435
2.56467	434
2.56833	431
2.57200	425
2.57567	415
2.57933	410
2.58300	409
2.58667	405
2.59033	398
2.59400	389
2.59767	383
2.60133	380
2.60500	375
2.60867	371
2.61233	368
2.61600	366
2.61967	366
2.62333	371
2.62700	382
2.63067	394
2.63433	401
2.63800	401
2.64167	398
2.64533	392
2.64900	381
2.65267	368
2.65633	358
2.66000	352
2.66367	348
2.66733	338
2.67100	332
2.67467	331
2.67833	327
2.68200	329
2.68567	337
2.68933	349
2.69300	361
2.69667	367
2.70033	361
2.70400	347
2.70767	336
2.71133	330
2.71500	328
2.71867	326
2.72233	325
2.72600	321
2.72967	319
2.73333	316
2.73700	316
2.74067	322
2.74433	331
2.74800	336
2.75167	337
2.75533	336
2.75900	333
2.76267	329
2.76633	326
2.77000	325
2.77367	325
2.77733	323
2.78100	319
2.78467	316
2.78833	316
2.79200	318
2.79567	322
2.79933	326
2.80300	329
2.80667	330
2.81033	328
2.81400	329
2.81767	331
2.82133	333
2.82500	334
2.82867	331
2.83233	325
2.83600	323
2.83967	327
2.84333	330
2.84700	331
2.85067	332
2.85433	329
2.85800	321
2.86167	310
2.86533	299
2.86900	293
2.87267	293
2.87633	299
2.88000	302
2.88367	297
2.88733	292
2.89100	290
2.89467	292
2.89833	294
2.90200	298
2.90567	305
2.90933	311
2.91300	315
2.91667	315
2.92033	312
2.92400	305
2.92767	303
2.93133	306
2.93500	306
2.93867	307
2.94233	308
2.94600	305
2.94967	298
2.95333	291
2.95700	282
2.96067	275
2.96433	269
2.96800	266
2.97167	268
2.97533	273
2.97900	278
2.98267	284
2.98633	287
2.99000	287
2.99367	285
2.99733	283
3.00100	281
3.00467	280
3.00833	279
3.01200	278
3.01567	274
3.01933	271
3.02300	271
3.02667	271
3.03033	267
3.03400	264
3.03767	263
3.04133	264
3.04500	267
3.04867	269
3.05233	271
3.05600	270
3.05967	262
3.06333	253
3.06700	249
3.07067	247
3.07433	250
3.07800	255
3.08167	256
3.08533	256
3.08900	253
3.09267	251
3.09633	252
3.10000	254
3.10367	252
3.10733	248
3.11100	244
3.11467	243
3.11833	247
3.12200	251
3.12567	253
3.12933	250
3.13300	247
3.13667	240
3.14033	235
3.14400	238
3.14767	245
3.15133	250
3.15500	248
3.15867	245
3.16233	240
3.16600	236
3.16967	234
3.17333	235
3.17700	235
3.18067	237
3.18433	243
3.18800	247
3.19167	247
3.19533	243
3.19900	234
3.20267	226
3.20633	220
3.21000	214
3.21367	209
3.21733	207
3.22100	206
3.22467	204
3.22833	201
3.23200	196
3.23567	193
3.23933	193
3.24300	200
3.24667	210
3.25033	215
3.25400	214
3.25767	210
3.26133	208
3.26500	207
3.26867	206
3.27233	203
3.27600	200
3.27967	196
3.28333	195
3.28700	198
3.29067	201
3.29433	197
3.29800	192
3.30167	188
3.30533	186
3.30900	188
3.31267	192
3.31633	196
3.32000	202
3.32367	209
3.32733	214
3.33100	215
3.33467	212
3.33833	209
3.34200	207
3.34567	204
3.34933	202
3.35300	204
3.35667	205
3.36033	199
3.36400	193
3.36767	192
3.37133	196
3.37500	200
3.37867	203
3.38233	205
3.38600	203
3.38967	195
3.39333	187
3.39700	179
3.40067	174
3.40433	172
3.40800	174
3.41167	178
3.41533	182
3.41900	186
3.42267	189
3.42633	195
3.43000	198
3.43367	194
3.43733	188
3.44100	187
3.44467	185
3.44833	181
3.45200	180
3.45567	181
3.45933	182
3.46300	181
3.46667	180
3.47033	178
3.47400	172
3.47767	166
3.48133	162
3.48500	162
3.48867	163
3.49233	164
3.49600	167
3.49967	172
3.50333	176
3.50700	175
3.51067	168
3.51433	161
3.51800	157
3.52167	151
3.52533	140
3.52900	135
3.53267	142
3.53633	147
3.54000	145
3.54367	146
3.54733	149
3.55100	147
3.55467	146
3.55833	144
3.56200	142
3.56567	144
3.56933	150
3.57300	150
3.57667	147
3.58033	145
3.58400	144
3.58767	142
3.59133	138
3.59500	131
3.59867	129
3.60233	131
3.60600	134
3.60967	137
3.61333	141
3.61700	146
3.62067	154
3.62433	163
3.62800	166
3.63167	160
3.63533	150
3.63900	141
3.64267	135
3.64633	132
3.65000	132
3.65367	133
3.65733	134
3.66100	136
3.66467	137
3.66833	137
3.67200	131
3.67567	121
3.67933	112
3.68300	110
3.68667	114
3.69033	113
3.69400	109
3.69767	109
3.70133	111
3.70500	116
3.70867	126
3.71233	134
3.71600	134
3.71967	131
3.72333	126
3.72700	127
3.73067	127
3.73433	126
3.73800	127
3.74167	129
3.74533	132
3.74900	135
3.75267	135
3.75633	134
3.76000	133
3.76367	129
3.76733	125
3.77100	124
3.77467	120
3.77833	113
3.78200	102
3.78567	96
3.78933	94
3.79300	97
3.79667	103
3.80033	112
3.80400	119
3.80767	120
3.81133	120
3.81500	118
3.81867	114
3.82233	112
3.82600	114
3.82967	120
3.83333	125
3.83700	128
3.84067	131
3.84433	131
3.84800	130
3.85167	124
3.85533	114
3.85900	101
3.86267	91
3.86633	84
3.87000	83
3.87367	85
3.87733	89
3.88100	93
3.88467	97
3.88833	100
3.89200	104
3.89567	107
3.89933	111
3.90300	111
3.90667	109
3.91033	106
3.91400	102
3.91767	98
3.92133	97
3.92500	99
3.92867	104
3.93233	108
3.93600	110
3.93967	109
3.94333	110
3.94700	113
3.95067	112
3.95433	107
3.95800	101
3.96167	97
3.96533	92
3.96900	89
3.97267	93
3.97633	102
3.98000	107
3.98367	107
3.98733	101
3.99100	95
3.99467	89
3.99833	89

[Chromatogram (Ch2)]
Interval(msec)	220
# of Points	1091
Start Time(min)	0.002
End Time(min)	3.998
R.Time (min)	Intensity
0.00167	0
0.00533	0
0.00900	0
0.01267	-0
0.01633	-0
0.02000	-0
0.02367	-0
0.02733	-0
0.03100	-0
0.03467	-0
0.03833	0
0.04200	1
0.04567	1
0.04933	1
0.05300	1
0.05667	2
0.06033	2
0.06400	2
0.06767	2
0.07133	2
0.07500	3
0.07867	3
0.08233	2
0.08600	2
0.08967	2
0.09333	3
0.09700	3
0.10067	3
0.10433	3
0.10800	3
0.11167	3
0.11533	3
0.11900	3
0.12267	3
0.12633	3
0.13000	3
0.13367	2
0.13733	2
0.14100	2
0.14467	1
0.14833	1
0.15200	1
0.15567	1
0.15933	1
0.16300	1
0.16667	1
0.17033	2
0.17400	2
0.17767	2
0.18133	3
0.18500	3
0.18867	3
0.19233	3
0.19600	3
0.19967	3
0.20333	3
0.20700	3
0.21067	3
0.21433	3
0.21800	3
0.22167	3
0.22533	3
0.22900	3
0.23267	2
0.23633	2
0.24000	2
0.24367	2
0.24733	1
0.25100	1
0.25467	1
0.25833	1
0.26200	1
0.26567	1
0.26933	1
0.27300	1
0.27667	1
0.28033	1
0.28400	1
0.28767	1
0.29133	0
0.29500	0
0.29867	0
0.30233	0
0.30600	0
0.30967	0
0.31333	0
0.31700	0
0.32067	0
0.32433	0
0.32800	0
0.33167	0
0.33533	-0
0.33900	-1
0.34267	-1
0.34633	-2
0.35000	-2
0.35367	-2
0.35733	-3
0.36100	-3
0.36467	-3
0.36833	-3
0.37200	-3
0.37567	-3
0.37933	-3
0.38300	-3
0.38667	-3
0.39033	-2
0.39400	-2
0.39767	-2
0.40133	-2
0.40500	-2
0.40867	-2
0.41233	-2
0.41600	-1
0.41967	-1
0.42333	-0
0.42700	0
0.43067	1
0.43433	1
0.43800	1
0.44167	0
0.44533	0
0.44900	0
0.45267	-0
0.45633	-0
0.46000	-1
0.46367	-1
0.46733	-1
0.47100	-1
0.47467	-1
0.47833	-1
0.48200	-1
0.48567	-1
0.48933	-1
0.49300	-0
0.49667	1
0.50033	1
0.50400	1
0.50767	2
0.51133	2
0.51500	1
0.51867	1
0.52233	1
0.52600	1
0.52967	0
0.53333	-0
0.53700	-0
0.54067	-1
0.54433	-1
0.54800	-1
0.55167	-1
0.55533	-1
0.55900	-0
0.56267	-0
0.56633	-0
0.57000	0
0.57367	0
0.57733	-0
0.58100	-0
0.58467	-1
0.58833	-1
0.59200	-0
0.59567	-0
0.59933	-0
0.60300	-0
0.60667	-0
0.61033	-0
0.61400	-0
0.61767	-0
0.62133	0
0.62500	0
0.62867	0
0.63233	1
0.63600	1
0.63967	1
0.64333	2
0.64700	2
0.65067	2
0.65433	2
0.65800	2
0.66167	2
0.66533	1
0.66900	1
0.67267	1
0.67633	1
0.68000	1
0.68367	1
0.68733	1
0.69100	1
0.69467	0
0.69833	-0
0.70200	-1
0.70567	-1
0.70933	-1
0.71300	-2
0.71667	-2
0.72033	-2
0.72400	-2
0.72767	-2
0.73133	-2
0.73500	-1
0.73867	-1
0.74233	-0
0.74600	0
0.74967	0
0.75333	0
0.75700	0
0.76067	0
0.76433	0
0.76800	-0
0.77167	-1
0.77533	-1
0.77900	-1
0.78267	-2
0.78633	-2
0.79000	-2
0.79367	-3
0.79733	-3
0.80100	-3
0.80467	-3
0.80833	-3
0.81200	-3
0.81567	-3
0.81933	-3
0.82300	-3
0.82667	-3
0.83033	-3
0.83400	-2
0.83767	-2
0.84133	-2
0.84500	-1
0.84867	-1
0.85233	-1
0.85600	-0
0.85967	0
0.86333	0
0.86700	1
0.87067	1
0.87433	1
0.87800	1
0.88167	1
0.88533	0
0.88900	0
0.89267	-0
0.89633	-0
0.90000	-1
0.90367	-1
0.90733	-2
0.91100	-2
0.91467	-2
0.91833	-2
0.92200	-2
0.92567	-2
0.92933	-2
0.93300	-2
0.93667	-2
0.94033	-2
0.94400	-2
0.94767	-2
0.95133	-2
0.95500	-2
0.95867	-2
0.96233	-3
0.96600	-3
0.96967	-3
0.97333	-3
0.97700	-3
0.98067	-3
0.98433	-3
0.98800	-3
0.99167	-3
0.99533	-2
0.99900	-2
1.00267	-2
1.00633	-2
1.01000	-2
1.01367	-1
1.01733	-1
1.02100	-0
1.02467	-0
1.02833	-0
1.03200	0
1.03567	-0
1.03933	-0
1.04300	-0
1.04667	-1
1.05033	-1
1.05400	-1
1.05767	-1
1.06133	-1
1.06500	-1
1.06867	-1
1.07233	-1
1.07600	-1
1.07967	-1
1.08333	-1
1.08700	-1
1.09067	-0
1.09433	-0
1.09800	0
1.10167	0
1.10533	0
1.10900	0
1.11267	1
1.11633	1
1.12000	1
1.12367	0
1.12733	0
1.13100	0
1.13467	0
1.13833	-0
1.14200	-0
1.14567	-1
1.14933	-1
1.15300	-1
1.15667	-1
1.16033	-1
1.16400	-1
1.16767	-1
1.17133	-1
1.17500	-1
1.17867	-1
1.18233	-1
1.18600	-0
1.18967	-0
1.19333	0
1.19700	0
1.20067	0
1.20433	0
1.20800	-0
1.21167	-1
1.21533	-1
1.21900	-1
1.22267	-2
1.22633	-2
1.23000	-2
1.23367	-2
1.23733	-2
1.24100	-2
1.24467	-2
1.24833	-2
1.25200	-2
1.25567	-1
1.25933	-1
1.26300	-2
1.26667	-2
1.27033	-2
1.27400	-2
1.27767	-2
1.28133	-2
1.28500	-3
1.28867	-3
1.29233	-3
1.29600	-3
1.29967	-3
1.30333	-3
1.30700	-3
1.31067	-3
1.31433	-3
1.31800	-3
1.32167	-3
1.32533	-3
1.32900	-3
1.33267	-3
1.33633	-3
1.34000	-2
1.34367	-2
1.34733	-2
1.35100	-2
1.35467	-2
1.35833	-2
1.36200	-2
1.36567	-2
1.36933	-1
1.37300	-2
1.37667	-2
1.38033	-2
1.38400	-1
1.38767	-1
1.39133	-1
1.39500	-1
1.39867	-1
1.40233	-1
1.40600	-1
1.40967	-1
1.41333	-1
1.41700	-1
1.42067	-1
1.42433	-1
1.42800	-1
1.43167	-1
1.43533	-2
1.43900	-2
1.44267	-2
1.44633	-2
1.45000	-3
1.45367	-3
1.45733	-3
1.46100	-3
1.46467	-4
1.46833	-4
1.47200	-4
1.47567	-4
1.47933	-5
1.48300	-5
1.48667	-5
1.49033	-5
1.49400	-5
1.49767	-5
1.50133	-5
1.50500	-5
1.50867	-5
1.51233	-5
1.51600	-5
1.51967	-5
1.52333	-4
1.52700	-4
1.53067	-3
1.53433	-3
1.53800	-3
1.54167	-3
1.54533	-2
1.54900	-2
1.55267	-2
1.55633	-3
1.56000	-3
1.56367	-3
1.56733	-3
1.57100	-4
1.57467	-4
1.57833	-4
1.58200	-4
1.58567	-4
1.58933	-4
1.59300	-4
1.59667	-5
1.60033	-5
1.60400	-6
1.60767	-8
1.61133	-9
1.61500	-11
1.61867	-13
1.62233	-16
1.62600	-18
1.62967	-21
1.63333	-24
1.63700	-28
1.64067	-31
1.64433	-35
1.64800	-39
1.65167	-42
1.65533	-46
1.65900	-50
1.66267	-54
1.66633	-58
1.67000	-62
1.67367	-67
1.67733	-72
1.68100	-77
1.68467	-82
1.68833	-86
1.69200	-90
1.69567	-94
1.69933	-97
1.70300	-100
1.70667	-102
1.71033	-104
1.71400	-105
1.71767	-106
1.72133	-107
1.72500	-108
1.72867	-109
1.73233	-110
1.73600	-110
1.73967	-111
1.74333	-111
1.74700	-112
1.75067	-112
1.75433	-112
1.75800	-112
1.76167	-113
1.76533	-113
1.76900	-114
1.77267	-115
1.77633	-116
1.78000	-117
1.78367	-117
1.78733	-118
1.79100	-118
1.79467	-118
1.79833	-118
1.80200	-119
1.80567	-118
1.80933	-118
1.81300	-118
1.81667	-117
1.82033	-117
1.82400	-117
1.82767	-117
1.83133	-117
1.83500	-117
1.83867	-117
1.84233	-118
1.84600	-118
1.84967	-118
1.85333	-119
1.85700	-118
1.86067	-118
1.86433	-118
1.86800	-118
1.87167	-118
1.87533	-118
1.87900	-118
1.88267	-117
1.88633	-117
1.89000	-117
1.89367	-117
1.89733	-118
1.90100	-118
1.90467	-119
1.90833	-119
1.91200	-119
1.91567	-119
1.91933	-119
1.92300	-118
1.92667	-117
1.93033	-117
1.93400	-116
1.93767	-115
1.94133	-115
1.94500	-114
1.94867	-114
1.95233	-113
1.95600	-113
1.95967	-113
1.96333	-113
1.96700	-113
1.97067	-113
1.97433	-113
1.97800	-113
1.98167	-113
1.98533	-112
1.98900	-112
1.99267	-111
1.99633	-111
2.00000	-111
2.00367	-110
2.00733	-110
2.01100	-109
2.01467	-109
2.01833	-109
2.02200	-108
2.02567	-108
2.02933	-108
2.03300	-107
2.03667	-107
2.04033	-106
2.04400	-106
2.04767	-105
2.05133	-105
2.05500	-104
2.05867	-104
2.06233	-103
2.06600	-104
2.06967	-104
2.07333	-103
2.07700	-103
2.08067	-103
2.08433	-102
2.08800	-101
2.09167	-101
2.09533	-101
2.09900	-101
2.10267	-101
2.10633	-101
2.11000	-101
2.11367	-101
2.11733	-102
2.12100	-102
2.12467	-101
2.12833	-101
2.13200	-101
2.13567	-101
2.13933	-100
2.14300	-100
2.14667	-100
2.15033	-100
2.15400	-99
2.15767	-98
2.16133	-98
2.16500	-97
2.16867	-96
2.17233	-95
2.17600	-95
2.17967	-95
2.18333	-94
2.18700	-94
2.19067	-93
2.19433	-93
2.19800	-93
2.20167	-94
2.20533	-94
2.20900	-95
2.21267	-95
2.21633	-95
2.22000	-94
2.22367	-94
2.22733	-94
2.23100	-94
2.23467	-93
2.23833	-92
2.24200	-90
2.24567	-89
2.24933	-89
2.25300	-88
2.25667	-88
2.26033	-88
2.26400	-87
2.26767	-87
2.27133	-86
2.27500	-87
2.27867	-87
2.28233	-89
2.28600	-90
2.28967	-91
2.29333	-92
2.29700	-92
2.30067	-91
2.30433	-90
2.30800	-89
2.31167	-88
2.31533	-87
2.31900	-87
2.32267	-86
2.32633	-85
2.33000	-85
2.33367	-84
2.33733	-83
2.34100	-82
2.34467	-81
2.34833	-80
2.35200	-79
2.35567	-78
2.35933	-77
2.36300	-76
2.36667	-74
2.37033	-72
2.37400	-70
2.37767	-67
2.38133	-63
2.38500	-59
2.38867	-55
2.39233	-51
2.39600	-46
2.39967	-42
2.40333	-38
2.40700	-34
2.41067	-30
2.41433	-26
2.41800	-23
2.42167	-21
2.42533	-20
2.42900	-19
2.43267	-17
2.43633	-16
2.44000	-15
2.44367	-14
2.44733	-12
2.45100	-10
2.45467	-9
2.45833	-7
2.46200	-5
2.46567	-4
2.46933	-3
2.47300	-2
2.47667	-1
2.48033	0
2.48400	1
2.48767	2
2.49133	3
2.49500	4
2.49867	5
2.50233	6
2.50600	6
2.50967	7
2.51333	7
2.51700	8
2.52067	8
2.52433	9
2.52800	9
2.53167	10
2.53533	10
2.53900	10
2.54267	10
2.54633	10
2.55000	11
2.55367	11
2.55733	12
2.56100	12
2.56467	12
2.56833	13
2.57200	13
2.57567	13
2.57933	13
2.58300	14
2.58667	14
2.59033	14
2.59400	14
2.59767	14
2.60133	15
2.60500	15
2.60867	15
2.61233	15
2.61600	15
2.61967	16
2.62333	16
2.62700	16
2.63067	16
2.63433	16
2.63800	17
2.64167	17
2.64533	17
2.64900	17
2.65267	17
2.65633	18
2.66000	18
2.66367	18
2.66733	19
2.67100	19
2.67467	19
2.67833	19
2.68200	19
2.68567	19
2.68933	20
2.69300	20
2.69667	21
2.70033	21
2.70400	22
2.70767	22
2.71133	21
2.71500	21
2.71867	21
2.72233	20
2.72600	20
2.72967	20
2.73333	21
2.73700	21
2.74067	22
2.74433	22
2.74800	23
2.75167	23
2.75533	24
2.75900	24
2.76267	25
2.76633	26
2.77000	26
2.77367	26
2.77733	26
2.78100	26
2.78467	26
2.78833	25
2.79200	24
2.79567	24
2.79933	23
2.80300	23
2.80667	23
2.81033	23
2.81400	23
2.81767	23
2.82133	23
2.82500	24
2.82867	24
2.83233	24
2.83600	24
2.83967	23
2.84333	20
2.84700	15
2.85067	8
2.85433	-2
2.85800	-16
2.86167	-34
2.86533	-57
2.86900	-83
2.87267	-114
2.87633	-149
2.88000	-187
2.88367	-229
2.88733	-274
2.89100	-322
2.89467	-372
2.89833	-424
2.90200	-478
2.90567	-532
2.90933	-586
2.91300	-640
2.91667	-694
2.92033	-748
2.92400	-800
2.92767	-851
2.93133	-905
2.93500	-962
2.93867	-1021
2.94233	-1072
2.94600	-1104
2.94967	-1110
2.95333	-1091
2.95700	-1048
2.96067	-988
2.96433	-916
2.96800	-837
2.97167	-756
2.97533	-675
2.97900	-598
2.98267	-526
2.98633	-459
2.99000	-399
2.99367	-345
2.99733	-297
3.00100	-254
3.00467	-217
3.00833	-185
3.01200	-157
3.01567	-133
3.01933	-112
3.02300	-95
3.02667	-80
3.03033	-67
3.03400	-56
3.03767	-47
3.04133	-38
3.04500	-31
3.04867	-25
3.05233	-20
3.05600	-16
3.05967	-12
3.06333	-8
3.06700	-5
3.07067	-3
3.07433	-1
3.07800	1
3.08167	3
3.08533	4
3.08900	6
3.09267	7
3.09633	8
3.10000	9
3.10367	10
3.10733	11
3.11100	12
3.11467	12
3.11833	12
3.12200	13
3.12567	13
3.12933	13
3.13300	13
3.13667	14
3.14033	14
3.14400	15
3.14767	15
3.15133	16
3.15500	16
3.15867	16
3.16233	17
3.16600	17
3.16967	17
3.17333	17
3.17700	17
3.18067	17
3.18433	17
3.18800	18
3.19167	18
3.19533	18
3.19900	19
3.20267	19
3.20633	20
3.21000	20
3.21367	20
3.21733	20
3.22100	20
3.22467	21
3.22833	21
3.23200	21
3.23567	21
3.23933	21
3.24300	21
3.24667	21
3.25033	21
3.25400	21
3.25767	20
3.26133	21
3.26500	21
3.26867	21
3.27233	21
3.27600	21
3.27967	21
3.28333	21
3.28700	21
3.29067	21
3.29433	21
3.29800	21
3.30167	22
3.30533	22
3.30900	22
3.31267	23
3.31633	23
3.32000	23
3.32367	24
3.32733	24
3.33100	25
3.33467	25
3.33833	25
3.34200	26
3.34567	26
3.34933	26
3.35300	26
3.35667	27
3.36033	27
3.36400	27
3.36767	27
3.37133	27
3.37500	27
3.37867	27
3.38233	27
3.38600	27
3.38967	28
3.39333	28
3.39700	28
3.40067	28
3.40433	28
3.40800	28
3.41167	28
3.41533	28
3.41900	28
3.42267	28
3.42633	28
3.43000	28
3.43367	28
3.43733	27
3.44100	27
3.44467	27
3.44833	27
3.45200	27
3.45567	27
3.45933	27
3.46300	27
3.46667	27
3.47033	27
3.47400	27
3.47767	27
3.48133	27
3.48500	27
3.48867	27
3.49233	26
3.49600	26
3.49967	26
3.50333	26
3.50700	25
3.51067	25
3.51433	25
3.51800	25
3.52167	26
3.52533	26
3.52900	26
3.53267	26
3.53633	25
3.54000	25
3.54367	25
3.54733	25
3.55100	25
3.55467	25
3.55833	25
3.56200	25
3.56567	25
3.56933	26
3.57300	26
3.57667	26
3.58033	26
3.58400	26
3.58767	27
3.59133	27
3.59500	27
3.59867	27
3.60233	26
3.60600	27
3.60967	27
3.61333	27
3.61700	27
3.62067	27
3.62433	27
3.62800	27
3.63167	27
3.63533	27
3.63900	27
3.64267	26
3.64633	26
3.65000	26
3.65367	25
3.65733	25
3.66100	25
3.66467	25
3.66833	25
3.67200	25
3.67567	25
3.67933	24
3.68300	24
3.68667	25
3.69033	25
3.69400	25
3.69767	25
3.70133	25
3.70500	26
3.70867	26
3.71233	26
3.71600	25
3.71967	25
3.72333	25
3.72700	25
3.73067	25
3.73433	25
3.73800	25
3.74167	25
3.74533	26
3.74900	26
3.75267	26
3.75633	26
3.76000	26
3.76367	26
3.76733	26
3.77100	26
3.77467	26
3.77833	26
3.78200	26
3.78567	26
3.78933	26
3.79300	26
3.79667	26
3.80033	26
3.80400	26
3.80767	26
3.81133	27
3.81500	27
3.81867	27
3.82233	27
3.82600	26
3.82967	26
3.83333	26
3.83700	26
3.84067	26
3.84433	27
3.84800	27
3.85167	26
3.85533	26
3.85900	26
3.86267	26
3.86633	26
3.87000	26
3.87367	26
3.87733	26
3.88100	26
3.88467	26
3.88833	27
3.89200	27
3.89567	27
3.89933	28
3.90300	28
3.90667	28
3.91033	28
3.91400	27
3.91767	27
3.92133	27
3.92500	27
3.92867	27
3.93233	27
3.93600	27
3.93967	27
3.94333	27
3.94700	27
3.95067	27
3.95433	27
3.95800	27
3.96167	27
3.96533	27
3.96900	27
3.97267	27
3.97633	27
3.98000	27
3.98367	27
3.98733	26
3.99100	26
3.99467	26
3.99833	25

[Chromatogram (Ch3)]
Interval(msec)	220
# of Points	1091
Start Time(min)	0.002
End Time(min)	3.998
R.Time (min)	Intensity
0.00167	0
0.00533	-0
0.00900	-1
0.01267	-0
0.01633	-1
0.02000	-1
0.02367	-1
0.02733	-3
0.03100	-4
0.03467	-4
0.03833	-4
0.04200	-5
0.04567	-5
0.04933	-8
0.05300	-8
0.05667	-5
0.06033	-3
0.06400	-2
0.06767	1
0.07133	3
0.07500	2
0.07867	2
0.08233	3
0.08600	4
0.08967	4
0.09333	0
0.09700	-2
0.10067	-2
0.10433	0
0.10800	-1
0.11167	-1
0.11533	-1
0.11900	0
0.12267	-1
0.12633	-2
0.13000	-3
0.13367	-2
0.13733	-2
0.14100	-1
0.14467	-0
0.14833	0
0.15200	-0
0.15567	1
0.15933	2
0.16300	3
0.16667	3
0.17033	1
0.17400	1
0.17767	1
0.18133	2
0.18500	3
0.18867	4
0.19233	7
0.19600	7
0.19967	5
0.20333	1
0.20700	-1
0.21067	-3
0.21433	-2
0.21800	-2
0.22167	-2
0.22533	-3
0.22900	-2
0.23267	-1
0.23633	1
0.24000	1
0.24367	4
0.24733	4
0.25100	2
0.25467	0
0.25833	-1
0.26200	-0
0.26567	2
0.26933	3
0.27300	4
0.27667	3
0.28033	4
0.28400	4
0.28767	4
0.29133	1
0.29500	-2
0.29867	-2
0.30233	-2
0.30600	-2
0.30967	-1
0.31333	2
0.31700	2
0.32067	1
0.32433	-0
0.32800	-1
0.33167	-2
0.33533	-2
0.33900	-0
0.34267	1
0.34633	2
0.35000	2
0.35367	3
0.35733	4
0.36100	6
0.36467	5
0.36833	2
0.37200	1
0.37567	1
0.37933	3
0.38300	4
0.38667	3
0.39033	1
0.39400	0
0.39767	1
0.40133	0
0.40500	-1
0.40867	0
0.41233	3
0.41600	5
0.41967	6
0.42333	7
0.42700	9
0.43067	9
0.43433	9
0.43800	7
0.44167	6
0.44533	4
0.44900	3
0.45267	3
0.45633	4
0.46000	4
0.46367	3
0.46733	3
0.47100	3
0.47467	3
0.47833	3
0.48200	3
0.48567	5
0.48933	7
0.49300	6
0.49667	5
0.50033	5
0.50400	6
0.50767	6
0.51133	7
0.51500	5
0.51867	3
0.52233	3
0.52600	4
0.52967	5
0.53333	5
0.53700	6
0.54067	7
0.54433	7
0.54800	7
0.55167	7
0.55533	11
0.55900	12
0.56267	10
0.56633	9
0.57000	9
0.57367	10
0.57733	8
0.58100	6
0.58467	3
0.58833	2
0.59200	0
0.59567	2
0.59933	3
0.60300	3
0.60667	5
0.61033	6
0.61400	7
0.61767	8
0.62133	8
0.62500	9
0.62867	9
0.63233	10
0.63600	10
0.63967	9
0.64333	8
0.64700	7
0.65067	7
0.65433	5
0.65800	5
0.66167	7
0.66533	6
0.66900	6
0.67267	5
0.67633	4
0.68000	5
0.68367	6
0.68733	6
0.69100	7
0.69467	7
0.69833	6
0.70200	7
0.70567	9
0.70933	12
0.71300	15
0.71667	12
0.72033	11
0.72400	12
0.72767	10
0.73133	7
0.73500	5
0.73867	5
0.74233	4
0.74600	4
0.74967	6
0.75333	8
0.75700	12
0.76067	15
0.76433	14
0.76800	13
0.77167	12
0.77533	13
0.77900	14
0.78267	12
0.78633	10
0.79000	9
0.79367	8
0.79733	11
0.80100	12
0.80467	11
0.80833	13
0.81200	17
0.81567	16
0.81933	15
0.82300	14
0.82667	14
0.83033	12
0.83400	10
0.83767	12
0.84133	12
0.84500	14
0.84867	14
0.85233	13
0.85600	12
0.85967	11
0.86333	11
0.86700	11
0.87067	11
0.87433	12
0.87800	13
0.88167	13
0.88533	10
0.88900	9
0.89267	9
0.89633	11
0.90000	13
0.90367	14
0.90733	16
0.91100	18
0.91467	18
0.91833	19
0.92200	19
0.92567	18
0.92933	18
0.93300	17
0.93667	19
0.94033	20
0.94400	21
0.94767	21
0.95133	21
0.95500	21
0.95867	22
0.96233	20
0.96600	20
0.96967	20
0.97333	21
0.97700	23
0.98067	24
0.98433	22
0.98800	19
0.99167	18
0.99533	18
0.99900	17
1.00267	16
1.00633	16
1.01000	16
1.01367	15
1.01733	14
1.02100	16
1.02467	17
1.02833	18
1.03200	19
1.03567	17
1.03933	16
1.04300	15
1.04667	16
1.05033	15
1.05400	14
1.05767	14
1.06133	12
1.06500	12
1.06867	13
1.07233	13
1.07600	12
1.07967	12
1.08333	12
1.08700	14
1.09067	17
1.09433	17
1.09800	16
1.10167	15
1.10533	15
1.10900	15
1.11267	15
1.11633	15
1.12000	15
1.12367	14
1.12733	13
1.13100	17
1.13467	18
1.13833	16
1.14200	15
1.14567	16
1.14933	17
1.15300	16
1.15667	14
1.16033	15
1.16400	17
1.16767	19
1.17133	21
1.17500	23
1.17867	23
1.18233	21
1.18600	18
1.18967	14
1.19333	14
1.19700	13
1.20067	14
1.20433	17
1.20800	20
1.21167	21
1.21533	24
1.21900	26
1.22267	25
1.22633	26
1.23000	23
1.23367	22
1.23733	22
1.24100	22
1.24467	22
1.24833	20
1.25200	21
1.25567	22
1.25933	23
1.26300	23
1.26667	24
1.27033	22
1.27400	20
1.27767	17
1.28133	14
1.28500	13
1.28867	16
1.29233	21
1.29600	22
1.29967	22
1.30333	23
1.30700	23
1.31067	25
1.31433	26
1.31800	26
1.32167	25
1.32533	22
1.32900	21
1.33267	21
1.33633	22
1.34000	22
1.34367	20
1.34733	23
1.35100	25
1.35467	26
1.35833	27
1.36200	24
1.36567	23
1.36933	25
1.37300	25
1.37667	24
1.38033	24
1.38400	23
1.38767	22
1.39133	23
1.39500	23
1.39867	24
1.40233	25
1.40600	27
1.40967	27
1.41333	28
1.41700	27
1.42067	27
1.42433	29
1.42800	29
1.43167	28
1.43533	26
1.43900	23
1.44267	21
1.44633	20
1.45000	20
1.45367	21
1.45733	21
1.46100	22
1.46467	22
1.46833	24
1.47200	28
1.47567	29
1.47933	30
1.48300	30
1.48667	31
1.49033	28
1.49400	27
1.49767	25
1.50133	24
1.50500	24
1.50867	23
1.51233	23
1.51600	24
1.51967	26
1.52333	27
1.52700	30
1.53067	31
1.53433	33
1.53800	34
1.54167	32
1.54533	30
1.54900	30
1.55267	28
1.55633	26
1.56000	27
1.56367	31
1.56733	32
1.57100	30
1.57467	29
1.57833	29
1.58200	29
1.58567	29
1.58933	30
1.59300	29
1.59667	29
1.60033	28
1.60400	30
1.60767	32
1.61133	31
1.61500	30
1.61867	31
1.62233	30
1.62600	29
1.62967	31
1.63333	36
1.63700	36
1.64067	35
1.64433	34
1.64800	34
1.65167	33
1.65533	31
1.65900	32
1.66267	33
1.66633	34
1.67000	36
1.67367	36
1.67733	36
1.68100	38
1.68467	39
1.68833	38
1.69200	38
1.69567	38
1.69933	38
1.70300	39
1.70667	40
1.71033	42
1.71400	41
1.71767	39
1.72133	39
1.72500	40
1.72867	41
1.73233	42
1.73600	42
1.73967	41
1.74333	40
1.74700	40
1.75067	42
1.75433	43
1.75800	45
1.76167	46
1.76533	47
1.76900	49
1.77267	49
1.77633	46
1.78000	45
1.78367	44
1.78733	45
1.79100	45
1.79467	47
1.79833	48
1.80200	50
1.80567	52
1.80933	54
1.81300	55
1.81667	56
1.82033	56
1.82400	58
1.82767	57
1.83133	57
1.83500	59
1.83867	60
1.84233	62
1.84600	63
1.84967	64
1.85333	65
1.85700	63
1.86067	60
1.86433	58
1.86800	59
1.87167	63
1.87533	65
1.87900	65
1.88267	63
1.88633	61
1.89000	61
1.89367	62
1.89733	65
1.90100	65
1.90467	65
1.90833	67
1.91200	69
1.91567	71
1.91933	72
1.92300	73
1.92667	73
1.93033	73
1.93400	74
1.93767	74
1.94133	74
1.94500	75
1.94867	75
1.95233	73
1.95600	73
1.95967	71
1.96333	71
1.96700	71
1.97067	72
1.97433	73
1.97800	76
1.98167	80
1.98533	84
1.98900	86
1.99267	86
1.99633	85
2.00000	85
2.00367	85
2.00733	84
2.01100	83
2.01467	82
2.01833	85
2.02200	88
2.02567	90
2.02933	88
2.03300	87
2.03667	88
2.04033	90
2.04400	92
2.04767	93
2.05133	94
2.05500	98
2.05867	101
2.06233	102
2.06600	103
2.06967	105
2.07333	105
2.07700	105
2.08067	105
2.08433	104
2.08800	103
2.09167	103
2.09533	105
2.09900	107
2.10267	107
2.10633	108
2.11000	109
2.11367	110
2.11733	113
2.12100	115
2.12467	117
2.12833	118
2.13200	116
2.13567	114
2.13933	113
2.14300	116
2.14667	117
2.15033	120
2.15400	123
2.15767	126
2.16133	129
2.16500	131
2.16867	133
2.17233	134
2.17600	134
2.17967	134
2.18333	135
2.18700	135
2.19067	137
2.19433	140
2.19800	143
2.20167	146
2.20533	146
2.20900	146
2.21267	148
2.21633	151
2.22000	153
2.22367	155
2.22733	155
2.23100	156
2.23467	157
2.23833	158
2.24200	160
2.24567	163
2.24933	165
2.25300	165
2.25667	164
2.26033	163
2.26400	163
2.26767	164
2.27133	166
2.27500	167
2.27867	170
2.28233	173
2.28600	176
2.28967	178
2.29333	180
2.29700	182
2.30067	184
2.30433	184
2.30800	184
2.31167	186
2.31533	187
2.31900	187
2.32267	190
2.32633	191
2.33000	192
2.33367	194
2.33733	196
2.34100	198
2.34467	202
2.34833	206
2.35200	209
2.35567	209
2.35933	209
2.36300	208
2.36667	208
2.37033	210
2.37400	211
2.37767	212
2.38133	214
2.38500	217
2.38867	219
2.39233	219
2.39600	222
2.39967	228
2.40333	234
2.40700	238
2.41067	241
2.41433	245
2.41800	250
2.42167	251
2.42533	251
2.42900	252
2.43267	255
2.43633	258
2.44000	262
2.44367	302
2.44733	409
2.45100	532
2.45467	633
2.45833	692
2.46200	691
2.46567	648
2.46933	598
2.47300	560
2.47667	537
2.48033	521
2.48400	502
2.48767	473
2.49133	436
2.49500	401
2.49867	371
2.50233	346
2.50600	327
2.50967	314
2.51333	307
2.51700	307
2.52067	312
2.52433	323
2.52800	337
2.53167	351
2.53533	362
2.53900	366
2.54267	359
2.54633	345
2.55000	328
2.55367	308
2.55733	287
2.56100	268
2.56467	252
2.56833	240
2.57200	232
2.57567	226
2.57933	222
2.58300	219
2.58667	215
2.59033	212
2.59400	210
2.59767	204
2.60133	195
2.60500	182
2.60867	168
2.61233	153
2.61600	137
2.61967	123
2.62333	110
2.62700	98
2.63067	88
2.63433	83
2.63800	86
2.64167	91
2.64533	99
2.64900	107
2.65267	119
2.65633	129
2.66000	139
2.66367	148
2.66733	153
2.67100	154
2.67467	156
2.67833	155
2.68200	152
2.68567	148
2.68933	146
2.69300	142
2.69667	136
2.70033	131
2.70400	128
2.70767	127
2.71133	126
2.71500	123
2.71867	123
2.72233	124
2.72600	124
2.72967	123
2.73333	122
2.73700	121
2.74067	121
2.74433	122
2.74800	124
2.75167	124
2.75533	126
2.75900	126
2.76267	126
2.76633	128
2.77000	131
2.77367	132
2.77733	132
2.78100	131
2.78467	131
2.78833	131
2.79200	132
2.79567	132
2.79933	131
2.80300	134
2.80667	135
2.81033	135
2.81400	139
2.81767	150
2.82133	172
2.82500	218
2.82867	305
2.83233	452
2.83600	686
2.83967	1024
2.84333	1468
2.84700	2004
2.85067	2602
2.85433	3217
2.85800	3801
2.86167	4307
2.86533	4698
2.86900	4945
2.87267	5044
2.87633	5005
2.88000	4845
2.88367	4596
2.88733	4284
2.89100	3938
2.89467	3581
2.89833	3230
2.90200	2893
2.90567	2579
2.90933	2289
2.91300	2027
2.91667	1791
2.92033	1582
2.92400	1398
2.92767	1239
2.93133	1100
2.93500	977
2.93867	871
2.94233	779
2.94600	698
2.94967	630
2.95333	570
2.95700	517
2.96067	471
2.96433	432
2.96800	399
2.97167	369
2.97533	342
2.97900	319
2.98267	300
2.98633	279
2.99000	235
2.99367	171
2.99733	115
3.00100	90
3.00467	96
3.00833	121
3.01200	159
3.01567	203
3.01933	246
3.02300	294
3.02667	341
3.03033	384
3.03400	424
3.03767	460
3.04133	493
3.04500	520
3.04867	541
3.05233	557
3.05600	571
3.05967	583
3.06333	592
3.06700	599
3.07067	604
3.07433	609
3.07800	613
3.08167	614
3.08533	613
3.08900	613
3.09267	612
3.09633	611
3.10000	611
3.10367	609
3.10733	606
3.11100	603
3.11467	604
3.11833	605
3.12200	605
3.12567	606
3.12933	607
3.13300	607
3.13667	608
3.14033	609
3.14400	611
3.14767	613
3.15133	616
3.15500	617
3.15867	620
3.16233	624
3.16600	628
3.16967	631
3.17333	631
3.17700	631
3.18067	632
3.18433	633
3.18800	634
3.19167	637
3.19533	639
3.19900	638
3.20267	640
3.20633	643
3.21000	646
3.21367	648
3.21733	651
3.22100	653
3.22467	656
3.22833	659
3.23200	662
3.23567	662
3.23933	663
3.24300	664
3.24667	665
3.25033	664
3.25400	662
3.25767	661
3.26133	661
3.26500	663
3.26867	665
3.27233	667
3.27600	665
3.27967	664
3.28333	664
3.28700	664
3.29067	664
3.29433	663
3.29800	662
3.30167	661
3.30533	659
3.30900	660
3.31267	661
3.31633	659
3.32000	656
3.32367	651
3.32733	651
3.33100	650
3.33467	646
3.33833	642
3.34200	641
3.34567	639
3.34933	638
3.35300	637
3.35667	637
3.36033	638
3.36400	638
3.36767	636
3.37133	633
3.37500	629
3.37867	627
3.38233	624
3.38600	623
3.38967	621
3.39333	620
3.39700	621
3.40067	619
3.40433	615
3.40800	610
3.41167	608
3.41533	607
3.41900	608
3.42267	608
3.42633	607
3.43000	607
3.43367	606
3.43733	607
3.44100	604
3.44467	600
3.44833	598
3.45200	598
3.45567	597
3.45933	594
3.46300	590
3.46667	589
3.47033	589
3.47400	586
3.47767	586
3.48133	586
3.48500	583
3.48867	580
3.49233	578
3.49600	577
3.49967	575
3.50333	573
3.50700	570
3.51067	569
3.51433	568
3.51800	567
3.52167	565
3.52533	561
3.52900	557
3.53267	554
3.53633	555
3.54000	555
3.54367	555
3.54733	553
3.55100	551
3.55467	551
3.55833	552
3.56200	552
3.56567	549
3.56933	547
3.57300	544
3.57667	543
3.58033	544
3.58400	544
3.58767	544
3.59133	544
3.59500	545
3.59867	544
3.60233	539
3.60600	537
3.60967	537
3.61333	536
3.61700	535
3.62067	534
3.62433	534
3.62800	535
3.63167	534
3.63533	534
3.63900	533
3.64267	532
3.64633	535
3.65000	539
3.65367	539
3.65733	538
3.66100	539
3.66467	538
3.66833	539
3.67200	540
3.67567	539
3.67933	539
3.68300	537
3.68667	536
3.69033	535
3.69400	535
3.69767	535
3.70133	533
3.70500	531
3.70867	529
3.71233	529
3.71600	532
3.71967	534
3.72333	534
3.72700	532
3.73067	530
3.73433	526
3.73800	523
3.74167	522
3.74533	521
3.74900	520
3.75267	524
3.75633	527
3.76000	526
3.76367	524
3.76733	522
3.77100	520
3.77467	520
3.77833	521
3.78200	522
3.78567	521
3.78933	521
3.79300	520
3.79667	520
3.80033	521
3.80400	523
3.80767	523
3.81133	523
3.81500	521
3.81867	520
3.82233	519
3.82600	519
3.82967	518
3.83333	518
3.83700	517
3.84067	515
3.84433	515
3.84800	513
3.85167	511
3.85533	510
3.85900	508
3.86267	505
3.86633	503
3.87000	502
3.87367	502
3.87733	502
3.88100	501
3.88467	501
3.88833	500
3.89200	498
3.89567	496
3.89933	495
3.90300	494
3.90667	492
3.91033	489
3.91400	489
3.91767	488
3.92133	488
3.92500	486
3.92867	486
3.93233	485
3.93600	484
3.93967	483
3.94333	480
3.94700	480
3.95067	481
3.95433	482
3.95800	482
3.96167	480
3.96533	477
3.96900	473
3.97267	473
3.97633	473
3.98000	474
3.98367	474
3.98733	472
3.99100	468
3.99467	463
3.99833	459

[Status Trace (Column Oven Temperature)]
Interval(msec)	1000
# of Points	240
Start Time(min)	0.006
End Time(min)	3.989
Intensity Units	
Intensity Multiplier	1
R.Time (min)	Intensity
0.00587	35.07
0.02253	35.06
0.03920	35.05
0.05587	35.04
0.07253	35.03
0.08920	35.02
0.10587	35.01
0.12253	35.02
0.13920	35.02
0.15587	35.03
0.17253	35.02
0.18920	35.01
0.20587	35.00
0.22253	34.99
0.23920	34.99
0.25587	34.98
0.27253	34.98
0.28920	34.99
0.30587	34.99
0.32253	35.00
0.33920	35.01
0.35587	35.02
0.37253	35.02
0.38920	35.02
0.40587	35.02
0.42253	35.02
0.43920	35.01
0.45587	35.02
0.47253	35.02
0.48920	35.01
0.50587	35.00
0.52253	35.00
0.53920	35.01
0.55587	35.01
0.57253	35.01
0.58920	35.01
0.60587	35.00
0.62253	35.00
0.63920	34.99
0.65587	34.99
0.67253	34.99
0.68920	34.99
0.70587	35.00
0.72253	35.00
0.73920	34.99
0.75587	34.98
0.77253	34.98
0.78920	35.00
0.80587	35.02
0.82253	35.01
0.83920	35.01
0.85587	35.00
0.87253	34.98
0.88920	34.99
0.90587	34.99
0.92253	35.01
0.93920	35.00
0.95587	35.00
0.97253	35.01
0.98920	35.01
1.00587	35.00
1.02253	35.00
1.03920	35.01
1.05587	35.01
1.07253	35.01
1.08920	35.02
1.10587	35.00
1.12253	34.99
1.13920	34.99
1.15587	34.99
1.17253	34.99
1.18920	34.98
1.20587	34.98
1.22253	35.00
1.23920	34.99
1.25587	34.98
1.27253	34.99
1.28920	34.99
1.30587	34.99
1.32253	35.00
1.33920	35.00
1.35587	35.00
1.37253	34.99
1.38920	35.00
1.40587	35.00
1.42253	34.99
1.43920	34.99
1.45587	34.99
1.47253	35.01
1.48920	35.02
1.50587	35.02
1.52253	35.01
1.53920	35.01
1.55587	35.02
1.57253	35.02
1.58920	35.03
1.60587	35.07
1.62253	35.18
1.63920	35.36
1.65587	35.59
1.67253	35.91
1.68920	36.27
1.70587	36.62
1.72253	36.97
1.73920	37.30
1.75587	37.63
1.77253	37.97
1.78920	38.30
1.80587	38.64
1.82253	38.95
1.83920	39.29
1.85587	39.61
1.87253	39.95
1.88920	40.26
1.90587	40.62
1.92253	40.95
1.93920	41.27
1.95587	41.60
1.97253	41.93
1.98920	42.26
2.00587	42.57
2.02253	42.88
2.03920	43.21
2.05587	43.51
2.07253	43.84
2.08920	44.16
2.10587	44.49
2.12253	44.83
2.13920	45.15
2.15587	45.47
2.17253	45.79
2.18920	46.11
2.20587	46.46
2.22253	46.79
2.23920	47.10
2.25587	47.45
2.27253	47.78
2.28920	48.15
2.30587	48.47
2.32253	48.81
2.33920	49.13
2.35587	49.40
2.37253	49.60
2.38920	49.68
2.40587	49.66
2.42253	49.67
2.43920	49.67
2.45587	49.68
2.47253	49.70
2.48920	49.71
2.50587	49.72
2.52253	49.73
2.53920	49.76
2.55587	49.77
2.57253	49.79
2.58920	49.80
2.60587	49.81
2.62253	49.81
2.63920	49.82
2.65587	49.82
2.67253	49.84
2.68920	49.85
2.70587	49.85
2.72253	49.87
2.73920	49.86
2.75587	49.85
2.77253	49.85
2.78920	49.87
2.80587	49.87
2.82253	49.88
2.83920	49.88
2.85587	49.88
2.87253	49.89
2.88920	49.89
2.90587	49.91
2.92253	49.92
2.93920	49.93
2.95587	49.93
2.97253	49.94
2.98920	49.94
3.00587	49.94
3.02253	49.96
3.03920	49.98
3.05587	49.99
3.07253	50.00
3.08920	50.01
3.10587	50.01
3.12253	50.03
3.13920	50.05
3.15587	50.05
3.17253	50.06
3.18920	50.07
3.20587	50.07
3.22253	50.06
3.23920	50.08
3.25587	50.09
3.27253	50.11
3.28920	50.12
3.30587	50.12
3.32253	50.11
3.33920	50.09
3.35587	50.08
3.37253	50.06
3.38920	50.04
3.40587	50.03
3.42253	50.03
3.43920	50.02
3.45587	50.01
3.47253	50.01
3.48920	50.02
3.50587	50.02
3.52253	50.02
3.53920	50.02
3.55587	50.03
3.57253	50.01
3.58920	50.01
3.60587	50.01
3.62253	50.00
3.63920	50.01
3.65587	50.03
3.67253	50.04
3.68920	50.04
3.70587	50.04
3.72253	50.05
3.73920	50.05
3.75587	50.05
3.77253	50.06
3.78920	50.07
3.80587	50.07
3.82253	50.07
3.83920	50.07
3.85587	50.07
3.87253	50.07
3.88920	50.06
3.90587	50.05
3.92253	50.04
3.93920	50.05
3.95587	50.05
3.97253	50.04
3.98920	50.06

[Status Trace (Injection Unit Temperature)]
Interval(msec)	1000
# of Points	240
Start Time(min)	0.006
End Time(min)	3.989
Intensity Units	
Intensity Multiplier	1
R.Time (min)	Intensity
0.00587	99.98
0.02253	99.98
0.03920	99.98
0.05587	99.99
0.07253	99.98
0.08920	99.97
0.10587	99.98
0.12253	99.98
0.13920	99.98
0.15587	99.98
0.17253	99.98
0.18920	99.98
0.20587	99.98
0.22253	99.98
0.23920	99.98
0.25587	99.99
0.27253	99.98
0.28920	99.99
0.30587	99.99
0.32253	99.99
0.33920	99.99
0.35587	99.99
0.37253	99.98
0.38920	99.99
0.40587	99.98
0.42253	99.98
0.43920	99.98
0.45587	99.98
0.47253	99.99
0.48920	99.99
0.50587	99.99
0.52253	99.99
0.53920	99.99
0.55587	99.99
0.57253	99.98
0.58920	99.98
0.60587	99.98
0.62253	99.99
0.63920	99.99
0.65587	99.99
0.67253	99.99
0.68920	99.99
0.70587	99.99
0.72253	99.99
0.73920	99.99
0.75587	99.98
0.77253	99.98
0.78920	99.99
0.80587	99.99
0.82253	99.99
0.83920	99.98
0.85587	99.98
0.87253	99.98
0.88920	99.99
0.90587	99.98
0.92253	99.98
0.93920	99.99
0.95587	99.98
0.97253	99.98
0.98920	99.98
1.00587	99.98
1.02253	99.99
1.03920	99.98
1.05587	99.98
1.07253	99.99
1.08920	99.98
1.10587	99.99
1.12253	99.99
1.13920	99.98
1.15587	99.98
1.17253	99.98
1.18920	99.98
1.20587	99.98
1.22253	99.98
1.23920	99.98
1.25587	99.99
1.27253	99.99
1.28920	99.99
1.30587	99.99
1.32253	99.98
1.33920	99.99
1.35587	99.98
1.37253	99.99
1.38920	99.99
1.40587	99.99
1.42253	99.99
1.43920	99.98
1.45587	99.98
1.47253	99.99
1.48920	99.98
1.50587	99.98
1.52253	99.98
1.53920	99.98
1.55587	99.99
1.57253	99.98
1.58920	99.98
1.60587	99.98
1.62253	99.99
1.63920	99.99
1.65587	99.98
1.67253	99.99
1.68920	99.98
1.70587	99.98
1.72253	99.98
1.73920	99.98
1.75587	99.98
1.77253	99.98
1.78920	99.98
1.80587	99.98
1.82253	99.98
1.83920	99.98
1.85587	99.98
1.87253	99.98
1.88920	99.98
1.90587	99.98
1.92253	99.98
1.93920	99.98
1.95587	99.98
1.97253	99.98
1.98920	99.98
2.00587	99.98
2.02253	99.97
2.03920	99.97
2.05587	99.97
2.07253	99.97
2.08920	99.97
2.10587	99.97
2.12253	99.97
2.13920	99.97
2.15587	99.97
2.17253	99.97
2.18920	99.97
2.20587	99.97
2.22253	99.97
2.23920	99.97
2.25587	99.97
2.27253	99.97
2.28920	99.96
2.30587	99.96
2.32253	99.97
2.33920	99.96
2.35587	99.96
2.37253	99.97
2.38920	99.97
2.40587	99.97
2.42253	99.97
2.43920	99.97
2.45587	99.97
2.47253	99.97
2.48920	99.97
2.50587	99.96
2.52253	99.97
2.53920	99.97
2.55587	99.97
2.57253	99.97
2.58920	99.97
2.60587	99.97
2.62253	99.98
2.63920	99.98
2.65587	99.98
2.67253	99.98
2.68920	99.98
2.70587	99.98
2.72253	99.99
2.73920	99.99
2.75587	99.99
2.77253	99.99
2.78920	99.99
2.80587	100.00
2.82253	99.99
2.83920	100.00
2.85587	100.00
2.87253	100.00
2.88920	100.00
2.90587	100.00
2.92253	100.00
2.93920	100.00
2.95587	100.00
2.97253	100.01
2.98920	100.01
3.00587	100.00
3.02253	100.01
3.03920	100.02
3.05587	100.01
3.07253	100.02
3.08920	100.01
3.10587	100.02
3.12253	100.02
3.13920	100.02
3.15587	100.02
3.17253	100.01
3.18920	100.02
3.20587	100.02
3.22253	100.02
3.23920	100.03
3.25587	100.02
3.27253	100.02
3.28920	100.03
3.30587	100.03
3.32253	100.03
3.33920	100.03
3.35587	100.03
3.37253	100.03
3.38920	100.02
3.40587	100.03
3.42253	100.03
3.43920	100.03
3.45587	100.03
3.47253	100.03
3.48920	100.03
3.50587	100.03
3.52253	100.03
3.53920	100.03
3.55587	100.03
3.57253	100.03
3.58920	100.03
3.60587	100.03
3.62253	100.03
3.63920	100.03
3.65587	100.04
3.67253	100.04
3.68920	100.03
3.70587	100.04
3.72253	100.04
3.73920	100.04
3.75587	100.04
3.77253	100.04
3.78920	100.04
3.80587	100.04
3.82253	100.04
3.83920	100.04
3.85587	100.04
3.87253	100.05
3.88920	100.04
3.90587	100.04
3.92253	100.05
3.93920	100.04
3.95587	100.05
3.97253	100.05
3.98920	100.05

[Status Trace (Carrier Gas Pressure)]
Interval(msec)	1000
# of Points	240
Start Time(min)	0.006
End Time(min)	3.989
Intensity Units	
Intensity Multiplier	1
R.Time (min)	Intensity
0.00587	58.00
0.02253	55.74
0.03920	56.83
0.05587	59.03
0.07253	59.67
0.08920	58.13
0.10587	57.97
0.12253	58.01
0.13920	58.01
0.15587	58.01
0.17253	58.00
0.18920	58.00
0.20587	58.00
0.22253	58.00
0.23920	58.00
0.25587	58.00
0.27253	58.00
0.28920	58.00
0.30587	58.00
0.32253	58.00
0.33920	58.00
0.35587	58.00
0.37253	58.00
0.38920	58.00
0.40587	58.00
0.42253	58.00
0.43920	58.00
0.45587	58.00
0.47253	58.00
0.48920	58.00
0.50587	58.00
0.52253	58.00
0.53920	58.00
0.55587	58.00
0.57253	58.00
0.58920	58.00
0.60587	58.00
0.62253	58.00
0.63920	58.00
0.65587	58.00
0.67253	58.00
0.68920	58.00
0.70587	58.00
0.72253	58.00
0.73920	58.00
0.75587	58.00
0.77253	58.00
0.78920	58.00
0.80587	58.00
0.82253	58.00
0.83920	58.00
0.85587	58.00
0.87253	58.00
0.88920	58.00
0.90587	58.00
0.92253	58.00
0.93920	58.00
0.95587	58.00
0.97253	58.00
0.98920	58.00
1.00587	58.00
1.02253	58.00
1.03920	58.00
1.05587	58.00
1.07253	58.00
1.08920	58.00
1.10587	58.00
1.12253	58.00
1.13920	58.00
1.15587	58.00
1.17253	58.00
1.18920	58.00
1.20587	58.00
1.22253	58.00
1.23920	58.00
1.25587	58.00
1.27253	58.00
1.28920	58.00
1.30587	58.00
1.32253	58.00
1.33920	58.00
1.35587	58.00
1.37253	58.00
1.38920	58.00
1.40587	58.00
1.42253	58.00
1.43920	58.00
1.45587	58.00
1.47253	58.00
1.48920	58.00
1.50587	58.00
1.52253	58.00
1.53920	58.00
1.55587	58.00
1.57253	58.00
1.58920	58.00
1.60587	58.00
1.62253	58.00
1.63920	58.01
1.65587	58.00
1.67253	58.01
1.68920	58.00
1.70587	58.00
1.72253	58.00
1.73920	58.00
1.75587	58.00
1.77253	58.00
1.78920	58.00
1.80587	58.00
1.82253	58.00
1.83920	58.00
1.85587	58.00
1.87253	58.00
1.88920	58.00
1.90587	58.00
1.92253	58.00
1.93920	58.00
1.95587	58.00
1.97253	58.00
1.98920	58.00
2.00587	58.00
2.02253	58.00
2.03920	58.00
2.05587	58.00
2.07253	58.00
2.08920	58.00
2.10587	58.00
2.12253	58.00
2.13920	58.00
2.15587	58.00
2.17253	58.00
2.18920	58.00
2.20587	58.00
2.22253	58.00
2.23920	58.00
2.25587	58.00
2.27253	58.00
2.28920	58.00
2.30587	58.00
2.32253	58.00
2.33920	58.00
2.35587	58.00
2.37253	58.00
2.38920	57.99
2.40587	57.99
2.42253	58.00
2.43920	58.00
2.45587	58.00
2.47253	58.00
2.48920	58.00
2.50587	57.99
2.52253	57.99
2.53920	58.00
2.55587	58.00
2.57253	58.00
2.58920	58.00
2.60587	58.00
2.62253	58.00
2.63920	58.00
2.65587	58.00
2.67253	58.00
2.68920	58.00
2.70587	58.00
2.72253	58.00
2.73920	58.00
2.75587	58.00
2.77253	58.00
2.78920	58.00
2.80587	58.00
2.82253	58.00
2.83920	58.00
2.85587	58.00
2.87253	58.00
2.88920	58.00
2.90587	58.00
2.92253	58.00
2.93920	58.00
2.95587	58.00
2.97253	58.00
2.98920	58.00
3.00587	58.00
3.02253	58.00
3.03920	58.00
3.05587	58.00
3.07253	58.00
3.08920	58.00
3.10587	58.00
3.12253	58.00
3.13920	58.00
3.15587	58.00
3.17253	58.00
3.18920	58.00
3.20587	58.00
3.22253	58.00
3.23920	58.00
3.25587	58.00
3.27253	58.00
3.28920	58.00
3.30587	58.00
3.32253	58.00
3.33920	58.00
3.35587	58.00
3.37253	58.00
3.38920	58.00
3.40587	58.00
3.42253	58.00
3.43920	58.00
3.45587	58.00
3.47253	58.00
3.48920	58.00
3.50587	58.00
3.52253	58.00
3.53920	58.00
3.55587	58.00
3.57253	58.00
3.58920	58.00
3.60587	58.00
3.62253	58.00
3.63920	58.00
3.65587	58.00
3.67253	58.00
3.68920	58.00
3.70587	58.00
3.72253	58.00
3.73920	58.00
3.75587	58.00
3.77253	58.00
3.78920	58.00
3.80587	58.00
3.82253	58.00
3.83920	58.00
3.85587	58.00
3.87253	58.00
3.88920	58.00
3.90587	58.00
3.92253	58.00
3.93920	58.00
3.95587	58.00
3.97253	58.00
3.98920	58.00

[Status Trace (Carrier Gas Flow)]
Interval(msec)	1000
# of Points	240
Start Time(min)	0.006
End Time(min)	3.989
Intensity Units	
Intensity Multiplier	1
R.Time (min)	Intensity
0.00587	34.52
0.02253	34.54
0.03920	34.54
0.05587	34.55
0.07253	34.50
0.08920	34.52
0.10587	34.52
0.12253	34.51
0.13920	34.52
0.15587	34.52
0.17253	34.52
0.18920	34.52
0.20587	34.52
0.22253	34.52
0.23920	34.52
0.25587	34.52
0.27253	34.52
0.28920	34.52
0.30587	34.52
0.32253	34.52
0.33920	34.52
0.35587	34.52
0.37253	34.52
0.38920	34.52
0.40587	34.52
0.42253	34.52
0.43920	34.52
0.45587	34.52
0.47253	34.52
0.48920	34.52
0.50587	34.53
0.52253	34.52
0.53920	34.52
0.55587	34.52
0.57253	34.52
0.58920	34.52
0.60587	34.52
0.62253	34.52
0.63920	34.52
0.65587	34.53
0.67253	34.52
0.68920	34.52
0.70587	34.52
0.72253	34.51
0.73920	34.52
0.75587	34.52
0.77253	34.52
0.78920	34.52
0.80587	34.52
0.82253	34.51
0.83920	34.52
0.85587	34.52
0.87253	34.52
0.88920	34.51
0.90587	34.51
0.92253	34.52
0.93920	34.52
0.95587	34.52
0.97253	34.52
0.98920	34.52
1.00587	34.52
1.02253	34.52
1.03920	34.52
1.05587	34.51
1.07253	34.52
1.08920	34.52
1.10587	34.52
1.12253	34.52
1.13920	34.52
1.15587	34.52
1.17253	34.52
1.18920	34.52
1.20587	34.53
1.22253	34.52
1.23920	34.52
1.25587	34.52
1.27253	34.52
1.28920	34.52
1.30587	34.52
1.32253	34.52
1.33920	34.52
1.35587	34.52
1.37253	34.52
1.38920	34.52
1.40587	34.52
1.42253	34.52
1.43920	34.52
1.45587	34.52
1.47253	34.52
1.48920	34.52
1.50587	34.52
1.52253	34.52
1.53920	34.52
1.55587	34.52
1.57253	34.52
1.58920	34.52
1.60587	34.52
1.62253	34.52
1.63920	34.52
1.65587	34.52
1.67253	34.52
1.68920	34.52
1.70587	34.52
1.72253	34.53
1.73920	34.52
1.75587	34.52
1.77253	34.52
1.78920	34.52
1.80587	34.52
1.82253	34.52
1.83920	34.51
1.85587	34.51
1.87253	34.51
1.88920	34.52
1.90587	34.52
1.92253	34.52
1.93920	34.51
1.95587	34.52
1.97253	34.52
1.98920	34.51
2.00587	34.52
2.02253	34.52
2.03920	34.52
2.05587	34.52
2.07253	34.51
2.08920	34.52
2.10587	34.52
2.12253	34.52
2.13920	34.52
2.15587	34.52
2.17253	34.53
2.18920	34.52
2.20587	34.52
2.22253	34.52
2.23920	34.52
2.25587	34.52
2.27253	34.52
2.28920	34.51
2.30587	34.51
2.32253	34.52
2.33920	34.51
2.35587	34.52
2.37253	34.52
2.38920	34.52
2.40587	34.52
2.42253	34.52
2.43920	34.51
2.45587	34.52
2.47253	34.52
2.48920	34.53
2.50587	34.47
2.52253	34.52
2.53920	34.52
2.55587	34.53
2.57253	34.52
2.58920	34.51
2.60587	34.52
2.62253	34.52
2.63920	34.52
2.65587	34.52
2.67253	34.52
2.68920	34.52
2.70587	34.52
2.72253	34.52
2.73920	34.52
2.75587	34.51
2.77253	34.51
2.78920	34.52
2.80587	34.51
2.82253	34.52
2.83920	34.52
2.85587	34.52
2.87253	34.52
2.88920	34.52
2.90587	34.52
2.92253	34.52
2.93920	34.52
2.95587	34.52
2.97253	34.52
2.98920	34.52
3.00587	34.52
3.02253	34.52
3.03920	34.52
3.05587	34.52
3.07253	34.52
3.08920	34.52
3.10587	34.52
3.12253	34.52
3.13920	34.52
3.15587	34.51
3.17253	34.51
3.18920	34.52
3.20587	34.52
3.22253	34.51
3.23920	34.51
3.25587	34.52
3.27253	34.53
3.28920	34.51
3.30587	34.51
3.32253	34.52
3.33920	34.52
3.35587	34.52
3.37253	34.53
3.38920	34.51
3.40587	34.52
3.42253	34.52
3.43920	34.51
3.45587	34.51
3.47253	34.52
3.48920	34.51
3.50587	34.52
3.52253	34.52
3.53920	34.52
3.55587	34.51
3.57253	34.52
3.58920	34.52
3.60587	34.51
3.62253	34.52
3.63920	34.52
3.65587	34.52
3.67253	34.51
3.68920	34.52
3.70587	34.52
3.72253	34.51
3.73920	34.51
3.75587	34.52
3.77253	34.52
3.78920	34.52
3.80587	34.52
3.82253	34.52
3.83920	34.52
3.85587	34.51
3.87253	34.51
3.88920	34.51
3.90587	34.52
3.92253	34.52
3.93920	34.52
3.95587	34.52
3.97253	34.52
3.98920	34.52

[Status Trace (Column Flow)]
Interval(msec)	1000
# of Points	240
Start Time(min)	0.006
End Time(min)	3.989
Intensity Units	
Intensity Multiplier	1
R.Time (min)	Intensity
0.00587	5.56
0.02253	5.30
0.03920	5.43
0.05587	5.69
0.07253	5.76
0.08920	5.58
0.10587	5.56
0.12253	5.57
0.13920	5.57
0.15587	5.56
0.17253	5.56
0.18920	5.56
0.20587	5.57
0.22253	5.57
0.23920	5.57
0.25587	5.57
0.27253	5.57
0.28920	5.57
0.30587	5.57
0.32253	5.57
0.33920	5.56
0.35587	5.56
0.37253	5.56
0.38920	5.56
0.40587	5.56
0.42253	5.56
0.43920	5.56
0.45587	5.56
0.47253	5.56
0.48920	5.56
0.50587	5.56
0.52253	5.56
0.53920	5.56
0.55587	5.56
0.57253	5.56
0.58920	5.56
0.60587	5.56
0.62253	5.56
0.63920	5.56
0.65587	5.57
0.67253	5.57
0.68920	5.56
0.70587	5.56
0.72253	5.56
0.73920	5.56
0.75587	5.57
0.77253	5.57
0.78920	5.56
0.80587	5.56
0.82253	5.56
0.83920	5.56
0.85587	5.56
0.87253	5.57
0.88920	5.56
0.90587	5.56
0.92253	5.56
0.93920	5.56
0.95587	5.56
0.97253	5.56
0.98920	5.56
1.00587	5.56
1.02253	5.56
1.03920	5.56
1.05587	5.56
1.07253	5.56
1.08920	5.56
1.10587	5.56
1.12253	5.56
1.13920	5.56
1.15587	5.56
1.17253	5.57
1.18920	5.57
1.20587	5.57
1.22253	5.56
1.23920	5.57
1.25587	5.57
1.27253	5.57
1.28920	5.56
1.30587	5.56
1.32253	5.56
1.33920	5.56
1.35587	5.56
1.37253	5.56
1.38920	5.56
1.40587	5.56
1.42253	5.56
1.43920	5.57
1.45587	5.56
1.47253	5.56
1.48920	5.56
1.50587	5.56
1.52253	5.56
1.53920	5.56
1.55587	5.56
1.57253	5.56
1.58920	5.56
1.60587	5.56
1.62253	5.56
1.63920	5.55
1.65587	5.55
1.67253	5.54
1.68920	5.53
1.70587	5.51
1.72253	5.50
1.73920	5.49
1.75587	5.48
1.77253	5.47
1.78920	5.46
1.80587	5.45
1.82253	5.44
1.83920	5.43
1.85587	5.42
1.87253	5.41
1.88920	5.40
1.90587	5.39
1.92253	5.38
1.93920	5.37
1.95587	5.36
1.97253	5.35
1.98920	5.34
2.00587	5.33
2.02253	5.32
2.03920	5.31
2.05587	5.30
2.07253	5.30
2.08920	5.28
2.10587	5.28
2.12253	5.27
2.13920	5.26
2.15587	5.25
2.17253	5.24
2.18920	5.23
2.20587	5.22
2.22253	5.21
2.23920	5.20
2.25587	5.19
2.27253	5.18
2.28920	5.17
2.30587	5.16
2.32253	5.15
2.33920	5.14
2.35587	5.13
2.37253	5.13
2.38920	5.13
2.40587	5.13
2.42253	5.13
2.43920	5.13
2.45587	5.13
2.47253	5.13
2.48920	5.13
2.50587	5.13
2.52253	5.12
2.53920	5.12
2.55587	5.12
2.57253	5.12
2.58920	5.12
2.60587	5.12
2.62253	5.12
2.63920	5.12
2.65587	5.12
2.67253	5.12
2.68920	5.12
2.70587	5.12
2.72253	5.12
2.73920	5.12
2.75587	5.12
2.77253	5.12
2.78920	5.12
2.80587	5.12
2.82253	5.12
2.83920	5.12
2.85587	5.12
2.87253	5.12
2.88920	5.12
2.90587	5.12
2.92253	5.12
2.93920	5.12
2.95587	5.12
2.97253	5.12
2.98920	5.12
3.00587	5.12
3.02253	5.12
3.03920	5.12
3.05587	5.12
3.07253	5.12
3.08920	5.12
3.10587	5.12
3.12253	5.12
3.13920	5.12
3.15587	5.12
3.17253	5.12
3.18920	5.12
3.20587	5.12
3.22253	5.12
3.23920	5.12
3.25587	5.12
3.27253	5.12
3.28920	5.11
3.30587	5.11
3.32253	5.12
3.33920	5.12
3.35587	5.12
3.37253	5.12
3.38920	5.12
3.40587	5.12
3.42253	5.12
3.43920	5.12
3.45587	5.12
3.47253	5.12
3.48920	5.12
3.50587	5.12
3.52253	5.12
3.53920	5.12
3.55587	5.12
3.57253	5.12
3.58920	5.12
3.60587	5.12
3.62253	5.12
3.63920	5.12
3.65587	5.12
3.67253	5.12
3.68920	5.12
3.70587	5.12
3.72253	5.12
3.73920	5.12
3.75587	5.12
3.77253	5.12
3.78920	5.12
3.80587	5.12
3.82253	5.12
3.83920	5.12
3.85587	5.12
3.87253	5.12
3.88920	5.12
3.90587	5.12
3.92253	5.12
3.93920	5.12
3.95587	5.12
3.97253	5.12
3.98920	5.12

[Status Trace (Linear Velocity)]
Interval(msec)	1000
# of Points	240
Start Time(min)	0.006
End Time(min)	3.989
Intensity Units	
Intensity Multiplier	1
R.Time (min)	Intensity
0.00587	39.02
0.02253	37.54
0.03920	38.25
0.05587	39.70
0.07253	40.12
0.08920	39.11
0.10587	39.01
0.12253	39.03
0.13920	39.03
0.15587	39.03
0.17253	39.03
0.18920	39.03
0.20587	39.03
0.22253	39.03
0.23920	39.03
0.25587	39.03
0.27253	39.03
0.28920	39.03
0.30587	39.03
0.32253	39.03
0.33920	39.03
0.35587	39.02
0.37253	39.02
0.38920	39.03
0.40587	39.03
0.42253	39.02
0.43920	39.03
0.45587	39.03
0.47253	39.02
0.48920	39.03
0.50587	39.03
0.52253	39.03
0.53920	39.03
0.55587	39.03
0.57253	39.03
0.58920	39.03
0.60587	39.03
0.62253	39.03
0.63920	39.03
0.65587	39.03
0.67253	39.03
0.68920	39.03
0.70587	39.03
0.72253	39.03
0.73920	39.03
0.75587	39.03
0.77253	39.03
0.78920	39.03
0.80587	39.02
0.82253	39.03
0.83920	39.03
0.85587	39.03
0.87253	39.03
0.88920	39.03
0.90587	39.03
0.92253	39.03
0.93920	39.03
0.95587	39.03
0.97253	39.03
0.98920	39.03
1.00587	39.03
1.02253	39.03
1.03920	39.03
1.05587	39.03
1.07253	39.03
1.08920	39.03
1.10587	39.03
1.12253	39.03
1.13920	39.03
1.15587	39.03
1.17253	39.03
1.18920	39.03
1.20587	39.03
1.22253	39.03
1.23920	39.03
1.25587	39.03
1.27253	39.03
1.28920	39.03
1.30587	39.03
1.32253	39.03
1.33920	39.03
1.35587	39.03
1.37253	39.03
1.38920	39.03
1.40587	39.03
1.42253	39.03
1.43920	39.03
1.45587	39.03
1.47253	39.03
1.48920	39.02
1.50587	39.03
1.52253	39.02
1.53920	39.03
1.55587	39.02
1.57253	39.02
1.58920	39.02
1.60587	39.02
1.62253	39.01
1.63920	39.00
1.65587	38.97
1.67253	38.95
1.68920	38.91
1.70587	38.87
1.72253	38.84
1.73920	38.81
1.75587	38.78
1.77253	38.75
1.78920	38.71
1.80587	38.68
1.82253	38.65
1.83920	38.62
1.85587	38.59
1.87253	38.56
1.88920	38.53
1.90587	38.49
1.92253	38.47
1.93920	38.43
1.95587	38.40
1.97253	38.37
1.98920	38.34
2.00587	38.31
2.02253	38.29
2.03920	38.25
2.05587	38.23
2.07253	38.20
2.08920	38.17
2.10587	38.14
2.12253	38.11
2.13920	38.08
2.15587	38.05
2.17253	38.02
2.18920	37.99
2.20587	37.96
2.22253	37.93
2.23920	37.90
2.25587	37.87
2.27253	37.84
2.28920	37.81
2.30587	37.78
2.32253	37.75
2.33920	37.72
2.35587	37.69
2.37253	37.68
2.38920	37.67
2.40587	37.67
2.42253	37.67
2.43920	37.67
2.45587	37.67
2.47253	37.67
2.48920	37.67
2.50587	37.66
2.52253	37.66
2.53920	37.66
2.55587	37.66
2.57253	37.66
2.58920	37.66
2.60587	37.66
2.62253	37.66
2.63920	37.66
2.65587	37.66
2.67253	37.66
2.68920	37.66
2.70587	37.66
2.72253	37.65
2.73920	37.65
2.75587	37.65
2.77253	37.66
2.78920	37.65
2.80587	37.65
2.82253	37.65
2.83920	37.65
2.85587	37.65
2.87253	37.65
2.88920	37.65
2.90587	37.65
2.92253	37.65
2.93920	37.65
2.95587	37.65
2.97253	37.65
2.98920	37.65
3.00587	37.65
3.02253	37.65
3.03920	37.64
3.05587	37.64
3.07253	37.64
3.08920	37.64
3.10587	37.64
3.12253	37.64
3.13920	37.64
3.15587	37.64
3.17253	37.64
3.18920	37.64
3.20587	37.64
3.22253	37.64
3.23920	37.64
3.25587	37.63
3.27253	37.63
3.28920	37.63
3.30587	37.63
3.32253	37.63
3.33920	37.63
3.35587	37.64
3.37253	37.64
3.38920	37.64
3.40587	37.64
3.42253	37.64
3.43920	37.64
3.45587	37.64
3.47253	37.64
3.48920	37.64
3.50587	37.64
3.52253	37.64
3.53920	37.64
3.55587	37.64
3.57253	37.64
3.58920	37.64
3.60587	37.64
3.62253	37.64
3.63920	37.64
3.65587	37.64
3.67253	37.64
3.68920	37.64
3.70587	37.64
3.72253	37.64
3.73920	37.64
3.75587	37.64
3.77253	37.64
3.78920	37.64
3.80587	37.64
3.82253	37.64
3.83920	37.64
3.85587	37.64
3.87253	37.64
3.88920	37.64
3.90587	37.64
3.92253	37.64
3.93920	37.64
3.95587	37.64
3.97253	37.64
3.98920	37.64

