[Header]
Application Name	LabSolutions
Version	5.110
Data File Name	C:\Users\User\Desktop\GC Analyses\Jack\Nachusa Grasslands Sampling\T1 Timepoint July 12th\T1_07122022_003.gcd
Output Date	3/14/2023
Output Time	3:40:56 PM

[File Information]
Type	Data File
Generated	3/8/2023 1:30:55 PM
Generated by	System Administrator
Modified	3/8/2023 1:37:25 PM
Modified by	System Administrator

[Sample Information]
Operator Name	System Administrator
Acquired	3/8/2023 1:33:24 PM
Sample Type	0:Unknown
Level	0
Sample Name	003
Sample ID	003
ISTD Amount1	1
ISTD Amount2	1
ISTD Amount3	1
ISTD Amount4	1
ISTD Amount5	1
ISTD Amount6	1
ISTD Amount7	1
ISTD Amount8	1
ISTD Amount9	1
ISTD Amount10	1
ISTD Amount11	1
ISTD Amount12	1
ISTD Amount13	1
ISTD Amount14	1
ISTD Amount15	1
ISTD Amount16	1
ISTD Amount17	1
ISTD Amount18	1
ISTD Amount19	1
ISTD Amount20	1
ISTD Amount21	1
ISTD Amount22	1
ISTD Amount23	1
ISTD Amount24	1
ISTD Amount25	1
ISTD Amount26	1
ISTD Amount27	1
ISTD Amount28	1
ISTD Amount29	1
ISTD Amount30	1
ISTD Amount31	1
ISTD Amount32	1
Sample Amount	1
Dilution Factor	1
Vial#	2
Injection Volume	1
Injection Count	1
Bar Code	

[Original Files]
Data File	C:\Users\User\Desktop\GC Analyses\Jack\Nachusa Grasslands Sampling\T1 Timepoint July 12th\T1_07122022_003.gcd
Method File	C:\LabSolutions\Data\GHG_4min_2022\ghg3_togas_w_acet_4 min_new_int.gcm
Batch File	C:\LabSolutions\Data\AutoSamplerTesting\T1_07122022.gcb
Report Format File	c:\LabSolutions\System\DEFAULT.lsr

[File Description]


[Configuration]
Instrument Name	C0B7VH3-Instrument1
Instrument #	1
Line #	1
# of Detectors	3
Detector ID	DET#1	DET#2	DET#3
Detector Name	FID	PTCD	ECD
# of Channels	1	1	1

[Peak Table(Ch1)]
# of Peaks	4
Peak#	R.Time	I.Time	F.Time	Area	Height	A/H	Conc.	Mark	ID#	Name	k'	Plate #	Plate Ht.	Tailing	Resolution	Sep.Factor	Area Ratio	Height Ratio	Conc. %	Norm Conc.
1	1.465	1.439	1.531	3011	919	3.275	21.257	   	1	CO	0.000	4820	31.118	0.000	0.000	0.000	0	0	2.192	2.192
2	1.567	1.531	1.637	21246	10569	2.010	410.810	 V 	2	CH4	0.070	11215	13.375	1.272	1.430	0.000	0	0	42.358	42.358
3	1.996	1.949	2.561	2142784	1010268	2.121	537.781	   	3	CO2	0.363	17099	8.772	1.300	7.134	5.179	0	0	55.450	55.450
4	3.144	3.063	3.558	1556	97	16.055	0.000	   	5	Acetylene	1.147	2017	74.366	4.528	6.730	3.159	0	0	0.000	0.000

[Peak Table(Ch2)]
# of Peaks	0

[Peak Table(Ch3)]
# of Peaks	3
Peak#	R.Time	I.Time	F.Time	Area	Height	A/H	Conc.	Mark	ID#	Name	k'	Plate #	Plate Ht.	Tailing	Resolution	Sep.Factor	Area Ratio	Height Ratio	Conc. %	Norm Conc.
1	2.462	2.359	2.521	1470	394	3.734	0.000	   			0.000	5922	25.327	0.000	0.000	0.000	0	0	0.000	0.000
2	2.550	2.521	2.634	1219	260	4.691	0.000	 V 			0.036	2882	52.047	0.000	0.554	0.000	0	0	0.000	0.000
3	2.873	2.645	3.412	65470	16111	4.064	1.672	   	1	N2O	0.167	12458	12.041	1.647	2.203	4.667	0	0	100.000	100.000

[Compound Results(Ch1)]
# of IDs	6
ID#	Name	R.Time	Area	Height	Conc.	Curve	3rd	2nd	1st	Constant	Area Ratio	Height Ratio	Conc. %	Norm Conc.
1	CO	1.465	3011	919	21.257	Linear	0.000000e+00	0.000000e+00	1.416423e+002	0.000000e+00	0	0	2.192	2.192
2	CH4	1.567	21246	10569	410.810	Linear	0.000000e+00	0.000000e+00	5.171738e+001	0.000000e+00	0	0	42.358	42.358
3	CO2	1.996	2142784	1010268	537.781	Linear	0.000000e+00	0.000000e+00	3.984494e+003	0.000000e+00	0	0	55.450	55.450
4	Ethylene	0.000	0	0	0.000	Linear	0.000000e+00	0.000000e+00	0.000000e+00	0.000000e+00	0	0	0.000	0.000
5	Acetylene	3.144	1556	97	0.000	Linear	0.000000e+00	0.000000e+00	0.000000e+00	0.000000e+00	0	0	0.000	0.000
6	Ethane	0.000	0	0	0.000	Linear	0.000000e+00	0.000000e+00	0.000000e+00	0.000000e+00	0	0	0.000	0.000

[Compound Results(Ch2)]
# of IDs	5
ID#	Name	R.Time	Area	Height	Conc.	Curve	3rd	2nd	1st	Constant	Area Ratio	Height Ratio	Conc. %	Norm Conc.
1	Hydrogen	0.000	0	0	0.000	Linear	0.000000e+00	0.000000e+00	0.000000e+00	0.000000e+00	0	0	0.000	0.000
2	Oxygen	0.000	0	0	0.000	Linear	0.000000e+00	0.000000e+00	0.000000e+00	0.000000e+00	0	0	0.000	0.000
3	Nitrogen	0.000	0	0	0.000	Linear	0.000000e+00	0.000000e+00	0.000000e+00	0.000000e+00	0	0	0.000	0.000
4	Methane	0.000	0	0	0.000	Linear	0.000000e+00	0.000000e+00	0.000000e+00	0.000000e+00	0	0	0.000	0.000
5	Carbon Monoxide	0.000	0	0	0.000	Linear	0.000000e+00	0.000000e+00	0.000000e+00	0.000000e+00	0	0	0.000	0.000

[Compound Results(Ch3)]
# of IDs	2
ID#	Name	R.Time	Area	Height	Conc.	Curve	3rd	2nd	1st	Constant	Area Ratio	Height Ratio	Conc. %	Norm Conc.
1	N2O	2.873	65470	16111	1.672	Linear	0.000000e+00	0.000000e+00	3.915173e+004	0.000000e+00	0	0	100.000	100.000
2	SF6	0.000	0	0	0.000	Linear	0.000000e+00	0.000000e+00	0.000000e+00	0.000000e+00	0	0	0.000	0.000

[Group Results(Ch1)]
# of Groups	0

[Group Results(Ch2)]
# of Groups	0

[Group Results(Ch3)]
# of Groups	0

[Chromatogram (Ch1)]
Interval(msec)	220
# of Points	1091
Start Time(min)	0.002
End Time(min)	3.998
R.Time (min)	Intensity
0.00167	-40
0.00533	-34
0.00900	-34
0.01267	-38
0.01633	-38
0.02000	-31
0.02367	-22
0.02733	-15
0.03100	-10
0.03467	-9
0.03833	-9
0.04200	-10
0.04567	-11
0.04933	-12
0.05300	-13
0.05667	-18
0.06033	-21
0.06400	-17
0.06767	-10
0.07133	-6
0.07500	-7
0.07867	-12
0.08233	-17
0.08600	-19
0.08967	-14
0.09333	-4
0.09700	9
0.10067	14
0.10433	9
0.10800	1
0.11167	-5
0.11533	-12
0.11900	-20
0.12267	-27
0.12633	-31
0.13000	-35
0.13367	-40
0.13733	-46
0.14100	-52
0.14467	-59
0.14833	-60
0.15200	-56
0.15567	-48
0.15933	-40
0.16300	-33
0.16667	-28
0.17033	-27
0.17400	-28
0.17767	-26
0.18133	-25
0.18500	-28
0.18867	-26
0.19233	-20
0.19600	-13
0.19967	-6
0.20333	-2
0.20700	-6
0.21067	-11
0.21433	-13
0.21800	-13
0.22167	-8
0.22533	-4
0.22900	0
0.23267	0
0.23633	-7
0.24000	-19
0.24367	-30
0.24733	-33
0.25100	-27
0.25467	-14
0.25833	-3
0.26200	4
0.26567	3
0.26933	-3
0.27300	-10
0.27667	-16
0.28033	-18
0.28400	-16
0.28767	-17
0.29133	-20
0.29500	-28
0.29867	-34
0.30233	-38
0.30600	-38
0.30967	-32
0.31333	-25
0.31700	-20
0.32067	-23
0.32433	-29
0.32800	-35
0.33167	-34
0.33533	-28
0.33900	-22
0.34267	-16
0.34633	-10
0.35000	-6
0.35367	-5
0.35733	-3
0.36100	2
0.36467	5
0.36833	4
0.37200	2
0.37567	0
0.37933	-1
0.38300	1
0.38667	1
0.39033	-4
0.39400	-12
0.39767	-16
0.40133	-13
0.40500	-6
0.40867	1
0.41233	3
0.41600	0
0.41967	-4
0.42333	-6
0.42700	-4
0.43067	-2
0.43433	-3
0.43800	-4
0.44167	-6
0.44533	-8
0.44900	-8
0.45267	-6
0.45633	-3
0.46000	-3
0.46367	-3
0.46733	-8
0.47100	-15
0.47467	-17
0.47833	-16
0.48200	-14
0.48567	-9
0.48933	-7
0.49300	-9
0.49667	-15
0.50033	-19
0.50400	-25
0.50767	-30
0.51133	-31
0.51500	-28
0.51867	-21
0.52233	-15
0.52600	-11
0.52967	-13
0.53333	-17
0.53700	-15
0.54067	-13
0.54433	-17
0.54800	-25
0.55167	-31
0.55533	-30
0.55900	-25
0.56267	-19
0.56633	-15
0.57000	-10
0.57367	-4
0.57733	-3
0.58100	-5
0.58467	-8
0.58833	-13
0.59200	-19
0.59567	-20
0.59933	-17
0.60300	-18
0.60667	-22
0.61033	-27
0.61400	-29
0.61767	-26
0.62133	-23
0.62500	-18
0.62867	-14
0.63233	-11
0.63600	-9
0.63967	-8
0.64333	-10
0.64700	-11
0.65067	-9
0.65433	-8
0.65800	-7
0.66167	-9
0.66533	-15
0.66900	-21
0.67267	-26
0.67633	-30
0.68000	-29
0.68367	-27
0.68733	-25
0.69100	-23
0.69467	-23
0.69833	-23
0.70200	-20
0.70567	-13
0.70933	-4
0.71300	4
0.71667	4
0.72033	-1
0.72400	-6
0.72767	-8
0.73133	-10
0.73500	-12
0.73867	-16
0.74233	-21
0.74600	-25
0.74967	-24
0.75333	-22
0.75700	-22
0.76067	-24
0.76433	-28
0.76800	-30
0.77167	-29
0.77533	-21
0.77900	-10
0.78267	-3
0.78633	2
0.79000	1
0.79367	-4
0.79733	-14
0.80100	-19
0.80467	-19
0.80833	-18
0.81200	-17
0.81567	-19
0.81933	-20
0.82300	-21
0.82667	-21
0.83033	-17
0.83400	-9
0.83767	-1
0.84133	4
0.84500	5
0.84867	4
0.85233	2
0.85600	1
0.85967	5
0.86333	11
0.86700	12
0.87067	8
0.87433	3
0.87800	-4
0.88167	-13
0.88533	-25
0.88900	-35
0.89267	-42
0.89633	-45
0.90000	-48
0.90367	-46
0.90733	-38
0.91100	-27
0.91467	-21
0.91833	-22
0.92200	-26
0.92567	-30
0.92933	-34
0.93300	-39
0.93667	-42
0.94033	-43
0.94400	-42
0.94767	-43
0.95133	-43
0.95500	-36
0.95867	-29
0.96233	-16
0.96600	-7
0.96967	-2
0.97333	-6
0.97700	-16
0.98067	-24
0.98433	-24
0.98800	-20
0.99167	-17
0.99533	-13
0.99900	-13
1.00267	-17
1.00633	-21
1.01000	-24
1.01367	-23
1.01733	-21
1.02100	-17
1.02467	-18
1.02833	-25
1.03200	-34
1.03567	-39
1.03933	-39
1.04300	-37
1.04667	-33
1.05033	-32
1.05400	-32
1.05767	-33
1.06133	-35
1.06500	-37
1.06867	-38
1.07233	-34
1.07600	-29
1.07967	-26
1.08333	-22
1.08700	-21
1.09067	-24
1.09433	-29
1.09800	-32
1.10167	-33
1.10533	-33
1.10900	-33
1.11267	-32
1.11633	-27
1.12000	-19
1.12367	-15
1.12733	-15
1.13100	-13
1.13467	-13
1.13833	-15
1.14200	-19
1.14567	-26
1.14933	-36
1.15300	-45
1.15667	-52
1.16033	-55
1.16400	-56
1.16767	-54
1.17133	-56
1.17500	-61
1.17867	-65
1.18233	-67
1.18600	-64
1.18967	-56
1.19333	-47
1.19700	-40
1.20067	-36
1.20433	-36
1.20800	-38
1.21167	-34
1.21533	-24
1.21900	-15
1.22267	-15
1.22633	-23
1.23000	-35
1.23367	-47
1.23733	-49
1.24100	-47
1.24467	-44
1.24833	-42
1.25200	-44
1.25567	-44
1.25933	-46
1.26300	-50
1.26667	-52
1.27033	-47
1.27400	-39
1.27767	-31
1.28133	-26
1.28500	-28
1.28867	-32
1.29233	-33
1.29600	-36
1.29967	-37
1.30333	-41
1.30700	-46
1.31067	-48
1.31433	-45
1.31800	-36
1.32167	-30
1.32533	-33
1.32900	-43
1.33267	-50
1.33633	-53
1.34000	-52
1.34367	-50
1.34733	-46
1.35100	-40
1.35467	-37
1.35833	-35
1.36200	-31
1.36567	-28
1.36933	-24
1.37300	-21
1.37667	-22
1.38033	-29
1.38400	-40
1.38767	-50
1.39133	-56
1.39500	-52
1.39867	-42
1.40233	-38
1.40600	-39
1.40967	-37
1.41333	-35
1.41700	-34
1.42067	-38
1.42433	-42
1.42800	-47
1.43167	-50
1.43533	-48
1.43900	-26
1.44267	66
1.44633	260
1.45000	498
1.45367	693
1.45733	820
1.46100	881
1.46467	895
1.46833	885
1.47200	868
1.47567	853
1.47933	840
1.48300	820
1.48667	778
1.49033	716
1.49400	639
1.49767	556
1.50133	468
1.50500	383
1.50867	310
1.51233	251
1.51600	200
1.51967	159
1.52333	126
1.52700	101
1.53067	83
1.53433	83
1.53800	156
1.54167	485
1.54533	1369
1.54900	2942
1.55267	4958
1.55633	6977
1.56000	8672
1.56367	9894
1.56733	10548
1.57100	10498
1.57467	9665
1.57833	8210
1.58200	6480
1.58567	4813
1.58933	3414
1.59300	2343
1.59667	1572
1.60033	1041
1.60400	689
1.60767	456
1.61133	299
1.61500	191
1.61867	119
1.62233	69
1.62600	32
1.62967	7
1.63333	-9
1.63700	-17
1.64067	-20
1.64433	-21
1.64800	-24
1.65167	-28
1.65533	-30
1.65900	-30
1.66267	-23
1.66633	-10
1.67000	0
1.67367	6
1.67733	2
1.68100	-10
1.68467	-22
1.68833	-32
1.69200	-37
1.69567	-39
1.69933	-40
1.70300	-43
1.70667	-48
1.71033	-49
1.71400	-42
1.71767	-34
1.72133	-34
1.72500	-39
1.72867	-44
1.73233	-45
1.73600	-43
1.73967	-41
1.74333	-37
1.74700	-38
1.75067	-38
1.75433	-40
1.75800	-47
1.76167	-56
1.76533	-62
1.76900	-62
1.77267	-58
1.77633	-54
1.78000	-52
1.78367	-49
1.78733	-48
1.79100	-52
1.79467	-56
1.79833	-59
1.80200	-59
1.80567	-57
1.80933	-52
1.81300	-43
1.81667	-32
1.82033	-23
1.82400	-17
1.82767	-22
1.83133	-31
1.83500	-43
1.83867	-48
1.84233	-47
1.84600	-43
1.84967	-37
1.85333	-32
1.85700	-25
1.86067	-21
1.86433	-20
1.86800	-24
1.87167	-23
1.87533	-23
1.87900	-26
1.88267	-36
1.88633	-50
1.89000	-64
1.89367	-74
1.89733	-77
1.90100	-74
1.90467	-66
1.90833	-55
1.91200	-49
1.91567	-49
1.91933	-49
1.92300	-50
1.92667	-47
1.93033	-42
1.93400	-40
1.93767	-49
1.94133	-63
1.94500	-68
1.94867	-63
1.95233	-35
1.95600	134
1.95967	1129
1.96333	5711
1.96700	21689
1.97067	64322
1.97433	152139
1.97800	293457
1.98167	475091
1.98533	666618
1.98900	835423
1.99267	955268
1.99633	1010245
2.00000	995051
2.00367	915651
2.00733	789668
2.01100	641435
2.01467	494610
2.01833	365783
2.02200	262394
2.02567	184641
2.02933	128796
2.03300	89918
2.03667	63388
2.04033	45469
2.04400	33392
2.04767	25218
2.05133	19624
2.05500	15738
2.05867	12978
2.06233	10975
2.06600	9476
2.06967	8321
2.07333	7414
2.07700	6690
2.08067	6097
2.08433	5600
2.08800	5179
2.09167	4819
2.09533	4509
2.09900	4236
2.10267	3990
2.10633	3762
2.11000	3551
2.11367	3361
2.11733	3195
2.12100	3045
2.12467	2904
2.12833	2774
2.13200	2654
2.13567	2543
2.13933	2439
2.14300	2339
2.14667	2250
2.15033	2173
2.15400	2103
2.15767	2040
2.16133	1979
2.16500	1920
2.16867	1863
2.17233	1803
2.17600	1741
2.17967	1685
2.18333	1636
2.18700	1587
2.19067	1545
2.19433	1503
2.19800	1459
2.20167	1422
2.20533	1393
2.20900	1372
2.21267	1349
2.21633	1317
2.22000	1276
2.22367	1235
2.22733	1201
2.23100	1174
2.23467	1148
2.23833	1123
2.24200	1098
2.24567	1070
2.24933	1042
2.25300	1016
2.25667	991
2.26033	965
2.26400	942
2.26767	924
2.27133	911
2.27500	899
2.27867	890
2.28233	885
2.28600	878
2.28967	866
2.29333	853
2.29700	839
2.30067	824
2.30433	807
2.30800	789
2.31167	769
2.31533	754
2.31900	742
2.32267	734
2.32633	725
2.33000	717
2.33367	710
2.33733	703
2.34100	698
2.34467	693
2.34833	687
2.35200	683
2.35567	677
2.35933	671
2.36300	667
2.36667	664
2.37033	659
2.37400	649
2.37767	634
2.38133	614
2.38500	598
2.38867	585
2.39233	580
2.39600	578
2.39967	578
2.40333	576
2.40700	573
2.41067	567
2.41433	561
2.41800	555
2.42167	550
2.42533	547
2.42900	547
2.43267	547
2.43633	547
2.44000	543
2.44367	532
2.44733	519
2.45100	513
2.45467	510
2.45833	506
2.46200	499
2.46567	492
2.46933	487
2.47300	482
2.47667	477
2.48033	477
2.48400	488
2.48767	502
2.49133	504
2.49500	497
2.49867	488
2.50233	480
2.50600	473
2.50967	470
2.51333	468
2.51700	465
2.52067	463
2.52433	459
2.52800	454
2.53167	447
2.53533	445
2.53900	445
2.54267	445
2.54633	442
2.55000	443
2.55367	446
2.55733	447
2.56100	446
2.56467	442
2.56833	441
2.57200	439
2.57567	436
2.57933	435
2.58300	436
2.58667	435
2.59033	434
2.59400	432
2.59767	431
2.60133	429
2.60500	426
2.60867	425
2.61233	424
2.61600	424
2.61967	425
2.62333	425
2.62700	423
2.63067	420
2.63433	421
2.63800	422
2.64167	420
2.64533	418
2.64900	417
2.65267	415
2.65633	413
2.66000	409
2.66367	405
2.66733	403
2.67100	403
2.67467	406
2.67833	410
2.68200	411
2.68567	409
2.68933	407
2.69300	406
2.69667	409
2.70033	410
2.70400	411
2.70767	414
2.71133	413
2.71500	411
2.71867	413
2.72233	421
2.72600	434
2.72967	445
2.73333	446
2.73700	438
2.74067	427
2.74433	420
2.74800	415
2.75167	412
2.75533	404
2.75900	392
2.76267	382
2.76633	379
2.77000	380
2.77367	382
2.77733	384
2.78100	389
2.78467	395
2.78833	398
2.79200	399
2.79567	396
2.79933	405
2.80300	418
2.80667	424
2.81033	425
2.81400	419
2.81767	411
2.82133	404
2.82500	399
2.82867	398
2.83233	400
2.83600	407
2.83967	417
2.84333	423
2.84700	425
2.85067	424
2.85433	427
2.85800	430
2.86167	434
2.86533	435
2.86900	435
2.87267	436
2.87633	437
2.88000	439
2.88367	447
2.88733	456
2.89100	457
2.89467	448
2.89833	436
2.90200	428
2.90567	424
2.90933	422
2.91300	419
2.91667	416
2.92033	408
2.92400	400
2.92767	395
2.93133	395
2.93500	395
2.93867	395
2.94233	396
2.94600	396
2.94967	400
2.95333	407
2.95700	412
2.96067	416
2.96433	420
2.96800	422
2.97167	424
2.97533	425
2.97900	423
2.98267	420
2.98633	419
2.99000	420
2.99367	426
2.99733	430
3.00100	432
3.00467	432
3.00833	432
3.01200	437
3.01567	442
3.01933	446
3.02300	447
3.02667	446
3.03033	446
3.03400	449
3.03767	448
3.04133	442
3.04500	439
3.04867	439
3.05233	437
3.05600	437
3.05967	439
3.06333	440
3.06700	442
3.07067	444
3.07433	445
3.07800	450
3.08167	454
3.08533	453
3.08900	448
3.09267	444
3.09633	449
3.10000	461
3.10367	471
3.10733	477
3.11100	481
3.11467	489
3.11833	492
3.12200	496
3.12567	501
3.12933	507
3.13300	513
3.13667	521
3.14033	533
3.14400	536
3.14767	531
3.15133	520
3.15500	510
3.15867	504
3.16233	504
3.16600	510
3.16967	522
3.17333	532
3.17700	535
3.18067	532
3.18433	528
3.18800	526
3.19167	527
3.19533	530
3.19900	531
3.20267	528
3.20633	521
3.21000	517
3.21367	517
3.21733	523
3.22100	529
3.22467	532
3.22833	533
3.23200	535
3.23567	534
3.23933	529
3.24300	525
3.24667	520
3.25033	517
3.25400	515
3.25767	516
3.26133	515
3.26500	514
3.26867	510
3.27233	506
3.27600	506
3.27967	510
3.28333	513
3.28700	518
3.29067	523
3.29433	524
3.29800	521
3.30167	519
3.30533	518
3.30900	518
3.31267	515
3.31633	508
3.32000	504
3.32367	508
3.32733	512
3.33100	514
3.33467	512
3.33833	510
3.34200	506
3.34567	496
3.34933	483
3.35300	474
3.35667	469
3.36033	469
3.36400	471
3.36767	476
3.37133	481
3.37500	485
3.37867	487
3.38233	487
3.38600	489
3.38967	491
3.39333	492
3.39700	488
3.40067	484
3.40433	485
3.40800	488
3.41167	489
3.41533	488
3.41900	484
3.42267	483
3.42633	485
3.43000	483
3.43367	476
3.43733	471
3.44100	467
3.44467	462
3.44833	456
3.45200	453
3.45567	451
3.45933	450
3.46300	451
3.46667	456
3.47033	460
3.47400	463
3.47767	467
3.48133	469
3.48500	465
3.48867	462
3.49233	460
3.49600	463
3.49967	469
3.50333	474
3.50700	473
3.51067	467
3.51433	462
3.51800	458
3.52167	452
3.52533	449
3.52900	452
3.53267	456
3.53633	459
3.54000	457
3.54367	452
3.54733	447
3.55100	443
3.55467	439
3.55833	436
3.56200	432
3.56567	430
3.56933	430
3.57300	432
3.57667	439
3.58033	446
3.58400	459
3.58767	469
3.59133	478
3.59500	485
3.59867	488
3.60233	480
3.60600	462
3.60967	441
3.61333	425
3.61700	417
3.62067	413
3.62433	412
3.62800	411
3.63167	409
3.63533	407
3.63900	409
3.64267	413
3.64633	416
3.65000	421
3.65367	427
3.65733	428
3.66100	423
3.66467	416
3.66833	410
3.67200	406
3.67567	407
3.67933	409
3.68300	410
3.68667	407
3.69033	407
3.69400	408
3.69767	412
3.70133	414
3.70500	412
3.70867	409
3.71233	409
3.71600	413
3.71967	418
3.72333	419
3.72700	418
3.73067	417
3.73433	415
3.73800	412
3.74167	410
3.74533	407
3.74900	401
3.75267	396
3.75633	392
3.76000	392
3.76367	396
3.76733	402
3.77100	410
3.77467	420
3.77833	422
3.78200	423
3.78567	420
3.78933	412
3.79300	401
3.79667	393
3.80033	389
3.80400	387
3.80767	387
3.81133	389
3.81500	387
3.81867	380
3.82233	374
3.82600	370
3.82967	370
3.83333	371
3.83700	375
3.84067	380
3.84433	386
3.84800	394
3.85167	397
3.85533	395
3.85900	393
3.86267	388
3.86633	382
3.87000	377
3.87367	373
3.87733	371
3.88100	373
3.88467	379
3.88833	387
3.89200	391
3.89567	398
3.89933	406
3.90300	410
3.90667	409
3.91033	405
3.91400	405
3.91767	408
3.92133	408
3.92500	399
3.92867	380
3.93233	360
3.93600	343
3.93967	332
3.94333	326
3.94700	321
3.95067	317
3.95433	316
3.95800	323
3.96167	332
3.96533	344
3.96900	355
3.97267	360
3.97633	359
3.98000	354
3.98367	347
3.98733	346
3.99100	351
3.99467	359
3.99833	366

[Chromatogram (Ch2)]
Interval(msec)	220
# of Points	1091
Start Time(min)	0.002
End Time(min)	3.998
R.Time (min)	Intensity
0.00167	0
0.00533	-0
0.00900	0
0.01267	0
0.01633	0
0.02000	-0
0.02367	-0
0.02733	-0
0.03100	-0
0.03467	-0
0.03833	-0
0.04200	-0
0.04567	-0
0.04933	-1
0.05300	-1
0.05667	-1
0.06033	-1
0.06400	-2
0.06767	-2
0.07133	-2
0.07500	-2
0.07867	-2
0.08233	-1
0.08600	-1
0.08967	-1
0.09333	-1
0.09700	-0
0.10067	-0
0.10433	0
0.10800	0
0.11167	1
0.11533	1
0.11900	1
0.12267	1
0.12633	1
0.13000	1
0.13367	1
0.13733	1
0.14100	0
0.14467	0
0.14833	0
0.15200	0
0.15567	-0
0.15933	-1
0.16300	-1
0.16667	-2
0.17033	-2
0.17400	-3
0.17767	-3
0.18133	-3
0.18500	-3
0.18867	-3
0.19233	-3
0.19600	-2
0.19967	-2
0.20333	-2
0.20700	-2
0.21067	-1
0.21433	-1
0.21800	-1
0.22167	-1
0.22533	-0
0.22900	-0
0.23267	-0
0.23633	-1
0.24000	-1
0.24367	-1
0.24733	-1
0.25100	-1
0.25467	-1
0.25833	-1
0.26200	-1
0.26567	-1
0.26933	-1
0.27300	-1
0.27667	-1
0.28033	-1
0.28400	-0
0.28767	-0
0.29133	-0
0.29500	-0
0.29867	-0
0.30233	-0
0.30600	-0
0.30967	-0
0.31333	-0
0.31700	-0
0.32067	-1
0.32433	-1
0.32800	-1
0.33167	-1
0.33533	-2
0.33900	-2
0.34267	-2
0.34633	-3
0.35000	-3
0.35367	-4
0.35733	-4
0.36100	-4
0.36467	-5
0.36833	-5
0.37200	-5
0.37567	-5
0.37933	-5
0.38300	-5
0.38667	-5
0.39033	-5
0.39400	-5
0.39767	-5
0.40133	-5
0.40500	-5
0.40867	-5
0.41233	-5
0.41600	-4
0.41967	-4
0.42333	-4
0.42700	-3
0.43067	-3
0.43433	-2
0.43800	-2
0.44167	-1
0.44533	-1
0.44900	-1
0.45267	-1
0.45633	-1
0.46000	-1
0.46367	-1
0.46733	-1
0.47100	-1
0.47467	-1
0.47833	-1
0.48200	-2
0.48567	-2
0.48933	-2
0.49300	-3
0.49667	-3
0.50033	-2
0.50400	-2
0.50767	-2
0.51133	-2
0.51500	-2
0.51867	-3
0.52233	-3
0.52600	-3
0.52967	-3
0.53333	-3
0.53700	-3
0.54067	-3
0.54433	-3
0.54800	-2
0.55167	-3
0.55533	-3
0.55900	-3
0.56267	-3
0.56633	-3
0.57000	-3
0.57367	-3
0.57733	-3
0.58100	-3
0.58467	-2
0.58833	-2
0.59200	-2
0.59567	-2
0.59933	-2
0.60300	-2
0.60667	-2
0.61033	-2
0.61400	-2
0.61767	-2
0.62133	-2
0.62500	-2
0.62867	-2
0.63233	-2
0.63600	-2
0.63967	-2
0.64333	-1
0.64700	-1
0.65067	-1
0.65433	-1
0.65800	-1
0.66167	-1
0.66533	-1
0.66900	-1
0.67267	-1
0.67633	-0
0.68000	-0
0.68367	-0
0.68733	-0
0.69100	-1
0.69467	-1
0.69833	-1
0.70200	-1
0.70567	-1
0.70933	-1
0.71300	-1
0.71667	-1
0.72033	-1
0.72400	-1
0.72767	-1
0.73133	-1
0.73500	-1
0.73867	-2
0.74233	-2
0.74600	-2
0.74967	-2
0.75333	-2
0.75700	-2
0.76067	-2
0.76433	-2
0.76800	-2
0.77167	-2
0.77533	-2
0.77900	-2
0.78267	-2
0.78633	-2
0.79000	-2
0.79367	-2
0.79733	-2
0.80100	-2
0.80467	-2
0.80833	-2
0.81200	-2
0.81567	-2
0.81933	-2
0.82300	-2
0.82667	-2
0.83033	-2
0.83400	-1
0.83767	-1
0.84133	-1
0.84500	-1
0.84867	-1
0.85233	-1
0.85600	-1
0.85967	-1
0.86333	-2
0.86700	-2
0.87067	-2
0.87433	-2
0.87800	-2
0.88167	-3
0.88533	-3
0.88900	-3
0.89267	-3
0.89633	-3
0.90000	-3
0.90367	-3
0.90733	-4
0.91100	-4
0.91467	-4
0.91833	-4
0.92200	-4
0.92567	-4
0.92933	-4
0.93300	-4
0.93667	-4
0.94033	-4
0.94400	-5
0.94767	-5
0.95133	-6
0.95500	-6
0.95867	-6
0.96233	-6
0.96600	-6
0.96967	-6
0.97333	-5
0.97700	-5
0.98067	-5
0.98433	-5
0.98800	-5
0.99167	-4
0.99533	-4
0.99900	-4
1.00267	-4
1.00633	-4
1.01000	-4
1.01367	-3
1.01733	-3
1.02100	-3
1.02467	-4
1.02833	-4
1.03200	-4
1.03567	-4
1.03933	-4
1.04300	-5
1.04667	-5
1.05033	-6
1.05400	-6
1.05767	-6
1.06133	-6
1.06500	-6
1.06867	-6
1.07233	-6
1.07600	-5
1.07967	-5
1.08333	-5
1.08700	-5
1.09067	-6
1.09433	-6
1.09800	-6
1.10167	-6
1.10533	-6
1.10900	-6
1.11267	-6
1.11633	-6
1.12000	-6
1.12367	-6
1.12733	-6
1.13100	-5
1.13467	-5
1.13833	-5
1.14200	-4
1.14567	-4
1.14933	-4
1.15300	-4
1.15667	-3
1.16033	-3
1.16400	-3
1.16767	-3
1.17133	-2
1.17500	-2
1.17867	-2
1.18233	-2
1.18600	-2
1.18967	-3
1.19333	-3
1.19700	-3
1.20067	-3
1.20433	-3
1.20800	-3
1.21167	-3
1.21533	-3
1.21900	-3
1.22267	-3
1.22633	-3
1.23000	-3
1.23367	-4
1.23733	-4
1.24100	-4
1.24467	-4
1.24833	-3
1.25200	-3
1.25567	-3
1.25933	-3
1.26300	-3
1.26667	-2
1.27033	-2
1.27400	-2
1.27767	-2
1.28133	-1
1.28500	-1
1.28867	-1
1.29233	-1
1.29600	-1
1.29967	-1
1.30333	-1
1.30700	-2
1.31067	-2
1.31433	-2
1.31800	-2
1.32167	-2
1.32533	-2
1.32900	-2
1.33267	-2
1.33633	-3
1.34000	-3
1.34367	-4
1.34733	-4
1.35100	-4
1.35467	-4
1.35833	-4
1.36200	-4
1.36567	-5
1.36933	-5
1.37300	-5
1.37667	-5
1.38033	-5
1.38400	-5
1.38767	-4
1.39133	-4
1.39500	-5
1.39867	-5
1.40233	-5
1.40600	-6
1.40967	-6
1.41333	-6
1.41700	-7
1.42067	-7
1.42433	-8
1.42800	-8
1.43167	-8
1.43533	-7
1.43900	-7
1.44267	-7
1.44633	-6
1.45000	-6
1.45367	-6
1.45733	-6
1.46100	-6
1.46467	-5
1.46833	-5
1.47200	-4
1.47567	-4
1.47933	-3
1.48300	-3
1.48667	-3
1.49033	-2
1.49400	-2
1.49767	-2
1.50133	-2
1.50500	-1
1.50867	-2
1.51233	-2
1.51600	-2
1.51967	-1
1.52333	-1
1.52700	-1
1.53067	-1
1.53433	-1
1.53800	-2
1.54167	-2
1.54533	-2
1.54900	-3
1.55267	-3
1.55633	-4
1.56000	-4
1.56367	-5
1.56733	-5
1.57100	-6
1.57467	-6
1.57833	-6
1.58200	-6
1.58567	-5
1.58933	-5
1.59300	-6
1.59667	-6
1.60033	-7
1.60400	-8
1.60767	-9
1.61133	-11
1.61500	-13
1.61867	-15
1.62233	-18
1.62600	-21
1.62967	-24
1.63333	-27
1.63700	-30
1.64067	-34
1.64433	-38
1.64800	-41
1.65167	-45
1.65533	-49
1.65900	-52
1.66267	-56
1.66633	-60
1.67000	-64
1.67367	-69
1.67733	-73
1.68100	-78
1.68467	-83
1.68833	-87
1.69200	-91
1.69567	-95
1.69933	-98
1.70300	-100
1.70667	-102
1.71033	-104
1.71400	-106
1.71767	-107
1.72133	-108
1.72500	-110
1.72867	-111
1.73233	-112
1.73600	-113
1.73967	-113
1.74333	-114
1.74700	-114
1.75067	-114
1.75433	-114
1.75800	-114
1.76167	-114
1.76533	-114
1.76900	-113
1.77267	-113
1.77633	-112
1.78000	-112
1.78367	-113
1.78733	-113
1.79100	-114
1.79467	-115
1.79833	-116
1.80200	-116
1.80567	-117
1.80933	-117
1.81300	-117
1.81667	-117
1.82033	-117
1.82400	-117
1.82767	-117
1.83133	-117
1.83500	-118
1.83867	-118
1.84233	-118
1.84600	-118
1.84967	-119
1.85333	-119
1.85700	-119
1.86067	-119
1.86433	-119
1.86800	-119
1.87167	-119
1.87533	-120
1.87900	-120
1.88267	-120
1.88633	-120
1.89000	-120
1.89367	-119
1.89733	-119
1.90100	-119
1.90467	-118
1.90833	-118
1.91200	-117
1.91567	-117
1.91933	-116
1.92300	-116
1.92667	-116
1.93033	-116
1.93400	-115
1.93767	-114
1.94133	-113
1.94500	-113
1.94867	-112
1.95233	-112
1.95600	-112
1.95967	-113
1.96333	-113
1.96700	-113
1.97067	-113
1.97433	-113
1.97800	-113
1.98167	-113
1.98533	-113
1.98900	-113
1.99267	-113
1.99633	-112
2.00000	-112
2.00367	-112
2.00733	-112
2.01100	-111
2.01467	-111
2.01833	-110
2.02200	-110
2.02567	-110
2.02933	-110
2.03300	-110
2.03667	-110
2.04033	-110
2.04400	-110
2.04767	-110
2.05133	-110
2.05500	-110
2.05867	-110
2.06233	-110
2.06600	-109
2.06967	-109
2.07333	-108
2.07700	-107
2.08067	-107
2.08433	-107
2.08800	-107
2.09167	-107
2.09533	-107
2.09900	-107
2.10267	-106
2.10633	-105
2.11000	-105
2.11367	-104
2.11733	-104
2.12100	-103
2.12467	-103
2.12833	-102
2.13200	-101
2.13567	-100
2.13933	-99
2.14300	-98
2.14667	-98
2.15033	-97
2.15400	-97
2.15767	-97
2.16133	-97
2.16500	-97
2.16867	-97
2.17233	-97
2.17600	-97
2.17967	-96
2.18333	-96
2.18700	-96
2.19067	-95
2.19433	-95
2.19800	-94
2.20167	-94
2.20533	-94
2.20900	-94
2.21267	-94
2.21633	-93
2.22000	-93
2.22367	-92
2.22733	-92
2.23100	-91
2.23467	-91
2.23833	-91
2.24200	-91
2.24567	-91
2.24933	-91
2.25300	-91
2.25667	-91
2.26033	-91
2.26400	-91
2.26767	-90
2.27133	-89
2.27500	-89
2.27867	-88
2.28233	-87
2.28600	-86
2.28967	-86
2.29333	-86
2.29700	-86
2.30067	-86
2.30433	-86
2.30800	-87
2.31167	-87
2.31533	-87
2.31900	-86
2.32267	-85
2.32633	-85
2.33000	-84
2.33367	-84
2.33733	-84
2.34100	-84
2.34467	-84
2.34833	-84
2.35200	-83
2.35567	-83
2.35933	-81
2.36300	-79
2.36667	-77
2.37033	-74
2.37400	-70
2.37767	-66
2.38133	-62
2.38500	-57
2.38867	-53
2.39233	-48
2.39600	-44
2.39967	-39
2.40333	-35
2.40700	-31
2.41067	-29
2.41433	-26
2.41800	-24
2.42167	-23
2.42533	-22
2.42900	-20
2.43267	-19
2.43633	-18
2.44000	-17
2.44367	-16
2.44733	-15
2.45100	-13
2.45467	-12
2.45833	-10
2.46200	-8
2.46567	-6
2.46933	-4
2.47300	-2
2.47667	-1
2.48033	-0
2.48400	1
2.48767	2
2.49133	2
2.49500	2
2.49867	2
2.50233	2
2.50600	3
2.50967	3
2.51333	4
2.51700	5
2.52067	6
2.52433	7
2.52800	8
2.53167	8
2.53533	8
2.53900	8
2.54267	9
2.54633	9
2.55000	9
2.55367	10
2.55733	11
2.56100	12
2.56467	12
2.56833	13
2.57200	13
2.57567	13
2.57933	13
2.58300	13
2.58667	13
2.59033	14
2.59400	14
2.59767	14
2.60133	14
2.60500	15
2.60867	15
2.61233	15
2.61600	15
2.61967	15
2.62333	16
2.62700	16
2.63067	16
2.63433	16
2.63800	16
2.64167	16
2.64533	17
2.64900	17
2.65267	17
2.65633	17
2.66000	17
2.66367	17
2.66733	17
2.67100	17
2.67467	17
2.67833	17
2.68200	17
2.68567	17
2.68933	17
2.69300	17
2.69667	18
2.70033	18
2.70400	18
2.70767	19
2.71133	19
2.71500	20
2.71867	21
2.72233	21
2.72600	22
2.72967	23
2.73333	23
2.73700	23
2.74067	23
2.74433	23
2.74800	23
2.75167	23
2.75533	22
2.75900	22
2.76267	21
2.76633	21
2.77000	21
2.77367	20
2.77733	20
2.78100	20
2.78467	20
2.78833	20
2.79200	20
2.79567	20
2.79933	20
2.80300	20
2.80667	21
2.81033	21
2.81400	21
2.81767	22
2.82133	22
2.82500	22
2.82867	22
2.83233	22
2.83600	22
2.83967	20
2.84333	16
2.84700	10
2.85067	1
2.85433	-13
2.85800	-31
2.86167	-53
2.86533	-82
2.86900	-115
2.87267	-154
2.87633	-198
2.88000	-248
2.88367	-302
2.88733	-362
2.89100	-425
2.89467	-493
2.89833	-564
2.90200	-639
2.90567	-716
2.90933	-797
2.91300	-880
2.91667	-965
2.92033	-1053
2.92400	-1143
2.92767	-1234
2.93133	-1327
2.93500	-1418
2.93867	-1498
2.94233	-1553
2.94600	-1574
2.94967	-1558
2.95333	-1509
2.95700	-1432
2.96067	-1335
2.96433	-1227
2.96800	-1114
2.97167	-1000
2.97533	-891
2.97900	-787
2.98267	-691
2.98633	-603
2.99000	-524
2.99367	-453
2.99733	-391
3.00100	-336
3.00467	-288
3.00833	-247
3.01200	-211
3.01567	-180
3.01933	-153
3.02300	-130
3.02667	-111
3.03033	-94
3.03400	-79
3.03767	-67
3.04133	-56
3.04500	-47
3.04867	-39
3.05233	-32
3.05600	-27
3.05967	-22
3.06333	-18
3.06700	-14
3.07067	-11
3.07433	-8
3.07800	-5
3.08167	-3
3.08533	-1
3.08900	1
3.09267	2
3.09633	3
3.10000	4
3.10367	5
3.10733	6
3.11100	6
3.11467	7
3.11833	7
3.12200	8
3.12567	8
3.12933	9
3.13300	10
3.13667	10
3.14033	11
3.14400	11
3.14767	12
3.15133	12
3.15500	13
3.15867	13
3.16233	13
3.16600	13
3.16967	13
3.17333	13
3.17700	13
3.18067	14
3.18433	14
3.18800	14
3.19167	14
3.19533	15
3.19900	15
3.20267	15
3.20633	14
3.21000	14
3.21367	15
3.21733	15
3.22100	15
3.22467	15
3.22833	15
3.23200	16
3.23567	16
3.23933	17
3.24300	17
3.24667	17
3.25033	18
3.25400	18
3.25767	18
3.26133	18
3.26500	18
3.26867	18
3.27233	18
3.27600	18
3.27967	18
3.28333	18
3.28700	18
3.29067	19
3.29433	19
3.29800	19
3.30167	20
3.30533	20
3.30900	20
3.31267	21
3.31633	21
3.32000	22
3.32367	22
3.32733	22
3.33100	22
3.33467	22
3.33833	22
3.34200	22
3.34567	21
3.34933	21
3.35300	21
3.35667	21
3.36033	21
3.36400	21
3.36767	21
3.37133	21
3.37500	21
3.37867	21
3.38233	22
3.38600	22
3.38967	22
3.39333	22
3.39700	23
3.40067	23
3.40433	23
3.40800	23
3.41167	23
3.41533	23
3.41900	23
3.42267	22
3.42633	22
3.43000	22
3.43367	22
3.43733	22
3.44100	22
3.44467	22
3.44833	22
3.45200	22
3.45567	22
3.45933	22
3.46300	21
3.46667	21
3.47033	21
3.47400	22
3.47767	22
3.48133	22
3.48500	22
3.48867	23
3.49233	23
3.49600	23
3.49967	24
3.50333	24
3.50700	25
3.51067	25
3.51433	25
3.51800	25
3.52167	26
3.52533	26
3.52900	26
3.53267	26
3.53633	26
3.54000	26
3.54367	26
3.54733	26
3.55100	26
3.55467	26
3.55833	25
3.56200	25
3.56567	24
3.56933	24
3.57300	24
3.57667	24
3.58033	24
3.58400	24
3.58767	24
3.59133	24
3.59500	24
3.59867	24
3.60233	24
3.60600	23
3.60967	23
3.61333	23
3.61700	23
3.62067	23
3.62433	23
3.62800	24
3.63167	24
3.63533	24
3.63900	24
3.64267	24
3.64633	24
3.65000	24
3.65367	24
3.65733	24
3.66100	24
3.66467	24
3.66833	24
3.67200	24
3.67567	24
3.67933	24
3.68300	24
3.68667	24
3.69033	24
3.69400	24
3.69767	24
3.70133	24
3.70500	24
3.70867	24
3.71233	24
3.71600	24
3.71967	24
3.72333	24
3.72700	25
3.73067	25
3.73433	25
3.73800	25
3.74167	24
3.74533	24
3.74900	24
3.75267	24
3.75633	24
3.76000	24
3.76367	24
3.76733	23
3.77100	23
3.77467	23
3.77833	23
3.78200	23
3.78567	23
3.78933	23
3.79300	22
3.79667	22
3.80033	22
3.80400	22
3.80767	22
3.81133	23
3.81500	23
3.81867	23
3.82233	23
3.82600	23
3.82967	23
3.83333	23
3.83700	23
3.84067	23
3.84433	23
3.84800	23
3.85167	24
3.85533	24
3.85900	25
3.86267	25
3.86633	25
3.87000	25
3.87367	25
3.87733	26
3.88100	25
3.88467	25
3.88833	25
3.89200	25
3.89567	25
3.89933	25
3.90300	25
3.90667	25
3.91033	25
3.91400	25
3.91767	25
3.92133	24
3.92500	24
3.92867	24
3.93233	24
3.93600	23
3.93967	23
3.94333	23
3.94700	23
3.95067	22
3.95433	22
3.95800	22
3.96167	22
3.96533	22
3.96900	21
3.97267	21
3.97633	21
3.98000	21
3.98367	21
3.98733	21
3.99100	22
3.99467	22
3.99833	22

[Chromatogram (Ch3)]
Interval(msec)	220
# of Points	1091
Start Time(min)	0.002
End Time(min)	3.998
R.Time (min)	Intensity
0.00167	-1
0.00533	-1
0.00900	-0
0.01267	0
0.01633	-1
0.02000	-2
0.02367	-3
0.02733	-3
0.03100	-4
0.03467	-1
0.03833	0
0.04200	1
0.04567	2
0.04933	3
0.05300	1
0.05667	0
0.06033	0
0.06400	1
0.06767	1
0.07133	0
0.07500	1
0.07867	2
0.08233	2
0.08600	2
0.08967	1
0.09333	0
0.09700	-3
0.10067	-5
0.10433	-6
0.10800	-6
0.11167	-6
0.11533	-6
0.11900	-4
0.12267	-3
0.12633	-2
0.13000	-1
0.13367	-1
0.13733	-1
0.14100	-2
0.14467	-3
0.14833	-3
0.15200	-3
0.15567	-6
0.15933	-8
0.16300	-8
0.16667	-6
0.17033	-7
0.17400	-7
0.17767	-6
0.18133	-5
0.18500	-6
0.18867	-4
0.19233	-3
0.19600	-6
0.19967	-9
0.20333	-10
0.20700	-10
0.21067	-6
0.21433	-6
0.21800	-6
0.22167	-4
0.22533	-1
0.22900	0
0.23267	-2
0.23633	-5
0.24000	-5
0.24367	-6
0.24733	-6
0.25100	-6
0.25467	-7
0.25833	-6
0.26200	-5
0.26567	-4
0.26933	-5
0.27300	-6
0.27667	-6
0.28033	-5
0.28400	-4
0.28767	-3
0.29133	-3
0.29500	-5
0.29867	-6
0.30233	-8
0.30600	-7
0.30967	-5
0.31333	-3
0.31700	-1
0.32067	-3
0.32433	-4
0.32800	-4
0.33167	-2
0.33533	1
0.33900	1
0.34267	-3
0.34633	-4
0.35000	-3
0.35367	-3
0.35733	-3
0.36100	-4
0.36467	-3
0.36833	-2
0.37200	-4
0.37567	-5
0.37933	-5
0.38300	-5
0.38667	-4
0.39033	-3
0.39400	-3
0.39767	-3
0.40133	-2
0.40500	-2
0.40867	-3
0.41233	-1
0.41600	-1
0.41967	-2
0.42333	-3
0.42700	-4
0.43067	-4
0.43433	-7
0.43800	-8
0.44167	-6
0.44533	-6
0.44900	-7
0.45267	-9
0.45633	-11
0.46000	-11
0.46367	-8
0.46733	-5
0.47100	-4
0.47467	-2
0.47833	-2
0.48200	-2
0.48567	-1
0.48933	-1
0.49300	1
0.49667	2
0.50033	1
0.50400	-1
0.50767	-2
0.51133	-1
0.51500	-2
0.51867	-5
0.52233	-6
0.52600	-7
0.52967	-5
0.53333	-4
0.53700	-4
0.54067	-4
0.54433	-2
0.54800	-3
0.55167	-5
0.55533	-8
0.55900	-8
0.56267	-7
0.56633	-4
0.57000	-6
0.57367	-8
0.57733	-7
0.58100	-5
0.58467	-4
0.58833	-4
0.59200	-4
0.59567	-6
0.59933	-6
0.60300	-5
0.60667	-3
0.61033	-2
0.61400	-1
0.61767	-1
0.62133	-2
0.62500	-3
0.62867	-4
0.63233	-5
0.63600	-4
0.63967	-4
0.64333	-4
0.64700	-6
0.65067	-7
0.65433	-8
0.65800	-7
0.66167	-6
0.66533	-3
0.66900	-4
0.67267	-5
0.67633	-5
0.68000	-6
0.68367	-8
0.68733	-9
0.69100	-9
0.69467	-10
0.69833	-10
0.70200	-7
0.70567	-5
0.70933	-5
0.71300	-4
0.71667	-4
0.72033	-7
0.72400	-8
0.72767	-6
0.73133	-6
0.73500	-6
0.73867	-6
0.74233	-6
0.74600	-6
0.74967	-7
0.75333	-6
0.75700	-4
0.76067	-4
0.76433	-3
0.76800	-1
0.77167	0
0.77533	0
0.77900	-1
0.78267	-3
0.78633	-5
0.79000	-5
0.79367	-6
0.79733	-6
0.80100	-6
0.80467	-7
0.80833	-7
0.81200	-9
0.81567	-11
0.81933	-12
0.82300	-12
0.82667	-10
0.83033	-7
0.83400	-2
0.83767	-1
0.84133	-2
0.84500	-4
0.84867	-3
0.85233	-2
0.85600	-1
0.85967	-2
0.86333	-6
0.86700	-8
0.87067	-7
0.87433	-6
0.87800	-5
0.88167	-5
0.88533	-5
0.88900	-4
0.89267	-6
0.89633	-7
0.90000	-6
0.90367	-7
0.90733	-7
0.91100	-5
0.91467	-5
0.91833	-3
0.92200	-0
0.92567	2
0.92933	2
0.93300	0
0.93667	-3
0.94033	-4
0.94400	-3
0.94767	-2
0.95133	-1
0.95500	-0
0.95867	0
0.96233	-2
0.96600	-2
0.96967	-1
0.97333	0
0.97700	0
0.98067	1
0.98433	1
0.98800	0
0.99167	-2
0.99533	-3
0.99900	-1
1.00267	1
1.00633	3
1.01000	3
1.01367	1
1.01733	-0
1.02100	-1
1.02467	-3
1.02833	-3
1.03200	-1
1.03567	0
1.03933	1
1.04300	1
1.04667	1
1.05033	1
1.05400	-0
1.05767	1
1.06133	1
1.06500	1
1.06867	-0
1.07233	0
1.07600	0
1.07967	-1
1.08333	-1
1.08700	0
1.09067	2
1.09433	3
1.09800	3
1.10167	4
1.10533	4
1.10900	5
1.11267	5
1.11633	3
1.12000	3
1.12367	6
1.12733	8
1.13100	9
1.13467	8
1.13833	7
1.14200	8
1.14567	9
1.14933	8
1.15300	8
1.15667	7
1.16033	3
1.16400	0
1.16767	-0
1.17133	0
1.17500	-1
1.17867	1
1.18233	6
1.18600	9
1.18967	9
1.19333	9
1.19700	9
1.20067	11
1.20433	9
1.20800	6
1.21167	5
1.21533	5
1.21900	3
1.22267	2
1.22633	-0
1.23000	1
1.23367	2
1.23733	1
1.24100	0
1.24467	0
1.24833	2
1.25200	3
1.25567	2
1.25933	2
1.26300	3
1.26667	4
1.27033	4
1.27400	5
1.27767	5
1.28133	5
1.28500	4
1.28867	4
1.29233	7
1.29600	9
1.29967	8
1.30333	7
1.30700	6
1.31067	6
1.31433	8
1.31800	10
1.32167	9
1.32533	6
1.32900	5
1.33267	5
1.33633	7
1.34000	7
1.34367	8
1.34733	8
1.35100	7
1.35467	7
1.35833	7
1.36200	6
1.36567	4
1.36933	3
1.37300	4
1.37667	6
1.38033	8
1.38400	7
1.38767	5
1.39133	4
1.39500	5
1.39867	6
1.40233	6
1.40600	5
1.40967	4
1.41333	3
1.41700	4
1.42067	4
1.42433	3
1.42800	5
1.43167	8
1.43533	8
1.43900	8
1.44267	10
1.44633	14
1.45000	15
1.45367	14
1.45733	13
1.46100	12
1.46467	12
1.46833	12
1.47200	12
1.47567	13
1.47933	13
1.48300	13
1.48667	11
1.49033	7
1.49400	8
1.49767	9
1.50133	9
1.50500	9
1.50867	7
1.51233	5
1.51600	6
1.51967	8
1.52333	10
1.52700	10
1.53067	9
1.53433	7
1.53800	6
1.54167	6
1.54533	6
1.54900	7
1.55267	8
1.55633	9
1.56000	10
1.56367	8
1.56733	6
1.57100	5
1.57467	5
1.57833	5
1.58200	4
1.58567	6
1.58933	7
1.59300	4
1.59667	3
1.60033	5
1.60400	9
1.60767	10
1.61133	9
1.61500	7
1.61867	5
1.62233	5
1.62600	6
1.62967	7
1.63333	8
1.63700	7
1.64067	4
1.64433	2
1.64800	1
1.65167	1
1.65533	4
1.65900	6
1.66267	9
1.66633	9
1.67000	8
1.67367	6
1.67733	6
1.68100	6
1.68467	6
1.68833	10
1.69200	12
1.69567	13
1.69933	15
1.70300	17
1.70667	18
1.71033	17
1.71400	11
1.71767	8
1.72133	7
1.72500	6
1.72867	6
1.73233	7
1.73600	9
1.73967	10
1.74333	11
1.74700	11
1.75067	11
1.75433	13
1.75800	15
1.76167	16
1.76533	18
1.76900	18
1.77267	18
1.77633	18
1.78000	17
1.78367	13
1.78733	11
1.79100	12
1.79467	13
1.79833	13
1.80200	15
1.80567	16
1.80933	16
1.81300	15
1.81667	15
1.82033	15
1.82400	15
1.82767	16
1.83133	16
1.83500	16
1.83867	15
1.84233	16
1.84600	19
1.84967	19
1.85333	20
1.85700	18
1.86067	17
1.86433	14
1.86800	14
1.87167	17
1.87533	18
1.87900	19
1.88267	20
1.88633	20
1.89000	18
1.89367	18
1.89733	18
1.90100	18
1.90467	21
1.90833	22
1.91200	22
1.91567	23
1.91933	24
1.92300	25
1.92667	24
1.93033	25
1.93400	25
1.93767	25
1.94133	25
1.94500	27
1.94867	29
1.95233	30
1.95600	28
1.95967	28
1.96333	27
1.96700	26
1.97067	26
1.97433	27
1.97800	30
1.98167	32
1.98533	35
1.98900	34
1.99267	31
1.99633	28
2.00000	28
2.00367	29
2.00733	31
2.01100	33
2.01467	34
2.01833	35
2.02200	36
2.02567	36
2.02933	37
2.03300	39
2.03667	39
2.04033	39
2.04400	39
2.04767	38
2.05133	37
2.05500	36
2.05867	36
2.06233	36
2.06600	39
2.06967	40
2.07333	41
2.07700	43
2.08067	43
2.08433	43
2.08800	42
2.09167	40
2.09533	39
2.09900	39
2.10267	39
2.10633	41
2.11000	45
2.11367	46
2.11733	45
2.12100	46
2.12467	47
2.12833	47
2.13200	47
2.13567	47
2.13933	49
2.14300	51
2.14667	52
2.15033	52
2.15400	51
2.15767	50
2.16133	51
2.16500	53
2.16867	55
2.17233	55
2.17600	55
2.17967	56
2.18333	57
2.18700	57
2.19067	57
2.19433	59
2.19800	62
2.20167	65
2.20533	64
2.20900	63
2.21267	63
2.21633	62
2.22000	62
2.22367	63
2.22733	67
2.23100	69
2.23467	69
2.23833	69
2.24200	70
2.24567	71
2.24933	70
2.25300	71
2.25667	71
2.26033	71
2.26400	71
2.26767	71
2.27133	71
2.27500	72
2.27867	73
2.28233	78
2.28600	80
2.28967	80
2.29333	80
2.29700	81
2.30067	81
2.30433	83
2.30800	83
2.31167	82
2.31533	84
2.31900	86
2.32267	87
2.32633	89
2.33000	94
2.33367	97
2.33733	98
2.34100	97
2.34467	97
2.34833	98
2.35200	97
2.35567	95
2.35933	96
2.36300	98
2.36667	99
2.37033	100
2.37400	102
2.37767	102
2.38133	102
2.38500	100
2.38867	99
2.39233	102
2.39600	105
2.39967	106
2.40333	110
2.40700	114
2.41067	117
2.41433	120
2.41800	122
2.42167	123
2.42533	125
2.42900	126
2.43267	126
2.43633	127
2.44000	129
2.44367	155
2.44733	231
2.45100	316
2.45467	384
2.45833	432
2.46200	446
2.46567	430
2.46933	406
2.47300	386
2.47667	371
2.48033	361
2.48400	354
2.48767	344
2.49133	330
2.49500	309
2.49867	288
2.50233	270
2.50600	254
2.50967	244
2.51333	237
2.51700	233
2.52067	230
2.52433	229
2.52800	234
2.53167	243
2.53533	253
2.53900	262
2.54267	270
2.54633	274
2.55000	275
2.55367	271
2.55733	263
2.56100	254
2.56467	242
2.56833	231
2.57200	222
2.57567	212
2.57933	203
2.58300	196
2.58667	191
2.59033	187
2.59400	183
2.59767	175
2.60133	162
2.60500	143
2.60867	120
2.61233	96
2.61600	72
2.61967	49
2.62333	27
2.62700	7
2.63067	-10
2.63433	-21
2.63800	-28
2.64167	-29
2.64533	-24
2.64900	-17
2.65267	-7
2.65633	5
2.66000	18
2.66367	30
2.66733	43
2.67100	54
2.67467	66
2.67833	77
2.68200	85
2.68567	91
2.68933	99
2.69300	103
2.69667	103
2.70033	108
2.70400	112
2.70767	113
2.71133	115
2.71500	116
2.71867	115
2.72233	115
2.72600	116
2.72967	117
2.73333	117
2.73700	117
2.74067	120
2.74433	121
2.74800	120
2.75167	122
2.75533	123
2.75900	123
2.76267	124
2.76633	126
2.77000	130
2.77367	133
2.77733	132
2.78100	130
2.78467	130
2.78833	133
2.79200	135
2.79567	136
2.79933	138
2.80300	138
2.80667	139
2.81033	143
2.81400	153
2.81767	184
2.82133	260
2.82500	427
2.82867	745
2.83233	1283
2.83600	2103
2.83967	3241
2.84333	4694
2.84700	6413
2.85067	8305
2.85433	10244
2.85800	12087
2.86167	13689
2.86533	14938
2.86900	15757
2.87267	16120
2.87633	16049
2.88000	15602
2.88367	14864
2.88733	13923
2.89100	12862
2.89467	11744
2.89833	10624
2.90200	9539
2.90567	8514
2.90933	7566
2.91300	6697
2.91667	5908
2.92033	5200
2.92400	4569
2.92767	4007
2.93133	3511
2.93500	3074
2.93867	2691
2.94233	2355
2.94600	2062
2.94967	1808
2.95333	1585
2.95700	1392
2.96067	1226
2.96433	1083
2.96800	959
2.97167	853
2.97533	758
2.97900	677
2.98267	609
2.98633	548
2.99000	495
2.99367	449
2.99733	411
3.00100	379
3.00467	349
3.00833	324
3.01200	304
3.01567	284
3.01933	267
3.02300	254
3.02667	243
3.03033	233
3.03400	225
3.03767	218
3.04133	209
3.04500	200
3.04867	192
3.05233	181
3.05600	172
3.05967	167
3.06333	165
3.06700	163
3.07067	160
3.07433	158
3.07800	153
3.08167	148
3.08533	142
3.08900	139
3.09267	138
3.09633	136
3.10000	134
3.10367	133
3.10733	132
3.11100	131
3.11467	129
3.11833	127
3.12200	124
3.12567	124
3.12933	125
3.13300	126
3.13667	125
3.14033	123
3.14400	120
3.14767	118
3.15133	117
3.15500	116
3.15867	116
3.16233	112
3.16600	113
3.16967	114
3.17333	112
3.17700	109
3.18067	109
3.18433	109
3.18800	108
3.19167	106
3.19533	103
3.19900	101
3.20267	99
3.20633	99
3.21000	100
3.21367	103
3.21733	104
3.22100	106
3.22467	108
3.22833	108
3.23200	104
3.23567	101
3.23933	100
3.24300	101
3.24667	102
3.25033	104
3.25400	106
3.25767	105
3.26133	102
3.26500	100
3.26867	100
3.27233	98
3.27600	96
3.27967	97
3.28333	100
3.28700	102
3.29067	102
3.29433	101
3.29800	99
3.30167	97
3.30533	95
3.30900	96
3.31267	98
3.31633	97
3.32000	96
3.32367	96
3.32733	96
3.33100	96
3.33467	96
3.33833	95
3.34200	95
3.34567	98
3.34933	100
3.35300	98
3.35667	96
3.36033	95
3.36400	96
3.36767	97
3.37133	96
3.37500	94
3.37867	92
3.38233	91
3.38600	92
3.38967	93
3.39333	95
3.39700	97
3.40067	98
3.40433	97
3.40800	93
3.41167	87
3.41533	84
3.41900	84
3.42267	85
3.42633	86
3.43000	88
3.43367	89
3.43733	88
3.44100	90
3.44467	91
3.44833	92
3.45200	91
3.45567	91
3.45933	93
3.46300	94
3.46667	95
3.47033	96
3.47400	94
3.47767	94
3.48133	96
3.48500	94
3.48867	93
3.49233	94
3.49600	96
3.49967	95
3.50333	94
3.50700	94
3.51067	94
3.51433	92
3.51800	94
3.52167	95
3.52533	93
3.52900	93
3.53267	93
3.53633	92
3.54000	92
3.54367	92
3.54733	92
3.55100	91
3.55467	91
3.55833	91
3.56200	91
3.56567	92
3.56933	93
3.57300	95
3.57667	97
3.58033	99
3.58400	99
3.58767	99
3.59133	100
3.59500	101
3.59867	100
3.60233	98
3.60600	97
3.60967	96
3.61333	96
3.61700	96
3.62067	91
3.62433	83
3.62800	69
3.63167	58
3.63533	50
3.63900	45
3.64267	41
3.64633	40
3.65000	41
3.65367	44
3.65733	50
3.66100	58
3.66467	66
3.66833	78
3.67200	92
3.67567	109
3.67933	127
3.68300	148
3.68667	171
3.69033	194
3.69400	217
3.69767	240
3.70133	263
3.70500	282
3.70867	297
3.71233	306
3.71600	316
3.71967	326
3.72333	334
3.72700	341
3.73067	348
3.73433	352
3.73800	354
3.74167	359
3.74533	365
3.74900	371
3.75267	374
3.75633	377
3.76000	380
3.76367	381
3.76733	381
3.77100	380
3.77467	380
3.77833	381
3.78200	383
3.78567	383
3.78933	384
3.79300	384
3.79667	385
3.80033	385
3.80400	384
3.80767	383
3.81133	385
3.81500	384
3.81867	383
3.82233	382
3.82600	381
3.82967	381
3.83333	379
3.83700	377
3.84067	377
3.84433	377
3.84800	378
3.85167	379
3.85533	379
3.85900	378
3.86267	376
3.86633	374
3.87000	371
3.87367	368
3.87733	365
3.88100	365
3.88467	365
3.88833	364
3.89200	364
3.89567	363
3.89933	362
3.90300	360
3.90667	359
3.91033	357
3.91400	354
3.91767	353
3.92133	353
3.92500	352
3.92867	352
3.93233	352
3.93600	354
3.93967	356
3.94333	355
3.94700	354
3.95067	352
3.95433	349
3.95800	349
3.96167	351
3.96533	351
3.96900	349
3.97267	348
3.97633	349
3.98000	349
3.98367	350
3.98733	352
3.99100	352
3.99467	350
3.99833	347

[Status Trace (Column Oven Temperature)]
Interval(msec)	1000
# of Points	240
Start Time(min)	0.016
End Time(min)	3.999
Intensity Units	
Intensity Multiplier	1
R.Time (min)	Intensity
0.01612	35.02
0.03278	35.01
0.04945	35.02
0.06612	35.03
0.08278	35.04
0.09945	35.03
0.11612	35.01
0.13278	35.02
0.14945	35.02
0.16612	35.03
0.18278	35.03
0.19945	35.02
0.21612	35.02
0.23278	35.02
0.24945	35.02
0.26612	35.01
0.28278	35.00
0.29945	34.99
0.31612	34.99
0.33278	34.99
0.34945	35.01
0.36612	35.02
0.38278	35.03
0.39945	35.03
0.41612	35.02
0.43278	35.03
0.44945	35.02
0.46612	35.02
0.48278	35.02
0.49945	35.03
0.51612	35.02
0.53278	35.01
0.54945	35.01
0.56612	35.01
0.58278	35.01
0.59945	35.02
0.61612	35.01
0.63278	35.00
0.64945	35.00
0.66612	34.99
0.68278	34.98
0.69945	34.97
0.71612	34.96
0.73278	34.97
0.74945	34.98
0.76612	34.98
0.78278	34.99
0.79945	34.98
0.81612	34.98
0.83278	34.97
0.84945	34.96
0.86612	34.96
0.88278	34.96
0.89945	34.97
0.91612	34.97
0.93278	34.98
0.94945	35.00
0.96612	35.00
0.98278	35.01
0.99945	35.01
1.01612	35.01
1.03278	35.02
1.04945	35.03
1.06612	35.02
1.08278	35.03
1.09945	35.03
1.11612	35.04
1.13278	35.03
1.14945	35.03
1.16612	35.03
1.18278	35.03
1.19945	35.02
1.21612	35.02
1.23278	35.02
1.24945	35.02
1.26612	35.00
1.28278	34.99
1.29945	34.97
1.31612	34.97
1.33278	34.98
1.34945	34.99
1.36612	34.99
1.38278	34.99
1.39945	34.99
1.41612	35.02
1.43278	35.03
1.44945	35.03
1.46612	35.01
1.48278	35.00
1.49945	34.99
1.51612	34.98
1.53278	34.97
1.54945	34.97
1.56612	34.98
1.58278	35.00
1.59945	35.03
1.61612	35.12
1.63278	35.28
1.64945	35.50
1.66612	35.78
1.68278	36.14
1.69945	36.49
1.71612	36.84
1.73278	37.20
1.74945	37.53
1.76612	37.83
1.78278	38.15
1.79945	38.49
1.81612	38.81
1.83278	39.14
1.84945	39.48
1.86612	39.82
1.88278	40.16
1.89945	40.48
1.91612	40.81
1.93278	41.12
1.94945	41.45
1.96612	41.77
1.98278	42.09
1.99945	42.43
2.01612	42.74
2.03278	43.07
2.04945	43.42
2.06612	43.75
2.08278	44.09
2.09945	44.41
2.11612	44.74
2.13278	45.05
2.14945	45.36
2.16612	45.70
2.18278	46.03
2.19945	46.37
2.21612	46.68
2.23278	47.01
2.24945	47.34
2.26612	47.67
2.28278	47.99
2.29945	48.33
2.31612	48.65
2.33278	48.99
2.34945	49.33
2.36612	49.54
2.38278	49.62
2.39945	49.62
2.41612	49.62
2.43278	49.64
2.44945	49.65
2.46612	49.65
2.48278	49.66
2.49945	49.69
2.51612	49.70
2.53278	49.72
2.54945	49.74
2.56612	49.75
2.58278	49.77
2.59945	49.78
2.61612	49.81
2.63278	49.81
2.64945	49.82
2.66612	49.85
2.68278	49.86
2.69945	49.87
2.71612	49.86
2.73278	49.84
2.74945	49.86
2.76612	49.89
2.78278	49.90
2.79945	49.91
2.81612	49.92
2.83278	49.91
2.84945	49.90
2.86612	49.91
2.88278	49.93
2.89945	49.94
2.91612	49.96
2.93278	49.97
2.94945	49.98
2.96612	49.98
2.98278	49.98
2.99945	49.99
3.01612	49.99
3.03278	49.99
3.04945	49.99
3.06612	50.00
3.08278	50.00
3.09945	50.01
3.11612	50.02
3.13278	50.03
3.14945	50.03
3.16612	50.05
3.18278	50.05
3.19945	50.07
3.21612	50.08
3.23278	50.09
3.24945	50.10
3.26612	50.10
3.28278	50.10
3.29945	50.10
3.31612	50.09
3.33278	50.09
3.34945	50.10
3.36612	50.10
3.38278	50.10
3.39945	50.09
3.41612	50.09
3.43278	50.10
3.44945	50.10
3.46612	50.10
3.48278	50.09
3.49945	50.08
3.51612	50.07
3.53278	50.05
3.54945	50.04
3.56612	50.04
3.58278	50.04
3.59945	50.04
3.61612	50.04
3.63278	50.04
3.64945	50.04
3.66612	50.04
3.68278	50.03
3.69945	50.03
3.71612	50.03
3.73278	50.03
3.74945	50.04
3.76612	50.05
3.78278	50.05
3.79945	50.05
3.81612	50.06
3.83278	50.05
3.84945	50.04
3.86612	50.03
3.88278	50.02
3.89945	50.02
3.91612	50.02
3.93278	50.03
3.94945	50.04
3.96612	50.04
3.98278	50.05
3.99945	50.06

[Status Trace (Injection Unit Temperature)]
Interval(msec)	1000
# of Points	240
Start Time(min)	0.016
End Time(min)	3.999
Intensity Units	
Intensity Multiplier	1
R.Time (min)	Intensity
0.01612	99.98
0.03278	99.98
0.04945	99.98
0.06612	99.98
0.08278	99.98
0.09945	99.98
0.11612	99.98
0.13278	99.98
0.14945	99.97
0.16612	99.98
0.18278	99.98
0.19945	99.98
0.21612	99.98
0.23278	99.97
0.24945	99.98
0.26612	99.98
0.28278	99.98
0.29945	99.98
0.31612	99.98
0.33278	99.98
0.34945	99.98
0.36612	99.98
0.38278	99.98
0.39945	99.98
0.41612	99.98
0.43278	99.98
0.44945	99.98
0.46612	99.98
0.48278	99.98
0.49945	99.98
0.51612	99.98
0.53278	99.98
0.54945	99.98
0.56612	99.98
0.58278	99.99
0.59945	99.98
0.61612	99.98
0.63278	99.98
0.64945	99.98
0.66612	99.98
0.68278	99.99
0.69945	99.99
0.71612	99.98
0.73278	99.99
0.74945	99.98
0.76612	99.98
0.78278	99.99
0.79945	99.98
0.81612	99.98
0.83278	99.98
0.84945	99.99
0.86612	99.98
0.88278	99.98
0.89945	99.98
0.91612	99.99
0.93278	99.98
0.94945	99.98
0.96612	99.98
0.98278	99.98
0.99945	99.99
1.01612	99.99
1.03278	99.98
1.04945	99.98
1.06612	99.99
1.08278	99.99
1.09945	99.98
1.11612	99.99
1.13278	99.99
1.14945	99.98
1.16612	99.99
1.18278	99.98
1.19945	99.99
1.21612	99.98
1.23278	99.98
1.24945	99.98
1.26612	99.98
1.28278	99.98
1.29945	99.97
1.31612	99.98
1.33278	99.98
1.34945	99.98
1.36612	99.98
1.38278	99.98
1.39945	99.98
1.41612	99.98
1.43278	99.98
1.44945	99.98
1.46612	99.98
1.48278	99.99
1.49945	99.98
1.51612	99.98
1.53278	99.98
1.54945	99.98
1.56612	99.98
1.58278	99.98
1.59945	99.98
1.61612	99.98
1.63278	99.98
1.64945	99.98
1.66612	99.98
1.68278	99.99
1.69945	99.98
1.71612	99.98
1.73278	99.98
1.74945	99.98
1.76612	99.98
1.78278	99.98
1.79945	99.99
1.81612	99.98
1.83278	99.98
1.84945	99.98
1.86612	99.98
1.88278	99.97
1.89945	99.98
1.91612	99.98
1.93278	99.98
1.94945	99.98
1.96612	99.97
1.98278	99.97
1.99945	99.97
2.01612	99.97
2.03278	99.97
2.04945	99.97
2.06612	99.97
2.08278	99.97
2.09945	99.97
2.11612	99.97
2.13278	99.96
2.14945	99.97
2.16612	99.97
2.18278	99.97
2.19945	99.97
2.21612	99.97
2.23278	99.96
2.24945	99.96
2.26612	99.96
2.28278	99.96
2.29945	99.96
2.31612	99.96
2.33278	99.96
2.34945	99.96
2.36612	99.96
2.38278	99.96
2.39945	99.96
2.41612	99.96
2.43278	99.96
2.44945	99.97
2.46612	99.96
2.48278	99.96
2.49945	99.96
2.51612	99.96
2.53278	99.97
2.54945	99.97
2.56612	99.97
2.58278	99.97
2.59945	99.97
2.61612	99.97
2.63278	99.97
2.64945	99.98
2.66612	99.98
2.68278	99.98
2.69945	99.98
2.71612	99.98
2.73278	99.99
2.74945	99.98
2.76612	99.99
2.78278	99.99
2.79945	99.99
2.81612	99.99
2.83278	100.00
2.84945	100.00
2.86612	100.00
2.88278	100.00
2.89945	100.00
2.91612	100.00
2.93278	100.00
2.94945	100.01
2.96612	100.01
2.98278	100.00
2.99945	100.01
3.01612	100.01
3.03278	100.02
3.04945	100.02
3.06612	100.02
3.08278	100.02
3.09945	100.02
3.11612	100.02
3.13278	100.03
3.14945	100.02
3.16612	100.02
3.18278	100.03
3.19945	100.02
3.21612	100.03
3.23278	100.03
3.24945	100.03
3.26612	100.03
3.28278	100.03
3.29945	100.03
3.31612	100.03
3.33278	100.04
3.34945	100.04
3.36612	100.03
3.38278	100.03
3.39945	100.04
3.41612	100.04
3.43278	100.04
3.44945	100.04
3.46612	100.04
3.48278	100.04
3.49945	100.04
3.51612	100.04
3.53278	100.05
3.54945	100.05
3.56612	100.04
3.58278	100.05
3.59945	100.05
3.61612	100.05
3.63278	100.05
3.64945	100.05
3.66612	100.05
3.68278	100.05
3.69945	100.05
3.71612	100.05
3.73278	100.05
3.74945	100.05
3.76612	100.05
3.78278	100.05
3.79945	100.05
3.81612	100.05
3.83278	100.05
3.84945	100.05
3.86612	100.05
3.88278	100.05
3.89945	100.05
3.91612	100.05
3.93278	100.05
3.94945	100.05
3.96612	100.05
3.98278	100.05
3.99945	100.05

[Status Trace (Carrier Gas Pressure)]
Interval(msec)	1000
# of Points	240
Start Time(min)	0.016
End Time(min)	3.999
Intensity Units	
Intensity Multiplier	1
R.Time (min)	Intensity
0.01612	56.89
0.03278	55.93
0.04945	58.17
0.06612	59.90
0.08278	58.47
0.09945	57.97
0.11612	58.00
0.13278	58.01
0.14945	58.01
0.16612	58.00
0.18278	58.00
0.19945	58.00
0.21612	58.00
0.23278	58.00
0.24945	58.00
0.26612	58.00
0.28278	58.00
0.29945	58.00
0.31612	58.00
0.33278	58.00
0.34945	58.00
0.36612	58.00
0.38278	58.00
0.39945	58.00
0.41612	58.00
0.43278	58.00
0.44945	58.00
0.46612	58.00
0.48278	58.00
0.49945	58.00
0.51612	58.00
0.53278	58.00
0.54945	58.00
0.56612	58.00
0.58278	58.00
0.59945	58.00
0.61612	58.00
0.63278	58.00
0.64945	58.00
0.66612	58.00
0.68278	58.00
0.69945	58.00
0.71612	58.00
0.73278	58.00
0.74945	58.00
0.76612	58.00
0.78278	58.00
0.79945	58.00
0.81612	58.00
0.83278	58.00
0.84945	58.00
0.86612	58.00
0.88278	58.00
0.89945	58.00
0.91612	58.00
0.93278	58.00
0.94945	58.00
0.96612	58.00
0.98278	58.00
0.99945	58.00
1.01612	58.00
1.03278	58.00
1.04945	58.00
1.06612	58.00
1.08278	58.00
1.09945	58.00
1.11612	58.00
1.13278	58.00
1.14945	58.00
1.16612	58.00
1.18278	58.00
1.19945	58.00
1.21612	58.00
1.23278	58.00
1.24945	58.00
1.26612	58.00
1.28278	58.00
1.29945	58.00
1.31612	58.00
1.33278	58.00
1.34945	58.00
1.36612	58.00
1.38278	58.00
1.39945	58.00
1.41612	58.00
1.43278	58.00
1.44945	58.00
1.46612	58.00
1.48278	58.00
1.49945	58.00
1.51612	58.00
1.53278	58.00
1.54945	58.00
1.56612	58.00
1.58278	58.00
1.59945	58.00
1.61612	58.00
1.63278	58.00
1.64945	58.00
1.66612	58.00
1.68278	58.01
1.69945	58.00
1.71612	58.00
1.73278	58.00
1.74945	58.00
1.76612	58.00
1.78278	58.00
1.79945	58.00
1.81612	58.00
1.83278	58.00
1.84945	58.00
1.86612	58.00
1.88278	58.00
1.89945	58.00
1.91612	58.00
1.93278	58.00
1.94945	58.00
1.96612	58.00
1.98278	58.00
1.99945	58.00
2.01612	58.00
2.03278	58.00
2.04945	58.00
2.06612	58.00
2.08278	58.00
2.09945	58.00
2.11612	58.00
2.13278	58.00
2.14945	58.00
2.16612	58.00
2.18278	58.00
2.19945	58.00
2.21612	58.00
2.23278	58.00
2.24945	58.00
2.26612	58.00
2.28278	58.00
2.29945	58.00
2.31612	58.00
2.33278	58.00
2.34945	58.00
2.36612	58.00
2.38278	57.99
2.39945	57.99
2.41612	58.00
2.43278	58.00
2.44945	58.00
2.46612	58.00
2.48278	58.00
2.49945	58.00
2.51612	57.98
2.53278	57.99
2.54945	58.00
2.56612	58.00
2.58278	58.00
2.59945	58.00
2.61612	58.00
2.63278	58.00
2.64945	58.00
2.66612	58.00
2.68278	58.00
2.69945	58.00
2.71612	58.00
2.73278	58.00
2.74945	58.00
2.76612	58.00
2.78278	58.00
2.79945	58.00
2.81612	58.00
2.83278	58.00
2.84945	58.00
2.86612	58.00
2.88278	58.00
2.89945	58.00
2.91612	58.00
2.93278	58.00
2.94945	58.00
2.96612	58.00
2.98278	58.00
2.99945	58.00
3.01612	58.00
3.03278	58.00
3.04945	58.00
3.06612	58.00
3.08278	58.00
3.09945	58.00
3.11612	58.00
3.13278	58.00
3.14945	58.00
3.16612	58.00
3.18278	58.00
3.19945	58.00
3.21612	58.00
3.23278	58.00
3.24945	58.00
3.26612	58.00
3.28278	58.00
3.29945	58.00
3.31612	58.00
3.33278	58.00
3.34945	58.00
3.36612	58.00
3.38278	58.00
3.39945	58.00
3.41612	58.00
3.43278	58.00
3.44945	58.00
3.46612	58.00
3.48278	58.00
3.49945	58.00
3.51612	58.00
3.53278	58.00
3.54945	58.00
3.56612	58.00
3.58278	58.00
3.59945	58.00
3.61612	58.00
3.63278	58.00
3.64945	58.00
3.66612	58.00
3.68278	58.00
3.69945	58.00
3.71612	58.00
3.73278	58.00
3.74945	58.00
3.76612	58.00
3.78278	58.00
3.79945	58.00
3.81612	58.00
3.83278	58.00
3.84945	58.00
3.86612	58.00
3.88278	58.00
3.89945	58.00
3.91612	58.00
3.93278	58.00
3.94945	58.00
3.96612	58.00
3.98278	58.00
3.99945	58.00

[Status Trace (Carrier Gas Flow)]
Interval(msec)	1000
# of Points	240
Start Time(min)	0.016
End Time(min)	3.999
Intensity Units	
Intensity Multiplier	1
R.Time (min)	Intensity
0.01612	33.83
0.03278	34.54
0.04945	34.55
0.06612	34.50
0.08278	34.51
0.09945	34.52
0.11612	34.51
0.13278	34.52
0.14945	34.52
0.16612	34.52
0.18278	34.52
0.19945	34.52
0.21612	34.52
0.23278	34.52
0.24945	34.52
0.26612	34.52
0.28278	34.52
0.29945	34.52
0.31612	34.52
0.33278	34.52
0.34945	34.52
0.36612	34.52
0.38278	34.52
0.39945	34.52
0.41612	34.52
0.43278	34.52
0.44945	34.52
0.46612	34.52
0.48278	34.51
0.49945	34.52
0.51612	34.52
0.53278	34.52
0.54945	34.51
0.56612	34.52
0.58278	34.52
0.59945	34.52
0.61612	34.52
0.63278	34.52
0.64945	34.52
0.66612	34.52
0.68278	34.51
0.69945	34.52
0.71612	34.52
0.73278	34.52
0.74945	34.52
0.76612	34.52
0.78278	34.53
0.79945	34.52
0.81612	34.52
0.83278	34.52
0.84945	34.51
0.86612	34.52
0.88278	34.52
0.89945	34.52
0.91612	34.52
0.93278	34.52
0.94945	34.52
0.96612	34.52
0.98278	34.52
0.99945	34.52
1.01612	34.52
1.03278	34.52
1.04945	34.52
1.06612	34.52
1.08278	34.52
1.09945	34.52
1.11612	34.52
1.13278	34.52
1.14945	34.51
1.16612	34.52
1.18278	34.52
1.19945	34.52
1.21612	34.52
1.23278	34.52
1.24945	34.52
1.26612	34.52
1.28278	34.52
1.29945	34.52
1.31612	34.52
1.33278	34.52
1.34945	34.52
1.36612	34.52
1.38278	34.52
1.39945	34.52
1.41612	34.52
1.43278	34.52
1.44945	34.52
1.46612	34.52
1.48278	34.52
1.49945	34.52
1.51612	34.52
1.53278	34.52
1.54945	34.52
1.56612	34.52
1.58278	34.52
1.59945	34.52
1.61612	34.52
1.63278	34.52
1.64945	34.52
1.66612	34.52
1.68278	34.52
1.69945	34.52
1.71612	34.51
1.73278	34.52
1.74945	34.52
1.76612	34.52
1.78278	34.52
1.79945	34.52
1.81612	34.52
1.83278	34.52
1.84945	34.52
1.86612	34.52
1.88278	34.52
1.89945	34.52
1.91612	34.52
1.93278	34.52
1.94945	34.52
1.96612	34.52
1.98278	34.52
1.99945	34.52
2.01612	34.52
2.03278	34.52
2.04945	34.52
2.06612	34.52
2.08278	34.52
2.09945	34.52
2.11612	34.52
2.13278	34.52
2.14945	34.52
2.16612	34.51
2.18278	34.52
2.19945	34.52
2.21612	34.52
2.23278	34.52
2.24945	34.52
2.26612	34.52
2.28278	34.52
2.29945	34.52
2.31612	34.52
2.33278	34.52
2.34945	34.52
2.36612	34.52
2.38278	34.52
2.39945	34.52
2.41612	34.52
2.43278	34.51
2.44945	34.52
2.46612	34.52
2.48278	34.52
2.49945	34.52
2.51612	34.51
2.53278	34.52
2.54945	34.52
2.56612	34.52
2.58278	34.52
2.59945	34.52
2.61612	34.52
2.63278	34.52
2.64945	34.52
2.66612	34.52
2.68278	34.51
2.69945	34.52
2.71612	34.52
2.73278	34.52
2.74945	34.52
2.76612	34.52
2.78278	34.52
2.79945	34.52
2.81612	34.52
2.83278	34.52
2.84945	34.52
2.86612	34.52
2.88278	34.52
2.89945	34.52
2.91612	34.52
2.93278	34.52
2.94945	34.52
2.96612	34.52
2.98278	34.52
2.99945	34.52
3.01612	34.52
3.03278	34.52
3.04945	34.52
3.06612	34.52
3.08278	34.52
3.09945	34.52
3.11612	34.52
3.13278	34.52
3.14945	34.52
3.16612	34.52
3.18278	34.52
3.19945	34.52
3.21612	34.52
3.23278	34.52
3.24945	34.52
3.26612	34.52
3.28278	34.52
3.29945	34.52
3.31612	34.52
3.33278	34.52
3.34945	34.52
3.36612	34.52
3.38278	34.52
3.39945	34.52
3.41612	34.52
3.43278	34.52
3.44945	34.52
3.46612	34.52
3.48278	34.52
3.49945	34.52
3.51612	34.52
3.53278	34.52
3.54945	34.52
3.56612	34.52
3.58278	34.52
3.59945	34.52
3.61612	34.52
3.63278	34.52
3.64945	34.52
3.66612	34.52
3.68278	34.52
3.69945	34.52
3.71612	34.52
3.73278	34.52
3.74945	34.52
3.76612	34.52
3.78278	34.52
3.79945	34.52
3.81612	34.52
3.83278	34.52
3.84945	34.52
3.86612	34.52
3.88278	34.51
3.89945	34.52
3.91612	34.52
3.93278	34.52
3.94945	34.52
3.96612	34.52
3.98278	34.52
3.99945	34.52

[Status Trace (Column Flow)]
Interval(msec)	1000
# of Points	240
Start Time(min)	0.016
End Time(min)	3.999
Intensity Units	
Intensity Multiplier	1
R.Time (min)	Intensity
0.01612	5.44
0.03278	5.33
0.04945	5.59
0.06612	5.80
0.08278	5.63
0.09945	5.57
0.11612	5.57
0.13278	5.57
0.14945	5.57
0.16612	5.57
0.18278	5.57
0.19945	5.57
0.21612	5.57
0.23278	5.57
0.24945	5.57
0.26612	5.57
0.28278	5.57
0.29945	5.57
0.31612	5.57
0.33278	5.57
0.34945	5.57
0.36612	5.57
0.38278	5.57
0.39945	5.57
0.41612	5.57
0.43278	5.57
0.44945	5.57
0.46612	5.57
0.48278	5.57
0.49945	5.57
0.51612	5.57
0.53278	5.57
0.54945	5.57
0.56612	5.57
0.58278	5.57
0.59945	5.57
0.61612	5.57
0.63278	5.57
0.64945	5.57
0.66612	5.57
0.68278	5.57
0.69945	5.57
0.71612	5.58
0.73278	5.58
0.74945	5.57
0.76612	5.57
0.78278	5.57
0.79945	5.57
0.81612	5.57
0.83278	5.57
0.84945	5.57
0.86612	5.58
0.88278	5.57
0.89945	5.58
0.91612	5.57
0.93278	5.57
0.94945	5.57
0.96612	5.57
0.98278	5.57
0.99945	5.57
1.01612	5.57
1.03278	5.57
1.04945	5.57
1.06612	5.57
1.08278	5.57
1.09945	5.57
1.11612	5.57
1.13278	5.57
1.14945	5.57
1.16612	5.57
1.18278	5.57
1.19945	5.57
1.21612	5.57
1.23278	5.57
1.24945	5.57
1.26612	5.57
1.28278	5.57
1.29945	5.57
1.31612	5.57
1.33278	5.57
1.34945	5.57
1.36612	5.57
1.38278	5.57
1.39945	5.57
1.41612	5.57
1.43278	5.57
1.44945	5.57
1.46612	5.57
1.48278	5.57
1.49945	5.57
1.51612	5.57
1.53278	5.57
1.54945	5.57
1.56612	5.57
1.58278	5.57
1.59945	5.57
1.61612	5.57
1.63278	5.57
1.64945	5.56
1.66612	5.55
1.68278	5.54
1.69945	5.53
1.71612	5.52
1.73278	5.50
1.74945	5.50
1.76612	5.49
1.78278	5.48
1.79945	5.47
1.81612	5.45
1.83278	5.44
1.84945	5.44
1.86612	5.42
1.88278	5.41
1.89945	5.40
1.91612	5.39
1.93278	5.38
1.94945	5.38
1.96612	5.36
1.98278	5.35
1.99945	5.35
2.01612	5.34
2.03278	5.33
2.04945	5.32
2.06612	5.31
2.08278	5.30
2.09945	5.29
2.11612	5.28
2.13278	5.27
2.14945	5.26
2.16612	5.25
2.18278	5.24
2.19945	5.23
2.21612	5.22
2.23278	5.21
2.24945	5.20
2.26612	5.19
2.28278	5.18
2.29945	5.17
2.31612	5.16
2.33278	5.16
2.34945	5.15
2.36612	5.14
2.38278	5.14
2.39945	5.14
2.41612	5.14
2.43278	5.14
2.44945	5.14
2.46612	5.14
2.48278	5.14
2.49945	5.14
2.51612	5.13
2.53278	5.13
2.54945	5.13
2.56612	5.13
2.58278	5.13
2.59945	5.13
2.61612	5.13
2.63278	5.13
2.64945	5.13
2.66612	5.13
2.68278	5.13
2.69945	5.13
2.71612	5.13
2.73278	5.13
2.74945	5.13
2.76612	5.13
2.78278	5.13
2.79945	5.13
2.81612	5.13
2.83278	5.13
2.84945	5.13
2.86612	5.13
2.88278	5.13
2.89945	5.13
2.91612	5.13
2.93278	5.13
2.94945	5.13
2.96612	5.13
2.98278	5.13
2.99945	5.13
3.01612	5.13
3.03278	5.13
3.04945	5.13
3.06612	5.13
3.08278	5.13
3.09945	5.13
3.11612	5.13
3.13278	5.13
3.14945	5.13
3.16612	5.13
3.18278	5.13
3.19945	5.12
3.21612	5.12
3.23278	5.12
3.24945	5.12
3.26612	5.12
3.28278	5.12
3.29945	5.12
3.31612	5.12
3.33278	5.12
3.34945	5.12
3.36612	5.12
3.38278	5.12
3.39945	5.12
3.41612	5.12
3.43278	5.12
3.44945	5.12
3.46612	5.12
3.48278	5.12
3.49945	5.12
3.51612	5.12
3.53278	5.13
3.54945	5.13
3.56612	5.13
3.58278	5.13
3.59945	5.13
3.61612	5.13
3.63278	5.13
3.64945	5.13
3.66612	5.13
3.68278	5.13
3.69945	5.13
3.71612	5.13
3.73278	5.13
3.74945	5.13
3.76612	5.13
3.78278	5.13
3.79945	5.13
3.81612	5.13
3.83278	5.13
3.84945	5.13
3.86612	5.13
3.88278	5.13
3.89945	5.13
3.91612	5.13
3.93278	5.13
3.94945	5.13
3.96612	5.13
3.98278	5.13
3.99945	5.13

[Status Trace (Linear Velocity)]
Interval(msec)	1000
# of Points	240
Start Time(min)	0.016
End Time(min)	3.999
Intensity Units	
Intensity Multiplier	1
R.Time (min)	Intensity
0.01612	38.30
0.03278	37.67
0.04945	39.14
0.06612	40.27
0.08278	39.33
0.09945	39.01
0.11612	39.03
0.13278	39.03
0.14945	39.03
0.16612	39.03
0.18278	39.03
0.19945	39.03
0.21612	39.03
0.23278	39.03
0.24945	39.03
0.26612	39.03
0.28278	39.03
0.29945	39.03
0.31612	39.03
0.33278	39.03
0.34945	39.03
0.36612	39.03
0.38278	39.03
0.39945	39.03
0.41612	39.03
0.43278	39.03
0.44945	39.03
0.46612	39.03
0.48278	39.03
0.49945	39.03
0.51612	39.03
0.53278	39.03
0.54945	39.03
0.56612	39.03
0.58278	39.03
0.59945	39.03
0.61612	39.03
0.63278	39.03
0.64945	39.03
0.66612	39.03
0.68278	39.03
0.69945	39.03
0.71612	39.03
0.73278	39.03
0.74945	39.03
0.76612	39.03
0.78278	39.03
0.79945	39.03
0.81612	39.03
0.83278	39.03
0.84945	39.03
0.86612	39.03
0.88278	39.03
0.89945	39.03
0.91612	39.03
0.93278	39.03
0.94945	39.03
0.96612	39.03
0.98278	39.03
0.99945	39.03
1.01612	39.03
1.03278	39.03
1.04945	39.03
1.06612	39.03
1.08278	39.03
1.09945	39.03
1.11612	39.02
1.13278	39.03
1.14945	39.03
1.16612	39.03
1.18278	39.03
1.19945	39.03
1.21612	39.03
1.23278	39.03
1.24945	39.03
1.26612	39.03
1.28278	39.03
1.29945	39.03
1.31612	39.03
1.33278	39.03
1.34945	39.03
1.36612	39.03
1.38278	39.03
1.39945	39.03
1.41612	39.03
1.43278	39.03
1.44945	39.03
1.46612	39.03
1.48278	39.03
1.49945	39.03
1.51612	39.03
1.53278	39.03
1.54945	39.03
1.56612	39.03
1.58278	39.03
1.59945	39.03
1.61612	39.02
1.63278	39.00
1.64945	38.99
1.66612	38.96
1.68278	38.92
1.69945	38.89
1.71612	38.85
1.73278	38.82
1.74945	38.79
1.76612	38.76
1.78278	38.73
1.79945	38.70
1.81612	38.67
1.83278	38.64
1.84945	38.61
1.86612	38.57
1.88278	38.54
1.89945	38.51
1.91612	38.48
1.93278	38.45
1.94945	38.42
1.96612	38.39
1.98278	38.36
1.99945	38.33
2.01612	38.30
2.03278	38.27
2.04945	38.24
2.06612	38.21
2.08278	38.18
2.09945	38.15
2.11612	38.12
2.13278	38.09
2.14945	38.06
2.16612	38.03
2.18278	38.00
2.19945	37.97
2.21612	37.94
2.23278	37.91
2.24945	37.88
2.26612	37.85
2.28278	37.82
2.29945	37.80
2.31612	37.76
2.33278	37.73
2.34945	37.71
2.36612	37.68
2.38278	37.67
2.39945	37.67
2.41612	37.68
2.43278	37.68
2.44945	37.67
2.46612	37.67
2.48278	37.67
2.49945	37.67
2.51612	37.66
2.53278	37.66
2.54945	37.67
2.56612	37.67
2.58278	37.66
2.59945	37.66
2.61612	37.66
2.63278	37.66
2.64945	37.66
2.66612	37.66
2.68278	37.66
2.69945	37.66
2.71612	37.66
2.73278	37.66
2.74945	37.66
2.76612	37.65
2.78278	37.65
2.79945	37.65
2.81612	37.65
2.83278	37.65
2.84945	37.65
2.86612	37.65
2.88278	37.65
2.89945	37.65
2.91612	37.65
2.93278	37.65
2.94945	37.65
2.96612	37.65
2.98278	37.65
2.99945	37.65
3.01612	37.65
3.03278	37.65
3.04945	37.64
3.06612	37.64
3.08278	37.64
3.09945	37.64
3.11612	37.64
3.13278	37.64
3.14945	37.64
3.16612	37.64
3.18278	37.64
3.19945	37.64
3.21612	37.64
3.23278	37.64
3.24945	37.64
3.26612	37.64
3.28278	37.64
3.29945	37.64
3.31612	37.64
3.33278	37.64
3.34945	37.64
3.36612	37.64
3.38278	37.64
3.39945	37.64
3.41612	37.64
3.43278	37.64
3.44945	37.64
3.46612	37.64
3.48278	37.64
3.49945	37.64
3.51612	37.64
3.53278	37.64
3.54945	37.64
3.56612	37.64
3.58278	37.64
3.59945	37.64
3.61612	37.64
3.63278	37.64
3.64945	37.64
3.66612	37.64
3.68278	37.64
3.69945	37.64
3.71612	37.64
3.73278	37.64
3.74945	37.64
3.76612	37.64
3.78278	37.64
3.79945	37.64
3.81612	37.64
3.83278	37.64
3.84945	37.64
3.86612	37.64
3.88278	37.64
3.89945	37.64
3.91612	37.64
3.93278	37.64
3.94945	37.64
3.96612	37.64
3.98278	37.64
3.99945	37.64

