[Header]
Application Name	LabSolutions
Version	5.110
Data File Name	C:\Users\User\Desktop\GC Analyses\Jack\Nachusa Grasslands Sampling\T1 Timepoint July 12th\T1_07122022_026.gcd
Output Date	3/14/2023
Output Time	3:40:58 PM

[File Information]
Type	Data File
Generated	3/8/2023 4:02:45 PM
Generated by	System Administrator
Modified	3/8/2023 4:09:33 PM
Modified by	System Administrator

[Sample Information]
Operator Name	System Administrator
Acquired	3/8/2023 4:05:31 PM
Sample Type	0:Unknown
Level	0
Sample Name	026
Sample ID	026
ISTD Amount1	1
ISTD Amount2	1
ISTD Amount3	1
ISTD Amount4	1
ISTD Amount5	1
ISTD Amount6	1
ISTD Amount7	1
ISTD Amount8	1
ISTD Amount9	1
ISTD Amount10	1
ISTD Amount11	1
ISTD Amount12	1
ISTD Amount13	1
ISTD Amount14	1
ISTD Amount15	1
ISTD Amount16	1
ISTD Amount17	1
ISTD Amount18	1
ISTD Amount19	1
ISTD Amount20	1
ISTD Amount21	1
ISTD Amount22	1
ISTD Amount23	1
ISTD Amount24	1
ISTD Amount25	1
ISTD Amount26	1
ISTD Amount27	1
ISTD Amount28	1
ISTD Amount29	1
ISTD Amount30	1
ISTD Amount31	1
ISTD Amount32	1
Sample Amount	1
Dilution Factor	1
Vial#	25
Injection Volume	1
Injection Count	1
Bar Code	

[Original Files]
Data File	C:\Users\User\Desktop\GC Analyses\Jack\Nachusa Grasslands Sampling\T1 Timepoint July 12th\T1_07122022_026.gcd
Method File	C:\LabSolutions\Data\GHG_4min_2022\ghg3_togas_w_acet_4 min_new_int.gcm
Batch File	C:\LabSolutions\Data\AutoSamplerTesting\T1_07122022.gcb
Report Format File	c:\LabSolutions\System\DEFAULT.lsr

[File Description]


[Configuration]
Instrument Name	C0B7VH3-Instrument1
Instrument #	1
Line #	1
# of Detectors	3
Detector ID	DET#1	DET#2	DET#3
Detector Name	FID	PTCD	ECD
# of Channels	1	1	1

[Peak Table(Ch1)]
# of Peaks	3
Peak#	R.Time	I.Time	F.Time	Area	Height	A/H	Conc.	Mark	ID#	Name	k'	Plate #	Plate Ht.	Tailing	Resolution	Sep.Factor	Area Ratio	Height Ratio	Conc. %	Norm Conc.
1	1.476	1.424	1.538	27020	12692	2.129	190.762	   	1	CO	0.000	9287	16.151	1.313	0.000	0.000	0	0	25.790	25.790
2	1.567	1.538	1.622	4663	2291	2.035	90.172	 V 	2	CH4	0.062	10679	14.046	0.000	1.504	0.000	0	0	12.191	12.191
3	1.996	1.952	2.480	1827814	867186	2.108	458.732	   	3	CO2	0.353	17287	8.677	1.298	7.068	5.680	0	0	62.019	62.019

[Peak Table(Ch2)]
# of Peaks	0

[Peak Table(Ch3)]
# of Peaks	5
Peak#	R.Time	I.Time	F.Time	Area	Height	A/H	Conc.	Mark	ID#	Name	k'	Plate #	Plate Ht.	Tailing	Resolution	Sep.Factor	Area Ratio	Height Ratio	Conc. %	Norm Conc.
1	2.462	2.216	2.513	2050	459	4.468	0.000	   			0.000	7376	20.336	0.000	0.000	0.000	0	0	0.000	0.000
2	2.543	2.513	2.638	1245	276	4.513	0.000	 V 			0.033	2744	54.669	0.000	0.522	0.000	0	0	0.000	0.000
3	2.689	2.642	2.733	387	93	4.157	0.000	   			0.092	2284	65.680	0.000	0.700	2.818	0	0	0.000	0.000
4	2.873	2.733	3.111	20217	4888	4.136	0.516	 V 	1	N2O	0.167	12990	11.547	1.785	1.125	1.806	0	0	100.000	100.000
5	3.239	3.118	3.995	13946	506	27.556	0.000	   	2	SF6	0.316	347	432.874	3.547	0.920	1.893	0	0	0.000	0.000

[Compound Results(Ch1)]
# of IDs	6
ID#	Name	R.Time	Area	Height	Conc.	Curve	3rd	2nd	1st	Constant	Area Ratio	Height Ratio	Conc. %	Norm Conc.
1	CO	1.476	27020	12692	190.762	Linear	0.000000e+00	0.000000e+00	1.416423e+002	0.000000e+00	0	0	25.790	25.790
2	CH4	1.567	4663	2291	90.172	Linear	0.000000e+00	0.000000e+00	5.171738e+001	0.000000e+00	0	0	12.191	12.191
3	CO2	1.996	1827814	867186	458.732	Linear	0.000000e+00	0.000000e+00	3.984494e+003	0.000000e+00	0	0	62.019	62.019
4	Ethylene	0.000	0	0	0.000	Linear	0.000000e+00	0.000000e+00	0.000000e+00	0.000000e+00	0	0	0.000	0.000
5	Acetylene	0.000	0	0	0.000	Linear	0.000000e+00	0.000000e+00	0.000000e+00	0.000000e+00	0	0	0.000	0.000
6	Ethane	0.000	0	0	0.000	Linear	0.000000e+00	0.000000e+00	0.000000e+00	0.000000e+00	0	0	0.000	0.000

[Compound Results(Ch2)]
# of IDs	5
ID#	Name	R.Time	Area	Height	Conc.	Curve	3rd	2nd	1st	Constant	Area Ratio	Height Ratio	Conc. %	Norm Conc.
1	Hydrogen	0.000	0	0	0.000	Linear	0.000000e+00	0.000000e+00	0.000000e+00	0.000000e+00	0	0	0.000	0.000
2	Oxygen	0.000	0	0	0.000	Linear	0.000000e+00	0.000000e+00	0.000000e+00	0.000000e+00	0	0	0.000	0.000
3	Nitrogen	0.000	0	0	0.000	Linear	0.000000e+00	0.000000e+00	0.000000e+00	0.000000e+00	0	0	0.000	0.000
4	Methane	0.000	0	0	0.000	Linear	0.000000e+00	0.000000e+00	0.000000e+00	0.000000e+00	0	0	0.000	0.000
5	Carbon Monoxide	0.000	0	0	0.000	Linear	0.000000e+00	0.000000e+00	0.000000e+00	0.000000e+00	0	0	0.000	0.000

[Compound Results(Ch3)]
# of IDs	2
ID#	Name	R.Time	Area	Height	Conc.	Curve	3rd	2nd	1st	Constant	Area Ratio	Height Ratio	Conc. %	Norm Conc.
1	N2O	2.873	20217	4888	0.516	Linear	0.000000e+00	0.000000e+00	3.915173e+004	0.000000e+00	0	0	100.000	100.000
2	SF6	3.239	13946	506	0.000	Linear	0.000000e+00	0.000000e+00	0.000000e+00	0.000000e+00	0	0	0.000	0.000

[Group Results(Ch1)]
# of Groups	0

[Group Results(Ch2)]
# of Groups	0

[Group Results(Ch3)]
# of Groups	0

[Chromatogram (Ch1)]
Interval(msec)	220
# of Points	1091
Start Time(min)	0.002
End Time(min)	3.998
R.Time (min)	Intensity
0.00167	-17
0.00533	-12
0.00900	-7
0.01267	-3
0.01633	1
0.02000	-2
0.02367	-12
0.02733	-21
0.03100	-25
0.03467	-21
0.03833	-14
0.04200	-13
0.04567	-17
0.04933	-24
0.05300	-30
0.05667	-30
0.06033	-27
0.06400	-23
0.06767	-16
0.07133	-8
0.07500	-3
0.07867	-1
0.08233	2
0.08600	6
0.08967	9
0.09333	13
0.09700	18
0.10067	18
0.10433	17
0.10800	18
0.11167	18
0.11533	13
0.11900	7
0.12267	6
0.12633	9
0.13000	15
0.13367	17
0.13733	20
0.14100	27
0.14467	37
0.14833	43
0.15200	45
0.15567	44
0.15933	40
0.16300	32
0.16667	25
0.17033	18
0.17400	13
0.17767	15
0.18133	22
0.18500	34
0.18867	44
0.19233	45
0.19600	40
0.19967	35
0.20333	29
0.20700	23
0.21067	18
0.21433	14
0.21800	11
0.22167	13
0.22533	16
0.22900	17
0.23267	20
0.23633	25
0.24000	31
0.24367	34
0.24733	31
0.25100	24
0.25467	15
0.25833	9
0.26200	8
0.26567	8
0.26933	6
0.27300	2
0.27667	-3
0.28033	-5
0.28400	-4
0.28767	-3
0.29133	-1
0.29500	-2
0.29867	-6
0.30233	-13
0.30600	-16
0.30967	-14
0.31333	-9
0.31700	-4
0.32067	1
0.32433	7
0.32800	10
0.33167	7
0.33533	3
0.33900	1
0.34267	3
0.34633	6
0.35000	9
0.35367	11
0.35733	7
0.36100	-1
0.36467	-9
0.36833	-13
0.37200	-14
0.37567	-14
0.37933	-17
0.38300	-19
0.38667	-18
0.39033	-18
0.39400	-17
0.39767	-15
0.40133	-13
0.40500	-11
0.40867	-7
0.41233	-3
0.41600	-2
0.41967	-2
0.42333	-3
0.42700	-2
0.43067	-1
0.43433	-3
0.43800	-8
0.44167	-12
0.44533	-16
0.44900	-20
0.45267	-25
0.45633	-27
0.46000	-21
0.46367	-8
0.46733	3
0.47100	0
0.47467	-10
0.47833	-15
0.48200	-18
0.48567	-18
0.48933	-12
0.49300	-3
0.49667	8
0.50033	8
0.50400	-0
0.50767	-8
0.51133	-13
0.51500	-13
0.51867	-11
0.52233	-8
0.52600	-9
0.52967	-14
0.53333	-15
0.53700	-12
0.54067	-6
0.54433	1
0.54800	9
0.55167	13
0.55533	13
0.55900	9
0.56267	7
0.56633	8
0.57000	9
0.57367	7
0.57733	4
0.58100	5
0.58467	7
0.58833	8
0.59200	6
0.59567	6
0.59933	9
0.60300	14
0.60667	19
0.61033	21
0.61400	20
0.61767	17
0.62133	14
0.62500	18
0.62867	25
0.63233	30
0.63600	29
0.63967	21
0.64333	5
0.64700	-13
0.65067	-24
0.65433	-28
0.65800	-29
0.66167	-26
0.66533	-23
0.66900	-21
0.67267	-21
0.67633	-23
0.68000	-24
0.68367	-22
0.68733	-22
0.69100	-20
0.69467	-15
0.69833	-6
0.70200	3
0.70567	11
0.70933	18
0.71300	23
0.71667	27
0.72033	28
0.72400	25
0.72767	19
0.73133	11
0.73500	6
0.73867	1
0.74233	-6
0.74600	-13
0.74967	-16
0.75333	-18
0.75700	-22
0.76067	-24
0.76433	-21
0.76800	-18
0.77167	-14
0.77533	-10
0.77900	-8
0.78267	-6
0.78633	-3
0.79000	-0
0.79367	2
0.79733	5
0.80100	9
0.80467	11
0.80833	12
0.81200	12
0.81567	13
0.81933	13
0.82300	13
0.82667	16
0.83033	23
0.83400	25
0.83767	22
0.84133	15
0.84500	9
0.84867	5
0.85233	0
0.85600	-6
0.85967	-8
0.86333	-6
0.86700	-2
0.87067	2
0.87433	5
0.87800	6
0.88167	5
0.88533	5
0.88900	7
0.89267	8
0.89633	7
0.90000	7
0.90367	10
0.90733	15
0.91100	19
0.91467	20
0.91833	18
0.92200	15
0.92567	12
0.92933	9
0.93300	7
0.93667	6
0.94033	4
0.94400	3
0.94767	4
0.95133	6
0.95500	9
0.95867	13
0.96233	16
0.96600	12
0.96967	3
0.97333	-3
0.97700	-4
0.98067	-3
0.98433	-2
0.98800	-3
0.99167	-4
0.99533	-1
0.99900	7
1.00267	18
1.00633	25
1.01000	24
1.01367	16
1.01733	5
1.02100	-4
1.02467	-9
1.02833	-11
1.03200	-14
1.03567	-14
1.03933	-9
1.04300	-3
1.04667	2
1.05033	4
1.05400	5
1.05767	2
1.06133	5
1.06500	11
1.06867	18
1.07233	26
1.07600	30
1.07967	31
1.08333	32
1.08700	32
1.09067	34
1.09433	37
1.09800	41
1.10167	46
1.10533	47
1.10900	41
1.11267	36
1.11633	30
1.12000	26
1.12367	24
1.12733	21
1.13100	17
1.13467	14
1.13833	16
1.14200	23
1.14567	36
1.14933	48
1.15300	52
1.15667	46
1.16033	37
1.16400	30
1.16767	24
1.17133	20
1.17500	19
1.17867	19
1.18233	19
1.18600	18
1.18967	17
1.19333	19
1.19700	17
1.20067	12
1.20433	9
1.20800	9
1.21167	10
1.21533	11
1.21900	14
1.22267	21
1.22633	30
1.23000	38
1.23367	44
1.23733	50
1.24100	57
1.24467	59
1.24833	54
1.25200	45
1.25567	37
1.25933	33
1.26300	34
1.26667	41
1.27033	47
1.27400	48
1.27767	40
1.28133	28
1.28500	14
1.28867	2
1.29233	-3
1.29600	-3
1.29967	1
1.30333	4
1.30700	5
1.31067	9
1.31433	19
1.31800	33
1.32167	45
1.32533	56
1.32900	56
1.33267	46
1.33633	30
1.34000	16
1.34367	10
1.34733	7
1.35100	9
1.35467	10
1.35833	7
1.36200	2
1.36567	2
1.36933	3
1.37300	7
1.37667	7
1.38033	5
1.38400	6
1.38767	8
1.39133	7
1.39500	6
1.39867	6
1.40233	7
1.40600	7
1.40967	5
1.41333	-0
1.41700	-4
1.42067	-1
1.42433	8
1.42800	16
1.43167	22
1.43533	27
1.43900	53
1.44267	151
1.44633	384
1.45000	926
1.45367	2150
1.45733	4172
1.46100	6603
1.46467	8922
1.46833	10810
1.47200	12115
1.47567	12723
1.47933	12521
1.48300	11505
1.48667	9872
1.49033	7968
1.49400	6130
1.49767	4561
1.50133	3325
1.50500	2407
1.50867	1750
1.51233	1284
1.51600	954
1.51967	720
1.52333	553
1.52700	432
1.53067	348
1.53433	297
1.53800	281
1.54167	327
1.54533	495
1.54900	807
1.55267	1215
1.55633	1627
1.56000	1975
1.56367	2228
1.56733	2362
1.57100	2350
1.57467	2170
1.57833	1852
1.58200	1472
1.58567	1106
1.58933	800
1.59300	567
1.59667	402
1.60033	291
1.60400	216
1.60767	164
1.61133	132
1.61500	114
1.61867	103
1.62233	95
1.62600	95
1.62967	97
1.63333	91
1.63700	78
1.64067	63
1.64433	54
1.64800	52
1.65167	52
1.65533	50
1.65900	45
1.66267	39
1.66633	34
1.67000	30
1.67367	30
1.67733	30
1.68100	29
1.68467	31
1.68833	37
1.69200	41
1.69567	39
1.69933	35
1.70300	26
1.70667	16
1.71033	10
1.71400	7
1.71767	8
1.72133	13
1.72500	22
1.72867	27
1.73233	29
1.73600	27
1.73967	20
1.74333	14
1.74700	12
1.75067	13
1.75433	15
1.75800	20
1.76167	27
1.76533	35
1.76900	41
1.77267	44
1.77633	46
1.78000	46
1.78367	45
1.78733	43
1.79100	38
1.79467	32
1.79833	22
1.80200	14
1.80567	10
1.80933	11
1.81300	13
1.81667	10
1.82033	9
1.82400	14
1.82767	20
1.83133	22
1.83500	24
1.83867	27
1.84233	33
1.84600	41
1.84967	49
1.85333	51
1.85700	47
1.86067	41
1.86433	34
1.86800	25
1.87167	19
1.87533	17
1.87900	17
1.88267	19
1.88633	19
1.89000	20
1.89367	21
1.89733	23
1.90100	24
1.90467	25
1.90833	29
1.91200	37
1.91567	48
1.91933	59
1.92300	66
1.92667	70
1.93033	69
1.93400	65
1.93767	61
1.94133	56
1.94500	50
1.94867	45
1.95233	60
1.95600	206
1.95967	1079
1.96333	5074
1.96700	18865
1.97067	55256
1.97433	129843
1.97800	249997
1.98167	405161
1.98533	569873
1.98900	715765
1.99267	819857
1.99633	867289
2.00000	852827
2.00367	782356
2.00733	671971
2.01100	543549
2.01467	417650
2.01833	308097
2.02200	220731
2.02567	155326
2.02933	108499
2.03300	75964
2.03667	53773
2.04033	38778
2.04400	28664
2.04767	21807
2.05133	17104
2.05500	13821
2.05867	11479
2.06233	9765
2.06600	8483
2.06967	7499
2.07333	6726
2.07700	6107
2.08067	5600
2.08433	5170
2.08800	4797
2.09167	4473
2.09533	4195
2.09900	3952
2.10267	3736
2.10633	3542
2.11000	3368
2.11367	3211
2.11733	3064
2.12100	2927
2.12467	2794
2.12833	2664
2.13200	2542
2.13567	2432
2.13933	2337
2.14300	2254
2.14667	2180
2.15033	2113
2.15400	2050
2.15767	1987
2.16133	1923
2.16500	1859
2.16867	1801
2.17233	1750
2.17600	1704
2.17967	1663
2.18333	1626
2.18700	1589
2.19067	1551
2.19433	1511
2.19800	1472
2.20167	1433
2.20533	1398
2.20900	1366
2.21267	1336
2.21633	1308
2.22000	1285
2.22367	1262
2.22733	1234
2.23100	1204
2.23467	1180
2.23833	1164
2.24200	1150
2.24567	1133
2.24933	1115
2.25300	1091
2.25667	1064
2.26033	1039
2.26400	1019
2.26767	1006
2.27133	994
2.27500	979
2.27867	961
2.28233	940
2.28600	920
2.28967	905
2.29333	897
2.29700	890
2.30067	882
2.30433	872
2.30800	860
2.31167	846
2.31533	836
2.31900	828
2.32267	817
2.32633	804
2.33000	793
2.33367	785
2.33733	773
2.34100	763
2.34467	757
2.34833	755
2.35200	755
2.35567	756
2.35933	755
2.36300	752
2.36667	746
2.37033	729
2.37400	711
2.37767	696
2.38133	680
2.38500	668
2.38867	660
2.39233	652
2.39600	647
2.39967	648
2.40333	651
2.40700	656
2.41067	660
2.41433	661
2.41800	659
2.42167	659
2.42533	657
2.42900	657
2.43267	656
2.43633	649
2.44000	644
2.44367	643
2.44733	642
2.45100	641
2.45467	637
2.45833	630
2.46200	622
2.46567	611
2.46933	601
2.47300	594
2.47667	586
2.48033	580
2.48400	575
2.48767	572
2.49133	570
2.49500	571
2.49867	577
2.50233	587
2.50600	595
2.50967	599
2.51333	600
2.51700	602
2.52067	603
2.52433	605
2.52800	608
2.53167	610
2.53533	609
2.53900	605
2.54267	599
2.54633	588
2.55000	573
2.55367	560
2.55733	553
2.56100	549
2.56467	547
2.56833	546
2.57200	545
2.57567	545
2.57933	546
2.58300	546
2.58667	545
2.59033	546
2.59400	546
2.59767	547
2.60133	546
2.60500	543
2.60867	543
2.61233	548
2.61600	555
2.61967	560
2.62333	558
2.62700	554
2.63067	550
2.63433	545
2.63800	542
2.64167	536
2.64533	532
2.64900	531
2.65267	528
2.65633	526
2.66000	525
2.66367	524
2.66733	526
2.67100	530
2.67467	530
2.67833	527
2.68200	524
2.68567	522
2.68933	522
2.69300	524
2.69667	525
2.70033	529
2.70400	537
2.70767	547
2.71133	552
2.71500	556
2.71867	557
2.72233	552
2.72600	543
2.72967	534
2.73333	531
2.73700	537
2.74067	549
2.74433	558
2.74800	560
2.75167	557
2.75533	552
2.75900	548
2.76267	545
2.76633	547
2.77000	552
2.77367	559
2.77733	560
2.78100	551
2.78467	539
2.78833	531
2.79200	530
2.79567	531
2.79933	535
2.80300	541
2.80667	547
2.81033	551
2.81400	551
2.81767	548
2.82133	547
2.82500	548
2.82867	555
2.83233	563
2.83600	567
2.83967	567
2.84333	565
2.84700	564
2.85067	565
2.85433	567
2.85800	566
2.86167	564
2.86533	563
2.86900	561
2.87267	560
2.87633	559
2.88000	557
2.88367	552
2.88733	547
2.89100	544
2.89467	545
2.89833	550
2.90200	556
2.90567	559
2.90933	562
2.91300	565
2.91667	568
2.92033	571
2.92400	576
2.92767	579
2.93133	578
2.93500	574
2.93867	569
2.94233	564
2.94600	562
2.94967	564
2.95333	570
2.95700	577
2.96067	583
2.96433	585
2.96800	584
2.97167	582
2.97533	580
2.97900	577
2.98267	572
2.98633	571
2.99000	574
2.99367	578
2.99733	578
3.00100	572
3.00467	568
3.00833	570
3.01200	574
3.01567	576
3.01933	574
3.02300	575
3.02667	577
3.03033	583
3.03400	591
3.03767	593
3.04133	586
3.04500	577
3.04867	570
3.05233	565
3.05600	563
3.05967	563
3.06333	566
3.06700	571
3.07067	574
3.07433	574
3.07800	571
3.08167	572
3.08533	578
3.08900	578
3.09267	569
3.09633	559
3.10000	550
3.10367	542
3.10733	536
3.11100	537
3.11467	538
3.11833	539
3.12200	542
3.12567	543
3.12933	543
3.13300	541
3.13667	541
3.14033	545
3.14400	551
3.14767	556
3.15133	560
3.15500	562
3.15867	565
3.16233	569
3.16600	572
3.16967	572
3.17333	568
3.17700	562
3.18067	554
3.18433	547
3.18800	544
3.19167	544
3.19533	546
3.19900	550
3.20267	557
3.20633	563
3.21000	569
3.21367	570
3.21733	569
3.22100	567
3.22467	566
3.22833	567
3.23200	567
3.23567	563
3.23933	553
3.24300	541
3.24667	532
3.25033	533
3.25400	541
3.25767	549
3.26133	559
3.26500	566
3.26867	569
3.27233	565
3.27600	556
3.27967	547
3.28333	545
3.28700	547
3.29067	549
3.29433	551
3.29800	548
3.30167	541
3.30533	533
3.30900	526
3.31267	524
3.31633	526
3.32000	530
3.32367	539
3.32733	548
3.33100	553
3.33467	556
3.33833	557
3.34200	556
3.34567	552
3.34933	546
3.35300	535
3.35667	527
3.36033	525
3.36400	527
3.36767	528
3.37133	522
3.37500	510
3.37867	499
3.38233	493
3.38600	495
3.38967	501
3.39333	504
3.39700	508
3.40067	512
3.40433	513
3.40800	510
3.41167	504
3.41533	497
3.41900	493
3.42267	488
3.42633	488
3.43000	494
3.43367	505
3.43733	515
3.44100	518
3.44467	515
3.44833	511
3.45200	508
3.45567	508
3.45933	512
3.46300	516
3.46667	521
3.47033	525
3.47400	527
3.47767	528
3.48133	531
3.48500	533
3.48867	532
3.49233	527
3.49600	519
3.49967	511
3.50333	503
3.50700	501
3.51067	506
3.51433	508
3.51800	508
3.52167	508
3.52533	511
3.52900	518
3.53267	522
3.53633	521
3.54000	515
3.54367	509
3.54733	509
3.55100	510
3.55467	509
3.55833	508
3.56200	504
3.56567	501
3.56933	499
3.57300	499
3.57667	503
3.58033	508
3.58400	509
3.58767	506
3.59133	501
3.59500	497
3.59867	494
3.60233	492
3.60600	492
3.60967	490
3.61333	485
3.61700	474
3.62067	463
3.62433	457
3.62800	458
3.63167	462
3.63533	465
3.63900	466
3.64267	465
3.64633	466
3.65000	471
3.65367	478
3.65733	484
3.66100	485
3.66467	479
3.66833	473
3.67200	467
3.67567	462
3.67933	462
3.68300	462
3.68667	460
3.69033	458
3.69400	454
3.69767	447
3.70133	442
3.70500	450
3.70867	463
3.71233	472
3.71600	477
3.71967	476
3.72333	472
3.72700	464
3.73067	458
3.73433	457
3.73800	460
3.74167	463
3.74533	462
3.74900	456
3.75267	445
3.75633	432
3.76000	420
3.76367	413
3.76733	410
3.77100	411
3.77467	416
3.77833	424
3.78200	430
3.78567	431
3.78933	432
3.79300	431
3.79667	428
3.80033	423
3.80400	417
3.80767	413
3.81133	412
3.81500	416
3.81867	421
3.82233	425
3.82600	426
3.82967	426
3.83333	426
3.83700	431
3.84067	437
3.84433	438
3.84800	437
3.85167	437
3.85533	439
3.85900	443
3.86267	441
3.86633	433
3.87000	426
3.87367	422
3.87733	419
3.88100	420
3.88467	425
3.88833	430
3.89200	435
3.89567	440
3.89933	445
3.90300	448
3.90667	449
3.91033	444
3.91400	438
3.91767	432
3.92133	424
3.92500	414
3.92867	404
3.93233	397
3.93600	391
3.93967	393
3.94333	400
3.94700	405
3.95067	402
3.95433	397
3.95800	397
3.96167	397
3.96533	394
3.96900	393
3.97267	394
3.97633	394
3.98000	391
3.98367	383
3.98733	375
3.99100	373
3.99467	376
3.99833	382

[Chromatogram (Ch2)]
Interval(msec)	220
# of Points	1091
Start Time(min)	0.002
End Time(min)	3.998
R.Time (min)	Intensity
0.00167	-0
0.00533	-1
0.00900	-1
0.01267	-1
0.01633	-1
0.02000	-1
0.02367	-1
0.02733	-0
0.03100	-0
0.03467	0
0.03833	1
0.04200	1
0.04567	1
0.04933	1
0.05300	1
0.05667	1
0.06033	1
0.06400	1
0.06767	1
0.07133	1
0.07500	1
0.07867	1
0.08233	1
0.08600	1
0.08967	1
0.09333	1
0.09700	0
0.10067	0
0.10433	1
0.10800	1
0.11167	1
0.11533	1
0.11900	2
0.12267	2
0.12633	2
0.13000	3
0.13367	3
0.13733	3
0.14100	4
0.14467	4
0.14833	4
0.15200	3
0.15567	3
0.15933	3
0.16300	2
0.16667	2
0.17033	1
0.17400	1
0.17767	1
0.18133	0
0.18500	-0
0.18867	-0
0.19233	-0
0.19600	-0
0.19967	-0
0.20333	-0
0.20700	-0
0.21067	-0
0.21433	-0
0.21800	-0
0.22167	-0
0.22533	-1
0.22900	-1
0.23267	-1
0.23633	-1
0.24000	-1
0.24367	-1
0.24733	-1
0.25100	-2
0.25467	-2
0.25833	-2
0.26200	-2
0.26567	-2
0.26933	-2
0.27300	-1
0.27667	-1
0.28033	-0
0.28400	0
0.28767	1
0.29133	1
0.29500	2
0.29867	2
0.30233	2
0.30600	2
0.30967	2
0.31333	2
0.31700	2
0.32067	2
0.32433	2
0.32800	2
0.33167	2
0.33533	2
0.33900	2
0.34267	2
0.34633	2
0.35000	1
0.35367	1
0.35733	1
0.36100	1
0.36467	0
0.36833	-0
0.37200	-0
0.37567	-1
0.37933	-1
0.38300	-1
0.38667	-1
0.39033	-1
0.39400	-1
0.39767	-0
0.40133	-0
0.40500	0
0.40867	0
0.41233	0
0.41600	1
0.41967	1
0.42333	1
0.42700	1
0.43067	0
0.43433	0
0.43800	-0
0.44167	-0
0.44533	-0
0.44900	-1
0.45267	-1
0.45633	-0
0.46000	-0
0.46367	-0
0.46733	0
0.47100	0
0.47467	0
0.47833	0
0.48200	-0
0.48567	-0
0.48933	-0
0.49300	-0
0.49667	-0
0.50033	-1
0.50400	-1
0.50767	-1
0.51133	-1
0.51500	-1
0.51867	-1
0.52233	-1
0.52600	-1
0.52967	-1
0.53333	-1
0.53700	-1
0.54067	-1
0.54433	-1
0.54800	-1
0.55167	-1
0.55533	-1
0.55900	-1
0.56267	-1
0.56633	-1
0.57000	-1
0.57367	-1
0.57733	-1
0.58100	-1
0.58467	-1
0.58833	-1
0.59200	-2
0.59567	-2
0.59933	-1
0.60300	-1
0.60667	-1
0.61033	-1
0.61400	-1
0.61767	-2
0.62133	-2
0.62500	-2
0.62867	-2
0.63233	-2
0.63600	-2
0.63967	-2
0.64333	-2
0.64700	-1
0.65067	-1
0.65433	-1
0.65800	-1
0.66167	-1
0.66533	-1
0.66900	-1
0.67267	-1
0.67633	-1
0.68000	-1
0.68367	-1
0.68733	-2
0.69100	-2
0.69467	-2
0.69833	-2
0.70200	-2
0.70567	-2
0.70933	-2
0.71300	-2
0.71667	-2
0.72033	-2
0.72400	-2
0.72767	-2
0.73133	-1
0.73500	-1
0.73867	-1
0.74233	-0
0.74600	0
0.74967	1
0.75333	1
0.75700	1
0.76067	1
0.76433	1
0.76800	0
0.77167	0
0.77533	-0
0.77900	-0
0.78267	-0
0.78633	-0
0.79000	-0
0.79367	-0
0.79733	-1
0.80100	-1
0.80467	-1
0.80833	-1
0.81200	-1
0.81567	-1
0.81933	-1
0.82300	-1
0.82667	-1
0.83033	-1
0.83400	-1
0.83767	-1
0.84133	-0
0.84500	-0
0.84867	-0
0.85233	-1
0.85600	-1
0.85967	-1
0.86333	-1
0.86700	-1
0.87067	-1
0.87433	-1
0.87800	-1
0.88167	-1
0.88533	-1
0.88900	-1
0.89267	-1
0.89633	-1
0.90000	-1
0.90367	-1
0.90733	-1
0.91100	-1
0.91467	-1
0.91833	-1
0.92200	-0
0.92567	0
0.92933	0
0.93300	0
0.93667	0
0.94033	0
0.94400	0
0.94767	-0
0.95133	-0
0.95500	-1
0.95867	-1
0.96233	-2
0.96600	-2
0.96967	-3
0.97333	-3
0.97700	-3
0.98067	-4
0.98433	-4
0.98800	-4
0.99167	-4
0.99533	-5
0.99900	-5
1.00267	-5
1.00633	-5
1.01000	-5
1.01367	-5
1.01733	-5
1.02100	-4
1.02467	-4
1.02833	-4
1.03200	-4
1.03567	-4
1.03933	-3
1.04300	-3
1.04667	-2
1.05033	-2
1.05400	-2
1.05767	-2
1.06133	-1
1.06500	-1
1.06867	-1
1.07233	-1
1.07600	-1
1.07967	-1
1.08333	-1
1.08700	-1
1.09067	-1
1.09433	-1
1.09800	-1
1.10167	-1
1.10533	-1
1.10900	-1
1.11267	-1
1.11633	-1
1.12000	-1
1.12367	-2
1.12733	-2
1.13100	-2
1.13467	-1
1.13833	-1
1.14200	-1
1.14567	-1
1.14933	-1
1.15300	-1
1.15667	-1
1.16033	-1
1.16400	-1
1.16767	-1
1.17133	-1
1.17500	-1
1.17867	-1
1.18233	-1
1.18600	-2
1.18967	-2
1.19333	-2
1.19700	-2
1.20067	-2
1.20433	-2
1.20800	-2
1.21167	-1
1.21533	-1
1.21900	-1
1.22267	-1
1.22633	-0
1.23000	-0
1.23367	0
1.23733	0
1.24100	1
1.24467	1
1.24833	1
1.25200	1
1.25567	1
1.25933	1
1.26300	1
1.26667	1
1.27033	2
1.27400	1
1.27767	1
1.28133	1
1.28500	0
1.28867	0
1.29233	-0
1.29600	-0
1.29967	-1
1.30333	-1
1.30700	-1
1.31067	-1
1.31433	-2
1.31800	-2
1.32167	-2
1.32533	-2
1.32900	-2
1.33267	-2
1.33633	-3
1.34000	-3
1.34367	-3
1.34733	-3
1.35100	-4
1.35467	-4
1.35833	-5
1.36200	-5
1.36567	-5
1.36933	-5
1.37300	-5
1.37667	-5
1.38033	-4
1.38400	-4
1.38767	-4
1.39133	-3
1.39500	-3
1.39867	-3
1.40233	-3
1.40600	-2
1.40967	-2
1.41333	-2
1.41700	-2
1.42067	-2
1.42433	-2
1.42800	-2
1.43167	-2
1.43533	-2
1.43900	-2
1.44267	-2
1.44633	-3
1.45000	-3
1.45367	-3
1.45733	-3
1.46100	-3
1.46467	-3
1.46833	-3
1.47200	-4
1.47567	-4
1.47933	-4
1.48300	-4
1.48667	-4
1.49033	-3
1.49400	-3
1.49767	-3
1.50133	-3
1.50500	-3
1.50867	-3
1.51233	-3
1.51600	-3
1.51967	-3
1.52333	-3
1.52700	-3
1.53067	-3
1.53433	-3
1.53800	-3
1.54167	-3
1.54533	-3
1.54900	-3
1.55267	-3
1.55633	-3
1.56000	-3
1.56367	-3
1.56733	-3
1.57100	-3
1.57467	-3
1.57833	-3
1.58200	-3
1.58567	-3
1.58933	-4
1.59300	-4
1.59667	-4
1.60033	-5
1.60400	-6
1.60767	-8
1.61133	-10
1.61500	-12
1.61867	-14
1.62233	-17
1.62600	-20
1.62967	-23
1.63333	-26
1.63700	-30
1.64067	-33
1.64433	-36
1.64800	-40
1.65167	-43
1.65533	-47
1.65900	-50
1.66267	-54
1.66633	-59
1.67000	-64
1.67367	-68
1.67733	-73
1.68100	-78
1.68467	-83
1.68833	-88
1.69200	-92
1.69567	-95
1.69933	-99
1.70300	-101
1.70667	-103
1.71033	-105
1.71400	-106
1.71767	-107
1.72133	-108
1.72500	-109
1.72867	-110
1.73233	-110
1.73600	-111
1.73967	-112
1.74333	-113
1.74700	-114
1.75067	-114
1.75433	-115
1.75800	-116
1.76167	-116
1.76533	-116
1.76900	-116
1.77267	-115
1.77633	-114
1.78000	-114
1.78367	-113
1.78733	-113
1.79100	-114
1.79467	-114
1.79833	-115
1.80200	-116
1.80567	-116
1.80933	-117
1.81300	-117
1.81667	-117
1.82033	-117
1.82400	-117
1.82767	-117
1.83133	-118
1.83500	-118
1.83867	-118
1.84233	-119
1.84600	-119
1.84967	-119
1.85333	-119
1.85700	-119
1.86067	-119
1.86433	-118
1.86800	-118
1.87167	-118
1.87533	-118
1.87900	-118
1.88267	-117
1.88633	-117
1.89000	-117
1.89367	-117
1.89733	-117
1.90100	-117
1.90467	-116
1.90833	-116
1.91200	-116
1.91567	-116
1.91933	-116
1.92300	-115
1.92667	-115
1.93033	-114
1.93400	-114
1.93767	-113
1.94133	-113
1.94500	-112
1.94867	-112
1.95233	-112
1.95600	-112
1.95967	-113
1.96333	-113
1.96700	-113
1.97067	-114
1.97433	-114
1.97800	-114
1.98167	-114
1.98533	-114
1.98900	-114
1.99267	-113
1.99633	-113
2.00000	-113
2.00367	-112
2.00733	-111
2.01100	-110
2.01467	-109
2.01833	-108
2.02200	-107
2.02567	-106
2.02933	-105
2.03300	-104
2.03667	-104
2.04033	-104
2.04400	-104
2.04767	-104
2.05133	-104
2.05500	-104
2.05867	-104
2.06233	-104
2.06600	-104
2.06967	-103
2.07333	-103
2.07700	-103
2.08067	-102
2.08433	-102
2.08800	-102
2.09167	-102
2.09533	-102
2.09900	-102
2.10267	-102
2.10633	-101
2.11000	-101
2.11367	-100
2.11733	-99
2.12100	-99
2.12467	-99
2.12833	-100
2.13200	-100
2.13567	-100
2.13933	-100
2.14300	-99
2.14667	-98
2.15033	-98
2.15400	-97
2.15767	-96
2.16133	-96
2.16500	-96
2.16867	-95
2.17233	-95
2.17600	-95
2.17967	-96
2.18333	-96
2.18700	-97
2.19067	-97
2.19433	-98
2.19800	-98
2.20167	-98
2.20533	-97
2.20900	-96
2.21267	-95
2.21633	-94
2.22000	-94
2.22367	-93
2.22733	-91
2.23100	-91
2.23467	-90
2.23833	-89
2.24200	-89
2.24567	-89
2.24933	-89
2.25300	-89
2.25667	-89
2.26033	-89
2.26400	-89
2.26767	-89
2.27133	-88
2.27500	-88
2.27867	-87
2.28233	-87
2.28600	-87
2.28967	-86
2.29333	-87
2.29700	-87
2.30067	-87
2.30433	-87
2.30800	-87
2.31167	-86
2.31533	-86
2.31900	-86
2.32267	-85
2.32633	-85
2.33000	-85
2.33367	-84
2.33733	-84
2.34100	-83
2.34467	-82
2.34833	-81
2.35200	-80
2.35567	-78
2.35933	-77
2.36300	-75
2.36667	-74
2.37033	-72
2.37400	-70
2.37767	-67
2.38133	-64
2.38500	-60
2.38867	-56
2.39233	-51
2.39600	-47
2.39967	-43
2.40333	-39
2.40700	-35
2.41067	-31
2.41433	-28
2.41800	-25
2.42167	-23
2.42533	-21
2.42900	-19
2.43267	-17
2.43633	-16
2.44000	-14
2.44367	-13
2.44733	-12
2.45100	-12
2.45467	-11
2.45833	-10
2.46200	-8
2.46567	-7
2.46933	-6
2.47300	-4
2.47667	-2
2.48033	-1
2.48400	1
2.48767	2
2.49133	4
2.49500	5
2.49867	6
2.50233	7
2.50600	8
2.50967	9
2.51333	9
2.51700	10
2.52067	10
2.52433	10
2.52800	10
2.53167	10
2.53533	10
2.53900	11
2.54267	12
2.54633	12
2.55000	13
2.55367	14
2.55733	14
2.56100	14
2.56467	14
2.56833	15
2.57200	15
2.57567	15
2.57933	15
2.58300	15
2.58667	16
2.59033	16
2.59400	17
2.59767	17
2.60133	17
2.60500	17
2.60867	17
2.61233	17
2.61600	17
2.61967	17
2.62333	17
2.62700	17
2.63067	17
2.63433	17
2.63800	18
2.64167	18
2.64533	18
2.64900	19
2.65267	19
2.65633	19
2.66000	19
2.66367	19
2.66733	20
2.67100	20
2.67467	20
2.67833	21
2.68200	21
2.68567	21
2.68933	22
2.69300	22
2.69667	22
2.70033	22
2.70400	22
2.70767	22
2.71133	22
2.71500	22
2.71867	23
2.72233	23
2.72600	23
2.72967	24
2.73333	24
2.73700	25
2.74067	25
2.74433	26
2.74800	26
2.75167	26
2.75533	27
2.75900	27
2.76267	27
2.76633	27
2.77000	27
2.77367	26
2.77733	26
2.78100	25
2.78467	25
2.78833	24
2.79200	24
2.79567	23
2.79933	23
2.80300	23
2.80667	23
2.81033	23
2.81400	24
2.81767	24
2.82133	24
2.82500	25
2.82867	25
2.83233	25
2.83600	24
2.83967	23
2.84333	21
2.84700	16
2.85067	9
2.85433	-1
2.85800	-15
2.86167	-32
2.86533	-54
2.86900	-79
2.87267	-110
2.87633	-144
2.88000	-182
2.88367	-223
2.88733	-268
2.89100	-316
2.89467	-365
2.89833	-417
2.90200	-470
2.90567	-523
2.90933	-577
2.91300	-631
2.91667	-684
2.92033	-737
2.92400	-789
2.92767	-840
2.93133	-892
2.93500	-950
2.93867	-1009
2.94233	-1062
2.94600	-1096
2.94967	-1106
2.95333	-1090
2.95700	-1051
2.96067	-993
2.96433	-922
2.96800	-844
2.97167	-764
2.97533	-683
2.97900	-606
2.98267	-533
2.98633	-466
2.99000	-405
2.99367	-350
2.99733	-301
3.00100	-258
3.00467	-221
3.00833	-188
3.01200	-159
3.01567	-135
3.01933	-114
3.02300	-95
3.02667	-80
3.03033	-66
3.03400	-54
3.03767	-44
3.04133	-35
3.04500	-28
3.04867	-22
3.05233	-16
3.05600	-12
3.05967	-8
3.06333	-5
3.06700	-2
3.07067	0
3.07433	2
3.07800	4
3.08167	6
3.08533	7
3.08900	8
3.09267	9
3.09633	10
3.10000	11
3.10367	12
3.10733	12
3.11100	13
3.11467	13
3.11833	14
3.12200	14
3.12567	15
3.12933	16
3.13300	16
3.13667	16
3.14033	17
3.14400	17
3.14767	18
3.15133	18
3.15500	18
3.15867	18
3.16233	19
3.16600	19
3.16967	19
3.17333	19
3.17700	19
3.18067	19
3.18433	19
3.18800	19
3.19167	19
3.19533	19
3.19900	19
3.20267	19
3.20633	19
3.21000	20
3.21367	20
3.21733	20
3.22100	20
3.22467	21
3.22833	21
3.23200	21
3.23567	21
3.23933	21
3.24300	22
3.24667	22
3.25033	22
3.25400	22
3.25767	22
3.26133	22
3.26500	23
3.26867	23
3.27233	23
3.27600	23
3.27967	23
3.28333	23
3.28700	24
3.29067	24
3.29433	24
3.29800	24
3.30167	25
3.30533	25
3.30900	25
3.31267	25
3.31633	25
3.32000	26
3.32367	26
3.32733	26
3.33100	26
3.33467	26
3.33833	26
3.34200	26
3.34567	26
3.34933	26
3.35300	25
3.35667	25
3.36033	25
3.36400	26
3.36767	26
3.37133	26
3.37500	26
3.37867	26
3.38233	27
3.38600	27
3.38967	27
3.39333	28
3.39700	28
3.40067	28
3.40433	28
3.40800	28
3.41167	28
3.41533	28
3.41900	28
3.42267	28
3.42633	28
3.43000	28
3.43367	28
3.43733	28
3.44100	28
3.44467	28
3.44833	28
3.45200	28
3.45567	28
3.45933	28
3.46300	27
3.46667	27
3.47033	27
3.47400	26
3.47767	26
3.48133	26
3.48500	26
3.48867	27
3.49233	27
3.49600	27
3.49967	27
3.50333	27
3.50700	27
3.51067	27
3.51433	27
3.51800	27
3.52167	27
3.52533	27
3.52900	27
3.53267	26
3.53633	26
3.54000	26
3.54367	26
3.54733	25
3.55100	25
3.55467	25
3.55833	25
3.56200	25
3.56567	25
3.56933	25
3.57300	25
3.57667	25
3.58033	25
3.58400	25
3.58767	25
3.59133	25
3.59500	25
3.59867	25
3.60233	25
3.60600	25
3.60967	25
3.61333	25
3.61700	25
3.62067	25
3.62433	25
3.62800	25
3.63167	25
3.63533	25
3.63900	25
3.64267	25
3.64633	25
3.65000	26
3.65367	26
3.65733	26
3.66100	26
3.66467	26
3.66833	27
3.67200	27
3.67567	27
3.67933	27
3.68300	27
3.68667	26
3.69033	26
3.69400	26
3.69767	26
3.70133	26
3.70500	26
3.70867	26
3.71233	26
3.71600	26
3.71967	26
3.72333	26
3.72700	26
3.73067	26
3.73433	26
3.73800	27
3.74167	27
3.74533	27
3.74900	27
3.75267	27
3.75633	27
3.76000	28
3.76367	27
3.76733	27
3.77100	27
3.77467	27
3.77833	27
3.78200	27
3.78567	27
3.78933	27
3.79300	27
3.79667	27
3.80033	26
3.80400	26
3.80767	26
3.81133	26
3.81500	26
3.81867	26
3.82233	26
3.82600	26
3.82967	26
3.83333	25
3.83700	25
3.84067	25
3.84433	25
3.84800	25
3.85167	25
3.85533	25
3.85900	25
3.86267	25
3.86633	25
3.87000	26
3.87367	26
3.87733	26
3.88100	26
3.88467	26
3.88833	26
3.89200	26
3.89567	26
3.89933	26
3.90300	26
3.90667	26
3.91033	26
3.91400	26
3.91767	26
3.92133	26
3.92500	26
3.92867	26
3.93233	26
3.93600	26
3.93967	26
3.94333	26
3.94700	26
3.95067	26
3.95433	26
3.95800	25
3.96167	25
3.96533	25
3.96900	25
3.97267	25
3.97633	25
3.98000	25
3.98367	25
3.98733	25
3.99100	25
3.99467	25
3.99833	24

[Chromatogram (Ch3)]
Interval(msec)	220
# of Points	1091
Start Time(min)	0.002
End Time(min)	3.998
R.Time (min)	Intensity
0.00167	1
0.00533	2
0.00900	3
0.01267	4
0.01633	3
0.02000	2
0.02367	2
0.02733	0
0.03100	-1
0.03467	-1
0.03833	0
0.04200	3
0.04567	4
0.04933	5
0.05300	5
0.05667	5
0.06033	5
0.06400	5
0.06767	3
0.07133	3
0.07500	4
0.07867	6
0.08233	6
0.08600	5
0.08967	5
0.09333	3
0.09700	3
0.10067	2
0.10433	3
0.10800	4
0.11167	4
0.11533	4
0.11900	4
0.12267	5
0.12633	5
0.13000	4
0.13367	2
0.13733	1
0.14100	2
0.14467	2
0.14833	-0
0.15200	-0
0.15567	2
0.15933	3
0.16300	3
0.16667	3
0.17033	3
0.17400	1
0.17767	0
0.18133	-0
0.18500	0
0.18867	1
0.19233	2
0.19600	2
0.19967	2
0.20333	2
0.20700	1
0.21067	2
0.21433	2
0.21800	4
0.22167	4
0.22533	1
0.22900	-0
0.23267	0
0.23633	0
0.24000	-0
0.24367	-1
0.24733	-0
0.25100	-0
0.25467	0
0.25833	0
0.26200	2
0.26567	2
0.26933	2
0.27300	3
0.27667	3
0.28033	4
0.28400	3
0.28767	2
0.29133	1
0.29500	-1
0.29867	-4
0.30233	-5
0.30600	-3
0.30967	-1
0.31333	2
0.31700	3
0.32067	4
0.32433	3
0.32800	1
0.33167	1
0.33533	-0
0.33900	-2
0.34267	-3
0.34633	-2
0.35000	-0
0.35367	-1
0.35733	-2
0.36100	-3
0.36467	-3
0.36833	-4
0.37200	-5
0.37567	-3
0.37933	-4
0.38300	-7
0.38667	-8
0.39033	-9
0.39400	-11
0.39767	-11
0.40133	-8
0.40500	-5
0.40867	-4
0.41233	-4
0.41600	-3
0.41967	-0
0.42333	2
0.42700	1
0.43067	-1
0.43433	-4
0.43800	-4
0.44167	-3
0.44533	-2
0.44900	-2
0.45267	-3
0.45633	-4
0.46000	-2
0.46367	-3
0.46733	-6
0.47100	-8
0.47467	-8
0.47833	-8
0.48200	-8
0.48567	-6
0.48933	-7
0.49300	-9
0.49667	-8
0.50033	-7
0.50400	-5
0.50767	-3
0.51133	-3
0.51500	-2
0.51867	-1
0.52233	-0
0.52600	0
0.52967	-1
0.53333	-2
0.53700	-4
0.54067	-6
0.54433	-8
0.54800	-11
0.55167	-14
0.55533	-15
0.55900	-15
0.56267	-15
0.56633	-15
0.57000	-13
0.57367	-11
0.57733	-10
0.58100	-11
0.58467	-11
0.58833	-10
0.59200	-9
0.59567	-9
0.59933	-8
0.60300	-9
0.60667	-11
0.61033	-10
0.61400	-8
0.61767	-7
0.62133	-5
0.62500	-4
0.62867	-3
0.63233	-5
0.63600	-8
0.63967	-10
0.64333	-9
0.64700	-7
0.65067	-6
0.65433	-5
0.65800	-8
0.66167	-11
0.66533	-11
0.66900	-9
0.67267	-8
0.67633	-8
0.68000	-10
0.68367	-10
0.68733	-8
0.69100	-7
0.69467	-6
0.69833	-4
0.70200	-3
0.70567	-4
0.70933	-4
0.71300	-4
0.71667	-1
0.72033	1
0.72400	2
0.72767	2
0.73133	-0
0.73500	-3
0.73867	-4
0.74233	-5
0.74600	-4
0.74967	-4
0.75333	-4
0.75700	-5
0.76067	-5
0.76433	-5
0.76800	-4
0.77167	-3
0.77533	-6
0.77900	-7
0.78267	-9
0.78633	-9
0.79000	-10
0.79367	-12
0.79733	-10
0.80100	-9
0.80467	-7
0.80833	-6
0.81200	-6
0.81567	-5
0.81933	-4
0.82300	-6
0.82667	-7
0.83033	-9
0.83400	-10
0.83767	-9
0.84133	-8
0.84500	-8
0.84867	-9
0.85233	-11
0.85600	-12
0.85967	-11
0.86333	-10
0.86700	-10
0.87067	-10
0.87433	-10
0.87800	-11
0.88167	-12
0.88533	-12
0.88900	-11
0.89267	-15
0.89633	-19
0.90000	-21
0.90367	-19
0.90733	-18
0.91100	-17
0.91467	-18
0.91833	-18
0.92200	-16
0.92567	-16
0.92933	-18
0.93300	-19
0.93667	-19
0.94033	-17
0.94400	-16
0.94767	-15
0.95133	-15
0.95500	-16
0.95867	-16
0.96233	-15
0.96600	-15
0.96967	-16
0.97333	-19
0.97700	-19
0.98067	-19
0.98433	-20
0.98800	-20
0.99167	-17
0.99533	-15
0.99900	-16
1.00267	-17
1.00633	-16
1.01000	-16
1.01367	-14
1.01733	-13
1.02100	-13
1.02467	-14
1.02833	-15
1.03200	-16
1.03567	-16
1.03933	-15
1.04300	-14
1.04667	-15
1.05033	-16
1.05400	-19
1.05767	-18
1.06133	-16
1.06500	-16
1.06867	-18
1.07233	-20
1.07600	-20
1.07967	-20
1.08333	-19
1.08700	-19
1.09067	-21
1.09433	-20
1.09800	-19
1.10167	-20
1.10533	-22
1.10900	-22
1.11267	-21
1.11633	-20
1.12000	-17
1.12367	-19
1.12733	-20
1.13100	-19
1.13467	-18
1.13833	-17
1.14200	-16
1.14567	-16
1.14933	-18
1.15300	-20
1.15667	-20
1.16033	-19
1.16400	-16
1.16767	-14
1.17133	-13
1.17500	-12
1.17867	-12
1.18233	-11
1.18600	-10
1.18967	-11
1.19333	-12
1.19700	-12
1.20067	-12
1.20433	-10
1.20800	-5
1.21167	-2
1.21533	-2
1.21900	-3
1.22267	-4
1.22633	-4
1.23000	-4
1.23367	-4
1.23733	-4
1.24100	-5
1.24467	-5
1.24833	-5
1.25200	-4
1.25567	-3
1.25933	-1
1.26300	-1
1.26667	-3
1.27033	-3
1.27400	-3
1.27767	-4
1.28133	-4
1.28500	-4
1.28867	-6
1.29233	-8
1.29600	-7
1.29967	-6
1.30333	-3
1.30700	-3
1.31067	-4
1.31433	-5
1.31800	-8
1.32167	-9
1.32533	-7
1.32900	-7
1.33267	-8
1.33633	-9
1.34000	-7
1.34367	-6
1.34733	-5
1.35100	-6
1.35467	-5
1.35833	-4
1.36200	-3
1.36567	-2
1.36933	-1
1.37300	-1
1.37667	-3
1.38033	-3
1.38400	-3
1.38767	-2
1.39133	-0
1.39500	-0
1.39867	0
1.40233	1
1.40600	1
1.40967	1
1.41333	1
1.41700	1
1.42067	1
1.42433	-0
1.42800	1
1.43167	4
1.43533	6
1.43900	5
1.44267	3
1.44633	3
1.45000	2
1.45367	1
1.45733	-1
1.46100	-4
1.46467	-5
1.46833	-2
1.47200	1
1.47567	2
1.47933	3
1.48300	2
1.48667	1
1.49033	0
1.49400	-2
1.49767	-5
1.50133	-4
1.50500	-1
1.50867	-1
1.51233	-1
1.51600	-3
1.51967	-2
1.52333	-2
1.52700	-3
1.53067	-2
1.53433	2
1.53800	5
1.54167	5
1.54533	4
1.54900	4
1.55267	5
1.55633	5
1.56000	6
1.56367	5
1.56733	2
1.57100	0
1.57467	1
1.57833	2
1.58200	1
1.58567	1
1.58933	1
1.59300	1
1.59667	0
1.60033	-2
1.60400	-2
1.60767	1
1.61133	0
1.61500	0
1.61867	2
1.62233	4
1.62600	3
1.62967	5
1.63333	7
1.63700	8
1.64067	8
1.64433	9
1.64800	10
1.65167	11
1.65533	12
1.65900	13
1.66267	14
1.66633	14
1.67000	12
1.67367	11
1.67733	15
1.68100	18
1.68467	18
1.68833	18
1.69200	18
1.69567	15
1.69933	14
1.70300	16
1.70667	19
1.71033	20
1.71400	21
1.71767	20
1.72133	20
1.72500	19
1.72867	20
1.73233	23
1.73600	26
1.73967	26
1.74333	26
1.74700	27
1.75067	26
1.75433	26
1.75800	27
1.76167	31
1.76533	32
1.76900	30
1.77267	26
1.77633	25
1.78000	25
1.78367	24
1.78733	23
1.79100	23
1.79467	24
1.79833	25
1.80200	27
1.80567	30
1.80933	32
1.81300	30
1.81667	29
1.82033	28
1.82400	27
1.82767	27
1.83133	28
1.83500	30
1.83867	29
1.84233	27
1.84600	25
1.84967	25
1.85333	24
1.85700	23
1.86067	24
1.86433	26
1.86800	28
1.87167	27
1.87533	27
1.87900	26
1.88267	24
1.88633	23
1.89000	21
1.89367	20
1.89733	20
1.90100	21
1.90467	23
1.90833	25
1.91200	26
1.91567	26
1.91933	28
1.92300	29
1.92667	28
1.93033	26
1.93400	26
1.93767	26
1.94133	27
1.94500	28
1.94867	27
1.95233	27
1.95600	27
1.95967	28
1.96333	29
1.96700	31
1.97067	34
1.97433	35
1.97800	35
1.98167	36
1.98533	37
1.98900	37
1.99267	37
1.99633	37
2.00000	39
2.00367	41
2.00733	43
2.01100	44
2.01467	46
2.01833	46
2.02200	46
2.02567	45
2.02933	44
2.03300	43
2.03667	43
2.04033	44
2.04400	46
2.04767	49
2.05133	52
2.05500	54
2.05867	55
2.06233	57
2.06600	58
2.06967	58
2.07333	57
2.07700	56
2.08067	56
2.08433	55
2.08800	55
2.09167	54
2.09533	57
2.09900	61
2.10267	63
2.10633	65
2.11000	64
2.11367	66
2.11733	65
2.12100	65
2.12467	66
2.12833	69
2.13200	70
2.13567	72
2.13933	73
2.14300	74
2.14667	75
2.15033	76
2.15400	77
2.15767	81
2.16133	84
2.16500	86
2.16867	87
2.17233	86
2.17600	86
2.17967	87
2.18333	91
2.18700	94
2.19067	97
2.19433	99
2.19800	99
2.20167	100
2.20533	98
2.20900	95
2.21267	94
2.21633	96
2.22000	99
2.22367	99
2.22733	99
2.23100	100
2.23467	99
2.23833	100
2.24200	100
2.24567	103
2.24933	106
2.25300	109
2.25667	110
2.26033	113
2.26400	114
2.26767	113
2.27133	113
2.27500	114
2.27867	115
2.28233	115
2.28600	114
2.28967	115
2.29333	118
2.29700	122
2.30067	123
2.30433	124
2.30800	126
2.31167	128
2.31533	129
2.31900	129
2.32267	131
2.32633	132
2.33000	134
2.33367	137
2.33733	140
2.34100	143
2.34467	146
2.34833	150
2.35200	153
2.35567	153
2.35933	150
2.36300	149
2.36667	150
2.37033	153
2.37400	158
2.37767	162
2.38133	165
2.38500	164
2.38867	163
2.39233	163
2.39600	165
2.39967	166
2.40333	167
2.40700	170
2.41067	172
2.41433	177
2.41800	181
2.42167	184
2.42533	187
2.42900	189
2.43267	192
2.43633	195
2.44000	197
2.44367	229
2.44733	315
2.45100	410
2.45467	486
2.45833	535
2.46200	543
2.46567	522
2.46933	494
2.47300	472
2.47667	459
2.48033	450
2.48400	440
2.48767	422
2.49133	398
2.49500	371
2.49867	345
2.50233	323
2.50600	307
2.50967	299
2.51333	298
2.51700	301
2.52067	310
2.52433	319
2.52800	328
2.53167	339
2.53533	349
2.53900	356
2.54267	356
2.54633	351
2.55000	340
2.55367	325
2.55733	308
2.56100	292
2.56467	278
2.56833	268
2.57200	259
2.57567	252
2.57933	247
2.58300	245
2.58667	244
2.59033	242
2.59400	236
2.59767	228
2.60133	216
2.60500	200
2.60867	181
2.61233	160
2.61600	137
2.61967	120
2.62333	105
2.62700	93
2.63067	85
2.63433	79
2.63800	76
2.64167	77
2.64533	82
2.64900	89
2.65267	98
2.65633	109
2.66000	122
2.66367	134
2.66733	144
2.67100	152
2.67467	156
2.67833	161
2.68200	164
2.68567	167
2.68933	168
2.69300	166
2.69667	165
2.70033	167
2.70400	166
2.70767	165
2.71133	162
2.71500	159
2.71867	157
2.72233	155
2.72600	153
2.72967	151
2.73333	150
2.73700	152
2.74067	155
2.74433	155
2.74800	156
2.75167	156
2.75533	157
2.75900	160
2.76267	161
2.76633	163
2.77000	164
2.77367	166
2.77733	165
2.78100	162
2.78467	161
2.78833	163
2.79200	166
2.79567	167
2.79933	167
2.80300	167
2.80667	167
2.81033	170
2.81400	175
2.81767	184
2.82133	204
2.82500	245
2.82867	324
2.83233	465
2.83600	690
2.83967	1012
2.84333	1437
2.84700	1956
2.85067	2539
2.85433	3140
2.85800	3712
2.86167	4212
2.86533	4600
2.86900	4851
2.87267	4955
2.87633	4918
2.88000	4767
2.88367	4528
2.88733	4225
2.89100	3887
2.89467	3536
2.89833	3191
2.90200	2859
2.90567	2551
2.90933	2265
2.91300	2006
2.91667	1776
2.92033	1570
2.92400	1389
2.92767	1232
2.93133	1095
2.93500	975
2.93867	872
2.94233	780
2.94600	702
2.94967	635
2.95333	574
2.95700	523
2.96067	480
2.96433	444
2.96800	411
2.97167	385
2.97533	363
2.97900	344
2.98267	326
2.98633	309
2.99000	293
2.99367	276
2.99733	263
3.00100	255
3.00467	247
3.00833	239
3.01200	233
3.01567	227
3.01933	220
3.02300	214
3.02667	209
3.03033	205
3.03400	202
3.03767	199
3.04133	197
3.04500	193
3.04867	189
3.05233	184
3.05600	180
3.05967	177
3.06333	178
3.06700	179
3.07067	176
3.07433	173
3.07800	170
3.08167	168
3.08533	164
3.08900	159
3.09267	155
3.09633	151
3.10000	143
3.10367	121
3.10733	84
3.11100	57
3.11467	47
3.11833	53
3.12200	69
3.12567	95
3.12933	126
3.13300	162
3.13667	197
3.14033	235
3.14400	275
3.14767	314
3.15133	352
3.15500	385
3.15867	414
3.16233	441
3.16600	465
3.16967	486
3.17333	505
3.17700	521
3.18067	533
3.18433	543
3.18800	554
3.19167	565
3.19533	573
3.19900	576
3.20267	580
3.20633	582
3.21000	584
3.21367	589
3.21733	595
3.22100	597
3.22467	598
3.22833	600
3.23200	603
3.23567	606
3.23933	608
3.24300	609
3.24667	609
3.25033	610
3.25400	612
3.25767	615
3.26133	615
3.26500	614
3.26867	614
3.27233	616
3.27600	616
3.27967	616
3.28333	615
3.28700	614
3.29067	611
3.29433	610
3.29800	608
3.30167	604
3.30533	603
3.30900	603
3.31267	603
3.31633	604
3.32000	602
3.32367	600
3.32733	598
3.33100	594
3.33467	591
3.33833	589
3.34200	588
3.34567	585
3.34933	583
3.35300	583
3.35667	584
3.36033	582
3.36400	583
3.36767	582
3.37133	582
3.37500	581
3.37867	578
3.38233	576
3.38600	576
3.38967	575
3.39333	573
3.39700	575
3.40067	575
3.40433	575
3.40800	575
3.41167	573
3.41533	572
3.41900	573
3.42267	573
3.42633	570
3.43000	567
3.43367	567
3.43733	567
3.44100	568
3.44467	569
3.44833	571
3.45200	572
3.45567	571
3.45933	569
3.46300	566
3.46667	564
3.47033	565
3.47400	564
3.47767	562
3.48133	561
3.48500	559
3.48867	556
3.49233	555
3.49600	555
3.49967	555
3.50333	552
3.50700	550
3.51067	549
3.51433	544
3.51800	539
3.52167	536
3.52533	532
3.52900	531
3.53267	531
3.53633	528
3.54000	527
3.54367	525
3.54733	520
3.55100	516
3.55467	513
3.55833	513
3.56200	513
3.56567	512
3.56933	509
3.57300	509
3.57667	509
3.58033	509
3.58400	507
3.58767	504
3.59133	502
3.59500	498
3.59867	495
3.60233	493
3.60600	492
3.60967	491
3.61333	491
3.61700	490
3.62067	486
3.62433	482
3.62800	479
3.63167	477
3.63533	476
3.63900	475
3.64267	474
3.64633	472
3.65000	473
3.65367	472
3.65733	471
3.66100	469
3.66467	468
3.66833	467
3.67200	467
3.67567	466
3.67933	466
3.68300	467
3.68667	465
3.69033	463
3.69400	463
3.69767	463
3.70133	463
3.70500	464
3.70867	466
3.71233	466
3.71600	464
3.71967	463
3.72333	462
3.72700	460
3.73067	458
3.73433	454
3.73800	450
3.74167	449
3.74533	450
3.74900	450
3.75267	449
3.75633	448
3.76000	448
3.76367	450
3.76733	449
3.77100	448
3.77467	446
3.77833	446
3.78200	445
3.78567	444
3.78933	441
3.79300	441
3.79667	444
3.80033	446
3.80400	445
3.80767	443
3.81133	443
3.81500	443
3.81867	441
3.82233	442
3.82600	442
3.82967	442
3.83333	443
3.83700	443
3.84067	444
3.84433	445
3.84800	444
3.85167	442
3.85533	440
3.85900	438
3.86267	439
3.86633	438
3.87000	439
3.87367	441
3.87733	439
3.88100	437
3.88467	434
3.88833	430
3.89200	427
3.89567	426
3.89933	425
3.90300	424
3.90667	425
3.91033	424
3.91400	423
3.91767	422
3.92133	421
3.92500	418
3.92867	416
3.93233	415
3.93600	415
3.93967	416
3.94333	414
3.94700	411
3.95067	411
3.95433	412
3.95800	413
3.96167	412
3.96533	412
3.96900	411
3.97267	412
3.97633	412
3.98000	410
3.98367	409
3.98733	409
3.99100	409
3.99467	408
3.99833	407

[Status Trace (Column Oven Temperature)]
Interval(msec)	1000
# of Points	240
Start Time(min)	0.004
End Time(min)	3.988
Intensity Units	
Intensity Multiplier	1
R.Time (min)	Intensity
0.00433	35.08
0.02100	35.09
0.03767	35.08
0.05433	35.07
0.07100	35.07
0.08767	35.07
0.10433	35.06
0.12100	35.05
0.13767	35.04
0.15433	35.04
0.17100	35.04
0.18767	35.04
0.20433	35.04
0.22100	35.04
0.23767	35.04
0.25433	35.03
0.27100	35.03
0.28767	35.02
0.30433	35.01
0.32100	35.00
0.33767	35.00
0.35433	35.00
0.37100	35.01
0.38767	35.02
0.40433	35.01
0.42100	35.00
0.43767	35.00
0.45433	34.99
0.47100	34.99
0.48767	34.99
0.50433	34.99
0.52100	35.00
0.53767	35.01
0.55433	35.01
0.57100	35.01
0.58767	35.01
0.60433	35.01
0.62100	35.01
0.63767	35.02
0.65433	35.02
0.67100	35.02
0.68767	35.02
0.70433	35.02
0.72100	35.02
0.73767	35.01
0.75433	35.01
0.77100	35.01
0.78767	35.01
0.80433	35.01
0.82100	35.01
0.83767	35.01
0.85433	35.01
0.87100	35.00
0.88767	35.00
0.90433	34.99
0.92100	34.98
0.93767	34.97
0.95433	34.98
0.97100	34.99
0.98767	35.00
1.00433	35.02
1.02100	35.02
1.03767	35.02
1.05433	35.02
1.07100	35.01
1.08767	35.01
1.10433	35.02
1.12100	35.02
1.13767	35.01
1.15433	35.00
1.17100	34.99
1.18767	35.00
1.20433	35.01
1.22100	35.00
1.23767	34.99
1.25433	34.97
1.27100	34.96
1.28767	34.96
1.30433	34.96
1.32100	34.97
1.33767	34.98
1.35433	34.99
1.37100	34.99
1.38767	34.99
1.40433	34.98
1.42100	34.98
1.43767	34.98
1.45433	34.99
1.47100	34.99
1.48767	34.99
1.50433	34.99
1.52100	34.99
1.53767	34.99
1.55433	35.00
1.57100	34.99
1.58767	34.99
1.60433	35.05
1.62100	35.16
1.63767	35.33
1.65433	35.55
1.67100	35.87
1.68767	36.24
1.70433	36.60
1.72100	36.94
1.73767	37.28
1.75433	37.63
1.77100	37.94
1.78767	38.26
1.80433	38.60
1.82100	38.92
1.83767	39.27
1.85433	39.60
1.87100	39.93
1.88767	40.25
1.90433	40.58
1.92100	40.92
1.93767	41.24
1.95433	41.56
1.97100	41.91
1.98767	42.23
2.00433	42.56
2.02100	42.85
2.03767	43.18
2.05433	43.51
2.07100	43.81
2.08767	44.15
2.10433	44.46
2.12100	44.78
2.13767	45.11
2.15433	45.42
2.17100	45.75
2.18767	46.13
2.20433	46.45
2.22100	46.77
2.23767	47.09
2.25433	47.43
2.27100	47.76
2.28767	48.09
2.30433	48.42
2.32100	48.76
2.33767	49.09
2.35433	49.38
2.37100	49.61
2.38767	49.70
2.40433	49.69
2.42100	49.70
2.43767	49.70
2.45433	49.73
2.47100	49.73
2.48767	49.75
2.50433	49.74
2.52100	49.78
2.53767	49.79
2.55433	49.80
2.57100	49.81
2.58767	49.81
2.60433	49.81
2.62100	49.83
2.63767	49.83
2.65433	49.83
2.67100	49.84
2.68767	49.85
2.70433	49.86
2.72100	49.86
2.73767	49.85
2.75433	49.84
2.77100	49.85
2.78767	49.87
2.80433	49.90
2.82100	49.91
2.83767	49.92
2.85433	49.91
2.87100	49.91
2.88767	49.92
2.90433	49.92
2.92100	49.93
2.93767	49.95
2.95433	49.97
2.97100	49.98
2.98767	49.99
3.00433	50.00
3.02100	50.01
3.03767	50.01
3.05433	50.01
3.07100	50.02
3.08767	50.03
3.10433	50.03
3.12100	50.03
3.13767	50.04
3.15433	50.05
3.17100	50.07
3.18767	50.08
3.20433	50.09
3.22100	50.09
3.23767	50.10
3.25433	50.10
3.27100	50.10
3.28767	50.10
3.30433	50.09
3.32100	50.08
3.33767	50.08
3.35433	50.08
3.37100	50.07
3.38767	50.05
3.40433	50.04
3.42100	50.04
3.43767	50.03
3.45433	50.03
3.47100	50.03
3.48767	50.04
3.50433	50.03
3.52100	50.04
3.53767	50.05
3.55433	50.05
3.57100	50.07
3.58767	50.07
3.60433	50.08
3.62100	50.09
3.63767	50.09
3.65433	50.09
3.67100	50.09
3.68767	50.09
3.70433	50.10
3.72100	50.08
3.73767	50.08
3.75433	50.07
3.77100	50.07
3.78767	50.06
3.80433	50.06
3.82100	50.07
3.83767	50.08
3.85433	50.09
3.87100	50.09
3.88767	50.08
3.90433	50.08
3.92100	50.07
3.93767	50.07
3.95433	50.08
3.97100	50.08
3.98767	50.07

[Status Trace (Injection Unit Temperature)]
Interval(msec)	1000
# of Points	240
Start Time(min)	0.004
End Time(min)	3.988
Intensity Units	
Intensity Multiplier	1
R.Time (min)	Intensity
0.00433	99.97
0.02100	99.97
0.03767	99.97
0.05433	99.97
0.07100	99.97
0.08767	99.98
0.10433	99.97
0.12100	99.97
0.13767	99.97
0.15433	99.98
0.17100	99.98
0.18767	99.98
0.20433	99.98
0.22100	99.98
0.23767	99.98
0.25433	99.98
0.27100	99.98
0.28767	99.98
0.30433	99.98
0.32100	99.98
0.33767	99.98
0.35433	99.98
0.37100	99.98
0.38767	99.98
0.40433	99.98
0.42100	99.98
0.43767	99.98
0.45433	99.98
0.47100	99.98
0.48767	99.98
0.50433	99.98
0.52100	99.98
0.53767	99.98
0.55433	99.99
0.57100	99.98
0.58767	99.98
0.60433	99.98
0.62100	99.98
0.63767	99.98
0.65433	99.98
0.67100	99.98
0.68767	99.98
0.70433	99.98
0.72100	99.98
0.73767	99.98
0.75433	99.98
0.77100	99.98
0.78767	99.98
0.80433	99.98
0.82100	99.98
0.83767	99.97
0.85433	99.98
0.87100	99.98
0.88767	99.98
0.90433	99.97
0.92100	99.98
0.93767	99.98
0.95433	99.98
0.97100	99.98
0.98767	99.98
1.00433	99.98
1.02100	99.98
1.03767	99.98
1.05433	99.98
1.07100	99.98
1.08767	99.98
1.10433	99.98
1.12100	99.98
1.13767	99.98
1.15433	99.98
1.17100	99.98
1.18767	99.98
1.20433	99.98
1.22100	99.98
1.23767	99.98
1.25433	99.98
1.27100	99.98
1.28767	99.98
1.30433	99.98
1.32100	99.98
1.33767	99.98
1.35433	99.98
1.37100	99.99
1.38767	99.99
1.40433	99.99
1.42100	99.98
1.43767	99.98
1.45433	99.99
1.47100	99.98
1.48767	99.98
1.50433	99.99
1.52100	99.99
1.53767	99.99
1.55433	99.99
1.57100	99.99
1.58767	99.99
1.60433	99.99
1.62100	99.98
1.63767	99.99
1.65433	99.99
1.67100	99.99
1.68767	99.98
1.70433	99.99
1.72100	99.99
1.73767	99.99
1.75433	99.99
1.77100	99.98
1.78767	99.99
1.80433	99.98
1.82100	99.98
1.83767	99.98
1.85433	99.98
1.87100	99.98
1.88767	99.98
1.90433	99.98
1.92100	99.98
1.93767	99.98
1.95433	99.98
1.97100	99.98
1.98767	99.98
2.00433	99.98
2.02100	99.98
2.03767	99.97
2.05433	99.97
2.07100	99.97
2.08767	99.97
2.10433	99.97
2.12100	99.97
2.13767	99.97
2.15433	99.97
2.17100	99.97
2.18767	99.97
2.20433	99.97
2.22100	99.96
2.23767	99.96
2.25433	99.97
2.27100	99.97
2.28767	99.96
2.30433	99.97
2.32100	99.96
2.33767	99.96
2.35433	99.96
2.37100	99.97
2.38767	99.96
2.40433	99.97
2.42100	99.96
2.43767	99.97
2.45433	99.97
2.47100	99.97
2.48767	99.97
2.50433	99.97
2.52100	99.97
2.53767	99.97
2.55433	99.97
2.57100	99.97
2.58767	99.97
2.60433	99.97
2.62100	99.97
2.63767	99.98
2.65433	99.97
2.67100	99.98
2.68767	99.99
2.70433	99.99
2.72100	99.98
2.73767	99.98
2.75433	99.99
2.77100	99.99
2.78767	99.99
2.80433	99.99
2.82100	99.99
2.83767	100.00
2.85433	100.00
2.87100	100.00
2.88767	100.00
2.90433	100.00
2.92100	100.00
2.93767	100.00
2.95433	100.00
2.97100	100.01
2.98767	100.00
3.00433	100.01
3.02100	100.01
3.03767	100.01
3.05433	100.01
3.07100	100.01
3.08767	100.01
3.10433	100.02
3.12100	100.02
3.13767	100.02
3.15433	100.02
3.17100	100.02
3.18767	100.02
3.20433	100.02
3.22100	100.02
3.23767	100.02
3.25433	100.02
3.27100	100.02
3.28767	100.02
3.30433	100.02
3.32100	100.03
3.33767	100.03
3.35433	100.02
3.37100	100.03
3.38767	100.03
3.40433	100.02
3.42100	100.03
3.43767	100.03
3.45433	100.03
3.47100	100.03
3.48767	100.03
3.50433	100.03
3.52100	100.03
3.53767	100.03
3.55433	100.03
3.57100	100.03
3.58767	100.04
3.60433	100.03
3.62100	100.04
3.63767	100.04
3.65433	100.04
3.67100	100.04
3.68767	100.03
3.70433	100.04
3.72100	100.04
3.73767	100.04
3.75433	100.04
3.77100	100.04
3.78767	100.04
3.80433	100.04
3.82100	100.04
3.83767	100.04
3.85433	100.04
3.87100	100.04
3.88767	100.04
3.90433	100.04
3.92100	100.04
3.93767	100.04
3.95433	100.04
3.97100	100.04
3.98767	100.04

[Status Trace (Carrier Gas Pressure)]
Interval(msec)	1000
# of Points	240
Start Time(min)	0.004
End Time(min)	3.988
Intensity Units	
Intensity Multiplier	1
R.Time (min)	Intensity
0.00433	58.00
0.02100	55.99
0.03767	56.60
0.05433	58.84
0.07100	59.78
0.08767	58.19
0.10433	57.97
0.12100	58.01
0.13767	58.01
0.15433	58.01
0.17100	58.00
0.18767	58.00
0.20433	58.00
0.22100	58.00
0.23767	58.00
0.25433	58.00
0.27100	58.00
0.28767	58.00
0.30433	58.00
0.32100	58.00
0.33767	58.00
0.35433	58.00
0.37100	58.00
0.38767	58.00
0.40433	58.00
0.42100	58.00
0.43767	58.00
0.45433	58.00
0.47100	58.00
0.48767	58.00
0.50433	58.00
0.52100	58.00
0.53767	58.00
0.55433	58.00
0.57100	58.00
0.58767	58.00
0.60433	58.00
0.62100	58.00
0.63767	58.00
0.65433	58.00
0.67100	58.00
0.68767	58.00
0.70433	58.00
0.72100	58.00
0.73767	58.00
0.75433	58.00
0.77100	58.00
0.78767	58.00
0.80433	58.00
0.82100	58.00
0.83767	58.00
0.85433	58.00
0.87100	58.00
0.88767	58.00
0.90433	58.00
0.92100	58.00
0.93767	58.00
0.95433	58.00
0.97100	58.00
0.98767	58.00
1.00433	58.00
1.02100	58.00
1.03767	58.00
1.05433	58.00
1.07100	58.00
1.08767	58.00
1.10433	58.00
1.12100	58.00
1.13767	58.00
1.15433	58.00
1.17100	58.00
1.18767	58.00
1.20433	58.00
1.22100	58.00
1.23767	58.00
1.25433	58.00
1.27100	58.00
1.28767	58.00
1.30433	58.00
1.32100	58.00
1.33767	58.00
1.35433	58.00
1.37100	58.00
1.38767	58.00
1.40433	58.00
1.42100	58.00
1.43767	58.00
1.45433	58.00
1.47100	58.00
1.48767	58.00
1.50433	58.00
1.52100	58.00
1.53767	58.00
1.55433	58.00
1.57100	58.00
1.58767	58.00
1.60433	58.00
1.62100	58.00
1.63767	58.00
1.65433	58.00
1.67100	58.01
1.68767	58.01
1.70433	58.00
1.72100	58.00
1.73767	58.00
1.75433	58.00
1.77100	58.00
1.78767	58.00
1.80433	58.00
1.82100	58.00
1.83767	58.00
1.85433	58.00
1.87100	58.00
1.88767	58.00
1.90433	58.00
1.92100	58.00
1.93767	58.00
1.95433	58.00
1.97100	58.00
1.98767	58.00
2.00433	58.00
2.02100	58.00
2.03767	58.00
2.05433	58.00
2.07100	58.00
2.08767	58.00
2.10433	58.00
2.12100	58.00
2.13767	58.00
2.15433	58.00
2.17100	58.00
2.18767	58.00
2.20433	58.00
2.22100	58.00
2.23767	58.00
2.25433	58.00
2.27100	58.00
2.28767	58.00
2.30433	58.00
2.32100	58.00
2.33767	58.00
2.35433	58.00
2.37100	58.00
2.38767	57.99
2.40433	57.99
2.42100	58.00
2.43767	58.00
2.45433	58.00
2.47100	58.00
2.48767	58.00
2.50433	57.99
2.52100	58.00
2.53767	57.99
2.55433	58.00
2.57100	58.00
2.58767	58.00
2.60433	58.00
2.62100	58.00
2.63767	58.00
2.65433	58.00
2.67100	58.00
2.68767	58.00
2.70433	58.00
2.72100	58.00
2.73767	58.00
2.75433	58.00
2.77100	58.00
2.78767	58.00
2.80433	58.00
2.82100	58.00
2.83767	58.00
2.85433	58.00
2.87100	58.00
2.88767	58.00
2.90433	58.00
2.92100	58.00
2.93767	58.00
2.95433	58.00
2.97100	58.00
2.98767	58.00
3.00433	58.00
3.02100	58.00
3.03767	58.00
3.05433	58.00
3.07100	58.00
3.08767	58.00
3.10433	58.00
3.12100	58.00
3.13767	58.00
3.15433	58.00
3.17100	58.00
3.18767	58.00
3.20433	58.00
3.22100	58.00
3.23767	58.00
3.25433	58.00
3.27100	58.00
3.28767	58.00
3.30433	58.00
3.32100	58.00
3.33767	58.00
3.35433	58.00
3.37100	58.00
3.38767	58.00
3.40433	58.00
3.42100	58.00
3.43767	58.00
3.45433	58.00
3.47100	58.00
3.48767	58.00
3.50433	58.00
3.52100	58.00
3.53767	58.00
3.55433	58.00
3.57100	58.00
3.58767	58.00
3.60433	58.00
3.62100	58.00
3.63767	58.00
3.65433	58.00
3.67100	58.00
3.68767	58.00
3.70433	58.00
3.72100	58.00
3.73767	58.00
3.75433	58.00
3.77100	58.00
3.78767	58.00
3.80433	58.00
3.82100	58.00
3.83767	58.00
3.85433	58.00
3.87100	58.00
3.88767	58.00
3.90433	58.00
3.92100	58.00
3.93767	58.00
3.95433	58.00
3.97100	58.00
3.98767	58.00

[Status Trace (Carrier Gas Flow)]
Interval(msec)	1000
# of Points	240
Start Time(min)	0.004
End Time(min)	3.988
Intensity Units	
Intensity Multiplier	1
R.Time (min)	Intensity
0.00433	34.52
0.02100	34.57
0.03767	34.54
0.05433	34.55
0.07100	34.49
0.08767	34.51
0.10433	34.51
0.12100	34.52
0.13767	34.52
0.15433	34.52
0.17100	34.51
0.18767	34.52
0.20433	34.52
0.22100	34.52
0.23767	34.52
0.25433	34.52
0.27100	34.52
0.28767	34.52
0.30433	34.52
0.32100	34.51
0.33767	34.51
0.35433	34.52
0.37100	34.52
0.38767	34.52
0.40433	34.52
0.42100	34.52
0.43767	34.52
0.45433	34.52
0.47100	34.52
0.48767	34.52
0.50433	34.52
0.52100	34.52
0.53767	34.52
0.55433	34.52
0.57100	34.52
0.58767	34.52
0.60433	34.52
0.62100	34.52
0.63767	34.52
0.65433	34.51
0.67100	34.52
0.68767	34.52
0.70433	34.52
0.72100	34.51
0.73767	34.52
0.75433	34.52
0.77100	34.51
0.78767	34.52
0.80433	34.52
0.82100	34.52
0.83767	34.51
0.85433	34.51
0.87100	34.52
0.88767	34.52
0.90433	34.52
0.92100	34.52
0.93767	34.52
0.95433	34.52
0.97100	34.52
0.98767	34.52
1.00433	34.52
1.02100	34.52
1.03767	34.52
1.05433	34.52
1.07100	34.52
1.08767	34.52
1.10433	34.52
1.12100	34.52
1.13767	34.52
1.15433	34.52
1.17100	34.52
1.18767	34.52
1.20433	34.52
1.22100	34.52
1.23767	34.52
1.25433	34.52
1.27100	34.52
1.28767	34.52
1.30433	34.52
1.32100	34.52
1.33767	34.52
1.35433	34.53
1.37100	34.52
1.38767	34.52
1.40433	34.52
1.42100	34.52
1.43767	34.52
1.45433	34.52
1.47100	34.52
1.48767	34.52
1.50433	34.52
1.52100	34.51
1.53767	34.52
1.55433	34.52
1.57100	34.52
1.58767	34.52
1.60433	34.52
1.62100	34.51
1.63767	34.52
1.65433	34.52
1.67100	34.52
1.68767	34.51
1.70433	34.52
1.72100	34.52
1.73767	34.52
1.75433	34.51
1.77100	34.52
1.78767	34.52
1.80433	34.52
1.82100	34.52
1.83767	34.52
1.85433	34.52
1.87100	34.52
1.88767	34.52
1.90433	34.51
1.92100	34.52
1.93767	34.52
1.95433	34.52
1.97100	34.52
1.98767	34.52
2.00433	34.52
2.02100	34.51
2.03767	34.52
2.05433	34.52
2.07100	34.52
2.08767	34.52
2.10433	34.53
2.12100	34.52
2.13767	34.52
2.15433	34.52
2.17100	34.52
2.18767	34.52
2.20433	34.52
2.22100	34.52
2.23767	34.52
2.25433	34.53
2.27100	34.52
2.28767	34.52
2.30433	34.52
2.32100	34.52
2.33767	34.51
2.35433	34.52
2.37100	34.53
2.38767	34.51
2.40433	34.52
2.42100	34.52
2.43767	34.52
2.45433	34.52
2.47100	34.52
2.48767	34.52
2.50433	34.55
2.52100	34.52
2.53767	34.52
2.55433	34.51
2.57100	34.52
2.58767	34.52
2.60433	34.52
2.62100	34.51
2.63767	34.52
2.65433	34.52
2.67100	34.52
2.68767	34.52
2.70433	34.52
2.72100	34.52
2.73767	34.52
2.75433	34.52
2.77100	34.51
2.78767	34.51
2.80433	34.52
2.82100	34.52
2.83767	34.52
2.85433	34.52
2.87100	34.52
2.88767	34.52
2.90433	34.51
2.92100	34.52
2.93767	34.52
2.95433	34.51
2.97100	34.52
2.98767	34.52
3.00433	34.52
3.02100	34.52
3.03767	34.52
3.05433	34.52
3.07100	34.52
3.08767	34.52
3.10433	34.52
3.12100	34.52
3.13767	34.52
3.15433	34.52
3.17100	34.51
3.18767	34.52
3.20433	34.52
3.22100	34.52
3.23767	34.52
3.25433	34.52
3.27100	34.52
3.28767	34.52
3.30433	34.52
3.32100	34.52
3.33767	34.52
3.35433	34.52
3.37100	34.52
3.38767	34.52
3.40433	34.52
3.42100	34.52
3.43767	34.52
3.45433	34.52
3.47100	34.52
3.48767	34.53
3.50433	34.52
3.52100	34.52
3.53767	34.52
3.55433	34.52
3.57100	34.52
3.58767	34.52
3.60433	34.52
3.62100	34.52
3.63767	34.52
3.65433	34.51
3.67100	34.52
3.68767	34.52
3.70433	34.52
3.72100	34.51
3.73767	34.52
3.75433	34.52
3.77100	34.52
3.78767	34.52
3.80433	34.52
3.82100	34.52
3.83767	34.52
3.85433	34.52
3.87100	34.52
3.88767	34.52
3.90433	34.52
3.92100	34.52
3.93767	34.52
3.95433	34.52
3.97100	34.52
3.98767	34.51

[Status Trace (Column Flow)]
Interval(msec)	1000
# of Points	240
Start Time(min)	0.004
End Time(min)	3.988
Intensity Units	
Intensity Multiplier	1
R.Time (min)	Intensity
0.00433	5.57
0.02100	5.33
0.03767	5.41
0.05433	5.67
0.07100	5.78
0.08767	5.59
0.10433	5.57
0.12100	5.57
0.13767	5.57
0.15433	5.57
0.17100	5.57
0.18767	5.57
0.20433	5.57
0.22100	5.57
0.23767	5.57
0.25433	5.57
0.27100	5.57
0.28767	5.57
0.30433	5.57
0.32100	5.57
0.33767	5.57
0.35433	5.57
0.37100	5.57
0.38767	5.57
0.40433	5.57
0.42100	5.57
0.43767	5.57
0.45433	5.57
0.47100	5.57
0.48767	5.57
0.50433	5.57
0.52100	5.57
0.53767	5.57
0.55433	5.57
0.57100	5.57
0.58767	5.57
0.60433	5.57
0.62100	5.57
0.63767	5.57
0.65433	5.57
0.67100	5.57
0.68767	5.57
0.70433	5.57
0.72100	5.57
0.73767	5.57
0.75433	5.57
0.77100	5.57
0.78767	5.57
0.80433	5.57
0.82100	5.57
0.83767	5.57
0.85433	5.57
0.87100	5.57
0.88767	5.57
0.90433	5.57
0.92100	5.57
0.93767	5.57
0.95433	5.57
0.97100	5.57
0.98767	5.57
1.00433	5.57
1.02100	5.57
1.03767	5.57
1.05433	5.57
1.07100	5.57
1.08767	5.57
1.10433	5.57
1.12100	5.57
1.13767	5.57
1.15433	5.57
1.17100	5.57
1.18767	5.57
1.20433	5.57
1.22100	5.57
1.23767	5.57
1.25433	5.57
1.27100	5.57
1.28767	5.57
1.30433	5.57
1.32100	5.57
1.33767	5.57
1.35433	5.57
1.37100	5.57
1.38767	5.57
1.40433	5.57
1.42100	5.57
1.43767	5.57
1.45433	5.57
1.47100	5.57
1.48767	5.57
1.50433	5.57
1.52100	5.57
1.53767	5.57
1.55433	5.57
1.57100	5.57
1.58767	5.57
1.60433	5.57
1.62100	5.57
1.63767	5.56
1.65433	5.55
1.67100	5.55
1.68767	5.53
1.70433	5.52
1.72100	5.51
1.73767	5.50
1.75433	5.49
1.77100	5.48
1.78767	5.47
1.80433	5.46
1.82100	5.45
1.83767	5.44
1.85433	5.43
1.87100	5.42
1.88767	5.41
1.90433	5.40
1.92100	5.39
1.93767	5.38
1.95433	5.37
1.97100	5.36
1.98767	5.35
2.00433	5.34
2.02100	5.33
2.03767	5.32
2.05433	5.31
2.07100	5.30
2.08767	5.29
2.10433	5.28
2.12100	5.27
2.13767	5.26
2.15433	5.25
2.17100	5.25
2.18767	5.23
2.20433	5.22
2.22100	5.22
2.23767	5.21
2.25433	5.20
2.27100	5.19
2.28767	5.18
2.30433	5.17
2.32100	5.16
2.33767	5.15
2.35433	5.14
2.37100	5.14
2.38767	5.13
2.40433	5.13
2.42100	5.13
2.43767	5.13
2.45433	5.13
2.47100	5.13
2.48767	5.13
2.50433	5.13
2.52100	5.13
2.53767	5.13
2.55433	5.13
2.57100	5.13
2.58767	5.13
2.60433	5.13
2.62100	5.13
2.63767	5.13
2.65433	5.13
2.67100	5.13
2.68767	5.13
2.70433	5.13
2.72100	5.13
2.73767	5.13
2.75433	5.13
2.77100	5.13
2.78767	5.13
2.80433	5.13
2.82100	5.13
2.83767	5.13
2.85433	5.13
2.87100	5.13
2.88767	5.13
2.90433	5.13
2.92100	5.13
2.93767	5.13
2.95433	5.13
2.97100	5.13
2.98767	5.12
3.00433	5.12
3.02100	5.12
3.03767	5.12
3.05433	5.12
3.07100	5.12
3.08767	5.12
3.10433	5.12
3.12100	5.12
3.13767	5.12
3.15433	5.12
3.17100	5.12
3.18767	5.12
3.20433	5.12
3.22100	5.12
3.23767	5.12
3.25433	5.12
3.27100	5.12
3.28767	5.12
3.30433	5.12
3.32100	5.12
3.33767	5.12
3.35433	5.12
3.37100	5.12
3.38767	5.12
3.40433	5.12
3.42100	5.12
3.43767	5.12
3.45433	5.12
3.47100	5.12
3.48767	5.12
3.50433	5.12
3.52100	5.12
3.53767	5.12
3.55433	5.12
3.57100	5.12
3.58767	5.12
3.60433	5.12
3.62100	5.12
3.63767	5.12
3.65433	5.12
3.67100	5.12
3.68767	5.12
3.70433	5.12
3.72100	5.12
3.73767	5.12
3.75433	5.12
3.77100	5.12
3.78767	5.12
3.80433	5.12
3.82100	5.12
3.83767	5.12
3.85433	5.12
3.87100	5.12
3.88767	5.12
3.90433	5.12
3.92100	5.12
3.93767	5.12
3.95433	5.12
3.97100	5.12
3.98767	5.12

[Status Trace (Linear Velocity)]
Interval(msec)	1000
# of Points	240
Start Time(min)	0.004
End Time(min)	3.988
Intensity Units	
Intensity Multiplier	1
R.Time (min)	Intensity
0.00433	39.02
0.02100	37.70
0.03767	38.10
0.05433	39.57
0.07100	40.19
0.08767	39.15
0.10433	39.00
0.12100	39.03
0.13767	39.03
0.15433	39.03
0.17100	39.03
0.18767	39.03
0.20433	39.03
0.22100	39.03
0.23767	39.03
0.25433	39.03
0.27100	39.03
0.28767	39.03
0.30433	39.03
0.32100	39.03
0.33767	39.03
0.35433	39.03
0.37100	39.03
0.38767	39.03
0.40433	39.03
0.42100	39.03
0.43767	39.03
0.45433	39.03
0.47100	39.03
0.48767	39.03
0.50433	39.03
0.52100	39.03
0.53767	39.03
0.55433	39.03
0.57100	39.03
0.58767	39.03
0.60433	39.03
0.62100	39.03
0.63767	39.03
0.65433	39.03
0.67100	39.03
0.68767	39.03
0.70433	39.03
0.72100	39.03
0.73767	39.03
0.75433	39.03
0.77100	39.03
0.78767	39.03
0.80433	39.03
0.82100	39.03
0.83767	39.03
0.85433	39.03
0.87100	39.03
0.88767	39.03
0.90433	39.03
0.92100	39.03
0.93767	39.03
0.95433	39.03
0.97100	39.03
0.98767	39.03
1.00433	39.03
1.02100	39.03
1.03767	39.03
1.05433	39.03
1.07100	39.03
1.08767	39.03
1.10433	39.03
1.12100	39.03
1.13767	39.03
1.15433	39.03
1.17100	39.03
1.18767	39.03
1.20433	39.03
1.22100	39.03
1.23767	39.03
1.25433	39.03
1.27100	39.03
1.28767	39.03
1.30433	39.03
1.32100	39.03
1.33767	39.03
1.35433	39.03
1.37100	39.03
1.38767	39.03
1.40433	39.03
1.42100	39.03
1.43767	39.03
1.45433	39.03
1.47100	39.03
1.48767	39.03
1.50433	39.03
1.52100	39.03
1.53767	39.03
1.55433	39.03
1.57100	39.03
1.58767	39.03
1.60433	39.03
1.62100	39.02
1.63767	39.00
1.65433	38.98
1.67100	38.95
1.68767	38.91
1.70433	38.88
1.72100	38.85
1.73767	38.81
1.75433	38.78
1.77100	38.75
1.78767	38.72
1.80433	38.69
1.82100	38.66
1.83767	38.62
1.85433	38.59
1.87100	38.56
1.88767	38.53
1.90433	38.50
1.92100	38.47
1.93767	38.44
1.95433	38.41
1.97100	38.38
1.98767	38.35
2.00433	38.32
2.02100	38.29
2.03767	38.26
2.05433	38.23
2.07100	38.20
2.08767	38.17
2.10433	38.14
2.12100	38.11
2.13767	38.08
2.15433	38.05
2.17100	38.03
2.18767	37.99
2.20433	37.96
2.22100	37.93
2.23767	37.90
2.25433	37.87
2.27100	37.85
2.28767	37.81
2.30433	37.78
2.32100	37.76
2.33767	37.72
2.35433	37.70
2.37100	37.68
2.38767	37.67
2.40433	37.67
2.42100	37.67
2.43767	37.67
2.45433	37.67
2.47100	37.67
2.48767	37.66
2.50433	37.66
2.52100	37.66
2.53767	37.66
2.55433	37.66
2.57100	37.66
2.58767	37.66
2.60433	37.66
2.62100	37.66
2.63767	37.66
2.65433	37.66
2.67100	37.66
2.68767	37.66
2.70433	37.66
2.72100	37.66
2.73767	37.66
2.75433	37.66
2.77100	37.66
2.78767	37.66
2.80433	37.65
2.82100	37.65
2.83767	37.65
2.85433	37.65
2.87100	37.65
2.88767	37.65
2.90433	37.65
2.92100	37.65
2.93767	37.65
2.95433	37.65
2.97100	37.65
2.98767	37.64
3.00433	37.64
3.02100	37.64
3.03767	37.64
3.05433	37.64
3.07100	37.64
3.08767	37.64
3.10433	37.64
3.12100	37.64
3.13767	37.64
3.15433	37.64
3.17100	37.64
3.18767	37.64
3.20433	37.64
3.22100	37.64
3.23767	37.63
3.25433	37.64
3.27100	37.63
3.28767	37.63
3.30433	37.64
3.32100	37.64
3.33767	37.64
3.35433	37.64
3.37100	37.64
3.38767	37.64
3.40433	37.64
3.42100	37.64
3.43767	37.64
3.45433	37.64
3.47100	37.64
3.48767	37.64
3.50433	37.64
3.52100	37.64
3.53767	37.64
3.55433	37.64
3.57100	37.64
3.58767	37.64
3.60433	37.64
3.62100	37.64
3.63767	37.64
3.65433	37.64
3.67100	37.63
3.68767	37.64
3.70433	37.64
3.72100	37.64
3.73767	37.64
3.75433	37.64
3.77100	37.64
3.78767	37.64
3.80433	37.64
3.82100	37.64
3.83767	37.64
3.85433	37.64
3.87100	37.64
3.88767	37.64
3.90433	37.64
3.92100	37.64
3.93767	37.64
3.95433	37.64
3.97100	37.64
3.98767	37.64

