[Header]
Application Name	LabSolutions
Version	5.110
Data File Name	C:\Users\User\Desktop\GC Analyses\Jack\Nachusa Grasslands Sampling\T1 Timepoint July 12th\T1_07122022_009.gcd
Output Date	3/14/2023
Output Time	3:40:57 PM

[File Information]
Type	Data File
Generated	3/8/2023 2:10:24 PM
Generated by	System Administrator
Modified	3/8/2023 2:16:57 PM
Modified by	System Administrator

[Sample Information]
Operator Name	System Administrator
Acquired	3/8/2023 2:12:55 PM
Sample Type	0:Unknown
Level	0
Sample Name	009
Sample ID	009
ISTD Amount1	1
ISTD Amount2	1
ISTD Amount3	1
ISTD Amount4	1
ISTD Amount5	1
ISTD Amount6	1
ISTD Amount7	1
ISTD Amount8	1
ISTD Amount9	1
ISTD Amount10	1
ISTD Amount11	1
ISTD Amount12	1
ISTD Amount13	1
ISTD Amount14	1
ISTD Amount15	1
ISTD Amount16	1
ISTD Amount17	1
ISTD Amount18	1
ISTD Amount19	1
ISTD Amount20	1
ISTD Amount21	1
ISTD Amount22	1
ISTD Amount23	1
ISTD Amount24	1
ISTD Amount25	1
ISTD Amount26	1
ISTD Amount27	1
ISTD Amount28	1
ISTD Amount29	1
ISTD Amount30	1
ISTD Amount31	1
ISTD Amount32	1
Sample Amount	1
Dilution Factor	1
Vial#	8
Injection Volume	1
Injection Count	1
Bar Code	

[Original Files]
Data File	C:\Users\User\Desktop\GC Analyses\Jack\Nachusa Grasslands Sampling\T1 Timepoint July 12th\T1_07122022_009.gcd
Method File	C:\LabSolutions\Data\GHG_4min_2022\ghg3_togas_w_acet_4 min_new_int.gcm
Batch File	C:\LabSolutions\Data\AutoSamplerTesting\T1_07122022.gcb
Report Format File	c:\LabSolutions\System\DEFAULT.lsr

[File Description]


[Configuration]
Instrument Name	C0B7VH3-Instrument1
Instrument #	1
Line #	1
# of Detectors	3
Detector ID	DET#1	DET#2	DET#3
Detector Name	FID	PTCD	ECD
# of Channels	1	1	1

[Peak Table(Ch1)]
# of Peaks	3
Peak#	R.Time	I.Time	F.Time	Area	Height	A/H	Conc.	Mark	ID#	Name	k'	Plate #	Plate Ht.	Tailing	Resolution	Sep.Factor	Area Ratio	Height Ratio	Conc. %	Norm Conc.
1	1.476	1.439	1.538	26959	12646	2.132	190.331	   	1	CO	0.000	9010	16.647	1.326	0.000	0.000	0	0	28.415	28.415
2	1.567	1.538	1.626	4797	2327	2.062	92.763	 V 	2	CH4	0.062	10523	14.255	0.000	1.487	0.000	0	0	13.849	13.849
3	1.996	1.952	2.484	1540929	728185	2.116	386.731	   	3	CO2	0.353	17259	8.691	1.310	7.039	5.680	0	0	57.736	57.736

[Peak Table(Ch2)]
# of Peaks	0

[Peak Table(Ch3)]
# of Peaks	6
Peak#	R.Time	I.Time	F.Time	Area	Height	A/H	Conc.	Mark	ID#	Name	k'	Plate #	Plate Ht.	Tailing	Resolution	Sep.Factor	Area Ratio	Height Ratio	Conc. %	Norm Conc.
1	2.462	2.411	2.521	1220	380	3.210	0.000	   			0.000	8246	18.191	0.000	0.000	0.000	0	0	0.000	0.000
2	2.546	2.521	2.634	1012	228	4.432	0.000	 V 			0.034	3531	42.486	0.000	0.603	0.000	0	0	0.000	0.000
3	2.708	2.645	2.744	516	117	4.417	0.000	   			0.100	1305	114.907	0.000	0.685	2.913	0	0	0.000	0.000
4	2.873	2.744	3.309	21209	5009	4.234	0.542	SV 	1	N2O	0.167	12956	11.577	1.734	0.824	1.672	0	0	100.000	100.000
5	3.287	3.181	3.305	181	43	4.198	0.000	T  	2	SF6	0.335	12829	11.693	0.585	3.818	2.009	0	0	0.000	0.000
6	3.426	3.316	3.980	9174	433	21.172	0.000	   	2	SF6	0.392	665	225.405	3.005	0.430	1.169	0	0	0.000	0.000

[Compound Results(Ch1)]
# of IDs	6
ID#	Name	R.Time	Area	Height	Conc.	Curve	3rd	2nd	1st	Constant	Area Ratio	Height Ratio	Conc. %	Norm Conc.
1	CO	1.476	26959	12646	190.331	Linear	0.000000e+00	0.000000e+00	1.416423e+002	0.000000e+00	0	0	28.415	28.415
2	CH4	1.567	4797	2327	92.763	Linear	0.000000e+00	0.000000e+00	5.171738e+001	0.000000e+00	0	0	13.849	13.849
3	CO2	1.996	1540929	728185	386.731	Linear	0.000000e+00	0.000000e+00	3.984494e+003	0.000000e+00	0	0	57.736	57.736
4	Ethylene	0.000	0	0	0.000	Linear	0.000000e+00	0.000000e+00	0.000000e+00	0.000000e+00	0	0	0.000	0.000
5	Acetylene	0.000	0	0	0.000	Linear	0.000000e+00	0.000000e+00	0.000000e+00	0.000000e+00	0	0	0.000	0.000
6	Ethane	0.000	0	0	0.000	Linear	0.000000e+00	0.000000e+00	0.000000e+00	0.000000e+00	0	0	0.000	0.000

[Compound Results(Ch2)]
# of IDs	5
ID#	Name	R.Time	Area	Height	Conc.	Curve	3rd	2nd	1st	Constant	Area Ratio	Height Ratio	Conc. %	Norm Conc.
1	Hydrogen	0.000	0	0	0.000	Linear	0.000000e+00	0.000000e+00	0.000000e+00	0.000000e+00	0	0	0.000	0.000
2	Oxygen	0.000	0	0	0.000	Linear	0.000000e+00	0.000000e+00	0.000000e+00	0.000000e+00	0	0	0.000	0.000
3	Nitrogen	0.000	0	0	0.000	Linear	0.000000e+00	0.000000e+00	0.000000e+00	0.000000e+00	0	0	0.000	0.000
4	Methane	0.000	0	0	0.000	Linear	0.000000e+00	0.000000e+00	0.000000e+00	0.000000e+00	0	0	0.000	0.000
5	Carbon Monoxide	0.000	0	0	0.000	Linear	0.000000e+00	0.000000e+00	0.000000e+00	0.000000e+00	0	0	0.000	0.000

[Compound Results(Ch3)]
# of IDs	2
ID#	Name	R.Time	Area	Height	Conc.	Curve	3rd	2nd	1st	Constant	Area Ratio	Height Ratio	Conc. %	Norm Conc.
1	N2O	2.873	21209	5009	0.542	Linear	0.000000e+00	0.000000e+00	3.915173e+004	0.000000e+00	0	0	100.000	100.000
2	SF6	3.426	9355	476	0.000	Linear	0.000000e+00	0.000000e+00	0.000000e+00	0.000000e+00	0	0	0.000	0.000

[Group Results(Ch1)]
# of Groups	0

[Group Results(Ch2)]
# of Groups	0

[Group Results(Ch3)]
# of Groups	0

[Chromatogram (Ch1)]
Interval(msec)	220
# of Points	1091
Start Time(min)	0.002
End Time(min)	3.998
R.Time (min)	Intensity
0.00167	20
0.00533	14
0.00900	11
0.01267	17
0.01633	31
0.02000	43
0.02367	49
0.02733	51
0.03100	49
0.03467	40
0.03833	30
0.04200	26
0.04567	26
0.04933	30
0.05300	34
0.05667	34
0.06033	30
0.06400	26
0.06767	21
0.07133	20
0.07500	22
0.07867	27
0.08233	37
0.08600	44
0.08967	48
0.09333	55
0.09700	62
0.10067	67
0.10433	65
0.10800	58
0.11167	49
0.11533	38
0.11900	28
0.12267	23
0.12633	20
0.13000	14
0.13367	3
0.13733	-8
0.14100	-13
0.14467	-13
0.14833	-13
0.15200	-13
0.15567	-6
0.15933	3
0.16300	12
0.16667	13
0.17033	9
0.17400	5
0.17767	7
0.18133	14
0.18500	22
0.18867	27
0.19233	27
0.19600	23
0.19967	14
0.20333	5
0.20700	2
0.21067	1
0.21433	3
0.21800	7
0.22167	12
0.22533	18
0.22900	23
0.23267	26
0.23633	28
0.24000	33
0.24367	38
0.24733	33
0.25100	31
0.25467	30
0.25833	26
0.26200	23
0.26567	17
0.26933	7
0.27300	-1
0.27667	-1
0.28033	4
0.28400	7
0.28767	8
0.29133	12
0.29500	16
0.29867	20
0.30233	25
0.30600	30
0.30967	32
0.31333	31
0.31700	27
0.32067	24
0.32433	20
0.32800	13
0.33167	8
0.33533	14
0.33900	26
0.34267	38
0.34633	45
0.35000	45
0.35367	38
0.35733	27
0.36100	16
0.36467	8
0.36833	6
0.37200	12
0.37567	19
0.37933	23
0.38300	24
0.38667	29
0.39033	36
0.39400	40
0.39767	41
0.40133	41
0.40500	40
0.40867	38
0.41233	39
0.41600	42
0.41967	46
0.42333	47
0.42700	45
0.43067	44
0.43433	49
0.43800	51
0.44167	52
0.44533	49
0.44900	41
0.45267	35
0.45633	31
0.46000	28
0.46367	24
0.46733	20
0.47100	15
0.47467	9
0.47833	8
0.48200	13
0.48567	19
0.48933	22
0.49300	20
0.49667	18
0.50033	19
0.50400	24
0.50767	28
0.51133	27
0.51500	22
0.51867	21
0.52233	23
0.52600	25
0.52967	22
0.53333	16
0.53700	8
0.54067	1
0.54433	-1
0.54800	-2
0.55167	5
0.55533	12
0.55900	17
0.56267	16
0.56633	14
0.57000	13
0.57367	12
0.57733	12
0.58100	12
0.58467	14
0.58833	18
0.59200	17
0.59567	13
0.59933	10
0.60300	9
0.60667	8
0.61033	7
0.61400	6
0.61767	3
0.62133	2
0.62500	3
0.62867	0
0.63233	-6
0.63600	-11
0.63967	-14
0.64333	-18
0.64700	-25
0.65067	-26
0.65433	-27
0.65800	-28
0.66167	-30
0.66533	-31
0.66900	-28
0.67267	-24
0.67633	-19
0.68000	-13
0.68367	-8
0.68733	-2
0.69100	3
0.69467	4
0.69833	0
0.70200	-3
0.70567	-8
0.70933	-8
0.71300	-10
0.71667	-13
0.72033	-13
0.72400	-11
0.72767	-10
0.73133	-5
0.73500	-3
0.73867	-14
0.74233	-31
0.74600	-37
0.74967	-25
0.75333	-10
0.75700	-4
0.76067	-6
0.76433	-11
0.76800	-13
0.77167	-11
0.77533	-8
0.77900	-7
0.78267	-9
0.78633	-12
0.79000	-16
0.79367	-22
0.79733	-26
0.80100	-29
0.80467	-32
0.80833	-35
0.81200	-35
0.81567	-32
0.81933	-24
0.82300	-13
0.82667	-2
0.83033	8
0.83400	13
0.83767	14
0.84133	9
0.84500	-3
0.84867	-15
0.85233	-24
0.85600	-29
0.85967	-32
0.86333	-34
0.86700	-33
0.87067	-32
0.87433	-31
0.87800	-29
0.88167	-27
0.88533	-27
0.88900	-22
0.89267	-21
0.89633	-22
0.90000	-22
0.90367	-26
0.90733	-32
0.91100	-40
0.91467	-45
0.91833	-42
0.92200	-37
0.92567	-35
0.92933	-34
0.93300	-31
0.93667	-28
0.94033	-26
0.94400	-25
0.94767	-22
0.95133	-14
0.95500	-7
0.95867	-3
0.96233	-0
0.96600	-0
0.96967	-3
0.97333	-9
0.97700	-19
0.98067	-27
0.98433	-37
0.98800	-46
0.99167	-49
0.99533	-49
0.99900	-46
1.00267	-38
1.00633	-33
1.01000	-34
1.01367	-38
1.01733	-41
1.02100	-39
1.02467	-34
1.02833	-25
1.03200	-12
1.03567	-2
1.03933	0
1.04300	-4
1.04667	-17
1.05033	-34
1.05400	-48
1.05767	-55
1.06133	-56
1.06500	-52
1.06867	-46
1.07233	-40
1.07600	-35
1.07967	-33
1.08333	-33
1.08700	-32
1.09067	-33
1.09433	-37
1.09800	-38
1.10167	-38
1.10533	-35
1.10900	-31
1.11267	-32
1.11633	-36
1.12000	-33
1.12367	-26
1.12733	-23
1.13100	-23
1.13467	-18
1.13833	-15
1.14200	-18
1.14567	-21
1.14933	-25
1.15300	-34
1.15667	-41
1.16033	-47
1.16400	-49
1.16767	-48
1.17133	-46
1.17500	-46
1.17867	-49
1.18233	-47
1.18600	-44
1.18967	-40
1.19333	-33
1.19700	-22
1.20067	-14
1.20433	-8
1.20800	-6
1.21167	-10
1.21533	-20
1.21900	-34
1.22267	-45
1.22633	-52
1.23000	-53
1.23367	-50
1.23733	-47
1.24100	-45
1.24467	-44
1.24833	-43
1.25200	-41
1.25567	-40
1.25933	-41
1.26300	-38
1.26667	-34
1.27033	-31
1.27400	-30
1.27767	-35
1.28133	-39
1.28500	-40
1.28867	-42
1.29233	-42
1.29600	-42
1.29967	-45
1.30333	-45
1.30700	-41
1.31067	-35
1.31433	-33
1.31800	-39
1.32167	-49
1.32533	-54
1.32900	-52
1.33267	-51
1.33633	-53
1.34000	-54
1.34367	-53
1.34733	-49
1.35100	-43
1.35467	-38
1.35833	-33
1.36200	-29
1.36567	-27
1.36933	-25
1.37300	-27
1.37667	-36
1.38033	-48
1.38400	-57
1.38767	-62
1.39133	-64
1.39500	-64
1.39867	-62
1.40233	-61
1.40600	-57
1.40967	-51
1.41333	-49
1.41700	-51
1.42067	-54
1.42433	-57
1.42800	-62
1.43167	-65
1.43533	-62
1.43900	-45
1.44267	33
1.44633	248
1.45000	773
1.45367	1969
1.45733	3968
1.46100	6395
1.46467	8731
1.46833	10638
1.47200	11966
1.47567	12613
1.47933	12473
1.48300	11526
1.48667	9943
1.49033	8051
1.49400	6196
1.49767	4602
1.50133	3342
1.50500	2401
1.50867	1714
1.51233	1221
1.51600	876
1.51967	636
1.52333	472
1.52700	362
1.53067	285
1.53433	232
1.53800	206
1.54167	242
1.54533	400
1.54900	710
1.55267	1121
1.55633	1544
1.56000	1908
1.56367	2178
1.56733	2322
1.57100	2311
1.57467	2134
1.57833	1822
1.58200	1448
1.58567	1089
1.58933	787
1.59300	555
1.59667	385
1.60033	265
1.60400	179
1.60767	119
1.61133	80
1.61500	51
1.61867	29
1.62233	19
1.62600	14
1.62967	10
1.63333	7
1.63700	5
1.64067	2
1.64433	-2
1.64800	-3
1.65167	-3
1.65533	-4
1.65900	-6
1.66267	-9
1.66633	-14
1.67000	-22
1.67367	-29
1.67733	-32
1.68100	-31
1.68467	-27
1.68833	-25
1.69200	-26
1.69567	-32
1.69933	-33
1.70300	-31
1.70667	-32
1.71033	-36
1.71400	-40
1.71767	-41
1.72133	-39
1.72500	-32
1.72867	-24
1.73233	-18
1.73600	-16
1.73967	-18
1.74333	-19
1.74700	-18
1.75067	-14
1.75433	-14
1.75800	-18
1.76167	-22
1.76533	-26
1.76900	-31
1.77267	-39
1.77633	-44
1.78000	-45
1.78367	-43
1.78733	-42
1.79100	-39
1.79467	-36
1.79833	-32
1.80200	-28
1.80567	-24
1.80933	-22
1.81300	-23
1.81667	-25
1.82033	-25
1.82400	-20
1.82767	-13
1.83133	-9
1.83500	-4
1.83867	-3
1.84233	-5
1.84600	-12
1.84967	-21
1.85333	-24
1.85700	-21
1.86067	-17
1.86433	-17
1.86800	-19
1.87167	-21
1.87533	-22
1.87900	-19
1.88267	-14
1.88633	-10
1.89000	-10
1.89367	-8
1.89733	-3
1.90100	1
1.90467	1
1.90833	-1
1.91200	-7
1.91567	-12
1.91933	-17
1.92300	-19
1.92667	-16
1.93033	-9
1.93400	-1
1.93767	3
1.94133	4
1.94500	3
1.94867	2
1.95233	13
1.95600	124
1.95967	803
1.96333	3930
1.96700	14834
1.97067	44010
1.97433	104566
1.97800	203101
1.98167	331739
1.98533	469749
1.98900	593599
1.99267	684056
1.99633	728230
2.00000	720922
2.00367	665739
2.00733	575259
2.01100	467651
2.01467	360667
2.01833	266707
2.02200	191326
2.02567	134679
2.02933	94024
2.03300	65742
2.03667	46448
2.04033	33417
2.04400	24635
2.04767	18683
2.05133	14602
2.05500	11756
2.05867	9730
2.06233	8253
2.06600	7146
2.06967	6294
2.07333	5621
2.07700	5075
2.08067	4629
2.08433	4259
2.08800	3942
2.09167	3667
2.09533	3429
2.09900	3223
2.10267	3042
2.10633	2878
2.11000	2727
2.11367	2592
2.11733	2468
2.12100	2356
2.12467	2255
2.12833	2161
2.13200	2072
2.13567	1989
2.13933	1914
2.14300	1841
2.14667	1766
2.15033	1694
2.15400	1630
2.15767	1576
2.16133	1526
2.16500	1479
2.16867	1434
2.17233	1392
2.17600	1352
2.17967	1315
2.18333	1283
2.18700	1253
2.19067	1223
2.19433	1192
2.19800	1162
2.20167	1139
2.20533	1115
2.20900	1086
2.21267	1051
2.21633	1016
2.22000	987
2.22367	962
2.22733	938
2.23100	916
2.23467	900
2.23833	886
2.24200	869
2.24567	848
2.24933	830
2.25300	813
2.25667	798
2.26033	785
2.26400	774
2.26767	764
2.27133	756
2.27500	750
2.27867	746
2.28233	740
2.28600	726
2.28967	709
2.29333	696
2.29700	687
2.30067	679
2.30433	673
2.30800	667
2.31167	657
2.31533	650
2.31900	638
2.32267	622
2.32633	606
2.33000	593
2.33367	580
2.33733	570
2.34100	561
2.34467	559
2.34833	562
2.35200	563
2.35567	555
2.35933	541
2.36300	529
2.36667	519
2.37033	513
2.37400	511
2.37767	509
2.38133	503
2.38500	496
2.38867	488
2.39233	480
2.39600	479
2.39967	483
2.40333	488
2.40700	485
2.41067	477
2.41433	464
2.41800	454
2.42167	451
2.42533	447
2.42900	447
2.43267	447
2.43633	444
2.44000	441
2.44367	438
2.44733	433
2.45100	427
2.45467	423
2.45833	421
2.46200	419
2.46567	417
2.46933	417
2.47300	417
2.47667	415
2.48033	411
2.48400	409
2.48767	411
2.49133	412
2.49500	411
2.49867	412
2.50233	414
2.50600	414
2.50967	410
2.51333	402
2.51700	396
2.52067	394
2.52433	394
2.52800	397
2.53167	403
2.53533	406
2.53900	406
2.54267	405
2.54633	404
2.55000	398
2.55367	391
2.55733	389
2.56100	389
2.56467	386
2.56833	381
2.57200	376
2.57567	375
2.57933	379
2.58300	386
2.58667	391
2.59033	394
2.59400	393
2.59767	388
2.60133	383
2.60500	377
2.60867	370
2.61233	365
2.61600	367
2.61967	371
2.62333	374
2.62700	376
2.63067	379
2.63433	381
2.63800	382
2.64167	380
2.64533	376
2.64900	371
2.65267	368
2.65633	367
2.66000	368
2.66367	369
2.66733	372
2.67100	377
2.67467	383
2.67833	385
2.68200	387
2.68567	390
2.68933	390
2.69300	386
2.69667	376
2.70033	362
2.70400	347
2.70767	336
2.71133	331
2.71500	336
2.71867	341
2.72233	345
2.72600	349
2.72967	354
2.73333	357
2.73700	357
2.74067	356
2.74433	358
2.74800	362
2.75167	366
2.75533	372
2.75900	378
2.76267	389
2.76633	399
2.77000	402
2.77367	395
2.77733	382
2.78100	371
2.78467	366
2.78833	364
2.79200	364
2.79567	366
2.79933	370
2.80300	375
2.80667	383
2.81033	390
2.81400	391
2.81767	385
2.82133	379
2.82500	372
2.82867	371
2.83233	373
2.83600	375
2.83967	375
2.84333	375
2.84700	376
2.85067	376
2.85433	376
2.85800	382
2.86167	389
2.86533	391
2.86900	388
2.87267	385
2.87633	388
2.88000	390
2.88367	391
2.88733	394
2.89100	396
2.89467	398
2.89833	396
2.90200	391
2.90567	388
2.90933	389
2.91300	390
2.91667	389
2.92033	394
2.92400	402
2.92767	411
2.93133	414
2.93500	414
2.93867	412
2.94233	408
2.94600	399
2.94967	391
2.95333	388
2.95700	393
2.96067	398
2.96433	398
2.96800	395
2.97167	392
2.97533	391
2.97900	390
2.98267	390
2.98633	388
2.99000	385
2.99367	385
2.99733	383
3.00100	380
3.00467	383
3.00833	387
3.01200	390
3.01567	394
3.01933	397
3.02300	398
3.02667	396
3.03033	389
3.03400	385
3.03767	385
3.04133	393
3.04500	405
3.04867	415
3.05233	422
3.05600	423
3.05967	424
3.06333	422
3.06700	419
3.07067	413
3.07433	406
3.07800	400
3.08167	394
3.08533	391
3.08900	393
3.09267	393
3.09633	390
3.10000	390
3.10367	392
3.10733	388
3.11100	381
3.11467	380
3.11833	388
3.12200	402
3.12567	413
3.12933	417
3.13300	415
3.13667	409
3.14033	404
3.14400	399
3.14767	392
3.15133	383
3.15500	374
3.15867	368
3.16233	369
3.16600	374
3.16967	375
3.17333	376
3.17700	378
3.18067	378
3.18433	381
3.18800	387
3.19167	395
3.19533	404
3.19900	411
3.20267	413
3.20633	409
3.21000	403
3.21367	396
3.21733	388
3.22100	378
3.22467	370
3.22833	366
3.23200	366
3.23567	366
3.23933	366
3.24300	370
3.24667	374
3.25033	376
3.25400	376
3.25767	375
3.26133	371
3.26500	370
3.26867	376
3.27233	386
3.27600	391
3.27967	391
3.28333	392
3.28700	394
3.29067	396
3.29433	397
3.29800	393
3.30167	386
3.30533	382
3.30900	380
3.31267	379
3.31633	380
3.32000	379
3.32367	378
3.32733	380
3.33100	382
3.33467	384
3.33833	383
3.34200	382
3.34567	381
3.34933	379
3.35300	378
3.35667	379
3.36033	382
3.36400	389
3.36767	395
3.37133	396
3.37500	393
3.37867	386
3.38233	379
3.38600	372
3.38967	369
3.39333	367
3.39700	363
3.40067	361
3.40433	363
3.40800	367
3.41167	372
3.41533	373
3.41900	374
3.42267	375
3.42633	375
3.43000	374
3.43367	377
3.43733	379
3.44100	376
3.44467	375
3.44833	372
3.45200	371
3.45567	372
3.45933	370
3.46300	364
3.46667	354
3.47033	343
3.47400	337
3.47767	335
3.48133	338
3.48500	342
3.48867	347
3.49233	349
3.49600	349
3.49967	354
3.50333	362
3.50700	365
3.51067	364
3.51433	356
3.51800	349
3.52167	351
3.52533	359
3.52900	371
3.53267	381
3.53633	383
3.54000	375
3.54367	362
3.54733	353
3.55100	351
3.55467	352
3.55833	351
3.56200	348
3.56567	345
3.56933	343
3.57300	340
3.57667	335
3.58033	333
3.58400	335
3.58767	341
3.59133	346
3.59500	353
3.59867	361
3.60233	365
3.60600	361
3.60967	351
3.61333	345
3.61700	345
3.62067	346
3.62433	345
3.62800	342
3.63167	337
3.63533	335
3.63900	337
3.64267	342
3.64633	348
3.65000	353
3.65367	357
3.65733	358
3.66100	355
3.66467	350
3.66833	344
3.67200	341
3.67567	338
3.67933	331
3.68300	325
3.68667	322
3.69033	324
3.69400	328
3.69767	334
3.70133	338
3.70500	343
3.70867	344
3.71233	341
3.71600	335
3.71967	329
3.72333	322
3.72700	316
3.73067	311
3.73433	307
3.73800	305
3.74167	305
3.74533	304
3.74900	302
3.75267	305
3.75633	314
3.76000	325
3.76367	331
3.76733	333
3.77100	336
3.77467	344
3.77833	344
3.78200	339
3.78567	331
3.78933	320
3.79300	309
3.79667	302
3.80033	299
3.80400	300
3.80767	302
3.81133	301
3.81500	297
3.81867	297
3.82233	304
3.82600	313
3.82967	319
3.83333	323
3.83700	323
3.84067	319
3.84433	313
3.84800	310
3.85167	308
3.85533	307
3.85900	307
3.86267	303
3.86633	300
3.87000	304
3.87367	306
3.87733	303
3.88100	299
3.88467	301
3.88833	307
3.89200	314
3.89567	317
3.89933	318
3.90300	318
3.90667	316
3.91033	312
3.91400	307
3.91767	301
3.92133	294
3.92500	286
3.92867	282
3.93233	282
3.93600	286
3.93967	292
3.94333	299
3.94700	303
3.95067	306
3.95433	305
3.95800	300
3.96167	294
3.96533	290
3.96900	285
3.97267	284
3.97633	286
3.98000	286
3.98367	285
3.98733	282
3.99100	279
3.99467	281
3.99833	284

[Chromatogram (Ch2)]
Interval(msec)	220
# of Points	1091
Start Time(min)	0.002
End Time(min)	3.998
R.Time (min)	Intensity
0.00167	1
0.00533	2
0.00900	2
0.01267	2
0.01633	2
0.02000	2
0.02367	2
0.02733	2
0.03100	2
0.03467	2
0.03833	2
0.04200	2
0.04567	2
0.04933	3
0.05300	3
0.05667	3
0.06033	2
0.06400	2
0.06767	2
0.07133	2
0.07500	2
0.07867	2
0.08233	2
0.08600	2
0.08967	2
0.09333	2
0.09700	2
0.10067	2
0.10433	2
0.10800	2
0.11167	2
0.11533	2
0.11900	2
0.12267	2
0.12633	1
0.13000	1
0.13367	1
0.13733	0
0.14100	0
0.14467	0
0.14833	0
0.15200	0
0.15567	0
0.15933	-0
0.16300	-0
0.16667	-0
0.17033	-1
0.17400	-1
0.17767	-1
0.18133	-1
0.18500	-0
0.18867	0
0.19233	0
0.19600	1
0.19967	1
0.20333	1
0.20700	1
0.21067	2
0.21433	2
0.21800	2
0.22167	2
0.22533	2
0.22900	2
0.23267	2
0.23633	2
0.24000	2
0.24367	2
0.24733	1
0.25100	1
0.25467	1
0.25833	1
0.26200	0
0.26567	0
0.26933	0
0.27300	0
0.27667	-0
0.28033	-0
0.28400	-0
0.28767	-0
0.29133	-0
0.29500	0
0.29867	0
0.30233	0
0.30600	1
0.30967	1
0.31333	1
0.31700	1
0.32067	1
0.32433	1
0.32800	1
0.33167	1
0.33533	0
0.33900	0
0.34267	-0
0.34633	-0
0.35000	-0
0.35367	-0
0.35733	-0
0.36100	-1
0.36467	-1
0.36833	-1
0.37200	-1
0.37567	-1
0.37933	-2
0.38300	-2
0.38667	-2
0.39033	-2
0.39400	-3
0.39767	-3
0.40133	-3
0.40500	-3
0.40867	-3
0.41233	-3
0.41600	-3
0.41967	-3
0.42333	-3
0.42700	-3
0.43067	-3
0.43433	-2
0.43800	-2
0.44167	-2
0.44533	-2
0.44900	-2
0.45267	-2
0.45633	-2
0.46000	-2
0.46367	-2
0.46733	-2
0.47100	-2
0.47467	-2
0.47833	-2
0.48200	-2
0.48567	-2
0.48933	-2
0.49300	-1
0.49667	-1
0.50033	-1
0.50400	-0
0.50767	0
0.51133	1
0.51500	1
0.51867	2
0.52233	3
0.52600	3
0.52967	3
0.53333	3
0.53700	3
0.54067	2
0.54433	2
0.54800	2
0.55167	2
0.55533	2
0.55900	2
0.56267	2
0.56633	2
0.57000	2
0.57367	2
0.57733	1
0.58100	1
0.58467	1
0.58833	1
0.59200	1
0.59567	1
0.59933	1
0.60300	1
0.60667	1
0.61033	0
0.61400	0
0.61767	0
0.62133	0
0.62500	0
0.62867	0
0.63233	0
0.63600	0
0.63967	0
0.64333	0
0.64700	0
0.65067	0
0.65433	1
0.65800	1
0.66167	1
0.66533	1
0.66900	1
0.67267	1
0.67633	1
0.68000	1
0.68367	1
0.68733	1
0.69100	0
0.69467	0
0.69833	-0
0.70200	-0
0.70567	-0
0.70933	-0
0.71300	-1
0.71667	-1
0.72033	-1
0.72400	-0
0.72767	-0
0.73133	-0
0.73500	-0
0.73867	-0
0.74233	-0
0.74600	-1
0.74967	-1
0.75333	-1
0.75700	-1
0.76067	-1
0.76433	-1
0.76800	-2
0.77167	-2
0.77533	-2
0.77900	-2
0.78267	-3
0.78633	-3
0.79000	-4
0.79367	-4
0.79733	-4
0.80100	-4
0.80467	-4
0.80833	-4
0.81200	-4
0.81567	-4
0.81933	-4
0.82300	-4
0.82667	-4
0.83033	-4
0.83400	-3
0.83767	-2
0.84133	-2
0.84500	-2
0.84867	-1
0.85233	-1
0.85600	-1
0.85967	-1
0.86333	-1
0.86700	-1
0.87067	-0
0.87433	-0
0.87800	0
0.88167	0
0.88533	1
0.88900	1
0.89267	1
0.89633	1
0.90000	1
0.90367	1
0.90733	0
0.91100	0
0.91467	0
0.91833	0
0.92200	0
0.92567	1
0.92933	1
0.93300	0
0.93667	0
0.94033	0
0.94400	0
0.94767	-0
0.95133	-1
0.95500	-1
0.95867	-1
0.96233	-2
0.96600	-2
0.96967	-2
0.97333	-1
0.97700	-1
0.98067	-2
0.98433	-2
0.98800	-2
0.99167	-2
0.99533	-2
0.99900	-2
1.00267	-2
1.00633	-2
1.01000	-2
1.01367	-2
1.01733	-1
1.02100	-1
1.02467	-0
1.02833	-0
1.03200	-0
1.03567	-0
1.03933	-0
1.04300	-0
1.04667	-0
1.05033	-0
1.05400	-0
1.05767	0
1.06133	0
1.06500	0
1.06867	1
1.07233	1
1.07600	1
1.07967	1
1.08333	1
1.08700	0
1.09067	0
1.09433	0
1.09800	0
1.10167	-0
1.10533	-0
1.10900	-1
1.11267	-1
1.11633	-1
1.12000	-1
1.12367	-1
1.12733	-1
1.13100	-1
1.13467	-1
1.13833	-1
1.14200	-1
1.14567	-1
1.14933	-1
1.15300	-1
1.15667	-2
1.16033	-2
1.16400	-2
1.16767	-2
1.17133	-2
1.17500	-1
1.17867	-1
1.18233	-1
1.18600	-1
1.18967	-0
1.19333	0
1.19700	0
1.20067	1
1.20433	1
1.20800	0
1.21167	0
1.21533	1
1.21900	1
1.22267	1
1.22633	1
1.23000	1
1.23367	2
1.23733	2
1.24100	2
1.24467	2
1.24833	2
1.25200	2
1.25567	1
1.25933	1
1.26300	1
1.26667	0
1.27033	-0
1.27400	-0
1.27767	-1
1.28133	-1
1.28500	-1
1.28867	-1
1.29233	-1
1.29600	-1
1.29967	-2
1.30333	-2
1.30700	-2
1.31067	-2
1.31433	-2
1.31800	-2
1.32167	-2
1.32533	-2
1.32900	-2
1.33267	-2
1.33633	-2
1.34000	-2
1.34367	-2
1.34733	-2
1.35100	-1
1.35467	-1
1.35833	-1
1.36200	-1
1.36567	-1
1.36933	-1
1.37300	-1
1.37667	-1
1.38033	-1
1.38400	-2
1.38767	-2
1.39133	-2
1.39500	-3
1.39867	-3
1.40233	-3
1.40600	-3
1.40967	-3
1.41333	-3
1.41700	-3
1.42067	-3
1.42433	-3
1.42800	-3
1.43167	-2
1.43533	-2
1.43900	-2
1.44267	-2
1.44633	-2
1.45000	-2
1.45367	-2
1.45733	-2
1.46100	-2
1.46467	-2
1.46833	-2
1.47200	-2
1.47567	-2
1.47933	-2
1.48300	-3
1.48667	-3
1.49033	-3
1.49400	-4
1.49767	-4
1.50133	-4
1.50500	-4
1.50867	-4
1.51233	-4
1.51600	-4
1.51967	-4
1.52333	-4
1.52700	-4
1.53067	-4
1.53433	-4
1.53800	-4
1.54167	-4
1.54533	-3
1.54900	-3
1.55267	-3
1.55633	-3
1.56000	-3
1.56367	-3
1.56733	-3
1.57100	-3
1.57467	-2
1.57833	-2
1.58200	-2
1.58567	-1
1.58933	-1
1.59300	-2
1.59667	-2
1.60033	-2
1.60400	-3
1.60767	-4
1.61133	-5
1.61500	-7
1.61867	-9
1.62233	-11
1.62600	-14
1.62967	-17
1.63333	-20
1.63700	-24
1.64067	-28
1.64433	-32
1.64800	-36
1.65167	-41
1.65533	-45
1.65900	-49
1.66267	-53
1.66633	-58
1.67000	-63
1.67367	-68
1.67733	-74
1.68100	-80
1.68467	-85
1.68833	-90
1.69200	-94
1.69567	-97
1.69933	-100
1.70300	-102
1.70667	-104
1.71033	-105
1.71400	-106
1.71767	-107
1.72133	-108
1.72500	-109
1.72867	-110
1.73233	-111
1.73600	-111
1.73967	-112
1.74333	-112
1.74700	-112
1.75067	-112
1.75433	-112
1.75800	-112
1.76167	-112
1.76533	-111
1.76900	-112
1.77267	-112
1.77633	-112
1.78000	-113
1.78367	-114
1.78733	-114
1.79100	-115
1.79467	-116
1.79833	-117
1.80200	-117
1.80567	-118
1.80933	-118
1.81300	-117
1.81667	-116
1.82033	-115
1.82400	-115
1.82767	-114
1.83133	-114
1.83500	-114
1.83867	-114
1.84233	-115
1.84600	-115
1.84967	-116
1.85333	-116
1.85700	-117
1.86067	-117
1.86433	-117
1.86800	-117
1.87167	-117
1.87533	-117
1.87900	-117
1.88267	-116
1.88633	-115
1.89000	-115
1.89367	-115
1.89733	-115
1.90100	-115
1.90467	-115
1.90833	-115
1.91200	-115
1.91567	-115
1.91933	-114
1.92300	-114
1.92667	-114
1.93033	-114
1.93400	-114
1.93767	-113
1.94133	-113
1.94500	-113
1.94867	-113
1.95233	-113
1.95600	-113
1.95967	-114
1.96333	-114
1.96700	-114
1.97067	-114
1.97433	-114
1.97800	-114
1.98167	-114
1.98533	-114
1.98900	-114
1.99267	-114
1.99633	-113
2.00000	-113
2.00367	-112
2.00733	-111
2.01100	-110
2.01467	-109
2.01833	-109
2.02200	-108
2.02567	-108
2.02933	-107
2.03300	-107
2.03667	-106
2.04033	-106
2.04400	-106
2.04767	-107
2.05133	-107
2.05500	-107
2.05867	-107
2.06233	-107
2.06600	-106
2.06967	-106
2.07333	-105
2.07700	-104
2.08067	-104
2.08433	-104
2.08800	-103
2.09167	-103
2.09533	-103
2.09900	-103
2.10267	-102
2.10633	-102
2.11000	-101
2.11367	-101
2.11733	-100
2.12100	-100
2.12467	-100
2.12833	-100
2.13200	-99
2.13567	-98
2.13933	-97
2.14300	-96
2.14667	-96
2.15033	-96
2.15400	-96
2.15767	-96
2.16133	-96
2.16500	-96
2.16867	-96
2.17233	-95
2.17600	-95
2.17967	-95
2.18333	-94
2.18700	-94
2.19067	-94
2.19433	-94
2.19800	-93
2.20167	-93
2.20533	-93
2.20900	-92
2.21267	-92
2.21633	-91
2.22000	-91
2.22367	-90
2.22733	-90
2.23100	-90
2.23467	-89
2.23833	-89
2.24200	-89
2.24567	-88
2.24933	-88
2.25300	-88
2.25667	-88
2.26033	-88
2.26400	-88
2.26767	-88
2.27133	-87
2.27500	-86
2.27867	-85
2.28233	-84
2.28600	-84
2.28967	-83
2.29333	-84
2.29700	-84
2.30067	-85
2.30433	-85
2.30800	-85
2.31167	-85
2.31533	-85
2.31900	-85
2.32267	-85
2.32633	-84
2.33000	-82
2.33367	-81
2.33733	-81
2.34100	-80
2.34467	-80
2.34833	-80
2.35200	-80
2.35567	-80
2.35933	-79
2.36300	-78
2.36667	-77
2.37033	-75
2.37400	-73
2.37767	-71
2.38133	-67
2.38500	-64
2.38867	-60
2.39233	-55
2.39600	-51
2.39967	-47
2.40333	-42
2.40700	-38
2.41067	-34
2.41433	-31
2.41800	-27
2.42167	-24
2.42533	-22
2.42900	-20
2.43267	-18
2.43633	-16
2.44000	-15
2.44367	-13
2.44733	-12
2.45100	-10
2.45467	-8
2.45833	-6
2.46200	-4
2.46567	-2
2.46933	-1
2.47300	0
2.47667	1
2.48033	2
2.48400	3
2.48767	4
2.49133	4
2.49500	5
2.49867	6
2.50233	7
2.50600	7
2.50967	8
2.51333	9
2.51700	9
2.52067	10
2.52433	11
2.52800	12
2.53167	12
2.53533	13
2.53900	13
2.54267	13
2.54633	13
2.55000	13
2.55367	14
2.55733	14
2.56100	15
2.56467	15
2.56833	15
2.57200	15
2.57567	15
2.57933	15
2.58300	16
2.58667	16
2.59033	16
2.59400	16
2.59767	17
2.60133	17
2.60500	18
2.60867	18
2.61233	18
2.61600	18
2.61967	18
2.62333	18
2.62700	18
2.63067	18
2.63433	18
2.63800	18
2.64167	19
2.64533	19
2.64900	20
2.65267	20
2.65633	21
2.66000	21
2.66367	22
2.66733	22
2.67100	22
2.67467	22
2.67833	22
2.68200	22
2.68567	22
2.68933	22
2.69300	22
2.69667	22
2.70033	22
2.70400	22
2.70767	23
2.71133	23
2.71500	23
2.71867	24
2.72233	24
2.72600	24
2.72967	25
2.73333	25
2.73700	25
2.74067	25
2.74433	25
2.74800	25
2.75167	25
2.75533	26
2.75900	26
2.76267	26
2.76633	26
2.77000	27
2.77367	27
2.77733	26
2.78100	26
2.78467	26
2.78833	26
2.79200	26
2.79567	26
2.79933	26
2.80300	26
2.80667	26
2.81033	26
2.81400	26
2.81767	26
2.82133	26
2.82500	26
2.82867	26
2.83233	26
2.83600	25
2.83967	23
2.84333	21
2.84700	16
2.85067	9
2.85433	-1
2.85800	-14
2.86167	-32
2.86533	-54
2.86900	-80
2.87267	-110
2.87633	-145
2.88000	-184
2.88367	-226
2.88733	-271
2.89100	-319
2.89467	-369
2.89833	-421
2.90200	-475
2.90567	-529
2.90933	-583
2.91300	-638
2.91667	-692
2.92033	-745
2.92400	-797
2.92767	-848
2.93133	-900
2.93500	-957
2.93867	-1017
2.94233	-1068
2.94600	-1102
2.94967	-1111
2.95333	-1094
2.95700	-1054
2.96067	-995
2.96433	-924
2.96800	-845
2.97167	-764
2.97533	-683
2.97900	-606
2.98267	-533
2.98633	-466
2.99000	-405
2.99367	-351
2.99733	-302
3.00100	-260
3.00467	-222
3.00833	-189
3.01200	-161
3.01567	-136
3.01933	-115
3.02300	-96
3.02667	-81
3.03033	-67
3.03400	-56
3.03767	-46
3.04133	-37
3.04500	-30
3.04867	-23
3.05233	-18
3.05600	-13
3.05967	-9
3.06333	-6
3.06700	-3
3.07067	-0
3.07433	2
3.07800	4
3.08167	6
3.08533	7
3.08900	9
3.09267	10
3.09633	11
3.10000	12
3.10367	13
3.10733	14
3.11100	14
3.11467	15
3.11833	15
3.12200	15
3.12567	16
3.12933	16
3.13300	17
3.13667	17
3.14033	17
3.14400	18
3.14767	18
3.15133	19
3.15500	19
3.15867	19
3.16233	19
3.16600	19
3.16967	20
3.17333	20
3.17700	20
3.18067	20
3.18433	20
3.18800	20
3.19167	20
3.19533	20
3.19900	20
3.20267	20
3.20633	21
3.21000	21
3.21367	21
3.21733	21
3.22100	21
3.22467	22
3.22833	22
3.23200	22
3.23567	22
3.23933	22
3.24300	22
3.24667	21
3.25033	21
3.25400	21
3.25767	21
3.26133	22
3.26500	22
3.26867	22
3.27233	22
3.27600	22
3.27967	22
3.28333	22
3.28700	22
3.29067	22
3.29433	23
3.29800	23
3.30167	24
3.30533	24
3.30900	25
3.31267	25
3.31633	26
3.32000	26
3.32367	27
3.32733	27
3.33100	27
3.33467	27
3.33833	27
3.34200	27
3.34567	27
3.34933	27
3.35300	27
3.35667	27
3.36033	27
3.36400	27
3.36767	27
3.37133	27
3.37500	27
3.37867	27
3.38233	27
3.38600	27
3.38967	27
3.39333	27
3.39700	27
3.40067	27
3.40433	28
3.40800	28
3.41167	28
3.41533	28
3.41900	28
3.42267	28
3.42633	28
3.43000	28
3.43367	27
3.43733	27
3.44100	27
3.44467	27
3.44833	27
3.45200	27
3.45567	27
3.45933	27
3.46300	27
3.46667	27
3.47033	28
3.47400	28
3.47767	27
3.48133	27
3.48500	27
3.48867	27
3.49233	27
3.49600	27
3.49967	27
3.50333	27
3.50700	27
3.51067	27
3.51433	27
3.51800	27
3.52167	28
3.52533	28
3.52900	28
3.53267	28
3.53633	28
3.54000	28
3.54367	28
3.54733	28
3.55100	28
3.55467	28
3.55833	28
3.56200	28
3.56567	28
3.56933	28
3.57300	27
3.57667	27
3.58033	27
3.58400	27
3.58767	27
3.59133	27
3.59500	27
3.59867	27
3.60233	27
3.60600	27
3.60967	27
3.61333	27
3.61700	27
3.62067	27
3.62433	27
3.62800	27
3.63167	27
3.63533	27
3.63900	27
3.64267	27
3.64633	28
3.65000	27
3.65367	27
3.65733	27
3.66100	27
3.66467	28
3.66833	28
3.67200	28
3.67567	28
3.67933	28
3.68300	27
3.68667	27
3.69033	27
3.69400	27
3.69767	27
3.70133	27
3.70500	27
3.70867	27
3.71233	27
3.71600	27
3.71967	27
3.72333	27
3.72700	27
3.73067	27
3.73433	27
3.73800	27
3.74167	27
3.74533	27
3.74900	27
3.75267	27
3.75633	27
3.76000	27
3.76367	26
3.76733	26
3.77100	26
3.77467	26
3.77833	26
3.78200	26
3.78567	26
3.78933	26
3.79300	26
3.79667	25
3.80033	25
3.80400	25
3.80767	25
3.81133	25
3.81500	25
3.81867	25
3.82233	25
3.82600	25
3.82967	25
3.83333	25
3.83700	25
3.84067	25
3.84433	25
3.84800	25
3.85167	25
3.85533	26
3.85900	26
3.86267	26
3.86633	26
3.87000	26
3.87367	26
3.87733	26
3.88100	26
3.88467	26
3.88833	26
3.89200	26
3.89567	26
3.89933	26
3.90300	26
3.90667	26
3.91033	27
3.91400	27
3.91767	27
3.92133	27
3.92500	26
3.92867	26
3.93233	26
3.93600	25
3.93967	25
3.94333	25
3.94700	25
3.95067	25
3.95433	25
3.95800	25
3.96167	24
3.96533	24
3.96900	24
3.97267	24
3.97633	24
3.98000	24
3.98367	25
3.98733	25
3.99100	25
3.99467	25
3.99833	26

[Chromatogram (Ch3)]
Interval(msec)	220
# of Points	1091
Start Time(min)	0.002
End Time(min)	3.998
R.Time (min)	Intensity
0.00167	-0
0.00533	-0
0.00900	-1
0.01267	-1
0.01633	-0
0.02000	0
0.02367	-2
0.02733	-4
0.03100	-5
0.03467	-5
0.03833	-6
0.04200	-7
0.04567	-6
0.04933	-5
0.05300	-5
0.05667	-4
0.06033	-3
0.06400	-2
0.06767	-3
0.07133	-4
0.07500	-2
0.07867	-2
0.08233	-3
0.08600	-3
0.08967	-5
0.09333	-3
0.09700	-2
0.10067	-0
0.10433	-0
0.10800	-0
0.11167	2
0.11533	1
0.11900	0
0.12267	-1
0.12633	-2
0.13000	-4
0.13367	-6
0.13733	-5
0.14100	-3
0.14467	-1
0.14833	0
0.15200	0
0.15567	1
0.15933	1
0.16300	-0
0.16667	1
0.17033	1
0.17400	0
0.17767	-2
0.18133	-3
0.18500	-5
0.18867	-6
0.19233	-6
0.19600	-5
0.19967	-4
0.20333	-4
0.20700	-3
0.21067	-1
0.21433	1
0.21800	1
0.22167	2
0.22533	2
0.22900	1
0.23267	3
0.23633	2
0.24000	1
0.24367	-1
0.24733	-2
0.25100	0
0.25467	1
0.25833	0
0.26200	-1
0.26567	0
0.26933	-0
0.27300	-2
0.27667	-4
0.28033	-5
0.28400	-4
0.28767	-2
0.29133	1
0.29500	1
0.29867	3
0.30233	5
0.30600	2
0.30967	0
0.31333	1
0.31700	1
0.32067	-1
0.32433	-4
0.32800	-3
0.33167	-1
0.33533	1
0.33900	2
0.34267	2
0.34633	2
0.35000	3
0.35367	4
0.35733	5
0.36100	5
0.36467	2
0.36833	1
0.37200	-0
0.37567	-0
0.37933	0
0.38300	1
0.38667	1
0.39033	2
0.39400	1
0.39767	2
0.40133	3
0.40500	4
0.40867	4
0.41233	4
0.41600	3
0.41967	2
0.42333	2
0.42700	3
0.43067	4
0.43433	4
0.43800	5
0.44167	5
0.44533	4
0.44900	4
0.45267	5
0.45633	5
0.46000	2
0.46367	2
0.46733	3
0.47100	1
0.47467	1
0.47833	3
0.48200	4
0.48567	5
0.48933	7
0.49300	9
0.49667	9
0.50033	7
0.50400	5
0.50767	4
0.51133	3
0.51500	1
0.51867	-1
0.52233	0
0.52600	4
0.52967	3
0.53333	2
0.53700	1
0.54067	2
0.54433	2
0.54800	2
0.55167	1
0.55533	1
0.55900	3
0.56267	2
0.56633	1
0.57000	1
0.57367	1
0.57733	0
0.58100	0
0.58467	2
0.58833	3
0.59200	4
0.59567	7
0.59933	9
0.60300	8
0.60667	8
0.61033	8
0.61400	7
0.61767	6
0.62133	4
0.62500	3
0.62867	2
0.63233	0
0.63600	-0
0.63967	-1
0.64333	-2
0.64700	-1
0.65067	1
0.65433	2
0.65800	4
0.66167	6
0.66533	6
0.66900	5
0.67267	4
0.67633	2
0.68000	-1
0.68367	-3
0.68733	-2
0.69100	0
0.69467	3
0.69833	5
0.70200	6
0.70567	6
0.70933	6
0.71300	8
0.71667	9
0.72033	10
0.72400	10
0.72767	10
0.73133	9
0.73500	8
0.73867	8
0.74233	8
0.74600	8
0.74967	9
0.75333	9
0.75700	10
0.76067	11
0.76433	10
0.76800	10
0.77167	12
0.77533	12
0.77900	11
0.78267	10
0.78633	7
0.79000	6
0.79367	8
0.79733	10
0.80100	12
0.80467	11
0.80833	10
0.81200	9
0.81567	9
0.81933	10
0.82300	11
0.82667	12
0.83033	11
0.83400	8
0.83767	6
0.84133	6
0.84500	7
0.84867	6
0.85233	5
0.85600	6
0.85967	6
0.86333	6
0.86700	7
0.87067	5
0.87433	3
0.87800	1
0.88167	0
0.88533	2
0.88900	4
0.89267	7
0.89633	8
0.90000	7
0.90367	7
0.90733	9
0.91100	10
0.91467	10
0.91833	10
0.92200	10
0.92567	8
0.92933	8
0.93300	6
0.93667	6
0.94033	6
0.94400	8
0.94767	10
0.95133	10
0.95500	11
0.95867	11
0.96233	9
0.96600	9
0.96967	9
0.97333	10
0.97700	9
0.98067	8
0.98433	9
0.98800	9
0.99167	10
0.99533	10
0.99900	11
1.00267	11
1.00633	14
1.01000	14
1.01367	13
1.01733	12
1.02100	11
1.02467	10
1.02833	9
1.03200	8
1.03567	8
1.03933	6
1.04300	7
1.04667	9
1.05033	9
1.05400	9
1.05767	8
1.06133	7
1.06500	7
1.06867	8
1.07233	10
1.07600	11
1.07967	13
1.08333	16
1.08700	16
1.09067	16
1.09433	14
1.09800	13
1.10167	13
1.10533	12
1.10900	10
1.11267	10
1.11633	12
1.12000	13
1.12367	11
1.12733	9
1.13100	9
1.13467	10
1.13833	10
1.14200	10
1.14567	10
1.14933	10
1.15300	11
1.15667	13
1.16033	13
1.16400	12
1.16767	12
1.17133	12
1.17500	12
1.17867	11
1.18233	10
1.18600	10
1.18967	9
1.19333	10
1.19700	11
1.20067	10
1.20433	9
1.20800	9
1.21167	10
1.21533	11
1.21900	11
1.22267	12
1.22633	13
1.23000	13
1.23367	13
1.23733	13
1.24100	11
1.24467	12
1.24833	12
1.25200	11
1.25567	12
1.25933	12
1.26300	12
1.26667	13
1.27033	14
1.27400	14
1.27767	14
1.28133	13
1.28500	13
1.28867	11
1.29233	12
1.29600	11
1.29967	11
1.30333	13
1.30700	15
1.31067	16
1.31433	16
1.31800	15
1.32167	13
1.32533	13
1.32900	14
1.33267	15
1.33633	15
1.34000	15
1.34367	14
1.34733	12
1.35100	13
1.35467	13
1.35833	12
1.36200	12
1.36567	13
1.36933	13
1.37300	11
1.37667	11
1.38033	8
1.38400	6
1.38767	4
1.39133	3
1.39500	6
1.39867	9
1.40233	11
1.40600	12
1.40967	12
1.41333	12
1.41700	11
1.42067	10
1.42433	9
1.42800	10
1.43167	13
1.43533	15
1.43900	16
1.44267	14
1.44633	13
1.45000	15
1.45367	15
1.45733	15
1.46100	13
1.46467	12
1.46833	10
1.47200	8
1.47567	9
1.47933	12
1.48300	13
1.48667	12
1.49033	12
1.49400	15
1.49767	18
1.50133	19
1.50500	19
1.50867	17
1.51233	14
1.51600	14
1.51967	14
1.52333	13
1.52700	13
1.53067	14
1.53433	13
1.53800	13
1.54167	12
1.54533	11
1.54900	13
1.55267	12
1.55633	13
1.56000	13
1.56367	13
1.56733	14
1.57100	16
1.57467	17
1.57833	17
1.58200	17
1.58567	16
1.58933	15
1.59300	15
1.59667	17
1.60033	19
1.60400	20
1.60767	21
1.61133	20
1.61500	19
1.61867	18
1.62233	17
1.62600	18
1.62967	17
1.63333	18
1.63700	21
1.64067	23
1.64433	23
1.64800	23
1.65167	21
1.65533	21
1.65900	21
1.66267	21
1.66633	21
1.67000	20
1.67367	19
1.67733	16
1.68100	14
1.68467	13
1.68833	13
1.69200	15
1.69567	18
1.69933	18
1.70300	22
1.70667	26
1.71033	27
1.71400	24
1.71767	21
1.72133	20
1.72500	21
1.72867	21
1.73233	23
1.73600	25
1.73967	27
1.74333	27
1.74700	28
1.75067	27
1.75433	27
1.75800	27
1.76167	29
1.76533	27
1.76900	27
1.77267	28
1.77633	29
1.78000	29
1.78367	30
1.78733	31
1.79100	31
1.79467	30
1.79833	30
1.80200	30
1.80567	34
1.80933	37
1.81300	38
1.81667	37
1.82033	36
1.82400	34
1.82767	32
1.83133	30
1.83500	31
1.83867	33
1.84233	35
1.84600	37
1.84967	39
1.85333	40
1.85700	39
1.86067	37
1.86433	36
1.86800	35
1.87167	34
1.87533	34
1.87900	34
1.88267	35
1.88633	36
1.89000	39
1.89367	37
1.89733	39
1.90100	40
1.90467	40
1.90833	42
1.91200	45
1.91567	44
1.91933	43
1.92300	42
1.92667	44
1.93033	45
1.93400	45
1.93767	45
1.94133	45
1.94500	43
1.94867	41
1.95233	41
1.95600	42
1.95967	44
1.96333	48
1.96700	52
1.97067	53
1.97433	53
1.97800	52
1.98167	50
1.98533	49
1.98900	48
1.99267	49
1.99633	54
2.00000	54
2.00367	55
2.00733	57
2.01100	60
2.01467	61
2.01833	60
2.02200	58
2.02567	57
2.02933	57
2.03300	58
2.03667	60
2.04033	63
2.04400	64
2.04767	63
2.05133	63
2.05500	62
2.05867	60
2.06233	61
2.06600	64
2.06967	68
2.07333	69
2.07700	69
2.08067	68
2.08433	68
2.08800	69
2.09167	69
2.09533	68
2.09900	69
2.10267	70
2.10633	68
2.11000	68
2.11367	72
2.11733	75
2.12100	76
2.12467	80
2.12833	83
2.13200	81
2.13567	79
2.13933	78
2.14300	77
2.14667	77
2.15033	76
2.15400	76
2.15767	78
2.16133	80
2.16500	81
2.16867	83
2.17233	86
2.17600	88
2.17967	90
2.18333	92
2.18700	93
2.19067	94
2.19433	96
2.19800	99
2.20167	99
2.20533	98
2.20900	99
2.21267	100
2.21633	103
2.22000	104
2.22367	104
2.22733	103
2.23100	102
2.23467	103
2.23833	104
2.24200	106
2.24567	108
2.24933	109
2.25300	110
2.25667	111
2.26033	113
2.26400	115
2.26767	116
2.27133	116
2.27500	117
2.27867	119
2.28233	119
2.28600	120
2.28967	122
2.29333	123
2.29700	121
2.30067	122
2.30433	123
2.30800	126
2.31167	127
2.31533	126
2.31900	128
2.32267	131
2.32633	132
2.33000	133
2.33367	136
2.33733	138
2.34100	139
2.34467	140
2.34833	141
2.35200	142
2.35567	143
2.35933	145
2.36300	147
2.36667	149
2.37033	147
2.37400	149
2.37767	151
2.38133	152
2.38500	152
2.38867	151
2.39233	151
2.39600	153
2.39967	156
2.40333	159
2.40700	163
2.41067	165
2.41433	167
2.41800	168
2.42167	171
2.42533	175
2.42900	179
2.43267	180
2.43633	179
2.44000	180
2.44367	209
2.44733	293
2.45100	386
2.45467	462
2.45833	514
2.46200	529
2.46567	515
2.46933	489
2.47300	466
2.47667	452
2.48033	445
2.48400	438
2.48767	427
2.49133	406
2.49500	381
2.49867	356
2.50233	337
2.50600	323
2.50967	314
2.51333	307
2.51700	303
2.52067	302
2.52433	305
2.52800	312
2.53167	323
2.53533	334
2.53900	343
2.54267	350
2.54633	352
2.55000	350
2.55367	343
2.55733	332
2.56100	318
2.56467	303
2.56833	289
2.57200	279
2.57567	269
2.57933	263
2.58300	262
2.58667	263
2.59033	262
2.59400	261
2.59767	256
2.60133	247
2.60500	234
2.60867	214
2.61233	193
2.61600	170
2.61967	148
2.62333	130
2.62700	116
2.63067	105
2.63433	96
2.63800	93
2.64167	94
2.64533	98
2.64900	106
2.65267	117
2.65633	126
2.66000	136
2.66367	148
2.66733	161
2.67100	172
2.67467	181
2.67833	190
2.68200	196
2.68567	201
2.68933	205
2.69300	211
2.69667	215
2.70033	215
2.70400	217
2.70767	218
2.71133	218
2.71500	216
2.71867	212
2.72233	211
2.72600	209
2.72967	207
2.73333	207
2.73700	209
2.74067	207
2.74433	206
2.74800	207
2.75167	209
2.75533	208
2.75900	210
2.76267	213
2.76633	215
2.77000	217
2.77367	217
2.77733	216
2.78100	216
2.78467	215
2.78833	217
2.79200	219
2.79567	219
2.79933	220
2.80300	221
2.80667	222
2.81033	226
2.81400	230
2.81767	235
2.82133	253
2.82500	294
2.82867	373
2.83233	515
2.83600	741
2.83967	1066
2.84333	1499
2.84700	2027
2.85067	2619
2.85433	3232
2.85800	3819
2.86167	4335
2.86533	4739
2.86900	5005
2.87267	5122
2.87633	5098
2.88000	4954
2.88367	4715
2.88733	4410
2.89100	4067
2.89467	3710
2.89833	3355
2.90200	3012
2.90567	2690
2.90933	2392
2.91300	2122
2.91667	1882
2.92033	1670
2.92400	1484
2.92767	1319
2.93133	1174
2.93500	1050
2.93867	942
2.94233	849
2.94600	767
2.94967	695
2.95333	633
2.95700	579
2.96067	532
2.96433	492
2.96800	460
2.97167	433
2.97533	409
2.97900	388
2.98267	371
2.98633	355
2.99000	341
2.99367	327
2.99733	318
3.00100	308
3.00467	299
3.00833	291
3.01200	285
3.01567	279
3.01933	271
3.02300	267
3.02667	264
3.03033	260
3.03400	258
3.03767	254
3.04133	250
3.04500	246
3.04867	242
3.05233	241
3.05600	241
3.05967	237
3.06333	233
3.06700	230
3.07067	227
3.07433	225
3.07800	223
3.08167	222
3.08533	221
3.08900	220
3.09267	217
3.09633	214
3.10000	211
3.10367	209
3.10733	209
3.11100	210
3.11467	209
3.11833	205
3.12200	204
3.12567	204
3.12933	202
3.13300	202
3.13667	201
3.14033	198
3.14400	195
3.14767	195
3.15133	196
3.15500	197
3.15867	197
3.16233	196
3.16600	194
3.16967	194
3.17333	194
3.17700	194
3.18067	194
3.18433	196
3.18800	196
3.19167	198
3.19533	199
3.19900	197
3.20267	196
3.20633	195
3.21000	197
3.21367	200
3.21733	202
3.22100	201
3.22467	198
3.22833	198
3.23200	200
3.23567	198
3.23933	198
3.24300	199
3.24667	199
3.25033	201
3.25400	202
3.25767	201
3.26133	202
3.26500	203
3.26867	202
3.27233	201
3.27600	199
3.27967	198
3.28333	199
3.28700	199
3.29067	195
3.29433	186
3.29800	173
3.30167	160
3.30533	149
3.30900	141
3.31267	140
3.31633	144
3.32000	156
3.32367	174
3.32733	198
3.33100	228
3.33467	264
3.33833	301
3.34200	338
3.34567	373
3.34933	407
3.35300	439
3.35667	467
3.36033	492
3.36400	512
3.36767	528
3.37133	541
3.37500	555
3.37867	568
3.38233	579
3.38600	586
3.38967	594
3.39333	601
3.39700	606
3.40067	611
3.40433	616
3.40800	618
3.41167	622
3.41533	626
3.41900	629
3.42267	632
3.42633	634
3.43000	635
3.43367	637
3.43733	639
3.44100	640
3.44467	640
3.44833	640
3.45200	638
3.45567	636
3.45933	635
3.46300	635
3.46667	634
3.47033	633
3.47400	634
3.47767	637
3.48133	637
3.48500	633
3.48867	632
3.49233	633
3.49600	634
3.49967	637
3.50333	636
3.50700	635
3.51067	632
3.51433	628
3.51800	625
3.52167	623
3.52533	622
3.52900	624
3.53267	624
3.53633	625
3.54000	625
3.54367	624
3.54733	623
3.55100	622
3.55467	622
3.55833	620
3.56200	620
3.56567	620
3.56933	620
3.57300	619
3.57667	617
3.58033	615
3.58400	614
3.58767	612
3.59133	611
3.59500	610
3.59867	608
3.60233	607
3.60600	606
3.60967	604
3.61333	605
3.61700	603
3.62067	600
3.62433	595
3.62800	593
3.63167	590
3.63533	588
3.63900	586
3.64267	585
3.64633	585
3.65000	581
3.65367	576
3.65733	573
3.66100	571
3.66467	568
3.66833	566
3.67200	564
3.67567	562
3.67933	562
3.68300	560
3.68667	558
3.69033	554
3.69400	550
3.69767	548
3.70133	549
3.70500	550
3.70867	548
3.71233	543
3.71600	539
3.71967	537
3.72333	536
3.72700	535
3.73067	535
3.73433	535
3.73800	532
3.74167	532
3.74533	532
3.74900	531
3.75267	531
3.75633	531
3.76000	532
3.76367	532
3.76733	531
3.77100	529
3.77467	526
3.77833	524
3.78200	522
3.78567	521
3.78933	521
3.79300	519
3.79667	517
3.80033	517
3.80400	519
3.80767	520
3.81133	520
3.81500	517
3.81867	514
3.82233	512
3.82600	510
3.82967	509
3.83333	509
3.83700	509
3.84067	509
3.84433	509
3.84800	507
3.85167	506
3.85533	504
3.85900	502
3.86267	500
3.86633	500
3.87000	501
3.87367	499
3.87733	498
3.88100	498
3.88467	497
3.88833	497
3.89200	496
3.89567	496
3.89933	496
3.90300	498
3.90667	499
3.91033	499
3.91400	498
3.91767	496
3.92133	494
3.92500	494
3.92867	495
3.93233	494
3.93600	494
3.93967	493
3.94333	491
3.94700	491
3.95067	490
3.95433	488
3.95800	487
3.96167	488
3.96533	488
3.96900	487
3.97267	486
3.97633	486
3.98000	487
3.98367	487
3.98733	486
3.99100	485
3.99467	483
3.99833	479

[Status Trace (Column Oven Temperature)]
Interval(msec)	1000
# of Points	240
Start Time(min)	0.013
End Time(min)	3.996
Intensity Units	
Intensity Multiplier	1
R.Time (min)	Intensity
0.01278	35.01
0.02945	35.02
0.04612	35.01
0.06278	35.01
0.07945	35.01
0.09612	35.02
0.11278	35.02
0.12945	35.02
0.14612	35.03
0.16278	35.04
0.17945	35.04
0.19612	35.03
0.21278	35.02
0.22945	35.00
0.24612	35.00
0.26278	35.00
0.27945	34.99
0.29612	34.99
0.31278	34.99
0.32945	34.99
0.34612	34.99
0.36278	34.99
0.37945	35.01
0.39612	35.01
0.41278	35.03
0.42945	35.03
0.44612	35.03
0.46278	35.03
0.47945	35.03
0.49612	35.04
0.51278	35.02
0.52945	35.01
0.54612	35.00
0.56278	35.00
0.57945	34.99
0.59612	35.00
0.61278	34.99
0.62945	34.99
0.64612	34.98
0.66278	34.98
0.67945	34.98
0.69612	34.98
0.71278	34.99
0.72945	34.98
0.74612	34.98
0.76278	35.00
0.77945	35.01
0.79612	35.03
0.81278	35.04
0.82945	35.04
0.84612	35.04
0.86278	35.04
0.87945	35.02
0.89612	35.02
0.91278	35.02
0.92945	35.02
0.94612	35.03
0.96278	35.03
0.97945	35.04
0.99612	35.04
1.01278	35.05
1.02945	35.04
1.04612	35.04
1.06278	35.03
1.07945	35.02
1.09612	35.02
1.11278	35.01
1.12945	35.01
1.14612	35.01
1.16278	35.01
1.17945	35.01
1.19612	35.00
1.21278	34.99
1.22945	34.99
1.24612	34.98
1.26278	34.97
1.27945	34.98
1.29612	34.99
1.31278	34.99
1.32945	34.99
1.34612	34.99
1.36278	34.99
1.37945	34.99
1.39612	35.00
1.41278	35.00
1.42945	35.00
1.44612	35.00
1.46278	35.00
1.47945	35.01
1.49612	35.02
1.51278	35.03
1.52945	35.02
1.54612	35.02
1.56278	35.02
1.57945	35.02
1.59612	35.02
1.61278	35.08
1.62945	35.22
1.64612	35.42
1.66278	35.70
1.67945	36.08
1.69612	36.44
1.71278	36.78
1.72945	37.13
1.74612	37.45
1.76278	37.77
1.77945	38.11
1.79612	38.45
1.81278	38.77
1.82945	39.09
1.84612	39.43
1.86278	39.77
1.87945	40.08
1.89612	40.41
1.91278	40.73
1.92945	41.07
1.94612	41.40
1.96278	41.73
1.97945	42.06
1.99612	42.39
2.01278	42.71
2.02945	43.03
2.04612	43.38
2.06278	43.68
2.07945	44.01
2.09612	44.33
2.11278	44.65
2.12945	44.99
2.14612	45.31
2.16278	45.64
2.17945	45.98
2.19612	46.30
2.21278	46.61
2.22945	46.94
2.24612	47.25
2.26278	47.61
2.27945	47.91
2.29612	48.26
2.31278	48.60
2.32945	48.91
2.34612	49.25
2.36278	49.54
2.37945	49.71
2.39612	49.75
2.41278	49.73
2.42945	49.74
2.44612	49.74
2.46278	49.73
2.47945	49.74
2.49612	49.76
2.51278	49.77
2.52945	49.78
2.54612	49.79
2.56278	49.81
2.57945	49.80
2.59612	49.81
2.61278	49.81
2.62945	49.82
2.64612	49.82
2.66278	49.82
2.67945	49.84
2.69612	49.85
2.71278	49.86
2.72945	49.86
2.74612	49.85
2.76278	49.85
2.77945	49.86
2.79612	49.87
2.81278	49.87
2.82945	49.88
2.84612	49.89
2.86278	49.91
2.87945	49.93
2.89612	49.95
2.91278	49.96
2.92945	49.96
2.94612	49.94
2.96278	49.95
2.97945	49.96
2.99612	49.98
3.01278	50.00
3.02945	50.01
3.04612	50.02
3.06278	50.03
3.07945	50.02
3.09612	50.03
3.11278	50.04
3.12945	50.05
3.14612	50.04
3.16278	50.05
3.17945	50.06
3.19612	50.07
3.21278	50.08
3.22945	50.08
3.24612	50.09
3.26278	50.10
3.27945	50.10
3.29612	50.11
3.31278	50.09
3.32945	50.09
3.34612	50.10
3.36278	50.09
3.37945	50.08
3.39612	50.07
3.41278	50.07
3.42945	50.07
3.44612	50.06
3.46278	50.06
3.47945	50.06
3.49612	50.06
3.51278	50.05
3.52945	50.04
3.54612	50.05
3.56278	50.05
3.57945	50.04
3.59612	50.03
3.61278	50.04
3.62945	50.04
3.64612	50.03
3.66278	50.03
3.67945	50.03
3.69612	50.04
3.71278	50.03
3.72945	50.03
3.74612	50.04
3.76278	50.04
3.77945	50.05
3.79612	50.06
3.81278	50.06
3.82945	50.06
3.84612	50.07
3.86278	50.07
3.87945	50.07
3.89612	50.08
3.91278	50.08
3.92945	50.08
3.94612	50.09
3.96278	50.10
3.97945	50.10
3.99612	50.10

[Status Trace (Injection Unit Temperature)]
Interval(msec)	1000
# of Points	240
Start Time(min)	0.013
End Time(min)	3.996
Intensity Units	
Intensity Multiplier	1
R.Time (min)	Intensity
0.01278	99.97
0.02945	99.97
0.04612	99.98
0.06278	99.98
0.07945	99.98
0.09612	99.98
0.11278	99.98
0.12945	99.98
0.14612	99.98
0.16278	99.98
0.17945	99.97
0.19612	99.98
0.21278	99.98
0.22945	99.98
0.24612	99.98
0.26278	99.98
0.27945	99.98
0.29612	99.98
0.31278	99.98
0.32945	99.98
0.34612	99.98
0.36278	99.98
0.37945	99.98
0.39612	99.98
0.41278	99.98
0.42945	99.97
0.44612	99.98
0.46278	99.98
0.47945	99.98
0.49612	99.98
0.51278	99.98
0.52945	99.97
0.54612	99.98
0.56278	99.98
0.57945	99.98
0.59612	99.98
0.61278	99.98
0.62945	99.97
0.64612	99.98
0.66278	99.97
0.67945	99.97
0.69612	99.97
0.71278	99.98
0.72945	99.98
0.74612	99.97
0.76278	99.98
0.77945	99.98
0.79612	99.98
0.81278	99.98
0.82945	99.98
0.84612	99.97
0.86278	99.98
0.87945	99.98
0.89612	99.98
0.91278	99.98
0.92945	99.98
0.94612	99.98
0.96278	99.98
0.97945	99.98
0.99612	99.98
1.01278	99.97
1.02945	99.98
1.04612	99.98
1.06278	99.98
1.07945	99.98
1.09612	99.98
1.11278	99.98
1.12945	99.98
1.14612	99.98
1.16278	99.98
1.17945	99.98
1.19612	99.98
1.21278	99.98
1.22945	99.97
1.24612	99.98
1.26278	99.98
1.27945	99.98
1.29612	99.98
1.31278	99.98
1.32945	99.97
1.34612	99.98
1.36278	99.97
1.37945	99.98
1.39612	99.98
1.41278	99.98
1.42945	99.98
1.44612	99.98
1.46278	99.98
1.47945	99.98
1.49612	99.98
1.51278	99.98
1.52945	99.98
1.54612	99.98
1.56278	99.98
1.57945	99.98
1.59612	99.98
1.61278	99.98
1.62945	99.98
1.64612	99.99
1.66278	99.98
1.67945	99.98
1.69612	99.98
1.71278	99.99
1.72945	99.99
1.74612	99.98
1.76278	99.98
1.77945	99.98
1.79612	99.98
1.81278	99.98
1.82945	99.98
1.84612	99.98
1.86278	99.98
1.87945	99.98
1.89612	99.98
1.91278	99.98
1.92945	99.98
1.94612	99.98
1.96278	99.98
1.97945	99.97
1.99612	99.98
2.01278	99.98
2.02945	99.97
2.04612	99.97
2.06278	99.97
2.07945	99.97
2.09612	99.98
2.11278	99.97
2.12945	99.97
2.14612	99.97
2.16278	99.97
2.17945	99.97
2.19612	99.97
2.21278	99.97
2.22945	99.97
2.24612	99.97
2.26278	99.97
2.27945	99.97
2.29612	99.97
2.31278	99.96
2.32945	99.97
2.34612	99.97
2.36278	99.97
2.37945	99.97
2.39612	99.97
2.41278	99.97
2.42945	99.97
2.44612	99.97
2.46278	99.97
2.47945	99.97
2.49612	99.97
2.51278	99.97
2.52945	99.98
2.54612	99.97
2.56278	99.98
2.57945	99.97
2.59612	99.98
2.61278	99.98
2.62945	99.98
2.64612	99.98
2.66278	99.98
2.67945	99.98
2.69612	99.98
2.71278	99.98
2.72945	99.99
2.74612	99.99
2.76278	99.99
2.77945	99.99
2.79612	99.99
2.81278	99.99
2.82945	99.99
2.84612	99.99
2.86278	99.99
2.87945	100.00
2.89612	100.00
2.91278	100.00
2.92945	100.00
2.94612	100.00
2.96278	100.00
2.97945	100.00
2.99612	100.00
3.01278	100.01
3.02945	100.01
3.04612	100.01
3.06278	100.01
3.07945	100.01
3.09612	100.01
3.11278	100.02
3.12945	100.01
3.14612	100.01
3.16278	100.02
3.17945	100.02
3.19612	100.02
3.21278	100.02
3.22945	100.02
3.24612	100.03
3.26278	100.03
3.27945	100.02
3.29612	100.03
3.31278	100.03
3.32945	100.03
3.34612	100.03
3.36278	100.03
3.37945	100.04
3.39612	100.04
3.41278	100.03
3.42945	100.04
3.44612	100.04
3.46278	100.04
3.47945	100.04
3.49612	100.04
3.51278	100.04
3.52945	100.04
3.54612	100.04
3.56278	100.05
3.57945	100.04
3.59612	100.05
3.61278	100.05
3.62945	100.05
3.64612	100.05
3.66278	100.05
3.67945	100.04
3.69612	100.05
3.71278	100.05
3.72945	100.05
3.74612	100.05
3.76278	100.05
3.77945	100.05
3.79612	100.05
3.81278	100.05
3.82945	100.05
3.84612	100.05
3.86278	100.04
3.87945	100.05
3.89612	100.04
3.91278	100.05
3.92945	100.05
3.94612	100.05
3.96278	100.05
3.97945	100.05
3.99612	100.05

[Status Trace (Carrier Gas Pressure)]
Interval(msec)	1000
# of Points	240
Start Time(min)	0.013
End Time(min)	3.996
Intensity Units	
Intensity Multiplier	1
R.Time (min)	Intensity
0.01278	57.98
0.02945	55.08
0.04612	57.82
0.06278	59.73
0.07945	58.83
0.09612	57.99
0.11278	57.99
0.12945	58.01
0.14612	58.01
0.16278	58.00
0.17945	58.00
0.19612	58.00
0.21278	58.00
0.22945	58.00
0.24612	58.00
0.26278	58.00
0.27945	58.00
0.29612	58.00
0.31278	58.00
0.32945	58.00
0.34612	58.00
0.36278	58.00
0.37945	58.00
0.39612	58.00
0.41278	58.00
0.42945	58.00
0.44612	58.00
0.46278	58.00
0.47945	58.00
0.49612	58.00
0.51278	58.00
0.52945	58.00
0.54612	58.00
0.56278	58.00
0.57945	58.00
0.59612	58.00
0.61278	58.00
0.62945	58.00
0.64612	58.00
0.66278	58.00
0.67945	58.00
0.69612	58.00
0.71278	58.00
0.72945	58.00
0.74612	58.00
0.76278	58.00
0.77945	58.00
0.79612	58.00
0.81278	58.00
0.82945	58.00
0.84612	58.00
0.86278	58.00
0.87945	58.00
0.89612	58.00
0.91278	58.00
0.92945	58.00
0.94612	58.00
0.96278	58.00
0.97945	58.00
0.99612	58.00
1.01278	58.00
1.02945	58.00
1.04612	58.00
1.06278	58.00
1.07945	58.00
1.09612	58.00
1.11278	58.00
1.12945	58.00
1.14612	58.00
1.16278	58.00
1.17945	58.00
1.19612	58.00
1.21278	58.00
1.22945	58.00
1.24612	58.00
1.26278	58.00
1.27945	58.00
1.29612	58.00
1.31278	58.00
1.32945	58.00
1.34612	58.00
1.36278	58.00
1.37945	58.00
1.39612	58.00
1.41278	58.00
1.42945	58.00
1.44612	58.00
1.46278	58.00
1.47945	58.00
1.49612	58.00
1.51278	58.00
1.52945	58.00
1.54612	58.00
1.56278	58.00
1.57945	58.00
1.59612	58.00
1.61278	58.00
1.62945	58.00
1.64612	58.01
1.66278	58.01
1.67945	58.01
1.69612	58.00
1.71278	58.00
1.72945	58.00
1.74612	58.00
1.76278	58.00
1.77945	58.00
1.79612	58.00
1.81278	58.00
1.82945	58.00
1.84612	58.00
1.86278	58.00
1.87945	58.00
1.89612	58.00
1.91278	58.00
1.92945	58.00
1.94612	58.00
1.96278	58.00
1.97945	58.00
1.99612	58.00
2.01278	58.00
2.02945	58.00
2.04612	58.00
2.06278	58.00
2.07945	58.00
2.09612	58.00
2.11278	58.00
2.12945	58.00
2.14612	58.00
2.16278	58.00
2.17945	58.00
2.19612	58.00
2.21278	58.00
2.22945	58.00
2.24612	58.00
2.26278	58.00
2.27945	58.00
2.29612	58.00
2.31278	58.00
2.32945	58.00
2.34612	58.00
2.36278	58.00
2.37945	57.99
2.39612	57.99
2.41278	57.99
2.42945	58.00
2.44612	58.00
2.46278	58.00
2.47945	58.00
2.49612	58.00
2.51278	57.99
2.52945	57.99
2.54612	58.00
2.56278	58.00
2.57945	58.00
2.59612	58.00
2.61278	58.00
2.62945	58.00
2.64612	58.00
2.66278	58.00
2.67945	58.00
2.69612	58.00
2.71278	58.00
2.72945	58.00
2.74612	58.00
2.76278	58.00
2.77945	58.00
2.79612	58.00
2.81278	58.00
2.82945	58.00
2.84612	58.00
2.86278	58.00
2.87945	58.00
2.89612	58.00
2.91278	58.00
2.92945	58.00
2.94612	58.00
2.96278	58.00
2.97945	58.00
2.99612	58.00
3.01278	58.00
3.02945	58.00
3.04612	58.00
3.06278	58.00
3.07945	58.00
3.09612	58.00
3.11278	58.00
3.12945	58.00
3.14612	58.00
3.16278	58.00
3.17945	58.00
3.19612	58.00
3.21278	58.00
3.22945	58.00
3.24612	58.00
3.26278	58.00
3.27945	58.00
3.29612	58.00
3.31278	58.00
3.32945	58.00
3.34612	58.00
3.36278	58.00
3.37945	58.00
3.39612	58.00
3.41278	58.00
3.42945	58.00
3.44612	58.00
3.46278	58.00
3.47945	58.00
3.49612	58.00
3.51278	58.00
3.52945	58.00
3.54612	58.00
3.56278	58.00
3.57945	58.00
3.59612	58.00
3.61278	58.00
3.62945	58.00
3.64612	58.00
3.66278	58.00
3.67945	58.00
3.69612	58.00
3.71278	58.00
3.72945	58.00
3.74612	58.00
3.76278	58.00
3.77945	58.00
3.79612	58.00
3.81278	58.00
3.82945	58.00
3.84612	58.00
3.86278	58.00
3.87945	58.00
3.89612	58.00
3.91278	58.00
3.92945	58.00
3.94612	58.00
3.96278	58.00
3.97945	58.00
3.99612	58.00

[Status Trace (Carrier Gas Flow)]
Interval(msec)	1000
# of Points	240
Start Time(min)	0.013
End Time(min)	3.996
Intensity Units	
Intensity Multiplier	1
R.Time (min)	Intensity
0.01278	34.60
0.02945	34.54
0.04612	34.55
0.06278	34.53
0.07945	34.51
0.09612	34.52
0.11278	34.52
0.12945	34.51
0.14612	34.51
0.16278	34.52
0.17945	34.52
0.19612	34.53
0.21278	34.52
0.22945	34.52
0.24612	34.52
0.26278	34.52
0.27945	34.52
0.29612	34.51
0.31278	34.53
0.32945	34.52
0.34612	34.52
0.36278	34.52
0.37945	34.52
0.39612	34.52
0.41278	34.52
0.42945	34.52
0.44612	34.52
0.46278	34.52
0.47945	34.52
0.49612	34.52
0.51278	34.52
0.52945	34.52
0.54612	34.52
0.56278	34.52
0.57945	34.52
0.59612	34.52
0.61278	34.52
0.62945	34.52
0.64612	34.52
0.66278	34.51
0.67945	34.52
0.69612	34.52
0.71278	34.52
0.72945	34.52
0.74612	34.52
0.76278	34.52
0.77945	34.52
0.79612	34.52
0.81278	34.52
0.82945	34.52
0.84612	34.52
0.86278	34.52
0.87945	34.52
0.89612	34.52
0.91278	34.52
0.92945	34.52
0.94612	34.52
0.96278	34.52
0.97945	34.52
0.99612	34.52
1.01278	34.52
1.02945	34.52
1.04612	34.51
1.06278	34.52
1.07945	34.52
1.09612	34.52
1.11278	34.52
1.12945	34.52
1.14612	34.52
1.16278	34.52
1.17945	34.52
1.19612	34.52
1.21278	34.52
1.22945	34.52
1.24612	34.52
1.26278	34.52
1.27945	34.52
1.29612	34.52
1.31278	34.52
1.32945	34.51
1.34612	34.51
1.36278	34.52
1.37945	34.52
1.39612	34.52
1.41278	34.52
1.42945	34.52
1.44612	34.52
1.46278	34.52
1.47945	34.52
1.49612	34.52
1.51278	34.52
1.52945	34.52
1.54612	34.52
1.56278	34.52
1.57945	34.52
1.59612	34.52
1.61278	34.52
1.62945	34.52
1.64612	34.51
1.66278	34.52
1.67945	34.52
1.69612	34.52
1.71278	34.52
1.72945	34.52
1.74612	34.53
1.76278	34.52
1.77945	34.52
1.79612	34.51
1.81278	34.52
1.82945	34.52
1.84612	34.52
1.86278	34.53
1.87945	34.53
1.89612	34.52
1.91278	34.52
1.92945	34.53
1.94612	34.52
1.96278	34.52
1.97945	34.51
1.99612	34.52
2.01278	34.53
2.02945	34.52
2.04612	34.51
2.06278	34.51
2.07945	34.52
2.09612	34.51
2.11278	34.52
2.12945	34.52
2.14612	34.52
2.16278	34.52
2.17945	34.52
2.19612	34.52
2.21278	34.51
2.22945	34.52
2.24612	34.51
2.26278	34.52
2.27945	34.52
2.29612	34.52
2.31278	34.52
2.32945	34.52
2.34612	34.52
2.36278	34.52
2.37945	34.52
2.39612	34.51
2.41278	34.52
2.42945	34.52
2.44612	34.52
2.46278	34.52
2.47945	34.52
2.49612	34.52
2.51278	34.52
2.52945	34.51
2.54612	34.52
2.56278	34.52
2.57945	34.52
2.59612	34.52
2.61278	34.52
2.62945	34.52
2.64612	34.52
2.66278	34.52
2.67945	34.51
2.69612	34.52
2.71278	34.52
2.72945	34.52
2.74612	34.52
2.76278	34.52
2.77945	34.52
2.79612	34.52
2.81278	34.52
2.82945	34.52
2.84612	34.51
2.86278	34.52
2.87945	34.52
2.89612	34.52
2.91278	34.51
2.92945	34.52
2.94612	34.52
2.96278	34.51
2.97945	34.52
2.99612	34.52
3.01278	34.52
3.02945	34.52
3.04612	34.52
3.06278	34.52
3.07945	34.52
3.09612	34.52
3.11278	34.52
3.12945	34.51
3.14612	34.52
3.16278	34.52
3.17945	34.52
3.19612	34.52
3.21278	34.52
3.22945	34.53
3.24612	34.52
3.26278	34.52
3.27945	34.52
3.29612	34.52
3.31278	34.52
3.32945	34.51
3.34612	34.52
3.36278	34.52
3.37945	34.52
3.39612	34.52
3.41278	34.52
3.42945	34.52
3.44612	34.52
3.46278	34.52
3.47945	34.52
3.49612	34.52
3.51278	34.52
3.52945	34.52
3.54612	34.51
3.56278	34.52
3.57945	34.52
3.59612	34.52
3.61278	34.51
3.62945	34.52
3.64612	34.52
3.66278	34.52
3.67945	34.52
3.69612	34.52
3.71278	34.52
3.72945	34.52
3.74612	34.52
3.76278	34.52
3.77945	34.52
3.79612	34.52
3.81278	34.52
3.82945	34.52
3.84612	34.52
3.86278	34.52
3.87945	34.52
3.89612	34.52
3.91278	34.52
3.92945	34.52
3.94612	34.52
3.96278	34.51
3.97945	34.52
3.99612	34.52

[Status Trace (Column Flow)]
Interval(msec)	1000
# of Points	240
Start Time(min)	0.013
End Time(min)	3.996
Intensity Units	
Intensity Multiplier	1
R.Time (min)	Intensity
0.01278	5.57
0.02945	5.23
0.04612	5.55
0.06278	5.78
0.07945	5.67
0.09612	5.57
0.11278	5.57
0.12945	5.57
0.14612	5.57
0.16278	5.57
0.17945	5.57
0.19612	5.57
0.21278	5.57
0.22945	5.57
0.24612	5.57
0.26278	5.57
0.27945	5.57
0.29612	5.57
0.31278	5.57
0.32945	5.57
0.34612	5.57
0.36278	5.57
0.37945	5.57
0.39612	5.57
0.41278	5.57
0.42945	5.57
0.44612	5.57
0.46278	5.57
0.47945	5.57
0.49612	5.57
0.51278	5.57
0.52945	5.57
0.54612	5.57
0.56278	5.57
0.57945	5.57
0.59612	5.57
0.61278	5.57
0.62945	5.57
0.64612	5.57
0.66278	5.57
0.67945	5.57
0.69612	5.57
0.71278	5.57
0.72945	5.57
0.74612	5.57
0.76278	5.57
0.77945	5.57
0.79612	5.57
0.81278	5.57
0.82945	5.57
0.84612	5.57
0.86278	5.57
0.87945	5.57
0.89612	5.57
0.91278	5.57
0.92945	5.57
0.94612	5.57
0.96278	5.57
0.97945	5.57
0.99612	5.57
1.01278	5.57
1.02945	5.57
1.04612	5.57
1.06278	5.57
1.07945	5.57
1.09612	5.57
1.11278	5.57
1.12945	5.57
1.14612	5.57
1.16278	5.57
1.17945	5.57
1.19612	5.57
1.21278	5.57
1.22945	5.57
1.24612	5.57
1.26278	5.57
1.27945	5.57
1.29612	5.57
1.31278	5.57
1.32945	5.57
1.34612	5.57
1.36278	5.57
1.37945	5.57
1.39612	5.57
1.41278	5.57
1.42945	5.57
1.44612	5.57
1.46278	5.57
1.47945	5.57
1.49612	5.57
1.51278	5.57
1.52945	5.57
1.54612	5.57
1.56278	5.57
1.57945	5.57
1.59612	5.57
1.61278	5.57
1.62945	5.57
1.64612	5.56
1.66278	5.55
1.67945	5.54
1.69612	5.53
1.71278	5.52
1.72945	5.51
1.74612	5.50
1.76278	5.49
1.77945	5.48
1.79612	5.47
1.81278	5.46
1.82945	5.45
1.84612	5.44
1.86278	5.43
1.87945	5.42
1.89612	5.41
1.91278	5.40
1.92945	5.39
1.94612	5.38
1.96278	5.37
1.97945	5.36
1.99612	5.35
2.01278	5.34
2.02945	5.33
2.04612	5.32
2.06278	5.31
2.07945	5.30
2.09612	5.29
2.11278	5.28
2.12945	5.27
2.14612	5.26
2.16278	5.25
2.17945	5.24
2.19612	5.23
2.21278	5.22
2.22945	5.21
2.24612	5.20
2.26278	5.19
2.27945	5.19
2.29612	5.18
2.31278	5.17
2.32945	5.16
2.34612	5.15
2.36278	5.14
2.37945	5.13
2.39612	5.13
2.41278	5.13
2.42945	5.13
2.44612	5.13
2.46278	5.13
2.47945	5.13
2.49612	5.13
2.51278	5.13
2.52945	5.13
2.54612	5.13
2.56278	5.13
2.57945	5.13
2.59612	5.13
2.61278	5.13
2.62945	5.13
2.64612	5.13
2.66278	5.13
2.67945	5.13
2.69612	5.13
2.71278	5.13
2.72945	5.13
2.74612	5.13
2.76278	5.13
2.77945	5.13
2.79612	5.13
2.81278	5.13
2.82945	5.13
2.84612	5.13
2.86278	5.13
2.87945	5.13
2.89612	5.13
2.91278	5.13
2.92945	5.13
2.94612	5.13
2.96278	5.13
2.97945	5.13
2.99612	5.13
3.01278	5.13
3.02945	5.13
3.04612	5.13
3.06278	5.13
3.07945	5.13
3.09612	5.13
3.11278	5.13
3.12945	5.13
3.14612	5.13
3.16278	5.12
3.17945	5.12
3.19612	5.12
3.21278	5.12
3.22945	5.12
3.24612	5.12
3.26278	5.12
3.27945	5.12
3.29612	5.12
3.31278	5.12
3.32945	5.12
3.34612	5.12
3.36278	5.12
3.37945	5.12
3.39612	5.12
3.41278	5.12
3.42945	5.12
3.44612	5.12
3.46278	5.12
3.47945	5.12
3.49612	5.12
3.51278	5.12
3.52945	5.13
3.54612	5.12
3.56278	5.13
3.57945	5.13
3.59612	5.13
3.61278	5.13
3.62945	5.13
3.64612	5.13
3.66278	5.13
3.67945	5.13
3.69612	5.13
3.71278	5.13
3.72945	5.13
3.74612	5.13
3.76278	5.13
3.77945	5.13
3.79612	5.12
3.81278	5.12
3.82945	5.12
3.84612	5.12
3.86278	5.12
3.87945	5.12
3.89612	5.12
3.91278	5.12
3.92945	5.12
3.94612	5.12
3.96278	5.12
3.97945	5.12
3.99612	5.12

[Status Trace (Linear Velocity)]
Interval(msec)	1000
# of Points	240
Start Time(min)	0.013
End Time(min)	3.996
Intensity Units	
Intensity Multiplier	1
R.Time (min)	Intensity
0.01278	39.01
0.02945	37.11
0.04612	38.91
0.06278	40.16
0.07945	39.57
0.09612	39.02
0.11278	39.02
0.12945	39.03
0.14612	39.03
0.16278	39.03
0.17945	39.03
0.19612	39.03
0.21278	39.03
0.22945	39.03
0.24612	39.03
0.26278	39.03
0.27945	39.03
0.29612	39.03
0.31278	39.03
0.32945	39.03
0.34612	39.03
0.36278	39.03
0.37945	39.03
0.39612	39.03
0.41278	39.03
0.42945	39.03
0.44612	39.03
0.46278	39.03
0.47945	39.03
0.49612	39.03
0.51278	39.03
0.52945	39.03
0.54612	39.03
0.56278	39.03
0.57945	39.03
0.59612	39.03
0.61278	39.03
0.62945	39.03
0.64612	39.03
0.66278	39.03
0.67945	39.03
0.69612	39.03
0.71278	39.03
0.72945	39.03
0.74612	39.03
0.76278	39.03
0.77945	39.03
0.79612	39.03
0.81278	39.02
0.82945	39.02
0.84612	39.02
0.86278	39.03
0.87945	39.03
0.89612	39.03
0.91278	39.03
0.92945	39.03
0.94612	39.03
0.96278	39.03
0.97945	39.03
0.99612	39.02
1.01278	39.02
1.02945	39.02
1.04612	39.02
1.06278	39.03
1.07945	39.03
1.09612	39.03
1.11278	39.03
1.12945	39.03
1.14612	39.03
1.16278	39.03
1.17945	39.03
1.19612	39.03
1.21278	39.03
1.22945	39.03
1.24612	39.03
1.26278	39.03
1.27945	39.03
1.29612	39.03
1.31278	39.03
1.32945	39.03
1.34612	39.03
1.36278	39.03
1.37945	39.03
1.39612	39.03
1.41278	39.03
1.42945	39.03
1.44612	39.03
1.46278	39.03
1.47945	39.03
1.49612	39.03
1.51278	39.03
1.52945	39.03
1.54612	39.03
1.56278	39.03
1.57945	39.03
1.59612	39.03
1.61278	39.02
1.62945	39.01
1.64612	38.99
1.66278	38.97
1.67945	38.93
1.69612	38.89
1.71278	38.86
1.72945	38.83
1.74612	38.80
1.76278	38.77
1.77945	38.73
1.79612	38.70
1.81278	38.67
1.82945	38.64
1.84612	38.61
1.86278	38.58
1.87945	38.55
1.89612	38.52
1.91278	38.49
1.92945	38.45
1.94612	38.42
1.96278	38.40
1.97945	38.36
1.99612	38.33
2.01278	38.30
2.02945	38.27
2.04612	38.24
2.06278	38.21
2.07945	38.18
2.09612	38.15
2.11278	38.13
2.12945	38.09
2.14612	38.06
2.16278	38.04
2.17945	38.00
2.19612	37.97
2.21278	37.95
2.22945	37.92
2.24612	37.89
2.26278	37.86
2.27945	37.83
2.29612	37.80
2.31278	37.77
2.32945	37.74
2.34612	37.71
2.36278	37.69
2.37945	37.67
2.39612	37.66
2.41278	37.66
2.42945	37.67
2.44612	37.67
2.46278	37.67
2.47945	37.67
2.49612	37.66
2.51278	37.66
2.52945	37.66
2.54612	37.66
2.56278	37.66
2.57945	37.66
2.59612	37.66
2.61278	37.66
2.62945	37.66
2.64612	37.66
2.66278	37.66
2.67945	37.66
2.69612	37.66
2.71278	37.66
2.72945	37.66
2.74612	37.66
2.76278	37.66
2.77945	37.66
2.79612	37.66
2.81278	37.66
2.82945	37.66
2.84612	37.65
2.86278	37.65
2.87945	37.65
2.89612	37.65
2.91278	37.65
2.92945	37.65
2.94612	37.65
2.96278	37.65
2.97945	37.65
2.99612	37.65
3.01278	37.64
3.02945	37.64
3.04612	37.64
3.06278	37.64
3.07945	37.64
3.09612	37.64
3.11278	37.64
3.12945	37.64
3.14612	37.64
3.16278	37.64
3.17945	37.64
3.19612	37.64
3.21278	37.64
3.22945	37.64
3.24612	37.64
3.26278	37.64
3.27945	37.63
3.29612	37.63
3.31278	37.64
3.32945	37.64
3.34612	37.64
3.36278	37.64
3.37945	37.64
3.39612	37.64
3.41278	37.64
3.42945	37.64
3.44612	37.64
3.46278	37.64
3.47945	37.64
3.49612	37.64
3.51278	37.64
3.52945	37.64
3.54612	37.64
3.56278	37.64
3.57945	37.64
3.59612	37.64
3.61278	37.64
3.62945	37.64
3.64612	37.64
3.66278	37.64
3.67945	37.64
3.69612	37.64
3.71278	37.64
3.72945	37.64
3.74612	37.64
3.76278	37.64
3.77945	37.64
3.79612	37.64
3.81278	37.64
3.82945	37.64
3.84612	37.64
3.86278	37.64
3.87945	37.64
3.89612	37.64
3.91278	37.64
3.92945	37.64
3.94612	37.64
3.96278	37.64
3.97945	37.64
3.99612	37.63

