[Header]
Application Name	LabSolutions
Version	5.110
Data File Name	C:\Users\User\Desktop\GC Analyses\Jack\Nachusa Grasslands Sampling\T1 Timepoint July 12th\T1_07122022_088.gcd
Output Date	3/14/2023
Output Time	3:41:02 PM

[File Information]
Type	Data File
Generated	3/8/2023 11:05:13 PM
Generated by	System Administrator
Modified	3/8/2023 11:11:48 PM
Modified by	System Administrator

[Sample Information]
Operator Name	System Administrator
Acquired	3/8/2023 11:07:47 PM
Sample Type	0:Unknown
Level	0
Sample Name	088
Sample ID	088
ISTD Amount1	1
ISTD Amount2	1
ISTD Amount3	1
ISTD Amount4	1
ISTD Amount5	1
ISTD Amount6	1
ISTD Amount7	1
ISTD Amount8	1
ISTD Amount9	1
ISTD Amount10	1
ISTD Amount11	1
ISTD Amount12	1
ISTD Amount13	1
ISTD Amount14	1
ISTD Amount15	1
ISTD Amount16	1
ISTD Amount17	1
ISTD Amount18	1
ISTD Amount19	1
ISTD Amount20	1
ISTD Amount21	1
ISTD Amount22	1
ISTD Amount23	1
ISTD Amount24	1
ISTD Amount25	1
ISTD Amount26	1
ISTD Amount27	1
ISTD Amount28	1
ISTD Amount29	1
ISTD Amount30	1
ISTD Amount31	1
ISTD Amount32	1
Sample Amount	1
Dilution Factor	1
Vial#	87
Injection Volume	1
Injection Count	1
Bar Code	

[Original Files]
Data File	C:\Users\User\Desktop\GC Analyses\Jack\Nachusa Grasslands Sampling\T1 Timepoint July 12th\T1_07122022_088.gcd
Method File	C:\LabSolutions\Data\GHG_4min_2022\ghg3_togas_w_acet_4 min_new_int.gcm
Batch File	C:\LabSolutions\Data\AutoSamplerTesting\T1_07122022.gcb
Report Format File	c:\LabSolutions\System\DEFAULT.lsr

[File Description]


[Configuration]
Instrument Name	C0B7VH3-Instrument1
Instrument #	1
Line #	1
# of Detectors	3
Detector ID	DET#1	DET#2	DET#3
Detector Name	FID	PTCD	ECD
# of Channels	1	1	1

[Peak Table(Ch1)]
# of Peaks	4
Peak#	R.Time	I.Time	F.Time	Area	Height	A/H	Conc.	Mark	ID#	Name	k'	Plate #	Plate Ht.	Tailing	Resolution	Sep.Factor	Area Ratio	Height Ratio	Conc. %	Norm Conc.
1	0.361	0.236	0.526	788	124	6.330	0.000	   			0.000	296	506.385	1.200	0.000	0.000	0	0	0.000	0.000
2	1.476	1.439	1.538	34808	16524	2.107	245.747	   	1	CO	3.088	9237	16.239	1.348	15.341	0.000	0	0	33.521	33.521
3	1.567	1.538	1.648	4958	2349	2.111	95.875	 V 	2	CH4	3.342	10286	14.583	0.000	1.488	1.082	0	0	13.078	13.078
4	1.996	1.949	2.513	1559863	735585	2.121	391.483	   	3	CO2	4.530	17373	8.634	1.331	7.010	1.356	0	0	53.401	53.401

[Peak Table(Ch2)]
# of Peaks	0

[Peak Table(Ch3)]
# of Peaks	6
Peak#	R.Time	I.Time	F.Time	Area	Height	A/H	Conc.	Mark	ID#	Name	k'	Plate #	Plate Ht.	Tailing	Resolution	Sep.Factor	Area Ratio	Height Ratio	Conc. %	Norm Conc.
1	2.458	2.260	2.517	2230	585	3.809	0.000	   			0.000	10514	14.267	0.000	0.000	0.000	0	0	0.000	0.000
2	2.539	2.517	2.627	871	247	3.523	0.000	 V 			0.033	7513	19.964	0.000	0.757	0.000	0	0	0.000	0.000
3	2.678	2.642	2.726	147	53	2.796	0.000	   			0.089	20020	7.492	1.140	1.445	2.727	0	0	0.000	0.000
4	2.873	2.752	3.115	20577	4998	4.117	0.526	S  	1	N2O	0.169	13008	11.532	1.898	2.202	1.883	0	0	100.000	100.000
5	3.104	3.096	3.115	31	53	0.592	0.000	T  	2	SF6	0.263	380854	0.394	1.239	3.822	1.558	0	0	0.000	0.000
6	3.199	3.118	3.995	18544	629	29.484	0.000	   	2	SF6	0.301	342	438.983	5.543	0.268	1.148	0	0	0.000	0.000

[Compound Results(Ch1)]
# of IDs	6
ID#	Name	R.Time	Area	Height	Conc.	Curve	3rd	2nd	1st	Constant	Area Ratio	Height Ratio	Conc. %	Norm Conc.
1	CO	1.476	34808	16524	245.747	Linear	0.000000e+00	0.000000e+00	1.416423e+002	0.000000e+00	0	0	33.521	33.521
2	CH4	1.567	4958	2349	95.875	Linear	0.000000e+00	0.000000e+00	5.171738e+001	0.000000e+00	0	0	13.078	13.078
3	CO2	1.996	1559863	735585	391.483	Linear	0.000000e+00	0.000000e+00	3.984494e+003	0.000000e+00	0	0	53.401	53.401
4	Ethylene	0.000	0	0	0.000	Linear	0.000000e+00	0.000000e+00	0.000000e+00	0.000000e+00	0	0	0.000	0.000
5	Acetylene	0.000	0	0	0.000	Linear	0.000000e+00	0.000000e+00	0.000000e+00	0.000000e+00	0	0	0.000	0.000
6	Ethane	0.000	0	0	0.000	Linear	0.000000e+00	0.000000e+00	0.000000e+00	0.000000e+00	0	0	0.000	0.000

[Compound Results(Ch2)]
# of IDs	5
ID#	Name	R.Time	Area	Height	Conc.	Curve	3rd	2nd	1st	Constant	Area Ratio	Height Ratio	Conc. %	Norm Conc.
1	Hydrogen	0.000	0	0	0.000	Linear	0.000000e+00	0.000000e+00	0.000000e+00	0.000000e+00	0	0	0.000	0.000
2	Oxygen	0.000	0	0	0.000	Linear	0.000000e+00	0.000000e+00	0.000000e+00	0.000000e+00	0	0	0.000	0.000
3	Nitrogen	0.000	0	0	0.000	Linear	0.000000e+00	0.000000e+00	0.000000e+00	0.000000e+00	0	0	0.000	0.000
4	Methane	0.000	0	0	0.000	Linear	0.000000e+00	0.000000e+00	0.000000e+00	0.000000e+00	0	0	0.000	0.000
5	Carbon Monoxide	0.000	0	0	0.000	Linear	0.000000e+00	0.000000e+00	0.000000e+00	0.000000e+00	0	0	0.000	0.000

[Compound Results(Ch3)]
# of IDs	2
ID#	Name	R.Time	Area	Height	Conc.	Curve	3rd	2nd	1st	Constant	Area Ratio	Height Ratio	Conc. %	Norm Conc.
1	N2O	2.873	20577	4998	0.526	Linear	0.000000e+00	0.000000e+00	3.915173e+004	0.000000e+00	0	0	100.000	100.000
2	SF6	3.199	18575	682	0.000	Linear	0.000000e+00	0.000000e+00	0.000000e+00	0.000000e+00	0	0	0.000	0.000

[Group Results(Ch1)]
# of Groups	0

[Group Results(Ch2)]
# of Groups	0

[Group Results(Ch3)]
# of Groups	0

[Chromatogram (Ch1)]
Interval(msec)	220
# of Points	1091
Start Time(min)	0.002
End Time(min)	3.998
R.Time (min)	Intensity
0.00167	-4
0.00533	-8
0.00900	-14
0.01267	-17
0.01633	-15
0.02000	-7
0.02367	3
0.02733	10
0.03100	10
0.03467	3
0.03833	-3
0.04200	-6
0.04567	-5
0.04933	3
0.05300	10
0.05667	12
0.06033	11
0.06400	9
0.06767	5
0.07133	-0
0.07500	-4
0.07867	-0
0.08233	6
0.08600	11
0.08967	14
0.09333	17
0.09700	22
0.10067	26
0.10433	25
0.10800	19
0.11167	9
0.11533	7
0.11900	8
0.12267	7
0.12633	3
0.13000	-1
0.13367	-4
0.13733	-5
0.14100	-4
0.14467	1
0.14833	7
0.15200	7
0.15567	-1
0.15933	-9
0.16300	-13
0.16667	-13
0.17033	-7
0.17400	5
0.17767	15
0.18133	18
0.18500	18
0.18867	19
0.19233	14
0.19600	4
0.19967	-3
0.20333	0
0.20700	3
0.21067	3
0.21433	6
0.21800	13
0.22167	18
0.22533	20
0.22900	16
0.23267	11
0.23633	9
0.24000	10
0.24367	13
0.24733	17
0.25100	18
0.25467	17
0.25833	20
0.26200	25
0.26567	26
0.26933	27
0.27300	29
0.27667	27
0.28033	23
0.28400	21
0.28767	20
0.29133	23
0.29500	30
0.29867	36
0.30233	38
0.30600	39
0.30967	41
0.31333	45
0.31700	51
0.32067	58
0.32433	64
0.32800	68
0.33167	73
0.33533	80
0.33900	85
0.34267	88
0.34633	91
0.35000	97
0.35367	109
0.35733	123
0.36100	132
0.36467	128
0.36833	114
0.37200	96
0.37567	83
0.37933	77
0.38300	77
0.38667	79
0.39033	80
0.39400	78
0.39767	75
0.40133	76
0.40500	74
0.40867	71
0.41233	69
0.41600	64
0.41967	58
0.42333	55
0.42700	56
0.43067	59
0.43433	62
0.43800	60
0.44167	55
0.44533	50
0.44900	47
0.45267	44
0.45633	42
0.46000	42
0.46367	44
0.46733	45
0.47100	47
0.47467	54
0.47833	56
0.48200	49
0.48567	41
0.48933	36
0.49300	32
0.49667	29
0.50033	25
0.50400	23
0.50767	23
0.51133	22
0.51500	21
0.51867	18
0.52233	13
0.52600	5
0.52967	2
0.53333	4
0.53700	6
0.54067	5
0.54433	4
0.54800	2
0.55167	4
0.55533	11
0.55900	17
0.56267	17
0.56633	14
0.57000	10
0.57367	6
0.57733	3
0.58100	1
0.58467	-5
0.58833	-8
0.59200	-7
0.59567	-6
0.59933	-6
0.60300	-6
0.60667	-3
0.61033	-1
0.61400	3
0.61767	6
0.62133	10
0.62500	12
0.62867	11
0.63233	6
0.63600	-0
0.63967	-3
0.64333	-5
0.64700	-7
0.65067	-4
0.65433	3
0.65800	12
0.66167	16
0.66533	16
0.66900	14
0.67267	12
0.67633	11
0.68000	15
0.68367	18
0.68733	16
0.69100	8
0.69467	1
0.69833	-4
0.70200	-7
0.70567	-8
0.70933	-11
0.71300	-14
0.71667	-18
0.72033	-19
0.72400	-10
0.72767	-0
0.73133	4
0.73500	2
0.73867	3
0.74233	2
0.74600	-0
0.74967	0
0.75333	-2
0.75700	-7
0.76067	-7
0.76433	-4
0.76800	-1
0.77167	1
0.77533	2
0.77900	5
0.78267	8
0.78633	8
0.79000	3
0.79367	-0
0.79733	2
0.80100	6
0.80467	7
0.80833	12
0.81200	20
0.81567	25
0.81933	21
0.82300	13
0.82667	13
0.83033	21
0.83400	26
0.83767	28
0.84133	29
0.84500	29
0.84867	32
0.85233	35
0.85600	37
0.85967	41
0.86333	46
0.86700	47
0.87067	46
0.87433	40
0.87800	35
0.88167	33
0.88533	32
0.88900	31
0.89267	30
0.89633	32
0.90000	34
0.90367	32
0.90733	30
0.91100	28
0.91467	28
0.91833	32
0.92200	36
0.92567	40
0.92933	42
0.93300	39
0.93667	33
0.94033	28
0.94400	24
0.94767	21
0.95133	21
0.95500	22
0.95867	25
0.96233	27
0.96600	27
0.96967	27
0.97333	31
0.97700	34
0.98067	33
0.98433	29
0.98800	30
0.99167	36
0.99533	42
0.99900	45
1.00267	45
1.00633	50
1.01000	57
1.01367	57
1.01733	45
1.02100	26
1.02467	8
1.02833	-4
1.03200	-8
1.03567	-4
1.03933	2
1.04300	8
1.04667	11
1.05033	14
1.05400	18
1.05767	23
1.06133	24
1.06500	23
1.06867	24
1.07233	24
1.07600	22
1.07967	19
1.08333	18
1.08700	17
1.09067	13
1.09433	8
1.09800	3
1.10167	0
1.10533	-4
1.10900	-12
1.11267	-18
1.11633	-21
1.12000	-15
1.12367	-3
1.12733	9
1.13100	18
1.13467	22
1.13833	20
1.14200	10
1.14567	1
1.14933	-1
1.15300	-2
1.15667	-7
1.16033	-12
1.16400	-14
1.16767	-13
1.17133	-13
1.17500	-13
1.17867	-9
1.18233	-3
1.18600	1
1.18967	2
1.19333	1
1.19700	-1
1.20067	2
1.20433	10
1.20800	18
1.21167	21
1.21533	19
1.21900	12
1.22267	4
1.22633	1
1.23000	-0
1.23367	-1
1.23733	2
1.24100	5
1.24467	7
1.24833	7
1.25200	4
1.25567	3
1.25933	3
1.26300	4
1.26667	5
1.27033	6
1.27400	7
1.27767	9
1.28133	15
1.28500	22
1.28867	28
1.29233	25
1.29600	17
1.29967	10
1.30333	6
1.30700	4
1.31067	6
1.31433	8
1.31800	5
1.32167	-1
1.32533	-6
1.32900	-11
1.33267	-16
1.33633	-17
1.34000	-12
1.34367	-5
1.34733	2
1.35100	3
1.35467	-0
1.35833	-5
1.36200	-14
1.36567	-24
1.36933	-29
1.37300	-30
1.37667	-24
1.38033	-18
1.38400	-11
1.38767	-7
1.39133	-8
1.39500	-15
1.39867	-22
1.40233	-26
1.40600	-29
1.40967	-30
1.41333	-33
1.41700	-35
1.42067	-32
1.42433	-26
1.42800	-22
1.43167	-21
1.43533	-21
1.43900	-3
1.44267	87
1.44633	323
1.45000	917
1.45367	2379
1.45733	4933
1.46100	8117
1.46467	11235
1.46833	13816
1.47200	15632
1.47567	16525
1.47933	16351
1.48300	15096
1.48667	13000
1.49033	10505
1.49400	8064
1.49767	5969
1.50133	4318
1.50500	3090
1.50867	2210
1.51233	1592
1.51600	1163
1.51967	862
1.52333	659
1.52700	524
1.53067	430
1.53433	358
1.53800	317
1.54167	335
1.54533	473
1.54900	765
1.55267	1170
1.55633	1592
1.56000	1955
1.56367	2219
1.56733	2363
1.57100	2355
1.57467	2179
1.57833	1864
1.58200	1485
1.58567	1120
1.58933	813
1.59300	575
1.59667	397
1.60033	272
1.60400	189
1.60767	135
1.61133	102
1.61500	85
1.61867	77
1.62233	72
1.62600	67
1.62967	58
1.63333	48
1.63700	40
1.64067	33
1.64433	29
1.64800	24
1.65167	18
1.65533	18
1.65900	23
1.66267	25
1.66633	23
1.67000	19
1.67367	12
1.67733	4
1.68100	-2
1.68467	-5
1.68833	-6
1.69200	-6
1.69567	-5
1.69933	-5
1.70300	-7
1.70667	-7
1.71033	-6
1.71400	-3
1.71767	-4
1.72133	-10
1.72500	-16
1.72867	-19
1.73233	-17
1.73600	-10
1.73967	2
1.74333	8
1.74700	10
1.75067	6
1.75433	0
1.75800	-7
1.76167	-14
1.76533	-22
1.76900	-31
1.77267	-33
1.77633	-30
1.78000	-25
1.78367	-20
1.78733	-17
1.79100	-15
1.79467	-15
1.79833	-20
1.80200	-27
1.80567	-34
1.80933	-37
1.81300	-38
1.81667	-34
1.82033	-24
1.82400	-16
1.82767	-14
1.83133	-16
1.83500	-23
1.83867	-29
1.84233	-29
1.84600	-25
1.84967	-22
1.85333	-21
1.85700	-23
1.86067	-20
1.86433	-17
1.86800	-15
1.87167	-19
1.87533	-27
1.87900	-37
1.88267	-40
1.88633	-38
1.89000	-39
1.89367	-41
1.89733	-41
1.90100	-37
1.90467	-32
1.90833	-27
1.91200	-23
1.91567	-18
1.91933	-14
1.92300	-10
1.92667	-9
1.93033	-9
1.93400	-8
1.93767	-4
1.94133	4
1.94500	12
1.94867	15
1.95233	28
1.95600	125
1.95967	718
1.96333	3513
1.96700	13482
1.97067	40695
1.97433	98355
1.97800	194414
1.98167	322427
1.98533	462568
1.98900	590627
1.99267	686308
1.99633	735627
2.00000	732212
2.00367	679189
2.00733	589210
2.01100	480775
2.01467	372062
2.01833	275992
2.02200	198536
2.02567	140095
2.02933	98018
2.03300	68668
2.03667	48595
2.04033	35005
2.04400	25830
2.04767	19612
2.05133	15350
2.05500	12382
2.05867	10271
2.06233	8731
2.06600	7577
2.06967	6691
2.07333	5994
2.07700	5430
2.08067	4965
2.08433	4575
2.08800	4243
2.09167	3953
2.09533	3699
2.09900	3476
2.10267	3277
2.10633	3096
2.11000	2929
2.11367	2778
2.11733	2642
2.12100	2516
2.12467	2405
2.12833	2306
2.13200	2214
2.13567	2125
2.13933	2039
2.14300	1960
2.14667	1888
2.15033	1823
2.15400	1763
2.15767	1707
2.16133	1654
2.16500	1607
2.16867	1564
2.17233	1524
2.17600	1481
2.17967	1435
2.18333	1388
2.18700	1343
2.19067	1303
2.19433	1271
2.19800	1245
2.20167	1219
2.20533	1191
2.20900	1161
2.21267	1129
2.21633	1095
2.22000	1065
2.22367	1039
2.22733	1017
2.23100	998
2.23467	982
2.23833	968
2.24200	949
2.24567	922
2.24933	892
2.25300	869
2.25667	854
2.26033	839
2.26400	817
2.26767	792
2.27133	769
2.27500	749
2.27867	733
2.28233	722
2.28600	714
2.28967	708
2.29333	702
2.29700	697
2.30067	691
2.30433	680
2.30800	666
2.31167	652
2.31533	642
2.31900	630
2.32267	615
2.32633	601
2.33000	594
2.33367	590
2.33733	583
2.34100	575
2.34467	566
2.34833	559
2.35200	555
2.35567	550
2.35933	545
2.36300	538
2.36667	532
2.37033	527
2.37400	520
2.37767	516
2.38133	510
2.38500	501
2.38867	490
2.39233	478
2.39600	468
2.39967	461
2.40333	458
2.40700	456
2.41067	456
2.41433	457
2.41800	458
2.42167	455
2.42533	449
2.42900	443
2.43267	430
2.43633	417
2.44000	411
2.44367	409
2.44733	406
2.45100	405
2.45467	403
2.45833	403
2.46200	402
2.46567	401
2.46933	401
2.47300	402
2.47667	404
2.48033	410
2.48400	417
2.48767	420
2.49133	413
2.49500	395
2.49867	377
2.50233	360
2.50600	345
2.50967	331
2.51333	323
2.51700	323
2.52067	331
2.52433	340
2.52800	345
2.53167	344
2.53533	339
2.53900	333
2.54267	330
2.54633	325
2.55000	321
2.55367	319
2.55733	320
2.56100	320
2.56467	320
2.56833	323
2.57200	328
2.57567	331
2.57933	335
2.58300	337
2.58667	333
2.59033	322
2.59400	314
2.59767	309
2.60133	303
2.60500	297
2.60867	292
2.61233	287
2.61600	279
2.61967	273
2.62333	267
2.62700	262
2.63067	265
2.63433	270
2.63800	275
2.64167	275
2.64533	268
2.64900	257
2.65267	249
2.65633	247
2.66000	251
2.66367	255
2.66733	257
2.67100	260
2.67467	262
2.67833	262
2.68200	260
2.68567	257
2.68933	256
2.69300	254
2.69667	255
2.70033	258
2.70400	254
2.70767	244
2.71133	236
2.71500	235
2.71867	239
2.72233	243
2.72600	243
2.72967	239
2.73333	240
2.73700	244
2.74067	251
2.74433	260
2.74800	264
2.75167	262
2.75533	255
2.75900	246
2.76267	239
2.76633	236
2.77000	235
2.77367	234
2.77733	233
2.78100	235
2.78467	238
2.78833	238
2.79200	236
2.79567	233
2.79933	227
2.80300	221
2.80667	217
2.81033	217
2.81400	218
2.81767	220
2.82133	224
2.82500	228
2.82867	231
2.83233	233
2.83600	229
2.83967	223
2.84333	217
2.84700	211
2.85067	204
2.85433	198
2.85800	198
2.86167	204
2.86533	209
2.86900	211
2.87267	211
2.87633	211
2.88000	213
2.88367	217
2.88733	220
2.89100	219
2.89467	220
2.89833	223
2.90200	224
2.90567	220
2.90933	214
2.91300	207
2.91667	201
2.92033	196
2.92400	194
2.92767	193
2.93133	194
2.93500	196
2.93867	200
2.94233	205
2.94600	207
2.94967	206
2.95333	203
2.95700	198
2.96067	193
2.96433	189
2.96800	187
2.97167	187
2.97533	188
2.97900	189
2.98267	193
2.98633	198
2.99000	203
2.99367	205
2.99733	208
3.00100	209
3.00467	206
3.00833	204
3.01200	198
3.01567	191
3.01933	189
3.02300	188
3.02667	186
3.03033	184
3.03400	180
3.03767	172
3.04133	168
3.04500	170
3.04867	169
3.05233	170
3.05600	171
3.05967	168
3.06333	168
3.06700	170
3.07067	171
3.07433	176
3.07800	182
3.08167	181
3.08533	174
3.08900	165
3.09267	159
3.09633	154
3.10000	150
3.10367	151
3.10733	157
3.11100	166
3.11467	170
3.11833	168
3.12200	165
3.12567	163
3.12933	163
3.13300	167
3.13667	174
3.14033	179
3.14400	176
3.14767	169
3.15133	163
3.15500	158
3.15867	157
3.16233	159
3.16600	164
3.16967	171
3.17333	172
3.17700	166
3.18067	154
3.18433	144
3.18800	135
3.19167	132
3.19533	132
3.19900	132
3.20267	131
3.20633	131
3.21000	129
3.21367	128
3.21733	132
3.22100	141
3.22467	153
3.22833	164
3.23200	167
3.23567	164
3.23933	161
3.24300	160
3.24667	159
3.25033	157
3.25400	153
3.25767	149
3.26133	145
3.26500	143
3.26867	139
3.27233	134
3.27600	130
3.27967	131
3.28333	136
3.28700	140
3.29067	138
3.29433	135
3.29800	135
3.30167	135
3.30533	133
3.30900	131
3.31267	133
3.31633	136
3.32000	140
3.32367	139
3.32733	131
3.33100	120
3.33467	114
3.33833	114
3.34200	119
3.34567	122
3.34933	121
3.35300	119
3.35667	118
3.36033	119
3.36400	124
3.36767	128
3.37133	128
3.37500	124
3.37867	123
3.38233	125
3.38600	123
3.38967	121
3.39333	123
3.39700	129
3.40067	136
3.40433	138
3.40800	132
3.41167	125
3.41533	119
3.41900	116
3.42267	114
3.42633	116
3.43000	119
3.43367	122
3.43733	126
3.44100	129
3.44467	128
3.44833	128
3.45200	128
3.45567	125
3.45933	121
3.46300	116
3.46667	112
3.47033	107
3.47400	104
3.47767	101
3.48133	98
3.48500	93
3.48867	92
3.49233	94
3.49600	97
3.49967	99
3.50333	98
3.50700	96
3.51067	93
3.51433	92
3.51800	92
3.52167	96
3.52533	105
3.52900	112
3.53267	114
3.53633	113
3.54000	108
3.54367	101
3.54733	91
3.55100	79
3.55467	72
3.55833	74
3.56200	84
3.56567	88
3.56933	85
3.57300	86
3.57667	93
3.58033	100
3.58400	102
3.58767	101
3.59133	101
3.59500	100
3.59867	98
3.60233	96
3.60600	97
3.60967	97
3.61333	90
3.61700	84
3.62067	76
3.62433	72
3.62800	79
3.63167	86
3.63533	92
3.63900	102
3.64267	109
3.64633	108
3.65000	102
3.65367	93
3.65733	87
3.66100	83
3.66467	77
3.66833	71
3.67200	67
3.67567	65
3.67933	71
3.68300	81
3.68667	91
3.69033	98
3.69400	101
3.69767	104
3.70133	110
3.70500	119
3.70867	122
3.71233	119
3.71600	113
3.71967	105
3.72333	100
3.72700	97
3.73067	95
3.73433	91
3.73800	83
3.74167	73
3.74533	65
3.74900	54
3.75267	37
3.75633	21
3.76000	11
3.76367	9
3.76733	11
3.77100	16
3.77467	25
3.77833	39
3.78200	53
3.78567	64
3.78933	75
3.79300	81
3.79667	81
3.80033	79
3.80400	76
3.80767	75
3.81133	78
3.81500	78
3.81867	73
3.82233	69
3.82600	69
3.82967	68
3.83333	67
3.83700	68
3.84067	72
3.84433	72
3.84800	68
3.85167	59
3.85533	53
3.85900	53
3.86267	59
3.86633	64
3.87000	65
3.87367	64
3.87733	63
3.88100	64
3.88467	63
3.88833	63
3.89200	63
3.89567	61
3.89933	58
3.90300	58
3.90667	59
3.91033	62
3.91400	63
3.91767	65
3.92133	66
3.92500	67
3.92867	69
3.93233	77
3.93600	86
3.93967	90
3.94333	84
3.94700	73
3.95067	59
3.95433	46
3.95800	35
3.96167	32
3.96533	37
3.96900	46
3.97267	53
3.97633	52
3.98000	48
3.98367	38
3.98733	28
3.99100	18
3.99467	10
3.99833	7

[Chromatogram (Ch2)]
Interval(msec)	220
# of Points	1091
Start Time(min)	0.002
End Time(min)	3.998
R.Time (min)	Intensity
0.00167	2
0.00533	2
0.00900	2
0.01267	2
0.01633	1
0.02000	1
0.02367	1
0.02733	0
0.03100	-0
0.03467	-1
0.03833	-1
0.04200	-1
0.04567	-1
0.04933	-1
0.05300	-2
0.05667	-2
0.06033	-2
0.06400	-2
0.06767	-2
0.07133	-2
0.07500	-2
0.07867	-2
0.08233	-2
0.08600	-2
0.08967	-2
0.09333	-3
0.09700	-3
0.10067	-3
0.10433	-3
0.10800	-3
0.11167	-3
0.11533	-3
0.11900	-3
0.12267	-3
0.12633	-3
0.13000	-2
0.13367	-2
0.13733	-2
0.14100	-2
0.14467	-2
0.14833	-2
0.15200	-3
0.15567	-3
0.15933	-4
0.16300	-4
0.16667	-4
0.17033	-4
0.17400	-5
0.17767	-5
0.18133	-5
0.18500	-4
0.18867	-4
0.19233	-4
0.19600	-3
0.19967	-3
0.20333	-4
0.20700	-4
0.21067	-4
0.21433	-4
0.21800	-4
0.22167	-5
0.22533	-5
0.22900	-5
0.23267	-4
0.23633	-4
0.24000	-4
0.24367	-4
0.24733	-3
0.25100	-3
0.25467	-3
0.25833	-3
0.26200	-3
0.26567	-3
0.26933	-3
0.27300	-3
0.27667	-3
0.28033	-3
0.28400	-4
0.28767	-4
0.29133	-4
0.29500	-5
0.29867	-5
0.30233	-5
0.30600	-5
0.30967	-5
0.31333	-5
0.31700	-6
0.32067	-6
0.32433	-6
0.32800	-5
0.33167	-5
0.33533	-5
0.33900	-5
0.34267	-5
0.34633	-5
0.35000	-5
0.35367	-5
0.35733	-5
0.36100	-5
0.36467	-5
0.36833	-5
0.37200	-5
0.37567	-4
0.37933	-4
0.38300	-4
0.38667	-3
0.39033	-3
0.39400	-2
0.39767	-2
0.40133	-2
0.40500	-1
0.40867	-1
0.41233	-0
0.41600	-0
0.41967	-0
0.42333	-0
0.42700	-0
0.43067	-0
0.43433	-0
0.43800	-0
0.44167	0
0.44533	0
0.44900	0
0.45267	-0
0.45633	-1
0.46000	-1
0.46367	-1
0.46733	-1
0.47100	-1
0.47467	-1
0.47833	-1
0.48200	-1
0.48567	-1
0.48933	-1
0.49300	-1
0.49667	-1
0.50033	-1
0.50400	-1
0.50767	-1
0.51133	-1
0.51500	-1
0.51867	-1
0.52233	-2
0.52600	-1
0.52967	-1
0.53333	-1
0.53700	-1
0.54067	-1
0.54433	-1
0.54800	-1
0.55167	-1
0.55533	-1
0.55900	-1
0.56267	-1
0.56633	-1
0.57000	-2
0.57367	-2
0.57733	-2
0.58100	-2
0.58467	-2
0.58833	-2
0.59200	-2
0.59567	-2
0.59933	-2
0.60300	-2
0.60667	-2
0.61033	-2
0.61400	-2
0.61767	-2
0.62133	-1
0.62500	-1
0.62867	-2
0.63233	-2
0.63600	-2
0.63967	-2
0.64333	-2
0.64700	-2
0.65067	-2
0.65433	-2
0.65800	-2
0.66167	-2
0.66533	-2
0.66900	-2
0.67267	-2
0.67633	-3
0.68000	-3
0.68367	-3
0.68733	-4
0.69100	-4
0.69467	-5
0.69833	-5
0.70200	-5
0.70567	-5
0.70933	-6
0.71300	-6
0.71667	-6
0.72033	-6
0.72400	-6
0.72767	-6
0.73133	-6
0.73500	-6
0.73867	-6
0.74233	-6
0.74600	-6
0.74967	-5
0.75333	-5
0.75700	-5
0.76067	-5
0.76433	-5
0.76800	-5
0.77167	-5
0.77533	-5
0.77900	-5
0.78267	-5
0.78633	-5
0.79000	-5
0.79367	-5
0.79733	-5
0.80100	-5
0.80467	-5
0.80833	-6
0.81200	-6
0.81567	-6
0.81933	-6
0.82300	-5
0.82667	-5
0.83033	-5
0.83400	-5
0.83767	-4
0.84133	-4
0.84500	-4
0.84867	-4
0.85233	-4
0.85600	-4
0.85967	-4
0.86333	-3
0.86700	-3
0.87067	-3
0.87433	-3
0.87800	-3
0.88167	-3
0.88533	-3
0.88900	-3
0.89267	-3
0.89633	-3
0.90000	-3
0.90367	-3
0.90733	-3
0.91100	-3
0.91467	-3
0.91833	-3
0.92200	-3
0.92567	-3
0.92933	-3
0.93300	-3
0.93667	-2
0.94033	-2
0.94400	-2
0.94767	-2
0.95133	-2
0.95500	-2
0.95867	-2
0.96233	-2
0.96600	-2
0.96967	-3
0.97333	-3
0.97700	-2
0.98067	-2
0.98433	-3
0.98800	-2
0.99167	-2
0.99533	-2
0.99900	-2
1.00267	-2
1.00633	-2
1.01000	-2
1.01367	-2
1.01733	-2
1.02100	-2
1.02467	-2
1.02833	-2
1.03200	-2
1.03567	-2
1.03933	-2
1.04300	-2
1.04667	-2
1.05033	-2
1.05400	-2
1.05767	-2
1.06133	-2
1.06500	-2
1.06867	-3
1.07233	-3
1.07600	-3
1.07967	-4
1.08333	-4
1.08700	-4
1.09067	-4
1.09433	-5
1.09800	-5
1.10167	-5
1.10533	-5
1.10900	-5
1.11267	-5
1.11633	-5
1.12000	-5
1.12367	-5
1.12733	-5
1.13100	-5
1.13467	-5
1.13833	-4
1.14200	-4
1.14567	-4
1.14933	-4
1.15300	-4
1.15667	-4
1.16033	-3
1.16400	-3
1.16767	-3
1.17133	-3
1.17500	-3
1.17867	-3
1.18233	-3
1.18600	-3
1.18967	-4
1.19333	-4
1.19700	-5
1.20067	-5
1.20433	-5
1.20800	-6
1.21167	-6
1.21533	-6
1.21900	-7
1.22267	-7
1.22633	-7
1.23000	-7
1.23367	-6
1.23733	-6
1.24100	-6
1.24467	-6
1.24833	-5
1.25200	-5
1.25567	-4
1.25933	-4
1.26300	-3
1.26667	-3
1.27033	-3
1.27400	-3
1.27767	-4
1.28133	-4
1.28500	-5
1.28867	-5
1.29233	-6
1.29600	-6
1.29967	-6
1.30333	-7
1.30700	-6
1.31067	-6
1.31433	-6
1.31800	-6
1.32167	-6
1.32533	-6
1.32900	-5
1.33267	-5
1.33633	-5
1.34000	-5
1.34367	-5
1.34733	-5
1.35100	-5
1.35467	-5
1.35833	-5
1.36200	-5
1.36567	-5
1.36933	-4
1.37300	-4
1.37667	-4
1.38033	-4
1.38400	-4
1.38767	-4
1.39133	-3
1.39500	-3
1.39867	-3
1.40233	-2
1.40600	-2
1.40967	-2
1.41333	-2
1.41700	-2
1.42067	-2
1.42433	-2
1.42800	-2
1.43167	-2
1.43533	-2
1.43900	-2
1.44267	-1
1.44633	-1
1.45000	-0
1.45367	-0
1.45733	-0
1.46100	0
1.46467	0
1.46833	0
1.47200	0
1.47567	0
1.47933	0
1.48300	0
1.48667	-0
1.49033	-1
1.49400	-1
1.49767	-2
1.50133	-3
1.50500	-4
1.50867	-5
1.51233	-5
1.51600	-6
1.51967	-7
1.52333	-7
1.52700	-7
1.53067	-7
1.53433	-8
1.53800	-8
1.54167	-8
1.54533	-8
1.54900	-8
1.55267	-8
1.55633	-8
1.56000	-8
1.56367	-8
1.56733	-8
1.57100	-8
1.57467	-8
1.57833	-7
1.58200	-7
1.58567	-7
1.58933	-7
1.59300	-7
1.59667	-8
1.60033	-9
1.60400	-10
1.60767	-11
1.61133	-13
1.61500	-15
1.61867	-17
1.62233	-19
1.62600	-23
1.62967	-26
1.63333	-29
1.63700	-32
1.64067	-36
1.64433	-39
1.64800	-43
1.65167	-46
1.65533	-50
1.65900	-54
1.66267	-57
1.66633	-61
1.67000	-65
1.67367	-69
1.67733	-73
1.68100	-78
1.68467	-82
1.68833	-87
1.69200	-91
1.69567	-95
1.69933	-99
1.70300	-102
1.70667	-104
1.71033	-105
1.71400	-107
1.71767	-108
1.72133	-109
1.72500	-109
1.72867	-109
1.73233	-109
1.73600	-109
1.73967	-109
1.74333	-109
1.74700	-109
1.75067	-109
1.75433	-109
1.75800	-110
1.76167	-111
1.76533	-113
1.76900	-114
1.77267	-116
1.77633	-118
1.78000	-119
1.78367	-120
1.78733	-120
1.79100	-120
1.79467	-120
1.79833	-119
1.80200	-119
1.80567	-118
1.80933	-117
1.81300	-117
1.81667	-116
1.82033	-116
1.82400	-116
1.82767	-116
1.83133	-116
1.83500	-116
1.83867	-117
1.84233	-117
1.84600	-118
1.84967	-118
1.85333	-119
1.85700	-119
1.86067	-119
1.86433	-119
1.86800	-119
1.87167	-119
1.87533	-119
1.87900	-118
1.88267	-118
1.88633	-118
1.89000	-118
1.89367	-118
1.89733	-117
1.90100	-117
1.90467	-117
1.90833	-117
1.91200	-117
1.91567	-117
1.91933	-117
1.92300	-117
1.92667	-117
1.93033	-117
1.93400	-117
1.93767	-117
1.94133	-117
1.94500	-116
1.94867	-115
1.95233	-114
1.95600	-113
1.95967	-113
1.96333	-112
1.96700	-112
1.97067	-112
1.97433	-112
1.97800	-112
1.98167	-112
1.98533	-112
1.98900	-111
1.99267	-111
1.99633	-111
2.00000	-110
2.00367	-110
2.00733	-110
2.01100	-111
2.01467	-111
2.01833	-110
2.02200	-110
2.02567	-111
2.02933	-111
2.03300	-111
2.03667	-111
2.04033	-111
2.04400	-110
2.04767	-110
2.05133	-109
2.05500	-108
2.05867	-108
2.06233	-107
2.06600	-106
2.06967	-106
2.07333	-106
2.07700	-105
2.08067	-105
2.08433	-105
2.08800	-105
2.09167	-105
2.09533	-105
2.09900	-106
2.10267	-106
2.10633	-106
2.11000	-105
2.11367	-104
2.11733	-103
2.12100	-102
2.12467	-101
2.12833	-100
2.13200	-100
2.13567	-100
2.13933	-99
2.14300	-99
2.14667	-98
2.15033	-98
2.15400	-97
2.15767	-97
2.16133	-96
2.16500	-96
2.16867	-96
2.17233	-95
2.17600	-94
2.17967	-94
2.18333	-93
2.18700	-93
2.19067	-93
2.19433	-93
2.19800	-93
2.20167	-93
2.20533	-94
2.20900	-95
2.21267	-95
2.21633	-95
2.22000	-95
2.22367	-95
2.22733	-95
2.23100	-94
2.23467	-93
2.23833	-92
2.24200	-92
2.24567	-91
2.24933	-90
2.25300	-90
2.25667	-90
2.26033	-89
2.26400	-89
2.26767	-89
2.27133	-89
2.27500	-89
2.27867	-89
2.28233	-89
2.28600	-89
2.28967	-89
2.29333	-89
2.29700	-89
2.30067	-89
2.30433	-89
2.30800	-88
2.31167	-88
2.31533	-87
2.31900	-86
2.32267	-85
2.32633	-84
2.33000	-84
2.33367	-83
2.33733	-83
2.34100	-82
2.34467	-82
2.34833	-81
2.35200	-80
2.35567	-79
2.35933	-78
2.36300	-77
2.36667	-75
2.37033	-72
2.37400	-70
2.37767	-66
2.38133	-63
2.38500	-59
2.38867	-54
2.39233	-49
2.39600	-45
2.39967	-40
2.40333	-36
2.40700	-32
2.41067	-29
2.41433	-26
2.41800	-24
2.42167	-22
2.42533	-21
2.42900	-20
2.43267	-19
2.43633	-17
2.44000	-16
2.44367	-14
2.44733	-13
2.45100	-11
2.45467	-9
2.45833	-8
2.46200	-7
2.46567	-7
2.46933	-6
2.47300	-5
2.47667	-3
2.48033	-2
2.48400	-1
2.48767	0
2.49133	2
2.49500	3
2.49867	4
2.50233	4
2.50600	4
2.50967	4
2.51333	5
2.51700	5
2.52067	5
2.52433	5
2.52800	6
2.53167	7
2.53533	7
2.53900	8
2.54267	9
2.54633	10
2.55000	11
2.55367	11
2.55733	11
2.56100	11
2.56467	11
2.56833	11
2.57200	11
2.57567	11
2.57933	11
2.58300	11
2.58667	11
2.59033	12
2.59400	12
2.59767	12
2.60133	12
2.60500	11
2.60867	11
2.61233	10
2.61600	10
2.61967	10
2.62333	10
2.62700	10
2.63067	10
2.63433	11
2.63800	12
2.64167	13
2.64533	14
2.64900	15
2.65267	16
2.65633	16
2.66000	17
2.66367	17
2.66733	17
2.67100	17
2.67467	18
2.67833	18
2.68200	18
2.68567	19
2.68933	19
2.69300	19
2.69667	19
2.70033	19
2.70400	19
2.70767	19
2.71133	19
2.71500	19
2.71867	20
2.72233	20
2.72600	21
2.72967	21
2.73333	22
2.73700	22
2.74067	23
2.74433	23
2.74800	24
2.75167	24
2.75533	25
2.75900	24
2.76267	24
2.76633	24
2.77000	23
2.77367	23
2.77733	22
2.78100	22
2.78467	22
2.78833	21
2.79200	21
2.79567	21
2.79933	21
2.80300	21
2.80667	22
2.81033	22
2.81400	22
2.81767	23
2.82133	23
2.82500	23
2.82867	23
2.83233	23
2.83600	23
2.83967	22
2.84333	19
2.84700	15
2.85067	8
2.85433	-3
2.85800	-17
2.86167	-35
2.86533	-57
2.86900	-84
2.87267	-115
2.87633	-149
2.88000	-188
2.88367	-230
2.88733	-276
2.89100	-324
2.89467	-374
2.89833	-426
2.90200	-479
2.90567	-533
2.90933	-588
2.91300	-642
2.91667	-696
2.92033	-750
2.92400	-802
2.92767	-853
2.93133	-907
2.93500	-965
2.93867	-1024
2.94233	-1075
2.94600	-1107
2.94967	-1113
2.95333	-1093
2.95700	-1051
2.96067	-990
2.96433	-918
2.96800	-839
2.97167	-758
2.97533	-678
2.97900	-601
2.98267	-529
2.98633	-463
2.99000	-403
2.99367	-349
2.99733	-300
3.00100	-257
3.00467	-220
3.00833	-187
3.01200	-159
3.01567	-135
3.01933	-115
3.02300	-97
3.02667	-81
3.03033	-68
3.03400	-57
3.03767	-47
3.04133	-39
3.04500	-32
3.04867	-26
3.05233	-21
3.05600	-16
3.05967	-13
3.06333	-9
3.06700	-7
3.07067	-4
3.07433	-2
3.07800	-0
3.08167	1
3.08533	3
3.08900	4
3.09267	5
3.09633	6
3.10000	7
3.10367	8
3.10733	8
3.11100	9
3.11467	10
3.11833	11
3.12200	12
3.12567	12
3.12933	13
3.13300	14
3.13667	14
3.14033	15
3.14400	15
3.14767	15
3.15133	16
3.15500	16
3.15867	17
3.16233	17
3.16600	17
3.16967	17
3.17333	18
3.17700	18
3.18067	18
3.18433	18
3.18800	18
3.19167	19
3.19533	19
3.19900	20
3.20267	20
3.20633	20
3.21000	20
3.21367	20
3.21733	20
3.22100	20
3.22467	20
3.22833	20
3.23200	20
3.23567	20
3.23933	20
3.24300	20
3.24667	20
3.25033	21
3.25400	21
3.25767	21
3.26133	21
3.26500	21
3.26867	21
3.27233	21
3.27600	21
3.27967	21
3.28333	21
3.28700	21
3.29067	20
3.29433	20
3.29800	20
3.30167	20
3.30533	20
3.30900	20
3.31267	20
3.31633	20
3.32000	20
3.32367	21
3.32733	21
3.33100	21
3.33467	22
3.33833	22
3.34200	22
3.34567	23
3.34933	23
3.35300	23
3.35667	23
3.36033	24
3.36400	24
3.36767	24
3.37133	24
3.37500	24
3.37867	25
3.38233	25
3.38600	25
3.38967	25
3.39333	25
3.39700	26
3.40067	26
3.40433	26
3.40800	26
3.41167	26
3.41533	26
3.41900	26
3.42267	26
3.42633	26
3.43000	26
3.43367	26
3.43733	26
3.44100	26
3.44467	26
3.44833	26
3.45200	25
3.45567	25
3.45933	25
3.46300	25
3.46667	25
3.47033	25
3.47400	25
3.47767	25
3.48133	25
3.48500	25
3.48867	25
3.49233	25
3.49600	26
3.49967	26
3.50333	26
3.50700	27
3.51067	27
3.51433	27
3.51800	27
3.52167	27
3.52533	27
3.52900	27
3.53267	27
3.53633	27
3.54000	27
3.54367	27
3.54733	27
3.55100	27
3.55467	26
3.55833	26
3.56200	26
3.56567	26
3.56933	26
3.57300	26
3.57667	26
3.58033	26
3.58400	25
3.58767	25
3.59133	25
3.59500	25
3.59867	25
3.60233	25
3.60600	25
3.60967	25
3.61333	25
3.61700	25
3.62067	24
3.62433	24
3.62800	24
3.63167	24
3.63533	24
3.63900	24
3.64267	24
3.64633	24
3.65000	23
3.65367	23
3.65733	23
3.66100	23
3.66467	23
3.66833	23
3.67200	23
3.67567	23
3.67933	23
3.68300	23
3.68667	23
3.69033	23
3.69400	23
3.69767	23
3.70133	23
3.70500	23
3.70867	23
3.71233	23
3.71600	23
3.71967	23
3.72333	23
3.72700	23
3.73067	23
3.73433	23
3.73800	23
3.74167	23
3.74533	23
3.74900	23
3.75267	23
3.75633	23
3.76000	23
3.76367	23
3.76733	23
3.77100	23
3.77467	23
3.77833	24
3.78200	24
3.78567	24
3.78933	24
3.79300	24
3.79667	24
3.80033	25
3.80400	25
3.80767	25
3.81133	25
3.81500	24
3.81867	24
3.82233	24
3.82600	24
3.82967	24
3.83333	24
3.83700	25
3.84067	25
3.84433	25
3.84800	25
3.85167	25
3.85533	25
3.85900	25
3.86267	25
3.86633	25
3.87000	25
3.87367	24
3.87733	24
3.88100	24
3.88467	24
3.88833	24
3.89200	25
3.89567	25
3.89933	25
3.90300	26
3.90667	26
3.91033	26
3.91400	26
3.91767	26
3.92133	26
3.92500	26
3.92867	25
3.93233	25
3.93600	24
3.93967	24
3.94333	24
3.94700	24
3.95067	23
3.95433	23
3.95800	23
3.96167	23
3.96533	23
3.96900	23
3.97267	23
3.97633	24
3.98000	24
3.98367	24
3.98733	25
3.99100	25
3.99467	25
3.99833	24

[Chromatogram (Ch3)]
Interval(msec)	220
# of Points	1091
Start Time(min)	0.002
End Time(min)	3.998
R.Time (min)	Intensity
0.00167	-1
0.00533	-1
0.00900	-0
0.01267	0
0.01633	-1
0.02000	-0
0.02367	-1
0.02733	-1
0.03100	1
0.03467	-1
0.03833	-3
0.04200	-5
0.04567	-6
0.04933	-6
0.05300	-7
0.05667	-6
0.06033	-6
0.06400	-7
0.06767	-7
0.07133	-6
0.07500	-4
0.07867	-3
0.08233	-4
0.08600	-6
0.08967	-8
0.09333	-9
0.09700	-9
0.10067	-9
0.10433	-9
0.10800	-10
0.11167	-8
0.11533	-7
0.11900	-6
0.12267	-5
0.12633	-3
0.13000	-5
0.13367	-6
0.13733	-7
0.14100	-6
0.14467	-4
0.14833	-1
0.15200	-1
0.15567	-1
0.15933	-1
0.16300	-0
0.16667	-1
0.17033	-2
0.17400	-3
0.17767	-3
0.18133	-4
0.18500	-3
0.18867	-2
0.19233	-2
0.19600	-3
0.19967	-4
0.20333	-4
0.20700	-3
0.21067	-4
0.21433	-6
0.21800	-7
0.22167	-6
0.22533	-3
0.22900	-1
0.23267	-2
0.23633	-2
0.24000	0
0.24367	2
0.24733	1
0.25100	1
0.25467	0
0.25833	-2
0.26200	-3
0.26567	-1
0.26933	0
0.27300	1
0.27667	1
0.28033	0
0.28400	-0
0.28767	0
0.29133	-1
0.29500	-3
0.29867	-3
0.30233	-2
0.30600	1
0.30967	3
0.31333	4
0.31700	4
0.32067	5
0.32433	4
0.32800	3
0.33167	2
0.33533	2
0.33900	2
0.34267	2
0.34633	2
0.35000	2
0.35367	5
0.35733	5
0.36100	4
0.36467	3
0.36833	2
0.37200	-0
0.37567	-1
0.37933	-1
0.38300	-1
0.38667	-0
0.39033	-0
0.39400	0
0.39767	3
0.40133	4
0.40500	4
0.40867	4
0.41233	3
0.41600	1
0.41967	-0
0.42333	1
0.42700	2
0.43067	2
0.43433	1
0.43800	1
0.44167	0
0.44533	0
0.44900	1
0.45267	1
0.45633	-0
0.46000	-0
0.46367	0
0.46733	2
0.47100	2
0.47467	1
0.47833	0
0.48200	0
0.48567	-1
0.48933	-1
0.49300	1
0.49667	3
0.50033	1
0.50400	-1
0.50767	-0
0.51133	0
0.51500	0
0.51867	-1
0.52233	-2
0.52600	-1
0.52967	1
0.53333	2
0.53700	3
0.54067	3
0.54433	2
0.54800	2
0.55167	1
0.55533	-1
0.55900	-2
0.56267	-1
0.56633	0
0.57000	2
0.57367	2
0.57733	1
0.58100	1
0.58467	2
0.58833	4
0.59200	4
0.59567	3
0.59933	2
0.60300	0
0.60667	1
0.61033	2
0.61400	5
0.61767	7
0.62133	7
0.62500	7
0.62867	7
0.63233	7
0.63600	7
0.63967	8
0.64333	8
0.64700	8
0.65067	8
0.65433	6
0.65800	5
0.66167	6
0.66533	7
0.66900	8
0.67267	8
0.67633	8
0.68000	9
0.68367	11
0.68733	11
0.69100	10
0.69467	8
0.69833	5
0.70200	2
0.70567	-0
0.70933	-1
0.71300	0
0.71667	2
0.72033	3
0.72400	3
0.72767	3
0.73133	4
0.73500	4
0.73867	6
0.74233	9
0.74600	8
0.74967	8
0.75333	7
0.75700	7
0.76067	6
0.76433	3
0.76800	2
0.77167	3
0.77533	5
0.77900	6
0.78267	7
0.78633	7
0.79000	8
0.79367	10
0.79733	10
0.80100	12
0.80467	11
0.80833	10
0.81200	11
0.81567	10
0.81933	10
0.82300	12
0.82667	14
0.83033	14
0.83400	13
0.83767	12
0.84133	13
0.84500	15
0.84867	18
0.85233	20
0.85600	19
0.85967	17
0.86333	15
0.86700	13
0.87067	16
0.87433	21
0.87800	22
0.88167	20
0.88533	18
0.88900	16
0.89267	15
0.89633	14
0.90000	14
0.90367	16
0.90733	18
0.91100	19
0.91467	19
0.91833	20
0.92200	17
0.92567	15
0.92933	13
0.93300	12
0.93667	13
0.94033	14
0.94400	14
0.94767	17
0.95133	19
0.95500	20
0.95867	19
0.96233	19
0.96600	21
0.96967	20
0.97333	18
0.97700	17
0.98067	14
0.98433	14
0.98800	14
0.99167	15
0.99533	15
0.99900	15
1.00267	14
1.00633	14
1.01000	12
1.01367	13
1.01733	15
1.02100	17
1.02467	19
1.02833	20
1.03200	20
1.03567	19
1.03933	17
1.04300	16
1.04667	18
1.05033	18
1.05400	17
1.05767	15
1.06133	15
1.06500	16
1.06867	16
1.07233	15
1.07600	16
1.07967	17
1.08333	17
1.08700	16
1.09067	16
1.09433	16
1.09800	15
1.10167	15
1.10533	16
1.10900	17
1.11267	16
1.11633	14
1.12000	13
1.12367	12
1.12733	12
1.13100	11
1.13467	12
1.13833	11
1.14200	10
1.14567	10
1.14933	9
1.15300	9
1.15667	11
1.16033	11
1.16400	10
1.16767	12
1.17133	13
1.17500	14
1.17867	15
1.18233	16
1.18600	14
1.18967	13
1.19333	14
1.19700	14
1.20067	13
1.20433	15
1.20800	15
1.21167	15
1.21533	18
1.21900	17
1.22267	15
1.22633	13
1.23000	11
1.23367	12
1.23733	13
1.24100	14
1.24467	14
1.24833	13
1.25200	12
1.25567	11
1.25933	11
1.26300	10
1.26667	7
1.27033	6
1.27400	8
1.27767	11
1.28133	13
1.28500	14
1.28867	14
1.29233	15
1.29600	15
1.29967	14
1.30333	15
1.30700	18
1.31067	20
1.31433	21
1.31800	22
1.32167	20
1.32533	18
1.32900	15
1.33267	16
1.33633	17
1.34000	17
1.34367	18
1.34733	18
1.35100	18
1.35467	19
1.35833	20
1.36200	20
1.36567	21
1.36933	22
1.37300	22
1.37667	22
1.38033	24
1.38400	24
1.38767	23
1.39133	23
1.39500	24
1.39867	24
1.40233	24
1.40600	23
1.40967	22
1.41333	21
1.41700	21
1.42067	22
1.42433	23
1.42800	21
1.43167	20
1.43533	20
1.43900	20
1.44267	20
1.44633	18
1.45000	15
1.45367	15
1.45733	16
1.46100	16
1.46467	17
1.46833	19
1.47200	20
1.47567	21
1.47933	22
1.48300	21
1.48667	21
1.49033	21
1.49400	20
1.49767	20
1.50133	22
1.50500	24
1.50867	26
1.51233	25
1.51600	23
1.51967	22
1.52333	22
1.52700	22
1.53067	22
1.53433	23
1.53800	25
1.54167	25
1.54533	25
1.54900	24
1.55267	24
1.55633	24
1.56000	25
1.56367	28
1.56733	29
1.57100	28
1.57467	25
1.57833	23
1.58200	23
1.58567	24
1.58933	25
1.59300	26
1.59667	24
1.60033	24
1.60400	25
1.60767	26
1.61133	27
1.61500	26
1.61867	26
1.62233	27
1.62600	27
1.62967	27
1.63333	28
1.63700	28
1.64067	29
1.64433	31
1.64800	30
1.65167	29
1.65533	30
1.65900	31
1.66267	31
1.66633	31
1.67000	31
1.67367	30
1.67733	30
1.68100	31
1.68467	32
1.68833	32
1.69200	32
1.69567	30
1.69933	31
1.70300	33
1.70667	35
1.71033	37
1.71400	37
1.71767	38
1.72133	36
1.72500	37
1.72867	40
1.73233	41
1.73600	40
1.73967	39
1.74333	38
1.74700	37
1.75067	37
1.75433	39
1.75800	40
1.76167	39
1.76533	36
1.76900	36
1.77267	38
1.77633	42
1.78000	46
1.78367	46
1.78733	45
1.79100	44
1.79467	42
1.79833	39
1.80200	39
1.80567	42
1.80933	43
1.81300	44
1.81667	44
1.82033	44
1.82400	43
1.82767	44
1.83133	47
1.83500	48
1.83867	51
1.84233	50
1.84600	49
1.84967	52
1.85333	53
1.85700	52
1.86067	50
1.86433	49
1.86800	52
1.87167	54
1.87533	56
1.87900	55
1.88267	53
1.88633	53
1.89000	54
1.89367	55
1.89733	55
1.90100	56
1.90467	55
1.90833	56
1.91200	56
1.91567	57
1.91933	57
1.92300	59
1.92667	60
1.93033	61
1.93400	62
1.93767	63
1.94133	64
1.94500	65
1.94867	66
1.95233	67
1.95600	67
1.95967	66
1.96333	68
1.96700	70
1.97067	70
1.97433	70
1.97800	69
1.98167	71
1.98533	71
1.98900	72
1.99267	73
1.99633	74
2.00000	77
2.00367	79
2.00733	79
2.01100	79
2.01467	79
2.01833	79
2.02200	81
2.02567	83
2.02933	84
2.03300	82
2.03667	83
2.04033	83
2.04400	84
2.04767	86
2.05133	87
2.05500	89
2.05867	89
2.06233	89
2.06600	90
2.06967	91
2.07333	93
2.07700	97
2.08067	100
2.08433	101
2.08800	102
2.09167	103
2.09533	104
2.09900	105
2.10267	106
2.10633	107
2.11000	107
2.11367	108
2.11733	109
2.12100	109
2.12467	110
2.12833	112
2.13200	113
2.13567	113
2.13933	114
2.14300	116
2.14667	117
2.15033	117
2.15400	115
2.15767	114
2.16133	115
2.16500	117
2.16867	119
2.17233	123
2.17600	126
2.17967	125
2.18333	125
2.18700	127
2.19067	130
2.19433	132
2.19800	133
2.20167	135
2.20533	136
2.20900	136
2.21267	138
2.21633	139
2.22000	141
2.22367	144
2.22733	144
2.23100	146
2.23467	148
2.23833	149
2.24200	150
2.24567	152
2.24933	153
2.25300	154
2.25667	157
2.26033	159
2.26400	160
2.26767	159
2.27133	159
2.27500	161
2.27867	161
2.28233	160
2.28600	161
2.28967	162
2.29333	164
2.29700	166
2.30067	167
2.30433	168
2.30800	171
2.31167	172
2.31533	171
2.31900	173
2.32267	177
2.32633	182
2.33000	188
2.33367	190
2.33733	192
2.34100	194
2.34467	195
2.34833	198
2.35200	200
2.35567	200
2.35933	199
2.36300	199
2.36667	202
2.37033	204
2.37400	206
2.37767	208
2.38133	210
2.38500	210
2.38867	208
2.39233	209
2.39600	215
2.39967	222
2.40333	226
2.40700	230
2.41067	232
2.41433	235
2.41800	238
2.42167	241
2.42533	244
2.42900	248
2.43267	252
2.43633	253
2.44000	258
2.44367	296
2.44733	405
2.45100	530
2.45467	635
2.45833	698
2.46200	696
2.46567	647
2.46933	586
2.47300	538
2.47667	510
2.48033	494
2.48400	475
2.48767	445
2.49133	408
2.49500	372
2.49867	341
2.50233	316
2.50600	296
2.50967	284
2.51333	278
2.51700	277
2.52067	281
2.52433	293
2.52800	310
2.53167	327
2.53533	339
2.53900	341
2.54267	337
2.54633	324
2.55000	304
2.55367	278
2.55733	253
2.56100	232
2.56467	216
2.56833	204
2.57200	195
2.57567	189
2.57933	187
2.58300	187
2.58667	186
2.59033	182
2.59400	179
2.59767	174
2.60133	165
2.60500	153
2.60867	138
2.61233	123
2.61600	108
2.61967	96
2.62333	84
2.62700	74
2.63067	69
2.63433	68
2.63800	71
2.64167	76
2.64533	83
2.64900	92
2.65267	100
2.65633	110
2.66000	119
2.66367	126
2.66733	128
2.67100	129
2.67467	131
2.67833	133
2.68200	131
2.68567	127
2.68933	125
2.69300	121
2.69667	115
2.70033	108
2.70400	102
2.70767	98
2.71133	94
2.71500	90
2.71867	90
2.72233	88
2.72600	85
2.72967	84
2.73333	83
2.73700	84
2.74067	85
2.74433	85
2.74800	84
2.75167	87
2.75533	89
2.75900	92
2.76267	94
2.76633	96
2.77000	97
2.77367	99
2.77733	105
2.78100	106
2.78467	106
2.78833	105
2.79200	104
2.79567	104
2.79933	106
2.80300	107
2.80667	109
2.81033	110
2.81400	113
2.81767	118
2.82133	133
2.82500	172
2.82867	250
2.83233	385
2.83600	607
2.83967	930
2.84333	1357
2.84700	1880
2.85067	2472
2.85433	3092
2.85800	3692
2.86167	4217
2.86533	4629
2.86900	4903
2.87267	5027
2.87633	5011
2.88000	4873
2.88367	4637
2.88733	4335
2.89100	3994
2.89467	3636
2.89833	3279
2.90200	2935
2.90567	2614
2.90933	2318
2.91300	2049
2.91667	1808
2.92033	1592
2.92400	1402
2.92767	1236
2.93133	1091
2.93500	966
2.93867	859
2.94233	765
2.94600	683
2.94967	611
2.95333	546
2.95700	490
2.96067	442
2.96433	399
2.96800	363
2.97167	332
2.97533	305
2.97900	283
2.98267	262
2.98633	245
2.99000	229
2.99367	215
2.99733	201
3.00100	188
3.00467	175
3.00833	163
3.01200	153
3.01567	148
3.01933	141
3.02300	136
3.02667	130
3.03033	124
3.03400	117
3.03767	112
3.04133	108
3.04500	105
3.04867	103
3.05233	99
3.05600	94
3.05967	90
3.06333	88
3.06700	86
3.07067	83
3.07433	79
3.07800	75
3.08167	71
3.08533	71
3.08900	69
3.09267	67
3.09633	65
3.10000	64
3.10367	57
3.10733	19
3.11100	-42
3.11467	-87
3.11833	-95
3.12200	-71
3.12567	-28
3.12933	25
3.13300	84
3.13667	146
3.14033	206
3.14400	262
3.14767	314
3.15133	359
3.15500	399
3.15867	432
3.16233	461
3.16600	486
3.16967	510
3.17333	528
3.17700	544
3.18067	556
3.18433	565
3.18800	573
3.19167	578
3.19533	583
3.19900	586
3.20267	588
3.20633	590
3.21000	591
3.21367	591
3.21733	590
3.22100	589
3.22467	589
3.22833	589
3.23200	589
3.23567	590
3.23933	593
3.24300	593
3.24667	595
3.25033	596
3.25400	599
3.25767	599
3.26133	599
3.26500	602
3.26867	605
3.27233	607
3.27600	608
3.27967	609
3.28333	607
3.28700	607
3.29067	607
3.29433	609
3.29800	611
3.30167	616
3.30533	620
3.30900	622
3.31267	626
3.31633	627
3.32000	627
3.32367	629
3.32733	632
3.33100	636
3.33467	640
3.33833	644
3.34200	649
3.34567	652
3.34933	655
3.35300	657
3.35667	658
3.36033	658
3.36400	659
3.36767	662
3.37133	665
3.37500	669
3.37867	671
3.38233	671
3.38600	672
3.38967	676
3.39333	678
3.39700	676
3.40067	675
3.40433	677
3.40800	678
3.41167	676
3.41533	673
3.41900	669
3.42267	665
3.42633	663
3.43000	661
3.43367	657
3.43733	653
3.44100	649
3.44467	646
3.44833	642
3.45200	638
3.45567	633
3.45933	629
3.46300	625
3.46667	620
3.47033	615
3.47400	615
3.47767	615
3.48133	610
3.48500	606
3.48867	599
3.49233	592
3.49600	588
3.49967	584
3.50333	581
3.50700	579
3.51067	576
3.51433	572
3.51800	571
3.52167	569
3.52533	565
3.52900	561
3.53267	559
3.53633	557
3.54000	556
3.54367	555
3.54733	554
3.55100	552
3.55467	549
3.55833	547
3.56200	546
3.56567	544
3.56933	544
3.57300	543
3.57667	542
3.58033	543
3.58400	543
3.58767	540
3.59133	537
3.59500	533
3.59867	532
3.60233	533
3.60600	533
3.60967	531
3.61333	532
3.61700	533
3.62067	535
3.62433	534
3.62800	532
3.63167	529
3.63533	526
3.63900	523
3.64267	522
3.64633	520
3.65000	518
3.65367	518
3.65733	520
3.66100	520
3.66467	521
3.66833	522
3.67200	522
3.67567	520
3.67933	519
3.68300	518
3.68667	519
3.69033	520
3.69400	520
3.69767	522
3.70133	522
3.70500	521
3.70867	521
3.71233	521
3.71600	521
3.71967	522
3.72333	525
3.72700	526
3.73067	526
3.73433	525
3.73800	527
3.74167	526
3.74533	526
3.74900	524
3.75267	522
3.75633	523
3.76000	526
3.76367	527
3.76733	526
3.77100	525
3.77467	523
3.77833	522
3.78200	523
3.78567	524
3.78933	524
3.79300	522
3.79667	521
3.80033	520
3.80400	520
3.80767	520
3.81133	519
3.81500	516
3.81867	513
3.82233	512
3.82600	512
3.82967	511
3.83333	513
3.83700	515
3.84067	514
3.84433	513
3.84800	514
3.85167	512
3.85533	511
3.85900	510
3.86267	510
3.86633	507
3.87000	507
3.87367	507
3.87733	505
3.88100	502
3.88467	499
3.88833	498
3.89200	500
3.89567	503
3.89933	504
3.90300	502
3.90667	500
3.91033	499
3.91400	498
3.91767	496
3.92133	495
3.92500	494
3.92867	495
3.93233	494
3.93600	493
3.93967	494
3.94333	493
3.94700	493
3.95067	494
3.95433	493
3.95800	491
3.96167	491
3.96533	489
3.96900	487
3.97267	487
3.97633	486
3.98000	483
3.98367	480
3.98733	478
3.99100	476
3.99467	475
3.99833	473

[Status Trace (Column Oven Temperature)]
Interval(msec)	1000
# of Points	240
Start Time(min)	0.012
End Time(min)	3.996
Intensity Units	
Intensity Multiplier	1
R.Time (min)	Intensity
0.01228	34.98
0.02895	34.99
0.04562	34.99
0.06228	34.99
0.07895	34.99
0.09562	35.00
0.11228	35.01
0.12895	35.01
0.14562	35.01
0.16228	35.02
0.17895	35.02
0.19562	35.00
0.21228	35.01
0.22895	35.02
0.24562	35.02
0.26228	35.03
0.27895	35.03
0.29562	35.03
0.31228	35.03
0.32895	35.04
0.34562	35.04
0.36228	35.06
0.37895	35.05
0.39562	35.02
0.41228	35.01
0.42895	35.01
0.44562	35.00
0.46228	34.99
0.47895	34.99
0.49562	34.99
0.51228	34.99
0.52895	34.99
0.54562	34.99
0.56228	34.98
0.57895	34.97
0.59562	34.96
0.61228	34.96
0.62895	34.96
0.64562	34.97
0.66228	34.97
0.67895	34.98
0.69562	34.99
0.71228	35.01
0.72895	35.01
0.74562	35.00
0.76228	35.00
0.77895	35.01
0.79562	35.01
0.81228	35.01
0.82895	35.02
0.84562	35.01
0.86228	35.00
0.87895	35.00
0.89562	35.00
0.91228	35.00
0.92895	35.00
0.94562	34.99
0.96228	34.98
0.97895	34.98
0.99562	34.98
1.01228	34.97
1.02895	34.97
1.04562	34.97
1.06228	34.97
1.07895	34.97
1.09562	34.99
1.11228	34.98
1.12895	34.98
1.14562	34.98
1.16228	34.97
1.17895	34.97
1.19562	34.98
1.21228	34.99
1.22895	35.00
1.24562	35.00
1.26228	34.99
1.27895	35.00
1.29562	35.01
1.31228	35.01
1.32895	35.01
1.34562	35.02
1.36228	35.01
1.37895	35.01
1.39562	35.01
1.41228	34.99
1.42895	34.99
1.44562	34.96
1.46228	34.95
1.47895	34.93
1.49562	34.94
1.51228	34.97
1.52895	34.97
1.54562	34.99
1.56228	35.00
1.57895	35.01
1.59562	35.05
1.61228	35.14
1.62895	35.29
1.64562	35.48
1.66228	35.73
1.67895	36.07
1.69562	36.44
1.71228	36.79
1.72895	37.11
1.74562	37.41
1.76228	37.76
1.77895	38.12
1.79562	38.44
1.81228	38.74
1.82895	39.07
1.84562	39.41
1.86228	39.74
1.87895	40.08
1.89562	40.39
1.91228	40.72
1.92895	41.06
1.94562	41.38
1.96228	41.70
1.97895	42.03
1.99562	42.35
2.01228	42.68
2.02895	43.01
2.04562	43.34
2.06228	43.65
2.07895	43.98
2.09562	44.32
2.11228	44.64
2.12895	44.96
2.14562	45.29
2.16228	45.62
2.17895	45.92
2.19562	46.24
2.21228	46.60
2.22895	46.93
2.24562	47.26
2.26228	47.60
2.27895	47.94
2.29562	48.28
2.31228	48.59
2.32895	48.93
2.34562	49.24
2.36228	49.48
2.37895	49.61
2.39562	49.61
2.41228	49.62
2.42895	49.65
2.44562	49.64
2.46228	49.67
2.47895	49.67
2.49562	49.67
2.51228	49.71
2.52895	49.74
2.54562	49.74
2.56228	49.77
2.57895	49.79
2.59562	49.80
2.61228	49.86
2.62895	49.86
2.64562	49.84
2.66228	49.85
2.67895	49.85
2.69562	49.87
2.71228	49.87
2.72895	49.86
2.74562	49.84
2.76228	49.85
2.77895	49.87
2.79562	49.87
2.81228	49.87
2.82895	49.87
2.84562	49.85
2.86228	49.86
2.87895	49.86
2.89562	49.87
2.91228	49.89
2.92895	49.90
2.94562	49.92
2.96228	49.94
2.97895	49.97
2.99562	49.98
3.01228	50.00
3.02895	50.01
3.04562	50.02
3.06228	50.04
3.07895	50.06
3.09562	50.06
3.11228	50.06
3.12895	50.07
3.14562	50.07
3.16228	50.07
3.17895	50.06
3.19562	50.06
3.21228	50.06
3.22895	50.06
3.24562	50.06
3.26228	50.07
3.27895	50.09
3.29562	50.10
3.31228	50.11
3.32895	50.11
3.34562	50.10
3.36228	50.09
3.37895	50.07
3.39562	50.06
3.41228	50.05
3.42895	50.05
3.44562	50.05
3.46228	50.04
3.47895	50.04
3.49562	50.02
3.51228	50.02
3.52895	50.01
3.54562	50.01
3.56228	50.01
3.57895	50.00
3.59562	50.01
3.61228	50.01
3.62895	50.02
3.64562	50.03
3.66228	50.03
3.67895	50.05
3.69562	50.05
3.71228	50.06
3.72895	50.07
3.74562	50.08
3.76228	50.08
3.77895	50.08
3.79562	50.09
3.81228	50.09
3.82895	50.08
3.84562	50.07
3.86228	50.06
3.87895	50.06
3.89562	50.05
3.91228	50.05
3.92895	50.05
3.94562	50.07
3.96228	50.08
3.97895	50.07
3.99562	50.07

[Status Trace (Injection Unit Temperature)]
Interval(msec)	1000
# of Points	240
Start Time(min)	0.012
End Time(min)	3.996
Intensity Units	
Intensity Multiplier	1
R.Time (min)	Intensity
0.01228	99.97
0.02895	99.98
0.04562	99.98
0.06228	99.98
0.07895	99.98
0.09562	99.98
0.11228	99.98
0.12895	99.98
0.14562	99.98
0.16228	99.98
0.17895	99.98
0.19562	99.98
0.21228	99.98
0.22895	99.98
0.24562	99.98
0.26228	99.98
0.27895	99.98
0.29562	99.98
0.31228	99.98
0.32895	99.98
0.34562	99.98
0.36228	99.98
0.37895	99.98
0.39562	99.98
0.41228	99.98
0.42895	99.98
0.44562	99.98
0.46228	99.98
0.47895	99.98
0.49562	99.98
0.51228	99.98
0.52895	99.98
0.54562	99.98
0.56228	99.99
0.57895	99.98
0.59562	99.98
0.61228	99.98
0.62895	99.99
0.64562	99.98
0.66228	99.98
0.67895	99.98
0.69562	99.98
0.71228	99.98
0.72895	99.98
0.74562	99.98
0.76228	99.98
0.77895	99.98
0.79562	99.98
0.81228	99.98
0.82895	99.98
0.84562	99.98
0.86228	99.98
0.87895	99.98
0.89562	99.98
0.91228	99.98
0.92895	99.98
0.94562	99.98
0.96228	99.98
0.97895	99.98
0.99562	99.98
1.01228	99.98
1.02895	99.98
1.04562	99.98
1.06228	99.98
1.07895	99.98
1.09562	99.98
1.11228	99.98
1.12895	99.98
1.14562	99.98
1.16228	99.98
1.17895	99.98
1.19562	99.98
1.21228	99.98
1.22895	99.98
1.24562	99.98
1.26228	99.98
1.27895	99.98
1.29562	99.98
1.31228	99.98
1.32895	99.99
1.34562	99.98
1.36228	99.98
1.37895	99.98
1.39562	99.98
1.41228	99.98
1.42895	99.98
1.44562	99.98
1.46228	99.98
1.47895	99.98
1.49562	99.98
1.51228	99.98
1.52895	99.98
1.54562	99.99
1.56228	99.98
1.57895	99.98
1.59562	99.98
1.61228	99.98
1.62895	99.98
1.64562	99.98
1.66228	99.98
1.67895	99.98
1.69562	99.98
1.71228	99.98
1.72895	99.98
1.74562	99.98
1.76228	99.98
1.77895	99.98
1.79562	99.98
1.81228	99.98
1.82895	99.98
1.84562	99.98
1.86228	99.97
1.87895	99.98
1.89562	99.98
1.91228	99.97
1.92895	99.97
1.94562	99.98
1.96228	99.97
1.97895	99.97
1.99562	99.96
2.01228	99.97
2.02895	99.97
2.04562	99.97
2.06228	99.97
2.07895	99.97
2.09562	99.97
2.11228	99.97
2.12895	99.96
2.14562	99.96
2.16228	99.97
2.17895	99.97
2.19562	99.96
2.21228	99.96
2.22895	99.96
2.24562	99.97
2.26228	99.97
2.27895	99.96
2.29562	99.96
2.31228	99.96
2.32895	99.97
2.34562	99.97
2.36228	99.96
2.37895	99.96
2.39562	99.97
2.41228	99.97
2.42895	99.97
2.44562	99.97
2.46228	99.97
2.47895	99.97
2.49562	99.96
2.51228	99.97
2.52895	99.97
2.54562	99.97
2.56228	99.97
2.57895	99.97
2.59562	99.97
2.61228	99.98
2.62895	99.97
2.64562	99.98
2.66228	99.98
2.67895	99.98
2.69562	99.98
2.71228	99.98
2.72895	99.98
2.74562	99.98
2.76228	99.99
2.77895	99.99
2.79562	100.00
2.81228	99.99
2.82895	99.99
2.84562	99.99
2.86228	99.99
2.87895	100.00
2.89562	100.00
2.91228	100.00
2.92895	100.00
2.94562	100.00
2.96228	100.00
2.97895	100.01
2.99562	100.01
3.01228	100.01
3.02895	100.01
3.04562	100.01
3.06228	100.01
3.07895	100.02
3.09562	100.01
3.11228	100.02
3.12895	100.01
3.14562	100.02
3.16228	100.02
3.17895	100.02
3.19562	100.02
3.21228	100.02
3.22895	100.02
3.24562	100.02
3.26228	100.03
3.27895	100.02
3.29562	100.02
3.31228	100.02
3.32895	100.03
3.34562	100.02
3.36228	100.03
3.37895	100.03
3.39562	100.03
3.41228	100.03
3.42895	100.03
3.44562	100.02
3.46228	100.03
3.47895	100.03
3.49562	100.03
3.51228	100.03
3.52895	100.03
3.54562	100.03
3.56228	100.04
3.57895	100.03
3.59562	100.03
3.61228	100.04
3.62895	100.03
3.64562	100.04
3.66228	100.03
3.67895	100.04
3.69562	100.03
3.71228	100.03
3.72895	100.03
3.74562	100.04
3.76228	100.03
3.77895	100.04
3.79562	100.03
3.81228	100.03
3.82895	100.03
3.84562	100.03
3.86228	100.03
3.87895	100.03
3.89562	100.03
3.91228	100.03
3.92895	100.03
3.94562	100.03
3.96228	100.03
3.97895	100.03
3.99562	100.03

[Status Trace (Carrier Gas Pressure)]
Interval(msec)	1000
# of Points	240
Start Time(min)	0.012
End Time(min)	3.996
Intensity Units	
Intensity Multiplier	1
R.Time (min)	Intensity
0.01228	57.99
0.02895	54.94
0.04562	57.75
0.06228	59.68
0.07895	58.92
0.09562	57.99
0.11228	57.99
0.12895	58.01
0.14562	58.01
0.16228	58.00
0.17895	58.00
0.19562	58.00
0.21228	58.00
0.22895	58.00
0.24562	58.00
0.26228	58.00
0.27895	58.00
0.29562	58.00
0.31228	58.00
0.32895	58.00
0.34562	58.00
0.36228	58.00
0.37895	58.00
0.39562	58.00
0.41228	58.00
0.42895	58.00
0.44562	58.00
0.46228	58.00
0.47895	58.00
0.49562	58.00
0.51228	58.00
0.52895	58.00
0.54562	58.00
0.56228	58.00
0.57895	58.00
0.59562	58.00
0.61228	58.00
0.62895	58.00
0.64562	58.00
0.66228	58.00
0.67895	58.00
0.69562	58.00
0.71228	58.00
0.72895	58.00
0.74562	58.00
0.76228	58.00
0.77895	58.00
0.79562	58.00
0.81228	58.00
0.82895	58.00
0.84562	58.00
0.86228	58.00
0.87895	58.00
0.89562	58.00
0.91228	58.00
0.92895	58.00
0.94562	58.00
0.96228	58.00
0.97895	58.00
0.99562	58.00
1.01228	58.00
1.02895	58.00
1.04562	58.00
1.06228	58.00
1.07895	58.00
1.09562	58.00
1.11228	58.00
1.12895	58.00
1.14562	58.00
1.16228	58.00
1.17895	58.00
1.19562	58.00
1.21228	58.00
1.22895	58.00
1.24562	58.00
1.26228	58.00
1.27895	58.00
1.29562	58.00
1.31228	58.00
1.32895	58.00
1.34562	58.00
1.36228	58.00
1.37895	58.00
1.39562	58.00
1.41228	58.00
1.42895	58.00
1.44562	58.00
1.46228	58.00
1.47895	58.00
1.49562	58.00
1.51228	58.00
1.52895	58.00
1.54562	58.00
1.56228	58.00
1.57895	58.00
1.59562	58.00
1.61228	58.00
1.62895	58.00
1.64562	58.00
1.66228	58.00
1.67895	58.01
1.69562	58.01
1.71228	58.00
1.72895	58.00
1.74562	58.00
1.76228	58.00
1.77895	58.00
1.79562	58.00
1.81228	58.00
1.82895	58.00
1.84562	58.00
1.86228	58.00
1.87895	58.00
1.89562	58.00
1.91228	58.00
1.92895	58.00
1.94562	58.00
1.96228	58.00
1.97895	58.00
1.99562	58.00
2.01228	58.00
2.02895	58.00
2.04562	58.00
2.06228	58.00
2.07895	58.00
2.09562	58.00
2.11228	58.00
2.12895	58.00
2.14562	58.00
2.16228	58.00
2.17895	58.00
2.19562	58.00
2.21228	58.00
2.22895	58.00
2.24562	58.00
2.26228	58.00
2.27895	58.00
2.29562	58.00
2.31228	58.00
2.32895	58.00
2.34562	58.00
2.36228	58.00
2.37895	57.99
2.39562	57.99
2.41228	58.00
2.42895	58.00
2.44562	58.00
2.46228	58.00
2.47895	58.00
2.49562	58.00
2.51228	57.99
2.52895	57.99
2.54562	58.00
2.56228	58.00
2.57895	58.00
2.59562	58.00
2.61228	58.00
2.62895	58.00
2.64562	58.00
2.66228	58.00
2.67895	58.00
2.69562	58.00
2.71228	58.00
2.72895	58.00
2.74562	58.00
2.76228	58.00
2.77895	58.00
2.79562	58.00
2.81228	58.00
2.82895	58.00
2.84562	58.00
2.86228	58.00
2.87895	58.00
2.89562	58.00
2.91228	58.00
2.92895	58.00
2.94562	58.00
2.96228	58.00
2.97895	58.00
2.99562	58.00
3.01228	58.00
3.02895	58.00
3.04562	58.00
3.06228	58.00
3.07895	58.00
3.09562	58.00
3.11228	58.00
3.12895	58.00
3.14562	58.00
3.16228	58.00
3.17895	58.00
3.19562	58.00
3.21228	58.00
3.22895	58.00
3.24562	58.00
3.26228	58.00
3.27895	58.00
3.29562	58.00
3.31228	58.00
3.32895	58.00
3.34562	58.00
3.36228	58.00
3.37895	58.00
3.39562	58.00
3.41228	58.00
3.42895	58.00
3.44562	58.00
3.46228	58.00
3.47895	58.00
3.49562	58.00
3.51228	58.00
3.52895	58.00
3.54562	58.00
3.56228	58.00
3.57895	58.00
3.59562	58.00
3.61228	58.00
3.62895	58.00
3.64562	58.00
3.66228	58.00
3.67895	58.00
3.69562	58.00
3.71228	58.00
3.72895	58.00
3.74562	58.00
3.76228	58.00
3.77895	58.00
3.79562	58.00
3.81228	58.00
3.82895	58.00
3.84562	58.00
3.86228	58.00
3.87895	58.00
3.89562	58.00
3.91228	58.00
3.92895	58.00
3.94562	58.00
3.96228	58.00
3.97895	58.00
3.99562	58.00

[Status Trace (Carrier Gas Flow)]
Interval(msec)	1000
# of Points	240
Start Time(min)	0.012
End Time(min)	3.996
Intensity Units	
Intensity Multiplier	1
R.Time (min)	Intensity
0.01228	34.54
0.02895	34.54
0.04562	34.55
0.06228	34.53
0.07895	34.50
0.09562	34.52
0.11228	34.52
0.12895	34.52
0.14562	34.51
0.16228	34.52
0.17895	34.52
0.19562	34.52
0.21228	34.52
0.22895	34.52
0.24562	34.52
0.26228	34.52
0.27895	34.52
0.29562	34.51
0.31228	34.52
0.32895	34.52
0.34562	34.52
0.36228	34.51
0.37895	34.52
0.39562	34.52
0.41228	34.52
0.42895	34.51
0.44562	34.52
0.46228	34.53
0.47895	34.52
0.49562	34.52
0.51228	34.52
0.52895	34.52
0.54562	34.52
0.56228	34.52
0.57895	34.52
0.59562	34.52
0.61228	34.52
0.62895	34.52
0.64562	34.51
0.66228	34.52
0.67895	34.52
0.69562	34.52
0.71228	34.51
0.72895	34.52
0.74562	34.52
0.76228	34.52
0.77895	34.52
0.79562	34.52
0.81228	34.52
0.82895	34.52
0.84562	34.52
0.86228	34.52
0.87895	34.52
0.89562	34.52
0.91228	34.52
0.92895	34.52
0.94562	34.52
0.96228	34.52
0.97895	34.52
0.99562	34.52
1.01228	34.52
1.02895	34.52
1.04562	34.52
1.06228	34.52
1.07895	34.52
1.09562	34.52
1.11228	34.52
1.12895	34.52
1.14562	34.52
1.16228	34.52
1.17895	34.52
1.19562	34.52
1.21228	34.52
1.22895	34.52
1.24562	34.52
1.26228	34.52
1.27895	34.52
1.29562	34.51
1.31228	34.52
1.32895	34.52
1.34562	34.52
1.36228	34.52
1.37895	34.52
1.39562	34.52
1.41228	34.52
1.42895	34.52
1.44562	34.52
1.46228	34.52
1.47895	34.52
1.49562	34.52
1.51228	34.52
1.52895	34.52
1.54562	34.52
1.56228	34.52
1.57895	34.51
1.59562	34.52
1.61228	34.52
1.62895	34.52
1.64562	34.51
1.66228	34.52
1.67895	34.52
1.69562	34.52
1.71228	34.52
1.72895	34.52
1.74562	34.52
1.76228	34.52
1.77895	34.52
1.79562	34.51
1.81228	34.52
1.82895	34.52
1.84562	34.52
1.86228	34.52
1.87895	34.52
1.89562	34.52
1.91228	34.52
1.92895	34.52
1.94562	34.51
1.96228	34.52
1.97895	34.52
1.99562	34.52
2.01228	34.52
2.02895	34.52
2.04562	34.52
2.06228	34.52
2.07895	34.51
2.09562	34.51
2.11228	34.52
2.12895	34.52
2.14562	34.52
2.16228	34.52
2.17895	34.52
2.19562	34.52
2.21228	34.51
2.22895	34.52
2.24562	34.52
2.26228	34.52
2.27895	34.52
2.29562	34.52
2.31228	34.52
2.32895	34.52
2.34562	34.52
2.36228	34.52
2.37895	34.52
2.39562	34.52
2.41228	34.52
2.42895	34.51
2.44562	34.52
2.46228	34.52
2.47895	34.52
2.49562	34.52
2.51228	34.52
2.52895	34.52
2.54562	34.52
2.56228	34.51
2.57895	34.52
2.59562	34.52
2.61228	34.52
2.62895	34.51
2.64562	34.52
2.66228	34.52
2.67895	34.52
2.69562	34.52
2.71228	34.52
2.72895	34.52
2.74562	34.52
2.76228	34.52
2.77895	34.52
2.79562	34.52
2.81228	34.52
2.82895	34.52
2.84562	34.52
2.86228	34.52
2.87895	34.52
2.89562	34.52
2.91228	34.52
2.92895	34.52
2.94562	34.52
2.96228	34.52
2.97895	34.52
2.99562	34.52
3.01228	34.53
3.02895	34.51
3.04562	34.51
3.06228	34.52
3.07895	34.52
3.09562	34.52
3.11228	34.52
3.12895	34.51
3.14562	34.52
3.16228	34.52
3.17895	34.52
3.19562	34.51
3.21228	34.52
3.22895	34.52
3.24562	34.52
3.26228	34.52
3.27895	34.51
3.29562	34.52
3.31228	34.52
3.32895	34.51
3.34562	34.52
3.36228	34.52
3.37895	34.52
3.39562	34.52
3.41228	34.52
3.42895	34.52
3.44562	34.52
3.46228	34.52
3.47895	34.51
3.49562	34.52
3.51228	34.52
3.52895	34.51
3.54562	34.52
3.56228	34.52
3.57895	34.51
3.59562	34.52
3.61228	34.51
3.62895	34.52
3.64562	34.52
3.66228	34.51
3.67895	34.52
3.69562	34.52
3.71228	34.52
3.72895	34.51
3.74562	34.52
3.76228	34.52
3.77895	34.52
3.79562	34.52
3.81228	34.51
3.82895	34.52
3.84562	34.52
3.86228	34.51
3.87895	34.52
3.89562	34.52
3.91228	34.52
3.92895	34.53
3.94562	34.52
3.96228	34.52
3.97895	34.52
3.99562	34.53

[Status Trace (Column Flow)]
Interval(msec)	1000
# of Points	240
Start Time(min)	0.012
End Time(min)	3.996
Intensity Units	
Intensity Multiplier	1
R.Time (min)	Intensity
0.01228	5.56
0.02895	5.21
0.04562	5.54
0.06228	5.76
0.07895	5.67
0.09562	5.56
0.11228	5.56
0.12895	5.57
0.14562	5.57
0.16228	5.56
0.17895	5.56
0.19562	5.56
0.21228	5.56
0.22895	5.56
0.24562	5.56
0.26228	5.56
0.27895	5.56
0.29562	5.56
0.31228	5.56
0.32895	5.56
0.34562	5.56
0.36228	5.56
0.37895	5.56
0.39562	5.56
0.41228	5.56
0.42895	5.56
0.44562	5.56
0.46228	5.56
0.47895	5.57
0.49562	5.57
0.51228	5.57
0.52895	5.57
0.54562	5.57
0.56228	5.57
0.57895	5.57
0.59562	5.57
0.61228	5.57
0.62895	5.57
0.64562	5.57
0.66228	5.57
0.67895	5.57
0.69562	5.57
0.71228	5.56
0.72895	5.56
0.74562	5.56
0.76228	5.56
0.77895	5.56
0.79562	5.56
0.81228	5.56
0.82895	5.56
0.84562	5.56
0.86228	5.56
0.87895	5.56
0.89562	5.56
0.91228	5.57
0.92895	5.57
0.94562	5.57
0.96228	5.57
0.97895	5.57
0.99562	5.57
1.01228	5.57
1.02895	5.57
1.04562	5.57
1.06228	5.57
1.07895	5.57
1.09562	5.57
1.11228	5.57
1.12895	5.57
1.14562	5.57
1.16228	5.57
1.17895	5.57
1.19562	5.57
1.21228	5.57
1.22895	5.56
1.24562	5.56
1.26228	5.57
1.27895	5.57
1.29562	5.56
1.31228	5.56
1.32895	5.56
1.34562	5.56
1.36228	5.56
1.37895	5.56
1.39562	5.56
1.41228	5.57
1.42895	5.57
1.44562	5.57
1.46228	5.57
1.47895	5.57
1.49562	5.57
1.51228	5.57
1.52895	5.57
1.54562	5.57
1.56228	5.57
1.57895	5.56
1.59562	5.56
1.61228	5.56
1.62895	5.56
1.64562	5.55
1.66228	5.54
1.67895	5.53
1.69562	5.52
1.71228	5.51
1.72895	5.50
1.74562	5.49
1.76228	5.48
1.77895	5.47
1.79562	5.46
1.81228	5.45
1.82895	5.44
1.84562	5.43
1.86228	5.42
1.87895	5.41
1.89562	5.40
1.91228	5.39
1.92895	5.38
1.94562	5.37
1.96228	5.36
1.97895	5.35
1.99562	5.34
2.01228	5.33
2.02895	5.32
2.04562	5.31
2.06228	5.30
2.07895	5.29
2.09562	5.28
2.11228	5.27
2.12895	5.26
2.14562	5.25
2.16228	5.24
2.17895	5.23
2.19562	5.22
2.21228	5.22
2.22895	5.20
2.24562	5.20
2.26228	5.19
2.27895	5.18
2.29562	5.17
2.31228	5.16
2.32895	5.15
2.34562	5.14
2.36228	5.13
2.37895	5.13
2.39562	5.13
2.41228	5.13
2.42895	5.13
2.44562	5.13
2.46228	5.13
2.47895	5.13
2.49562	5.13
2.51228	5.13
2.52895	5.12
2.54562	5.13
2.56228	5.12
2.57895	5.12
2.59562	5.12
2.61228	5.12
2.62895	5.12
2.64562	5.12
2.66228	5.12
2.67895	5.12
2.69562	5.12
2.71228	5.12
2.72895	5.12
2.74562	5.12
2.76228	5.12
2.77895	5.12
2.79562	5.12
2.81228	5.12
2.82895	5.12
2.84562	5.12
2.86228	5.12
2.87895	5.12
2.89562	5.12
2.91228	5.12
2.92895	5.12
2.94562	5.12
2.96228	5.12
2.97895	5.12
2.99562	5.12
3.01228	5.12
3.02895	5.12
3.04562	5.12
3.06228	5.12
3.07895	5.12
3.09562	5.12
3.11228	5.12
3.12895	5.12
3.14562	5.12
3.16228	5.12
3.17895	5.12
3.19562	5.12
3.21228	5.12
3.22895	5.12
3.24562	5.12
3.26228	5.12
3.27895	5.12
3.29562	5.12
3.31228	5.12
3.32895	5.12
3.34562	5.12
3.36228	5.12
3.37895	5.12
3.39562	5.12
3.41228	5.12
3.42895	5.12
3.44562	5.12
3.46228	5.12
3.47895	5.12
3.49562	5.12
3.51228	5.12
3.52895	5.12
3.54562	5.12
3.56228	5.12
3.57895	5.12
3.59562	5.12
3.61228	5.12
3.62895	5.12
3.64562	5.12
3.66228	5.12
3.67895	5.12
3.69562	5.12
3.71228	5.12
3.72895	5.12
3.74562	5.12
3.76228	5.12
3.77895	5.12
3.79562	5.12
3.81228	5.12
3.82895	5.12
3.84562	5.12
3.86228	5.12
3.87895	5.12
3.89562	5.12
3.91228	5.12
3.92895	5.12
3.94562	5.12
3.96228	5.12
3.97895	5.12
3.99562	5.12

[Status Trace (Linear Velocity)]
Interval(msec)	1000
# of Points	240
Start Time(min)	0.012
End Time(min)	3.996
Intensity Units	
Intensity Multiplier	1
R.Time (min)	Intensity
0.01228	39.02
0.02895	37.02
0.04562	38.86
0.06228	40.13
0.07895	39.63
0.09562	39.02
0.11228	39.02
0.12895	39.03
0.14562	39.03
0.16228	39.03
0.17895	39.03
0.19562	39.03
0.21228	39.03
0.22895	39.03
0.24562	39.03
0.26228	39.03
0.27895	39.02
0.29562	39.02
0.31228	39.03
0.32895	39.02
0.34562	39.02
0.36228	39.02
0.37895	39.02
0.39562	39.02
0.41228	39.03
0.42895	39.03
0.44562	39.03
0.46228	39.03
0.47895	39.03
0.49562	39.03
0.51228	39.03
0.52895	39.03
0.54562	39.03
0.56228	39.03
0.57895	39.03
0.59562	39.03
0.61228	39.03
0.62895	39.03
0.64562	39.03
0.66228	39.03
0.67895	39.03
0.69562	39.03
0.71228	39.03
0.72895	39.03
0.74562	39.03
0.76228	39.03
0.77895	39.03
0.79562	39.03
0.81228	39.03
0.82895	39.02
0.84562	39.03
0.86228	39.03
0.87895	39.03
0.89562	39.03
0.91228	39.03
0.92895	39.03
0.94562	39.03
0.96228	39.03
0.97895	39.03
0.99562	39.03
1.01228	39.03
1.02895	39.03
1.04562	39.03
1.06228	39.03
1.07895	39.03
1.09562	39.03
1.11228	39.03
1.12895	39.03
1.14562	39.03
1.16228	39.03
1.17895	39.03
1.19562	39.03
1.21228	39.03
1.22895	39.03
1.24562	39.03
1.26228	39.03
1.27895	39.03
1.29562	39.03
1.31228	39.03
1.32895	39.03
1.34562	39.02
1.36228	39.03
1.37895	39.03
1.39562	39.03
1.41228	39.03
1.42895	39.03
1.44562	39.03
1.46228	39.03
1.47895	39.03
1.49562	39.03
1.51228	39.03
1.52895	39.03
1.54562	39.03
1.56228	39.03
1.57895	39.03
1.59562	39.02
1.61228	39.02
1.62895	39.00
1.64562	38.98
1.66228	38.96
1.67895	38.93
1.69562	38.89
1.71228	38.86
1.72895	38.82
1.74562	38.80
1.76228	38.77
1.77895	38.73
1.79562	38.70
1.81228	38.67
1.82895	38.64
1.84562	38.61
1.86228	38.58
1.87895	38.54
1.89562	38.52
1.91228	38.49
1.92895	38.45
1.94562	38.42
1.96228	38.40
1.97895	38.37
1.99562	38.34
2.01228	38.31
2.02895	38.27
2.04562	38.24
2.06228	38.22
2.07895	38.18
2.09562	38.15
2.11228	38.13
2.12895	38.09
2.14562	38.06
2.16228	38.04
2.17895	38.01
2.19562	37.98
2.21228	37.95
2.22895	37.92
2.24562	37.89
2.26228	37.86
2.27895	37.83
2.29562	37.80
2.31228	37.77
2.32895	37.74
2.34562	37.71
2.36228	37.69
2.37895	37.67
2.39562	37.67
2.41228	37.67
2.42895	37.67
2.44562	37.67
2.46228	37.67
2.47895	37.67
2.49562	37.67
2.51228	37.67
2.52895	37.66
2.54562	37.66
2.56228	37.66
2.57895	37.66
2.59562	37.66
2.61228	37.66
2.62895	37.65
2.64562	37.66
2.66228	37.66
2.67895	37.66
2.69562	37.65
2.71228	37.65
2.72895	37.65
2.74562	37.66
2.76228	37.66
2.77895	37.65
2.79562	37.65
2.81228	37.65
2.82895	37.65
2.84562	37.65
2.86228	37.66
2.87895	37.65
2.89562	37.65
2.91228	37.65
2.92895	37.65
2.94562	37.65
2.96228	37.65
2.97895	37.65
2.99562	37.64
3.01228	37.64
3.02895	37.64
3.04562	37.64
3.06228	37.64
3.07895	37.64
3.09562	37.64
3.11228	37.64
3.12895	37.64
3.14562	37.64
3.16228	37.64
3.17895	37.64
3.19562	37.64
3.21228	37.64
3.22895	37.64
3.24562	37.64
3.26228	37.64
3.27895	37.64
3.29562	37.63
3.31228	37.63
3.32895	37.63
3.34562	37.63
3.36228	37.63
3.37895	37.64
3.39562	37.64
3.41228	37.64
3.42895	37.64
3.44562	37.64
3.46228	37.64
3.47895	37.64
3.49562	37.64
3.51228	37.64
3.52895	37.64
3.54562	37.64
3.56228	37.64
3.57895	37.64
3.59562	37.64
3.61228	37.64
3.62895	37.64
3.64562	37.64
3.66228	37.64
3.67895	37.64
3.69562	37.64
3.71228	37.64
3.72895	37.64
3.74562	37.64
3.76228	37.64
3.77895	37.63
3.79562	37.63
3.81228	37.63
3.82895	37.63
3.84562	37.64
3.86228	37.64
3.87895	37.64
3.89562	37.64
3.91228	37.64
3.92895	37.64
3.94562	37.64
3.96228	37.64
3.97895	37.64
3.99562	37.64

