[Header]
Application Name	LabSolutions
Version	5.110
Data File Name	C:\Users\User\Desktop\GC Analyses\Jack\Nachusa Grasslands Sampling\T1 Timepoint July 12th\T1_07122022_070.gcd
Output Date	3/14/2023
Output Time	3:41:01 PM

[File Information]
Type	Data File
Generated	3/8/2023 9:02:46 PM
Generated by	System Administrator
Modified	3/8/2023 9:09:22 PM
Modified by	System Administrator

[Sample Information]
Operator Name	System Administrator
Acquired	3/8/2023 9:05:21 PM
Sample Type	0:Unknown
Level	0
Sample Name	070
Sample ID	070
ISTD Amount1	1
ISTD Amount2	1
ISTD Amount3	1
ISTD Amount4	1
ISTD Amount5	1
ISTD Amount6	1
ISTD Amount7	1
ISTD Amount8	1
ISTD Amount9	1
ISTD Amount10	1
ISTD Amount11	1
ISTD Amount12	1
ISTD Amount13	1
ISTD Amount14	1
ISTD Amount15	1
ISTD Amount16	1
ISTD Amount17	1
ISTD Amount18	1
ISTD Amount19	1
ISTD Amount20	1
ISTD Amount21	1
ISTD Amount22	1
ISTD Amount23	1
ISTD Amount24	1
ISTD Amount25	1
ISTD Amount26	1
ISTD Amount27	1
ISTD Amount28	1
ISTD Amount29	1
ISTD Amount30	1
ISTD Amount31	1
ISTD Amount32	1
Sample Amount	1
Dilution Factor	1
Vial#	69
Injection Volume	1
Injection Count	1
Bar Code	

[Original Files]
Data File	C:\Users\User\Desktop\GC Analyses\Jack\Nachusa Grasslands Sampling\T1 Timepoint July 12th\T1_07122022_070.gcd
Method File	C:\LabSolutions\Data\GHG_4min_2022\ghg3_togas_w_acet_4 min_new_int.gcm
Batch File	C:\LabSolutions\Data\AutoSamplerTesting\T1_07122022.gcb
Report Format File	c:\LabSolutions\System\DEFAULT.lsr

[File Description]


[Configuration]
Instrument Name	C0B7VH3-Instrument1
Instrument #	1
Line #	1
# of Detectors	3
Detector ID	DET#1	DET#2	DET#3
Detector Name	FID	PTCD	ECD
# of Channels	1	1	1

[Peak Table(Ch1)]
# of Peaks	3
Peak#	R.Time	I.Time	F.Time	Area	Height	A/H	Conc.	Mark	ID#	Name	k'	Plate #	Plate Ht.	Tailing	Resolution	Sep.Factor	Area Ratio	Height Ratio	Conc. %	Norm Conc.
1	1.476	1.439	1.538	27007	12741	2.120	190.671	   	1	CO	0.000	9064	16.549	1.309	0.000	0.000	0	0	25.979	25.979
2	1.567	1.538	1.626	4805	2353	2.042	92.907	 V 	2	CH4	0.062	10621	14.123	0.000	1.493	0.000	0	0	12.658	12.658
3	1.996	1.945	2.565	1794507	847465	2.118	450.373	   	3	CO2	0.353	17287	8.677	1.310	7.058	5.680	0	0	61.363	61.363

[Peak Table(Ch2)]
# of Peaks	0

[Peak Table(Ch3)]
# of Peaks	5
Peak#	R.Time	I.Time	F.Time	Area	Height	A/H	Conc.	Mark	ID#	Name	k'	Plate #	Plate Ht.	Tailing	Resolution	Sep.Factor	Area Ratio	Height Ratio	Conc. %	Norm Conc.
1	2.458	1.883	2.513	5187	650	7.982	0.000	   			0.000	7240	20.718	0.000	0.000	0.000	0	0	0.000	0.000
2	2.539	2.513	2.634	1561	330	4.725	0.000	 V 			0.033	2246	66.776	0.000	0.489	0.000	0	0	0.000	0.000
3	2.675	2.634	2.726	612	137	4.449	0.000	 V 			0.088	2247	66.757	0.000	0.617	2.682	0	0	0.000	0.000
4	2.873	2.726	3.115	21701	5072	4.279	0.554	 V 	1	N2O	0.169	12728	11.785	1.809	1.209	1.915	0	0	100.000	100.000
5	3.210	3.118	3.995	17080	581	29.403	0.000	   	2	SF6	0.306	291	515.061	4.803	0.790	1.814	0	0	0.000	0.000

[Compound Results(Ch1)]
# of IDs	6
ID#	Name	R.Time	Area	Height	Conc.	Curve	3rd	2nd	1st	Constant	Area Ratio	Height Ratio	Conc. %	Norm Conc.
1	CO	1.476	27007	12741	190.671	Linear	0.000000e+00	0.000000e+00	1.416423e+002	0.000000e+00	0	0	25.979	25.979
2	CH4	1.567	4805	2353	92.907	Linear	0.000000e+00	0.000000e+00	5.171738e+001	0.000000e+00	0	0	12.658	12.658
3	CO2	1.996	1794507	847465	450.373	Linear	0.000000e+00	0.000000e+00	3.984494e+003	0.000000e+00	0	0	61.363	61.363
4	Ethylene	0.000	0	0	0.000	Linear	0.000000e+00	0.000000e+00	0.000000e+00	0.000000e+00	0	0	0.000	0.000
5	Acetylene	0.000	0	0	0.000	Linear	0.000000e+00	0.000000e+00	0.000000e+00	0.000000e+00	0	0	0.000	0.000
6	Ethane	0.000	0	0	0.000	Linear	0.000000e+00	0.000000e+00	0.000000e+00	0.000000e+00	0	0	0.000	0.000

[Compound Results(Ch2)]
# of IDs	5
ID#	Name	R.Time	Area	Height	Conc.	Curve	3rd	2nd	1st	Constant	Area Ratio	Height Ratio	Conc. %	Norm Conc.
1	Hydrogen	0.000	0	0	0.000	Linear	0.000000e+00	0.000000e+00	0.000000e+00	0.000000e+00	0	0	0.000	0.000
2	Oxygen	0.000	0	0	0.000	Linear	0.000000e+00	0.000000e+00	0.000000e+00	0.000000e+00	0	0	0.000	0.000
3	Nitrogen	0.000	0	0	0.000	Linear	0.000000e+00	0.000000e+00	0.000000e+00	0.000000e+00	0	0	0.000	0.000
4	Methane	0.000	0	0	0.000	Linear	0.000000e+00	0.000000e+00	0.000000e+00	0.000000e+00	0	0	0.000	0.000
5	Carbon Monoxide	0.000	0	0	0.000	Linear	0.000000e+00	0.000000e+00	0.000000e+00	0.000000e+00	0	0	0.000	0.000

[Compound Results(Ch3)]
# of IDs	2
ID#	Name	R.Time	Area	Height	Conc.	Curve	3rd	2nd	1st	Constant	Area Ratio	Height Ratio	Conc. %	Norm Conc.
1	N2O	2.873	21701	5072	0.554	Linear	0.000000e+00	0.000000e+00	3.915173e+004	0.000000e+00	0	0	100.000	100.000
2	SF6	3.210	17080	581	0.000	Linear	0.000000e+00	0.000000e+00	0.000000e+00	0.000000e+00	0	0	0.000	0.000

[Group Results(Ch1)]
# of Groups	0

[Group Results(Ch2)]
# of Groups	0

[Group Results(Ch3)]
# of Groups	0

[Chromatogram (Ch1)]
Interval(msec)	220
# of Points	1091
Start Time(min)	0.002
End Time(min)	3.998
R.Time (min)	Intensity
0.00167	-11
0.00533	-4
0.00900	6
0.01267	15
0.01633	21
0.02000	17
0.02367	6
0.02733	-5
0.03100	-15
0.03467	-18
0.03833	-21
0.04200	-24
0.04567	-20
0.04933	-9
0.05300	5
0.05667	17
0.06033	23
0.06400	22
0.06767	18
0.07133	15
0.07500	19
0.07867	29
0.08233	35
0.08600	32
0.08967	26
0.09333	26
0.09700	27
0.10067	30
0.10433	37
0.10800	46
0.11167	53
0.11533	53
0.11900	48
0.12267	39
0.12633	28
0.13000	20
0.13367	14
0.13733	12
0.14100	14
0.14467	16
0.14833	14
0.15200	13
0.15567	14
0.15933	16
0.16300	19
0.16667	22
0.17033	21
0.17400	19
0.17767	19
0.18133	19
0.18500	22
0.18867	28
0.19233	35
0.19600	38
0.19967	33
0.20333	27
0.20700	20
0.21067	10
0.21433	3
0.21800	2
0.22167	6
0.22533	13
0.22900	17
0.23267	20
0.23633	23
0.24000	26
0.24367	24
0.24733	23
0.25100	25
0.25467	26
0.25833	23
0.26200	24
0.26567	26
0.26933	31
0.27300	35
0.27667	35
0.28033	32
0.28400	31
0.28767	32
0.29133	38
0.29500	45
0.29867	48
0.30233	47
0.30600	45
0.30967	45
0.31333	48
0.31700	55
0.32067	63
0.32433	72
0.32800	76
0.33167	78
0.33533	82
0.33900	88
0.34267	93
0.34633	95
0.35000	95
0.35367	90
0.35733	87
0.36100	88
0.36467	87
0.36833	85
0.37200	85
0.37567	83
0.37933	82
0.38300	82
0.38667	82
0.39033	84
0.39400	85
0.39767	81
0.40133	73
0.40500	66
0.40867	60
0.41233	57
0.41600	55
0.41967	54
0.42333	53
0.42700	51
0.43067	48
0.43433	46
0.43800	42
0.44167	38
0.44533	36
0.44900	38
0.45267	44
0.45633	45
0.46000	43
0.46367	41
0.46733	39
0.47100	38
0.47467	35
0.47833	32
0.48200	27
0.48567	23
0.48933	22
0.49300	21
0.49667	20
0.50033	16
0.50400	9
0.50767	5
0.51133	-0
0.51500	-8
0.51867	-5
0.52233	-0
0.52600	1
0.52967	-1
0.53333	-1
0.53700	-2
0.54067	-5
0.54433	-5
0.54800	-1
0.55167	2
0.55533	1
0.55900	-1
0.56267	-3
0.56633	-5
0.57000	-4
0.57367	0
0.57733	7
0.58100	7
0.58467	5
0.58833	7
0.59200	13
0.59567	18
0.59933	20
0.60300	21
0.60667	27
0.61033	35
0.61400	43
0.61767	46
0.62133	44
0.62500	39
0.62867	30
0.63233	21
0.63600	17
0.63967	10
0.64333	-1
0.64700	-5
0.65067	-3
0.65433	4
0.65800	12
0.66167	15
0.66533	8
0.66900	1
0.67267	-2
0.67633	-0
0.68000	5
0.68367	11
0.68733	14
0.69100	10
0.69467	-1
0.69833	-11
0.70200	-13
0.70567	-13
0.70933	-18
0.71300	-20
0.71667	-19
0.72033	-16
0.72400	-12
0.72767	-4
0.73133	4
0.73500	8
0.73867	12
0.74233	14
0.74600	15
0.74967	12
0.75333	5
0.75700	-1
0.76067	-4
0.76433	-4
0.76800	-4
0.77167	-3
0.77533	1
0.77900	3
0.78267	6
0.78633	6
0.79000	4
0.79367	2
0.79733	-1
0.80100	2
0.80467	6
0.80833	14
0.81200	18
0.81567	15
0.81933	6
0.82300	-1
0.82667	-2
0.83033	3
0.83400	9
0.83767	12
0.84133	11
0.84500	9
0.84867	5
0.85233	5
0.85600	2
0.85967	-4
0.86333	-9
0.86700	-7
0.87067	1
0.87433	9
0.87800	15
0.88167	24
0.88533	37
0.88900	47
0.89267	49
0.89633	48
0.90000	46
0.90367	43
0.90733	40
0.91100	41
0.91467	44
0.91833	45
0.92200	41
0.92567	36
0.92933	30
0.93300	22
0.93667	16
0.94033	14
0.94400	10
0.94767	8
0.95133	9
0.95500	14
0.95867	24
0.96233	36
0.96600	44
0.96967	47
0.97333	43
0.97700	36
0.98067	33
0.98433	35
0.98800	33
0.99167	34
0.99533	35
0.99900	34
1.00267	29
1.00633	26
1.01000	28
1.01367	27
1.01733	22
1.02100	18
1.02467	18
1.02833	17
1.03200	16
1.03567	17
1.03933	17
1.04300	15
1.04667	16
1.05033	22
1.05400	31
1.05767	40
1.06133	42
1.06500	36
1.06867	30
1.07233	28
1.07600	30
1.07967	34
1.08333	32
1.08700	25
1.09067	16
1.09433	10
1.09800	5
1.10167	3
1.10533	1
1.10900	-4
1.11267	-9
1.11633	-11
1.12000	-6
1.12367	7
1.12733	19
1.13100	26
1.13467	28
1.13833	31
1.14200	32
1.14567	30
1.14933	28
1.15300	25
1.15667	22
1.16033	19
1.16400	15
1.16767	12
1.17133	14
1.17500	17
1.17867	19
1.18233	17
1.18600	10
1.18967	3
1.19333	-2
1.19700	-1
1.20067	2
1.20433	6
1.20800	9
1.21167	11
1.21533	13
1.21900	13
1.22267	15
1.22633	18
1.23000	21
1.23367	21
1.23733	19
1.24100	13
1.24467	7
1.24833	8
1.25200	12
1.25567	14
1.25933	15
1.26300	13
1.26667	13
1.27033	20
1.27400	34
1.27767	43
1.28133	41
1.28500	27
1.28867	13
1.29233	1
1.29600	-6
1.29967	-12
1.30333	-18
1.30700	-22
1.31067	-23
1.31433	-20
1.31800	-15
1.32167	-14
1.32533	-10
1.32900	-5
1.33267	1
1.33633	4
1.34000	3
1.34367	2
1.34733	1
1.35100	0
1.35467	-0
1.35833	-3
1.36200	-7
1.36567	-15
1.36933	-26
1.37300	-34
1.37667	-41
1.38033	-45
1.38400	-40
1.38767	-30
1.39133	-20
1.39500	-16
1.39867	-18
1.40233	-18
1.40600	-16
1.40967	-14
1.41333	-14
1.41700	-16
1.42067	-18
1.42433	-16
1.42800	-9
1.43167	-6
1.43533	-2
1.43900	18
1.44267	110
1.44633	342
1.45000	878
1.45367	2088
1.45733	4104
1.46100	6549
1.46467	8896
1.46833	10810
1.47200	12138
1.47567	12762
1.47933	12575
1.48300	11570
1.48667	9936
1.49033	8019
1.49400	6161
1.49767	4571
1.50133	3323
1.50500	2392
1.50867	1717
1.51233	1234
1.51600	896
1.51967	661
1.52333	500
1.52700	392
1.53067	320
1.53433	271
1.53800	250
1.54167	294
1.54533	463
1.54900	780
1.55267	1197
1.55633	1623
1.56000	1985
1.56367	2246
1.56733	2382
1.57100	2360
1.57467	2171
1.57833	1848
1.58200	1465
1.58567	1096
1.58933	788
1.59300	552
1.59667	378
1.60033	253
1.60400	170
1.60767	115
1.61133	82
1.61500	63
1.61867	50
1.62233	40
1.62600	33
1.62967	32
1.63333	32
1.63700	33
1.64067	33
1.64433	35
1.64800	37
1.65167	36
1.65533	30
1.65900	21
1.66267	12
1.66633	4
1.67000	0
1.67367	0
1.67733	2
1.68100	4
1.68467	2
1.68833	-5
1.69200	-8
1.69567	-7
1.69933	-6
1.70300	-8
1.70667	-13
1.71033	-14
1.71400	-14
1.71767	-18
1.72133	-22
1.72500	-21
1.72867	-15
1.73233	-5
1.73600	5
1.73967	11
1.74333	9
1.74700	-2
1.75067	-13
1.75433	-21
1.75800	-29
1.76167	-36
1.76533	-40
1.76900	-40
1.77267	-38
1.77633	-40
1.78000	-43
1.78367	-48
1.78733	-51
1.79100	-49
1.79467	-45
1.79833	-42
1.80200	-36
1.80567	-31
1.80933	-27
1.81300	-24
1.81667	-26
1.82033	-34
1.82400	-38
1.82767	-38
1.83133	-39
1.83500	-42
1.83867	-46
1.84233	-44
1.84600	-43
1.84967	-48
1.85333	-50
1.85700	-48
1.86067	-44
1.86433	-40
1.86800	-34
1.87167	-30
1.87533	-28
1.87900	-29
1.88267	-31
1.88633	-30
1.89000	-28
1.89367	-25
1.89733	-23
1.90100	-20
1.90467	-16
1.90833	-15
1.91200	-18
1.91567	-18
1.91933	-19
1.92300	-26
1.92667	-34
1.93033	-40
1.93400	-42
1.93767	-40
1.94133	-38
1.94500	-31
1.94867	-17
1.95233	11
1.95600	150
1.95967	940
1.96333	4562
1.96700	17247
1.97067	51280
1.97433	122163
1.97800	237805
1.98167	388569
1.98533	549798
1.98900	693733
1.99267	797887
1.99633	847466
2.00000	836768
2.00367	770727
2.00733	664531
2.01100	539425
2.01467	415703
2.01833	307376
2.02200	220605
2.02567	155436
2.02933	108659
2.03300	76098
2.03667	53866
2.04033	38830
2.04400	28682
2.04767	21798
2.05133	17074
2.05500	13774
2.05867	11427
2.06233	9717
2.06600	8436
2.06967	7447
2.07333	6664
2.07700	6032
2.08067	5512
2.08433	5077
2.08800	4710
2.09167	4395
2.09533	4124
2.09900	3882
2.10267	3663
2.10633	3468
2.11000	3296
2.11367	3142
2.11733	2997
2.12100	2862
2.12467	2733
2.12833	2608
2.13200	2493
2.13567	2388
2.13933	2292
2.14300	2200
2.14667	2118
2.15033	2044
2.15400	1975
2.15767	1908
2.16133	1847
2.16500	1789
2.16867	1734
2.17233	1683
2.17600	1638
2.17967	1598
2.18333	1558
2.18700	1520
2.19067	1480
2.19433	1438
2.19800	1397
2.20167	1359
2.20533	1324
2.20900	1289
2.21267	1258
2.21633	1230
2.22000	1204
2.22367	1179
2.22733	1151
2.23100	1123
2.23467	1096
2.23833	1072
2.24200	1049
2.24567	1025
2.24933	998
2.25300	973
2.25667	953
2.26033	938
2.26400	926
2.26767	916
2.27133	904
2.27500	890
2.27867	873
2.28233	855
2.28600	834
2.28967	814
2.29333	800
2.29700	792
2.30067	785
2.30433	778
2.30800	769
2.31167	758
2.31533	744
2.31900	730
2.32267	715
2.32633	700
2.33000	683
2.33367	666
2.33733	657
2.34100	652
2.34467	648
2.34833	645
2.35200	643
2.35567	638
2.35933	630
2.36300	623
2.36667	616
2.37033	608
2.37400	597
2.37767	586
2.38133	578
2.38500	571
2.38867	562
2.39233	549
2.39600	537
2.39967	527
2.40333	521
2.40700	518
2.41067	515
2.41433	515
2.41800	516
2.42167	518
2.42533	517
2.42900	514
2.43267	509
2.43633	504
2.44000	503
2.44367	503
2.44733	503
2.45100	501
2.45467	492
2.45833	478
2.46200	464
2.46567	456
2.46933	452
2.47300	451
2.47667	447
2.48033	444
2.48400	442
2.48767	442
2.49133	441
2.49500	436
2.49867	431
2.50233	426
2.50600	420
2.50967	416
2.51333	418
2.51700	421
2.52067	419
2.52433	413
2.52800	408
2.53167	406
2.53533	402
2.53900	397
2.54267	394
2.54633	395
2.55000	396
2.55367	391
2.55733	384
2.56100	372
2.56467	356
2.56833	348
2.57200	347
2.57567	348
2.57933	350
2.58300	358
2.58667	364
2.59033	366
2.59400	363
2.59767	362
2.60133	364
2.60500	367
2.60867	368
2.61233	365
2.61600	361
2.61967	362
2.62333	361
2.62700	357
2.63067	353
2.63433	348
2.63800	342
2.64167	335
2.64533	329
2.64900	329
2.65267	332
2.65633	334
2.66000	332
2.66367	332
2.66733	333
2.67100	337
2.67467	339
2.67833	337
2.68200	332
2.68567	329
2.68933	325
2.69300	318
2.69667	313
2.70033	306
2.70400	301
2.70767	301
2.71133	305
2.71500	311
2.71867	317
2.72233	322
2.72600	322
2.72967	317
2.73333	314
2.73700	312
2.74067	307
2.74433	301
2.74800	297
2.75167	293
2.75533	292
2.75900	294
2.76267	300
2.76633	306
2.77000	310
2.77367	309
2.77733	310
2.78100	310
2.78467	310
2.78833	310
2.79200	311
2.79567	312
2.79933	314
2.80300	320
2.80667	325
2.81033	325
2.81400	321
2.81767	316
2.82133	305
2.82500	291
2.82867	280
2.83233	278
2.83600	279
2.83967	281
2.84333	280
2.84700	277
2.85067	275
2.85433	276
2.85800	278
2.86167	280
2.86533	284
2.86900	287
2.87267	287
2.87633	284
2.88000	280
2.88367	274
2.88733	272
2.89100	270
2.89467	273
2.89833	277
2.90200	279
2.90567	279
2.90933	285
2.91300	290
2.91667	294
2.92033	293
2.92400	291
2.92767	287
2.93133	283
2.93500	284
2.93867	291
2.94233	298
2.94600	301
2.94967	302
2.95333	300
2.95700	296
2.96067	295
2.96433	298
2.96800	298
2.97167	292
2.97533	285
2.97900	279
2.98267	273
2.98633	269
2.99000	269
2.99367	275
2.99733	281
3.00100	282
3.00467	279
3.00833	275
3.01200	272
3.01567	270
3.01933	269
3.02300	270
3.02667	274
3.03033	282
3.03400	285
3.03767	282
3.04133	279
3.04500	277
3.04867	274
3.05233	273
3.05600	272
3.05967	265
3.06333	257
3.06700	252
3.07067	254
3.07433	259
3.07800	260
3.08167	258
3.08533	252
3.08900	250
3.09267	254
3.09633	263
3.10000	275
3.10367	284
3.10733	283
3.11100	273
3.11467	261
3.11833	251
3.12200	247
3.12567	247
3.12933	248
3.13300	251
3.13667	254
3.14033	256
3.14400	257
3.14767	257
3.15133	254
3.15500	254
3.15867	264
3.16233	275
3.16600	277
3.16967	267
3.17333	252
3.17700	240
3.18067	232
3.18433	230
3.18800	231
3.19167	234
3.19533	237
3.19900	239
3.20267	242
3.20633	244
3.21000	246
3.21367	244
3.21733	245
3.22100	246
3.22467	246
3.22833	247
3.23200	252
3.23567	258
3.23933	262
3.24300	264
3.24667	263
3.25033	258
3.25400	252
3.25767	246
3.26133	238
3.26500	232
3.26867	226
3.27233	221
3.27600	222
3.27967	223
3.28333	224
3.28700	225
3.29067	228
3.29433	232
3.29800	236
3.30167	241
3.30533	246
3.30900	250
3.31267	253
3.31633	255
3.32000	250
3.32367	242
3.32733	236
3.33100	233
3.33467	230
3.33833	227
3.34200	224
3.34567	223
3.34933	224
3.35300	229
3.35667	235
3.36033	239
3.36400	237
3.36767	233
3.37133	231
3.37500	229
3.37867	228
3.38233	228
3.38600	227
3.38967	224
3.39333	218
3.39700	210
3.40067	205
3.40433	207
3.40800	213
3.41167	219
3.41533	224
3.41900	229
3.42267	235
3.42633	241
3.43000	245
3.43367	243
3.43733	237
3.44100	229
3.44467	223
3.44833	217
3.45200	204
3.45567	191
3.45933	180
3.46300	174
3.46667	175
3.47033	179
3.47400	182
3.47767	186
3.48133	189
3.48500	195
3.48867	202
3.49233	204
3.49600	200
3.49967	195
3.50333	192
3.50700	190
3.51067	191
3.51433	197
3.51800	205
3.52167	207
3.52533	202
3.52900	195
3.53267	191
3.53633	193
3.54000	198
3.54367	201
3.54733	203
3.55100	206
3.55467	207
3.55833	210
3.56200	217
3.56567	222
3.56933	221
3.57300	218
3.57667	212
3.58033	206
3.58400	206
3.58767	203
3.59133	195
3.59500	184
3.59867	173
3.60233	166
3.60600	161
3.60967	161
3.61333	161
3.61700	158
3.62067	156
3.62433	160
3.62800	168
3.63167	177
3.63533	181
3.63900	183
3.64267	187
3.64633	189
3.65000	190
3.65367	194
3.65733	201
3.66100	202
3.66467	191
3.66833	179
3.67200	169
3.67567	164
3.67933	163
3.68300	167
3.68667	170
3.69033	176
3.69400	185
3.69767	188
3.70133	190
3.70500	194
3.70867	197
3.71233	195
3.71600	186
3.71967	177
3.72333	170
3.72700	167
3.73067	166
3.73433	168
3.73800	172
3.74167	176
3.74533	175
3.74900	175
3.75267	178
3.75633	181
3.76000	183
3.76367	183
3.76733	184
3.77100	188
3.77467	190
3.77833	186
3.78200	175
3.78567	161
3.78933	149
3.79300	138
3.79667	132
3.80033	131
3.80400	133
3.80767	136
3.81133	141
3.81500	148
3.81867	157
3.82233	167
3.82600	171
3.82967	171
3.83333	169
3.83700	163
3.84067	155
3.84433	150
3.84800	150
3.85167	153
3.85533	155
3.85900	159
3.86267	161
3.86633	160
3.87000	157
3.87367	153
3.87733	144
3.88100	136
3.88467	133
3.88833	135
3.89200	139
3.89567	143
3.89933	144
3.90300	144
3.90667	143
3.91033	144
3.91400	150
3.91767	159
3.92133	162
3.92500	157
3.92867	148
3.93233	139
3.93600	133
3.93967	130
3.94333	131
3.94700	137
3.95067	138
3.95433	133
3.95800	127
3.96167	123
3.96533	123
3.96900	125
3.97267	132
3.97633	143
3.98000	152
3.98367	155
3.98733	153
3.99100	149
3.99467	140
3.99833	133

[Chromatogram (Ch2)]
Interval(msec)	220
# of Points	1091
Start Time(min)	0.002
End Time(min)	3.998
R.Time (min)	Intensity
0.00167	-1
0.00533	-1
0.00900	-1
0.01267	-1
0.01633	-1
0.02000	-1
0.02367	-1
0.02733	-2
0.03100	-2
0.03467	-2
0.03833	-2
0.04200	-2
0.04567	-2
0.04933	-3
0.05300	-3
0.05667	-3
0.06033	-3
0.06400	-3
0.06767	-4
0.07133	-4
0.07500	-4
0.07867	-3
0.08233	-3
0.08600	-3
0.08967	-2
0.09333	-2
0.09700	-1
0.10067	-1
0.10433	-0
0.10800	0
0.11167	0
0.11533	0
0.11900	0
0.12267	-0
0.12633	-0
0.13000	-0
0.13367	-0
0.13733	0
0.14100	0
0.14467	0
0.14833	0
0.15200	0
0.15567	1
0.15933	1
0.16300	1
0.16667	1
0.17033	1
0.17400	2
0.17767	2
0.18133	2
0.18500	2
0.18867	2
0.19233	2
0.19600	2
0.19967	1
0.20333	1
0.20700	1
0.21067	1
0.21433	0
0.21800	-0
0.22167	-0
0.22533	-0
0.22900	-1
0.23267	-1
0.23633	-0
0.24000	-0
0.24367	-0
0.24733	-0
0.25100	-0
0.25467	-0
0.25833	0
0.26200	0
0.26567	1
0.26933	1
0.27300	1
0.27667	1
0.28033	2
0.28400	2
0.28767	2
0.29133	2
0.29500	2
0.29867	2
0.30233	2
0.30600	1
0.30967	1
0.31333	1
0.31700	1
0.32067	1
0.32433	1
0.32800	1
0.33167	0
0.33533	-0
0.33900	-0
0.34267	-0
0.34633	-1
0.35000	-0
0.35367	-0
0.35733	-0
0.36100	-0
0.36467	-0
0.36833	-0
0.37200	-0
0.37567	-0
0.37933	0
0.38300	1
0.38667	1
0.39033	1
0.39400	1
0.39767	1
0.40133	1
0.40500	1
0.40867	0
0.41233	-0
0.41600	-1
0.41967	-1
0.42333	-2
0.42700	-2
0.43067	-2
0.43433	-2
0.43800	-2
0.44167	-2
0.44533	-2
0.44900	-2
0.45267	-2
0.45633	-1
0.46000	-1
0.46367	-0
0.46733	-0
0.47100	0
0.47467	1
0.47833	1
0.48200	1
0.48567	1
0.48933	1
0.49300	1
0.49667	1
0.50033	1
0.50400	1
0.50767	0
0.51133	-0
0.51500	-1
0.51867	-1
0.52233	-1
0.52600	-1
0.52967	-1
0.53333	-1
0.53700	-1
0.54067	-1
0.54433	-1
0.54800	-1
0.55167	-2
0.55533	-2
0.55900	-2
0.56267	-2
0.56633	-3
0.57000	-3
0.57367	-3
0.57733	-3
0.58100	-3
0.58467	-3
0.58833	-2
0.59200	-2
0.59567	-2
0.59933	-2
0.60300	-3
0.60667	-3
0.61033	-3
0.61400	-3
0.61767	-2
0.62133	-2
0.62500	-2
0.62867	-2
0.63233	-2
0.63600	-2
0.63967	-2
0.64333	-2
0.64700	-2
0.65067	-2
0.65433	-2
0.65800	-2
0.66167	-2
0.66533	-2
0.66900	-1
0.67267	-1
0.67633	-1
0.68000	-1
0.68367	-1
0.68733	-1
0.69100	-1
0.69467	-1
0.69833	-1
0.70200	-2
0.70567	-2
0.70933	-2
0.71300	-2
0.71667	-2
0.72033	-2
0.72400	-2
0.72767	-2
0.73133	-2
0.73500	-2
0.73867	-2
0.74233	-2
0.74600	-1
0.74967	-1
0.75333	-1
0.75700	-1
0.76067	-1
0.76433	-0
0.76800	-0
0.77167	-0
0.77533	-0
0.77900	-0
0.78267	-1
0.78633	-1
0.79000	-0
0.79367	-0
0.79733	0
0.80100	0
0.80467	0
0.80833	0
0.81200	0
0.81567	0
0.81933	-0
0.82300	-0
0.82667	-0
0.83033	-0
0.83400	0
0.83767	0
0.84133	1
0.84500	1
0.84867	1
0.85233	1
0.85600	0
0.85967	1
0.86333	1
0.86700	1
0.87067	0
0.87433	0
0.87800	-0
0.88167	-1
0.88533	-1
0.88900	-1
0.89267	-1
0.89633	-1
0.90000	-1
0.90367	-1
0.90733	-2
0.91100	-2
0.91467	-2
0.91833	-3
0.92200	-3
0.92567	-3
0.92933	-3
0.93300	-4
0.93667	-4
0.94033	-4
0.94400	-5
0.94767	-5
0.95133	-5
0.95500	-4
0.95867	-4
0.96233	-4
0.96600	-5
0.96967	-5
0.97333	-5
0.97700	-5
0.98067	-5
0.98433	-6
0.98800	-6
0.99167	-6
0.99533	-6
0.99900	-6
1.00267	-6
1.00633	-6
1.01000	-5
1.01367	-5
1.01733	-5
1.02100	-4
1.02467	-4
1.02833	-3
1.03200	-3
1.03567	-2
1.03933	-2
1.04300	-2
1.04667	-2
1.05033	-2
1.05400	-2
1.05767	-2
1.06133	-2
1.06500	-3
1.06867	-3
1.07233	-3
1.07600	-3
1.07967	-3
1.08333	-3
1.08700	-2
1.09067	-2
1.09433	-1
1.09800	-1
1.10167	-0
1.10533	0
1.10900	0
1.11267	0
1.11633	1
1.12000	1
1.12367	1
1.12733	1
1.13100	1
1.13467	1
1.13833	0
1.14200	0
1.14567	-1
1.14933	-1
1.15300	-2
1.15667	-2
1.16033	-3
1.16400	-3
1.16767	-3
1.17133	-3
1.17500	-3
1.17867	-3
1.18233	-3
1.18600	-3
1.18967	-3
1.19333	-3
1.19700	-2
1.20067	-2
1.20433	-1
1.20800	-0
1.21167	0
1.21533	1
1.21900	1
1.22267	1
1.22633	1
1.23000	1
1.23367	1
1.23733	1
1.24100	0
1.24467	1
1.24833	1
1.25200	1
1.25567	1
1.25933	1
1.26300	2
1.26667	2
1.27033	2
1.27400	1
1.27767	1
1.28133	1
1.28500	0
1.28867	-0
1.29233	-1
1.29600	-1
1.29967	-1
1.30333	-2
1.30700	-2
1.31067	-2
1.31433	-2
1.31800	-2
1.32167	-2
1.32533	-2
1.32900	-2
1.33267	-2
1.33633	-2
1.34000	-3
1.34367	-3
1.34733	-3
1.35100	-3
1.35467	-4
1.35833	-5
1.36200	-5
1.36567	-5
1.36933	-6
1.37300	-6
1.37667	-6
1.38033	-6
1.38400	-5
1.38767	-5
1.39133	-5
1.39500	-4
1.39867	-4
1.40233	-3
1.40600	-3
1.40967	-2
1.41333	-2
1.41700	-1
1.42067	-1
1.42433	-1
1.42800	-0
1.43167	-0
1.43533	-0
1.43900	-0
1.44267	-1
1.44633	-1
1.45000	-1
1.45367	-2
1.45733	-2
1.46100	-3
1.46467	-3
1.46833	-3
1.47200	-4
1.47567	-4
1.47933	-4
1.48300	-3
1.48667	-3
1.49033	-3
1.49400	-2
1.49767	-2
1.50133	-1
1.50500	-1
1.50867	-1
1.51233	-1
1.51600	-1
1.51967	-1
1.52333	-2
1.52700	-2
1.53067	-3
1.53433	-3
1.53800	-4
1.54167	-4
1.54533	-5
1.54900	-5
1.55267	-5
1.55633	-5
1.56000	-5
1.56367	-5
1.56733	-5
1.57100	-5
1.57467	-5
1.57833	-5
1.58200	-4
1.58567	-4
1.58933	-4
1.59300	-4
1.59667	-5
1.60033	-5
1.60400	-5
1.60767	-6
1.61133	-7
1.61500	-9
1.61867	-11
1.62233	-14
1.62600	-17
1.62967	-20
1.63333	-24
1.63700	-27
1.64067	-30
1.64433	-34
1.64800	-37
1.65167	-41
1.65533	-45
1.65900	-49
1.66267	-53
1.66633	-57
1.67000	-62
1.67367	-67
1.67733	-72
1.68100	-77
1.68467	-82
1.68833	-86
1.69200	-91
1.69567	-95
1.69933	-98
1.70300	-101
1.70667	-103
1.71033	-105
1.71400	-107
1.71767	-108
1.72133	-109
1.72500	-109
1.72867	-109
1.73233	-109
1.73600	-109
1.73967	-109
1.74333	-109
1.74700	-109
1.75067	-109
1.75433	-110
1.75800	-112
1.76167	-113
1.76533	-114
1.76900	-115
1.77267	-116
1.77633	-116
1.78000	-117
1.78367	-116
1.78733	-116
1.79100	-115
1.79467	-114
1.79833	-113
1.80200	-113
1.80567	-113
1.80933	-113
1.81300	-113
1.81667	-114
1.82033	-114
1.82400	-115
1.82767	-116
1.83133	-116
1.83500	-117
1.83867	-117
1.84233	-118
1.84600	-118
1.84967	-119
1.85333	-119
1.85700	-120
1.86067	-120
1.86433	-120
1.86800	-120
1.87167	-119
1.87533	-119
1.87900	-119
1.88267	-118
1.88633	-117
1.89000	-116
1.89367	-115
1.89733	-115
1.90100	-115
1.90467	-115
1.90833	-115
1.91200	-115
1.91567	-115
1.91933	-114
1.92300	-114
1.92667	-114
1.93033	-113
1.93400	-113
1.93767	-113
1.94133	-112
1.94500	-112
1.94867	-112
1.95233	-112
1.95600	-113
1.95967	-113
1.96333	-113
1.96700	-113
1.97067	-113
1.97433	-113
1.97800	-112
1.98167	-112
1.98533	-112
1.98900	-112
1.99267	-112
1.99633	-112
2.00000	-111
2.00367	-111
2.00733	-111
2.01100	-111
2.01467	-110
2.01833	-110
2.02200	-110
2.02567	-109
2.02933	-109
2.03300	-109
2.03667	-108
2.04033	-108
2.04400	-107
2.04767	-106
2.05133	-105
2.05500	-105
2.05867	-105
2.06233	-105
2.06600	-105
2.06967	-105
2.07333	-105
2.07700	-104
2.08067	-104
2.08433	-104
2.08800	-104
2.09167	-104
2.09533	-104
2.09900	-103
2.10267	-103
2.10633	-103
2.11000	-103
2.11367	-102
2.11733	-102
2.12100	-101
2.12467	-101
2.12833	-101
2.13200	-100
2.13567	-100
2.13933	-99
2.14300	-99
2.14667	-100
2.15033	-99
2.15400	-99
2.15767	-99
2.16133	-99
2.16500	-99
2.16867	-99
2.17233	-99
2.17600	-98
2.17967	-97
2.18333	-96
2.18700	-95
2.19067	-94
2.19433	-94
2.19800	-93
2.20167	-93
2.20533	-92
2.20900	-92
2.21267	-92
2.21633	-91
2.22000	-91
2.22367	-91
2.22733	-91
2.23100	-90
2.23467	-89
2.23833	-88
2.24200	-88
2.24567	-88
2.24933	-88
2.25300	-88
2.25667	-88
2.26033	-88
2.26400	-88
2.26767	-89
2.27133	-89
2.27500	-88
2.27867	-88
2.28233	-87
2.28600	-86
2.28967	-84
2.29333	-84
2.29700	-83
2.30067	-82
2.30433	-82
2.30800	-82
2.31167	-82
2.31533	-82
2.31900	-82
2.32267	-83
2.32633	-83
2.33000	-83
2.33367	-83
2.33733	-82
2.34100	-81
2.34467	-80
2.34833	-79
2.35200	-78
2.35567	-77
2.35933	-76
2.36300	-75
2.36667	-74
2.37033	-72
2.37400	-70
2.37767	-67
2.38133	-64
2.38500	-60
2.38867	-56
2.39233	-52
2.39600	-47
2.39967	-43
2.40333	-38
2.40700	-34
2.41067	-30
2.41433	-27
2.41800	-24
2.42167	-22
2.42533	-19
2.42900	-17
2.43267	-15
2.43633	-13
2.44000	-12
2.44367	-11
2.44733	-11
2.45100	-10
2.45467	-9
2.45833	-9
2.46200	-7
2.46567	-6
2.46933	-5
2.47300	-3
2.47667	-2
2.48033	-1
2.48400	0
2.48767	1
2.49133	2
2.49500	3
2.49867	5
2.50233	5
2.50600	6
2.50967	7
2.51333	7
2.51700	8
2.52067	8
2.52433	9
2.52800	10
2.53167	10
2.53533	11
2.53900	11
2.54267	12
2.54633	13
2.55000	13
2.55367	14
2.55733	14
2.56100	14
2.56467	14
2.56833	14
2.57200	13
2.57567	13
2.57933	13
2.58300	13
2.58667	13
2.59033	13
2.59400	13
2.59767	14
2.60133	14
2.60500	14
2.60867	14
2.61233	14
2.61600	15
2.61967	15
2.62333	15
2.62700	15
2.63067	16
2.63433	16
2.63800	16
2.64167	17
2.64533	17
2.64900	17
2.65267	18
2.65633	18
2.66000	19
2.66367	19
2.66733	20
2.67100	20
2.67467	20
2.67833	21
2.68200	21
2.68567	21
2.68933	21
2.69300	21
2.69667	21
2.70033	21
2.70400	21
2.70767	22
2.71133	22
2.71500	22
2.71867	23
2.72233	23
2.72600	24
2.72967	24
2.73333	25
2.73700	25
2.74067	25
2.74433	25
2.74800	25
2.75167	25
2.75533	24
2.75900	24
2.76267	23
2.76633	23
2.77000	23
2.77367	23
2.77733	23
2.78100	23
2.78467	24
2.78833	24
2.79200	24
2.79567	24
2.79933	24
2.80300	25
2.80667	25
2.81033	26
2.81400	26
2.81767	27
2.82133	27
2.82500	28
2.82867	28
2.83233	28
2.83600	27
2.83967	26
2.84333	23
2.84700	18
2.85067	11
2.85433	1
2.85800	-13
2.86167	-31
2.86533	-53
2.86900	-79
2.87267	-110
2.87633	-145
2.88000	-184
2.88367	-226
2.88733	-271
2.89100	-320
2.89467	-370
2.89833	-422
2.90200	-476
2.90567	-530
2.90933	-584
2.91300	-639
2.91667	-693
2.92033	-747
2.92400	-799
2.92767	-851
2.93133	-904
2.93500	-963
2.93867	-1022
2.94233	-1073
2.94600	-1105
2.94967	-1111
2.95333	-1091
2.95700	-1048
2.96067	-987
2.96433	-914
2.96800	-835
2.97167	-754
2.97533	-673
2.97900	-596
2.98267	-524
2.98633	-458
2.99000	-398
2.99367	-344
2.99733	-296
3.00100	-254
3.00467	-217
3.00833	-185
3.01200	-157
3.01567	-132
3.01933	-112
3.02300	-94
3.02667	-79
3.03033	-66
3.03400	-54
3.03767	-44
3.04133	-36
3.04500	-29
3.04867	-23
3.05233	-17
3.05600	-13
3.05967	-9
3.06333	-5
3.06700	-3
3.07067	-0
3.07433	2
3.07800	3
3.08167	5
3.08533	6
3.08900	7
3.09267	7
3.09633	8
3.10000	8
3.10367	9
3.10733	10
3.11100	10
3.11467	11
3.11833	12
3.12200	12
3.12567	13
3.12933	13
3.13300	14
3.13667	14
3.14033	14
3.14400	15
3.14767	15
3.15133	15
3.15500	16
3.15867	16
3.16233	17
3.16600	17
3.16967	18
3.17333	18
3.17700	19
3.18067	19
3.18433	19
3.18800	19
3.19167	20
3.19533	20
3.19900	20
3.20267	20
3.20633	20
3.21000	20
3.21367	20
3.21733	20
3.22100	20
3.22467	21
3.22833	21
3.23200	22
3.23567	22
3.23933	23
3.24300	23
3.24667	23
3.25033	24
3.25400	24
3.25767	24
3.26133	24
3.26500	24
3.26867	24
3.27233	25
3.27600	25
3.27967	25
3.28333	25
3.28700	25
3.29067	25
3.29433	25
3.29800	25
3.30167	25
3.30533	25
3.30900	26
3.31267	26
3.31633	26
3.32000	26
3.32367	27
3.32733	27
3.33100	27
3.33467	27
3.33833	27
3.34200	28
3.34567	28
3.34933	28
3.35300	28
3.35667	27
3.36033	27
3.36400	27
3.36767	27
3.37133	27
3.37500	26
3.37867	26
3.38233	26
3.38600	26
3.38967	25
3.39333	25
3.39700	25
3.40067	25
3.40433	25
3.40800	24
3.41167	24
3.41533	24
3.41900	24
3.42267	24
3.42633	24
3.43000	24
3.43367	24
3.43733	24
3.44100	24
3.44467	24
3.44833	24
3.45200	24
3.45567	24
3.45933	25
3.46300	25
3.46667	25
3.47033	25
3.47400	26
3.47767	26
3.48133	26
3.48500	26
3.48867	26
3.49233	26
3.49600	26
3.49967	26
3.50333	26
3.50700	26
3.51067	26
3.51433	26
3.51800	26
3.52167	26
3.52533	26
3.52900	26
3.53267	26
3.53633	26
3.54000	26
3.54367	26
3.54733	26
3.55100	26
3.55467	26
3.55833	26
3.56200	26
3.56567	26
3.56933	26
3.57300	25
3.57667	25
3.58033	25
3.58400	26
3.58767	26
3.59133	26
3.59500	26
3.59867	26
3.60233	26
3.60600	26
3.60967	26
3.61333	26
3.61700	26
3.62067	26
3.62433	26
3.62800	26
3.63167	26
3.63533	27
3.63900	27
3.64267	27
3.64633	27
3.65000	27
3.65367	27
3.65733	27
3.66100	27
3.66467	27
3.66833	27
3.67200	27
3.67567	27
3.67933	27
3.68300	27
3.68667	27
3.69033	27
3.69400	26
3.69767	26
3.70133	26
3.70500	26
3.70867	26
3.71233	26
3.71600	26
3.71967	26
3.72333	26
3.72700	25
3.73067	25
3.73433	25
3.73800	25
3.74167	25
3.74533	25
3.74900	25
3.75267	25
3.75633	24
3.76000	24
3.76367	24
3.76733	24
3.77100	24
3.77467	24
3.77833	24
3.78200	24
3.78567	24
3.78933	24
3.79300	24
3.79667	24
3.80033	24
3.80400	24
3.80767	24
3.81133	24
3.81500	25
3.81867	25
3.82233	25
3.82600	25
3.82967	25
3.83333	25
3.83700	26
3.84067	26
3.84433	25
3.84800	25
3.85167	25
3.85533	25
3.85900	25
3.86267	25
3.86633	25
3.87000	25
3.87367	25
3.87733	25
3.88100	26
3.88467	26
3.88833	26
3.89200	26
3.89567	26
3.89933	26
3.90300	25
3.90667	25
3.91033	25
3.91400	25
3.91767	25
3.92133	25
3.92500	25
3.92867	25
3.93233	25
3.93600	25
3.93967	25
3.94333	25
3.94700	24
3.95067	25
3.95433	25
3.95800	25
3.96167	25
3.96533	25
3.96900	26
3.97267	26
3.97633	27
3.98000	27
3.98367	27
3.98733	28
3.99100	28
3.99467	28
3.99833	28

[Chromatogram (Ch3)]
Interval(msec)	220
# of Points	1091
Start Time(min)	0.002
End Time(min)	3.998
R.Time (min)	Intensity
0.00167	0
0.00533	2
0.00900	4
0.01267	4
0.01633	5
0.02000	7
0.02367	8
0.02733	10
0.03100	10
0.03467	9
0.03833	9
0.04200	7
0.04567	8
0.04933	12
0.05300	14
0.05667	12
0.06033	9
0.06400	9
0.06767	7
0.07133	7
0.07500	7
0.07867	6
0.08233	7
0.08600	7
0.08967	8
0.09333	8
0.09700	8
0.10067	8
0.10433	9
0.10800	10
0.11167	9
0.11533	9
0.11900	9
0.12267	11
0.12633	13
0.13000	15
0.13367	16
0.13733	16
0.14100	14
0.14467	11
0.14833	10
0.15200	11
0.15567	14
0.15933	14
0.16300	14
0.16667	14
0.17033	11
0.17400	8
0.17767	6
0.18133	6
0.18500	7
0.18867	9
0.19233	11
0.19600	12
0.19967	12
0.20333	10
0.20700	9
0.21067	10
0.21433	12
0.21800	12
0.22167	12
0.22533	12
0.22900	15
0.23267	17
0.23633	18
0.24000	17
0.24367	15
0.24733	13
0.25100	11
0.25467	9
0.25833	7
0.26200	5
0.26567	4
0.26933	5
0.27300	7
0.27667	8
0.28033	8
0.28400	9
0.28767	8
0.29133	8
0.29500	7
0.29867	6
0.30233	7
0.30600	9
0.30967	10
0.31333	13
0.31700	13
0.32067	13
0.32433	10
0.32800	9
0.33167	9
0.33533	7
0.33900	5
0.34267	5
0.34633	5
0.35000	4
0.35367	4
0.35733	4
0.36100	5
0.36467	7
0.36833	8
0.37200	9
0.37567	9
0.37933	9
0.38300	10
0.38667	11
0.39033	10
0.39400	10
0.39767	8
0.40133	6
0.40500	5
0.40867	3
0.41233	3
0.41600	4
0.41967	5
0.42333	6
0.42700	7
0.43067	8
0.43433	10
0.43800	11
0.44167	12
0.44533	9
0.44900	9
0.45267	11
0.45633	10
0.46000	11
0.46367	13
0.46733	15
0.47100	14
0.47467	13
0.47833	12
0.48200	12
0.48567	13
0.48933	15
0.49300	13
0.49667	12
0.50033	9
0.50400	9
0.50767	11
0.51133	11
0.51500	9
0.51867	9
0.52233	10
0.52600	10
0.52967	12
0.53333	12
0.53700	11
0.54067	10
0.54433	8
0.54800	7
0.55167	9
0.55533	12
0.55900	13
0.56267	14
0.56633	15
0.57000	16
0.57367	16
0.57733	15
0.58100	13
0.58467	12
0.58833	12
0.59200	15
0.59567	16
0.59933	15
0.60300	14
0.60667	13
0.61033	14
0.61400	13
0.61767	14
0.62133	15
0.62500	16
0.62867	15
0.63233	15
0.63600	15
0.63967	17
0.64333	19
0.64700	18
0.65067	17
0.65433	18
0.65800	19
0.66167	19
0.66533	19
0.66900	20
0.67267	21
0.67633	21
0.68000	20
0.68367	20
0.68733	18
0.69100	15
0.69467	15
0.69833	14
0.70200	14
0.70567	16
0.70933	17
0.71300	17
0.71667	15
0.72033	13
0.72400	12
0.72767	13
0.73133	12
0.73500	12
0.73867	13
0.74233	13
0.74600	15
0.74967	17
0.75333	20
0.75700	22
0.76067	21
0.76433	18
0.76800	15
0.77167	15
0.77533	16
0.77900	18
0.78267	18
0.78633	18
0.79000	20
0.79367	21
0.79733	21
0.80100	21
0.80467	20
0.80833	17
0.81200	17
0.81567	18
0.81933	19
0.82300	19
0.82667	19
0.83033	19
0.83400	19
0.83767	21
0.84133	23
0.84500	23
0.84867	21
0.85233	21
0.85600	21
0.85967	22
0.86333	21
0.86700	20
0.87067	18
0.87433	17
0.87800	17
0.88167	17
0.88533	18
0.88900	20
0.89267	19
0.89633	20
0.90000	22
0.90367	20
0.90733	18
0.91100	17
0.91467	13
0.91833	13
0.92200	15
0.92567	17
0.92933	19
0.93300	20
0.93667	20
0.94033	21
0.94400	22
0.94767	23
0.95133	22
0.95500	20
0.95867	19
0.96233	20
0.96600	21
0.96967	22
0.97333	22
0.97700	24
0.98067	26
0.98433	26
0.98800	26
0.99167	25
0.99533	23
0.99900	23
1.00267	24
1.00633	23
1.01000	23
1.01367	23
1.01733	22
1.02100	22
1.02467	24
1.02833	23
1.03200	22
1.03567	22
1.03933	24
1.04300	25
1.04667	24
1.05033	24
1.05400	24
1.05767	25
1.06133	26
1.06500	26
1.06867	24
1.07233	25
1.07600	26
1.07967	25
1.08333	26
1.08700	26
1.09067	26
1.09433	25
1.09800	24
1.10167	22
1.10533	21
1.10900	20
1.11267	21
1.11633	21
1.12000	20
1.12367	18
1.12733	18
1.13100	20
1.13467	22
1.13833	21
1.14200	21
1.14567	22
1.14933	23
1.15300	22
1.15667	23
1.16033	24
1.16400	25
1.16767	24
1.17133	24
1.17500	23
1.17867	22
1.18233	21
1.18600	22
1.18967	23
1.19333	25
1.19700	27
1.20067	28
1.20433	27
1.20800	27
1.21167	26
1.21533	26
1.21900	26
1.22267	27
1.22633	28
1.23000	27
1.23367	27
1.23733	27
1.24100	26
1.24467	25
1.24833	23
1.25200	23
1.25567	23
1.25933	24
1.26300	26
1.26667	28
1.27033	28
1.27400	28
1.27767	26
1.28133	25
1.28500	24
1.28867	25
1.29233	24
1.29600	23
1.29967	21
1.30333	20
1.30700	19
1.31067	18
1.31433	17
1.31800	17
1.32167	19
1.32533	23
1.32900	26
1.33267	28
1.33633	29
1.34000	29
1.34367	31
1.34733	33
1.35100	34
1.35467	32
1.35833	30
1.36200	30
1.36567	29
1.36933	28
1.37300	26
1.37667	25
1.38033	26
1.38400	31
1.38767	33
1.39133	33
1.39500	33
1.39867	32
1.40233	30
1.40600	28
1.40967	26
1.41333	22
1.41700	22
1.42067	24
1.42433	26
1.42800	26
1.43167	26
1.43533	25
1.43900	25
1.44267	25
1.44633	28
1.45000	30
1.45367	31
1.45733	32
1.46100	31
1.46467	31
1.46833	31
1.47200	30
1.47567	30
1.47933	31
1.48300	30
1.48667	28
1.49033	27
1.49400	26
1.49767	27
1.50133	27
1.50500	27
1.50867	25
1.51233	25
1.51600	26
1.51967	28
1.52333	29
1.52700	30
1.53067	31
1.53433	30
1.53800	28
1.54167	28
1.54533	29
1.54900	31
1.55267	33
1.55633	35
1.56000	35
1.56367	31
1.56733	29
1.57100	31
1.57467	31
1.57833	32
1.58200	31
1.58567	31
1.58933	31
1.59300	31
1.59667	32
1.60033	33
1.60400	33
1.60767	33
1.61133	31
1.61500	30
1.61867	28
1.62233	27
1.62600	29
1.62967	31
1.63333	32
1.63700	34
1.64067	35
1.64433	35
1.64800	33
1.65167	34
1.65533	35
1.65900	35
1.66267	35
1.66633	37
1.67000	39
1.67367	41
1.67733	43
1.68100	42
1.68467	40
1.68833	41
1.69200	41
1.69567	43
1.69933	43
1.70300	44
1.70667	45
1.71033	46
1.71400	46
1.71767	48
1.72133	49
1.72500	48
1.72867	48
1.73233	48
1.73600	49
1.73967	49
1.74333	51
1.74700	53
1.75067	52
1.75433	53
1.75800	52
1.76167	51
1.76533	51
1.76900	52
1.77267	51
1.77633	54
1.78000	57
1.78367	60
1.78733	61
1.79100	64
1.79467	66
1.79833	65
1.80200	65
1.80567	64
1.80933	65
1.81300	66
1.81667	67
1.82033	69
1.82400	71
1.82767	71
1.83133	72
1.83500	73
1.83867	73
1.84233	74
1.84600	73
1.84967	71
1.85333	70
1.85700	69
1.86067	69
1.86433	70
1.86800	70
1.87167	70
1.87533	69
1.87900	68
1.88267	67
1.88633	69
1.89000	69
1.89367	69
1.89733	69
1.90100	67
1.90467	69
1.90833	71
1.91200	73
1.91567	75
1.91933	76
1.92300	78
1.92667	79
1.93033	79
1.93400	78
1.93767	77
1.94133	75
1.94500	75
1.94867	74
1.95233	76
1.95600	76
1.95967	76
1.96333	75
1.96700	76
1.97067	79
1.97433	81
1.97800	83
1.98167	85
1.98533	86
1.98900	85
1.99267	84
1.99633	85
2.00000	86
2.00367	86
2.00733	87
2.01100	87
2.01467	87
2.01833	87
2.02200	89
2.02567	89
2.02933	89
2.03300	89
2.03667	89
2.04033	91
2.04400	93
2.04767	96
2.05133	98
2.05500	99
2.05867	99
2.06233	100
2.06600	99
2.06967	98
2.07333	99
2.07700	100
2.08067	101
2.08433	103
2.08800	104
2.09167	105
2.09533	106
2.09900	106
2.10267	105
2.10633	106
2.11000	108
2.11367	110
2.11733	112
2.12100	113
2.12467	113
2.12833	114
2.13200	116
2.13567	116
2.13933	115
2.14300	115
2.14667	118
2.15033	121
2.15400	122
2.15767	124
2.16133	127
2.16500	128
2.16867	130
2.17233	130
2.17600	130
2.17967	131
2.18333	134
2.18700	137
2.19067	137
2.19433	136
2.19800	137
2.20167	138
2.20533	140
2.20900	142
2.21267	142
2.21633	143
2.22000	144
2.22367	146
2.22733	148
2.23100	150
2.23467	155
2.23833	159
2.24200	159
2.24567	156
2.24933	154
2.25300	155
2.25667	158
2.26033	160
2.26400	161
2.26767	161
2.27133	161
2.27500	163
2.27867	168
2.28233	171
2.28600	172
2.28967	174
2.29333	175
2.29700	175
2.30067	177
2.30433	179
2.30800	180
2.31167	180
2.31533	182
2.31900	183
2.32267	186
2.32633	186
2.33000	187
2.33367	190
2.33733	192
2.34100	194
2.34467	196
2.34833	197
2.35200	197
2.35567	198
2.35933	200
2.36300	202
2.36667	206
2.37033	208
2.37400	210
2.37767	211
2.38133	213
2.38500	214
2.38867	214
2.39233	214
2.39600	217
2.39967	219
2.40333	222
2.40700	226
2.41067	228
2.41433	232
2.41800	235
2.42167	237
2.42533	239
2.42900	242
2.43267	244
2.43633	247
2.44000	252
2.44367	294
2.44733	400
2.45100	515
2.45467	608
2.45833	657
2.46200	649
2.46567	605
2.46933	556
2.47300	519
2.47667	495
2.48033	481
2.48400	463
2.48767	433
2.49133	397
2.49500	361
2.49867	330
2.50233	308
2.50600	293
2.50967	284
2.51333	280
2.51700	280
2.52067	286
2.52433	296
2.52800	308
2.53167	320
2.53533	327
2.53900	330
2.54267	324
2.54633	313
2.55000	296
2.55367	277
2.55733	258
2.56100	241
2.56467	226
2.56833	214
2.57200	206
2.57567	200
2.57933	198
2.58300	198
2.58667	197
2.59033	192
2.59400	186
2.59767	178
2.60133	168
2.60500	153
2.60867	136
2.61233	119
2.61600	100
2.61967	83
2.62333	68
2.62700	58
2.63067	53
2.63433	52
2.63800	55
2.64167	59
2.64533	65
2.64900	72
2.65267	81
2.65633	89
2.66000	98
2.66367	107
2.66733	116
2.67100	120
2.67467	123
2.67833	122
2.68200	119
2.68567	115
2.68933	111
2.69300	106
2.69667	102
2.70033	99
2.70400	97
2.70767	96
2.71133	97
2.71500	96
2.71867	95
2.72233	90
2.72600	87
2.72967	89
2.73333	91
2.73700	94
2.74067	96
2.74433	96
2.74800	95
2.75167	95
2.75533	96
2.75900	96
2.76267	97
2.76633	100
2.77000	101
2.77367	102
2.77733	104
2.78100	107
2.78467	110
2.78833	111
2.79200	110
2.79567	107
2.79933	105
2.80300	106
2.80667	105
2.81033	105
2.81400	108
2.81767	116
2.82133	138
2.82500	184
2.82867	271
2.83233	420
2.83600	651
2.83967	986
2.84333	1430
2.84700	1966
2.85067	2562
2.85433	3179
2.85800	3769
2.86167	4283
2.86533	4678
2.86900	4932
2.87267	5037
2.87633	4999
2.88000	4844
2.88367	4597
2.88733	4284
2.89100	3937
2.89467	3579
2.89833	3227
2.90200	2885
2.90567	2566
2.90933	2274
2.91300	2011
2.91667	1775
2.92033	1563
2.92400	1378
2.92767	1216
2.93133	1075
2.93500	950
2.93867	841
2.94233	745
2.94600	665
2.94967	596
2.95333	534
2.95700	481
2.96067	433
2.96433	390
2.96800	353
2.97167	323
2.97533	297
2.97900	275
2.98267	255
2.98633	236
2.99000	219
2.99367	204
2.99733	191
3.00100	181
3.00467	174
3.00833	166
3.01200	158
3.01567	150
3.01933	141
3.02300	133
3.02667	128
3.03033	124
3.03400	120
3.03767	116
3.04133	113
3.04500	111
3.04867	106
3.05233	102
3.05600	100
3.05967	99
3.06333	96
3.06700	93
3.07067	88
3.07433	85
3.07800	82
3.08167	80
3.08533	79
3.08900	78
3.09267	75
3.09633	73
3.10000	71
3.10367	56
3.10733	15
3.11100	-34
3.11467	-60
3.11833	-55
3.12200	-27
3.12567	15
3.12933	65
3.13300	119
3.13667	175
3.14033	229
3.14400	281
3.14767	327
3.15133	369
3.15500	406
3.15867	439
3.16233	469
3.16600	492
3.16967	510
3.17333	525
3.17700	537
3.18067	546
3.18433	554
3.18800	560
3.19167	566
3.19533	568
3.19900	570
3.20267	574
3.20633	577
3.21000	579
3.21367	580
3.21733	579
3.22100	576
3.22467	575
3.22833	576
3.23200	578
3.23567	580
3.23933	582
3.24300	582
3.24667	583
3.25033	582
3.25400	581
3.25767	582
3.26133	584
3.26500	586
3.26867	587
3.27233	586
3.27600	587
3.27967	589
3.28333	590
3.28700	591
3.29067	592
3.29433	595
3.29800	597
3.30167	600
3.30533	601
3.30900	601
3.31267	601
3.31633	602
3.32000	606
3.32367	609
3.32733	611
3.33100	615
3.33467	619
3.33833	622
3.34200	624
3.34567	628
3.34933	631
3.35300	632
3.35667	634
3.36033	637
3.36400	640
3.36767	641
3.37133	642
3.37500	642
3.37867	640
3.38233	639
3.38600	640
3.38967	641
3.39333	644
3.39700	644
3.40067	642
3.40433	641
3.40800	639
3.41167	637
3.41533	637
3.41900	636
3.42267	634
3.42633	632
3.43000	629
3.43367	628
3.43733	629
3.44100	628
3.44467	624
3.44833	618
3.45200	611
3.45567	605
3.45933	600
3.46300	596
3.46667	593
3.47033	590
3.47400	588
3.47767	584
3.48133	579
3.48500	575
3.48867	573
3.49233	571
3.49600	568
3.49967	562
3.50333	557
3.50700	555
3.51067	551
3.51433	548
3.51800	546
3.52167	544
3.52533	541
3.52900	539
3.53267	536
3.53633	533
3.54000	533
3.54367	532
3.54733	531
3.55100	528
3.55467	525
3.55833	522
3.56200	522
3.56567	523
3.56933	524
3.57300	524
3.57667	522
3.58033	523
3.58400	523
3.58767	522
3.59133	519
3.59500	515
3.59867	511
3.60233	511
3.60600	512
3.60967	513
3.61333	514
3.61700	514
3.62067	514
3.62433	514
3.62800	512
3.63167	510
3.63533	508
3.63900	506
3.64267	506
3.64633	505
3.65000	505
3.65367	504
3.65733	503
3.66100	503
3.66467	503
3.66833	503
3.67200	504
3.67567	504
3.67933	505
3.68300	504
3.68667	501
3.69033	500
3.69400	499
3.69767	497
3.70133	495
3.70500	492
3.70867	492
3.71233	493
3.71600	495
3.71967	498
3.72333	498
3.72700	497
3.73067	500
3.73433	501
3.73800	502
3.74167	504
3.74533	506
3.74900	507
3.75267	506
3.75633	505
3.76000	504
3.76367	501
3.76733	499
3.77100	499
3.77467	500
3.77833	503
3.78200	504
3.78567	504
3.78933	504
3.79300	505
3.79667	505
3.80033	504
3.80400	503
3.80767	502
3.81133	500
3.81500	499
3.81867	497
3.82233	496
3.82600	496
3.82967	495
3.83333	494
3.83700	493
3.84067	493
3.84433	492
3.84800	491
3.85167	490
3.85533	490
3.85900	491
3.86267	491
3.86633	487
3.87000	484
3.87367	483
3.87733	481
3.88100	479
3.88467	478
3.88833	477
3.89200	479
3.89567	480
3.89933	481
3.90300	483
3.90667	483
3.91033	483
3.91400	481
3.91767	478
3.92133	478
3.92500	477
3.92867	476
3.93233	474
3.93600	472
3.93967	470
3.94333	470
3.94700	469
3.95067	467
3.95433	468
3.95800	469
3.96167	467
3.96533	465
3.96900	464
3.97267	464
3.97633	462
3.98000	460
3.98367	458
3.98733	457
3.99100	456
3.99467	453
3.99833	448

[Status Trace (Column Oven Temperature)]
Interval(msec)	1000
# of Points	239
Start Time(min)	0.012
End Time(min)	3.979
Intensity Units	
Intensity Multiplier	1
R.Time (min)	Intensity
0.01218	35.05
0.02885	35.05
0.04552	35.07
0.06218	35.08
0.07885	35.09
0.09552	35.08
0.11218	35.07
0.12885	35.07
0.14552	35.06
0.16218	35.04
0.17885	35.04
0.19552	35.04
0.21218	35.04
0.22885	35.04
0.24552	35.04
0.26218	35.03
0.27885	35.02
0.29552	35.00
0.31218	34.99
0.32885	34.99
0.34552	34.99
0.36218	34.99
0.37885	34.98
0.39552	34.97
0.41218	34.98
0.42885	35.00
0.44552	34.99
0.46218	34.99
0.47885	34.97
0.49552	34.97
0.51218	34.98
0.52885	34.99
0.54552	34.99
0.56218	34.99
0.57885	34.99
0.59552	34.99
0.61218	35.00
0.62885	35.01
0.64552	35.01
0.66218	35.00
0.67885	34.99
0.69552	35.00
0.71218	35.00
0.72885	35.00
0.74552	35.00
0.76218	34.99
0.77885	34.99
0.79552	34.98
0.81218	34.97
0.82885	34.97
0.84552	34.96
0.86218	34.96
0.87885	34.96
0.89552	34.96
0.91218	34.97
0.92885	34.98
0.94552	34.98
0.96218	35.00
0.97885	35.01
0.99552	35.03
1.01218	35.03
1.02885	35.03
1.04552	35.03
1.06218	35.03
1.07885	35.03
1.09552	35.01
1.11218	35.00
1.12885	34.99
1.14552	35.00
1.16218	35.01
1.17885	35.01
1.19552	35.01
1.21218	35.00
1.22885	34.99
1.24552	34.98
1.26218	34.97
1.27885	34.97
1.29552	34.98
1.31218	34.98
1.32885	34.98
1.34552	35.01
1.36218	35.02
1.37885	35.03
1.39552	35.02
1.41218	35.01
1.42885	34.99
1.44552	34.99
1.46218	35.00
1.47885	35.00
1.49552	35.00
1.51218	34.99
1.52885	35.01
1.54552	35.03
1.56218	35.02
1.57885	35.01
1.59552	35.03
1.61218	35.10
1.62885	35.23
1.64552	35.43
1.66218	35.69
1.67885	36.05
1.69552	36.42
1.71218	36.77
1.72885	37.10
1.74552	37.42
1.76218	37.78
1.77885	38.10
1.79552	38.40
1.81218	38.73
1.82885	39.06
1.84552	39.40
1.86218	39.75
1.87885	40.07
1.89552	40.39
1.91218	40.73
1.92885	41.05
1.94552	41.39
1.96218	41.73
1.97885	42.06
1.99552	42.38
2.01218	42.70
2.02885	43.04
2.04552	43.35
2.06218	43.67
2.07885	44.00
2.09552	44.33
2.11218	44.66
2.12885	44.98
2.14552	45.31
2.16218	45.65
2.17885	45.97
2.19552	46.28
2.21218	46.61
2.22885	46.94
2.24552	47.27
2.26218	47.61
2.27885	47.94
2.29552	48.26
2.31218	48.58
2.32885	48.92
2.34552	49.24
2.36218	49.50
2.37885	49.66
2.39552	49.68
2.41218	49.69
2.42885	49.68
2.44552	49.70
2.46218	49.71
2.47885	49.73
2.49552	49.74
2.51218	49.75
2.52885	49.77
2.54552	49.77
2.56218	49.80
2.57885	49.81
2.59552	49.81
2.61218	49.82
2.62885	49.84
2.64552	49.85
2.66218	49.84
2.67885	49.85
2.69552	49.87
2.71218	49.86
2.72885	49.85
2.74552	49.85
2.76218	49.87
2.77885	49.89
2.79552	49.90
2.81218	49.89
2.82885	49.88
2.84552	49.88
2.86218	49.88
2.87885	49.89
2.89552	49.90
2.91218	49.92
2.92885	49.94
2.94552	49.95
2.96218	49.96
2.97885	49.96
2.99552	49.98
3.01218	50.00
3.02885	50.01
3.04552	50.01
3.06218	50.02
3.07885	50.03
3.09552	50.06
3.11218	50.07
3.12885	50.09
3.14552	50.10
3.16218	50.10
3.17885	50.09
3.19552	50.10
3.21218	50.11
3.22885	50.10
3.24552	50.10
3.26218	50.10
3.27885	50.08
3.29552	50.07
3.31218	50.06
3.32885	50.05
3.34552	50.04
3.36218	50.03
3.37885	50.04
3.39552	50.04
3.41218	50.04
3.42885	50.05
3.44552	50.07
3.46218	50.07
3.47885	50.06
3.49552	50.05
3.51218	50.06
3.52885	50.06
3.54552	50.05
3.56218	50.07
3.57885	50.07
3.59552	50.06
3.61218	50.05
3.62885	50.05
3.64552	50.04
3.66218	50.03
3.67885	50.02
3.69552	50.03
3.71218	50.03
3.72885	50.04
3.74552	50.05
3.76218	50.06
3.77885	50.07
3.79552	50.07
3.81218	50.07
3.82885	50.07
3.84552	50.07
3.86218	50.08
3.87885	50.09
3.89552	50.09
3.91218	50.09
3.92885	50.09
3.94552	50.09
3.96218	50.09
3.97885	50.08

[Status Trace (Injection Unit Temperature)]
Interval(msec)	1000
# of Points	239
Start Time(min)	0.012
End Time(min)	3.979
Intensity Units	
Intensity Multiplier	1
R.Time (min)	Intensity
0.01218	99.98
0.02885	99.97
0.04552	99.97
0.06218	99.98
0.07885	99.98
0.09552	99.98
0.11218	99.97
0.12885	99.98
0.14552	99.98
0.16218	99.98
0.17885	99.98
0.19552	99.98
0.21218	99.98
0.22885	99.98
0.24552	99.98
0.26218	99.98
0.27885	99.98
0.29552	99.98
0.31218	99.98
0.32885	99.98
0.34552	99.98
0.36218	99.98
0.37885	99.98
0.39552	99.98
0.41218	99.98
0.42885	99.98
0.44552	99.98
0.46218	99.98
0.47885	99.98
0.49552	99.98
0.51218	99.98
0.52885	99.98
0.54552	99.98
0.56218	99.98
0.57885	99.98
0.59552	99.98
0.61218	99.98
0.62885	99.98
0.64552	99.98
0.66218	99.98
0.67885	99.98
0.69552	99.98
0.71218	99.98
0.72885	99.98
0.74552	99.98
0.76218	99.98
0.77885	99.98
0.79552	99.98
0.81218	99.98
0.82885	99.98
0.84552	99.98
0.86218	99.97
0.87885	99.98
0.89552	99.98
0.91218	99.98
0.92885	99.98
0.94552	99.98
0.96218	99.98
0.97885	99.98
0.99552	99.98
1.01218	99.98
1.02885	99.98
1.04552	99.98
1.06218	99.98
1.07885	99.98
1.09552	99.98
1.11218	99.98
1.12885	99.98
1.14552	99.98
1.16218	99.98
1.17885	99.98
1.19552	99.98
1.21218	99.98
1.22885	99.98
1.24552	99.98
1.26218	99.98
1.27885	99.98
1.29552	99.98
1.31218	99.98
1.32885	99.98
1.34552	99.99
1.36218	99.98
1.37885	99.98
1.39552	99.98
1.41218	99.98
1.42885	99.98
1.44552	99.98
1.46218	99.98
1.47885	99.99
1.49552	99.98
1.51218	99.98
1.52885	99.99
1.54552	99.99
1.56218	99.99
1.57885	99.98
1.59552	99.98
1.61218	99.99
1.62885	99.98
1.64552	99.99
1.66218	99.99
1.67885	99.99
1.69552	99.99
1.71218	99.98
1.72885	99.99
1.74552	99.99
1.76218	99.99
1.77885	99.98
1.79552	99.98
1.81218	99.98
1.82885	99.98
1.84552	99.98
1.86218	99.98
1.87885	99.98
1.89552	99.98
1.91218	99.98
1.92885	99.98
1.94552	99.97
1.96218	99.97
1.97885	99.97
1.99552	99.97
2.01218	99.97
2.02885	99.97
2.04552	99.97
2.06218	99.97
2.07885	99.97
2.09552	99.97
2.11218	99.97
2.12885	99.97
2.14552	99.97
2.16218	99.97
2.17885	99.97
2.19552	99.97
2.21218	99.96
2.22885	99.97
2.24552	99.96
2.26218	99.97
2.27885	99.97
2.29552	99.97
2.31218	99.97
2.32885	99.97
2.34552	99.97
2.36218	99.97
2.37885	99.97
2.39552	99.97
2.41218	99.97
2.42885	99.96
2.44552	99.97
2.46218	99.97
2.47885	99.97
2.49552	99.97
2.51218	99.97
2.52885	99.98
2.54552	99.98
2.56218	99.98
2.57885	99.98
2.59552	99.98
2.61218	99.97
2.62885	99.98
2.64552	99.98
2.66218	99.98
2.67885	99.99
2.69552	99.98
2.71218	99.98
2.72885	99.99
2.74552	99.99
2.76218	99.99
2.77885	99.99
2.79552	99.99
2.81218	99.99
2.82885	99.99
2.84552	100.00
2.86218	99.99
2.87885	100.00
2.89552	100.00
2.91218	100.00
2.92885	99.99
2.94552	100.00
2.96218	100.00
2.97885	100.00
2.99552	100.01
3.01218	100.01
3.02885	100.01
3.04552	100.01
3.06218	100.01
3.07885	100.01
3.09552	100.01
3.11218	100.01
3.12885	100.01
3.14552	100.02
3.16218	100.02
3.17885	100.02
3.19552	100.01
3.21218	100.02
3.22885	100.02
3.24552	100.02
3.26218	100.02
3.27885	100.02
3.29552	100.02
3.31218	100.02
3.32885	100.02
3.34552	100.03
3.36218	100.03
3.37885	100.03
3.39552	100.03
3.41218	100.03
3.42885	100.03
3.44552	100.03
3.46218	100.03
3.47885	100.03
3.49552	100.03
3.51218	100.04
3.52885	100.03
3.54552	100.02
3.56218	100.03
3.57885	100.04
3.59552	100.03
3.61218	100.03
3.62885	100.03
3.64552	100.03
3.66218	100.04
3.67885	100.04
3.69552	100.04
3.71218	100.04
3.72885	100.04
3.74552	100.04
3.76218	100.04
3.77885	100.04
3.79552	100.04
3.81218	100.04
3.82885	100.04
3.84552	100.04
3.86218	100.04
3.87885	100.04
3.89552	100.04
3.91218	100.04
3.92885	100.04
3.94552	100.04
3.96218	100.04
3.97885	100.04

[Status Trace (Carrier Gas Pressure)]
Interval(msec)	1000
# of Points	239
Start Time(min)	0.012
End Time(min)	3.979
Intensity Units	
Intensity Multiplier	1
R.Time (min)	Intensity
0.01218	57.97
0.02885	54.96
0.04552	57.68
0.06218	59.72
0.07885	58.97
0.09552	57.99
0.11218	57.99
0.12885	58.01
0.14552	58.01
0.16218	58.00
0.17885	58.00
0.19552	58.00
0.21218	58.00
0.22885	58.00
0.24552	58.00
0.26218	58.00
0.27885	58.00
0.29552	58.00
0.31218	58.00
0.32885	58.00
0.34552	58.00
0.36218	58.00
0.37885	58.00
0.39552	58.00
0.41218	58.00
0.42885	58.00
0.44552	58.00
0.46218	58.00
0.47885	58.00
0.49552	58.00
0.51218	58.00
0.52885	58.00
0.54552	58.00
0.56218	58.00
0.57885	58.00
0.59552	58.00
0.61218	58.00
0.62885	58.00
0.64552	58.00
0.66218	58.00
0.67885	58.00
0.69552	58.00
0.71218	58.00
0.72885	58.00
0.74552	58.00
0.76218	58.00
0.77885	58.00
0.79552	58.00
0.81218	58.00
0.82885	58.00
0.84552	58.00
0.86218	58.00
0.87885	58.00
0.89552	58.00
0.91218	58.00
0.92885	58.00
0.94552	58.00
0.96218	58.00
0.97885	58.00
0.99552	58.00
1.01218	58.00
1.02885	58.00
1.04552	58.00
1.06218	58.00
1.07885	58.00
1.09552	58.00
1.11218	58.00
1.12885	58.00
1.14552	58.00
1.16218	58.00
1.17885	58.00
1.19552	58.00
1.21218	58.00
1.22885	58.00
1.24552	58.00
1.26218	58.00
1.27885	58.00
1.29552	58.00
1.31218	58.00
1.32885	58.00
1.34552	58.00
1.36218	58.00
1.37885	58.00
1.39552	58.00
1.41218	58.00
1.42885	58.00
1.44552	58.00
1.46218	58.00
1.47885	58.00
1.49552	58.00
1.51218	58.00
1.52885	58.00
1.54552	58.00
1.56218	58.00
1.57885	58.00
1.59552	58.00
1.61218	58.00
1.62885	58.01
1.64552	58.00
1.66218	58.00
1.67885	58.01
1.69552	58.00
1.71218	58.00
1.72885	58.00
1.74552	58.00
1.76218	58.00
1.77885	58.00
1.79552	58.00
1.81218	58.00
1.82885	58.00
1.84552	58.00
1.86218	58.00
1.87885	58.00
1.89552	58.00
1.91218	58.00
1.92885	58.00
1.94552	58.00
1.96218	58.00
1.97885	58.00
1.99552	58.00
2.01218	58.00
2.02885	58.00
2.04552	58.00
2.06218	58.00
2.07885	58.00
2.09552	58.00
2.11218	58.00
2.12885	58.00
2.14552	58.00
2.16218	58.00
2.17885	58.00
2.19552	58.00
2.21218	58.00
2.22885	58.00
2.24552	58.00
2.26218	58.00
2.27885	58.00
2.29552	58.00
2.31218	58.00
2.32885	58.00
2.34552	58.00
2.36218	58.00
2.37885	58.00
2.39552	57.99
2.41218	57.99
2.42885	58.00
2.44552	58.00
2.46218	58.00
2.47885	58.00
2.49552	58.00
2.51218	57.99
2.52885	57.99
2.54552	58.00
2.56218	58.00
2.57885	58.00
2.59552	58.00
2.61218	58.00
2.62885	58.00
2.64552	58.00
2.66218	58.00
2.67885	58.00
2.69552	58.00
2.71218	58.00
2.72885	58.00
2.74552	58.00
2.76218	58.00
2.77885	58.00
2.79552	58.00
2.81218	58.00
2.82885	58.00
2.84552	58.00
2.86218	58.00
2.87885	58.00
2.89552	58.00
2.91218	58.00
2.92885	58.00
2.94552	58.00
2.96218	58.00
2.97885	58.00
2.99552	58.00
3.01218	58.00
3.02885	58.00
3.04552	58.00
3.06218	58.00
3.07885	58.00
3.09552	58.00
3.11218	58.00
3.12885	58.00
3.14552	58.00
3.16218	58.00
3.17885	58.00
3.19552	58.00
3.21218	58.00
3.22885	58.00
3.24552	58.00
3.26218	58.00
3.27885	58.00
3.29552	58.00
3.31218	58.00
3.32885	58.00
3.34552	58.00
3.36218	58.00
3.37885	58.00
3.39552	58.00
3.41218	58.00
3.42885	58.00
3.44552	58.00
3.46218	58.00
3.47885	58.00
3.49552	58.00
3.51218	58.00
3.52885	58.00
3.54552	58.00
3.56218	58.00
3.57885	58.00
3.59552	58.00
3.61218	58.00
3.62885	58.00
3.64552	58.00
3.66218	58.00
3.67885	58.00
3.69552	58.00
3.71218	58.00
3.72885	58.00
3.74552	58.00
3.76218	58.00
3.77885	58.00
3.79552	58.00
3.81218	58.00
3.82885	58.00
3.84552	58.00
3.86218	58.00
3.87885	58.00
3.89552	58.00
3.91218	58.00
3.92885	58.00
3.94552	58.00
3.96218	58.00
3.97885	58.00

[Status Trace (Carrier Gas Flow)]
Interval(msec)	1000
# of Points	239
Start Time(min)	0.012
End Time(min)	3.979
Intensity Units	
Intensity Multiplier	1
R.Time (min)	Intensity
0.01218	34.60
0.02885	34.53
0.04552	34.54
0.06218	34.53
0.07885	34.50
0.09552	34.52
0.11218	34.52
0.12885	34.52
0.14552	34.52
0.16218	34.52
0.17885	34.52
0.19552	34.52
0.21218	34.52
0.22885	34.52
0.24552	34.52
0.26218	34.52
0.27885	34.52
0.29552	34.52
0.31218	34.52
0.32885	34.52
0.34552	34.52
0.36218	34.52
0.37885	34.52
0.39552	34.52
0.41218	34.52
0.42885	34.52
0.44552	34.52
0.46218	34.52
0.47885	34.52
0.49552	34.52
0.51218	34.52
0.52885	34.52
0.54552	34.52
0.56218	34.52
0.57885	34.52
0.59552	34.51
0.61218	34.52
0.62885	34.52
0.64552	34.52
0.66218	34.52
0.67885	34.52
0.69552	34.52
0.71218	34.52
0.72885	34.52
0.74552	34.52
0.76218	34.52
0.77885	34.52
0.79552	34.52
0.81218	34.52
0.82885	34.51
0.84552	34.52
0.86218	34.52
0.87885	34.52
0.89552	34.52
0.91218	34.52
0.92885	34.52
0.94552	34.52
0.96218	34.52
0.97885	34.52
0.99552	34.52
1.01218	34.52
1.02885	34.52
1.04552	34.52
1.06218	34.52
1.07885	34.52
1.09552	34.52
1.11218	34.52
1.12885	34.52
1.14552	34.52
1.16218	34.51
1.17885	34.52
1.19552	34.52
1.21218	34.52
1.22885	34.52
1.24552	34.52
1.26218	34.52
1.27885	34.52
1.29552	34.52
1.31218	34.52
1.32885	34.52
1.34552	34.52
1.36218	34.52
1.37885	34.52
1.39552	34.52
1.41218	34.52
1.42885	34.52
1.44552	34.52
1.46218	34.52
1.47885	34.52
1.49552	34.52
1.51218	34.52
1.52885	34.52
1.54552	34.52
1.56218	34.52
1.57885	34.52
1.59552	34.52
1.61218	34.52
1.62885	34.52
1.64552	34.52
1.66218	34.52
1.67885	34.52
1.69552	34.52
1.71218	34.52
1.72885	34.52
1.74552	34.52
1.76218	34.52
1.77885	34.52
1.79552	34.52
1.81218	34.52
1.82885	34.52
1.84552	34.52
1.86218	34.52
1.87885	34.52
1.89552	34.52
1.91218	34.52
1.92885	34.52
1.94552	34.52
1.96218	34.52
1.97885	34.52
1.99552	34.52
2.01218	34.52
2.02885	34.52
2.04552	34.52
2.06218	34.51
2.07885	34.52
2.09552	34.52
2.11218	34.52
2.12885	34.52
2.14552	34.52
2.16218	34.52
2.17885	34.52
2.19552	34.52
2.21218	34.52
2.22885	34.51
2.24552	34.51
2.26218	34.52
2.27885	34.52
2.29552	34.52
2.31218	34.52
2.32885	34.52
2.34552	34.52
2.36218	34.52
2.37885	34.52
2.39552	34.52
2.41218	34.52
2.42885	34.51
2.44552	34.52
2.46218	34.52
2.47885	34.52
2.49552	34.52
2.51218	34.52
2.52885	34.52
2.54552	34.52
2.56218	34.52
2.57885	34.52
2.59552	34.52
2.61218	34.52
2.62885	34.52
2.64552	34.52
2.66218	34.51
2.67885	34.52
2.69552	34.52
2.71218	34.51
2.72885	34.52
2.74552	34.52
2.76218	34.52
2.77885	34.52
2.79552	34.52
2.81218	34.51
2.82885	34.51
2.84552	34.52
2.86218	34.52
2.87885	34.51
2.89552	34.51
2.91218	34.52
2.92885	34.52
2.94552	34.52
2.96218	34.52
2.97885	34.52
2.99552	34.52
3.01218	34.52
3.02885	34.52
3.04552	34.52
3.06218	34.52
3.07885	34.52
3.09552	34.52
3.11218	34.52
3.12885	34.52
3.14552	34.52
3.16218	34.52
3.17885	34.52
3.19552	34.52
3.21218	34.51
3.22885	34.52
3.24552	34.52
3.26218	34.52
3.27885	34.52
3.29552	34.52
3.31218	34.52
3.32885	34.52
3.34552	34.52
3.36218	34.52
3.37885	34.52
3.39552	34.52
3.41218	34.52
3.42885	34.52
3.44552	34.52
3.46218	34.52
3.47885	34.52
3.49552	34.52
3.51218	34.53
3.52885	34.52
3.54552	34.51
3.56218	34.52
3.57885	34.52
3.59552	34.52
3.61218	34.52
3.62885	34.52
3.64552	34.52
3.66218	34.52
3.67885	34.52
3.69552	34.52
3.71218	34.51
3.72885	34.52
3.74552	34.52
3.76218	34.51
3.77885	34.52
3.79552	34.51
3.81218	34.52
3.82885	34.52
3.84552	34.51
3.86218	34.51
3.87885	34.52
3.89552	34.52
3.91218	34.52
3.92885	34.52
3.94552	34.52
3.96218	34.52
3.97885	34.53

[Status Trace (Column Flow)]
Interval(msec)	1000
# of Points	239
Start Time(min)	0.012
End Time(min)	3.979
Intensity Units	
Intensity Multiplier	1
R.Time (min)	Intensity
0.01218	5.56
0.02885	5.21
0.04552	5.53
0.06218	5.77
0.07885	5.68
0.09552	5.56
0.11218	5.56
0.12885	5.56
0.14552	5.56
0.16218	5.56
0.17885	5.56
0.19552	5.56
0.21218	5.56
0.22885	5.56
0.24552	5.56
0.26218	5.56
0.27885	5.56
0.29552	5.56
0.31218	5.57
0.32885	5.57
0.34552	5.57
0.36218	5.56
0.37885	5.57
0.39552	5.57
0.41218	5.57
0.42885	5.56
0.44552	5.57
0.46218	5.57
0.47885	5.57
0.49552	5.57
0.51218	5.57
0.52885	5.56
0.54552	5.56
0.56218	5.56
0.57885	5.56
0.59552	5.56
0.61218	5.56
0.62885	5.56
0.64552	5.56
0.66218	5.56
0.67885	5.56
0.69552	5.56
0.71218	5.56
0.72885	5.56
0.74552	5.56
0.76218	5.56
0.77885	5.57
0.79552	5.57
0.81218	5.57
0.82885	5.57
0.84552	5.57
0.86218	5.57
0.87885	5.57
0.89552	5.57
0.91218	5.57
0.92885	5.57
0.94552	5.57
0.96218	5.56
0.97885	5.56
0.99552	5.56
1.01218	5.56
1.02885	5.56
1.04552	5.56
1.06218	5.56
1.07885	5.56
1.09552	5.56
1.11218	5.56
1.12885	5.56
1.14552	5.56
1.16218	5.56
1.17885	5.56
1.19552	5.56
1.21218	5.56
1.22885	5.56
1.24552	5.56
1.26218	5.57
1.27885	5.57
1.29552	5.57
1.31218	5.57
1.32885	5.57
1.34552	5.56
1.36218	5.56
1.37885	5.56
1.39552	5.56
1.41218	5.56
1.42885	5.56
1.44552	5.57
1.46218	5.56
1.47885	5.56
1.49552	5.56
1.51218	5.56
1.52885	5.56
1.54552	5.56
1.56218	5.56
1.57885	5.56
1.59552	5.56
1.61218	5.56
1.62885	5.56
1.64552	5.55
1.66218	5.54
1.67885	5.53
1.69552	5.52
1.71218	5.51
1.72885	5.50
1.74552	5.49
1.76218	5.48
1.77885	5.47
1.79552	5.46
1.81218	5.45
1.82885	5.44
1.84552	5.43
1.86218	5.42
1.87885	5.41
1.89552	5.40
1.91218	5.39
1.92885	5.38
1.94552	5.37
1.96218	5.36
1.97885	5.35
1.99552	5.34
2.01218	5.33
2.02885	5.32
2.04552	5.31
2.06218	5.30
2.07885	5.29
2.09552	5.28
2.11218	5.27
2.12885	5.26
2.14552	5.25
2.16218	5.24
2.17885	5.23
2.19552	5.22
2.21218	5.21
2.22885	5.20
2.24552	5.19
2.26218	5.18
2.27885	5.18
2.29552	5.17
2.31218	5.16
2.32885	5.15
2.34552	5.14
2.36218	5.13
2.37885	5.13
2.39552	5.13
2.41218	5.13
2.42885	5.13
2.44552	5.13
2.46218	5.13
2.47885	5.13
2.49552	5.12
2.51218	5.12
2.52885	5.12
2.54552	5.12
2.56218	5.12
2.57885	5.12
2.59552	5.12
2.61218	5.12
2.62885	5.12
2.64552	5.12
2.66218	5.12
2.67885	5.12
2.69552	5.12
2.71218	5.12
2.72885	5.12
2.74552	5.12
2.76218	5.12
2.77885	5.12
2.79552	5.12
2.81218	5.12
2.82885	5.12
2.84552	5.12
2.86218	5.12
2.87885	5.12
2.89552	5.12
2.91218	5.12
2.92885	5.12
2.94552	5.12
2.96218	5.12
2.97885	5.12
2.99552	5.12
3.01218	5.12
3.02885	5.12
3.04552	5.12
3.06218	5.12
3.07885	5.12
3.09552	5.12
3.11218	5.12
3.12885	5.12
3.14552	5.11
3.16218	5.11
3.17885	5.11
3.19552	5.11
3.21218	5.11
3.22885	5.11
3.24552	5.11
3.26218	5.11
3.27885	5.11
3.29552	5.12
3.31218	5.12
3.32885	5.12
3.34552	5.12
3.36218	5.12
3.37885	5.12
3.39552	5.12
3.41218	5.12
3.42885	5.12
3.44552	5.12
3.46218	5.12
3.47885	5.12
3.49552	5.12
3.51218	5.12
3.52885	5.12
3.54552	5.12
3.56218	5.12
3.57885	5.12
3.59552	5.12
3.61218	5.12
3.62885	5.12
3.64552	5.12
3.66218	5.12
3.67885	5.12
3.69552	5.12
3.71218	5.12
3.72885	5.12
3.74552	5.12
3.76218	5.12
3.77885	5.12
3.79552	5.12
3.81218	5.12
3.82885	5.12
3.84552	5.12
3.86218	5.12
3.87885	5.12
3.89552	5.12
3.91218	5.12
3.92885	5.12
3.94552	5.12
3.96218	5.12
3.97885	5.12

[Status Trace (Linear Velocity)]
Interval(msec)	1000
# of Points	239
Start Time(min)	0.012
End Time(min)	3.979
Intensity Units	
Intensity Multiplier	1
R.Time (min)	Intensity
0.01218	39.00
0.02885	37.02
0.04552	38.81
0.06218	40.15
0.07885	39.65
0.09552	39.02
0.11218	39.01
0.12885	39.03
0.14552	39.03
0.16218	39.02
0.17885	39.03
0.19552	39.03
0.21218	39.02
0.22885	39.02
0.24552	39.02
0.26218	39.02
0.27885	39.03
0.29552	39.03
0.31218	39.03
0.32885	39.03
0.34552	39.03
0.36218	39.03
0.37885	39.03
0.39552	39.03
0.41218	39.03
0.42885	39.03
0.44552	39.03
0.46218	39.03
0.47885	39.03
0.49552	39.03
0.51218	39.03
0.52885	39.03
0.54552	39.03
0.56218	39.03
0.57885	39.03
0.59552	39.03
0.61218	39.03
0.62885	39.03
0.64552	39.03
0.66218	39.03
0.67885	39.03
0.69552	39.03
0.71218	39.03
0.72885	39.03
0.74552	39.03
0.76218	39.03
0.77885	39.03
0.79552	39.03
0.81218	39.03
0.82885	39.03
0.84552	39.03
0.86218	39.03
0.87885	39.03
0.89552	39.03
0.91218	39.03
0.92885	39.03
0.94552	39.03
0.96218	39.03
0.97885	39.03
0.99552	39.02
1.01218	39.02
1.02885	39.02
1.04552	39.02
1.06218	39.02
1.07885	39.02
1.09552	39.03
1.11218	39.03
1.12885	39.03
1.14552	39.03
1.16218	39.03
1.17885	39.03
1.19552	39.02
1.21218	39.03
1.22885	39.03
1.24552	39.03
1.26218	39.03
1.27885	39.03
1.29552	39.03
1.31218	39.03
1.32885	39.03
1.34552	39.03
1.36218	39.02
1.37885	39.02
1.39552	39.02
1.41218	39.03
1.42885	39.03
1.44552	39.03
1.46218	39.03
1.47885	39.03
1.49552	39.03
1.51218	39.03
1.52885	39.03
1.54552	39.02
1.56218	39.02
1.57885	39.02
1.59552	39.02
1.61218	39.02
1.62885	39.01
1.64552	38.99
1.66218	38.96
1.67885	38.93
1.69552	38.89
1.71218	38.86
1.72885	38.83
1.74552	38.80
1.76218	38.76
1.77885	38.73
1.79552	38.70
1.81218	38.67
1.82885	38.64
1.84552	38.61
1.86218	38.57
1.87885	38.55
1.89552	38.51
1.91218	38.48
1.92885	38.46
1.94552	38.42
1.96218	38.39
1.97885	38.36
1.99552	38.33
2.01218	38.30
2.02885	38.27
2.04552	38.24
2.06218	38.21
2.07885	38.18
2.09552	38.15
2.11218	38.12
2.12885	38.09
2.14552	38.06
2.16218	38.03
2.17885	38.00
2.19552	37.97
2.21218	37.94
2.22885	37.92
2.24552	37.89
2.26218	37.86
2.27885	37.83
2.29552	37.80
2.31218	37.77
2.32885	37.74
2.34552	37.71
2.36218	37.69
2.37885	37.67
2.39552	37.67
2.41218	37.67
2.42885	37.67
2.44552	37.67
2.46218	37.67
2.47885	37.67
2.49552	37.66
2.51218	37.66
2.52885	37.65
2.54552	37.66
2.56218	37.66
2.57885	37.66
2.59552	37.66
2.61218	37.66
2.62885	37.66
2.64552	37.66
2.66218	37.66
2.67885	37.66
2.69552	37.65
2.71218	37.65
2.72885	37.66
2.74552	37.66
2.76218	37.65
2.77885	37.65
2.79552	37.65
2.81218	37.65
2.82885	37.65
2.84552	37.65
2.86218	37.65
2.87885	37.65
2.89552	37.65
2.91218	37.65
2.92885	37.65
2.94552	37.65
2.96218	37.65
2.97885	37.65
2.99552	37.64
3.01218	37.64
3.02885	37.64
3.04552	37.64
3.06218	37.64
3.07885	37.64
3.09552	37.64
3.11218	37.64
3.12885	37.63
3.14552	37.63
3.16218	37.63
3.17885	37.63
3.19552	37.63
3.21218	37.63
3.22885	37.63
3.24552	37.63
3.26218	37.63
3.27885	37.63
3.29552	37.64
3.31218	37.64
3.32885	37.64
3.34552	37.64
3.36218	37.64
3.37885	37.64
3.39552	37.64
3.41218	37.64
3.42885	37.64
3.44552	37.64
3.46218	37.64
3.47885	37.64
3.49552	37.64
3.51218	37.64
3.52885	37.64
3.54552	37.64
3.56218	37.64
3.57885	37.64
3.59552	37.64
3.61218	37.64
3.62885	37.64
3.64552	37.64
3.66218	37.64
3.67885	37.64
3.69552	37.64
3.71218	37.64
3.72885	37.64
3.74552	37.64
3.76218	37.64
3.77885	37.64
3.79552	37.64
3.81218	37.64
3.82885	37.64
3.84552	37.64
3.86218	37.63
3.87885	37.63
3.89552	37.63
3.91218	37.63
3.92885	37.63
3.94552	37.63
3.96218	37.63
3.97885	37.63

