[Header]
Application Name	LabSolutions
Version	5.110
Data File Name	C:\Users\User\Desktop\GC Analyses\Jack\Nachusa Grasslands Sampling\T1 Timepoint July 12th\T1_07122022_076.gcd
Output Date	3/14/2023
Output Time	3:41:02 PM

[File Information]
Type	Data File
Generated	3/8/2023 9:43:20 PM
Generated by	System Administrator
Modified	3/8/2023 9:50:09 PM
Modified by	System Administrator

[Sample Information]
Operator Name	System Administrator
Acquired	3/8/2023 9:46:08 PM
Sample Type	0:Unknown
Level	0
Sample Name	076
Sample ID	076
ISTD Amount1	1
ISTD Amount2	1
ISTD Amount3	1
ISTD Amount4	1
ISTD Amount5	1
ISTD Amount6	1
ISTD Amount7	1
ISTD Amount8	1
ISTD Amount9	1
ISTD Amount10	1
ISTD Amount11	1
ISTD Amount12	1
ISTD Amount13	1
ISTD Amount14	1
ISTD Amount15	1
ISTD Amount16	1
ISTD Amount17	1
ISTD Amount18	1
ISTD Amount19	1
ISTD Amount20	1
ISTD Amount21	1
ISTD Amount22	1
ISTD Amount23	1
ISTD Amount24	1
ISTD Amount25	1
ISTD Amount26	1
ISTD Amount27	1
ISTD Amount28	1
ISTD Amount29	1
ISTD Amount30	1
ISTD Amount31	1
ISTD Amount32	1
Sample Amount	1
Dilution Factor	1
Vial#	75
Injection Volume	1
Injection Count	1
Bar Code	

[Original Files]
Data File	C:\Users\User\Desktop\GC Analyses\Jack\Nachusa Grasslands Sampling\T1 Timepoint July 12th\T1_07122022_076.gcd
Method File	C:\LabSolutions\Data\GHG_4min_2022\ghg3_togas_w_acet_4 min_new_int.gcm
Batch File	C:\LabSolutions\Data\AutoSamplerTesting\T1_07122022.gcb
Report Format File	c:\LabSolutions\System\DEFAULT.lsr

[File Description]


[Configuration]
Instrument Name	C0B7VH3-Instrument1
Instrument #	1
Line #	1
# of Detectors	3
Detector ID	DET#1	DET#2	DET#3
Detector Name	FID	PTCD	ECD
# of Channels	1	1	1

[Peak Table(Ch1)]
# of Peaks	3
Peak#	R.Time	I.Time	F.Time	Area	Height	A/H	Conc.	Mark	ID#	Name	k'	Plate #	Plate Ht.	Tailing	Resolution	Sep.Factor	Area Ratio	Height Ratio	Conc. %	Norm Conc.
1	1.476	1.435	1.538	29262	13851	2.113	206.593	   	1	CO	0.000	9118	16.452	1.322	0.000	0.000	0	0	30.202	30.202
2	1.567	1.538	1.641	4926	2369	2.079	95.254	 V 	2	CH4	0.062	10460	14.341	0.000	1.489	0.000	0	0	13.925	13.925
3	1.996	1.952	2.502	1522860	722894	2.107	382.197	   	3	CO2	0.353	17364	8.639	1.301	7.039	5.680	0	0	55.873	55.873

[Peak Table(Ch2)]
# of Peaks	0

[Peak Table(Ch3)]
# of Peaks	5
Peak#	R.Time	I.Time	F.Time	Area	Height	A/H	Conc.	Mark	ID#	Name	k'	Plate #	Plate Ht.	Tailing	Resolution	Sep.Factor	Area Ratio	Height Ratio	Conc. %	Norm Conc.
1	2.458	2.315	2.517	1939	557	3.481	0.000	   			0.000	10231	14.661	0.000	0.000	0.000	0	0	0.000	0.000
2	2.539	2.517	2.627	879	242	3.637	0.000	 V 			0.033	6464	23.204	0.000	0.722	0.000	0	0	0.000	0.000
3	2.675	2.638	2.726	246	77	3.221	0.000	   			0.088	12090	12.407	0.000	1.213	2.682	0	0	0.000	0.000
4	2.873	2.726	3.019	19742	5011	3.940	0.504	 V 	1	N2O	0.169	13025	11.516	1.771	2.000	1.915	0	0	100.000	100.000
5	3.100	3.019	3.995	17083	516	33.088	0.000	   	2	SF6	0.261	275	546.284	6.266	0.536	1.549	0	0	0.000	0.000

[Compound Results(Ch1)]
# of IDs	6
ID#	Name	R.Time	Area	Height	Conc.	Curve	3rd	2nd	1st	Constant	Area Ratio	Height Ratio	Conc. %	Norm Conc.
1	CO	1.476	29262	13851	206.593	Linear	0.000000e+00	0.000000e+00	1.416423e+002	0.000000e+00	0	0	30.202	30.202
2	CH4	1.567	4926	2369	95.254	Linear	0.000000e+00	0.000000e+00	5.171738e+001	0.000000e+00	0	0	13.925	13.925
3	CO2	1.996	1522860	722894	382.197	Linear	0.000000e+00	0.000000e+00	3.984494e+003	0.000000e+00	0	0	55.873	55.873
4	Ethylene	0.000	0	0	0.000	Linear	0.000000e+00	0.000000e+00	0.000000e+00	0.000000e+00	0	0	0.000	0.000
5	Acetylene	0.000	0	0	0.000	Linear	0.000000e+00	0.000000e+00	0.000000e+00	0.000000e+00	0	0	0.000	0.000
6	Ethane	0.000	0	0	0.000	Linear	0.000000e+00	0.000000e+00	0.000000e+00	0.000000e+00	0	0	0.000	0.000

[Compound Results(Ch2)]
# of IDs	5
ID#	Name	R.Time	Area	Height	Conc.	Curve	3rd	2nd	1st	Constant	Area Ratio	Height Ratio	Conc. %	Norm Conc.
1	Hydrogen	0.000	0	0	0.000	Linear	0.000000e+00	0.000000e+00	0.000000e+00	0.000000e+00	0	0	0.000	0.000
2	Oxygen	0.000	0	0	0.000	Linear	0.000000e+00	0.000000e+00	0.000000e+00	0.000000e+00	0	0	0.000	0.000
3	Nitrogen	0.000	0	0	0.000	Linear	0.000000e+00	0.000000e+00	0.000000e+00	0.000000e+00	0	0	0.000	0.000
4	Methane	0.000	0	0	0.000	Linear	0.000000e+00	0.000000e+00	0.000000e+00	0.000000e+00	0	0	0.000	0.000
5	Carbon Monoxide	0.000	0	0	0.000	Linear	0.000000e+00	0.000000e+00	0.000000e+00	0.000000e+00	0	0	0.000	0.000

[Compound Results(Ch3)]
# of IDs	2
ID#	Name	R.Time	Area	Height	Conc.	Curve	3rd	2nd	1st	Constant	Area Ratio	Height Ratio	Conc. %	Norm Conc.
1	N2O	2.873	19742	5011	0.504	Linear	0.000000e+00	0.000000e+00	3.915173e+004	0.000000e+00	0	0	100.000	100.000
2	SF6	3.100	17083	516	0.000	Linear	0.000000e+00	0.000000e+00	0.000000e+00	0.000000e+00	0	0	0.000	0.000

[Group Results(Ch1)]
# of Groups	0

[Group Results(Ch2)]
# of Groups	0

[Group Results(Ch3)]
# of Groups	0

[Chromatogram (Ch1)]
Interval(msec)	220
# of Points	1091
Start Time(min)	0.002
End Time(min)	3.998
R.Time (min)	Intensity
0.00167	13
0.00533	13
0.00900	14
0.01267	16
0.01633	22
0.02000	30
0.02367	35
0.02733	37
0.03100	35
0.03467	33
0.03833	32
0.04200	31
0.04567	33
0.04933	37
0.05300	38
0.05667	38
0.06033	38
0.06400	37
0.06767	36
0.07133	38
0.07500	43
0.07867	50
0.08233	53
0.08600	55
0.08967	54
0.09333	49
0.09700	47
0.10067	51
0.10433	55
0.10800	61
0.11167	68
0.11533	73
0.11900	76
0.12267	79
0.12633	82
0.13000	85
0.13367	84
0.13733	78
0.14100	77
0.14467	79
0.14833	80
0.15200	75
0.15567	67
0.15933	60
0.16300	53
0.16667	47
0.17033	43
0.17400	40
0.17767	40
0.18133	43
0.18500	43
0.18867	43
0.19233	44
0.19600	43
0.19967	42
0.20333	41
0.20700	39
0.21067	35
0.21433	32
0.21800	28
0.22167	24
0.22533	21
0.22900	18
0.23267	19
0.23633	21
0.24000	23
0.24367	25
0.24733	20
0.25100	13
0.25467	9
0.25833	5
0.26200	4
0.26567	7
0.26933	15
0.27300	17
0.27667	14
0.28033	8
0.28400	7
0.28767	10
0.29133	14
0.29500	15
0.29867	11
0.30233	3
0.30600	-4
0.30967	-6
0.31333	-4
0.31700	-1
0.32067	-1
0.32433	-6
0.32800	-11
0.33167	-14
0.33533	-12
0.33900	0
0.34267	22
0.34633	42
0.35000	51
0.35367	51
0.35733	44
0.36100	34
0.36467	23
0.36833	6
0.37200	-11
0.37567	-21
0.37933	-30
0.38300	-38
0.38667	-41
0.39033	-38
0.39400	-30
0.39767	-23
0.40133	-18
0.40500	-11
0.40867	-1
0.41233	5
0.41600	7
0.41967	2
0.42333	-9
0.42700	-14
0.43067	-15
0.43433	-15
0.43800	-12
0.44167	-5
0.44533	6
0.44900	11
0.45267	10
0.45633	8
0.46000	6
0.46367	1
0.46733	-4
0.47100	-9
0.47467	-13
0.47833	-9
0.48200	-4
0.48567	-4
0.48933	-5
0.49300	-5
0.49667	-1
0.50033	7
0.50400	20
0.50767	31
0.51133	34
0.51500	32
0.51867	25
0.52233	15
0.52600	10
0.52967	11
0.53333	15
0.53700	18
0.54067	19
0.54433	20
0.54800	18
0.55167	14
0.55533	13
0.55900	17
0.56267	17
0.56633	12
0.57000	8
0.57367	12
0.57733	27
0.58100	44
0.58467	56
0.58833	60
0.59200	62
0.59567	65
0.59933	67
0.60300	64
0.60667	55
0.61033	42
0.61400	28
0.61767	18
0.62133	15
0.62500	13
0.62867	7
0.63233	-0
0.63600	-5
0.63967	-5
0.64333	2
0.64700	11
0.65067	20
0.65433	24
0.65800	25
0.66167	25
0.66533	29
0.66900	35
0.67267	38
0.67633	34
0.68000	28
0.68367	24
0.68733	26
0.69100	32
0.69467	36
0.69833	36
0.70200	31
0.70567	29
0.70933	28
0.71300	24
0.71667	18
0.72033	11
0.72400	8
0.72767	11
0.73133	18
0.73500	28
0.73867	32
0.74233	30
0.74600	28
0.74967	26
0.75333	25
0.75700	24
0.76067	25
0.76433	25
0.76800	28
0.77167	37
0.77533	46
0.77900	54
0.78267	58
0.78633	60
0.79000	54
0.79367	44
0.79733	34
0.80100	28
0.80467	26
0.80833	29
0.81200	33
0.81567	33
0.81933	29
0.82300	23
0.82667	20
0.83033	19
0.83400	22
0.83767	28
0.84133	37
0.84500	45
0.84867	50
0.85233	51
0.85600	49
0.85967	42
0.86333	33
0.86700	22
0.87067	12
0.87433	1
0.87800	-8
0.88167	-12
0.88533	-7
0.88900	2
0.89267	6
0.89633	6
0.90000	8
0.90367	10
0.90733	8
0.91100	3
0.91467	-2
0.91833	-5
0.92200	-3
0.92567	1
0.92933	5
0.93300	6
0.93667	5
0.94033	6
0.94400	11
0.94767	17
0.95133	19
0.95500	18
0.95867	14
0.96233	11
0.96600	10
0.96967	9
0.97333	10
0.97700	12
0.98067	12
0.98433	11
0.98800	9
0.99167	5
0.99533	7
0.99900	13
1.00267	20
1.00633	21
1.01000	19
1.01367	19
1.01733	21
1.02100	21
1.02467	17
1.02833	9
1.03200	-1
1.03567	-11
1.03933	-21
1.04300	-30
1.04667	-36
1.05033	-38
1.05400	-37
1.05767	-35
1.06133	-31
1.06500	-22
1.06867	-11
1.07233	-7
1.07600	-12
1.07967	-20
1.08333	-27
1.08700	-36
1.09067	-43
1.09433	-47
1.09800	-44
1.10167	-38
1.10533	-33
1.10900	-27
1.11267	-20
1.11633	-12
1.12000	-5
1.12367	-4
1.12733	-8
1.13100	-14
1.13467	-19
1.13833	-24
1.14200	-29
1.14567	-32
1.14933	-35
1.15300	-36
1.15667	-31
1.16033	-27
1.16400	-21
1.16767	-13
1.17133	-6
1.17500	-4
1.17867	-5
1.18233	-9
1.18600	-13
1.18967	-21
1.19333	-32
1.19700	-42
1.20067	-47
1.20433	-47
1.20800	-45
1.21167	-41
1.21533	-35
1.21900	-29
1.22267	-28
1.22633	-30
1.23000	-30
1.23367	-30
1.23733	-28
1.24100	-26
1.24467	-26
1.24833	-26
1.25200	-24
1.25567	-20
1.25933	-14
1.26300	-8
1.26667	-6
1.27033	-10
1.27400	-21
1.27767	-36
1.28133	-48
1.28500	-56
1.28867	-60
1.29233	-60
1.29600	-59
1.29967	-59
1.30333	-59
1.30700	-58
1.31067	-52
1.31433	-46
1.31800	-42
1.32167	-41
1.32533	-44
1.32900	-47
1.33267	-48
1.33633	-47
1.34000	-40
1.34367	-31
1.34733	-24
1.35100	-26
1.35467	-32
1.35833	-42
1.36200	-50
1.36567	-55
1.36933	-59
1.37300	-63
1.37667	-63
1.38033	-62
1.38400	-63
1.38767	-63
1.39133	-59
1.39500	-53
1.39867	-50
1.40233	-48
1.40600	-46
1.40967	-44
1.41333	-43
1.41700	-43
1.42067	-47
1.42433	-52
1.42800	-55
1.43167	-54
1.43533	-47
1.43900	-22
1.44267	73
1.44633	310
1.45000	877
1.45367	2188
1.45733	4384
1.46100	7049
1.46467	9610
1.46833	11701
1.47200	13145
1.47567	13811
1.47933	13577
1.48300	12447
1.48667	10647
1.49033	8561
1.49400	6555
1.49767	4845
1.50133	3500
1.50500	2496
1.50867	1773
1.51233	1271
1.51600	928
1.51967	690
1.52333	518
1.52700	391
1.53067	303
1.53433	245
1.53800	219
1.54167	260
1.54533	430
1.54900	755
1.55267	1179
1.55633	1606
1.56000	1963
1.56367	2216
1.56733	2346
1.57100	2317
1.57467	2115
1.57833	1782
1.58200	1396
1.58567	1035
1.58933	739
1.59300	514
1.59667	351
1.60033	240
1.60400	169
1.60767	119
1.61133	81
1.61500	56
1.61867	37
1.62233	23
1.62600	15
1.62967	10
1.63333	4
1.63700	-2
1.64067	-10
1.64433	-15
1.64800	-19
1.65167	-25
1.65533	-31
1.65900	-35
1.66267	-34
1.66633	-29
1.67000	-25
1.67367	-22
1.67733	-20
1.68100	-18
1.68467	-18
1.68833	-21
1.69200	-25
1.69567	-31
1.69933	-37
1.70300	-38
1.70667	-37
1.71033	-36
1.71400	-37
1.71767	-41
1.72133	-48
1.72500	-58
1.72867	-68
1.73233	-74
1.73600	-71
1.73967	-63
1.74333	-56
1.74700	-55
1.75067	-58
1.75433	-55
1.75800	-54
1.76167	-55
1.76533	-57
1.76900	-61
1.77267	-60
1.77633	-54
1.78000	-49
1.78367	-49
1.78733	-50
1.79100	-52
1.79467	-54
1.79833	-56
1.80200	-60
1.80567	-64
1.80933	-66
1.81300	-67
1.81667	-69
1.82033	-68
1.82400	-67
1.82767	-64
1.83133	-58
1.83500	-55
1.83867	-59
1.84233	-64
1.84600	-65
1.84967	-64
1.85333	-61
1.85700	-57
1.86067	-54
1.86433	-52
1.86800	-52
1.87167	-56
1.87533	-59
1.87900	-59
1.88267	-58
1.88633	-60
1.89000	-65
1.89367	-70
1.89733	-72
1.90100	-66
1.90467	-59
1.90833	-56
1.91200	-59
1.91567	-64
1.91933	-65
1.92300	-61
1.92667	-57
1.93033	-55
1.93400	-51
1.93767	-48
1.94133	-45
1.94500	-46
1.94867	-48
1.95233	-36
1.95600	82
1.95967	800
1.96333	4083
1.96700	15413
1.97067	45362
1.97433	106758
1.97800	205828
1.98167	334246
1.98533	471534
1.98900	593946
1.99267	681906
1.99633	722887
2.00000	711882
2.00367	653320
2.00733	560937
2.01100	453391
2.01467	348116
2.01833	256705
2.02200	183922
2.02567	129481
2.02933	90508
2.03300	63428
2.03667	44953
2.04033	32465
2.04400	24034
2.04767	18315
2.05133	14394
2.05500	11659
2.05867	9703
2.06233	8269
2.06600	7184
2.06967	6342
2.07333	5675
2.07700	5136
2.08067	4696
2.08433	4328
2.08800	4012
2.09167	3737
2.09533	3497
2.09900	3287
2.10267	3102
2.10633	2939
2.11000	2791
2.11367	2657
2.11733	2534
2.12100	2419
2.12467	2307
2.12833	2205
2.13200	2112
2.13567	2028
2.13933	1951
2.14300	1879
2.14667	1809
2.15033	1740
2.15400	1672
2.15767	1611
2.16133	1557
2.16500	1506
2.16867	1457
2.17233	1413
2.17600	1374
2.17967	1339
2.18333	1308
2.18700	1279
2.19067	1244
2.19433	1204
2.19800	1167
2.20167	1130
2.20533	1091
2.20900	1058
2.21267	1031
2.21633	1010
2.22000	990
2.22367	971
2.22733	949
2.23100	926
2.23467	907
2.23833	891
2.24200	876
2.24567	860
2.24933	843
2.25300	825
2.25667	805
2.26033	787
2.26400	771
2.26767	753
2.27133	736
2.27500	718
2.27867	697
2.28233	676
2.28600	659
2.28967	649
2.29333	644
2.29700	639
2.30067	629
2.30433	618
2.30800	612
2.31167	610
2.31533	603
2.31900	593
2.32267	584
2.32633	578
2.33000	572
2.33367	565
2.33733	557
2.34100	549
2.34467	545
2.34833	541
2.35200	535
2.35567	530
2.35933	520
2.36300	509
2.36667	493
2.37033	474
2.37400	460
2.37767	452
2.38133	447
2.38500	441
2.38867	438
2.39233	440
2.39600	440
2.39967	438
2.40333	434
2.40700	430
2.41067	428
2.41433	424
2.41800	421
2.42167	419
2.42533	419
2.42900	417
2.43267	415
2.43633	410
2.44000	400
2.44367	388
2.44733	378
2.45100	372
2.45467	368
2.45833	359
2.46200	351
2.46567	346
2.46933	345
2.47300	344
2.47667	343
2.48033	342
2.48400	341
2.48767	342
2.49133	342
2.49500	344
2.49867	343
2.50233	341
2.50600	338
2.50967	335
2.51333	334
2.51700	330
2.52067	326
2.52433	324
2.52800	326
2.53167	331
2.53533	334
2.53900	332
2.54267	325
2.54633	320
2.55000	317
2.55367	314
2.55733	311
2.56100	311
2.56467	316
2.56833	320
2.57200	321
2.57567	315
2.57933	304
2.58300	289
2.58667	279
2.59033	272
2.59400	266
2.59767	264
2.60133	266
2.60500	270
2.60867	273
2.61233	274
2.61600	272
2.61967	267
2.62333	263
2.62700	263
2.63067	266
2.63433	270
2.63800	271
2.64167	268
2.64533	266
2.64900	264
2.65267	261
2.65633	256
2.66000	249
2.66367	242
2.66733	239
2.67100	238
2.67467	238
2.67833	238
2.68200	240
2.68567	239
2.68933	234
2.69300	230
2.69667	228
2.70033	229
2.70400	235
2.70767	241
2.71133	246
2.71500	250
2.71867	256
2.72233	258
2.72600	257
2.72967	254
2.73333	252
2.73700	248
2.74067	243
2.74433	242
2.74800	244
2.75167	243
2.75533	238
2.75900	227
2.76267	218
2.76633	214
2.77000	214
2.77367	215
2.77733	221
2.78100	231
2.78467	241
2.78833	244
2.79200	240
2.79567	238
2.79933	236
2.80300	233
2.80667	226
2.81033	220
2.81400	217
2.81767	213
2.82133	211
2.82500	212
2.82867	215
2.83233	218
2.83600	225
2.83967	231
2.84333	234
2.84700	235
2.85067	238
2.85433	239
2.85800	237
2.86167	235
2.86533	233
2.86900	229
2.87267	226
2.87633	222
2.88000	216
2.88367	212
2.88733	214
2.89100	217
2.89467	215
2.89833	211
2.90200	208
2.90567	208
2.90933	208
2.91300	209
2.91667	214
2.92033	218
2.92400	220
2.92767	216
2.93133	207
2.93500	197
2.93867	189
2.94233	189
2.94600	199
2.94967	208
2.95333	213
2.95700	213
2.96067	214
2.96433	212
2.96800	206
2.97167	202
2.97533	201
2.97900	200
2.98267	200
2.98633	201
2.99000	202
2.99367	203
2.99733	205
3.00100	209
3.00467	215
3.00833	218
3.01200	217
3.01567	211
3.01933	205
3.02300	203
3.02667	203
3.03033	205
3.03400	204
3.03767	200
3.04133	197
3.04500	198
3.04867	199
3.05233	201
3.05600	202
3.05967	205
3.06333	209
3.06700	213
3.07067	214
3.07433	210
3.07800	207
3.08167	209
3.08533	216
3.08900	220
3.09267	218
3.09633	210
3.10000	200
3.10367	192
3.10733	186
3.11100	181
3.11467	182
3.11833	187
3.12200	185
3.12567	183
3.12933	182
3.13300	182
3.13667	181
3.14033	181
3.14400	183
3.14767	185
3.15133	186
3.15500	188
3.15867	189
3.16233	185
3.16600	183
3.16967	185
3.17333	190
3.17700	197
3.18067	203
3.18433	200
3.18800	191
3.19167	183
3.19533	177
3.19900	174
3.20267	171
3.20633	169
3.21000	169
3.21367	172
3.21733	177
3.22100	178
3.22467	174
3.22833	170
3.23200	165
3.23567	159
3.23933	154
3.24300	154
3.24667	161
3.25033	165
3.25400	167
3.25767	170
3.26133	175
3.26500	182
3.26867	186
3.27233	188
3.27600	185
3.27967	183
3.28333	181
3.28700	180
3.29067	177
3.29433	175
3.29800	171
3.30167	163
3.30533	153
3.30900	147
3.31267	143
3.31633	144
3.32000	151
3.32367	157
3.32733	157
3.33100	153
3.33467	149
3.33833	150
3.34200	152
3.34567	150
3.34933	152
3.35300	155
3.35667	162
3.36033	167
3.36400	168
3.36767	170
3.37133	171
3.37500	172
3.37867	171
3.38233	167
3.38600	162
3.38967	159
3.39333	154
3.39700	150
3.40067	147
3.40433	148
3.40800	151
3.41167	156
3.41533	161
3.41900	168
3.42267	171
3.42633	171
3.43000	165
3.43367	158
3.43733	153
3.44100	152
3.44467	151
3.44833	150
3.45200	147
3.45567	146
3.45933	145
3.46300	145
3.46667	143
3.47033	142
3.47400	140
3.47767	142
3.48133	146
3.48500	148
3.48867	149
3.49233	150
3.49600	147
3.49967	141
3.50333	138
3.50700	136
3.51067	136
3.51433	137
3.51800	138
3.52167	143
3.52533	149
3.52900	152
3.53267	153
3.53633	150
3.54000	143
3.54367	139
3.54733	138
3.55100	136
3.55467	133
3.55833	129
3.56200	127
3.56567	127
3.56933	127
3.57300	132
3.57667	138
3.58033	143
3.58400	144
3.58767	145
3.59133	142
3.59500	135
3.59867	128
3.60233	122
3.60600	117
3.60967	115
3.61333	113
3.61700	110
3.62067	106
3.62433	104
3.62800	104
3.63167	108
3.63533	113
3.63900	121
3.64267	134
3.64633	146
3.65000	147
3.65367	140
3.65733	133
3.66100	129
3.66467	127
3.66833	128
3.67200	129
3.67567	129
3.67933	130
3.68300	132
3.68667	134
3.69033	140
3.69400	147
3.69767	151
3.70133	152
3.70500	150
3.70867	148
3.71233	141
3.71600	132
3.71967	124
3.72333	121
3.72700	120
3.73067	116
3.73433	113
3.73800	111
3.74167	110
3.74533	109
3.74900	105
3.75267	99
3.75633	96
3.76000	99
3.76367	103
3.76733	106
3.77100	111
3.77467	119
3.77833	129
3.78200	135
3.78567	135
3.78933	134
3.79300	127
3.79667	115
3.80033	101
3.80400	92
3.80767	86
3.81133	84
3.81500	82
3.81867	78
3.82233	78
3.82600	81
3.82967	89
3.83333	97
3.83700	100
3.84067	100
3.84433	98
3.84800	97
3.85167	95
3.85533	98
3.85900	102
3.86267	105
3.86633	105
3.87000	107
3.87367	109
3.87733	110
3.88100	110
3.88467	108
3.88833	104
3.89200	103
3.89567	104
3.89933	103
3.90300	97
3.90667	95
3.91033	97
3.91400	101
3.91767	103
3.92133	105
3.92500	107
3.92867	107
3.93233	104
3.93600	99
3.93967	98
3.94333	99
3.94700	100
3.95067	97
3.95433	94
3.95800	94
3.96167	93
3.96533	91
3.96900	88
3.97267	86
3.97633	86
3.98000	90
3.98367	93
3.98733	96
3.99100	98
3.99467	98
3.99833	100

[Chromatogram (Ch2)]
Interval(msec)	220
# of Points	1091
Start Time(min)	0.002
End Time(min)	3.998
R.Time (min)	Intensity
0.00167	-0
0.00533	-0
0.00900	-0
0.01267	-0
0.01633	0
0.02000	0
0.02367	0
0.02733	1
0.03100	1
0.03467	1
0.03833	1
0.04200	1
0.04567	1
0.04933	1
0.05300	1
0.05667	1
0.06033	1
0.06400	-0
0.06767	-1
0.07133	-1
0.07500	-2
0.07867	-3
0.08233	-3
0.08600	-3
0.08967	-3
0.09333	-3
0.09700	-3
0.10067	-4
0.10433	-4
0.10800	-4
0.11167	-4
0.11533	-4
0.11900	-4
0.12267	-5
0.12633	-5
0.13000	-5
0.13367	-5
0.13733	-5
0.14100	-5
0.14467	-5
0.14833	-5
0.15200	-5
0.15567	-5
0.15933	-5
0.16300	-4
0.16667	-4
0.17033	-4
0.17400	-4
0.17767	-4
0.18133	-3
0.18500	-3
0.18867	-3
0.19233	-3
0.19600	-3
0.19967	-2
0.20333	-2
0.20700	-2
0.21067	-2
0.21433	-1
0.21800	-2
0.22167	-2
0.22533	-2
0.22900	-2
0.23267	-2
0.23633	-1
0.24000	-1
0.24367	-1
0.24733	-1
0.25100	-1
0.25467	-1
0.25833	-0
0.26200	-1
0.26567	-1
0.26933	-1
0.27300	-1
0.27667	-1
0.28033	-1
0.28400	-1
0.28767	-1
0.29133	-1
0.29500	-1
0.29867	-1
0.30233	-2
0.30600	-2
0.30967	-2
0.31333	-2
0.31700	-3
0.32067	-3
0.32433	-3
0.32800	-3
0.33167	-4
0.33533	-4
0.33900	-4
0.34267	-4
0.34633	-4
0.35000	-5
0.35367	-5
0.35733	-5
0.36100	-5
0.36467	-5
0.36833	-5
0.37200	-6
0.37567	-5
0.37933	-5
0.38300	-5
0.38667	-5
0.39033	-5
0.39400	-5
0.39767	-5
0.40133	-4
0.40500	-4
0.40867	-4
0.41233	-4
0.41600	-3
0.41967	-3
0.42333	-3
0.42700	-3
0.43067	-2
0.43433	-2
0.43800	-2
0.44167	-2
0.44533	-2
0.44900	-2
0.45267	-2
0.45633	-2
0.46000	-2
0.46367	-2
0.46733	-2
0.47100	-2
0.47467	-2
0.47833	-2
0.48200	-3
0.48567	-3
0.48933	-3
0.49300	-3
0.49667	-3
0.50033	-4
0.50400	-4
0.50767	-3
0.51133	-3
0.51500	-3
0.51867	-3
0.52233	-3
0.52600	-3
0.52967	-2
0.53333	-2
0.53700	-2
0.54067	-2
0.54433	-2
0.54800	-2
0.55167	-3
0.55533	-3
0.55900	-3
0.56267	-3
0.56633	-4
0.57000	-4
0.57367	-4
0.57733	-4
0.58100	-5
0.58467	-5
0.58833	-5
0.59200	-5
0.59567	-5
0.59933	-5
0.60300	-4
0.60667	-4
0.61033	-4
0.61400	-4
0.61767	-4
0.62133	-4
0.62500	-4
0.62867	-4
0.63233	-4
0.63600	-4
0.63967	-4
0.64333	-4
0.64700	-4
0.65067	-4
0.65433	-4
0.65800	-4
0.66167	-4
0.66533	-4
0.66900	-3
0.67267	-3
0.67633	-3
0.68000	-3
0.68367	-3
0.68733	-3
0.69100	-3
0.69467	-3
0.69833	-4
0.70200	-4
0.70567	-4
0.70933	-4
0.71300	-4
0.71667	-4
0.72033	-4
0.72400	-4
0.72767	-5
0.73133	-5
0.73500	-5
0.73867	-5
0.74233	-5
0.74600	-5
0.74967	-6
0.75333	-6
0.75700	-6
0.76067	-6
0.76433	-6
0.76800	-6
0.77167	-6
0.77533	-6
0.77900	-5
0.78267	-5
0.78633	-5
0.79000	-4
0.79367	-4
0.79733	-4
0.80100	-4
0.80467	-4
0.80833	-4
0.81200	-4
0.81567	-4
0.81933	-4
0.82300	-4
0.82667	-4
0.83033	-4
0.83400	-4
0.83767	-4
0.84133	-4
0.84500	-4
0.84867	-4
0.85233	-4
0.85600	-4
0.85967	-3
0.86333	-3
0.86700	-3
0.87067	-3
0.87433	-3
0.87800	-3
0.88167	-3
0.88533	-3
0.88900	-3
0.89267	-3
0.89633	-2
0.90000	-2
0.90367	-2
0.90733	-2
0.91100	-2
0.91467	-2
0.91833	-2
0.92200	-3
0.92567	-3
0.92933	-3
0.93300	-3
0.93667	-3
0.94033	-4
0.94400	-4
0.94767	-3
0.95133	-3
0.95500	-3
0.95867	-3
0.96233	-3
0.96600	-3
0.96967	-3
0.97333	-4
0.97700	-4
0.98067	-4
0.98433	-4
0.98800	-4
0.99167	-5
0.99533	-5
0.99900	-5
1.00267	-5
1.00633	-5
1.01000	-5
1.01367	-5
1.01733	-6
1.02100	-6
1.02467	-6
1.02833	-6
1.03200	-6
1.03567	-6
1.03933	-7
1.04300	-7
1.04667	-7
1.05033	-6
1.05400	-6
1.05767	-6
1.06133	-6
1.06500	-6
1.06867	-6
1.07233	-6
1.07600	-7
1.07967	-7
1.08333	-7
1.08700	-7
1.09067	-7
1.09433	-7
1.09800	-7
1.10167	-6
1.10533	-6
1.10900	-5
1.11267	-5
1.11633	-5
1.12000	-5
1.12367	-5
1.12733	-5
1.13100	-5
1.13467	-5
1.13833	-5
1.14200	-5
1.14567	-6
1.14933	-6
1.15300	-6
1.15667	-6
1.16033	-6
1.16400	-5
1.16767	-5
1.17133	-5
1.17500	-5
1.17867	-5
1.18233	-5
1.18600	-5
1.18967	-5
1.19333	-5
1.19700	-5
1.20067	-5
1.20433	-6
1.20800	-6
1.21167	-6
1.21533	-6
1.21900	-6
1.22267	-6
1.22633	-6
1.23000	-5
1.23367	-5
1.23733	-5
1.24100	-5
1.24467	-5
1.24833	-5
1.25200	-5
1.25567	-5
1.25933	-5
1.26300	-5
1.26667	-5
1.27033	-5
1.27400	-5
1.27767	-5
1.28133	-5
1.28500	-6
1.28867	-6
1.29233	-6
1.29600	-6
1.29967	-6
1.30333	-6
1.30700	-6
1.31067	-6
1.31433	-6
1.31800	-6
1.32167	-6
1.32533	-6
1.32900	-6
1.33267	-6
1.33633	-6
1.34000	-6
1.34367	-6
1.34733	-6
1.35100	-5
1.35467	-5
1.35833	-4
1.36200	-4
1.36567	-3
1.36933	-2
1.37300	-2
1.37667	-2
1.38033	-1
1.38400	-1
1.38767	-1
1.39133	-1
1.39500	-1
1.39867	-1
1.40233	-1
1.40600	-1
1.40967	-1
1.41333	-1
1.41700	-2
1.42067	-2
1.42433	-2
1.42800	-3
1.43167	-3
1.43533	-3
1.43900	-4
1.44267	-4
1.44633	-4
1.45000	-4
1.45367	-4
1.45733	-4
1.46100	-4
1.46467	-4
1.46833	-4
1.47200	-4
1.47567	-4
1.47933	-3
1.48300	-3
1.48667	-4
1.49033	-4
1.49400	-4
1.49767	-5
1.50133	-5
1.50500	-5
1.50867	-6
1.51233	-6
1.51600	-6
1.51967	-6
1.52333	-6
1.52700	-7
1.53067	-7
1.53433	-7
1.53800	-7
1.54167	-7
1.54533	-7
1.54900	-7
1.55267	-6
1.55633	-6
1.56000	-6
1.56367	-6
1.56733	-6
1.57100	-5
1.57467	-5
1.57833	-5
1.58200	-5
1.58567	-5
1.58933	-6
1.59300	-6
1.59667	-7
1.60033	-8
1.60400	-9
1.60767	-10
1.61133	-12
1.61500	-14
1.61867	-17
1.62233	-19
1.62600	-23
1.62967	-26
1.63333	-30
1.63700	-33
1.64067	-37
1.64433	-41
1.64800	-44
1.65167	-48
1.65533	-51
1.65900	-55
1.66267	-59
1.66633	-63
1.67000	-68
1.67367	-73
1.67733	-78
1.68100	-83
1.68467	-88
1.68833	-92
1.69200	-96
1.69567	-99
1.69933	-101
1.70300	-103
1.70667	-105
1.71033	-106
1.71400	-108
1.71767	-109
1.72133	-110
1.72500	-111
1.72867	-112
1.73233	-113
1.73600	-113
1.73967	-114
1.74333	-114
1.74700	-115
1.75067	-115
1.75433	-115
1.75800	-116
1.76167	-116
1.76533	-117
1.76900	-117
1.77267	-117
1.77633	-118
1.78000	-118
1.78367	-118
1.78733	-118
1.79100	-118
1.79467	-118
1.79833	-119
1.80200	-119
1.80567	-119
1.80933	-119
1.81300	-119
1.81667	-119
1.82033	-119
1.82400	-120
1.82767	-120
1.83133	-120
1.83500	-121
1.83867	-121
1.84233	-121
1.84600	-121
1.84967	-120
1.85333	-120
1.85700	-120
1.86067	-120
1.86433	-120
1.86800	-120
1.87167	-120
1.87533	-121
1.87900	-121
1.88267	-121
1.88633	-121
1.89000	-120
1.89367	-120
1.89733	-119
1.90100	-119
1.90467	-119
1.90833	-119
1.91200	-118
1.91567	-117
1.91933	-117
1.92300	-116
1.92667	-116
1.93033	-116
1.93400	-117
1.93767	-117
1.94133	-117
1.94500	-117
1.94867	-117
1.95233	-117
1.95600	-117
1.95967	-117
1.96333	-116
1.96700	-116
1.97067	-116
1.97433	-116
1.97800	-115
1.98167	-115
1.98533	-114
1.98900	-113
1.99267	-112
1.99633	-111
2.00000	-110
2.00367	-109
2.00733	-108
2.01100	-107
2.01467	-107
2.01833	-107
2.02200	-108
2.02567	-108
2.02933	-108
2.03300	-109
2.03667	-109
2.04033	-109
2.04400	-109
2.04767	-109
2.05133	-109
2.05500	-109
2.05867	-109
2.06233	-108
2.06600	-108
2.06967	-108
2.07333	-108
2.07700	-108
2.08067	-108
2.08433	-107
2.08800	-107
2.09167	-106
2.09533	-106
2.09900	-106
2.10267	-105
2.10633	-104
2.11000	-103
2.11367	-103
2.11733	-102
2.12100	-102
2.12467	-102
2.12833	-102
2.13200	-102
2.13567	-101
2.13933	-101
2.14300	-101
2.14667	-100
2.15033	-100
2.15400	-100
2.15767	-101
2.16133	-101
2.16500	-101
2.16867	-101
2.17233	-101
2.17600	-100
2.17967	-100
2.18333	-99
2.18700	-99
2.19067	-98
2.19433	-98
2.19800	-98
2.20167	-98
2.20533	-98
2.20900	-98
2.21267	-97
2.21633	-97
2.22000	-96
2.22367	-95
2.22733	-94
2.23100	-94
2.23467	-93
2.23833	-93
2.24200	-92
2.24567	-92
2.24933	-92
2.25300	-91
2.25667	-91
2.26033	-92
2.26400	-91
2.26767	-91
2.27133	-91
2.27500	-90
2.27867	-90
2.28233	-89
2.28600	-89
2.28967	-88
2.29333	-88
2.29700	-87
2.30067	-87
2.30433	-87
2.30800	-87
2.31167	-86
2.31533	-86
2.31900	-85
2.32267	-85
2.32633	-84
2.33000	-84
2.33367	-83
2.33733	-83
2.34100	-83
2.34467	-82
2.34833	-83
2.35200	-83
2.35567	-83
2.35933	-84
2.36300	-83
2.36667	-83
2.37033	-81
2.37400	-79
2.37767	-76
2.38133	-73
2.38500	-69
2.38867	-64
2.39233	-59
2.39600	-54
2.39967	-49
2.40333	-45
2.40700	-40
2.41067	-36
2.41433	-32
2.41800	-29
2.42167	-26
2.42533	-24
2.42900	-22
2.43267	-21
2.43633	-19
2.44000	-17
2.44367	-15
2.44733	-13
2.45100	-11
2.45467	-10
2.45833	-9
2.46200	-8
2.46567	-6
2.46933	-5
2.47300	-4
2.47667	-3
2.48033	-2
2.48400	-0
2.48767	1
2.49133	2
2.49500	4
2.49867	5
2.50233	6
2.50600	7
2.50967	8
2.51333	8
2.51700	9
2.52067	9
2.52433	10
2.52800	10
2.53167	10
2.53533	11
2.53900	11
2.54267	11
2.54633	12
2.55000	12
2.55367	12
2.55733	13
2.56100	13
2.56467	13
2.56833	12
2.57200	12
2.57567	12
2.57933	12
2.58300	12
2.58667	12
2.59033	12
2.59400	12
2.59767	13
2.60133	13
2.60500	13
2.60867	14
2.61233	14
2.61600	14
2.61967	14
2.62333	14
2.62700	14
2.63067	14
2.63433	14
2.63800	14
2.64167	14
2.64533	14
2.64900	15
2.65267	16
2.65633	16
2.66000	16
2.66367	17
2.66733	17
2.67100	17
2.67467	18
2.67833	18
2.68200	18
2.68567	19
2.68933	19
2.69300	19
2.69667	20
2.70033	20
2.70400	20
2.70767	21
2.71133	21
2.71500	21
2.71867	21
2.72233	21
2.72600	20
2.72967	20
2.73333	20
2.73700	20
2.74067	20
2.74433	21
2.74800	21
2.75167	21
2.75533	21
2.75900	22
2.76267	22
2.76633	23
2.77000	23
2.77367	23
2.77733	24
2.78100	24
2.78467	24
2.78833	24
2.79200	24
2.79567	24
2.79933	23
2.80300	23
2.80667	23
2.81033	23
2.81400	22
2.81767	22
2.82133	22
2.82500	22
2.82867	22
2.83233	22
2.83600	22
2.83967	21
2.84333	18
2.84700	14
2.85067	8
2.85433	-2
2.85800	-15
2.86167	-32
2.86533	-53
2.86900	-79
2.87267	-108
2.87633	-142
2.88000	-180
2.88367	-222
2.88733	-267
2.89100	-314
2.89467	-364
2.89833	-416
2.90200	-469
2.90567	-523
2.90933	-578
2.91300	-632
2.91667	-686
2.92033	-739
2.92400	-791
2.92767	-842
2.93133	-895
2.93500	-952
2.93867	-1012
2.94233	-1065
2.94600	-1101
2.94967	-1112
2.95333	-1097
2.95700	-1059
2.96067	-1001
2.96433	-931
2.96800	-853
2.97167	-772
2.97533	-691
2.97900	-614
2.98267	-541
2.98633	-473
2.99000	-412
2.99367	-357
2.99733	-308
3.00100	-265
3.00467	-227
3.00833	-193
3.01200	-164
3.01567	-140
3.01933	-118
3.02300	-99
3.02667	-83
3.03033	-69
3.03400	-58
3.03767	-48
3.04133	-39
3.04500	-32
3.04867	-25
3.05233	-20
3.05600	-16
3.05967	-12
3.06333	-8
3.06700	-5
3.07067	-2
3.07433	0
3.07800	2
3.08167	4
3.08533	5
3.08900	6
3.09267	7
3.09633	8
3.10000	9
3.10367	9
3.10733	10
3.11100	10
3.11467	11
3.11833	11
3.12200	12
3.12567	12
3.12933	12
3.13300	12
3.13667	13
3.14033	13
3.14400	13
3.14767	13
3.15133	13
3.15500	14
3.15867	14
3.16233	14
3.16600	14
3.16967	15
3.17333	15
3.17700	15
3.18067	15
3.18433	15
3.18800	15
3.19167	15
3.19533	16
3.19900	16
3.20267	16
3.20633	17
3.21000	17
3.21367	17
3.21733	18
3.22100	18
3.22467	18
3.22833	19
3.23200	19
3.23567	19
3.23933	19
3.24300	19
3.24667	20
3.25033	20
3.25400	20
3.25767	20
3.26133	21
3.26500	21
3.26867	21
3.27233	21
3.27600	21
3.27967	21
3.28333	20
3.28700	20
3.29067	21
3.29433	21
3.29800	21
3.30167	21
3.30533	22
3.30900	22
3.31267	22
3.31633	22
3.32000	22
3.32367	22
3.32733	22
3.33100	23
3.33467	23
3.33833	23
3.34200	23
3.34567	23
3.34933	23
3.35300	23
3.35667	23
3.36033	23
3.36400	23
3.36767	23
3.37133	23
3.37500	23
3.37867	23
3.38233	23
3.38600	23
3.38967	23
3.39333	23
3.39700	23
3.40067	23
3.40433	24
3.40800	24
3.41167	24
3.41533	24
3.41900	24
3.42267	24
3.42633	24
3.43000	24
3.43367	24
3.43733	24
3.44100	24
3.44467	24
3.44833	24
3.45200	24
3.45567	24
3.45933	24
3.46300	24
3.46667	24
3.47033	24
3.47400	24
3.47767	24
3.48133	24
3.48500	24
3.48867	24
3.49233	24
3.49600	25
3.49967	25
3.50333	25
3.50700	25
3.51067	25
3.51433	25
3.51800	25
3.52167	25
3.52533	25
3.52900	25
3.53267	25
3.53633	25
3.54000	25
3.54367	25
3.54733	24
3.55100	24
3.55467	24
3.55833	24
3.56200	24
3.56567	24
3.56933	24
3.57300	24
3.57667	23
3.58033	23
3.58400	23
3.58767	23
3.59133	23
3.59500	22
3.59867	22
3.60233	22
3.60600	22
3.60967	22
3.61333	22
3.61700	23
3.62067	23
3.62433	23
3.62800	23
3.63167	23
3.63533	23
3.63900	23
3.64267	23
3.64633	24
3.65000	24
3.65367	24
3.65733	24
3.66100	24
3.66467	25
3.66833	25
3.67200	25
3.67567	25
3.67933	26
3.68300	26
3.68667	26
3.69033	27
3.69400	27
3.69767	27
3.70133	28
3.70500	28
3.70867	28
3.71233	28
3.71600	28
3.71967	28
3.72333	28
3.72700	27
3.73067	27
3.73433	26
3.73800	26
3.74167	26
3.74533	26
3.74900	25
3.75267	25
3.75633	25
3.76000	25
3.76367	25
3.76733	24
3.77100	24
3.77467	24
3.77833	24
3.78200	24
3.78567	24
3.78933	24
3.79300	24
3.79667	24
3.80033	24
3.80400	24
3.80767	24
3.81133	24
3.81500	24
3.81867	24
3.82233	24
3.82600	24
3.82967	25
3.83333	25
3.83700	25
3.84067	25
3.84433	24
3.84800	24
3.85167	24
3.85533	24
3.85900	24
3.86267	24
3.86633	25
3.87000	25
3.87367	25
3.87733	25
3.88100	25
3.88467	25
3.88833	25
3.89200	25
3.89567	25
3.89933	25
3.90300	25
3.90667	25
3.91033	25
3.91400	24
3.91767	24
3.92133	24
3.92500	24
3.92867	24
3.93233	23
3.93600	23
3.93967	23
3.94333	23
3.94700	24
3.95067	24
3.95433	24
3.95800	24
3.96167	24
3.96533	24
3.96900	23
3.97267	24
3.97633	24
3.98000	24
3.98367	24
3.98733	24
3.99100	24
3.99467	24
3.99833	24

[Chromatogram (Ch3)]
Interval(msec)	220
# of Points	1091
Start Time(min)	0.002
End Time(min)	3.998
R.Time (min)	Intensity
0.00167	-1
0.00533	-1
0.00900	-0
0.01267	1
0.01633	0
0.02000	0
0.02367	-1
0.02733	-3
0.03100	-2
0.03467	1
0.03833	1
0.04200	3
0.04567	3
0.04933	1
0.05300	-1
0.05667	-1
0.06033	0
0.06400	1
0.06767	1
0.07133	2
0.07500	3
0.07867	3
0.08233	1
0.08600	-1
0.08967	0
0.09333	2
0.09700	4
0.10067	4
0.10433	2
0.10800	-0
0.11167	-3
0.11533	-4
0.11900	-3
0.12267	-4
0.12633	-2
0.13000	0
0.13367	2
0.13733	4
0.14100	5
0.14467	7
0.14833	7
0.15200	7
0.15567	5
0.15933	4
0.16300	2
0.16667	1
0.17033	2
0.17400	3
0.17767	1
0.18133	1
0.18500	0
0.18867	-0
0.19233	-1
0.19600	-3
0.19967	-3
0.20333	-4
0.20700	-4
0.21067	-2
0.21433	-3
0.21800	-2
0.22167	-2
0.22533	-0
0.22900	1
0.23267	3
0.23633	5
0.24000	6
0.24367	6
0.24733	6
0.25100	8
0.25467	7
0.25833	6
0.26200	5
0.26567	4
0.26933	2
0.27300	-1
0.27667	-1
0.28033	0
0.28400	1
0.28767	2
0.29133	1
0.29500	-1
0.29867	-1
0.30233	2
0.30600	4
0.30967	4
0.31333	4
0.31700	4
0.32067	6
0.32433	6
0.32800	6
0.33167	4
0.33533	4
0.33900	4
0.34267	3
0.34633	4
0.35000	7
0.35367	7
0.35733	5
0.36100	5
0.36467	4
0.36833	4
0.37200	4
0.37567	7
0.37933	8
0.38300	8
0.38667	9
0.39033	9
0.39400	9
0.39767	11
0.40133	12
0.40500	12
0.40867	9
0.41233	8
0.41600	8
0.41967	9
0.42333	10
0.42700	10
0.43067	10
0.43433	9
0.43800	9
0.44167	9
0.44533	6
0.44900	4
0.45267	4
0.45633	5
0.46000	7
0.46367	9
0.46733	12
0.47100	13
0.47467	13
0.47833	9
0.48200	7
0.48567	6
0.48933	6
0.49300	7
0.49667	8
0.50033	7
0.50400	9
0.50767	11
0.51133	10
0.51500	9
0.51867	8
0.52233	7
0.52600	7
0.52967	7
0.53333	8
0.53700	7
0.54067	8
0.54433	9
0.54800	9
0.55167	8
0.55533	6
0.55900	6
0.56267	5
0.56633	5
0.57000	5
0.57367	6
0.57733	6
0.58100	7
0.58467	7
0.58833	8
0.59200	8
0.59567	8
0.59933	9
0.60300	7
0.60667	7
0.61033	6
0.61400	6
0.61767	7
0.62133	9
0.62500	8
0.62867	8
0.63233	9
0.63600	9
0.63967	7
0.64333	6
0.64700	7
0.65067	9
0.65433	9
0.65800	11
0.66167	11
0.66533	11
0.66900	11
0.67267	11
0.67633	13
0.68000	13
0.68367	11
0.68733	10
0.69100	11
0.69467	11
0.69833	11
0.70200	9
0.70567	10
0.70933	11
0.71300	11
0.71667	13
0.72033	14
0.72400	13
0.72767	11
0.73133	11
0.73500	12
0.73867	15
0.74233	17
0.74600	19
0.74967	19
0.75333	17
0.75700	18
0.76067	17
0.76433	16
0.76800	16
0.77167	15
0.77533	14
0.77900	15
0.78267	15
0.78633	15
0.79000	14
0.79367	11
0.79733	14
0.80100	18
0.80467	20
0.80833	19
0.81200	18
0.81567	16
0.81933	14
0.82300	13
0.82667	14
0.83033	15
0.83400	20
0.83767	22
0.84133	22
0.84500	21
0.84867	22
0.85233	22
0.85600	20
0.85967	16
0.86333	15
0.86700	14
0.87067	15
0.87433	15
0.87800	14
0.88167	14
0.88533	15
0.88900	15
0.89267	13
0.89633	12
0.90000	12
0.90367	15
0.90733	18
0.91100	19
0.91467	18
0.91833	19
0.92200	19
0.92567	20
0.92933	20
0.93300	18
0.93667	16
0.94033	16
0.94400	18
0.94767	17
0.95133	16
0.95500	17
0.95867	17
0.96233	18
0.96600	19
0.96967	20
0.97333	18
0.97700	17
0.98067	16
0.98433	17
0.98800	20
0.99167	21
0.99533	20
0.99900	21
1.00267	21
1.00633	19
1.01000	18
1.01367	18
1.01733	19
1.02100	16
1.02467	15
1.02833	16
1.03200	16
1.03567	16
1.03933	15
1.04300	14
1.04667	15
1.05033	17
1.05400	19
1.05767	19
1.06133	16
1.06500	15
1.06867	17
1.07233	18
1.07600	18
1.07967	18
1.08333	18
1.08700	19
1.09067	19
1.09433	19
1.09800	18
1.10167	18
1.10533	21
1.10900	21
1.11267	21
1.11633	20
1.12000	20
1.12367	22
1.12733	22
1.13100	24
1.13467	24
1.13833	26
1.14200	28
1.14567	27
1.14933	25
1.15300	23
1.15667	21
1.16033	20
1.16400	21
1.16767	22
1.17133	21
1.17500	19
1.17867	19
1.18233	20
1.18600	23
1.18967	26
1.19333	28
1.19700	27
1.20067	26
1.20433	24
1.20800	25
1.21167	28
1.21533	27
1.21900	24
1.22267	19
1.22633	21
1.23000	24
1.23367	25
1.23733	27
1.24100	28
1.24467	28
1.24833	27
1.25200	26
1.25567	24
1.25933	25
1.26300	26
1.26667	27
1.27033	28
1.27400	28
1.27767	30
1.28133	31
1.28500	29
1.28867	25
1.29233	24
1.29600	25
1.29967	24
1.30333	23
1.30700	23
1.31067	24
1.31433	24
1.31800	24
1.32167	26
1.32533	28
1.32900	29
1.33267	31
1.33633	32
1.34000	32
1.34367	29
1.34733	28
1.35100	27
1.35467	27
1.35833	26
1.36200	26
1.36567	25
1.36933	25
1.37300	26
1.37667	27
1.38033	27
1.38400	26
1.38767	27
1.39133	27
1.39500	26
1.39867	25
1.40233	24
1.40600	23
1.40967	24
1.41333	24
1.41700	23
1.42067	20
1.42433	18
1.42800	18
1.43167	20
1.43533	22
1.43900	24
1.44267	27
1.44633	29
1.45000	29
1.45367	28
1.45733	28
1.46100	31
1.46467	31
1.46833	31
1.47200	32
1.47567	30
1.47933	29
1.48300	29
1.48667	32
1.49033	32
1.49400	32
1.49767	29
1.50133	26
1.50500	27
1.50867	27
1.51233	27
1.51600	28
1.51967	30
1.52333	30
1.52700	29
1.53067	28
1.53433	29
1.53800	31
1.54167	32
1.54533	32
1.54900	33
1.55267	32
1.55633	32
1.56000	31
1.56367	30
1.56733	29
1.57100	29
1.57467	30
1.57833	31
1.58200	29
1.58567	28
1.58933	28
1.59300	27
1.59667	27
1.60033	28
1.60400	28
1.60767	27
1.61133	28
1.61500	28
1.61867	29
1.62233	30
1.62600	31
1.62967	31
1.63333	30
1.63700	31
1.64067	35
1.64433	36
1.64800	36
1.65167	37
1.65533	37
1.65900	36
1.66267	36
1.66633	37
1.67000	41
1.67367	43
1.67733	44
1.68100	44
1.68467	45
1.68833	47
1.69200	46
1.69567	46
1.69933	46
1.70300	46
1.70667	45
1.71033	46
1.71400	48
1.71767	49
1.72133	50
1.72500	51
1.72867	51
1.73233	48
1.73600	46
1.73967	47
1.74333	50
1.74700	53
1.75067	54
1.75433	53
1.75800	51
1.76167	52
1.76533	53
1.76900	53
1.77267	54
1.77633	55
1.78000	57
1.78367	55
1.78733	55
1.79100	55
1.79467	56
1.79833	57
1.80200	59
1.80567	61
1.80933	61
1.81300	59
1.81667	58
1.82033	57
1.82400	59
1.82767	60
1.83133	61
1.83500	64
1.83867	67
1.84233	67
1.84600	65
1.84967	62
1.85333	59
1.85700	59
1.86067	59
1.86433	58
1.86800	60
1.87167	64
1.87533	64
1.87900	62
1.88267	63
1.88633	63
1.89000	65
1.89367	66
1.89733	66
1.90100	67
1.90467	68
1.90833	69
1.91200	68
1.91567	66
1.91933	67
1.92300	71
1.92667	73
1.93033	73
1.93400	74
1.93767	77
1.94133	78
1.94500	77
1.94867	76
1.95233	78
1.95600	78
1.95967	78
1.96333	78
1.96700	79
1.97067	83
1.97433	87
1.97800	89
1.98167	88
1.98533	88
1.98900	88
1.99267	88
1.99633	89
2.00000	90
2.00367	91
2.00733	92
2.01100	93
2.01467	94
2.01833	93
2.02200	93
2.02567	95
2.02933	96
2.03300	95
2.03667	96
2.04033	97
2.04400	98
2.04767	99
2.05133	100
2.05500	101
2.05867	101
2.06233	102
2.06600	105
2.06967	107
2.07333	108
2.07700	110
2.08067	114
2.08433	116
2.08800	118
2.09167	118
2.09533	117
2.09900	116
2.10267	116
2.10633	117
2.11000	119
2.11367	121
2.11733	122
2.12100	124
2.12467	124
2.12833	124
2.13200	126
2.13567	126
2.13933	125
2.14300	126
2.14667	129
2.15033	133
2.15400	136
2.15767	140
2.16133	139
2.16500	138
2.16867	139
2.17233	140
2.17600	140
2.17967	144
2.18333	147
2.18700	150
2.19067	153
2.19433	153
2.19800	153
2.20167	152
2.20533	153
2.20900	154
2.21267	158
2.21633	160
2.22000	160
2.22367	159
2.22733	159
2.23100	158
2.23467	161
2.23833	162
2.24200	164
2.24567	166
2.24933	168
2.25300	167
2.25667	166
2.26033	167
2.26400	168
2.26767	170
2.27133	172
2.27500	174
2.27867	178
2.28233	182
2.28600	185
2.28967	186
2.29333	187
2.29700	188
2.30067	190
2.30433	193
2.30800	197
2.31167	197
2.31533	198
2.31900	197
2.32267	198
2.32633	200
2.33000	201
2.33367	203
2.33733	205
2.34100	203
2.34467	204
2.34833	206
2.35200	209
2.35567	212
2.35933	216
2.36300	219
2.36667	221
2.37033	223
2.37400	225
2.37767	227
2.38133	229
2.38500	226
2.38867	224
2.39233	225
2.39600	228
2.39967	232
2.40333	236
2.40700	239
2.41067	241
2.41433	244
2.41800	246
2.42167	249
2.42533	252
2.42900	257
2.43267	261
2.43633	263
2.44000	266
2.44367	308
2.44733	423
2.45100	545
2.45467	643
2.45833	696
2.46200	687
2.46567	641
2.46933	589
2.47300	549
2.47667	523
2.48033	507
2.48400	488
2.48767	458
2.49133	424
2.49500	388
2.49867	357
2.50233	332
2.50600	315
2.50967	304
2.51333	297
2.51700	295
2.52067	301
2.52433	312
2.52800	328
2.53167	342
2.53533	349
2.53900	347
2.54267	340
2.54633	329
2.55000	311
2.55367	290
2.55733	269
2.56100	250
2.56467	234
2.56833	221
2.57200	210
2.57567	200
2.57933	194
2.58300	190
2.58667	188
2.59033	186
2.59400	182
2.59767	173
2.60133	162
2.60500	149
2.60867	134
2.61233	119
2.61600	104
2.61967	90
2.62333	79
2.62700	70
2.63067	63
2.63433	60
2.63800	63
2.64167	68
2.64533	76
2.64900	85
2.65267	96
2.65633	106
2.66000	115
2.66367	123
2.66733	129
2.67100	133
2.67467	132
2.67833	130
2.68200	126
2.68567	120
2.68933	113
2.69300	105
2.69667	100
2.70033	97
2.70400	94
2.70767	90
2.71133	87
2.71500	83
2.71867	79
2.72233	76
2.72600	76
2.72967	77
2.73333	78
2.73700	78
2.74067	76
2.74433	77
2.74800	80
2.75167	81
2.75533	83
2.75900	84
2.76267	85
2.76633	87
2.77000	89
2.77367	90
2.77733	88
2.78100	88
2.78467	87
2.78833	88
2.79200	91
2.79567	93
2.79933	95
2.80300	98
2.80667	101
2.81033	102
2.81400	105
2.81767	114
2.82133	135
2.82500	178
2.82867	264
2.83233	415
2.83600	651
2.83967	992
2.84333	1437
2.84700	1974
2.85067	2574
2.85433	3193
2.85800	3784
2.86167	4295
2.86533	4688
2.86900	4935
2.87267	5031
2.87633	4990
2.88000	4835
2.88367	4588
2.88733	4278
2.89100	3933
2.89467	3574
2.89833	3219
2.90200	2874
2.90567	2551
2.90933	2257
2.91300	1993
2.91667	1757
2.92033	1544
2.92400	1359
2.92767	1199
2.93133	1059
2.93500	938
2.93867	833
2.94233	742
2.94600	663
2.94967	593
2.95333	532
2.95700	479
2.96067	434
2.96433	392
2.96800	356
2.97167	325
2.97533	299
2.97900	276
2.98267	255
2.98633	237
2.99000	222
2.99367	207
2.99733	192
3.00100	179
3.00467	165
3.00833	126
3.01200	66
3.01567	13
3.01933	-7
3.02300	7
3.02667	40
3.03033	82
3.03400	127
3.03767	172
3.04133	216
3.04500	262
3.04867	307
3.05233	346
3.05600	383
3.05967	416
3.06333	444
3.06700	465
3.07067	483
3.07433	498
3.07800	510
3.08167	520
3.08533	528
3.08900	532
3.09267	537
3.09633	541
3.10000	544
3.10367	544
3.10733	545
3.11100	546
3.11467	546
3.11833	548
3.12200	549
3.12567	550
3.12933	549
3.13300	547
3.13667	548
3.14033	548
3.14400	547
3.14767	548
3.15133	549
3.15500	550
3.15867	553
3.16233	556
3.16600	557
3.16967	558
3.17333	562
3.17700	565
3.18067	564
3.18433	565
3.18800	567
3.19167	569
3.19533	572
3.19900	573
3.20267	574
3.20633	575
3.21000	577
3.21367	581
3.21733	584
3.22100	586
3.22467	589
3.22833	590
3.23200	590
3.23567	591
3.23933	593
3.24300	592
3.24667	592
3.25033	592
3.25400	594
3.25767	596
3.26133	597
3.26500	597
3.26867	595
3.27233	594
3.27600	595
3.27967	594
3.28333	594
3.28700	595
3.29067	595
3.29433	592
3.29800	590
3.30167	588
3.30533	587
3.30900	587
3.31267	586
3.31633	587
3.32000	587
3.32367	587
3.32733	586
3.33100	583
3.33467	580
3.33833	577
3.34200	577
3.34567	577
3.34933	576
3.35300	575
3.35667	573
3.36033	573
3.36400	574
3.36767	571
3.37133	568
3.37500	567
3.37867	565
3.38233	563
3.38600	562
3.38967	560
3.39333	558
3.39700	554
3.40067	553
3.40433	552
3.40800	552
3.41167	550
3.41533	548
3.41900	548
3.42267	548
3.42633	546
3.43000	546
3.43367	546
3.43733	544
3.44100	540
3.44467	539
3.44833	538
3.45200	534
3.45567	531
3.45933	530
3.46300	530
3.46667	530
3.47033	528
3.47400	526
3.47767	524
3.48133	522
3.48500	518
3.48867	513
3.49233	510
3.49600	510
3.49967	510
3.50333	509
3.50700	506
3.51067	504
3.51433	501
3.51800	498
3.52167	493
3.52533	490
3.52900	487
3.53267	486
3.53633	485
3.54000	482
3.54367	479
3.54733	479
3.55100	479
3.55467	479
3.55833	479
3.56200	477
3.56567	478
3.56933	476
3.57300	472
3.57667	469
3.58033	469
3.58400	470
3.58767	471
3.59133	471
3.59500	471
3.59867	473
3.60233	472
3.60600	472
3.60967	473
3.61333	471
3.61700	472
3.62067	472
3.62433	471
3.62800	473
3.63167	475
3.63533	475
3.63900	475
3.64267	474
3.64633	475
3.65000	476
3.65367	477
3.65733	475
3.66100	475
3.66467	474
3.66833	472
3.67200	470
3.67567	468
3.67933	467
3.68300	467
3.68667	466
3.69033	466
3.69400	467
3.69767	466
3.70133	464
3.70500	464
3.70867	466
3.71233	467
3.71600	468
3.71967	467
3.72333	466
3.72700	463
3.73067	462
3.73433	462
3.73800	461
3.74167	462
3.74533	463
3.74900	464
3.75267	464
3.75633	463
3.76000	462
3.76367	460
3.76733	461
3.77100	462
3.77467	464
3.77833	465
3.78200	465
3.78567	465
3.78933	463
3.79300	462
3.79667	464
3.80033	463
3.80400	461
3.80767	458
3.81133	455
3.81500	454
3.81867	453
3.82233	452
3.82600	452
3.82967	454
3.83333	455
3.83700	456
3.84067	454
3.84433	452
3.84800	450
3.85167	449
3.85533	448
3.85900	448
3.86267	446
3.86633	444
3.87000	443
3.87367	441
3.87733	440
3.88100	440
3.88467	439
3.88833	438
3.89200	439
3.89567	439
3.89933	437
3.90300	436
3.90667	437
3.91033	436
3.91400	436
3.91767	437
3.92133	435
3.92500	436
3.92867	434
3.93233	432
3.93600	430
3.93967	428
3.94333	427
3.94700	425
3.95067	423
3.95433	422
3.95800	422
3.96167	422
3.96533	424
3.96900	424
3.97267	421
3.97633	418
3.98000	415
3.98367	414
3.98733	413
3.99100	412
3.99467	408
3.99833	405

[Status Trace (Column Oven Temperature)]
Interval(msec)	1000
# of Points	240
Start Time(min)	0.002
End Time(min)	3.986
Intensity Units	
Intensity Multiplier	1
R.Time (min)	Intensity
0.00245	35.04
0.01912	35.03
0.03578	35.02
0.05245	35.01
0.06912	35.02
0.08578	35.03
0.10245	35.04
0.11912	35.05
0.13578	35.06
0.15245	35.05
0.16912	35.05
0.18578	35.05
0.20245	35.05
0.21912	35.03
0.23578	35.03
0.25245	35.02
0.26912	35.00
0.28578	35.01
0.30245	35.00
0.31912	35.01
0.33578	35.01
0.35245	35.02
0.36912	35.03
0.38578	35.02
0.40245	35.03
0.41912	35.03
0.43578	35.02
0.45245	35.01
0.46912	35.01
0.48578	35.01
0.50245	35.01
0.51912	35.01
0.53578	34.99
0.55245	34.99
0.56912	34.99
0.58578	35.00
0.60245	34.99
0.61912	35.00
0.63578	35.00
0.65245	35.00
0.66912	34.99
0.68578	34.99
0.70245	34.99
0.71912	35.00
0.73578	35.00
0.75245	35.01
0.76912	35.02
0.78578	35.02
0.80245	35.01
0.81912	35.01
0.83578	35.01
0.85245	35.01
0.86912	35.00
0.88578	34.99
0.90245	34.97
0.91912	34.98
0.93578	34.98
0.95245	34.98
0.96912	34.98
0.98578	34.98
1.00245	34.98
1.01912	34.99
1.03578	35.00
1.05245	35.00
1.06912	35.01
1.08578	35.02
1.10245	35.02
1.11912	35.02
1.13578	35.02
1.15245	35.02
1.16912	35.01
1.18578	35.01
1.20245	35.02
1.21912	35.01
1.23578	35.02
1.25245	35.02
1.26912	35.02
1.28578	35.01
1.30245	35.02
1.31912	35.03
1.33578	35.02
1.35245	35.01
1.36912	34.99
1.38578	34.97
1.40245	34.96
1.41912	34.96
1.43578	34.95
1.45245	34.95
1.46912	34.93
1.48578	34.94
1.50245	34.96
1.51912	34.96
1.53578	34.97
1.55245	34.98
1.56912	34.97
1.58578	34.98
1.60245	35.02
1.61912	35.12
1.63578	35.30
1.65245	35.52
1.66912	35.84
1.68578	36.22
1.70245	36.56
1.71912	36.91
1.73578	37.25
1.75245	37.57
1.76912	37.91
1.78578	38.22
1.80245	38.57
1.81912	38.89
1.83578	39.23
1.85245	39.55
1.86912	39.89
1.88578	40.22
1.90245	40.55
1.91912	40.87
1.93578	41.21
1.95245	41.55
1.96912	41.88
1.98578	42.20
2.00245	42.49
2.01912	42.81
2.03578	43.12
2.05245	43.45
2.06912	43.78
2.08578	44.11
2.10245	44.43
2.11912	44.76
2.13578	45.10
2.15245	45.42
2.16912	45.74
2.18578	46.08
2.20245	46.42
2.21912	46.74
2.23578	47.06
2.25245	47.40
2.26912	47.73
2.28578	48.05
2.30245	48.40
2.31912	48.72
2.33578	49.04
2.35245	49.36
2.36912	49.64
2.38578	49.77
2.40245	49.78
2.41912	49.77
2.43578	49.77
2.45245	49.77
2.46912	49.78
2.48578	49.77
2.50245	49.77
2.51912	49.77
2.53578	49.78
2.55245	49.78
2.56912	49.80
2.58578	49.82
2.60245	49.82
2.61912	49.82
2.63578	49.84
2.65245	49.84
2.66912	49.84
2.68578	49.84
2.70245	49.84
2.71912	49.85
2.73578	49.86
2.75245	49.85
2.76912	49.85
2.78578	49.85
2.80245	49.87
2.81912	49.88
2.83578	49.89
2.85245	49.88
2.86912	49.88
2.88578	49.89
2.90245	49.89
2.91912	49.90
2.93578	49.91
2.95245	49.93
2.96912	49.94
2.98578	49.95
3.00245	49.96
3.01912	49.97
3.03578	49.97
3.05245	49.98
3.06912	49.98
3.08578	49.98
3.10245	49.98
3.11912	50.00
3.13578	50.03
3.15245	50.04
3.16912	50.05
3.18578	50.06
3.20245	50.07
3.21912	50.07
3.23578	50.08
3.25245	50.08
3.26912	50.08
3.28578	50.09
3.30245	50.10
3.31912	50.10
3.33578	50.10
3.35245	50.09
3.36912	50.09
3.38578	50.09
3.40245	50.09
3.41912	50.09
3.43578	50.09
3.45245	50.09
3.46912	50.08
3.48578	50.07
3.50245	50.06
3.51912	50.06
3.53578	50.06
3.55245	50.06
3.56912	50.06
3.58578	50.08
3.60245	50.09
3.61912	50.10
3.63578	50.11
3.65245	50.11
3.66912	50.10
3.68578	50.08
3.70245	50.06
3.71912	50.04
3.73578	50.04
3.75245	50.05
3.76912	50.06
3.78578	50.06
3.80245	50.06
3.81912	50.05
3.83578	50.04
3.85245	50.04
3.86912	50.04
3.88578	50.03
3.90245	50.02
3.91912	50.02
3.93578	50.02
3.95245	50.02
3.96912	50.01
3.98578	50.01

[Status Trace (Injection Unit Temperature)]
Interval(msec)	1000
# of Points	240
Start Time(min)	0.002
End Time(min)	3.986
Intensity Units	
Intensity Multiplier	1
R.Time (min)	Intensity
0.00245	99.98
0.01912	99.98
0.03578	99.97
0.05245	99.98
0.06912	99.98
0.08578	99.98
0.10245	99.98
0.11912	99.98
0.13578	99.98
0.15245	99.98
0.16912	99.98
0.18578	99.98
0.20245	99.98
0.21912	99.98
0.23578	99.98
0.25245	99.98
0.26912	99.98
0.28578	99.98
0.30245	99.98
0.31912	99.98
0.33578	99.98
0.35245	99.98
0.36912	99.98
0.38578	99.98
0.40245	99.98
0.41912	99.98
0.43578	99.99
0.45245	99.98
0.46912	99.98
0.48578	99.98
0.50245	99.98
0.51912	99.98
0.53578	99.98
0.55245	99.99
0.56912	99.98
0.58578	99.98
0.60245	99.98
0.61912	99.98
0.63578	99.98
0.65245	99.98
0.66912	99.98
0.68578	99.98
0.70245	99.98
0.71912	99.98
0.73578	99.98
0.75245	99.99
0.76912	99.98
0.78578	99.98
0.80245	99.99
0.81912	99.98
0.83578	99.98
0.85245	99.98
0.86912	99.98
0.88578	99.98
0.90245	99.98
0.91912	99.98
0.93578	99.98
0.95245	99.98
0.96912	99.98
0.98578	99.98
1.00245	99.98
1.01912	99.98
1.03578	99.99
1.05245	99.98
1.06912	99.99
1.08578	99.98
1.10245	99.98
1.11912	99.98
1.13578	99.98
1.15245	99.98
1.16912	99.98
1.18578	99.98
1.20245	99.98
1.21912	99.98
1.23578	99.98
1.25245	99.98
1.26912	99.98
1.28578	99.98
1.30245	99.98
1.31912	99.98
1.33578	99.98
1.35245	99.98
1.36912	99.98
1.38578	99.98
1.40245	99.98
1.41912	99.98
1.43578	99.98
1.45245	99.98
1.46912	99.98
1.48578	99.98
1.50245	99.98
1.51912	99.98
1.53578	99.98
1.55245	99.98
1.56912	99.99
1.58578	99.98
1.60245	99.99
1.61912	99.98
1.63578	99.98
1.65245	99.99
1.66912	99.99
1.68578	99.99
1.70245	99.99
1.71912	99.98
1.73578	99.98
1.75245	99.99
1.76912	99.99
1.78578	99.99
1.80245	99.99
1.81912	99.99
1.83578	99.98
1.85245	99.98
1.86912	99.99
1.88578	99.98
1.90245	99.99
1.91912	99.98
1.93578	99.98
1.95245	99.98
1.96912	99.98
1.98578	99.98
2.00245	99.98
2.01912	99.98
2.03578	99.97
2.05245	99.98
2.06912	99.97
2.08578	99.97
2.10245	99.97
2.11912	99.97
2.13578	99.97
2.15245	99.97
2.16912	99.97
2.18578	99.97
2.20245	99.97
2.21912	99.97
2.23578	99.97
2.25245	99.97
2.26912	99.97
2.28578	99.96
2.30245	99.97
2.31912	99.97
2.33578	99.97
2.35245	99.97
2.36912	99.97
2.38578	99.97
2.40245	99.97
2.41912	99.97
2.43578	99.97
2.45245	99.97
2.46912	99.97
2.48578	99.97
2.50245	99.98
2.51912	99.97
2.53578	99.97
2.55245	99.98
2.56912	99.98
2.58578	99.98
2.60245	99.98
2.61912	99.98
2.63578	99.99
2.65245	99.99
2.66912	99.98
2.68578	99.99
2.70245	99.99
2.71912	99.99
2.73578	99.99
2.75245	99.99
2.76912	100.00
2.78578	99.99
2.80245	100.00
2.81912	99.99
2.83578	100.00
2.85245	100.00
2.86912	100.00
2.88578	100.00
2.90245	100.00
2.91912	100.01
2.93578	100.01
2.95245	100.01
2.96912	100.01
2.98578	100.01
3.00245	100.01
3.01912	100.02
3.03578	100.02
3.05245	100.02
3.06912	100.01
3.08578	100.02
3.10245	100.02
3.11912	100.02
3.13578	100.03
3.15245	100.02
3.16912	100.03
3.18578	100.02
3.20245	100.03
3.21912	100.03
3.23578	100.03
3.25245	100.03
3.26912	100.03
3.28578	100.03
3.30245	100.03
3.31912	100.03
3.33578	100.03
3.35245	100.03
3.36912	100.03
3.38578	100.03
3.40245	100.04
3.41912	100.03
3.43578	100.04
3.45245	100.04
3.46912	100.03
3.48578	100.04
3.50245	100.04
3.51912	100.04
3.53578	100.04
3.55245	100.04
3.56912	100.04
3.58578	100.04
3.60245	100.04
3.61912	100.03
3.63578	100.04
3.65245	100.04
3.66912	100.04
3.68578	100.04
3.70245	100.04
3.71912	100.04
3.73578	100.04
3.75245	100.04
3.76912	100.04
3.78578	100.04
3.80245	100.04
3.81912	100.04
3.83578	100.04
3.85245	100.03
3.86912	100.05
3.88578	100.04
3.90245	100.04
3.91912	100.04
3.93578	100.04
3.95245	100.04
3.96912	100.04
3.98578	100.04

[Status Trace (Carrier Gas Pressure)]
Interval(msec)	1000
# of Points	240
Start Time(min)	0.002
End Time(min)	3.986
Intensity Units	
Intensity Multiplier	1
R.Time (min)	Intensity
0.00245	58.00
0.01912	56.25
0.03578	56.38
0.05245	58.54
0.06912	59.86
0.08578	58.27
0.10245	57.97
0.11912	58.01
0.13578	58.01
0.15245	58.01
0.16912	58.00
0.18578	58.00
0.20245	58.00
0.21912	58.00
0.23578	58.00
0.25245	58.00
0.26912	58.00
0.28578	58.00
0.30245	58.00
0.31912	58.00
0.33578	58.00
0.35245	58.00
0.36912	58.00
0.38578	58.00
0.40245	58.00
0.41912	58.00
0.43578	58.00
0.45245	58.00
0.46912	58.00
0.48578	58.00
0.50245	58.00
0.51912	58.00
0.53578	58.00
0.55245	58.00
0.56912	58.00
0.58578	58.00
0.60245	58.00
0.61912	58.00
0.63578	58.00
0.65245	58.00
0.66912	58.00
0.68578	58.00
0.70245	58.00
0.71912	58.00
0.73578	58.00
0.75245	58.00
0.76912	58.00
0.78578	58.00
0.80245	58.00
0.81912	58.00
0.83578	58.00
0.85245	58.00
0.86912	58.00
0.88578	58.00
0.90245	58.00
0.91912	58.00
0.93578	58.00
0.95245	58.00
0.96912	58.00
0.98578	58.00
1.00245	58.00
1.01912	58.00
1.03578	58.00
1.05245	58.00
1.06912	58.00
1.08578	58.00
1.10245	58.00
1.11912	58.00
1.13578	58.00
1.15245	58.00
1.16912	58.00
1.18578	58.00
1.20245	58.00
1.21912	58.00
1.23578	58.00
1.25245	58.00
1.26912	58.00
1.28578	58.00
1.30245	58.00
1.31912	58.00
1.33578	58.00
1.35245	58.00
1.36912	58.00
1.38578	58.00
1.40245	58.00
1.41912	58.00
1.43578	58.00
1.45245	58.00
1.46912	58.00
1.48578	58.00
1.50245	58.00
1.51912	58.00
1.53578	58.00
1.55245	58.00
1.56912	58.00
1.58578	58.00
1.60245	58.00
1.61912	58.00
1.63578	58.01
1.65245	58.00
1.66912	58.01
1.68578	58.01
1.70245	58.00
1.71912	58.00
1.73578	58.00
1.75245	58.00
1.76912	58.00
1.78578	58.00
1.80245	58.00
1.81912	58.00
1.83578	58.00
1.85245	58.00
1.86912	58.00
1.88578	58.00
1.90245	58.00
1.91912	58.00
1.93578	58.00
1.95245	58.00
1.96912	58.00
1.98578	58.00
2.00245	58.00
2.01912	58.00
2.03578	58.00
2.05245	58.00
2.06912	58.00
2.08578	58.00
2.10245	58.00
2.11912	58.00
2.13578	58.00
2.15245	58.00
2.16912	58.00
2.18578	58.00
2.20245	58.00
2.21912	58.00
2.23578	58.00
2.25245	58.00
2.26912	58.00
2.28578	58.00
2.30245	58.00
2.31912	58.00
2.33578	58.00
2.35245	58.00
2.36912	58.00
2.38578	57.99
2.40245	57.99
2.41912	58.00
2.43578	58.00
2.45245	58.00
2.46912	58.00
2.48578	58.00
2.50245	57.99
2.51912	58.03
2.53578	57.99
2.55245	58.00
2.56912	58.00
2.58578	58.00
2.60245	58.00
2.61912	58.00
2.63578	58.00
2.65245	58.00
2.66912	58.00
2.68578	58.00
2.70245	58.00
2.71912	58.00
2.73578	58.00
2.75245	58.00
2.76912	58.00
2.78578	58.00
2.80245	58.00
2.81912	58.00
2.83578	58.00
2.85245	58.00
2.86912	58.00
2.88578	58.00
2.90245	58.00
2.91912	58.00
2.93578	58.00
2.95245	58.00
2.96912	58.00
2.98578	58.00
3.00245	58.00
3.01912	58.00
3.03578	58.00
3.05245	58.00
3.06912	58.00
3.08578	58.00
3.10245	58.00
3.11912	58.00
3.13578	58.00
3.15245	58.00
3.16912	58.00
3.18578	58.00
3.20245	58.00
3.21912	58.00
3.23578	58.00
3.25245	58.00
3.26912	58.00
3.28578	58.00
3.30245	58.00
3.31912	58.00
3.33578	58.00
3.35245	58.00
3.36912	58.00
3.38578	58.00
3.40245	58.00
3.41912	58.00
3.43578	58.00
3.45245	58.00
3.46912	58.00
3.48578	58.00
3.50245	58.00
3.51912	58.00
3.53578	58.00
3.55245	58.00
3.56912	58.00
3.58578	58.00
3.60245	58.00
3.61912	58.00
3.63578	58.00
3.65245	58.00
3.66912	58.00
3.68578	58.00
3.70245	58.00
3.71912	58.00
3.73578	58.00
3.75245	58.00
3.76912	58.00
3.78578	58.00
3.80245	58.00
3.81912	58.00
3.83578	58.00
3.85245	58.00
3.86912	58.00
3.88578	58.00
3.90245	58.00
3.91912	58.00
3.93578	58.00
3.95245	58.00
3.96912	58.00
3.98578	58.00

[Status Trace (Carrier Gas Flow)]
Interval(msec)	1000
# of Points	240
Start Time(min)	0.002
End Time(min)	3.986
Intensity Units	
Intensity Multiplier	1
R.Time (min)	Intensity
0.00245	34.52
0.01912	34.57
0.03578	34.54
0.05245	34.55
0.06912	34.49
0.08578	34.51
0.10245	34.52
0.11912	34.52
0.13578	34.52
0.15245	34.52
0.16912	34.52
0.18578	34.52
0.20245	34.52
0.21912	34.52
0.23578	34.51
0.25245	34.52
0.26912	34.52
0.28578	34.52
0.30245	34.52
0.31912	34.52
0.33578	34.52
0.35245	34.52
0.36912	34.51
0.38578	34.52
0.40245	34.52
0.41912	34.52
0.43578	34.52
0.45245	34.52
0.46912	34.52
0.48578	34.52
0.50245	34.52
0.51912	34.52
0.53578	34.52
0.55245	34.52
0.56912	34.52
0.58578	34.52
0.60245	34.52
0.61912	34.52
0.63578	34.52
0.65245	34.52
0.66912	34.51
0.68578	34.52
0.70245	34.52
0.71912	34.52
0.73578	34.52
0.75245	34.52
0.76912	34.52
0.78578	34.52
0.80245	34.51
0.81912	34.52
0.83578	34.52
0.85245	34.52
0.86912	34.52
0.88578	34.51
0.90245	34.52
0.91912	34.52
0.93578	34.52
0.95245	34.52
0.96912	34.52
0.98578	34.52
1.00245	34.51
1.01912	34.52
1.03578	34.52
1.05245	34.52
1.06912	34.52
1.08578	34.52
1.10245	34.52
1.11912	34.52
1.13578	34.52
1.15245	34.52
1.16912	34.52
1.18578	34.52
1.20245	34.52
1.21912	34.51
1.23578	34.51
1.25245	34.52
1.26912	34.52
1.28578	34.53
1.30245	34.52
1.31912	34.52
1.33578	34.52
1.35245	34.52
1.36912	34.51
1.38578	34.52
1.40245	34.52
1.41912	34.52
1.43578	34.52
1.45245	34.52
1.46912	34.52
1.48578	34.52
1.50245	34.52
1.51912	34.52
1.53578	34.52
1.55245	34.52
1.56912	34.52
1.58578	34.52
1.60245	34.52
1.61912	34.52
1.63578	34.52
1.65245	34.52
1.66912	34.52
1.68578	34.52
1.70245	34.52
1.71912	34.52
1.73578	34.52
1.75245	34.52
1.76912	34.52
1.78578	34.52
1.80245	34.52
1.81912	34.51
1.83578	34.52
1.85245	34.52
1.86912	34.52
1.88578	34.52
1.90245	34.52
1.91912	34.52
1.93578	34.52
1.95245	34.52
1.96912	34.52
1.98578	34.52
2.00245	34.52
2.01912	34.52
2.03578	34.52
2.05245	34.52
2.06912	34.52
2.08578	34.52
2.10245	34.52
2.11912	34.52
2.13578	34.52
2.15245	34.52
2.16912	34.52
2.18578	34.52
2.20245	34.51
2.21912	34.52
2.23578	34.52
2.25245	34.52
2.26912	34.52
2.28578	34.52
2.30245	34.52
2.31912	34.52
2.33578	34.52
2.35245	34.52
2.36912	34.52
2.38578	34.52
2.40245	34.52
2.41912	34.52
2.43578	34.52
2.45245	34.52
2.46912	34.52
2.48578	34.52
2.50245	34.56
2.51912	34.52
2.53578	34.52
2.55245	34.52
2.56912	34.52
2.58578	34.52
2.60245	34.52
2.61912	34.52
2.63578	34.52
2.65245	34.52
2.66912	34.52
2.68578	34.52
2.70245	34.52
2.71912	34.52
2.73578	34.52
2.75245	34.52
2.76912	34.52
2.78578	34.52
2.80245	34.52
2.81912	34.52
2.83578	34.52
2.85245	34.52
2.86912	34.52
2.88578	34.52
2.90245	34.52
2.91912	34.52
2.93578	34.52
2.95245	34.52
2.96912	34.52
2.98578	34.52
3.00245	34.52
3.01912	34.53
3.03578	34.52
3.05245	34.52
3.06912	34.52
3.08578	34.52
3.10245	34.51
3.11912	34.51
3.13578	34.52
3.15245	34.52
3.16912	34.52
3.18578	34.52
3.20245	34.52
3.21912	34.52
3.23578	34.52
3.25245	34.51
3.26912	34.52
3.28578	34.52
3.30245	34.52
3.31912	34.51
3.33578	34.52
3.35245	34.52
3.36912	34.52
3.38578	34.52
3.40245	34.52
3.41912	34.52
3.43578	34.52
3.45245	34.52
3.46912	34.52
3.48578	34.52
3.50245	34.51
3.51912	34.51
3.53578	34.52
3.55245	34.53
3.56912	34.52
3.58578	34.52
3.60245	34.52
3.61912	34.52
3.63578	34.52
3.65245	34.52
3.66912	34.52
3.68578	34.52
3.70245	34.52
3.71912	34.51
3.73578	34.52
3.75245	34.52
3.76912	34.52
3.78578	34.52
3.80245	34.52
3.81912	34.52
3.83578	34.52
3.85245	34.52
3.86912	34.51
3.88578	34.51
3.90245	34.52
3.91912	34.52
3.93578	34.52
3.95245	34.52
3.96912	34.52
3.98578	34.52

[Status Trace (Column Flow)]
Interval(msec)	1000
# of Points	240
Start Time(min)	0.002
End Time(min)	3.986
Intensity Units	
Intensity Multiplier	1
R.Time (min)	Intensity
0.00245	5.56
0.01912	5.36
0.03578	5.38
0.05245	5.63
0.06912	5.78
0.08578	5.60
0.10245	5.56
0.11912	5.56
0.13578	5.56
0.15245	5.56
0.16912	5.56
0.18578	5.56
0.20245	5.56
0.21912	5.56
0.23578	5.56
0.25245	5.56
0.26912	5.57
0.28578	5.56
0.30245	5.57
0.31912	5.57
0.33578	5.56
0.35245	5.56
0.36912	5.56
0.38578	5.56
0.40245	5.56
0.41912	5.56
0.43578	5.56
0.45245	5.56
0.46912	5.57
0.48578	5.56
0.50245	5.56
0.51912	5.57
0.53578	5.57
0.55245	5.57
0.56912	5.57
0.58578	5.57
0.60245	5.57
0.61912	5.57
0.63578	5.57
0.65245	5.57
0.66912	5.57
0.68578	5.57
0.70245	5.57
0.71912	5.57
0.73578	5.56
0.75245	5.56
0.76912	5.56
0.78578	5.56
0.80245	5.56
0.81912	5.56
0.83578	5.56
0.85245	5.56
0.86912	5.56
0.88578	5.57
0.90245	5.57
0.91912	5.57
0.93578	5.57
0.95245	5.57
0.96912	5.57
0.98578	5.57
1.00245	5.57
1.01912	5.57
1.03578	5.57
1.05245	5.56
1.06912	5.56
1.08578	5.56
1.10245	5.56
1.11912	5.56
1.13578	5.56
1.15245	5.56
1.16912	5.56
1.18578	5.56
1.20245	5.56
1.21912	5.56
1.23578	5.56
1.25245	5.56
1.26912	5.56
1.28578	5.56
1.30245	5.56
1.31912	5.56
1.33578	5.56
1.35245	5.56
1.36912	5.57
1.38578	5.57
1.40245	5.57
1.41912	5.57
1.43578	5.57
1.45245	5.57
1.46912	5.57
1.48578	5.57
1.50245	5.57
1.51912	5.57
1.53578	5.57
1.55245	5.57
1.56912	5.57
1.58578	5.57
1.60245	5.56
1.61912	5.56
1.63578	5.56
1.65245	5.55
1.66912	5.54
1.68578	5.53
1.70245	5.52
1.71912	5.50
1.73578	5.49
1.75245	5.49
1.76912	5.47
1.78578	5.46
1.80245	5.45
1.81912	5.44
1.83578	5.43
1.85245	5.42
1.86912	5.41
1.88578	5.40
1.90245	5.39
1.91912	5.38
1.93578	5.37
1.95245	5.36
1.96912	5.35
1.98578	5.34
2.00245	5.34
2.01912	5.33
2.03578	5.32
2.05245	5.31
2.06912	5.30
2.08578	5.29
2.10245	5.28
2.11912	5.27
2.13578	5.26
2.15245	5.25
2.16912	5.24
2.18578	5.23
2.20245	5.22
2.21912	5.21
2.23578	5.20
2.25245	5.19
2.26912	5.18
2.28578	5.17
2.30245	5.16
2.31912	5.15
2.33578	5.15
2.35245	5.14
2.36912	5.13
2.38578	5.12
2.40245	5.12
2.41912	5.12
2.43578	5.12
2.45245	5.12
2.46912	5.12
2.48578	5.12
2.50245	5.12
2.51912	5.13
2.53578	5.12
2.55245	5.12
2.56912	5.12
2.58578	5.12
2.60245	5.12
2.61912	5.12
2.63578	5.12
2.65245	5.12
2.66912	5.12
2.68578	5.12
2.70245	5.12
2.71912	5.12
2.73578	5.12
2.75245	5.12
2.76912	5.12
2.78578	5.12
2.80245	5.12
2.81912	5.12
2.83578	5.12
2.85245	5.12
2.86912	5.12
2.88578	5.12
2.90245	5.12
2.91912	5.12
2.93578	5.12
2.95245	5.12
2.96912	5.12
2.98578	5.12
3.00245	5.12
3.01912	5.12
3.03578	5.12
3.05245	5.12
3.06912	5.12
3.08578	5.12
3.10245	5.12
3.11912	5.12
3.13578	5.12
3.15245	5.12
3.16912	5.12
3.18578	5.12
3.20245	5.12
3.21912	5.12
3.23578	5.12
3.25245	5.12
3.26912	5.12
3.28578	5.12
3.30245	5.12
3.31912	5.12
3.33578	5.12
3.35245	5.12
3.36912	5.12
3.38578	5.12
3.40245	5.12
3.41912	5.12
3.43578	5.12
3.45245	5.12
3.46912	5.12
3.48578	5.12
3.50245	5.12
3.51912	5.12
3.53578	5.12
3.55245	5.12
3.56912	5.12
3.58578	5.12
3.60245	5.12
3.61912	5.12
3.63578	5.12
3.65245	5.12
3.66912	5.12
3.68578	5.12
3.70245	5.12
3.71912	5.12
3.73578	5.12
3.75245	5.12
3.76912	5.12
3.78578	5.12
3.80245	5.12
3.81912	5.12
3.83578	5.12
3.85245	5.12
3.86912	5.12
3.88578	5.12
3.90245	5.12
3.91912	5.12
3.93578	5.12
3.95245	5.12
3.96912	5.12
3.98578	5.12

[Status Trace (Linear Velocity)]
Interval(msec)	1000
# of Points	240
Start Time(min)	0.002
End Time(min)	3.986
Intensity Units	
Intensity Multiplier	1
R.Time (min)	Intensity
0.00245	39.02
0.01912	37.88
0.03578	37.96
0.05245	39.38
0.06912	40.24
0.08578	39.20
0.10245	39.00
0.11912	39.03
0.13578	39.03
0.15245	39.03
0.16912	39.02
0.18578	39.02
0.20245	39.02
0.21912	39.03
0.23578	39.03
0.25245	39.03
0.26912	39.03
0.28578	39.03
0.30245	39.03
0.31912	39.03
0.33578	39.03
0.35245	39.02
0.36912	39.02
0.38578	39.02
0.40245	39.02
0.41912	39.02
0.43578	39.03
0.45245	39.03
0.46912	39.03
0.48578	39.03
0.50245	39.03
0.51912	39.03
0.53578	39.03
0.55245	39.03
0.56912	39.03
0.58578	39.03
0.60245	39.03
0.61912	39.03
0.63578	39.03
0.65245	39.03
0.66912	39.03
0.68578	39.03
0.70245	39.03
0.71912	39.03
0.73578	39.03
0.75245	39.03
0.76912	39.02
0.78578	39.02
0.80245	39.03
0.81912	39.03
0.83578	39.03
0.85245	39.03
0.86912	39.03
0.88578	39.03
0.90245	39.03
0.91912	39.03
0.93578	39.03
0.95245	39.03
0.96912	39.03
0.98578	39.03
1.00245	39.03
1.01912	39.03
1.03578	39.03
1.05245	39.03
1.06912	39.03
1.08578	39.02
1.10245	39.02
1.11912	39.03
1.13578	39.03
1.15245	39.02
1.16912	39.03
1.18578	39.03
1.20245	39.02
1.21912	39.03
1.23578	39.02
1.25245	39.02
1.26912	39.03
1.28578	39.03
1.30245	39.03
1.31912	39.02
1.33578	39.02
1.35245	39.03
1.36912	39.03
1.38578	39.03
1.40245	39.03
1.41912	39.03
1.43578	39.03
1.45245	39.03
1.46912	39.03
1.48578	39.03
1.50245	39.03
1.51912	39.03
1.53578	39.03
1.55245	39.03
1.56912	39.03
1.58578	39.03
1.60245	39.03
1.61912	39.02
1.63578	39.00
1.65245	38.98
1.66912	38.95
1.68578	38.91
1.70245	38.88
1.71912	38.84
1.73578	38.81
1.75245	38.78
1.76912	38.75
1.78578	38.72
1.80245	38.69
1.81912	38.66
1.83578	38.63
1.85245	38.60
1.86912	38.56
1.88578	38.53
1.90245	38.50
1.91912	38.47
1.93578	38.44
1.95245	38.41
1.96912	38.38
1.98578	38.35
2.00245	38.32
2.01912	38.29
2.03578	38.26
2.05245	38.24
2.06912	38.20
2.08578	38.17
2.10245	38.15
2.11912	38.11
2.13578	38.08
2.15245	38.06
2.16912	38.02
2.18578	37.99
2.20245	37.97
2.21912	37.93
2.23578	37.90
2.25245	37.88
2.26912	37.84
2.28578	37.82
2.30245	37.79
2.31912	37.76
2.33578	37.73
2.35245	37.70
2.36912	37.67
2.38578	37.66
2.40245	37.66
2.41912	37.66
2.43578	37.66
2.45245	37.66
2.46912	37.66
2.48578	37.66
2.50245	37.66
2.51912	37.68
2.53578	37.66
2.55245	37.66
2.56912	37.66
2.58578	37.66
2.60245	37.66
2.61912	37.66
2.63578	37.66
2.65245	37.66
2.66912	37.66
2.68578	37.66
2.70245	37.66
2.71912	37.66
2.73578	37.65
2.75245	37.65
2.76912	37.66
2.78578	37.66
2.80245	37.65
2.81912	37.65
2.83578	37.65
2.85245	37.65
2.86912	37.65
2.88578	37.65
2.90245	37.65
2.91912	37.65
2.93578	37.65
2.95245	37.65
2.96912	37.65
2.98578	37.65
3.00245	37.65
3.01912	37.65
3.03578	37.64
3.05245	37.64
3.06912	37.64
3.08578	37.64
3.10245	37.64
3.11912	37.64
3.13578	37.64
3.15245	37.64
3.16912	37.64
3.18578	37.64
3.20245	37.64
3.21912	37.64
3.23578	37.64
3.25245	37.64
3.26912	37.63
3.28578	37.63
3.30245	37.63
3.31912	37.63
3.33578	37.63
3.35245	37.63
3.36912	37.63
3.38578	37.63
3.40245	37.63
3.41912	37.63
3.43578	37.63
3.45245	37.63
3.46912	37.64
3.48578	37.64
3.50245	37.64
3.51912	37.64
3.53578	37.64
3.55245	37.64
3.56912	37.64
3.58578	37.64
3.60245	37.63
3.61912	37.63
3.63578	37.63
3.65245	37.63
3.66912	37.63
3.68578	37.64
3.70245	37.64
3.71912	37.64
3.73578	37.64
3.75245	37.64
3.76912	37.64
3.78578	37.64
3.80245	37.64
3.81912	37.64
3.83578	37.64
3.85245	37.64
3.86912	37.64
3.88578	37.64
3.90245	37.64
3.91912	37.64
3.93578	37.64
3.95245	37.64
3.96912	37.64
3.98578	37.64

