[Header]
Application Name	LabSolutions
Version	5.110
Data File Name	C:\Users\User\Desktop\GC Analyses\Jack\Nachusa Grasslands Sampling\T1 Timepoint July 12th\T1_07122022_049.gcd
Output Date	3/14/2023
Output Time	3:41:00 PM

[File Information]
Type	Data File
Generated	3/8/2023 6:39:07 PM
Generated by	System Administrator
Modified	3/8/2023 6:45:52 PM
Modified by	System Administrator

[Sample Information]
Operator Name	System Administrator
Acquired	3/8/2023 6:41:51 PM
Sample Type	0:Unknown
Level	0
Sample Name	049
Sample ID	049
ISTD Amount1	1
ISTD Amount2	1
ISTD Amount3	1
ISTD Amount4	1
ISTD Amount5	1
ISTD Amount6	1
ISTD Amount7	1
ISTD Amount8	1
ISTD Amount9	1
ISTD Amount10	1
ISTD Amount11	1
ISTD Amount12	1
ISTD Amount13	1
ISTD Amount14	1
ISTD Amount15	1
ISTD Amount16	1
ISTD Amount17	1
ISTD Amount18	1
ISTD Amount19	1
ISTD Amount20	1
ISTD Amount21	1
ISTD Amount22	1
ISTD Amount23	1
ISTD Amount24	1
ISTD Amount25	1
ISTD Amount26	1
ISTD Amount27	1
ISTD Amount28	1
ISTD Amount29	1
ISTD Amount30	1
ISTD Amount31	1
ISTD Amount32	1
Sample Amount	1
Dilution Factor	1
Vial#	48
Injection Volume	1
Injection Count	1
Bar Code	

[Original Files]
Data File	C:\Users\User\Desktop\GC Analyses\Jack\Nachusa Grasslands Sampling\T1 Timepoint July 12th\T1_07122022_049.gcd
Method File	C:\LabSolutions\Data\GHG_4min_2022\ghg3_togas_w_acet_4 min_new_int.gcm
Batch File	C:\LabSolutions\Data\AutoSamplerTesting\T1_07122022.gcb
Report Format File	c:\LabSolutions\System\DEFAULT.lsr

[File Description]


[Configuration]
Instrument Name	C0B7VH3-Instrument1
Instrument #	1
Line #	1
# of Detectors	3
Detector ID	DET#1	DET#2	DET#3
Detector Name	FID	PTCD	ECD
# of Channels	1	1	1

[Peak Table(Ch1)]
# of Peaks	3
Peak#	R.Time	I.Time	F.Time	Area	Height	A/H	Conc.	Mark	ID#	Name	k'	Plate #	Plate Ht.	Tailing	Resolution	Sep.Factor	Area Ratio	Height Ratio	Conc. %	Norm Conc.
1	1.476	1.439	1.538	25116	11784	2.131	177.323	   	1	CO	0.000	8996	16.674	1.325	0.000	0.000	0	0	21.757	21.757
2	1.567	1.538	1.641	4927	2347	2.100	95.270	 V 	2	CH4	0.062	10505	14.278	0.000	1.486	0.000	0	0	11.689	11.689
3	1.996	1.949	2.609	2161328	1023859	2.111	542.435	   	3	CO2	0.353	17278	8.682	1.300	7.038	5.680	0	0	66.554	66.554

[Peak Table(Ch2)]
# of Peaks	0

[Peak Table(Ch3)]
# of Peaks	5
Peak#	R.Time	I.Time	F.Time	Area	Height	A/H	Conc.	Mark	ID#	Name	k'	Plate #	Plate Ht.	Tailing	Resolution	Sep.Factor	Area Ratio	Height Ratio	Conc. %	Norm Conc.
1	2.462	2.293	2.517	1869	472	3.956	0.000	   			0.000	7524	19.936	0.000	0.000	0.000	0	0	0.000	0.000
2	2.543	2.517	2.631	1229	280	4.395	0.000	 V 			0.033	2829	53.021	0.000	0.529	0.000	0	0	0.000	0.000
3	2.686	2.642	2.741	358	86	4.161	0.000	   			0.091	1667	89.995	0.000	0.629	2.773	0	0	0.000	0.000
4	2.873	2.741	3.140	19845	4858	4.085	0.507	 V 	1	N2O	0.167	13042	11.501	1.748	1.028	1.836	0	0	100.000	100.000
5	3.269	3.148	3.995	13333	491	27.160	0.000	   	2	SF6	0.328	420	357.223	3.482	1.072	1.964	0	0	0.000	0.000

[Compound Results(Ch1)]
# of IDs	6
ID#	Name	R.Time	Area	Height	Conc.	Curve	3rd	2nd	1st	Constant	Area Ratio	Height Ratio	Conc. %	Norm Conc.
1	CO	1.476	25116	11784	177.323	Linear	0.000000e+00	0.000000e+00	1.416423e+002	0.000000e+00	0	0	21.757	21.757
2	CH4	1.567	4927	2347	95.270	Linear	0.000000e+00	0.000000e+00	5.171738e+001	0.000000e+00	0	0	11.689	11.689
3	CO2	1.996	2161328	1023859	542.435	Linear	0.000000e+00	0.000000e+00	3.984494e+003	0.000000e+00	0	0	66.554	66.554
4	Ethylene	0.000	0	0	0.000	Linear	0.000000e+00	0.000000e+00	0.000000e+00	0.000000e+00	0	0	0.000	0.000
5	Acetylene	0.000	0	0	0.000	Linear	0.000000e+00	0.000000e+00	0.000000e+00	0.000000e+00	0	0	0.000	0.000
6	Ethane	0.000	0	0	0.000	Linear	0.000000e+00	0.000000e+00	0.000000e+00	0.000000e+00	0	0	0.000	0.000

[Compound Results(Ch2)]
# of IDs	5
ID#	Name	R.Time	Area	Height	Conc.	Curve	3rd	2nd	1st	Constant	Area Ratio	Height Ratio	Conc. %	Norm Conc.
1	Hydrogen	0.000	0	0	0.000	Linear	0.000000e+00	0.000000e+00	0.000000e+00	0.000000e+00	0	0	0.000	0.000
2	Oxygen	0.000	0	0	0.000	Linear	0.000000e+00	0.000000e+00	0.000000e+00	0.000000e+00	0	0	0.000	0.000
3	Nitrogen	0.000	0	0	0.000	Linear	0.000000e+00	0.000000e+00	0.000000e+00	0.000000e+00	0	0	0.000	0.000
4	Methane	0.000	0	0	0.000	Linear	0.000000e+00	0.000000e+00	0.000000e+00	0.000000e+00	0	0	0.000	0.000
5	Carbon Monoxide	0.000	0	0	0.000	Linear	0.000000e+00	0.000000e+00	0.000000e+00	0.000000e+00	0	0	0.000	0.000

[Compound Results(Ch3)]
# of IDs	2
ID#	Name	R.Time	Area	Height	Conc.	Curve	3rd	2nd	1st	Constant	Area Ratio	Height Ratio	Conc. %	Norm Conc.
1	N2O	2.873	19845	4858	0.507	Linear	0.000000e+00	0.000000e+00	3.915173e+004	0.000000e+00	0	0	100.000	100.000
2	SF6	3.269	13333	491	0.000	Linear	0.000000e+00	0.000000e+00	0.000000e+00	0.000000e+00	0	0	0.000	0.000

[Group Results(Ch1)]
# of Groups	0

[Group Results(Ch2)]
# of Groups	0

[Group Results(Ch3)]
# of Groups	0

[Chromatogram (Ch1)]
Interval(msec)	220
# of Points	1091
Start Time(min)	0.002
End Time(min)	3.998
R.Time (min)	Intensity
0.00167	9
0.00533	4
0.00900	-0
0.01267	-1
0.01633	1
0.02000	3
0.02367	0
0.02733	-3
0.03100	-7
0.03467	-11
0.03833	-13
0.04200	-12
0.04567	-5
0.04933	3
0.05300	5
0.05667	2
0.06033	-2
0.06400	-5
0.06767	-8
0.07133	-9
0.07500	-9
0.07867	-5
0.08233	2
0.08600	11
0.08967	17
0.09333	19
0.09700	18
0.10067	17
0.10433	17
0.10800	18
0.11167	19
0.11533	18
0.11900	19
0.12267	22
0.12633	23
0.13000	29
0.13367	37
0.13733	44
0.14100	48
0.14467	49
0.14833	44
0.15200	38
0.15567	33
0.15933	36
0.16300	43
0.16667	47
0.17033	49
0.17400	49
0.17767	48
0.18133	47
0.18500	47
0.18867	51
0.19233	58
0.19600	65
0.19967	72
0.20333	75
0.20700	78
0.21067	81
0.21433	83
0.21800	84
0.22167	82
0.22533	80
0.22900	85
0.23267	93
0.23633	99
0.24000	104
0.24367	103
0.24733	97
0.25100	89
0.25467	80
0.25833	72
0.26200	67
0.26567	61
0.26933	55
0.27300	49
0.27667	47
0.28033	43
0.28400	38
0.28767	35
0.29133	31
0.29500	27
0.29867	25
0.30233	24
0.30600	25
0.30967	25
0.31333	24
0.31700	23
0.32067	23
0.32433	20
0.32800	19
0.33167	17
0.33533	12
0.33900	11
0.34267	15
0.34633	21
0.35000	27
0.35367	34
0.35733	39
0.36100	37
0.36467	35
0.36833	34
0.37200	36
0.37567	38
0.37933	41
0.38300	41
0.38667	37
0.39033	28
0.39400	17
0.39767	8
0.40133	4
0.40500	0
0.40867	-4
0.41233	-6
0.41600	-1
0.41967	5
0.42333	12
0.42700	15
0.43067	15
0.43433	15
0.43800	17
0.44167	24
0.44533	34
0.44900	40
0.45267	36
0.45633	23
0.46000	9
0.46367	-2
0.46733	-8
0.47100	-11
0.47467	-7
0.47833	-0
0.48200	8
0.48567	18
0.48933	28
0.49300	33
0.49667	33
0.50033	32
0.50400	31
0.50767	29
0.51133	27
0.51500	24
0.51867	22
0.52233	23
0.52600	24
0.52967	23
0.53333	19
0.53700	17
0.54067	21
0.54433	30
0.54800	38
0.55167	43
0.55533	47
0.55900	50
0.56267	47
0.56633	42
0.57000	36
0.57367	26
0.57733	15
0.58100	11
0.58467	12
0.58833	18
0.59200	26
0.59567	33
0.59933	34
0.60300	24
0.60667	9
0.61033	-2
0.61400	-5
0.61767	1
0.62133	11
0.62500	19
0.62867	17
0.63233	14
0.63600	14
0.63967	16
0.64333	18
0.64700	18
0.65067	17
0.65433	16
0.65800	16
0.66167	15
0.66533	17
0.66900	19
0.67267	17
0.67633	13
0.68000	11
0.68367	8
0.68733	8
0.69100	13
0.69467	17
0.69833	19
0.70200	16
0.70567	13
0.70933	14
0.71300	19
0.71667	25
0.72033	28
0.72400	26
0.72767	20
0.73133	14
0.73500	9
0.73867	5
0.74233	2
0.74600	4
0.74967	7
0.75333	10
0.75700	14
0.76067	17
0.76433	20
0.76800	24
0.77167	24
0.77533	24
0.77900	31
0.78267	41
0.78633	49
0.79000	52
0.79367	45
0.79733	33
0.80100	20
0.80467	9
0.80833	3
0.81200	2
0.81567	5
0.81933	7
0.82300	7
0.82667	10
0.83033	15
0.83400	20
0.83767	23
0.84133	25
0.84500	29
0.84867	33
0.85233	33
0.85600	30
0.85967	26
0.86333	19
0.86700	14
0.87067	11
0.87433	7
0.87800	3
0.88167	1
0.88533	1
0.88900	7
0.89267	13
0.89633	18
0.90000	18
0.90367	16
0.90733	14
0.91100	13
0.91467	14
0.91833	19
0.92200	25
0.92567	30
0.92933	32
0.93300	31
0.93667	28
0.94033	25
0.94400	25
0.94767	24
0.95133	22
0.95500	20
0.95867	16
0.96233	16
0.96600	15
0.96967	15
0.97333	20
0.97700	30
0.98067	38
0.98433	40
0.98800	34
0.99167	21
0.99533	9
0.99900	-1
1.00267	-8
1.00633	-12
1.01000	-13
1.01367	-10
1.01733	-7
1.02100	-3
1.02467	4
1.02833	10
1.03200	12
1.03567	9
1.03933	8
1.04300	3
1.04667	-1
1.05033	-4
1.05400	-3
1.05767	0
1.06133	1
1.06500	1
1.06867	2
1.07233	3
1.07600	4
1.07967	5
1.08333	9
1.08700	15
1.09067	15
1.09433	11
1.09800	5
1.10167	-2
1.10533	-5
1.10900	-1
1.11267	6
1.11633	12
1.12000	20
1.12367	25
1.12733	24
1.13100	15
1.13467	5
1.13833	-3
1.14200	-5
1.14567	-3
1.14933	1
1.15300	11
1.15667	22
1.16033	30
1.16400	33
1.16767	30
1.17133	19
1.17500	5
1.17867	-0
1.18233	0
1.18600	0
1.18967	1
1.19333	-2
1.19700	-7
1.20067	-10
1.20433	-8
1.20800	-2
1.21167	7
1.21533	13
1.21900	10
1.22267	1
1.22633	-7
1.23000	-12
1.23367	-9
1.23733	-1
1.24100	6
1.24467	9
1.24833	14
1.25200	18
1.25567	18
1.25933	17
1.26300	14
1.26667	12
1.27033	9
1.27400	5
1.27767	2
1.28133	1
1.28500	2
1.28867	2
1.29233	4
1.29600	9
1.29967	14
1.30333	15
1.30700	14
1.31067	10
1.31433	1
1.31800	-6
1.32167	-8
1.32533	-7
1.32900	0
1.33267	9
1.33633	14
1.34000	16
1.34367	16
1.34733	15
1.35100	14
1.35467	15
1.35833	18
1.36200	17
1.36567	12
1.36933	10
1.37300	13
1.37667	16
1.38033	15
1.38400	9
1.38767	1
1.39133	-3
1.39500	-2
1.39867	-1
1.40233	-4
1.40600	-6
1.40967	-3
1.41333	1
1.41700	5
1.42067	8
1.42433	5
1.42800	-2
1.43167	-8
1.43533	-8
1.43900	8
1.44267	91
1.44633	310
1.45000	820
1.45367	1954
1.45733	3824
1.46100	6077
1.46467	8235
1.46833	9996
1.47200	11218
1.47567	11794
1.47933	11623
1.48300	10697
1.48667	9194
1.49033	7432
1.49400	5721
1.49767	4255
1.50133	3101
1.50500	2238
1.50867	1614
1.51233	1168
1.51600	856
1.51967	641
1.52333	495
1.52700	395
1.53067	319
1.53433	263
1.53800	239
1.54167	278
1.54533	439
1.54900	752
1.55267	1169
1.55633	1597
1.56000	1960
1.56367	2224
1.56733	2361
1.57100	2343
1.57467	2159
1.57833	1838
1.58200	1458
1.58567	1094
1.58933	791
1.59300	562
1.59667	401
1.60033	292
1.60400	220
1.60767	169
1.61133	130
1.61500	102
1.61867	84
1.62233	73
1.62600	69
1.62967	62
1.63333	47
1.63700	30
1.64067	18
1.64433	14
1.64800	14
1.65167	15
1.65533	16
1.65900	17
1.66267	22
1.66633	27
1.67000	27
1.67367	22
1.67733	19
1.68100	17
1.68467	13
1.68833	12
1.69200	15
1.69567	18
1.69933	18
1.70300	19
1.70667	20
1.71033	23
1.71400	19
1.71767	13
1.72133	10
1.72500	14
1.72867	23
1.73233	26
1.73600	24
1.73967	22
1.74333	21
1.74700	19
1.75067	17
1.75433	17
1.75800	18
1.76167	20
1.76533	22
1.76900	22
1.77267	24
1.77633	23
1.78000	21
1.78367	20
1.78733	16
1.79100	9
1.79467	6
1.79833	7
1.80200	4
1.80567	2
1.80933	1
1.81300	2
1.81667	1
1.82033	-4
1.82400	-12
1.82767	-16
1.83133	-16
1.83500	-15
1.83867	-11
1.84233	-4
1.84600	3
1.84967	8
1.85333	11
1.85700	11
1.86067	11
1.86433	12
1.86800	14
1.87167	18
1.87533	20
1.87900	20
1.88267	22
1.88633	21
1.89000	16
1.89367	9
1.89733	5
1.90100	7
1.90467	14
1.90833	18
1.91200	18
1.91567	17
1.91933	16
1.92300	21
1.92667	31
1.93033	38
1.93400	40
1.93767	39
1.94133	38
1.94500	38
1.94867	42
1.95233	66
1.95600	233
1.95967	1223
1.96333	5781
1.96700	21669
1.97067	64194
1.97433	152195
1.97800	294635
1.98167	479179
1.98533	675118
1.98900	847722
1.99267	969648
1.99633	1023935
2.00000	1005451
2.00367	921806
2.00733	791803
2.01100	640803
2.01467	492717
2.01833	363734
2.02200	260755
2.02567	183576
2.02933	128263
2.03300	89800
2.03667	63551
2.04033	45814
2.04400	33854
2.04767	25747
2.05133	20188
2.05500	16307
2.05867	13542
2.06233	11521
2.06600	10001
2.06967	8833
2.07333	7914
2.07700	7173
2.08067	6564
2.08433	6055
2.08800	5620
2.09167	5243
2.09533	4911
2.09900	4614
2.10267	4349
2.10633	4113
2.11000	3901
2.11367	3707
2.11733	3535
2.12100	3382
2.12467	3247
2.12833	3121
2.13200	3000
2.13567	2885
2.13933	2775
2.14300	2667
2.14667	2564
2.15033	2469
2.15400	2383
2.15767	2305
2.16133	2233
2.16500	2165
2.16867	2099
2.17233	2038
2.17600	1981
2.17967	1929
2.18333	1880
2.18700	1833
2.19067	1786
2.19433	1739
2.19800	1695
2.20167	1656
2.20533	1620
2.20900	1586
2.21267	1553
2.21633	1516
2.22000	1477
2.22367	1443
2.22733	1411
2.23100	1381
2.23467	1352
2.23833	1317
2.24200	1285
2.24567	1257
2.24933	1228
2.25300	1203
2.25667	1183
2.26033	1166
2.26400	1148
2.26767	1133
2.27133	1117
2.27500	1101
2.27867	1082
2.28233	1067
2.28600	1053
2.28967	1037
2.29333	1023
2.29700	1007
2.30067	987
2.30433	968
2.30800	954
2.31167	940
2.31533	926
2.31900	914
2.32267	899
2.32633	879
2.33000	858
2.33367	840
2.33733	826
2.34100	814
2.34467	809
2.34833	805
2.35200	801
2.35567	791
2.35933	775
2.36300	764
2.36667	761
2.37033	761
2.37400	758
2.37767	752
2.38133	743
2.38500	734
2.38867	725
2.39233	715
2.39600	710
2.39967	709
2.40333	703
2.40700	692
2.41067	684
2.41433	680
2.41800	679
2.42167	679
2.42533	676
2.42900	673
2.43267	669
2.43633	664
2.44000	664
2.44367	668
2.44733	671
2.45100	665
2.45467	653
2.45833	637
2.46200	621
2.46567	609
2.46933	598
2.47300	589
2.47667	582
2.48033	577
2.48400	575
2.48767	573
2.49133	573
2.49500	575
2.49867	575
2.50233	571
2.50600	569
2.50967	568
2.51333	571
2.51700	580
2.52067	586
2.52433	585
2.52800	575
2.53167	566
2.53533	562
2.53900	560
2.54267	553
2.54633	547
2.55000	542
2.55367	538
2.55733	536
2.56100	532
2.56467	526
2.56833	519
2.57200	516
2.57567	518
2.57933	514
2.58300	511
2.58667	511
2.59033	511
2.59400	508
2.59767	506
2.60133	508
2.60500	512
2.60867	512
2.61233	503
2.61600	491
2.61967	486
2.62333	486
2.62700	488
2.63067	489
2.63433	488
2.63800	487
2.64167	487
2.64533	491
2.64900	498
2.65267	507
2.65633	517
2.66000	524
2.66367	526
2.66733	525
2.67100	523
2.67467	517
2.67833	512
2.68200	506
2.68567	501
2.68933	501
2.69300	504
2.69667	506
2.70033	507
2.70400	512
2.70767	517
2.71133	518
2.71500	516
2.71867	514
2.72233	513
2.72600	516
2.72967	522
2.73333	523
2.73700	518
2.74067	511
2.74433	507
2.74800	503
2.75167	503
2.75533	505
2.75900	505
2.76267	503
2.76633	501
2.77000	503
2.77367	509
2.77733	513
2.78100	509
2.78467	503
2.78833	499
2.79200	498
2.79567	497
2.79933	498
2.80300	498
2.80667	498
2.81033	500
2.81400	503
2.81767	502
2.82133	501
2.82500	503
2.82867	508
2.83233	515
2.83600	522
2.83967	531
2.84333	537
2.84700	533
2.85067	522
2.85433	508
2.85800	496
2.86167	486
2.86533	480
2.86900	473
2.87267	469
2.87633	469
2.88000	470
2.88367	471
2.88733	471
2.89100	469
2.89467	473
2.89833	478
2.90200	483
2.90567	482
2.90933	481
2.91300	481
2.91667	481
2.92033	484
2.92400	486
2.92767	490
2.93133	494
2.93500	500
2.93867	502
2.94233	502
2.94600	499
2.94967	493
2.95333	487
2.95700	488
2.96067	494
2.96433	499
2.96800	502
2.97167	501
2.97533	497
2.97900	495
2.98267	491
2.98633	486
2.99000	485
2.99367	488
2.99733	491
3.00100	490
3.00467	486
3.00833	480
3.01200	476
3.01567	477
3.01933	479
3.02300	479
3.02667	479
3.03033	482
3.03400	484
3.03767	483
3.04133	477
3.04500	473
3.04867	470
3.05233	466
3.05600	462
3.05967	461
3.06333	459
3.06700	457
3.07067	458
3.07433	459
3.07800	461
3.08167	468
3.08533	474
3.08900	475
3.09267	474
3.09633	472
3.10000	469
3.10367	465
3.10733	460
3.11100	458
3.11467	457
3.11833	455
3.12200	454
3.12567	451
3.12933	450
3.13300	452
3.13667	456
3.14033	463
3.14400	466
3.14767	465
3.15133	465
3.15500	463
3.15867	461
3.16233	460
3.16600	461
3.16967	463
3.17333	469
3.17700	473
3.18067	471
3.18433	469
3.18800	467
3.19167	464
3.19533	458
3.19900	455
3.20267	456
3.20633	453
3.21000	447
3.21367	442
3.21733	440
3.22100	437
3.22467	436
3.22833	437
3.23200	438
3.23567	434
3.23933	431
3.24300	431
3.24667	429
3.25033	430
3.25400	435
3.25767	438
3.26133	435
3.26500	432
3.26867	431
3.27233	430
3.27600	435
3.27967	443
3.28333	449
3.28700	448
3.29067	441
3.29433	434
3.29800	433
3.30167	435
3.30533	435
3.30900	430
3.31267	425
3.31633	426
3.32000	428
3.32367	430
3.32733	432
3.33100	438
3.33467	444
3.33833	450
3.34200	455
3.34567	455
3.34933	451
3.35300	443
3.35667	433
3.36033	423
3.36400	418
3.36767	416
3.37133	416
3.37500	413
3.37867	407
3.38233	401
3.38600	400
3.38967	400
3.39333	403
3.39700	407
3.40067	404
3.40433	399
3.40800	393
3.41167	387
3.41533	386
3.41900	389
3.42267	391
3.42633	392
3.43000	393
3.43367	394
3.43733	397
3.44100	399
3.44467	400
3.44833	401
3.45200	402
3.45567	403
3.45933	401
3.46300	401
3.46667	400
3.47033	401
3.47400	406
3.47767	410
3.48133	407
3.48500	406
3.48867	403
3.49233	397
3.49600	392
3.49967	389
3.50333	390
3.50700	391
3.51067	386
3.51433	383
3.51800	386
3.52167	391
3.52533	392
3.52900	394
3.53267	395
3.53633	395
3.54000	390
3.54367	384
3.54733	377
3.55100	374
3.55467	372
3.55833	372
3.56200	377
3.56567	381
3.56933	385
3.57300	391
3.57667	397
3.58033	394
3.58400	389
3.58767	381
3.59133	373
3.59500	369
3.59867	362
3.60233	351
3.60600	340
3.60967	334
3.61333	331
3.61700	329
3.62067	326
3.62433	322
3.62800	319
3.63167	322
3.63533	332
3.63900	341
3.64267	344
3.64633	344
3.65000	346
3.65367	354
3.65733	360
3.66100	359
3.66467	352
3.66833	349
3.67200	348
3.67567	348
3.67933	349
3.68300	349
3.68667	349
3.69033	353
3.69400	360
3.69767	364
3.70133	365
3.70500	363
3.70867	358
3.71233	350
3.71600	344
3.71967	341
3.72333	341
3.72700	341
3.73067	341
3.73433	343
3.73800	344
3.74167	345
3.74533	346
3.74900	345
3.75267	342
3.75633	338
3.76000	334
3.76367	333
3.76733	334
3.77100	338
3.77467	340
3.77833	338
3.78200	332
3.78567	326
3.78933	321
3.79300	324
3.79667	327
3.80033	324
3.80400	319
3.80767	315
3.81133	314
3.81500	318
3.81867	324
3.82233	326
3.82600	328
3.82967	328
3.83333	326
3.83700	326
3.84067	325
3.84433	318
3.84800	307
3.85167	302
3.85533	304
3.85900	309
3.86267	315
3.86633	319
3.87000	320
3.87367	319
3.87733	317
3.88100	312
3.88467	301
3.88833	289
3.89200	276
3.89567	268
3.89933	269
3.90300	277
3.90667	285
3.91033	292
3.91400	296
3.91767	298
3.92133	298
3.92500	294
3.92867	290
3.93233	291
3.93600	296
3.93967	302
3.94333	305
3.94700	303
3.95067	297
3.95433	291
3.95800	287
3.96167	285
3.96533	278
3.96900	271
3.97267	268
3.97633	268
3.98000	272
3.98367	277
3.98733	281
3.99100	288
3.99467	292
3.99833	286

[Chromatogram (Ch2)]
Interval(msec)	220
# of Points	1091
Start Time(min)	0.002
End Time(min)	3.998
R.Time (min)	Intensity
0.00167	-2
0.00533	-2
0.00900	-2
0.01267	-3
0.01633	-3
0.02000	-3
0.02367	-3
0.02733	-3
0.03100	-3
0.03467	-3
0.03833	-3
0.04200	-2
0.04567	-2
0.04933	-2
0.05300	-1
0.05667	-1
0.06033	-0
0.06400	0
0.06767	0
0.07133	0
0.07500	0
0.07867	0
0.08233	0
0.08600	-0
0.08967	-0
0.09333	-1
0.09700	-1
0.10067	-1
0.10433	-1
0.10800	-1
0.11167	-1
0.11533	-1
0.11900	-1
0.12267	-1
0.12633	-1
0.13000	-1
0.13367	-0
0.13733	0
0.14100	1
0.14467	1
0.14833	1
0.15200	1
0.15567	1
0.15933	1
0.16300	1
0.16667	1
0.17033	1
0.17400	1
0.17767	1
0.18133	1
0.18500	1
0.18867	2
0.19233	2
0.19600	2
0.19967	2
0.20333	2
0.20700	1
0.21067	1
0.21433	1
0.21800	1
0.22167	0
0.22533	0
0.22900	-0
0.23267	-0
0.23633	-1
0.24000	-1
0.24367	-1
0.24733	-1
0.25100	-1
0.25467	-1
0.25833	-1
0.26200	-2
0.26567	-2
0.26933	-2
0.27300	-2
0.27667	-2
0.28033	-2
0.28400	-2
0.28767	-2
0.29133	-3
0.29500	-3
0.29867	-3
0.30233	-3
0.30600	-4
0.30967	-4
0.31333	-4
0.31700	-4
0.32067	-4
0.32433	-4
0.32800	-4
0.33167	-4
0.33533	-4
0.33900	-5
0.34267	-5
0.34633	-4
0.35000	-4
0.35367	-4
0.35733	-4
0.36100	-4
0.36467	-4
0.36833	-4
0.37200	-4
0.37567	-4
0.37933	-4
0.38300	-4
0.38667	-4
0.39033	-4
0.39400	-3
0.39767	-3
0.40133	-3
0.40500	-3
0.40867	-3
0.41233	-4
0.41600	-4
0.41967	-3
0.42333	-3
0.42700	-3
0.43067	-3
0.43433	-3
0.43800	-3
0.44167	-2
0.44533	-2
0.44900	-2
0.45267	-3
0.45633	-3
0.46000	-3
0.46367	-3
0.46733	-3
0.47100	-3
0.47467	-3
0.47833	-2
0.48200	-2
0.48567	-2
0.48933	-2
0.49300	-2
0.49667	-2
0.50033	-3
0.50400	-3
0.50767	-3
0.51133	-3
0.51500	-3
0.51867	-4
0.52233	-4
0.52600	-4
0.52967	-5
0.53333	-5
0.53700	-5
0.54067	-4
0.54433	-4
0.54800	-3
0.55167	-3
0.55533	-3
0.55900	-2
0.56267	-2
0.56633	-1
0.57000	-1
0.57367	-1
0.57733	-1
0.58100	-1
0.58467	-1
0.58833	-1
0.59200	-0
0.59567	-0
0.59933	-0
0.60300	-0
0.60667	-0
0.61033	-0
0.61400	-1
0.61767	-1
0.62133	-1
0.62500	-1
0.62867	-1
0.63233	-2
0.63600	-2
0.63967	-2
0.64333	-2
0.64700	-2
0.65067	-2
0.65433	-2
0.65800	-2
0.66167	-2
0.66533	-3
0.66900	-3
0.67267	-3
0.67633	-4
0.68000	-3
0.68367	-3
0.68733	-3
0.69100	-3
0.69467	-2
0.69833	-2
0.70200	-2
0.70567	-2
0.70933	-2
0.71300	-2
0.71667	-2
0.72033	-2
0.72400	-1
0.72767	-1
0.73133	-1
0.73500	-0
0.73867	-0
0.74233	0
0.74600	0
0.74967	0
0.75333	0
0.75700	0
0.76067	-0
0.76433	-0
0.76800	-0
0.77167	-0
0.77533	-0
0.77900	-1
0.78267	-1
0.78633	-1
0.79000	-1
0.79367	-1
0.79733	-1
0.80100	-2
0.80467	-2
0.80833	-2
0.81200	-2
0.81567	-3
0.81933	-3
0.82300	-3
0.82667	-4
0.83033	-4
0.83400	-4
0.83767	-4
0.84133	-4
0.84500	-4
0.84867	-4
0.85233	-4
0.85600	-3
0.85967	-3
0.86333	-2
0.86700	-2
0.87067	-1
0.87433	-1
0.87800	-1
0.88167	-2
0.88533	-2
0.88900	-2
0.89267	-3
0.89633	-3
0.90000	-4
0.90367	-4
0.90733	-5
0.91100	-5
0.91467	-6
0.91833	-6
0.92200	-6
0.92567	-6
0.92933	-6
0.93300	-6
0.93667	-6
0.94033	-6
0.94400	-5
0.94767	-5
0.95133	-5
0.95500	-5
0.95867	-6
0.96233	-5
0.96600	-5
0.96967	-5
0.97333	-5
0.97700	-5
0.98067	-4
0.98433	-4
0.98800	-4
0.99167	-4
0.99533	-4
0.99900	-3
1.00267	-3
1.00633	-3
1.01000	-3
1.01367	-3
1.01733	-3
1.02100	-3
1.02467	-3
1.02833	-2
1.03200	-2
1.03567	-2
1.03933	-2
1.04300	-2
1.04667	-1
1.05033	-1
1.05400	-1
1.05767	-1
1.06133	-2
1.06500	-2
1.06867	-2
1.07233	-2
1.07600	-3
1.07967	-3
1.08333	-3
1.08700	-3
1.09067	-3
1.09433	-3
1.09800	-3
1.10167	-3
1.10533	-3
1.10900	-3
1.11267	-3
1.11633	-3
1.12000	-3
1.12367	-4
1.12733	-4
1.13100	-4
1.13467	-4
1.13833	-4
1.14200	-3
1.14567	-4
1.14933	-4
1.15300	-4
1.15667	-4
1.16033	-4
1.16400	-4
1.16767	-5
1.17133	-5
1.17500	-6
1.17867	-6
1.18233	-7
1.18600	-7
1.18967	-7
1.19333	-7
1.19700	-7
1.20067	-7
1.20433	-6
1.20800	-6
1.21167	-6
1.21533	-5
1.21900	-5
1.22267	-5
1.22633	-5
1.23000	-5
1.23367	-5
1.23733	-5
1.24100	-5
1.24467	-4
1.24833	-4
1.25200	-4
1.25567	-3
1.25933	-3
1.26300	-3
1.26667	-2
1.27033	-2
1.27400	-2
1.27767	-1
1.28133	-1
1.28500	-1
1.28867	-1
1.29233	-1
1.29600	-1
1.29967	-1
1.30333	-1
1.30700	-1
1.31067	-1
1.31433	-1
1.31800	-1
1.32167	-1
1.32533	-1
1.32900	-2
1.33267	-2
1.33633	-2
1.34000	-2
1.34367	-3
1.34733	-3
1.35100	-3
1.35467	-4
1.35833	-4
1.36200	-4
1.36567	-5
1.36933	-5
1.37300	-6
1.37667	-6
1.38033	-6
1.38400	-6
1.38767	-6
1.39133	-6
1.39500	-6
1.39867	-6
1.40233	-7
1.40600	-7
1.40967	-7
1.41333	-7
1.41700	-7
1.42067	-7
1.42433	-7
1.42800	-6
1.43167	-6
1.43533	-6
1.43900	-6
1.44267	-6
1.44633	-6
1.45000	-6
1.45367	-6
1.45733	-6
1.46100	-6
1.46467	-6
1.46833	-6
1.47200	-5
1.47567	-5
1.47933	-5
1.48300	-5
1.48667	-5
1.49033	-5
1.49400	-4
1.49767	-4
1.50133	-4
1.50500	-4
1.50867	-4
1.51233	-4
1.51600	-3
1.51967	-3
1.52333	-3
1.52700	-3
1.53067	-2
1.53433	-2
1.53800	-2
1.54167	-2
1.54533	-2
1.54900	-2
1.55267	-2
1.55633	-2
1.56000	-1
1.56367	-1
1.56733	-1
1.57100	-1
1.57467	-1
1.57833	-1
1.58200	-1
1.58567	-1
1.58933	-2
1.59300	-3
1.59667	-3
1.60033	-4
1.60400	-6
1.60767	-7
1.61133	-9
1.61500	-12
1.61867	-14
1.62233	-17
1.62600	-20
1.62967	-23
1.63333	-26
1.63700	-30
1.64067	-33
1.64433	-37
1.64800	-41
1.65167	-45
1.65533	-49
1.65900	-52
1.66267	-57
1.66633	-62
1.67000	-66
1.67367	-72
1.67733	-77
1.68100	-82
1.68467	-86
1.68833	-91
1.69200	-94
1.69567	-97
1.69933	-100
1.70300	-102
1.70667	-104
1.71033	-106
1.71400	-107
1.71767	-109
1.72133	-110
1.72500	-111
1.72867	-112
1.73233	-113
1.73600	-113
1.73967	-113
1.74333	-113
1.74700	-113
1.75067	-114
1.75433	-114
1.75800	-115
1.76167	-115
1.76533	-116
1.76900	-116
1.77267	-116
1.77633	-116
1.78000	-115
1.78367	-115
1.78733	-115
1.79100	-115
1.79467	-114
1.79833	-115
1.80200	-115
1.80567	-116
1.80933	-117
1.81300	-117
1.81667	-118
1.82033	-119
1.82400	-119
1.82767	-119
1.83133	-119
1.83500	-119
1.83867	-119
1.84233	-119
1.84600	-119
1.84967	-118
1.85333	-118
1.85700	-119
1.86067	-119
1.86433	-119
1.86800	-120
1.87167	-120
1.87533	-120
1.87900	-120
1.88267	-120
1.88633	-119
1.89000	-119
1.89367	-118
1.89733	-118
1.90100	-118
1.90467	-118
1.90833	-118
1.91200	-118
1.91567	-118
1.91933	-118
1.92300	-117
1.92667	-117
1.93033	-116
1.93400	-116
1.93767	-116
1.94133	-116
1.94500	-115
1.94867	-115
1.95233	-114
1.95600	-114
1.95967	-114
1.96333	-113
1.96700	-113
1.97067	-112
1.97433	-112
1.97800	-112
1.98167	-112
1.98533	-113
1.98900	-113
1.99267	-113
1.99633	-112
2.00000	-112
2.00367	-111
2.00733	-111
2.01100	-110
2.01467	-109
2.01833	-109
2.02200	-108
2.02567	-108
2.02933	-108
2.03300	-107
2.03667	-106
2.04033	-106
2.04400	-104
2.04767	-104
2.05133	-103
2.05500	-103
2.05867	-103
2.06233	-103
2.06600	-103
2.06967	-103
2.07333	-103
2.07700	-102
2.08067	-102
2.08433	-101
2.08800	-101
2.09167	-101
2.09533	-101
2.09900	-101
2.10267	-101
2.10633	-101
2.11000	-101
2.11367	-101
2.11733	-101
2.12100	-101
2.12467	-101
2.12833	-100
2.13200	-100
2.13567	-100
2.13933	-99
2.14300	-99
2.14667	-99
2.15033	-99
2.15400	-99
2.15767	-98
2.16133	-98
2.16500	-97
2.16867	-97
2.17233	-97
2.17600	-97
2.17967	-98
2.18333	-98
2.18700	-98
2.19067	-97
2.19433	-96
2.19800	-95
2.20167	-95
2.20533	-94
2.20900	-94
2.21267	-94
2.21633	-95
2.22000	-95
2.22367	-96
2.22733	-95
2.23100	-95
2.23467	-95
2.23833	-94
2.24200	-93
2.24567	-92
2.24933	-92
2.25300	-91
2.25667	-91
2.26033	-91
2.26400	-91
2.26767	-91
2.27133	-91
2.27500	-90
2.27867	-90
2.28233	-89
2.28600	-88
2.28967	-87
2.29333	-86
2.29700	-86
2.30067	-86
2.30433	-87
2.30800	-87
2.31167	-88
2.31533	-88
2.31900	-87
2.32267	-87
2.32633	-86
2.33000	-85
2.33367	-84
2.33733	-83
2.34100	-82
2.34467	-81
2.34833	-81
2.35200	-81
2.35567	-81
2.35933	-80
2.36300	-80
2.36667	-78
2.37033	-76
2.37400	-74
2.37767	-70
2.38133	-67
2.38500	-63
2.38867	-58
2.39233	-54
2.39600	-49
2.39967	-44
2.40333	-39
2.40700	-36
2.41067	-32
2.41433	-29
2.41800	-27
2.42167	-25
2.42533	-23
2.42900	-21
2.43267	-19
2.43633	-18
2.44000	-16
2.44367	-15
2.44733	-13
2.45100	-11
2.45467	-10
2.45833	-8
2.46200	-7
2.46567	-5
2.46933	-4
2.47300	-3
2.47667	-2
2.48033	-1
2.48400	-0
2.48767	1
2.49133	2
2.49500	3
2.49867	3
2.50233	4
2.50600	5
2.50967	6
2.51333	7
2.51700	7
2.52067	8
2.52433	9
2.52800	10
2.53167	11
2.53533	12
2.53900	12
2.54267	13
2.54633	13
2.55000	13
2.55367	13
2.55733	13
2.56100	14
2.56467	14
2.56833	14
2.57200	14
2.57567	14
2.57933	14
2.58300	14
2.58667	13
2.59033	13
2.59400	13
2.59767	14
2.60133	14
2.60500	14
2.60867	14
2.61233	14
2.61600	14
2.61967	14
2.62333	14
2.62700	14
2.63067	14
2.63433	13
2.63800	13
2.64167	13
2.64533	14
2.64900	14
2.65267	14
2.65633	15
2.66000	15
2.66367	16
2.66733	16
2.67100	17
2.67467	17
2.67833	18
2.68200	19
2.68567	20
2.68933	20
2.69300	21
2.69667	21
2.70033	21
2.70400	21
2.70767	21
2.71133	21
2.71500	21
2.71867	21
2.72233	21
2.72600	22
2.72967	22
2.73333	23
2.73700	23
2.74067	23
2.74433	23
2.74800	24
2.75167	24
2.75533	23
2.75900	23
2.76267	23
2.76633	23
2.77000	23
2.77367	23
2.77733	23
2.78100	23
2.78467	24
2.78833	24
2.79200	24
2.79567	24
2.79933	24
2.80300	24
2.80667	24
2.81033	24
2.81400	24
2.81767	24
2.82133	25
2.82500	25
2.82867	25
2.83233	25
2.83600	25
2.83967	23
2.84333	21
2.84700	16
2.85067	9
2.85433	-1
2.85800	-15
2.86167	-32
2.86533	-53
2.86900	-79
2.87267	-109
2.87633	-143
2.88000	-181
2.88367	-222
2.88733	-267
2.89100	-315
2.89467	-365
2.89833	-417
2.90200	-470
2.90567	-524
2.90933	-578
2.91300	-632
2.91667	-686
2.92033	-740
2.92400	-792
2.92767	-843
2.93133	-896
2.93500	-954
2.93867	-1014
2.94233	-1066
2.94600	-1100
2.94967	-1110
2.95333	-1093
2.95700	-1053
2.96067	-995
2.96433	-924
2.96800	-846
2.97167	-765
2.97533	-685
2.97900	-608
2.98267	-535
2.98633	-468
2.99000	-407
2.99367	-353
2.99733	-304
3.00100	-261
3.00467	-224
3.00833	-191
3.01200	-163
3.01567	-138
3.01933	-117
3.02300	-98
3.02667	-83
3.03033	-69
3.03400	-58
3.03767	-48
3.04133	-39
3.04500	-32
3.04867	-26
3.05233	-20
3.05600	-16
3.05967	-12
3.06333	-8
3.06700	-5
3.07067	-2
3.07433	-0
3.07800	2
3.08167	4
3.08533	5
3.08900	7
3.09267	8
3.09633	9
3.10000	10
3.10367	11
3.10733	12
3.11100	12
3.11467	13
3.11833	13
3.12200	14
3.12567	14
3.12933	15
3.13300	16
3.13667	16
3.14033	16
3.14400	16
3.14767	16
3.15133	16
3.15500	16
3.15867	16
3.16233	16
3.16600	16
3.16967	16
3.17333	16
3.17700	16
3.18067	17
3.18433	17
3.18800	17
3.19167	17
3.19533	17
3.19900	17
3.20267	17
3.20633	18
3.21000	18
3.21367	18
3.21733	18
3.22100	19
3.22467	19
3.22833	20
3.23200	20
3.23567	20
3.23933	21
3.24300	21
3.24667	22
3.25033	22
3.25400	23
3.25767	23
3.26133	24
3.26500	24
3.26867	25
3.27233	25
3.27600	25
3.27967	25
3.28333	25
3.28700	25
3.29067	25
3.29433	25
3.29800	25
3.30167	25
3.30533	25
3.30900	25
3.31267	25
3.31633	25
3.32000	25
3.32367	25
3.32733	25
3.33100	25
3.33467	26
3.33833	26
3.34200	26
3.34567	26
3.34933	26
3.35300	26
3.35667	26
3.36033	25
3.36400	25
3.36767	25
3.37133	24
3.37500	24
3.37867	24
3.38233	25
3.38600	25
3.38967	25
3.39333	25
3.39700	25
3.40067	25
3.40433	25
3.40800	25
3.41167	24
3.41533	24
3.41900	24
3.42267	24
3.42633	24
3.43000	23
3.43367	23
3.43733	23
3.44100	23
3.44467	23
3.44833	23
3.45200	23
3.45567	24
3.45933	24
3.46300	24
3.46667	24
3.47033	24
3.47400	25
3.47767	25
3.48133	24
3.48500	24
3.48867	24
3.49233	24
3.49600	24
3.49967	24
3.50333	24
3.50700	24
3.51067	24
3.51433	25
3.51800	25
3.52167	25
3.52533	24
3.52900	24
3.53267	24
3.53633	24
3.54000	24
3.54367	24
3.54733	25
3.55100	25
3.55467	25
3.55833	25
3.56200	25
3.56567	25
3.56933	25
3.57300	25
3.57667	25
3.58033	24
3.58400	24
3.58767	24
3.59133	24
3.59500	24
3.59867	24
3.60233	24
3.60600	24
3.60967	24
3.61333	24
3.61700	25
3.62067	25
3.62433	25
3.62800	25
3.63167	25
3.63533	25
3.63900	25
3.64267	25
3.64633	25
3.65000	25
3.65367	25
3.65733	25
3.66100	25
3.66467	24
3.66833	24
3.67200	24
3.67567	24
3.67933	24
3.68300	24
3.68667	24
3.69033	24
3.69400	24
3.69767	24
3.70133	23
3.70500	24
3.70867	24
3.71233	24
3.71600	24
3.71967	24
3.72333	24
3.72700	24
3.73067	24
3.73433	24
3.73800	24
3.74167	25
3.74533	25
3.74900	25
3.75267	25
3.75633	25
3.76000	25
3.76367	25
3.76733	24
3.77100	24
3.77467	24
3.77833	24
3.78200	24
3.78567	24
3.78933	23
3.79300	23
3.79667	23
3.80033	23
3.80400	23
3.80767	24
3.81133	24
3.81500	24
3.81867	24
3.82233	25
3.82600	25
3.82967	25
3.83333	26
3.83700	26
3.84067	26
3.84433	26
3.84800	27
3.85167	27
3.85533	27
3.85900	27
3.86267	27
3.86633	27
3.87000	27
3.87367	27
3.87733	27
3.88100	27
3.88467	27
3.88833	27
3.89200	28
3.89567	28
3.89933	28
3.90300	28
3.90667	29
3.91033	29
3.91400	29
3.91767	28
3.92133	28
3.92500	28
3.92867	28
3.93233	27
3.93600	27
3.93967	27
3.94333	27
3.94700	27
3.95067	27
3.95433	27
3.95800	27
3.96167	27
3.96533	27
3.96900	27
3.97267	27
3.97633	27
3.98000	27
3.98367	26
3.98733	26
3.99100	26
3.99467	26
3.99833	26

[Chromatogram (Ch3)]
Interval(msec)	220
# of Points	1091
Start Time(min)	0.002
End Time(min)	3.998
R.Time (min)	Intensity
0.00167	-1
0.00533	-5
0.00900	-7
0.01267	-5
0.01633	-3
0.02000	-3
0.02367	-2
0.02733	-2
0.03100	-2
0.03467	-4
0.03833	-4
0.04200	-3
0.04567	-3
0.04933	-3
0.05300	-2
0.05667	-2
0.06033	-3
0.06400	-1
0.06767	-0
0.07133	-1
0.07500	1
0.07867	1
0.08233	0
0.08600	2
0.08967	3
0.09333	3
0.09700	2
0.10067	1
0.10433	1
0.10800	3
0.11167	4
0.11533	5
0.11900	5
0.12267	3
0.12633	1
0.13000	1
0.13367	2
0.13733	3
0.14100	3
0.14467	2
0.14833	4
0.15200	4
0.15567	5
0.15933	7
0.16300	8
0.16667	6
0.17033	5
0.17400	4
0.17767	5
0.18133	6
0.18500	5
0.18867	4
0.19233	3
0.19600	4
0.19967	6
0.20333	8
0.20700	10
0.21067	13
0.21433	13
0.21800	12
0.22167	8
0.22533	4
0.22900	3
0.23267	1
0.23633	0
0.24000	3
0.24367	5
0.24733	7
0.25100	8
0.25467	9
0.25833	12
0.26200	14
0.26567	13
0.26933	11
0.27300	11
0.27667	10
0.28033	10
0.28400	9
0.28767	11
0.29133	14
0.29500	15
0.29867	15
0.30233	13
0.30600	10
0.30967	9
0.31333	9
0.31700	8
0.32067	6
0.32433	6
0.32800	6
0.33167	6
0.33533	8
0.33900	7
0.34267	7
0.34633	7
0.35000	8
0.35367	9
0.35733	10
0.36100	10
0.36467	7
0.36833	6
0.37200	4
0.37567	2
0.37933	2
0.38300	4
0.38667	4
0.39033	5
0.39400	8
0.39767	9
0.40133	11
0.40500	12
0.40867	13
0.41233	13
0.41600	14
0.41967	12
0.42333	12
0.42700	13
0.43067	15
0.43433	15
0.43800	13
0.44167	14
0.44533	14
0.44900	15
0.45267	17
0.45633	18
0.46000	18
0.46367	15
0.46733	12
0.47100	11
0.47467	10
0.47833	12
0.48200	14
0.48567	14
0.48933	15
0.49300	16
0.49667	17
0.50033	18
0.50400	18
0.50767	17
0.51133	17
0.51500	16
0.51867	15
0.52233	15
0.52600	14
0.52967	15
0.53333	14
0.53700	14
0.54067	14
0.54433	12
0.54800	12
0.55167	14
0.55533	15
0.55900	15
0.56267	15
0.56633	15
0.57000	15
0.57367	14
0.57733	14
0.58100	13
0.58467	14
0.58833	16
0.59200	17
0.59567	17
0.59933	17
0.60300	17
0.60667	17
0.61033	16
0.61400	17
0.61767	19
0.62133	20
0.62500	23
0.62867	23
0.63233	21
0.63600	17
0.63967	16
0.64333	18
0.64700	19
0.65067	18
0.65433	19
0.65800	21
0.66167	22
0.66533	23
0.66900	22
0.67267	21
0.67633	21
0.68000	22
0.68367	22
0.68733	24
0.69100	23
0.69467	23
0.69833	24
0.70200	25
0.70567	25
0.70933	27
0.71300	26
0.71667	23
0.72033	21
0.72400	19
0.72767	17
0.73133	18
0.73500	20
0.73867	20
0.74233	19
0.74600	18
0.74967	18
0.75333	20
0.75700	22
0.76067	23
0.76433	25
0.76800	25
0.77167	23
0.77533	22
0.77900	23
0.78267	24
0.78633	23
0.79000	20
0.79367	22
0.79733	22
0.80100	21
0.80467	19
0.80833	19
0.81200	21
0.81567	21
0.81933	19
0.82300	20
0.82667	21
0.83033	22
0.83400	24
0.83767	25
0.84133	23
0.84500	21
0.84867	20
0.85233	21
0.85600	22
0.85967	22
0.86333	24
0.86700	25
0.87067	26
0.87433	25
0.87800	22
0.88167	20
0.88533	21
0.88900	22
0.89267	22
0.89633	22
0.90000	23
0.90367	25
0.90733	25
0.91100	25
0.91467	26
0.91833	27
0.92200	27
0.92567	27
0.92933	25
0.93300	25
0.93667	25
0.94033	24
0.94400	24
0.94767	24
0.95133	23
0.95500	24
0.95867	25
0.96233	25
0.96600	25
0.96967	24
0.97333	23
0.97700	23
0.98067	22
0.98433	22
0.98800	24
0.99167	25
0.99533	24
0.99900	24
1.00267	23
1.00633	25
1.01000	25
1.01367	26
1.01733	29
1.02100	32
1.02467	31
1.02833	31
1.03200	31
1.03567	29
1.03933	28
1.04300	26
1.04667	26
1.05033	25
1.05400	23
1.05767	21
1.06133	20
1.06500	22
1.06867	25
1.07233	27
1.07600	28
1.07967	27
1.08333	29
1.08700	30
1.09067	29
1.09433	29
1.09800	29
1.10167	31
1.10533	30
1.10900	28
1.11267	25
1.11633	25
1.12000	28
1.12367	29
1.12733	29
1.13100	30
1.13467	29
1.13833	28
1.14200	26
1.14567	27
1.14933	29
1.15300	29
1.15667	29
1.16033	28
1.16400	27
1.16767	27
1.17133	27
1.17500	28
1.17867	29
1.18233	29
1.18600	31
1.18967	30
1.19333	28
1.19700	29
1.20067	27
1.20433	27
1.20800	26
1.21167	28
1.21533	30
1.21900	32
1.22267	33
1.22633	32
1.23000	30
1.23367	27
1.23733	25
1.24100	25
1.24467	26
1.24833	28
1.25200	30
1.25567	30
1.25933	32
1.26300	35
1.26667	36
1.27033	35
1.27400	33
1.27767	31
1.28133	30
1.28500	30
1.28867	28
1.29233	26
1.29600	26
1.29967	26
1.30333	27
1.30700	27
1.31067	27
1.31433	27
1.31800	27
1.32167	28
1.32533	29
1.32900	31
1.33267	33
1.33633	32
1.34000	31
1.34367	28
1.34733	26
1.35100	24
1.35467	25
1.35833	28
1.36200	27
1.36567	26
1.36933	24
1.37300	23
1.37667	25
1.38033	27
1.38400	30
1.38767	31
1.39133	31
1.39500	30
1.39867	29
1.40233	30
1.40600	32
1.40967	33
1.41333	33
1.41700	33
1.42067	32
1.42433	32
1.42800	32
1.43167	30
1.43533	30
1.43900	31
1.44267	34
1.44633	34
1.45000	32
1.45367	30
1.45733	30
1.46100	31
1.46467	32
1.46833	32
1.47200	31
1.47567	31
1.47933	32
1.48300	33
1.48667	35
1.49033	35
1.49400	32
1.49767	31
1.50133	31
1.50500	30
1.50867	32
1.51233	35
1.51600	34
1.51967	33
1.52333	31
1.52700	30
1.53067	31
1.53433	33
1.53800	34
1.54167	35
1.54533	35
1.54900	36
1.55267	35
1.55633	33
1.56000	30
1.56367	30
1.56733	30
1.57100	31
1.57467	33
1.57833	34
1.58200	33
1.58567	34
1.58933	35
1.59300	35
1.59667	35
1.60033	34
1.60400	34
1.60767	34
1.61133	36
1.61500	39
1.61867	42
1.62233	41
1.62600	38
1.62967	37
1.63333	38
1.63700	39
1.64067	40
1.64433	39
1.64800	38
1.65167	39
1.65533	40
1.65900	41
1.66267	41
1.66633	42
1.67000	43
1.67367	42
1.67733	42
1.68100	43
1.68467	44
1.68833	43
1.69200	44
1.69567	45
1.69933	46
1.70300	44
1.70667	43
1.71033	43
1.71400	43
1.71767	43
1.72133	43
1.72500	42
1.72867	42
1.73233	44
1.73600	45
1.73967	44
1.74333	48
1.74700	52
1.75067	53
1.75433	52
1.75800	49
1.76167	47
1.76533	47
1.76900	50
1.77267	52
1.77633	51
1.78000	50
1.78367	51
1.78733	52
1.79100	53
1.79467	53
1.79833	54
1.80200	55
1.80567	55
1.80933	54
1.81300	54
1.81667	55
1.82033	57
1.82400	59
1.82767	60
1.83133	61
1.83500	63
1.83867	63
1.84233	62
1.84600	64
1.84967	66
1.85333	66
1.85700	65
1.86067	66
1.86433	65
1.86800	66
1.87167	65
1.87533	67
1.87900	68
1.88267	68
1.88633	69
1.89000	71
1.89367	70
1.89733	68
1.90100	66
1.90467	65
1.90833	65
1.91200	66
1.91567	70
1.91933	72
1.92300	70
1.92667	70
1.93033	70
1.93400	72
1.93767	74
1.94133	77
1.94500	80
1.94867	80
1.95233	80
1.95600	79
1.95967	77
1.96333	77
1.96700	78
1.97067	80
1.97433	81
1.97800	82
1.98167	82
1.98533	83
1.98900	83
1.99267	82
1.99633	83
2.00000	85
2.00367	86
2.00733	87
2.01100	91
2.01467	93
2.01833	94
2.02200	94
2.02567	93
2.02933	92
2.03300	92
2.03667	94
2.04033	95
2.04400	94
2.04767	93
2.05133	93
2.05500	96
2.05867	98
2.06233	99
2.06600	100
2.06967	100
2.07333	101
2.07700	104
2.08067	104
2.08433	103
2.08800	106
2.09167	110
2.09533	110
2.09900	111
2.10267	112
2.10633	114
2.11000	114
2.11367	112
2.11733	113
2.12100	114
2.12467	114
2.12833	115
2.13200	118
2.13567	120
2.13933	122
2.14300	123
2.14667	125
2.15033	127
2.15400	128
2.15767	128
2.16133	127
2.16500	127
2.16867	127
2.17233	126
2.17600	127
2.17967	132
2.18333	136
2.18700	135
2.19067	134
2.19433	133
2.19800	134
2.20167	134
2.20533	136
2.20900	138
2.21267	141
2.21633	140
2.22000	143
2.22367	147
2.22733	150
2.23100	151
2.23467	152
2.23833	151
2.24200	151
2.24567	152
2.24933	154
2.25300	158
2.25667	161
2.26033	163
2.26400	166
2.26767	170
2.27133	170
2.27500	170
2.27867	170
2.28233	172
2.28600	175
2.28967	177
2.29333	178
2.29700	179
2.30067	180
2.30433	180
2.30800	181
2.31167	183
2.31533	185
2.31900	188
2.32267	189
2.32633	192
2.33000	192
2.33367	194
2.33733	197
2.34100	198
2.34467	198
2.34833	199
2.35200	201
2.35567	202
2.35933	203
2.36300	206
2.36667	209
2.37033	211
2.37400	211
2.37767	214
2.38133	215
2.38500	216
2.38867	217
2.39233	220
2.39600	222
2.39967	224
2.40333	226
2.40700	229
2.41067	234
2.41433	236
2.41800	238
2.42167	241
2.42533	243
2.42900	244
2.43267	247
2.43633	250
2.44000	255
2.44367	291
2.44733	385
2.45100	486
2.45467	569
2.45833	622
2.46200	628
2.46567	605
2.46933	577
2.47300	555
2.47667	545
2.48033	538
2.48400	526
2.48767	507
2.49133	480
2.49500	451
2.49867	426
2.50233	404
2.50600	388
2.50967	379
2.51333	374
2.51700	372
2.52067	376
2.52433	384
2.52800	397
2.53167	408
2.53533	419
2.53900	425
2.54267	425
2.54633	422
2.55000	412
2.55367	396
2.55733	380
2.56100	364
2.56467	349
2.56833	335
2.57200	326
2.57567	319
2.57933	315
2.58300	312
2.58667	311
2.59033	309
2.59400	304
2.59767	296
2.60133	285
2.60500	269
2.60867	248
2.61233	226
2.61600	204
2.61967	183
2.62333	160
2.62700	142
2.63067	133
2.63433	129
2.63800	130
2.64167	135
2.64533	142
2.64900	148
2.65267	153
2.65633	161
2.66000	171
2.66367	182
2.66733	192
2.67100	201
2.67467	210
2.67833	217
2.68200	220
2.68567	220
2.68933	218
2.69300	214
2.69667	209
2.70033	207
2.70400	206
2.70767	205
2.71133	204
2.71500	204
2.71867	202
2.72233	199
2.72600	197
2.72967	196
2.73333	196
2.73700	195
2.74067	195
2.74433	195
2.74800	195
2.75167	195
2.75533	196
2.75900	199
2.76267	200
2.76633	202
2.77000	204
2.77367	206
2.77733	206
2.78100	206
2.78467	206
2.78833	207
2.79200	207
2.79567	209
2.79933	211
2.80300	213
2.80667	214
2.81033	216
2.81400	220
2.81767	227
2.82133	246
2.82500	286
2.82867	364
2.83233	500
2.83600	720
2.83967	1038
2.84333	1461
2.84700	1976
2.85067	2556
2.85433	3156
2.85800	3732
2.86167	4234
2.86533	4622
2.86900	4876
2.87267	4986
2.87633	4959
2.88000	4811
2.88367	4573
2.88733	4275
2.89100	3944
2.89467	3598
2.89833	3253
2.90200	2920
2.90567	2607
2.90933	2319
2.91300	2059
2.91667	1828
2.92033	1625
2.92400	1445
2.92767	1288
2.93133	1148
2.93500	1026
2.93867	921
2.94233	829
2.94600	749
2.94967	683
2.95333	626
2.95700	577
2.96067	535
2.96433	496
2.96800	463
2.97167	433
2.97533	408
2.97900	385
2.98267	364
2.98633	347
2.99000	331
2.99367	319
2.99733	308
3.00100	298
3.00467	290
3.00833	282
3.01200	273
3.01567	267
3.01933	261
3.02300	258
3.02667	254
3.03033	249
3.03400	244
3.03767	241
3.04133	239
3.04500	237
3.04867	232
3.05233	227
3.05600	223
3.05967	221
3.06333	219
3.06700	216
3.07067	213
3.07433	211
3.07800	207
3.08167	204
3.08533	199
3.08900	197
3.09267	195
3.09633	194
3.10000	194
3.10367	194
3.10733	194
3.11100	193
3.11467	191
3.11833	189
3.12200	184
3.12567	177
3.12933	168
3.13300	154
3.13667	136
3.14033	121
3.14400	117
3.14767	126
3.15133	145
3.15500	176
3.15867	217
3.16233	262
3.16600	304
3.16967	346
3.17333	387
3.17700	426
3.18067	459
3.18433	487
3.18800	510
3.19167	530
3.19533	549
3.19900	565
3.20267	579
3.20633	591
3.21000	599
3.21367	606
3.21733	612
3.22100	620
3.22467	628
3.22833	634
3.23200	637
3.23567	639
3.23933	640
3.24300	640
3.24667	644
3.25033	648
3.25400	653
3.25767	657
3.26133	661
3.26500	664
3.26867	667
3.27233	668
3.27600	668
3.27967	668
3.28333	669
3.28700	671
3.29067	672
3.29433	673
3.29800	673
3.30167	673
3.30533	673
3.30900	672
3.31267	671
3.31633	673
3.32000	672
3.32367	672
3.32733	671
3.33100	668
3.33467	665
3.33833	662
3.34200	660
3.34567	658
3.34933	655
3.35300	652
3.35667	650
3.36033	648
3.36400	648
3.36767	646
3.37133	642
3.37500	641
3.37867	640
3.38233	640
3.38600	639
3.38967	639
3.39333	639
3.39700	639
3.40067	636
3.40433	636
3.40800	638
3.41167	638
3.41533	639
3.41900	639
3.42267	637
3.42633	636
3.43000	635
3.43367	633
3.43733	630
3.44100	629
3.44467	631
3.44833	630
3.45200	629
3.45567	628
3.45933	627
3.46300	625
3.46667	624
3.47033	625
3.47400	626
3.47767	625
3.48133	626
3.48500	623
3.48867	620
3.49233	619
3.49600	617
3.49967	615
3.50333	611
3.50700	608
3.51067	605
3.51433	603
3.51800	601
3.52167	599
3.52533	594
3.52900	591
3.53267	589
3.53633	587
3.54000	583
3.54367	582
3.54733	583
3.55100	583
3.55467	581
3.55833	582
3.56200	581
3.56567	579
3.56933	577
3.57300	575
3.57667	574
3.58033	572
3.58400	571
3.58767	571
3.59133	570
3.59500	570
3.59867	570
3.60233	568
3.60600	565
3.60967	563
3.61333	561
3.61700	561
3.62067	560
3.62433	559
3.62800	557
3.63167	555
3.63533	555
3.63900	555
3.64267	556
3.64633	554
3.65000	554
3.65367	555
3.65733	557
3.66100	556
3.66467	555
3.66833	554
3.67200	551
3.67567	548
3.67933	545
3.68300	543
3.68667	542
3.69033	543
3.69400	543
3.69767	542
3.70133	541
3.70500	540
3.70867	540
3.71233	539
3.71600	538
3.71967	536
3.72333	534
3.72700	532
3.73067	532
3.73433	532
3.73800	533
3.74167	532
3.74533	531
3.74900	531
3.75267	530
3.75633	531
3.76000	532
3.76367	532
3.76733	533
3.77100	534
3.77467	535
3.77833	535
3.78200	535
3.78567	533
3.78933	532
3.79300	534
3.79667	536
3.80033	536
3.80400	534
3.80767	535
3.81133	534
3.81500	532
3.81867	531
3.82233	532
3.82600	532
3.82967	530
3.83333	530
3.83700	529
3.84067	527
3.84433	525
3.84800	523
3.85167	523
3.85533	524
3.85900	522
3.86267	522
3.86633	523
3.87000	524
3.87367	525
3.87733	522
3.88100	520
3.88467	518
3.88833	517
3.89200	517
3.89567	517
3.89933	517
3.90300	513
3.90667	510
3.91033	508
3.91400	507
3.91767	507
3.92133	505
3.92500	503
3.92867	501
3.93233	499
3.93600	497
3.93967	497
3.94333	498
3.94700	497
3.95067	496
3.95433	496
3.95800	496
3.96167	494
3.96533	491
3.96900	489
3.97267	490
3.97633	489
3.98000	487
3.98367	484
3.98733	484
3.99100	483
3.99467	481
3.99833	478

[Status Trace (Column Oven Temperature)]
Interval(msec)	1000
# of Points	240
Start Time(min)	0.007
End Time(min)	3.991
Intensity Units	
Intensity Multiplier	1
R.Time (min)	Intensity
0.00728	35.05
0.02395	35.07
0.04062	35.06
0.05728	35.05
0.07395	35.05
0.09062	35.05
0.10728	35.06
0.12395	35.06
0.14062	35.04
0.15728	35.04
0.17395	35.03
0.19062	35.01
0.20728	35.01
0.22395	35.01
0.24062	35.01
0.25728	35.01
0.27395	35.02
0.29062	35.03
0.30728	35.03
0.32395	35.04
0.34062	35.04
0.35728	35.04
0.37395	35.05
0.39062	35.06
0.40728	35.05
0.42395	35.05
0.44062	35.04
0.45728	35.04
0.47395	35.04
0.49062	35.03
0.50728	35.04
0.52395	35.05
0.54062	35.04
0.55728	35.03
0.57395	35.02
0.59062	35.01
0.60728	35.01
0.62395	35.02
0.64062	35.02
0.65728	35.02
0.67395	35.02
0.69062	35.02
0.70728	35.02
0.72395	35.00
0.74062	34.99
0.75728	34.98
0.77395	34.97
0.79062	34.97
0.80728	34.98
0.82395	34.98
0.84062	34.98
0.85728	34.97
0.87395	34.97
0.89062	34.98
0.90728	34.99
0.92395	35.00
0.94062	35.01
0.95728	35.01
0.97395	35.02
0.99062	35.01
1.00728	35.00
1.02395	35.00
1.04062	34.99
1.05728	34.99
1.07395	35.00
1.09062	34.99
1.10728	34.99
1.12395	34.99
1.14062	35.00
1.15728	35.01
1.17395	35.01
1.19062	35.02
1.20728	35.02
1.22395	35.02
1.24062	35.02
1.25728	35.00
1.27395	34.99
1.29062	34.98
1.30728	34.97
1.32395	34.97
1.34062	34.98
1.35728	34.99
1.37395	35.00
1.39062	35.00
1.40728	35.01
1.42395	35.01
1.44062	35.02
1.45728	35.02
1.47395	35.01
1.49062	35.03
1.50728	35.02
1.52395	35.01
1.54062	35.00
1.55728	34.98
1.57395	34.97
1.59062	34.98
1.60728	35.03
1.62395	35.16
1.64062	35.35
1.65728	35.60
1.67395	35.95
1.69062	36.32
1.70728	36.66
1.72395	37.01
1.74062	37.34
1.75728	37.68
1.77395	38.00
1.79062	38.31
1.80728	38.66
1.82395	39.00
1.84062	39.32
1.85728	39.66
1.87395	39.99
1.89062	40.30
1.90728	40.65
1.92395	40.96
1.94062	41.30
1.95728	41.60
1.97395	41.94
1.99062	42.26
2.00728	42.57
2.02395	42.91
2.04062	43.23
2.05728	43.56
2.07395	43.86
2.09062	44.20
2.10728	44.52
2.12395	44.84
2.14062	45.17
2.15728	45.50
2.17395	45.83
2.19062	46.15
2.20728	46.48
2.22395	46.82
2.24062	47.14
2.25728	47.49
2.27395	47.82
2.29062	48.14
2.30728	48.52
2.32395	48.83
2.34062	49.13
2.35728	49.48
2.37395	49.65
2.39062	49.70
2.40728	49.69
2.42395	49.71
2.44062	49.70
2.45728	49.70
2.47395	49.72
2.49062	49.73
2.50728	49.74
2.52395	49.74
2.54062	49.75
2.55728	49.76
2.57395	49.77
2.59062	49.78
2.60728	49.79
2.62395	49.82
2.64062	49.84
2.65728	49.85
2.67395	49.85
2.69062	49.83
2.70728	49.86
2.72395	49.85
2.74062	49.85
2.75728	49.87
2.77395	49.88
2.79062	49.88
2.80728	49.87
2.82395	49.86
2.84062	49.87
2.85728	49.87
2.87395	49.89
2.89062	49.90
2.90728	49.91
2.92395	49.92
2.94062	49.95
2.95728	49.97
2.97395	49.99
2.99062	50.00
3.00728	50.01
3.02395	50.02
3.04062	50.03
3.05728	50.03
3.07395	50.04
3.09062	50.03
3.10728	50.04
3.12395	50.04
3.14062	50.05
3.15728	50.07
3.17395	50.08
3.19062	50.10
3.20728	50.10
3.22395	50.11
3.24062	50.10
3.25728	50.08
3.27395	50.07
3.29062	50.06
3.30728	50.06
3.32395	50.05
3.34062	50.03
3.35728	50.04
3.37395	50.03
3.39062	50.03
3.40728	50.05
3.42395	50.06
3.44062	50.06
3.45728	50.06
3.47395	50.06
3.49062	50.07
3.50728	50.07
3.52395	50.07
3.54062	50.08
3.55728	50.07
3.57395	50.07
3.59062	50.07
3.60728	50.07
3.62395	50.07
3.64062	50.07
3.65728	50.08
3.67395	50.08
3.69062	50.07
3.70728	50.07
3.72395	50.08
3.74062	50.09
3.75728	50.09
3.77395	50.09
3.79062	50.10
3.80728	50.10
3.82395	50.10
3.84062	50.08
3.85728	50.07
3.87395	50.05
3.89062	50.02
3.90728	50.01
3.92395	50.00
3.94062	49.99
3.95728	49.99
3.97395	49.99
3.99062	49.99

[Status Trace (Injection Unit Temperature)]
Interval(msec)	1000
# of Points	240
Start Time(min)	0.007
End Time(min)	3.991
Intensity Units	
Intensity Multiplier	1
R.Time (min)	Intensity
0.00728	99.98
0.02395	99.98
0.04062	99.98
0.05728	99.98
0.07395	99.98
0.09062	99.98
0.10728	99.98
0.12395	99.98
0.14062	99.98
0.15728	99.98
0.17395	99.98
0.19062	99.99
0.20728	99.98
0.22395	99.99
0.24062	99.98
0.25728	99.98
0.27395	99.99
0.29062	99.98
0.30728	99.98
0.32395	99.99
0.34062	99.99
0.35728	99.99
0.37395	99.98
0.39062	99.98
0.40728	99.98
0.42395	99.99
0.44062	99.99
0.45728	99.98
0.47395	99.98
0.49062	99.98
0.50728	99.99
0.52395	99.98
0.54062	99.99
0.55728	99.99
0.57395	99.98
0.59062	99.98
0.60728	99.99
0.62395	99.99
0.64062	99.98
0.65728	99.99
0.67395	99.98
0.69062	99.98
0.70728	99.99
0.72395	99.99
0.74062	99.99
0.75728	99.99
0.77395	99.99
0.79062	99.98
0.80728	99.99
0.82395	99.98
0.84062	99.98
0.85728	99.99
0.87395	99.99
0.89062	99.99
0.90728	99.99
0.92395	99.98
0.94062	99.99
0.95728	99.99
0.97395	99.98
0.99062	99.98
1.00728	99.98
1.02395	99.98
1.04062	99.98
1.05728	99.98
1.07395	99.98
1.09062	99.98
1.10728	99.98
1.12395	99.98
1.14062	99.98
1.15728	99.98
1.17395	99.98
1.19062	99.98
1.20728	99.98
1.22395	99.98
1.24062	99.98
1.25728	99.98
1.27395	99.98
1.29062	99.98
1.30728	99.98
1.32395	99.98
1.34062	99.98
1.35728	99.98
1.37395	99.98
1.39062	99.98
1.40728	99.98
1.42395	99.98
1.44062	99.99
1.45728	99.98
1.47395	99.98
1.49062	99.98
1.50728	99.98
1.52395	99.98
1.54062	99.98
1.55728	99.98
1.57395	99.98
1.59062	99.98
1.60728	99.99
1.62395	99.98
1.64062	99.98
1.65728	99.98
1.67395	99.99
1.69062	99.99
1.70728	99.98
1.72395	99.98
1.74062	99.98
1.75728	99.99
1.77395	99.99
1.79062	99.99
1.80728	99.98
1.82395	99.99
1.84062	99.98
1.85728	99.98
1.87395	99.98
1.89062	99.98
1.90728	99.98
1.92395	99.98
1.94062	99.98
1.95728	99.99
1.97395	99.98
1.99062	99.98
2.00728	99.98
2.02395	99.98
2.04062	99.98
2.05728	99.98
2.07395	99.98
2.09062	99.97
2.10728	99.98
2.12395	99.98
2.14062	99.97
2.15728	99.98
2.17395	99.98
2.19062	99.98
2.20728	99.98
2.22395	99.97
2.24062	99.97
2.25728	99.97
2.27395	99.97
2.29062	99.97
2.30728	99.97
2.32395	99.98
2.34062	99.97
2.35728	99.97
2.37395	99.97
2.39062	99.97
2.40728	99.97
2.42395	99.97
2.44062	99.97
2.45728	99.97
2.47395	99.97
2.49062	99.97
2.50728	99.97
2.52395	99.97
2.54062	99.97
2.55728	99.97
2.57395	99.97
2.59062	99.97
2.60728	99.97
2.62395	99.97
2.64062	99.97
2.65728	99.97
2.67395	99.97
2.69062	99.97
2.70728	99.98
2.72395	99.98
2.74062	99.98
2.75728	99.98
2.77395	99.99
2.79062	99.99
2.80728	99.99
2.82395	99.99
2.84062	99.99
2.85728	99.99
2.87395	99.99
2.89062	99.99
2.90728	100.00
2.92395	100.00
2.94062	100.00
2.95728	100.00
2.97395	100.00
2.99062	100.01
3.00728	100.00
3.02395	100.01
3.04062	100.00
3.05728	100.01
3.07395	100.01
3.09062	100.01
3.10728	100.01
3.12395	100.01
3.14062	100.01
3.15728	100.02
3.17395	100.02
3.19062	100.02
3.20728	100.02
3.22395	100.02
3.24062	100.02
3.25728	100.02
3.27395	100.02
3.29062	100.02
3.30728	100.02
3.32395	100.02
3.34062	100.03
3.35728	100.02
3.37395	100.03
3.39062	100.02
3.40728	100.03
3.42395	100.03
3.44062	100.03
3.45728	100.03
3.47395	100.03
3.49062	100.03
3.50728	100.03
3.52395	100.03
3.54062	100.03
3.55728	100.03
3.57395	100.04
3.59062	100.04
3.60728	100.04
3.62395	100.04
3.64062	100.03
3.65728	100.03
3.67395	100.04
3.69062	100.04
3.70728	100.04
3.72395	100.04
3.74062	100.04
3.75728	100.04
3.77395	100.04
3.79062	100.04
3.80728	100.04
3.82395	100.04
3.84062	100.04
3.85728	100.04
3.87395	100.04
3.89062	100.05
3.90728	100.05
3.92395	100.04
3.94062	100.04
3.95728	100.05
3.97395	100.04
3.99062	100.05

[Status Trace (Carrier Gas Pressure)]
Interval(msec)	1000
# of Points	240
Start Time(min)	0.007
End Time(min)	3.991
Intensity Units	
Intensity Multiplier	1
R.Time (min)	Intensity
0.00728	58.00
0.02395	55.43
0.04062	56.99
0.05728	59.18
0.07395	59.44
0.09062	58.09
0.10728	57.98
0.12395	58.01
0.14062	58.01
0.15728	58.01
0.17395	58.00
0.19062	58.00
0.20728	58.00
0.22395	58.00
0.24062	58.00
0.25728	58.00
0.27395	58.00
0.29062	58.00
0.30728	58.00
0.32395	58.00
0.34062	58.00
0.35728	58.00
0.37395	58.00
0.39062	58.00
0.40728	58.00
0.42395	58.00
0.44062	58.00
0.45728	58.00
0.47395	58.00
0.49062	58.00
0.50728	58.00
0.52395	58.00
0.54062	58.00
0.55728	58.00
0.57395	58.00
0.59062	58.00
0.60728	58.00
0.62395	58.00
0.64062	58.00
0.65728	58.00
0.67395	58.00
0.69062	58.00
0.70728	58.00
0.72395	58.00
0.74062	58.00
0.75728	58.00
0.77395	58.00
0.79062	58.00
0.80728	58.00
0.82395	58.00
0.84062	58.00
0.85728	58.00
0.87395	58.00
0.89062	58.00
0.90728	58.00
0.92395	58.00
0.94062	58.00
0.95728	58.00
0.97395	58.00
0.99062	58.00
1.00728	58.00
1.02395	58.00
1.04062	58.00
1.05728	58.00
1.07395	58.00
1.09062	58.00
1.10728	58.00
1.12395	58.00
1.14062	58.00
1.15728	58.00
1.17395	58.00
1.19062	58.00
1.20728	58.00
1.22395	58.00
1.24062	58.00
1.25728	58.00
1.27395	58.00
1.29062	58.00
1.30728	58.00
1.32395	58.00
1.34062	58.00
1.35728	58.00
1.37395	58.00
1.39062	58.00
1.40728	58.00
1.42395	58.00
1.44062	58.00
1.45728	58.00
1.47395	58.00
1.49062	58.00
1.50728	58.00
1.52395	58.00
1.54062	58.00
1.55728	58.00
1.57395	58.00
1.59062	58.00
1.60728	58.00
1.62395	58.00
1.64062	58.00
1.65728	58.01
1.67395	58.01
1.69062	58.00
1.70728	58.00
1.72395	58.00
1.74062	58.00
1.75728	58.00
1.77395	58.00
1.79062	58.00
1.80728	58.00
1.82395	58.00
1.84062	58.00
1.85728	58.00
1.87395	58.00
1.89062	58.00
1.90728	58.00
1.92395	58.00
1.94062	58.00
1.95728	58.00
1.97395	58.00
1.99062	58.00
2.00728	58.00
2.02395	58.00
2.04062	58.00
2.05728	58.00
2.07395	58.00
2.09062	58.00
2.10728	58.00
2.12395	58.00
2.14062	58.00
2.15728	58.00
2.17395	58.00
2.19062	58.00
2.20728	58.00
2.22395	58.00
2.24062	58.00
2.25728	58.00
2.27395	58.00
2.29062	58.00
2.30728	58.00
2.32395	58.00
2.34062	58.00
2.35728	58.00
2.37395	57.99
2.39062	57.99
2.40728	57.99
2.42395	58.00
2.44062	58.00
2.45728	58.00
2.47395	58.00
2.49062	58.00
2.50728	57.99
2.52395	57.98
2.54062	58.00
2.55728	58.00
2.57395	58.00
2.59062	58.00
2.60728	58.00
2.62395	58.00
2.64062	58.00
2.65728	58.00
2.67395	58.00
2.69062	58.00
2.70728	58.00
2.72395	58.00
2.74062	58.00
2.75728	58.00
2.77395	58.00
2.79062	58.00
2.80728	58.00
2.82395	58.00
2.84062	58.00
2.85728	58.00
2.87395	58.00
2.89062	58.00
2.90728	58.00
2.92395	58.00
2.94062	58.00
2.95728	58.00
2.97395	58.00
2.99062	58.00
3.00728	58.00
3.02395	58.00
3.04062	58.00
3.05728	58.00
3.07395	58.00
3.09062	58.00
3.10728	58.00
3.12395	58.00
3.14062	58.00
3.15728	58.00
3.17395	58.00
3.19062	58.00
3.20728	58.00
3.22395	58.00
3.24062	58.00
3.25728	58.00
3.27395	58.00
3.29062	58.00
3.30728	58.00
3.32395	58.00
3.34062	58.00
3.35728	58.00
3.37395	58.00
3.39062	58.00
3.40728	58.00
3.42395	58.00
3.44062	58.00
3.45728	58.00
3.47395	58.00
3.49062	58.00
3.50728	58.00
3.52395	58.00
3.54062	58.00
3.55728	58.00
3.57395	58.00
3.59062	58.00
3.60728	58.00
3.62395	58.00
3.64062	58.00
3.65728	58.00
3.67395	58.00
3.69062	58.00
3.70728	58.00
3.72395	58.00
3.74062	58.00
3.75728	58.00
3.77395	58.00
3.79062	58.00
3.80728	58.00
3.82395	58.00
3.84062	58.00
3.85728	58.00
3.87395	58.00
3.89062	58.00
3.90728	58.00
3.92395	58.00
3.94062	58.00
3.95728	58.00
3.97395	58.00
3.99062	58.00

[Status Trace (Carrier Gas Flow)]
Interval(msec)	1000
# of Points	240
Start Time(min)	0.007
End Time(min)	3.991
Intensity Units	
Intensity Multiplier	1
R.Time (min)	Intensity
0.00728	34.52
0.02395	34.54
0.04062	34.54
0.05728	34.55
0.07395	34.50
0.09062	34.52
0.10728	34.52
0.12395	34.52
0.14062	34.52
0.15728	34.52
0.17395	34.52
0.19062	34.52
0.20728	34.52
0.22395	34.52
0.24062	34.52
0.25728	34.52
0.27395	34.52
0.29062	34.52
0.30728	34.52
0.32395	34.51
0.34062	34.52
0.35728	34.52
0.37395	34.52
0.39062	34.52
0.40728	34.52
0.42395	34.52
0.44062	34.52
0.45728	34.52
0.47395	34.52
0.49062	34.52
0.50728	34.52
0.52395	34.52
0.54062	34.52
0.55728	34.51
0.57395	34.52
0.59062	34.52
0.60728	34.52
0.62395	34.52
0.64062	34.52
0.65728	34.52
0.67395	34.52
0.69062	34.52
0.70728	34.52
0.72395	34.52
0.74062	34.52
0.75728	34.52
0.77395	34.52
0.79062	34.52
0.80728	34.52
0.82395	34.52
0.84062	34.52
0.85728	34.52
0.87395	34.52
0.89062	34.52
0.90728	34.51
0.92395	34.52
0.94062	34.52
0.95728	34.52
0.97395	34.52
0.99062	34.52
1.00728	34.52
1.02395	34.52
1.04062	34.51
1.05728	34.52
1.07395	34.52
1.09062	34.52
1.10728	34.52
1.12395	34.52
1.14062	34.52
1.15728	34.52
1.17395	34.52
1.19062	34.52
1.20728	34.51
1.22395	34.52
1.24062	34.52
1.25728	34.53
1.27395	34.52
1.29062	34.52
1.30728	34.52
1.32395	34.52
1.34062	34.51
1.35728	34.52
1.37395	34.52
1.39062	34.52
1.40728	34.52
1.42395	34.52
1.44062	34.52
1.45728	34.51
1.47395	34.51
1.49062	34.52
1.50728	34.52
1.52395	34.51
1.54062	34.52
1.55728	34.52
1.57395	34.52
1.59062	34.52
1.60728	34.52
1.62395	34.52
1.64062	34.52
1.65728	34.52
1.67395	34.52
1.69062	34.51
1.70728	34.52
1.72395	34.52
1.74062	34.52
1.75728	34.51
1.77395	34.52
1.79062	34.52
1.80728	34.52
1.82395	34.52
1.84062	34.52
1.85728	34.52
1.87395	34.52
1.89062	34.51
1.90728	34.52
1.92395	34.52
1.94062	34.52
1.95728	34.52
1.97395	34.51
1.99062	34.52
2.00728	34.52
2.02395	34.53
2.04062	34.52
2.05728	34.53
2.07395	34.51
2.09062	34.51
2.10728	34.52
2.12395	34.52
2.14062	34.52
2.15728	34.52
2.17395	34.51
2.19062	34.51
2.20728	34.52
2.22395	34.52
2.24062	34.52
2.25728	34.51
2.27395	34.51
2.29062	34.53
2.30728	34.52
2.32395	34.52
2.34062	34.52
2.35728	34.52
2.37395	34.52
2.39062	34.51
2.40728	34.52
2.42395	34.51
2.44062	34.52
2.45728	34.52
2.47395	34.53
2.49062	34.52
2.50728	34.33
2.52395	34.52
2.54062	34.52
2.55728	34.52
2.57395	34.51
2.59062	34.51
2.60728	34.51
2.62395	34.52
2.64062	34.53
2.65728	34.53
2.67395	34.52
2.69062	34.52
2.70728	34.52
2.72395	34.52
2.74062	34.52
2.75728	34.53
2.77395	34.52
2.79062	34.52
2.80728	34.52
2.82395	34.51
2.84062	34.51
2.85728	34.51
2.87395	34.52
2.89062	34.52
2.90728	34.52
2.92395	34.52
2.94062	34.52
2.95728	34.52
2.97395	34.52
2.99062	34.52
3.00728	34.52
3.02395	34.52
3.04062	34.52
3.05728	34.52
3.07395	34.52
3.09062	34.52
3.10728	34.52
3.12395	34.52
3.14062	34.52
3.15728	34.52
3.17395	34.52
3.19062	34.51
3.20728	34.51
3.22395	34.52
3.24062	34.52
3.25728	34.52
3.27395	34.52
3.29062	34.52
3.30728	34.51
3.32395	34.53
3.34062	34.52
3.35728	34.52
3.37395	34.51
3.39062	34.52
3.40728	34.52
3.42395	34.52
3.44062	34.52
3.45728	34.51
3.47395	34.52
3.49062	34.52
3.50728	34.52
3.52395	34.52
3.54062	34.51
3.55728	34.52
3.57395	34.51
3.59062	34.52
3.60728	34.52
3.62395	34.51
3.64062	34.52
3.65728	34.52
3.67395	34.52
3.69062	34.53
3.70728	34.52
3.72395	34.51
3.74062	34.51
3.75728	34.52
3.77395	34.51
3.79062	34.52
3.80728	34.52
3.82395	34.52
3.84062	34.52
3.85728	34.51
3.87395	34.52
3.89062	34.52
3.90728	34.52
3.92395	34.52
3.94062	34.52
3.95728	34.52
3.97395	34.52
3.99062	34.52

[Status Trace (Column Flow)]
Interval(msec)	1000
# of Points	240
Start Time(min)	0.007
End Time(min)	3.991
Intensity Units	
Intensity Multiplier	1
R.Time (min)	Intensity
0.00728	5.57
0.02395	5.27
0.04062	5.45
0.05728	5.70
0.07395	5.74
0.09062	5.58
0.10728	5.56
0.12395	5.57
0.14062	5.57
0.15728	5.57
0.17395	5.57
0.19062	5.57
0.20728	5.57
0.22395	5.57
0.24062	5.57
0.25728	5.57
0.27395	5.57
0.29062	5.57
0.30728	5.57
0.32395	5.57
0.34062	5.57
0.35728	5.57
0.37395	5.57
0.39062	5.57
0.40728	5.57
0.42395	5.57
0.44062	5.57
0.45728	5.57
0.47395	5.57
0.49062	5.57
0.50728	5.57
0.52395	5.57
0.54062	5.57
0.55728	5.57
0.57395	5.57
0.59062	5.57
0.60728	5.57
0.62395	5.57
0.64062	5.57
0.65728	5.57
0.67395	5.57
0.69062	5.57
0.70728	5.57
0.72395	5.57
0.74062	5.57
0.75728	5.57
0.77395	5.57
0.79062	5.57
0.80728	5.57
0.82395	5.57
0.84062	5.57
0.85728	5.57
0.87395	5.57
0.89062	5.57
0.90728	5.57
0.92395	5.57
0.94062	5.57
0.95728	5.57
0.97395	5.57
0.99062	5.57
1.00728	5.57
1.02395	5.57
1.04062	5.57
1.05728	5.57
1.07395	5.57
1.09062	5.57
1.10728	5.57
1.12395	5.57
1.14062	5.57
1.15728	5.57
1.17395	5.57
1.19062	5.57
1.20728	5.57
1.22395	5.57
1.24062	5.57
1.25728	5.57
1.27395	5.57
1.29062	5.57
1.30728	5.57
1.32395	5.57
1.34062	5.57
1.35728	5.57
1.37395	5.57
1.39062	5.57
1.40728	5.57
1.42395	5.57
1.44062	5.57
1.45728	5.57
1.47395	5.57
1.49062	5.57
1.50728	5.57
1.52395	5.57
1.54062	5.57
1.55728	5.57
1.57395	5.57
1.59062	5.57
1.60728	5.57
1.62395	5.56
1.64062	5.56
1.65728	5.55
1.67395	5.54
1.69062	5.53
1.70728	5.51
1.72395	5.50
1.74062	5.49
1.75728	5.48
1.77395	5.47
1.79062	5.46
1.80728	5.45
1.82395	5.44
1.84062	5.43
1.85728	5.42
1.87395	5.41
1.89062	5.40
1.90728	5.39
1.92395	5.38
1.94062	5.37
1.95728	5.36
1.97395	5.35
1.99062	5.34
2.00728	5.33
2.02395	5.32
2.04062	5.32
2.05728	5.30
2.07395	5.30
2.09062	5.29
2.10728	5.28
2.12395	5.27
2.14062	5.26
2.15728	5.25
2.17395	5.24
2.19062	5.23
2.20728	5.22
2.22395	5.21
2.24062	5.20
2.25728	5.19
2.27395	5.18
2.29062	5.17
2.30728	5.16
2.32395	5.15
2.34062	5.15
2.35728	5.14
2.37395	5.13
2.39062	5.13
2.40728	5.13
2.42395	5.13
2.44062	5.13
2.45728	5.13
2.47395	5.13
2.49062	5.13
2.50728	5.13
2.52395	5.13
2.54062	5.13
2.55728	5.13
2.57395	5.13
2.59062	5.13
2.60728	5.13
2.62395	5.13
2.64062	5.12
2.65728	5.12
2.67395	5.12
2.69062	5.12
2.70728	5.12
2.72395	5.12
2.74062	5.12
2.75728	5.12
2.77395	5.12
2.79062	5.12
2.80728	5.12
2.82395	5.12
2.84062	5.12
2.85728	5.12
2.87395	5.12
2.89062	5.12
2.90728	5.12
2.92395	5.12
2.94062	5.12
2.95728	5.12
2.97395	5.12
2.99062	5.12
3.00728	5.12
3.02395	5.12
3.04062	5.12
3.05728	5.12
3.07395	5.12
3.09062	5.12
3.10728	5.12
3.12395	5.12
3.14062	5.12
3.15728	5.12
3.17395	5.12
3.19062	5.12
3.20728	5.12
3.22395	5.12
3.24062	5.12
3.25728	5.12
3.27395	5.12
3.29062	5.12
3.30728	5.12
3.32395	5.12
3.34062	5.12
3.35728	5.12
3.37395	5.12
3.39062	5.12
3.40728	5.12
3.42395	5.12
3.44062	5.12
3.45728	5.12
3.47395	5.12
3.49062	5.12
3.50728	5.12
3.52395	5.12
3.54062	5.12
3.55728	5.12
3.57395	5.12
3.59062	5.12
3.60728	5.12
3.62395	5.12
3.64062	5.12
3.65728	5.12
3.67395	5.12
3.69062	5.12
3.70728	5.12
3.72395	5.12
3.74062	5.12
3.75728	5.12
3.77395	5.12
3.79062	5.12
3.80728	5.12
3.82395	5.12
3.84062	5.12
3.85728	5.12
3.87395	5.12
3.89062	5.12
3.90728	5.12
3.92395	5.12
3.94062	5.12
3.95728	5.12
3.97395	5.12
3.99062	5.12

[Status Trace (Linear Velocity)]
Interval(msec)	1000
# of Points	240
Start Time(min)	0.007
End Time(min)	3.991
Intensity Units	
Intensity Multiplier	1
R.Time (min)	Intensity
0.00728	39.02
0.02395	37.33
0.04062	38.36
0.05728	39.80
0.07395	39.97
0.09062	39.08
0.10728	39.01
0.12395	39.03
0.14062	39.03
0.15728	39.03
0.17395	39.03
0.19062	39.03
0.20728	39.03
0.22395	39.03
0.24062	39.03
0.25728	39.03
0.27395	39.03
0.29062	39.03
0.30728	39.03
0.32395	39.02
0.34062	39.02
0.35728	39.02
0.37395	39.02
0.39062	39.02
0.40728	39.02
0.42395	39.02
0.44062	39.02
0.45728	39.02
0.47395	39.02
0.49062	39.02
0.50728	39.02
0.52395	39.02
0.54062	39.02
0.55728	39.02
0.57395	39.03
0.59062	39.03
0.60728	39.03
0.62395	39.03
0.64062	39.03
0.65728	39.03
0.67395	39.03
0.69062	39.03
0.70728	39.03
0.72395	39.03
0.74062	39.03
0.75728	39.03
0.77395	39.03
0.79062	39.03
0.80728	39.03
0.82395	39.03
0.84062	39.03
0.85728	39.03
0.87395	39.03
0.89062	39.03
0.90728	39.03
0.92395	39.03
0.94062	39.03
0.95728	39.03
0.97395	39.03
0.99062	39.03
1.00728	39.03
1.02395	39.03
1.04062	39.03
1.05728	39.03
1.07395	39.03
1.09062	39.03
1.10728	39.03
1.12395	39.03
1.14062	39.03
1.15728	39.03
1.17395	39.03
1.19062	39.03
1.20728	39.02
1.22395	39.02
1.24062	39.02
1.25728	39.03
1.27395	39.03
1.29062	39.03
1.30728	39.03
1.32395	39.03
1.34062	39.03
1.35728	39.03
1.37395	39.03
1.39062	39.03
1.40728	39.03
1.42395	39.03
1.44062	39.03
1.45728	39.03
1.47395	39.03
1.49062	39.03
1.50728	39.03
1.52395	39.03
1.54062	39.03
1.55728	39.03
1.57395	39.03
1.59062	39.03
1.60728	39.03
1.62395	39.01
1.64062	39.00
1.65728	38.97
1.67395	38.94
1.69062	38.91
1.70728	38.87
1.72395	38.84
1.74062	38.81
1.75728	38.77
1.77395	38.74
1.79062	38.71
1.80728	38.68
1.82395	38.65
1.84062	38.62
1.85728	38.59
1.87395	38.55
1.89062	38.53
1.90728	38.49
1.92395	38.46
1.94062	38.43
1.95728	38.40
1.97395	38.37
1.99062	38.34
2.00728	38.31
2.02395	38.28
2.04062	38.26
2.05728	38.22
2.07395	38.20
2.09062	38.17
2.10728	38.13
2.12395	38.11
2.14062	38.08
2.15728	38.05
2.17395	38.02
2.19062	37.99
2.20728	37.96
2.22395	37.93
2.24062	37.90
2.25728	37.87
2.27395	37.84
2.29062	37.81
2.30728	37.78
2.32395	37.75
2.34062	37.72
2.35728	37.69
2.37395	37.67
2.39062	37.66
2.40728	37.67
2.42395	37.67
2.44062	37.67
2.45728	37.67
2.47395	37.67
2.49062	37.67
2.50728	37.66
2.52395	37.65
2.54062	37.66
2.55728	37.66
2.57395	37.66
2.59062	37.66
2.60728	37.66
2.62395	37.66
2.64062	37.66
2.65728	37.66
2.67395	37.66
2.69062	37.66
2.70728	37.66
2.72395	37.66
2.74062	37.66
2.75728	37.65
2.77395	37.65
2.79062	37.65
2.80728	37.65
2.82395	37.65
2.84062	37.65
2.85728	37.65
2.87395	37.65
2.89062	37.65
2.90728	37.65
2.92395	37.65
2.94062	37.65
2.95728	37.65
2.97395	37.64
2.99062	37.64
3.00728	37.64
3.02395	37.64
3.04062	37.64
3.05728	37.64
3.07395	37.64
3.09062	37.64
3.10728	37.64
3.12395	37.64
3.14062	37.64
3.15728	37.64
3.17395	37.64
3.19062	37.63
3.20728	37.63
3.22395	37.63
3.24062	37.63
3.25728	37.63
3.27395	37.64
3.29062	37.64
3.30728	37.64
3.32395	37.64
3.34062	37.64
3.35728	37.64
3.37395	37.64
3.39062	37.64
3.40728	37.64
3.42395	37.64
3.44062	37.64
3.45728	37.64
3.47395	37.64
3.49062	37.64
3.50728	37.64
3.52395	37.64
3.54062	37.64
3.55728	37.64
3.57395	37.64
3.59062	37.64
3.60728	37.64
3.62395	37.64
3.64062	37.64
3.65728	37.64
3.67395	37.64
3.69062	37.64
3.70728	37.64
3.72395	37.64
3.74062	37.64
3.75728	37.63
3.77395	37.63
3.79062	37.63
3.80728	37.63
3.82395	37.63
3.84062	37.63
3.85728	37.64
3.87395	37.64
3.89062	37.64
3.90728	37.64
3.92395	37.64
3.94062	37.64
3.95728	37.64
3.97395	37.64
3.99062	37.64

