[Header]
Application Name	LabSolutions
Version	5.110
Data File Name	C:\Users\User\Desktop\GC Analyses\Jack\Nachusa Grasslands Sampling\T1 Timepoint July 12th\T1_07122022_086.gcd
Output Date	3/14/2023
Output Time	3:41:02 PM

[File Information]
Type	Data File
Generated	3/8/2023 10:51:36 PM
Generated by	System Administrator
Modified	3/8/2023 10:58:25 PM
Modified by	System Administrator

[Sample Information]
Operator Name	System Administrator
Acquired	3/8/2023 10:54:24 PM
Sample Type	0:Unknown
Level	0
Sample Name	086
Sample ID	086
ISTD Amount1	1
ISTD Amount2	1
ISTD Amount3	1
ISTD Amount4	1
ISTD Amount5	1
ISTD Amount6	1
ISTD Amount7	1
ISTD Amount8	1
ISTD Amount9	1
ISTD Amount10	1
ISTD Amount11	1
ISTD Amount12	1
ISTD Amount13	1
ISTD Amount14	1
ISTD Amount15	1
ISTD Amount16	1
ISTD Amount17	1
ISTD Amount18	1
ISTD Amount19	1
ISTD Amount20	1
ISTD Amount21	1
ISTD Amount22	1
ISTD Amount23	1
ISTD Amount24	1
ISTD Amount25	1
ISTD Amount26	1
ISTD Amount27	1
ISTD Amount28	1
ISTD Amount29	1
ISTD Amount30	1
ISTD Amount31	1
ISTD Amount32	1
Sample Amount	1
Dilution Factor	1
Vial#	85
Injection Volume	1
Injection Count	1
Bar Code	

[Original Files]
Data File	C:\Users\User\Desktop\GC Analyses\Jack\Nachusa Grasslands Sampling\T1 Timepoint July 12th\T1_07122022_086.gcd
Method File	C:\LabSolutions\Data\GHG_4min_2022\ghg3_togas_w_acet_4 min_new_int.gcm
Batch File	C:\LabSolutions\Data\AutoSamplerTesting\T1_07122022.gcb
Report Format File	c:\LabSolutions\System\DEFAULT.lsr

[File Description]


[Configuration]
Instrument Name	C0B7VH3-Instrument1
Instrument #	1
Line #	1
# of Detectors	3
Detector ID	DET#1	DET#2	DET#3
Detector Name	FID	PTCD	ECD
# of Channels	1	1	1

[Peak Table(Ch1)]
# of Peaks	3
Peak#	R.Time	I.Time	F.Time	Area	Height	A/H	Conc.	Mark	ID#	Name	k'	Plate #	Plate Ht.	Tailing	Resolution	Sep.Factor	Area Ratio	Height Ratio	Conc. %	Norm Conc.
1	1.476	1.435	1.538	36921	17608	2.097	260.664	   	1	CO	0.000	9217	16.275	1.315	0.000	0.000	0	0	33.084	33.084
2	1.567	1.538	1.630	4814	2319	2.076	93.090	 V 	2	CH4	0.062	10230	14.662	0.000	1.485	0.000	0	0	11.815	11.815
3	1.996	1.949	2.411	1729775	821918	2.105	434.127	   	3	CO2	0.353	17316	8.663	1.297	6.995	5.680	0	0	55.101	55.101

[Peak Table(Ch2)]
# of Peaks	0

[Peak Table(Ch3)]
# of Peaks	5
Peak#	R.Time	I.Time	F.Time	Area	Height	A/H	Conc.	Mark	ID#	Name	k'	Plate #	Plate Ht.	Tailing	Resolution	Sep.Factor	Area Ratio	Height Ratio	Conc. %	Norm Conc.
1	2.458	2.334	2.517	1976	599	3.297	0.000	   			0.000	11412	13.144	0.000	0.000	0.000	0	0	0.000	0.000
2	2.539	2.517	2.627	854	237	3.597	0.000	 V 			0.033	7808	19.210	0.000	0.779	0.000	0	0	0.000	0.000
3	2.675	2.638	2.730	369	92	4.008	0.000	   			0.088	6894	21.757	0.000	1.113	2.682	0	0	0.000	0.000
4	2.873	2.730	3.126	21786	5075	4.293	0.556	 V 	1	N2O	0.169	12774	11.742	1.936	1.718	1.915	0	0	100.000	100.000
5	3.225	3.129	3.995	16225	596	27.200	0.000	   	2	SF6	0.312	331	453.077	4.584	0.869	1.850	0	0	0.000	0.000

[Compound Results(Ch1)]
# of IDs	6
ID#	Name	R.Time	Area	Height	Conc.	Curve	3rd	2nd	1st	Constant	Area Ratio	Height Ratio	Conc. %	Norm Conc.
1	CO	1.476	36921	17608	260.664	Linear	0.000000e+00	0.000000e+00	1.416423e+002	0.000000e+00	0	0	33.084	33.084
2	CH4	1.567	4814	2319	93.090	Linear	0.000000e+00	0.000000e+00	5.171738e+001	0.000000e+00	0	0	11.815	11.815
3	CO2	1.996	1729775	821918	434.127	Linear	0.000000e+00	0.000000e+00	3.984494e+003	0.000000e+00	0	0	55.101	55.101
4	Ethylene	0.000	0	0	0.000	Linear	0.000000e+00	0.000000e+00	0.000000e+00	0.000000e+00	0	0	0.000	0.000
5	Acetylene	0.000	0	0	0.000	Linear	0.000000e+00	0.000000e+00	0.000000e+00	0.000000e+00	0	0	0.000	0.000
6	Ethane	0.000	0	0	0.000	Linear	0.000000e+00	0.000000e+00	0.000000e+00	0.000000e+00	0	0	0.000	0.000

[Compound Results(Ch2)]
# of IDs	5
ID#	Name	R.Time	Area	Height	Conc.	Curve	3rd	2nd	1st	Constant	Area Ratio	Height Ratio	Conc. %	Norm Conc.
1	Hydrogen	0.000	0	0	0.000	Linear	0.000000e+00	0.000000e+00	0.000000e+00	0.000000e+00	0	0	0.000	0.000
2	Oxygen	0.000	0	0	0.000	Linear	0.000000e+00	0.000000e+00	0.000000e+00	0.000000e+00	0	0	0.000	0.000
3	Nitrogen	0.000	0	0	0.000	Linear	0.000000e+00	0.000000e+00	0.000000e+00	0.000000e+00	0	0	0.000	0.000
4	Methane	0.000	0	0	0.000	Linear	0.000000e+00	0.000000e+00	0.000000e+00	0.000000e+00	0	0	0.000	0.000
5	Carbon Monoxide	0.000	0	0	0.000	Linear	0.000000e+00	0.000000e+00	0.000000e+00	0.000000e+00	0	0	0.000	0.000

[Compound Results(Ch3)]
# of IDs	2
ID#	Name	R.Time	Area	Height	Conc.	Curve	3rd	2nd	1st	Constant	Area Ratio	Height Ratio	Conc. %	Norm Conc.
1	N2O	2.873	21786	5075	0.556	Linear	0.000000e+00	0.000000e+00	3.915173e+004	0.000000e+00	0	0	100.000	100.000
2	SF6	3.225	16225	596	0.000	Linear	0.000000e+00	0.000000e+00	0.000000e+00	0.000000e+00	0	0	0.000	0.000

[Group Results(Ch1)]
# of Groups	0

[Group Results(Ch2)]
# of Groups	0

[Group Results(Ch3)]
# of Groups	0

[Chromatogram (Ch1)]
Interval(msec)	220
# of Points	1091
Start Time(min)	0.002
End Time(min)	3.998
R.Time (min)	Intensity
0.00167	1
0.00533	-1
0.00900	-4
0.01267	-3
0.01633	-1
0.02000	2
0.02367	11
0.02733	20
0.03100	28
0.03467	31
0.03833	26
0.04200	19
0.04567	14
0.04933	13
0.05300	18
0.05667	24
0.06033	25
0.06400	19
0.06767	7
0.07133	-2
0.07500	-5
0.07867	-3
0.08233	-5
0.08600	-7
0.08967	-3
0.09333	5
0.09700	16
0.10067	31
0.10433	44
0.10800	51
0.11167	56
0.11533	58
0.11900	56
0.12267	53
0.12633	50
0.13000	47
0.13367	51
0.13733	60
0.14100	67
0.14467	74
0.14833	80
0.15200	82
0.15567	77
0.15933	72
0.16300	71
0.16667	70
0.17033	67
0.17400	61
0.17767	56
0.18133	53
0.18500	47
0.18867	42
0.19233	37
0.19600	37
0.19967	41
0.20333	44
0.20700	47
0.21067	46
0.21433	41
0.21800	33
0.22167	25
0.22533	14
0.22900	8
0.23267	8
0.23633	12
0.24000	14
0.24367	17
0.24733	23
0.25100	26
0.25467	26
0.25833	25
0.26200	18
0.26567	11
0.26933	9
0.27300	14
0.27667	21
0.28033	31
0.28400	41
0.28767	44
0.29133	38
0.29500	27
0.29867	14
0.30233	2
0.30600	-6
0.30967	-11
0.31333	-14
0.31700	-15
0.32067	-12
0.32433	-8
0.32800	-3
0.33167	-0
0.33533	-2
0.33900	-9
0.34267	-15
0.34633	-14
0.35000	-6
0.35367	7
0.35733	14
0.36100	10
0.36467	-2
0.36833	-15
0.37200	-22
0.37567	-22
0.37933	-17
0.38300	-11
0.38667	-7
0.39033	-6
0.39400	-8
0.39767	-11
0.40133	-14
0.40500	-17
0.40867	-15
0.41233	-15
0.41600	-20
0.41967	-24
0.42333	-26
0.42700	-28
0.43067	-26
0.43433	-19
0.43800	-7
0.44167	4
0.44533	8
0.44900	8
0.45267	7
0.45633	6
0.46000	4
0.46367	-0
0.46733	-3
0.47100	-4
0.47467	-3
0.47833	0
0.48200	1
0.48567	3
0.48933	2
0.49300	-4
0.49667	-11
0.50033	-15
0.50400	-17
0.50767	-20
0.51133	-25
0.51500	-24
0.51867	-16
0.52233	-9
0.52600	-3
0.52967	5
0.53333	17
0.53700	28
0.54067	32
0.54433	27
0.54800	15
0.55167	4
0.55533	-6
0.55900	-14
0.56267	-16
0.56633	-13
0.57000	-7
0.57367	-6
0.57733	-6
0.58100	-4
0.58467	-2
0.58833	1
0.59200	4
0.59567	7
0.59933	11
0.60300	14
0.60667	13
0.61033	10
0.61400	8
0.61767	8
0.62133	10
0.62500	16
0.62867	19
0.63233	19
0.63600	22
0.63967	29
0.64333	34
0.64700	35
0.65067	31
0.65433	21
0.65800	14
0.66167	10
0.66533	10
0.66900	13
0.67267	18
0.67633	22
0.68000	20
0.68367	14
0.68733	7
0.69100	2
0.69467	-4
0.69833	-9
0.70200	-13
0.70567	-15
0.70933	-15
0.71300	-12
0.71667	-9
0.72033	-5
0.72400	-4
0.72767	-2
0.73133	2
0.73500	9
0.73867	13
0.74233	13
0.74600	11
0.74967	8
0.75333	9
0.75700	8
0.76067	6
0.76433	8
0.76800	8
0.77167	6
0.77533	4
0.77900	5
0.78267	9
0.78633	13
0.79000	14
0.79367	14
0.79733	15
0.80100	16
0.80467	20
0.80833	30
0.81200	36
0.81567	30
0.81933	11
0.82300	-9
0.82667	-22
0.83033	-25
0.83400	-23
0.83767	-20
0.84133	-16
0.84500	-10
0.84867	-5
0.85233	-0
0.85600	3
0.85967	6
0.86333	10
0.86700	11
0.87067	7
0.87433	-0
0.87800	-3
0.88167	1
0.88533	6
0.88900	10
0.89267	12
0.89633	11
0.90000	3
0.90367	-9
0.90733	-22
0.91100	-34
0.91467	-40
0.91833	-41
0.92200	-42
0.92567	-43
0.92933	-42
0.93300	-39
0.93667	-35
0.94033	-30
0.94400	-28
0.94767	-28
0.95133	-30
0.95500	-30
0.95867	-28
0.96233	-27
0.96600	-22
0.96967	-15
0.97333	-12
0.97700	-13
0.98067	-18
0.98433	-24
0.98800	-29
0.99167	-31
0.99533	-26
0.99900	-18
1.00267	-10
1.00633	-8
1.01000	-13
1.01367	-23
1.01733	-29
1.02100	-32
1.02467	-32
1.02833	-31
1.03200	-32
1.03567	-28
1.03933	-22
1.04300	-17
1.04667	-16
1.05033	-19
1.05400	-29
1.05767	-39
1.06133	-39
1.06500	-30
1.06867	-26
1.07233	-28
1.07600	-36
1.07967	-44
1.08333	-51
1.08700	-56
1.09067	-62
1.09433	-66
1.09800	-67
1.10167	-64
1.10533	-61
1.10900	-59
1.11267	-58
1.11633	-57
1.12000	-53
1.12367	-45
1.12733	-33
1.13100	-24
1.13467	-25
1.13833	-34
1.14200	-45
1.14567	-50
1.14933	-51
1.15300	-51
1.15667	-49
1.16033	-47
1.16400	-47
1.16767	-49
1.17133	-49
1.17500	-50
1.17867	-56
1.18233	-60
1.18600	-59
1.18967	-56
1.19333	-53
1.19700	-56
1.20067	-59
1.20433	-56
1.20800	-48
1.21167	-42
1.21533	-41
1.21900	-45
1.22267	-51
1.22633	-57
1.23000	-59
1.23367	-62
1.23733	-69
1.24100	-74
1.24467	-73
1.24833	-68
1.25200	-62
1.25567	-57
1.25933	-53
1.26300	-50
1.26667	-48
1.27033	-48
1.27400	-52
1.27767	-60
1.28133	-68
1.28500	-72
1.28867	-71
1.29233	-68
1.29600	-61
1.29967	-53
1.30333	-51
1.30700	-55
1.31067	-60
1.31433	-68
1.31800	-78
1.32167	-87
1.32533	-90
1.32900	-89
1.33267	-84
1.33633	-78
1.34000	-74
1.34367	-69
1.34733	-62
1.35100	-55
1.35467	-50
1.35833	-47
1.36200	-48
1.36567	-53
1.36933	-54
1.37300	-56
1.37667	-62
1.38033	-65
1.38400	-64
1.38767	-63
1.39133	-59
1.39500	-61
1.39867	-68
1.40233	-73
1.40600	-77
1.40967	-84
1.41333	-91
1.41700	-98
1.42067	-99
1.42433	-95
1.42800	-93
1.43167	-92
1.43533	-84
1.43900	-50
1.44267	60
1.44633	331
1.45000	1038
1.45367	2732
1.45733	5567
1.46100	8989
1.46467	12262
1.46833	14918
1.47200	16733
1.47567	17539
1.47933	17187
1.48300	15693
1.48667	13362
1.49033	10689
1.49400	8136
1.49767	5979
1.50133	4299
1.50500	3057
1.50867	2169
1.51233	1545
1.51600	1113
1.51967	815
1.52333	609
1.52700	468
1.53067	370
1.53433	305
1.53800	275
1.54167	312
1.54533	471
1.54900	773
1.55267	1170
1.55633	1573
1.56000	1915
1.56367	2161
1.56733	2285
1.57100	2257
1.57467	2063
1.57833	1737
1.58200	1360
1.58567	1004
1.58933	704
1.59300	472
1.59667	304
1.60033	191
1.60400	120
1.60767	77
1.61133	51
1.61500	29
1.61867	12
1.62233	1
1.62600	-7
1.62967	-12
1.63333	-14
1.63700	-19
1.64067	-24
1.64433	-30
1.64800	-34
1.65167	-38
1.65533	-45
1.65900	-52
1.66267	-57
1.66633	-59
1.67000	-59
1.67367	-59
1.67733	-60
1.68100	-63
1.68467	-62
1.68833	-56
1.69200	-51
1.69567	-46
1.69933	-46
1.70300	-48
1.70667	-52
1.71033	-51
1.71400	-48
1.71767	-47
1.72133	-50
1.72500	-53
1.72867	-59
1.73233	-69
1.73600	-78
1.73967	-82
1.74333	-83
1.74700	-84
1.75067	-81
1.75433	-76
1.75800	-70
1.76167	-67
1.76533	-63
1.76900	-59
1.77267	-59
1.77633	-62
1.78000	-66
1.78367	-70
1.78733	-70
1.79100	-66
1.79467	-64
1.79833	-63
1.80200	-60
1.80567	-57
1.80933	-54
1.81300	-50
1.81667	-46
1.82033	-44
1.82400	-43
1.82767	-39
1.83133	-38
1.83500	-41
1.83867	-43
1.84233	-44
1.84600	-40
1.84967	-39
1.85333	-44
1.85700	-53
1.86067	-63
1.86433	-70
1.86800	-73
1.87167	-69
1.87533	-62
1.87900	-55
1.88267	-53
1.88633	-50
1.89000	-47
1.89367	-48
1.89733	-52
1.90100	-60
1.90467	-66
1.90833	-68
1.91200	-68
1.91567	-65
1.91933	-63
1.92300	-62
1.92667	-60
1.93033	-56
1.93400	-54
1.93767	-53
1.94133	-55
1.94500	-55
1.94867	-52
1.95233	-29
1.95600	117
1.95967	959
1.96333	4772
1.96700	17883
1.97067	52455
1.97433	123159
1.97800	236930
1.98167	383988
1.98533	540336
1.98900	678722
1.99267	777197
1.99633	821922
2.00000	807852
2.00367	740459
2.00733	635358
2.01100	513427
2.01467	394170
2.01833	290633
2.02200	208208
2.02567	146568
2.02933	102451
2.03300	71797
2.03667	50878
2.04033	36735
2.04400	27188
2.04767	20707
2.05133	16257
2.05500	13152
2.05867	10940
2.06233	9323
2.06600	8110
2.06967	7179
2.07333	6444
2.07700	5847
2.08067	5353
2.08433	4937
2.08800	4578
2.09167	4266
2.09533	3989
2.09900	3741
2.10267	3522
2.10633	3329
2.11000	3159
2.11367	3008
2.11733	2870
2.12100	2739
2.12467	2612
2.12833	2494
2.13200	2382
2.13567	2280
2.13933	2185
2.14300	2105
2.14667	2033
2.15033	1971
2.15400	1916
2.15767	1859
2.16133	1797
2.16500	1736
2.16867	1678
2.17233	1623
2.17600	1571
2.17967	1519
2.18333	1468
2.18700	1425
2.19067	1385
2.19433	1350
2.19800	1318
2.20167	1281
2.20533	1245
2.20900	1209
2.21267	1176
2.21633	1147
2.22000	1121
2.22367	1101
2.22733	1080
2.23100	1057
2.23467	1034
2.23833	1010
2.24200	987
2.24567	965
2.24933	943
2.25300	924
2.25667	910
2.26033	898
2.26400	883
2.26767	861
2.27133	839
2.27500	821
2.27867	803
2.28233	789
2.28600	776
2.28967	763
2.29333	750
2.29700	740
2.30067	734
2.30433	724
2.30800	709
2.31167	693
2.31533	678
2.31900	664
2.32267	654
2.32633	645
2.33000	633
2.33367	621
2.33733	607
2.34100	592
2.34467	582
2.34833	573
2.35200	562
2.35567	551
2.35933	543
2.36300	539
2.36667	535
2.37033	529
2.37400	526
2.37767	527
2.38133	528
2.38500	529
2.38867	528
2.39233	525
2.39600	520
2.39967	512
2.40333	503
2.40700	495
2.41067	490
2.41433	487
2.41800	485
2.42167	483
2.42533	480
2.42900	475
2.43267	466
2.43633	454
2.44000	444
2.44367	439
2.44733	434
2.45100	425
2.45467	415
2.45833	404
2.46200	397
2.46567	393
2.46933	392
2.47300	391
2.47667	386
2.48033	377
2.48400	370
2.48767	366
2.49133	364
2.49500	356
2.49867	343
2.50233	334
2.50600	329
2.50967	321
2.51333	316
2.51700	311
2.52067	311
2.52433	316
2.52800	321
2.53167	329
2.53533	334
2.53900	337
2.54267	339
2.54633	338
2.55000	338
2.55367	341
2.55733	340
2.56100	335
2.56467	327
2.56833	318
2.57200	311
2.57567	301
2.57933	290
2.58300	283
2.58667	280
2.59033	282
2.59400	285
2.59767	288
2.60133	289
2.60500	283
2.60867	276
2.61233	272
2.61600	272
2.61967	273
2.62333	275
2.62700	275
2.63067	274
2.63433	275
2.63800	283
2.64167	287
2.64533	280
2.64900	265
2.65267	247
2.65633	231
2.66000	222
2.66367	219
2.66733	218
2.67100	215
2.67467	216
2.67833	217
2.68200	218
2.68567	222
2.68933	231
2.69300	235
2.69667	233
2.70033	229
2.70400	223
2.70767	216
2.71133	210
2.71500	209
2.71867	209
2.72233	212
2.72600	216
2.72967	219
2.73333	222
2.73700	224
2.74067	222
2.74433	218
2.74800	212
2.75167	205
2.75533	198
2.75900	192
2.76267	190
2.76633	191
2.77000	191
2.77367	192
2.77733	195
2.78100	203
2.78467	211
2.78833	216
2.79200	216
2.79567	214
2.79933	212
2.80300	206
2.80667	202
2.81033	200
2.81400	197
2.81767	195
2.82133	195
2.82500	191
2.82867	185
2.83233	183
2.83600	184
2.83967	186
2.84333	188
2.84700	192
2.85067	189
2.85433	181
2.85800	173
2.86167	168
2.86533	166
2.86900	167
2.87267	168
2.87633	169
2.88000	168
2.88367	167
2.88733	165
2.89100	157
2.89467	150
2.89833	152
2.90200	156
2.90567	158
2.90933	159
2.91300	160
2.91667	162
2.92033	162
2.92400	158
2.92767	154
2.93133	153
2.93500	150
2.93867	145
2.94233	139
2.94600	137
2.94967	140
2.95333	145
2.95700	150
2.96067	155
2.96433	158
2.96800	156
2.97167	147
2.97533	138
2.97900	132
2.98267	132
2.98633	135
2.99000	135
2.99367	130
2.99733	127
3.00100	126
3.00467	128
3.00833	129
3.01200	135
3.01567	142
3.01933	142
3.02300	137
3.02667	132
3.03033	130
3.03400	133
3.03767	133
3.04133	128
3.04500	122
3.04867	119
3.05233	118
3.05600	117
3.05967	121
3.06333	127
3.06700	130
3.07067	135
3.07433	139
3.07800	139
3.08167	137
3.08533	136
3.08900	132
3.09267	125
3.09633	121
3.10000	116
3.10367	111
3.10733	105
3.11100	100
3.11467	98
3.11833	100
3.12200	106
3.12567	111
3.12933	112
3.13300	110
3.13667	107
3.14033	107
3.14400	105
3.14767	99
3.15133	94
3.15500	95
3.15867	101
3.16233	107
3.16600	108
3.16967	105
3.17333	100
3.17700	95
3.18067	91
3.18433	92
3.18800	96
3.19167	99
3.19533	96
3.19900	93
3.20267	90
3.20633	89
3.21000	88
3.21367	88
3.21733	85
3.22100	79
3.22467	71
3.22833	64
3.23200	60
3.23567	55
3.23933	52
3.24300	56
3.24667	64
3.25033	72
3.25400	80
3.25767	86
3.26133	89
3.26500	92
3.26867	95
3.27233	92
3.27600	84
3.27967	75
3.28333	69
3.28700	66
3.29067	65
3.29433	66
3.29800	67
3.30167	67
3.30533	65
3.30900	62
3.31267	60
3.31633	58
3.32000	57
3.32367	54
3.32733	48
3.33100	42
3.33467	41
3.33833	41
3.34200	40
3.34567	41
3.34933	46
3.35300	52
3.35667	56
3.36033	59
3.36400	61
3.36767	62
3.37133	61
3.37500	59
3.37867	55
3.38233	50
3.38600	48
3.38967	48
3.39333	48
3.39700	45
3.40067	41
3.40433	40
3.40800	40
3.41167	41
3.41533	43
3.41900	43
3.42267	47
3.42633	52
3.43000	52
3.43367	50
3.43733	48
3.44100	48
3.44467	54
3.44833	62
3.45200	65
3.45567	59
3.45933	51
3.46300	47
3.46667	46
3.47033	46
3.47400	48
3.47767	50
3.48133	49
3.48500	43
3.48867	35
3.49233	29
3.49600	27
3.49967	30
3.50333	33
3.50700	39
3.51067	46
3.51433	47
3.51800	43
3.52167	38
3.52533	32
3.52900	24
3.53267	19
3.53633	16
3.54000	19
3.54367	26
3.54733	30
3.55100	34
3.55467	39
3.55833	40
3.56200	41
3.56567	40
3.56933	37
3.57300	34
3.57667	32
3.58033	28
3.58400	24
3.58767	22
3.59133	21
3.59500	19
3.59867	17
3.60233	18
3.60600	21
3.60967	22
3.61333	21
3.61700	18
3.62067	16
3.62433	15
3.62800	18
3.63167	20
3.63533	23
3.63900	25
3.64267	28
3.64633	30
3.65000	25
3.65367	13
3.65733	1
3.66100	-2
3.66467	0
3.66833	1
3.67200	0
3.67567	2
3.67933	3
3.68300	1
3.68667	-7
3.69033	-15
3.69400	-21
3.69767	-23
3.70133	-21
3.70500	-17
3.70867	-14
3.71233	-7
3.71600	4
3.71967	14
3.72333	19
3.72700	17
3.73067	7
3.73433	-6
3.73800	-14
3.74167	-16
3.74533	-12
3.74900	-10
3.75267	-9
3.75633	-7
3.76000	-8
3.76367	-13
3.76733	-13
3.77100	-9
3.77467	-3
3.77833	-0
3.78200	-1
3.78567	-1
3.78933	2
3.79300	9
3.79667	16
3.80033	21
3.80400	25
3.80767	23
3.81133	16
3.81500	8
3.81867	-4
3.82233	-15
3.82600	-24
3.82967	-29
3.83333	-31
3.83700	-33
3.84067	-33
3.84433	-30
3.84800	-28
3.85167	-28
3.85533	-25
3.85900	-19
3.86267	-13
3.86633	-12
3.87000	-12
3.87367	-14
3.87733	-14
3.88100	-14
3.88467	-15
3.88833	-17
3.89200	-16
3.89567	-14
3.89933	-11
3.90300	-6
3.90667	-2
3.91033	-3
3.91400	-4
3.91767	-9
3.92133	-17
3.92500	-28
3.92867	-44
3.93233	-54
3.93600	-58
3.93967	-65
3.94333	-70
3.94700	-70
3.95067	-65
3.95433	-58
3.95800	-52
3.96167	-45
3.96533	-41
3.96900	-37
3.97267	-32
3.97633	-33
3.98000	-41
3.98367	-48
3.98733	-51
3.99100	-52
3.99467	-53
3.99833	-47

[Chromatogram (Ch2)]
Interval(msec)	220
# of Points	1091
Start Time(min)	0.002
End Time(min)	3.998
R.Time (min)	Intensity
0.00167	-0
0.00533	0
0.00900	0
0.01267	0
0.01633	0
0.02000	0
0.02367	0
0.02733	1
0.03100	1
0.03467	1
0.03833	1
0.04200	1
0.04567	1
0.04933	1
0.05300	1
0.05667	1
0.06033	0
0.06400	-0
0.06767	-1
0.07133	-1
0.07500	-1
0.07867	-1
0.08233	-1
0.08600	-1
0.08967	-1
0.09333	-1
0.09700	-0
0.10067	-0
0.10433	0
0.10800	0
0.11167	0
0.11533	1
0.11900	1
0.12267	1
0.12633	1
0.13000	1
0.13367	1
0.13733	1
0.14100	1
0.14467	1
0.14833	1
0.15200	2
0.15567	2
0.15933	2
0.16300	2
0.16667	2
0.17033	2
0.17400	2
0.17767	2
0.18133	1
0.18500	1
0.18867	1
0.19233	0
0.19600	-0
0.19967	-1
0.20333	-1
0.20700	-2
0.21067	-2
0.21433	-3
0.21800	-3
0.22167	-4
0.22533	-4
0.22900	-4
0.23267	-4
0.23633	-4
0.24000	-3
0.24367	-3
0.24733	-3
0.25100	-3
0.25467	-2
0.25833	-2
0.26200	-3
0.26567	-3
0.26933	-3
0.27300	-3
0.27667	-3
0.28033	-3
0.28400	-3
0.28767	-3
0.29133	-3
0.29500	-3
0.29867	-4
0.30233	-4
0.30600	-4
0.30967	-4
0.31333	-4
0.31700	-4
0.32067	-3
0.32433	-3
0.32800	-3
0.33167	-2
0.33533	-2
0.33900	-2
0.34267	-2
0.34633	-2
0.35000	-2
0.35367	-2
0.35733	-2
0.36100	-2
0.36467	-2
0.36833	-2
0.37200	-2
0.37567	-2
0.37933	-1
0.38300	-1
0.38667	-1
0.39033	-2
0.39400	-2
0.39767	-2
0.40133	-3
0.40500	-3
0.40867	-3
0.41233	-3
0.41600	-4
0.41967	-3
0.42333	-3
0.42700	-3
0.43067	-2
0.43433	-1
0.43800	-1
0.44167	-1
0.44533	-1
0.44900	-1
0.45267	-1
0.45633	-1
0.46000	-1
0.46367	-1
0.46733	-1
0.47100	-1
0.47467	-1
0.47833	-1
0.48200	-1
0.48567	-1
0.48933	-1
0.49300	-1
0.49667	-2
0.50033	-2
0.50400	-1
0.50767	-1
0.51133	-2
0.51500	-2
0.51867	-1
0.52233	-1
0.52600	-1
0.52967	-1
0.53333	-0
0.53700	-0
0.54067	-0
0.54433	-1
0.54800	-1
0.55167	-1
0.55533	-0
0.55900	-0
0.56267	-0
0.56633	-0
0.57000	-0
0.57367	0
0.57733	0
0.58100	0
0.58467	-0
0.58833	-0
0.59200	-1
0.59567	-1
0.59933	-1
0.60300	-1
0.60667	-1
0.61033	-2
0.61400	-2
0.61767	-2
0.62133	-2
0.62500	-2
0.62867	-3
0.63233	-3
0.63600	-3
0.63967	-3
0.64333	-3
0.64700	-3
0.65067	-3
0.65433	-3
0.65800	-3
0.66167	-3
0.66533	-2
0.66900	-2
0.67267	-2
0.67633	-2
0.68000	-1
0.68367	-1
0.68733	-1
0.69100	-1
0.69467	-1
0.69833	-1
0.70200	-1
0.70567	-1
0.70933	-2
0.71300	-2
0.71667	-2
0.72033	-2
0.72400	-3
0.72767	-3
0.73133	-3
0.73500	-3
0.73867	-4
0.74233	-4
0.74600	-4
0.74967	-3
0.75333	-3
0.75700	-3
0.76067	-2
0.76433	-2
0.76800	-2
0.77167	-1
0.77533	-1
0.77900	-1
0.78267	-1
0.78633	-1
0.79000	-1
0.79367	-1
0.79733	-2
0.80100	-2
0.80467	-2
0.80833	-2
0.81200	-2
0.81567	-2
0.81933	-2
0.82300	-2
0.82667	-3
0.83033	-3
0.83400	-3
0.83767	-3
0.84133	-3
0.84500	-3
0.84867	-2
0.85233	-2
0.85600	-2
0.85967	-2
0.86333	-2
0.86700	-2
0.87067	-3
0.87433	-3
0.87800	-3
0.88167	-4
0.88533	-4
0.88900	-4
0.89267	-4
0.89633	-4
0.90000	-4
0.90367	-4
0.90733	-4
0.91100	-3
0.91467	-3
0.91833	-4
0.92200	-3
0.92567	-3
0.92933	-3
0.93300	-3
0.93667	-3
0.94033	-3
0.94400	-3
0.94767	-3
0.95133	-4
0.95500	-4
0.95867	-4
0.96233	-4
0.96600	-4
0.96967	-4
0.97333	-4
0.97700	-4
0.98067	-5
0.98433	-5
0.98800	-5
0.99167	-5
0.99533	-5
0.99900	-6
1.00267	-6
1.00633	-6
1.01000	-6
1.01367	-6
1.01733	-6
1.02100	-6
1.02467	-5
1.02833	-5
1.03200	-5
1.03567	-4
1.03933	-4
1.04300	-3
1.04667	-3
1.05033	-2
1.05400	-2
1.05767	-2
1.06133	-1
1.06500	-1
1.06867	-1
1.07233	-1
1.07600	-2
1.07967	-2
1.08333	-2
1.08700	-3
1.09067	-3
1.09433	-3
1.09800	-3
1.10167	-4
1.10533	-4
1.10900	-4
1.11267	-4
1.11633	-4
1.12000	-4
1.12367	-3
1.12733	-3
1.13100	-3
1.13467	-3
1.13833	-2
1.14200	-2
1.14567	-2
1.14933	-2
1.15300	-2
1.15667	-3
1.16033	-3
1.16400	-3
1.16767	-3
1.17133	-3
1.17500	-4
1.17867	-4
1.18233	-4
1.18600	-4
1.18967	-5
1.19333	-5
1.19700	-5
1.20067	-5
1.20433	-5
1.20800	-5
1.21167	-5
1.21533	-5
1.21900	-5
1.22267	-5
1.22633	-5
1.23000	-5
1.23367	-5
1.23733	-5
1.24100	-5
1.24467	-5
1.24833	-5
1.25200	-5
1.25567	-5
1.25933	-4
1.26300	-4
1.26667	-4
1.27033	-4
1.27400	-4
1.27767	-4
1.28133	-4
1.28500	-4
1.28867	-4
1.29233	-4
1.29600	-4
1.29967	-4
1.30333	-4
1.30700	-4
1.31067	-4
1.31433	-4
1.31800	-3
1.32167	-3
1.32533	-3
1.32900	-3
1.33267	-2
1.33633	-2
1.34000	-2
1.34367	-2
1.34733	-2
1.35100	-2
1.35467	-2
1.35833	-3
1.36200	-3
1.36567	-3
1.36933	-2
1.37300	-3
1.37667	-3
1.38033	-3
1.38400	-3
1.38767	-3
1.39133	-3
1.39500	-3
1.39867	-4
1.40233	-4
1.40600	-4
1.40967	-4
1.41333	-4
1.41700	-4
1.42067	-4
1.42433	-5
1.42800	-5
1.43167	-5
1.43533	-6
1.43900	-6
1.44267	-6
1.44633	-7
1.45000	-7
1.45367	-7
1.45733	-7
1.46100	-7
1.46467	-7
1.46833	-7
1.47200	-6
1.47567	-6
1.47933	-6
1.48300	-6
1.48667	-6
1.49033	-6
1.49400	-6
1.49767	-6
1.50133	-7
1.50500	-7
1.50867	-7
1.51233	-7
1.51600	-7
1.51967	-7
1.52333	-7
1.52700	-7
1.53067	-7
1.53433	-7
1.53800	-7
1.54167	-7
1.54533	-6
1.54900	-6
1.55267	-6
1.55633	-5
1.56000	-5
1.56367	-5
1.56733	-4
1.57100	-4
1.57467	-4
1.57833	-3
1.58200	-3
1.58567	-3
1.58933	-3
1.59300	-3
1.59667	-4
1.60033	-5
1.60400	-6
1.60767	-7
1.61133	-9
1.61500	-11
1.61867	-14
1.62233	-17
1.62600	-20
1.62967	-23
1.63333	-26
1.63700	-29
1.64067	-32
1.64433	-36
1.64800	-39
1.65167	-42
1.65533	-46
1.65900	-49
1.66267	-53
1.66633	-58
1.67000	-62
1.67367	-67
1.67733	-72
1.68100	-78
1.68467	-83
1.68833	-87
1.69200	-92
1.69567	-95
1.69933	-99
1.70300	-101
1.70667	-104
1.71033	-106
1.71400	-108
1.71767	-109
1.72133	-110
1.72500	-111
1.72867	-112
1.73233	-112
1.73600	-112
1.73967	-112
1.74333	-113
1.74700	-113
1.75067	-114
1.75433	-115
1.75800	-116
1.76167	-117
1.76533	-117
1.76900	-117
1.77267	-117
1.77633	-116
1.78000	-116
1.78367	-116
1.78733	-116
1.79100	-116
1.79467	-117
1.79833	-118
1.80200	-119
1.80567	-120
1.80933	-120
1.81300	-121
1.81667	-121
1.82033	-121
1.82400	-121
1.82767	-120
1.83133	-120
1.83500	-119
1.83867	-118
1.84233	-117
1.84600	-116
1.84967	-116
1.85333	-116
1.85700	-116
1.86067	-117
1.86433	-117
1.86800	-117
1.87167	-118
1.87533	-118
1.87900	-118
1.88267	-118
1.88633	-117
1.89000	-117
1.89367	-117
1.89733	-117
1.90100	-117
1.90467	-117
1.90833	-118
1.91200	-118
1.91567	-119
1.91933	-119
1.92300	-118
1.92667	-117
1.93033	-116
1.93400	-115
1.93767	-115
1.94133	-114
1.94500	-114
1.94867	-113
1.95233	-113
1.95600	-113
1.95967	-113
1.96333	-113
1.96700	-113
1.97067	-113
1.97433	-114
1.97800	-114
1.98167	-113
1.98533	-113
1.98900	-113
1.99267	-113
1.99633	-112
2.00000	-112
2.00367	-111
2.00733	-111
2.01100	-111
2.01467	-112
2.01833	-112
2.02200	-112
2.02567	-111
2.02933	-111
2.03300	-110
2.03667	-109
2.04033	-108
2.04400	-107
2.04767	-106
2.05133	-106
2.05500	-106
2.05867	-106
2.06233	-106
2.06600	-106
2.06967	-106
2.07333	-106
2.07700	-106
2.08067	-106
2.08433	-106
2.08800	-106
2.09167	-105
2.09533	-105
2.09900	-104
2.10267	-104
2.10633	-103
2.11000	-103
2.11367	-103
2.11733	-103
2.12100	-103
2.12467	-102
2.12833	-102
2.13200	-101
2.13567	-101
2.13933	-101
2.14300	-100
2.14667	-100
2.15033	-99
2.15400	-99
2.15767	-98
2.16133	-98
2.16500	-98
2.16867	-98
2.17233	-98
2.17600	-97
2.17967	-97
2.18333	-97
2.18700	-97
2.19067	-97
2.19433	-97
2.19800	-97
2.20167	-97
2.20533	-96
2.20900	-95
2.21267	-95
2.21633	-94
2.22000	-93
2.22367	-93
2.22733	-92
2.23100	-92
2.23467	-91
2.23833	-90
2.24200	-90
2.24567	-89
2.24933	-89
2.25300	-89
2.25667	-90
2.26033	-91
2.26400	-92
2.26767	-93
2.27133	-93
2.27500	-93
2.27867	-93
2.28233	-92
2.28600	-92
2.28967	-91
2.29333	-91
2.29700	-90
2.30067	-90
2.30433	-89
2.30800	-88
2.31167	-87
2.31533	-86
2.31900	-85
2.32267	-84
2.32633	-84
2.33000	-85
2.33367	-85
2.33733	-85
2.34100	-85
2.34467	-84
2.34833	-83
2.35200	-82
2.35567	-80
2.35933	-78
2.36300	-76
2.36667	-73
2.37033	-70
2.37400	-67
2.37767	-64
2.38133	-60
2.38500	-56
2.38867	-52
2.39233	-48
2.39600	-44
2.39967	-40
2.40333	-36
2.40700	-32
2.41067	-29
2.41433	-27
2.41800	-25
2.42167	-23
2.42533	-21
2.42900	-20
2.43267	-18
2.43633	-17
2.44000	-15
2.44367	-14
2.44733	-12
2.45100	-11
2.45467	-10
2.45833	-9
2.46200	-8
2.46567	-6
2.46933	-5
2.47300	-4
2.47667	-3
2.48033	-2
2.48400	-1
2.48767	0
2.49133	2
2.49500	3
2.49867	4
2.50233	5
2.50600	6
2.50967	8
2.51333	8
2.51700	9
2.52067	9
2.52433	9
2.52800	8
2.53167	8
2.53533	8
2.53900	9
2.54267	9
2.54633	10
2.55000	10
2.55367	10
2.55733	11
2.56100	11
2.56467	12
2.56833	12
2.57200	12
2.57567	12
2.57933	12
2.58300	11
2.58667	11
2.59033	10
2.59400	10
2.59767	10
2.60133	10
2.60500	11
2.60867	11
2.61233	12
2.61600	12
2.61967	12
2.62333	12
2.62700	12
2.63067	11
2.63433	11
2.63800	12
2.64167	13
2.64533	13
2.64900	14
2.65267	15
2.65633	16
2.66000	17
2.66367	17
2.66733	18
2.67100	17
2.67467	17
2.67833	17
2.68200	17
2.68567	17
2.68933	18
2.69300	19
2.69667	19
2.70033	20
2.70400	21
2.70767	22
2.71133	23
2.71500	23
2.71867	24
2.72233	24
2.72600	24
2.72967	24
2.73333	24
2.73700	24
2.74067	24
2.74433	23
2.74800	23
2.75167	22
2.75533	22
2.75900	22
2.76267	22
2.76633	22
2.77000	23
2.77367	23
2.77733	23
2.78100	23
2.78467	23
2.78833	23
2.79200	23
2.79567	23
2.79933	23
2.80300	23
2.80667	23
2.81033	23
2.81400	23
2.81767	24
2.82133	24
2.82500	24
2.82867	25
2.83233	24
2.83600	24
2.83967	22
2.84333	19
2.84700	15
2.85067	7
2.85433	-3
2.85800	-17
2.86167	-35
2.86533	-57
2.86900	-83
2.87267	-114
2.87633	-149
2.88000	-188
2.88367	-230
2.88733	-276
2.89100	-324
2.89467	-375
2.89833	-427
2.90200	-481
2.90567	-535
2.90933	-590
2.91300	-645
2.91667	-700
2.92033	-753
2.92400	-806
2.92767	-857
2.93133	-911
2.93500	-969
2.93867	-1028
2.94233	-1077
2.94600	-1107
2.94967	-1111
2.95333	-1089
2.95700	-1045
2.96067	-984
2.96433	-911
2.96800	-832
2.97167	-750
2.97533	-670
2.97900	-593
2.98267	-522
2.98633	-455
2.99000	-395
2.99367	-342
2.99733	-294
3.00100	-252
3.00467	-216
3.00833	-184
3.01200	-157
3.01567	-133
3.01933	-113
3.02300	-95
3.02667	-80
3.03033	-67
3.03400	-56
3.03767	-46
3.04133	-38
3.04500	-31
3.04867	-25
3.05233	-20
3.05600	-16
3.05967	-12
3.06333	-9
3.06700	-6
3.07067	-4
3.07433	-2
3.07800	0
3.08167	2
3.08533	3
3.08900	5
3.09267	6
3.09633	7
3.10000	8
3.10367	9
3.10733	10
3.11100	11
3.11467	12
3.11833	13
3.12200	14
3.12567	14
3.12933	15
3.13300	16
3.13667	16
3.14033	17
3.14400	17
3.14767	18
3.15133	18
3.15500	18
3.15867	18
3.16233	18
3.16600	18
3.16967	18
3.17333	18
3.17700	18
3.18067	17
3.18433	17
3.18800	17
3.19167	17
3.19533	18
3.19900	18
3.20267	19
3.20633	19
3.21000	19
3.21367	20
3.21733	20
3.22100	20
3.22467	20
3.22833	21
3.23200	21
3.23567	21
3.23933	21
3.24300	21
3.24667	21
3.25033	21
3.25400	21
3.25767	21
3.26133	21
3.26500	22
3.26867	21
3.27233	22
3.27600	22
3.27967	22
3.28333	22
3.28700	22
3.29067	22
3.29433	22
3.29800	22
3.30167	22
3.30533	22
3.30900	22
3.31267	22
3.31633	22
3.32000	22
3.32367	23
3.32733	23
3.33100	23
3.33467	24
3.33833	24
3.34200	24
3.34567	25
3.34933	25
3.35300	25
3.35667	25
3.36033	26
3.36400	26
3.36767	26
3.37133	26
3.37500	26
3.37867	26
3.38233	26
3.38600	26
3.38967	26
3.39333	27
3.39700	27
3.40067	27
3.40433	27
3.40800	26
3.41167	26
3.41533	26
3.41900	26
3.42267	26
3.42633	26
3.43000	26
3.43367	26
3.43733	26
3.44100	26
3.44467	26
3.44833	26
3.45200	26
3.45567	26
3.45933	26
3.46300	26
3.46667	26
3.47033	26
3.47400	26
3.47767	26
3.48133	27
3.48500	27
3.48867	27
3.49233	27
3.49600	27
3.49967	27
3.50333	27
3.50700	27
3.51067	27
3.51433	27
3.51800	27
3.52167	27
3.52533	27
3.52900	27
3.53267	27
3.53633	27
3.54000	27
3.54367	26
3.54733	26
3.55100	26
3.55467	26
3.55833	26
3.56200	26
3.56567	25
3.56933	25
3.57300	25
3.57667	25
3.58033	24
3.58400	24
3.58767	24
3.59133	23
3.59500	23
3.59867	23
3.60233	23
3.60600	24
3.60967	24
3.61333	24
3.61700	24
3.62067	24
3.62433	25
3.62800	25
3.63167	25
3.63533	25
3.63900	25
3.64267	25
3.64633	25
3.65000	25
3.65367	25
3.65733	25
3.66100	25
3.66467	25
3.66833	25
3.67200	25
3.67567	25
3.67933	25
3.68300	25
3.68667	25
3.69033	25
3.69400	25
3.69767	25
3.70133	24
3.70500	24
3.70867	24
3.71233	24
3.71600	24
3.71967	24
3.72333	24
3.72700	24
3.73067	24
3.73433	24
3.73800	24
3.74167	25
3.74533	25
3.74900	25
3.75267	25
3.75633	25
3.76000	25
3.76367	25
3.76733	25
3.77100	25
3.77467	26
3.77833	26
3.78200	26
3.78567	26
3.78933	26
3.79300	26
3.79667	26
3.80033	26
3.80400	26
3.80767	26
3.81133	26
3.81500	26
3.81867	26
3.82233	26
3.82600	26
3.82967	26
3.83333	26
3.83700	26
3.84067	26
3.84433	26
3.84800	25
3.85167	25
3.85533	25
3.85900	25
3.86267	25
3.86633	25
3.87000	25
3.87367	25
3.87733	25
3.88100	25
3.88467	25
3.88833	25
3.89200	25
3.89567	24
3.89933	24
3.90300	24
3.90667	23
3.91033	23
3.91400	23
3.91767	23
3.92133	23
3.92500	23
3.92867	23
3.93233	23
3.93600	23
3.93967	23
3.94333	23
3.94700	24
3.95067	24
3.95433	24
3.95800	24
3.96167	25
3.96533	25
3.96900	25
3.97267	25
3.97633	25
3.98000	26
3.98367	26
3.98733	25
3.99100	25
3.99467	25
3.99833	25

[Chromatogram (Ch3)]
Interval(msec)	220
# of Points	1091
Start Time(min)	0.002
End Time(min)	3.998
R.Time (min)	Intensity
0.00167	1
0.00533	2
0.00900	2
0.01267	1
0.01633	-1
0.02000	-3
0.02367	-5
0.02733	-4
0.03100	-3
0.03467	-4
0.03833	-5
0.04200	-6
0.04567	-5
0.04933	-3
0.05300	-4
0.05667	-5
0.06033	-5
0.06400	-3
0.06767	-1
0.07133	0
0.07500	1
0.07867	1
0.08233	3
0.08600	1
0.08967	-2
0.09333	-3
0.09700	-2
0.10067	0
0.10433	1
0.10800	1
0.11167	3
0.11533	4
0.11900	4
0.12267	3
0.12633	3
0.13000	2
0.13367	2
0.13733	-2
0.14100	-5
0.14467	-6
0.14833	-5
0.15200	-2
0.15567	-0
0.15933	1
0.16300	-2
0.16667	-5
0.17033	-5
0.17400	-5
0.17767	-7
0.18133	-10
0.18500	-10
0.18867	-8
0.19233	-8
0.19600	-7
0.19967	-5
0.20333	-4
0.20700	-3
0.21067	0
0.21433	3
0.21800	2
0.22167	2
0.22533	1
0.22900	-1
0.23267	-3
0.23633	-6
0.24000	-6
0.24367	-5
0.24733	-5
0.25100	-4
0.25467	-4
0.25833	-3
0.26200	-2
0.26567	-3
0.26933	-3
0.27300	-2
0.27667	-1
0.28033	-2
0.28400	-2
0.28767	-3
0.29133	-4
0.29500	-4
0.29867	-2
0.30233	-1
0.30600	-1
0.30967	1
0.31333	1
0.31700	1
0.32067	1
0.32433	-1
0.32800	-4
0.33167	-6
0.33533	-6
0.33900	-6
0.34267	-4
0.34633	-3
0.35000	-2
0.35367	0
0.35733	0
0.36100	-1
0.36467	-0
0.36833	1
0.37200	-1
0.37567	-4
0.37933	-4
0.38300	-4
0.38667	-1
0.39033	4
0.39400	7
0.39767	7
0.40133	5
0.40500	5
0.40867	3
0.41233	2
0.41600	2
0.41967	2
0.42333	2
0.42700	1
0.43067	2
0.43433	2
0.43800	2
0.44167	-1
0.44533	-3
0.44900	-3
0.45267	-2
0.45633	-1
0.46000	1
0.46367	0
0.46733	1
0.47100	1
0.47467	2
0.47833	5
0.48200	7
0.48567	9
0.48933	9
0.49300	8
0.49667	5
0.50033	2
0.50400	1
0.50767	-0
0.51133	-2
0.51500	-3
0.51867	-2
0.52233	-0
0.52600	-1
0.52967	1
0.53333	3
0.53700	3
0.54067	5
0.54433	6
0.54800	5
0.55167	4
0.55533	4
0.55900	3
0.56267	2
0.56633	1
0.57000	0
0.57367	2
0.57733	3
0.58100	3
0.58467	4
0.58833	4
0.59200	3
0.59567	-1
0.59933	-2
0.60300	-1
0.60667	2
0.61033	4
0.61400	4
0.61767	7
0.62133	8
0.62500	8
0.62867	6
0.63233	4
0.63600	1
0.63967	-1
0.64333	-0
0.64700	3
0.65067	4
0.65433	4
0.65800	4
0.66167	4
0.66533	5
0.66900	5
0.67267	6
0.67633	5
0.68000	4
0.68367	2
0.68733	2
0.69100	4
0.69467	6
0.69833	7
0.70200	6
0.70567	5
0.70933	4
0.71300	3
0.71667	3
0.72033	4
0.72400	4
0.72767	5
0.73133	4
0.73500	5
0.73867	5
0.74233	4
0.74600	4
0.74967	7
0.75333	11
0.75700	10
0.76067	10
0.76433	8
0.76800	8
0.77167	8
0.77533	7
0.77900	6
0.78267	6
0.78633	6
0.79000	6
0.79367	5
0.79733	5
0.80100	3
0.80467	3
0.80833	5
0.81200	6
0.81567	6
0.81933	5
0.82300	2
0.82667	1
0.83033	3
0.83400	5
0.83767	4
0.84133	2
0.84500	2
0.84867	2
0.85233	2
0.85600	4
0.85967	4
0.86333	4
0.86700	5
0.87067	7
0.87433	9
0.87800	10
0.88167	8
0.88533	7
0.88900	8
0.89267	7
0.89633	7
0.90000	9
0.90367	9
0.90733	9
0.91100	9
0.91467	9
0.91833	8
0.92200	9
0.92567	10
0.92933	10
0.93300	8
0.93667	8
0.94033	10
0.94400	13
0.94767	13
0.95133	12
0.95500	11
0.95867	12
0.96233	13
0.96600	14
0.96967	13
0.97333	12
0.97700	11
0.98067	11
0.98433	11
0.98800	11
0.99167	9
0.99533	10
0.99900	14
1.00267	14
1.00633	12
1.01000	10
1.01367	9
1.01733	10
1.02100	10
1.02467	11
1.02833	9
1.03200	9
1.03567	12
1.03933	14
1.04300	17
1.04667	17
1.05033	16
1.05400	14
1.05767	12
1.06133	12
1.06500	11
1.06867	12
1.07233	11
1.07600	10
1.07967	10
1.08333	8
1.08700	10
1.09067	10
1.09433	9
1.09800	10
1.10167	14
1.10533	17
1.10900	18
1.11267	16
1.11633	14
1.12000	13
1.12367	13
1.12733	13
1.13100	15
1.13467	15
1.13833	13
1.14200	12
1.14567	13
1.14933	14
1.15300	15
1.15667	15
1.16033	15
1.16400	16
1.16767	16
1.17133	18
1.17500	20
1.17867	20
1.18233	20
1.18600	20
1.18967	19
1.19333	18
1.19700	18
1.20067	19
1.20433	20
1.20800	20
1.21167	20
1.21533	19
1.21900	18
1.22267	20
1.22633	22
1.23000	23
1.23367	22
1.23733	21
1.24100	19
1.24467	20
1.24833	22
1.25200	22
1.25567	20
1.25933	18
1.26300	17
1.26667	17
1.27033	18
1.27400	19
1.27767	19
1.28133	19
1.28500	19
1.28867	18
1.29233	17
1.29600	16
1.29967	18
1.30333	19
1.30700	20
1.31067	19
1.31433	20
1.31800	21
1.32167	23
1.32533	24
1.32900	24
1.33267	25
1.33633	25
1.34000	26
1.34367	25
1.34733	22
1.35100	20
1.35467	19
1.35833	22
1.36200	25
1.36567	26
1.36933	26
1.37300	25
1.37667	26
1.38033	25
1.38400	23
1.38767	22
1.39133	22
1.39500	23
1.39867	23
1.40233	23
1.40600	22
1.40967	21
1.41333	21
1.41700	21
1.42067	20
1.42433	20
1.42800	18
1.43167	18
1.43533	19
1.43900	20
1.44267	20
1.44633	21
1.45000	21
1.45367	23
1.45733	23
1.46100	24
1.46467	26
1.46833	28
1.47200	27
1.47567	26
1.47933	27
1.48300	26
1.48667	26
1.49033	27
1.49400	28
1.49767	28
1.50133	28
1.50500	29
1.50867	27
1.51233	26
1.51600	26
1.51967	25
1.52333	24
1.52700	25
1.53067	25
1.53433	25
1.53800	27
1.54167	26
1.54533	25
1.54900	25
1.55267	25
1.55633	27
1.56000	28
1.56367	27
1.56733	23
1.57100	21
1.57467	19
1.57833	19
1.58200	22
1.58567	24
1.58933	23
1.59300	22
1.59667	23
1.60033	24
1.60400	24
1.60767	23
1.61133	19
1.61500	16
1.61867	17
1.62233	21
1.62600	24
1.62967	25
1.63333	24
1.63700	24
1.64067	26
1.64433	29
1.64800	31
1.65167	32
1.65533	31
1.65900	31
1.66267	33
1.66633	34
1.67000	33
1.67367	32
1.67733	32
1.68100	31
1.68467	29
1.68833	27
1.69200	27
1.69567	27
1.69933	29
1.70300	31
1.70667	32
1.71033	35
1.71400	33
1.71767	32
1.72133	34
1.72500	35
1.72867	35
1.73233	36
1.73600	36
1.73967	37
1.74333	36
1.74700	36
1.75067	37
1.75433	36
1.75800	37
1.76167	38
1.76533	38
1.76900	37
1.77267	38
1.77633	39
1.78000	41
1.78367	42
1.78733	42
1.79100	43
1.79467	45
1.79833	46
1.80200	47
1.80567	48
1.80933	46
1.81300	46
1.81667	48
1.82033	48
1.82400	47
1.82767	47
1.83133	46
1.83500	46
1.83867	47
1.84233	48
1.84600	50
1.84967	52
1.85333	51
1.85700	48
1.86067	48
1.86433	50
1.86800	47
1.87167	46
1.87533	47
1.87900	49
1.88267	51
1.88633	51
1.89000	54
1.89367	56
1.89733	58
1.90100	59
1.90467	58
1.90833	58
1.91200	58
1.91567	60
1.91933	61
1.92300	61
1.92667	61
1.93033	60
1.93400	61
1.93767	61
1.94133	62
1.94500	63
1.94867	62
1.95233	62
1.95600	63
1.95967	64
1.96333	66
1.96700	66
1.97067	67
1.97433	67
1.97800	69
1.98167	70
1.98533	70
1.98900	71
1.99267	72
1.99633	75
2.00000	78
2.00367	79
2.00733	79
2.01100	78
2.01467	78
2.01833	83
2.02200	87
2.02567	89
2.02933	88
2.03300	86
2.03667	85
2.04033	85
2.04400	87
2.04767	89
2.05133	90
2.05500	92
2.05867	91
2.06233	92
2.06600	93
2.06967	95
2.07333	99
2.07700	100
2.08067	99
2.08433	100
2.08800	103
2.09167	105
2.09533	105
2.09900	105
2.10267	106
2.10633	107
2.11000	107
2.11367	108
2.11733	110
2.12100	112
2.12467	115
2.12833	114
2.13200	112
2.13567	114
2.13933	116
2.14300	118
2.14667	123
2.15033	126
2.15400	128
2.15767	129
2.16133	128
2.16500	127
2.16867	128
2.17233	129
2.17600	131
2.17967	132
2.18333	134
2.18700	137
2.19067	138
2.19433	138
2.19800	137
2.20167	139
2.20533	140
2.20900	142
2.21267	145
2.21633	147
2.22000	147
2.22367	147
2.22733	148
2.23100	152
2.23467	156
2.23833	159
2.24200	161
2.24567	160
2.24933	158
2.25300	158
2.25667	159
2.26033	161
2.26400	163
2.26767	165
2.27133	165
2.27500	168
2.27867	169
2.28233	170
2.28600	171
2.28967	174
2.29333	177
2.29700	178
2.30067	179
2.30433	182
2.30800	185
2.31167	188
2.31533	191
2.31900	194
2.32267	194
2.32633	194
2.33000	194
2.33367	195
2.33733	198
2.34100	202
2.34467	204
2.34833	206
2.35200	207
2.35567	209
2.35933	209
2.36300	211
2.36667	212
2.37033	213
2.37400	214
2.37767	213
2.38133	212
2.38500	212
2.38867	213
2.39233	214
2.39600	216
2.39967	222
2.40333	228
2.40700	232
2.41067	236
2.41433	238
2.41800	241
2.42167	245
2.42533	249
2.42900	250
2.43267	253
2.43633	253
2.44000	256
2.44367	301
2.44733	419
2.45100	547
2.45467	650
2.45833	707
2.46200	696
2.46567	636
2.46933	570
2.47300	521
2.47667	490
2.48033	467
2.48400	445
2.48767	414
2.49133	374
2.49500	331
2.49867	295
2.50233	267
2.50600	248
2.50967	237
2.51333	231
2.51700	228
2.52067	234
2.52433	247
2.52800	263
2.53167	277
2.53533	285
2.53900	289
2.54267	281
2.54633	268
2.55000	249
2.55367	227
2.55733	204
2.56100	183
2.56467	165
2.56833	149
2.57200	137
2.57567	126
2.57933	120
2.58300	117
2.58667	118
2.59033	115
2.59400	110
2.59767	105
2.60133	98
2.60500	85
2.60867	68
2.61233	50
2.61600	31
2.61967	13
2.62333	-1
2.62700	-11
2.63067	-16
2.63433	-18
2.63800	-15
2.64167	-8
2.64533	2
2.64900	13
2.65267	27
2.65633	40
2.66000	50
2.66367	59
2.66733	63
2.67100	65
2.67467	65
2.67833	63
2.68200	61
2.68567	60
2.68933	57
2.69300	54
2.69667	50
2.70033	44
2.70400	37
2.70767	30
2.71133	24
2.71500	19
2.71867	16
2.72233	13
2.72600	10
2.72967	9
2.73333	11
2.73700	13
2.74067	13
2.74433	12
2.74800	11
2.75167	11
2.75533	13
2.75900	18
2.76267	25
2.76633	27
2.77000	27
2.77367	26
2.77733	27
2.78100	27
2.78467	25
2.78833	24
2.79200	26
2.79567	28
2.79933	28
2.80300	28
2.80667	28
2.81033	27
2.81400	30
2.81767	38
2.82133	59
2.82500	103
2.82867	190
2.83233	343
2.83600	581
2.83967	922
2.84333	1369
2.84700	1907
2.85067	2506
2.85433	3128
2.85800	3721
2.86167	4233
2.86533	4627
2.86900	4877
2.87267	4979
2.87633	4941
2.88000	4783
2.88367	4536
2.88733	4227
2.89100	3879
2.89467	3516
2.89833	3157
2.90200	2817
2.90567	2499
2.90933	2207
2.91300	1942
2.91667	1705
2.92033	1494
2.92400	1309
2.92767	1147
2.93133	1005
2.93500	881
2.93867	772
2.94233	678
2.94600	597
2.94967	526
2.95333	465
2.95700	411
2.96067	363
2.96433	321
2.96800	287
2.97167	255
2.97533	227
2.97900	204
2.98267	183
2.98633	165
2.99000	151
2.99367	139
2.99733	127
3.00100	113
3.00467	100
3.00833	89
3.01200	80
3.01567	76
3.01933	71
3.02300	65
3.02667	59
3.03033	53
3.03400	47
3.03767	41
3.04133	37
3.04500	31
3.04867	26
3.05233	23
3.05600	21
3.05967	17
3.06333	13
3.06700	10
3.07067	9
3.07433	6
3.07800	4
3.08167	2
3.08533	-0
3.08900	-1
3.09267	-2
3.09633	-2
3.10000	-4
3.10367	-8
3.10733	-10
3.11100	-13
3.11467	-39
3.11833	-96
3.12200	-152
3.12567	-184
3.12933	-184
3.13300	-162
3.13667	-125
3.14033	-80
3.14400	-34
3.14767	13
3.15133	60
3.15500	107
3.15867	153
3.16233	193
3.16600	230
3.16967	265
3.17333	296
3.17700	324
3.18067	345
3.18433	362
3.18800	379
3.19167	395
3.19533	411
3.19900	422
3.20267	433
3.20633	441
3.21000	448
3.21367	456
3.21733	463
3.22100	467
3.22467	472
3.22833	474
3.23200	475
3.23567	476
3.23933	478
3.24300	480
3.24667	483
3.25033	484
3.25400	483
3.25767	482
3.26133	481
3.26500	481
3.26867	479
3.27233	477
3.27600	477
3.27967	478
3.28333	478
3.28700	475
3.29067	472
3.29433	472
3.29800	469
3.30167	466
3.30533	465
3.30900	468
3.31267	469
3.31633	469
3.32000	467
3.32367	464
3.32733	461
3.33100	461
3.33467	461
3.33833	462
3.34200	462
3.34567	458
3.34933	456
3.35300	456
3.35667	455
3.36033	457
3.36400	459
3.36767	462
3.37133	463
3.37500	462
3.37867	460
3.38233	460
3.38600	460
3.38967	460
3.39333	459
3.39700	460
3.40067	462
3.40433	461
3.40800	460
3.41167	461
3.41533	463
3.41900	463
3.42267	459
3.42633	457
3.43000	456
3.43367	456
3.43733	456
3.44100	458
3.44467	459
3.44833	459
3.45200	459
3.45567	459
3.45933	456
3.46300	451
3.46667	447
3.47033	447
3.47400	448
3.47767	448
3.48133	446
3.48500	445
3.48867	443
3.49233	441
3.49600	439
3.49967	439
3.50333	439
3.50700	438
3.51067	437
3.51433	435
3.51800	432
3.52167	430
3.52533	427
3.52900	427
3.53267	425
3.53633	422
3.54000	420
3.54367	418
3.54733	414
3.55100	411
3.55467	409
3.55833	406
3.56200	404
3.56567	404
3.56933	403
3.57300	405
3.57667	407
3.58033	408
3.58400	408
3.58767	405
3.59133	404
3.59500	404
3.59867	403
3.60233	400
3.60600	399
3.60967	400
3.61333	400
3.61700	398
3.62067	398
3.62433	398
3.62800	396
3.63167	395
3.63533	394
3.63900	392
3.64267	390
3.64633	389
3.65000	390
3.65367	390
3.65733	392
3.66100	394
3.66467	395
3.66833	395
3.67200	395
3.67567	397
3.67933	397
3.68300	395
3.68667	393
3.69033	392
3.69400	390
3.69767	393
3.70133	395
3.70500	394
3.70867	391
3.71233	390
3.71600	388
3.71967	388
3.72333	388
3.72700	387
3.73067	388
3.73433	386
3.73800	387
3.74167	387
3.74533	387
3.74900	388
3.75267	389
3.75633	390
3.76000	392
3.76367	393
3.76733	392
3.77100	393
3.77467	393
3.77833	392
3.78200	394
3.78567	394
3.78933	394
3.79300	394
3.79667	393
3.80033	392
3.80400	391
3.80767	392
3.81133	393
3.81500	393
3.81867	392
3.82233	392
3.82600	391
3.82967	390
3.83333	390
3.83700	392
3.84067	392
3.84433	392
3.84800	391
3.85167	389
3.85533	387
3.85900	388
3.86267	388
3.86633	388
3.87000	387
3.87367	384
3.87733	384
3.88100	386
3.88467	387
3.88833	388
3.89200	386
3.89567	385
3.89933	382
3.90300	381
3.90667	381
3.91033	379
3.91400	379
3.91767	380
3.92133	379
3.92500	376
3.92867	375
3.93233	375
3.93600	375
3.93967	374
3.94333	372
3.94700	372
3.95067	372
3.95433	372
3.95800	371
3.96167	371
3.96533	368
3.96900	366
3.97267	367
3.97633	367
3.98000	366
3.98367	364
3.98733	362
3.99100	359
3.99467	357
3.99833	354

[Status Trace (Column Oven Temperature)]
Interval(msec)	1000
# of Points	240
Start Time(min)	0.007
End Time(min)	3.990
Intensity Units	
Intensity Multiplier	1
R.Time (min)	Intensity
0.00712	35.05
0.02378	35.04
0.04045	35.03
0.05712	35.03
0.07378	35.03
0.09045	35.04
0.10712	35.02
0.12378	35.02
0.14045	35.01
0.15712	35.00
0.17378	34.99
0.19045	35.00
0.20712	35.02
0.22378	35.03
0.24045	35.02
0.25712	35.02
0.27378	35.03
0.29045	35.04
0.30712	35.05
0.32378	35.04
0.34045	35.03
0.35712	35.03
0.37378	35.04
0.39045	35.05
0.40712	35.05
0.42378	35.03
0.44045	35.02
0.45712	35.01
0.47378	35.01
0.49045	35.01
0.50712	35.01
0.52378	35.01
0.54045	35.00
0.55712	34.99
0.57378	35.00
0.59045	34.99
0.60712	35.00
0.62378	35.00
0.64045	35.01
0.65712	35.01
0.67378	35.00
0.69045	35.00
0.70712	35.00
0.72378	35.01
0.74045	35.00
0.75712	34.99
0.77378	34.98
0.79045	34.97
0.80712	34.97
0.82378	34.98
0.84045	34.98
0.85712	34.98
0.87378	34.99
0.89045	35.00
0.90712	34.99
0.92378	34.99
0.94045	34.99
0.95712	35.00
0.97378	35.00
0.99045	35.01
1.00712	35.01
1.02378	35.01
1.04045	35.01
1.05712	35.00
1.07378	35.00
1.09045	35.01
1.10712	35.01
1.12378	35.00
1.14045	34.99
1.15712	34.99
1.17378	34.99
1.19045	35.01
1.20712	35.01
1.22378	35.00
1.24045	35.01
1.25712	35.00
1.27378	35.01
1.29045	35.01
1.30712	35.00
1.32378	34.99
1.34045	34.98
1.35712	34.97
1.37378	34.97
1.39045	34.98
1.40712	34.98
1.42378	34.98
1.44045	34.99
1.45712	34.99
1.47378	34.98
1.49045	34.99
1.50712	35.00
1.52378	35.01
1.54045	35.01
1.55712	35.00
1.57378	34.99
1.59045	34.99
1.60712	35.05
1.62378	35.17
1.64045	35.35
1.65712	35.59
1.67378	35.92
1.69045	36.30
1.70712	36.65
1.72378	36.99
1.74045	37.32
1.75712	37.66
1.77378	37.98
1.79045	38.32
1.80712	38.66
1.82378	39.00
1.84045	39.30
1.85712	39.64
1.87378	39.97
1.89045	40.29
1.90712	40.63
1.92378	40.94
1.94045	41.26
1.95712	41.58
1.97378	41.92
1.99045	42.24
2.00712	42.57
2.02378	42.91
2.04045	43.21
2.05712	43.54
2.07378	43.86
2.09045	44.18
2.10712	44.51
2.12378	44.84
2.14045	45.16
2.15712	45.49
2.17378	45.80
2.19045	46.15
2.20712	46.48
2.22378	46.80
2.24045	47.13
2.25712	47.49
2.27378	47.82
2.29045	48.16
2.30712	48.47
2.32378	48.82
2.34045	49.15
2.35712	49.41
2.37378	49.58
2.39045	49.63
2.40712	49.63
2.42378	49.64
2.44045	49.64
2.45712	49.65
2.47378	49.66
2.49045	49.68
2.50712	49.67
2.52378	49.71
2.54045	49.73
2.55712	49.74
2.57378	49.77
2.59045	49.80
2.60712	49.80
2.62378	49.83
2.64045	49.83
2.65712	49.83
2.67378	49.85
2.69045	49.86
2.70712	49.84
2.72378	49.84
2.74045	49.84
2.75712	49.86
2.77378	49.85
2.79045	49.85
2.80712	49.86
2.82378	49.86
2.84045	49.86
2.85712	49.86
2.87378	49.87
2.89045	49.89
2.90712	49.92
2.92378	49.93
2.94045	49.93
2.95712	49.93
2.97378	49.93
2.99045	49.92
3.00712	49.94
3.02378	49.95
3.04045	49.97
3.05712	50.00
3.07378	50.00
3.09045	50.01
3.10712	50.02
3.12378	50.01
3.14045	50.01
3.15712	50.03
3.17378	50.05
3.19045	50.05
3.20712	50.06
3.22378	50.06
3.24045	50.07
3.25712	50.08
3.27378	50.09
3.29045	50.09
3.30712	50.11
3.32378	50.11
3.34045	50.10
3.35712	50.10
3.37378	50.08
3.39045	50.07
3.40712	50.07
3.42378	50.06
3.44045	50.06
3.45712	50.05
3.47378	50.05
3.49045	50.05
3.50712	50.04
3.52378	50.03
3.54045	50.02
3.55712	50.03
3.57378	50.04
3.59045	50.05
3.60712	50.04
3.62378	50.03
3.64045	50.04
3.65712	50.04
3.67378	50.05
3.69045	50.04
3.70712	50.05
3.72378	50.05
3.74045	50.05
3.75712	50.04
3.77378	50.04
3.79045	50.03
3.80712	50.02
3.82378	50.02
3.84045	50.02
3.85712	50.02
3.87378	50.03
3.89045	50.03
3.90712	50.04
3.92378	50.06
3.94045	50.05
3.95712	50.05
3.97378	50.04
3.99045	50.05

[Status Trace (Injection Unit Temperature)]
Interval(msec)	1000
# of Points	240
Start Time(min)	0.007
End Time(min)	3.990
Intensity Units	
Intensity Multiplier	1
R.Time (min)	Intensity
0.00712	99.98
0.02378	99.98
0.04045	99.98
0.05712	99.98
0.07378	99.98
0.09045	99.98
0.10712	99.98
0.12378	99.98
0.14045	99.98
0.15712	99.98
0.17378	99.98
0.19045	99.98
0.20712	99.98
0.22378	99.99
0.24045	99.99
0.25712	99.98
0.27378	99.99
0.29045	99.98
0.30712	99.98
0.32378	99.99
0.34045	99.98
0.35712	99.98
0.37378	99.98
0.39045	99.99
0.40712	99.99
0.42378	99.98
0.44045	99.98
0.45712	99.98
0.47378	99.98
0.49045	99.98
0.50712	99.99
0.52378	99.98
0.54045	99.98
0.55712	99.98
0.57378	99.99
0.59045	99.98
0.60712	99.98
0.62378	99.98
0.64045	99.98
0.65712	99.98
0.67378	99.98
0.69045	99.98
0.70712	99.98
0.72378	99.98
0.74045	99.98
0.75712	99.98
0.77378	99.98
0.79045	99.98
0.80712	99.98
0.82378	99.99
0.84045	99.98
0.85712	99.98
0.87378	99.98
0.89045	99.98
0.90712	99.99
0.92378	99.99
0.94045	99.98
0.95712	99.98
0.97378	99.98
0.99045	99.98
1.00712	99.98
1.02378	99.98
1.04045	99.98
1.05712	99.98
1.07378	99.98
1.09045	99.98
1.10712	99.98
1.12378	99.98
1.14045	99.98
1.15712	99.98
1.17378	99.98
1.19045	99.98
1.20712	99.98
1.22378	99.98
1.24045	99.98
1.25712	99.98
1.27378	99.98
1.29045	99.99
1.30712	99.98
1.32378	99.99
1.34045	99.98
1.35712	99.99
1.37378	99.98
1.39045	99.99
1.40712	99.98
1.42378	99.98
1.44045	99.98
1.45712	99.99
1.47378	99.99
1.49045	99.99
1.50712	99.98
1.52378	99.99
1.54045	99.99
1.55712	99.99
1.57378	99.99
1.59045	99.98
1.60712	99.98
1.62378	99.99
1.64045	99.99
1.65712	99.99
1.67378	99.99
1.69045	99.99
1.70712	99.99
1.72378	99.99
1.74045	99.98
1.75712	99.99
1.77378	99.99
1.79045	99.99
1.80712	99.98
1.82378	99.98
1.84045	99.98
1.85712	99.98
1.87378	99.98
1.89045	99.98
1.90712	99.98
1.92378	99.98
1.94045	99.98
1.95712	99.98
1.97378	99.97
1.99045	99.97
2.00712	99.97
2.02378	99.97
2.04045	99.97
2.05712	99.97
2.07378	99.96
2.09045	99.97
2.10712	99.97
2.12378	99.97
2.14045	99.97
2.15712	99.97
2.17378	99.97
2.19045	99.97
2.20712	99.97
2.22378	99.96
2.24045	99.96
2.25712	99.96
2.27378	99.97
2.29045	99.97
2.30712	99.97
2.32378	99.97
2.34045	99.96
2.35712	99.97
2.37378	99.97
2.39045	99.97
2.40712	99.97
2.42378	99.97
2.44045	99.97
2.45712	99.97
2.47378	99.96
2.49045	99.97
2.50712	99.97
2.52378	99.97
2.54045	99.97
2.55712	99.97
2.57378	99.97
2.59045	99.97
2.60712	99.97
2.62378	99.98
2.64045	99.98
2.65712	99.98
2.67378	99.98
2.69045	99.98
2.70712	99.98
2.72378	99.98
2.74045	99.98
2.75712	99.98
2.77378	99.98
2.79045	99.98
2.80712	99.99
2.82378	99.99
2.84045	99.99
2.85712	99.99
2.87378	99.99
2.89045	100.00
2.90712	99.99
2.92378	100.00
2.94045	100.00
2.95712	100.00
2.97378	100.00
2.99045	100.00
3.00712	100.01
3.02378	100.01
3.04045	100.00
3.05712	100.01
3.07378	100.00
3.09045	100.01
3.10712	100.01
3.12378	100.01
3.14045	100.01
3.15712	100.02
3.17378	100.02
3.19045	100.02
3.20712	100.01
3.22378	100.02
3.24045	100.02
3.25712	100.02
3.27378	100.02
3.29045	100.02
3.30712	100.02
3.32378	100.02
3.34045	100.03
3.35712	100.03
3.37378	100.02
3.39045	100.03
3.40712	100.03
3.42378	100.02
3.44045	100.02
3.45712	100.03
3.47378	100.03
3.49045	100.03
3.50712	100.03
3.52378	100.03
3.54045	100.03
3.55712	100.03
3.57378	100.03
3.59045	100.03
3.60712	100.03
3.62378	100.03
3.64045	100.03
3.65712	100.03
3.67378	100.03
3.69045	100.03
3.70712	100.03
3.72378	100.03
3.74045	100.04
3.75712	100.04
3.77378	100.04
3.79045	100.04
3.80712	100.03
3.82378	100.04
3.84045	100.04
3.85712	100.04
3.87378	100.04
3.89045	100.04
3.90712	100.04
3.92378	100.04
3.94045	100.04
3.95712	100.04
3.97378	100.04
3.99045	100.04

[Status Trace (Carrier Gas Pressure)]
Interval(msec)	1000
# of Points	240
Start Time(min)	0.007
End Time(min)	3.990
Intensity Units	
Intensity Multiplier	1
R.Time (min)	Intensity
0.00712	58.00
0.02378	55.44
0.04045	56.96
0.05712	59.15
0.07378	59.49
0.09045	58.10
0.10712	57.98
0.12378	58.01
0.14045	58.01
0.15712	58.00
0.17378	58.00
0.19045	58.00
0.20712	58.00
0.22378	58.00
0.24045	58.00
0.25712	58.00
0.27378	58.00
0.29045	58.00
0.30712	58.00
0.32378	58.00
0.34045	58.00
0.35712	58.00
0.37378	58.00
0.39045	58.00
0.40712	58.00
0.42378	58.00
0.44045	58.00
0.45712	58.00
0.47378	58.00
0.49045	58.00
0.50712	58.00
0.52378	58.00
0.54045	58.00
0.55712	58.00
0.57378	58.00
0.59045	58.00
0.60712	58.00
0.62378	58.00
0.64045	58.00
0.65712	58.00
0.67378	58.00
0.69045	58.00
0.70712	58.00
0.72378	58.00
0.74045	58.00
0.75712	58.00
0.77378	58.00
0.79045	58.00
0.80712	58.00
0.82378	58.00
0.84045	58.00
0.85712	58.00
0.87378	58.00
0.89045	58.00
0.90712	58.00
0.92378	58.00
0.94045	58.00
0.95712	58.00
0.97378	58.00
0.99045	58.00
1.00712	58.00
1.02378	58.00
1.04045	58.00
1.05712	58.00
1.07378	58.00
1.09045	58.00
1.10712	58.00
1.12378	58.00
1.14045	58.00
1.15712	58.00
1.17378	58.00
1.19045	58.00
1.20712	58.00
1.22378	58.00
1.24045	58.00
1.25712	58.00
1.27378	58.00
1.29045	58.00
1.30712	58.00
1.32378	58.00
1.34045	58.00
1.35712	58.00
1.37378	58.00
1.39045	58.00
1.40712	58.00
1.42378	58.00
1.44045	58.00
1.45712	58.00
1.47378	58.00
1.49045	58.00
1.50712	58.00
1.52378	58.00
1.54045	58.00
1.55712	58.00
1.57378	58.00
1.59045	58.00
1.60712	58.00
1.62378	58.00
1.64045	58.00
1.65712	58.00
1.67378	58.01
1.69045	58.00
1.70712	58.00
1.72378	58.00
1.74045	58.00
1.75712	58.00
1.77378	58.00
1.79045	58.00
1.80712	58.00
1.82378	58.00
1.84045	58.00
1.85712	58.00
1.87378	58.00
1.89045	58.00
1.90712	58.00
1.92378	58.00
1.94045	58.00
1.95712	58.00
1.97378	58.00
1.99045	58.00
2.00712	58.00
2.02378	58.00
2.04045	58.00
2.05712	58.00
2.07378	58.00
2.09045	58.00
2.10712	58.00
2.12378	58.00
2.14045	58.00
2.15712	58.00
2.17378	58.00
2.19045	58.00
2.20712	58.00
2.22378	58.00
2.24045	58.00
2.25712	58.00
2.27378	58.00
2.29045	58.00
2.30712	58.00
2.32378	58.00
2.34045	58.00
2.35712	58.00
2.37378	58.00
2.39045	57.99
2.40712	57.99
2.42378	58.00
2.44045	58.00
2.45712	58.00
2.47378	58.00
2.49045	58.00
2.50712	57.99
2.52378	57.99
2.54045	58.00
2.55712	58.00
2.57378	58.00
2.59045	58.00
2.60712	58.00
2.62378	58.00
2.64045	58.00
2.65712	58.00
2.67378	58.00
2.69045	58.00
2.70712	58.00
2.72378	58.00
2.74045	58.00
2.75712	58.00
2.77378	58.00
2.79045	58.00
2.80712	58.00
2.82378	58.00
2.84045	58.00
2.85712	58.00
2.87378	58.00
2.89045	58.00
2.90712	58.00
2.92378	58.00
2.94045	58.00
2.95712	58.00
2.97378	58.00
2.99045	58.00
3.00712	58.00
3.02378	58.00
3.04045	58.00
3.05712	58.00
3.07378	58.00
3.09045	58.00
3.10712	58.00
3.12378	58.00
3.14045	58.00
3.15712	58.00
3.17378	58.00
3.19045	58.00
3.20712	58.00
3.22378	58.00
3.24045	58.00
3.25712	58.00
3.27378	58.00
3.29045	58.00
3.30712	58.00
3.32378	58.00
3.34045	58.00
3.35712	58.00
3.37378	58.00
3.39045	58.00
3.40712	58.00
3.42378	58.00
3.44045	58.00
3.45712	58.00
3.47378	58.00
3.49045	58.00
3.50712	58.00
3.52378	58.00
3.54045	58.00
3.55712	58.00
3.57378	58.00
3.59045	58.00
3.60712	58.00
3.62378	58.00
3.64045	58.00
3.65712	58.00
3.67378	58.00
3.69045	58.00
3.70712	58.00
3.72378	58.00
3.74045	58.00
3.75712	58.00
3.77378	58.00
3.79045	58.00
3.80712	58.00
3.82378	58.00
3.84045	58.00
3.85712	58.00
3.87378	58.00
3.89045	58.00
3.90712	58.00
3.92378	58.00
3.94045	58.00
3.95712	58.00
3.97378	58.00
3.99045	58.00

[Status Trace (Carrier Gas Flow)]
Interval(msec)	1000
# of Points	240
Start Time(min)	0.007
End Time(min)	3.990
Intensity Units	
Intensity Multiplier	1
R.Time (min)	Intensity
0.00712	34.52
0.02378	34.54
0.04045	34.54
0.05712	34.54
0.07378	34.49
0.09045	34.52
0.10712	34.52
0.12378	34.52
0.14045	34.51
0.15712	34.52
0.17378	34.52
0.19045	34.52
0.20712	34.51
0.22378	34.52
0.24045	34.52
0.25712	34.52
0.27378	34.52
0.29045	34.53
0.30712	34.52
0.32378	34.52
0.34045	34.52
0.35712	34.52
0.37378	34.53
0.39045	34.52
0.40712	34.52
0.42378	34.52
0.44045	34.52
0.45712	34.52
0.47378	34.52
0.49045	34.52
0.50712	34.52
0.52378	34.52
0.54045	34.51
0.55712	34.53
0.57378	34.51
0.59045	34.52
0.60712	34.52
0.62378	34.51
0.64045	34.52
0.65712	34.52
0.67378	34.52
0.69045	34.52
0.70712	34.52
0.72378	34.52
0.74045	34.52
0.75712	34.52
0.77378	34.52
0.79045	34.52
0.80712	34.52
0.82378	34.52
0.84045	34.52
0.85712	34.52
0.87378	34.52
0.89045	34.52
0.90712	34.52
0.92378	34.52
0.94045	34.52
0.95712	34.52
0.97378	34.52
0.99045	34.52
1.00712	34.52
1.02378	34.52
1.04045	34.52
1.05712	34.52
1.07378	34.52
1.09045	34.52
1.10712	34.52
1.12378	34.52
1.14045	34.52
1.15712	34.52
1.17378	34.52
1.19045	34.52
1.20712	34.52
1.22378	34.52
1.24045	34.52
1.25712	34.52
1.27378	34.52
1.29045	34.52
1.30712	34.52
1.32378	34.52
1.34045	34.52
1.35712	34.52
1.37378	34.52
1.39045	34.52
1.40712	34.52
1.42378	34.52
1.44045	34.52
1.45712	34.52
1.47378	34.52
1.49045	34.52
1.50712	34.52
1.52378	34.52
1.54045	34.52
1.55712	34.52
1.57378	34.52
1.59045	34.52
1.60712	34.52
1.62378	34.52
1.64045	34.52
1.65712	34.52
1.67378	34.52
1.69045	34.52
1.70712	34.52
1.72378	34.52
1.74045	34.51
1.75712	34.52
1.77378	34.52
1.79045	34.51
1.80712	34.52
1.82378	34.52
1.84045	34.53
1.85712	34.52
1.87378	34.51
1.89045	34.52
1.90712	34.52
1.92378	34.52
1.94045	34.52
1.95712	34.52
1.97378	34.52
1.99045	34.52
2.00712	34.51
2.02378	34.52
2.04045	34.52
2.05712	34.52
2.07378	34.52
2.09045	34.52
2.10712	34.51
2.12378	34.52
2.14045	34.52
2.15712	34.51
2.17378	34.51
2.19045	34.52
2.20712	34.52
2.22378	34.52
2.24045	34.51
2.25712	34.52
2.27378	34.52
2.29045	34.52
2.30712	34.51
2.32378	34.52
2.34045	34.52
2.35712	34.52
2.37378	34.52
2.39045	34.51
2.40712	34.52
2.42378	34.52
2.44045	34.51
2.45712	34.52
2.47378	34.52
2.49045	34.52
2.50712	34.33
2.52378	34.52
2.54045	34.52
2.55712	34.52
2.57378	34.52
2.59045	34.52
2.60712	34.52
2.62378	34.52
2.64045	34.52
2.65712	34.52
2.67378	34.52
2.69045	34.52
2.70712	34.51
2.72378	34.52
2.74045	34.52
2.75712	34.52
2.77378	34.52
2.79045	34.52
2.80712	34.51
2.82378	34.51
2.84045	34.52
2.85712	34.52
2.87378	34.52
2.89045	34.53
2.90712	34.53
2.92378	34.52
2.94045	34.52
2.95712	34.52
2.97378	34.52
2.99045	34.51
3.00712	34.52
3.02378	34.52
3.04045	34.53
3.05712	34.53
3.07378	34.52
3.09045	34.52
3.10712	34.52
3.12378	34.52
3.14045	34.52
3.15712	34.52
3.17378	34.52
3.19045	34.52
3.20712	34.52
3.22378	34.52
3.24045	34.52
3.25712	34.52
3.27378	34.52
3.29045	34.52
3.30712	34.52
3.32378	34.52
3.34045	34.52
3.35712	34.51
3.37378	34.52
3.39045	34.52
3.40712	34.52
3.42378	34.52
3.44045	34.52
3.45712	34.52
3.47378	34.52
3.49045	34.52
3.50712	34.52
3.52378	34.52
3.54045	34.52
3.55712	34.52
3.57378	34.52
3.59045	34.52
3.60712	34.52
3.62378	34.53
3.64045	34.51
3.65712	34.51
3.67378	34.52
3.69045	34.52
3.70712	34.52
3.72378	34.52
3.74045	34.52
3.75712	34.52
3.77378	34.52
3.79045	34.52
3.80712	34.52
3.82378	34.52
3.84045	34.52
3.85712	34.51
3.87378	34.52
3.89045	34.52
3.90712	34.52
3.92378	34.51
3.94045	34.52
3.95712	34.52
3.97378	34.52
3.99045	34.52

[Status Trace (Column Flow)]
Interval(msec)	1000
# of Points	240
Start Time(min)	0.007
End Time(min)	3.990
Intensity Units	
Intensity Multiplier	1
R.Time (min)	Intensity
0.00712	5.56
0.02378	5.27
0.04045	5.44
0.05712	5.70
0.07378	5.74
0.09045	5.57
0.10712	5.56
0.12378	5.57
0.14045	5.57
0.15712	5.57
0.17378	5.57
0.19045	5.57
0.20712	5.56
0.22378	5.56
0.24045	5.56
0.25712	5.56
0.27378	5.56
0.29045	5.56
0.30712	5.56
0.32378	5.56
0.34045	5.56
0.35712	5.56
0.37378	5.56
0.39045	5.56
0.40712	5.56
0.42378	5.56
0.44045	5.56
0.45712	5.56
0.47378	5.56
0.49045	5.56
0.50712	5.56
0.52378	5.56
0.54045	5.56
0.55712	5.57
0.57378	5.56
0.59045	5.56
0.60712	5.56
0.62378	5.56
0.64045	5.56
0.65712	5.56
0.67378	5.56
0.69045	5.56
0.70712	5.56
0.72378	5.56
0.74045	5.56
0.75712	5.57
0.77378	5.57
0.79045	5.57
0.80712	5.57
0.82378	5.57
0.84045	5.57
0.85712	5.57
0.87378	5.57
0.89045	5.56
0.90712	5.57
0.92378	5.57
0.94045	5.57
0.95712	5.56
0.97378	5.56
0.99045	5.56
1.00712	5.56
1.02378	5.56
1.04045	5.56
1.05712	5.56
1.07378	5.56
1.09045	5.56
1.10712	5.56
1.12378	5.56
1.14045	5.56
1.15712	5.57
1.17378	5.57
1.19045	5.56
1.20712	5.56
1.22378	5.56
1.24045	5.56
1.25712	5.56
1.27378	5.56
1.29045	5.56
1.30712	5.56
1.32378	5.56
1.34045	5.57
1.35712	5.57
1.37378	5.57
1.39045	5.57
1.40712	5.57
1.42378	5.57
1.44045	5.57
1.45712	5.57
1.47378	5.57
1.49045	5.57
1.50712	5.56
1.52378	5.56
1.54045	5.56
1.55712	5.56
1.57378	5.56
1.59045	5.57
1.60712	5.56
1.62378	5.56
1.64045	5.55
1.65712	5.55
1.67378	5.54
1.69045	5.53
1.70712	5.51
1.72378	5.50
1.74045	5.49
1.75712	5.48
1.77378	5.47
1.79045	5.46
1.80712	5.45
1.82378	5.44
1.84045	5.43
1.85712	5.42
1.87378	5.41
1.89045	5.40
1.90712	5.39
1.92378	5.38
1.94045	5.37
1.95712	5.36
1.97378	5.35
1.99045	5.34
2.00712	5.33
2.02378	5.32
2.04045	5.31
2.05712	5.30
2.07378	5.29
2.09045	5.29
2.10712	5.27
2.12378	5.27
2.14045	5.26
2.15712	5.25
2.17378	5.24
2.19045	5.23
2.20712	5.22
2.22378	5.21
2.24045	5.20
2.25712	5.19
2.27378	5.18
2.29045	5.17
2.30712	5.16
2.32378	5.15
2.34045	5.14
2.35712	5.13
2.37378	5.13
2.39045	5.13
2.40712	5.13
2.42378	5.13
2.44045	5.13
2.45712	5.13
2.47378	5.13
2.49045	5.13
2.50712	5.13
2.52378	5.12
2.54045	5.13
2.55712	5.13
2.57378	5.12
2.59045	5.12
2.60712	5.12
2.62378	5.12
2.64045	5.12
2.65712	5.12
2.67378	5.12
2.69045	5.12
2.70712	5.12
2.72378	5.12
2.74045	5.12
2.75712	5.12
2.77378	5.12
2.79045	5.12
2.80712	5.12
2.82378	5.12
2.84045	5.12
2.85712	5.12
2.87378	5.12
2.89045	5.12
2.90712	5.12
2.92378	5.12
2.94045	5.12
2.95712	5.12
2.97378	5.12
2.99045	5.12
3.00712	5.12
3.02378	5.12
3.04045	5.12
3.05712	5.12
3.07378	5.12
3.09045	5.12
3.10712	5.12
3.12378	5.12
3.14045	5.12
3.15712	5.12
3.17378	5.12
3.19045	5.12
3.20712	5.12
3.22378	5.12
3.24045	5.12
3.25712	5.12
3.27378	5.12
3.29045	5.12
3.30712	5.12
3.32378	5.12
3.34045	5.12
3.35712	5.12
3.37378	5.12
3.39045	5.12
3.40712	5.12
3.42378	5.12
3.44045	5.12
3.45712	5.12
3.47378	5.12
3.49045	5.12
3.50712	5.12
3.52378	5.12
3.54045	5.12
3.55712	5.12
3.57378	5.12
3.59045	5.12
3.60712	5.12
3.62378	5.12
3.64045	5.12
3.65712	5.12
3.67378	5.12
3.69045	5.12
3.70712	5.12
3.72378	5.12
3.74045	5.12
3.75712	5.12
3.77378	5.12
3.79045	5.12
3.80712	5.12
3.82378	5.12
3.84045	5.12
3.85712	5.12
3.87378	5.12
3.89045	5.12
3.90712	5.12
3.92378	5.12
3.94045	5.12
3.95712	5.12
3.97378	5.12
3.99045	5.12

[Status Trace (Linear Velocity)]
Interval(msec)	1000
# of Points	240
Start Time(min)	0.007
End Time(min)	3.990
Intensity Units	
Intensity Multiplier	1
R.Time (min)	Intensity
0.00712	39.02
0.02378	37.34
0.04045	38.34
0.05712	39.78
0.07378	40.00
0.09045	39.09
0.10712	39.01
0.12378	39.03
0.14045	39.03
0.15712	39.03
0.17378	39.03
0.19045	39.03
0.20712	39.03
0.22378	39.03
0.24045	39.02
0.25712	39.03
0.27378	39.03
0.29045	39.02
0.30712	39.02
0.32378	39.02
0.34045	39.02
0.35712	39.02
0.37378	39.02
0.39045	39.02
0.40712	39.02
0.42378	39.02
0.44045	39.02
0.45712	39.03
0.47378	39.03
0.49045	39.03
0.50712	39.03
0.52378	39.03
0.54045	39.03
0.55712	39.03
0.57378	39.03
0.59045	39.03
0.60712	39.03
0.62378	39.03
0.64045	39.03
0.65712	39.03
0.67378	39.03
0.69045	39.03
0.70712	39.03
0.72378	39.03
0.74045	39.03
0.75712	39.03
0.77378	39.03
0.79045	39.03
0.80712	39.03
0.82378	39.03
0.84045	39.03
0.85712	39.03
0.87378	39.03
0.89045	39.03
0.90712	39.03
0.92378	39.03
0.94045	39.03
0.95712	39.03
0.97378	39.03
0.99045	39.03
1.00712	39.03
1.02378	39.03
1.04045	39.03
1.05712	39.03
1.07378	39.03
1.09045	39.03
1.10712	39.03
1.12378	39.03
1.14045	39.03
1.15712	39.03
1.17378	39.03
1.19045	39.03
1.20712	39.03
1.22378	39.03
1.24045	39.03
1.25712	39.03
1.27378	39.03
1.29045	39.03
1.30712	39.03
1.32378	39.03
1.34045	39.03
1.35712	39.03
1.37378	39.03
1.39045	39.03
1.40712	39.03
1.42378	39.03
1.44045	39.03
1.45712	39.03
1.47378	39.03
1.49045	39.03
1.50712	39.03
1.52378	39.03
1.54045	39.03
1.55712	39.03
1.57378	39.03
1.59045	39.03
1.60712	39.02
1.62378	39.01
1.64045	39.00
1.65712	38.97
1.67378	38.94
1.69045	38.91
1.70712	38.87
1.72378	38.84
1.74045	38.81
1.75712	38.77
1.77378	38.74
1.79045	38.71
1.80712	38.68
1.82378	38.65
1.84045	38.62
1.85712	38.59
1.87378	38.55
1.89045	38.53
1.90712	38.49
1.92378	38.46
1.94045	38.44
1.95712	38.40
1.97378	38.37
1.99045	38.35
2.00712	38.31
2.02378	38.28
2.04045	38.26
2.05712	38.22
2.07378	38.19
2.09045	38.17
2.10712	38.14
2.12378	38.11
2.14045	38.08
2.15712	38.05
2.17378	38.02
2.19045	37.99
2.20712	37.96
2.22378	37.93
2.24045	37.90
2.25712	37.87
2.27378	37.84
2.29045	37.81
2.30712	37.78
2.32378	37.75
2.34045	37.72
2.35712	37.69
2.37378	37.68
2.39045	37.67
2.40712	37.67
2.42378	37.67
2.44045	37.67
2.45712	37.67
2.47378	37.67
2.49045	37.67
2.50712	37.67
2.52378	37.66
2.54045	37.66
2.55712	37.67
2.57378	37.66
2.59045	37.66
2.60712	37.66
2.62378	37.66
2.64045	37.66
2.65712	37.66
2.67378	37.66
2.69045	37.65
2.70712	37.66
2.72378	37.66
2.74045	37.66
2.75712	37.65
2.77378	37.65
2.79045	37.66
2.80712	37.66
2.82378	37.65
2.84045	37.65
2.85712	37.65
2.87378	37.65
2.89045	37.65
2.90712	37.65
2.92378	37.65
2.94045	37.65
2.95712	37.65
2.97378	37.65
2.99045	37.65
3.00712	37.65
3.02378	37.65
3.04045	37.64
3.05712	37.64
3.07378	37.64
3.09045	37.64
3.10712	37.64
3.12378	37.64
3.14045	37.64
3.15712	37.64
3.17378	37.64
3.19045	37.64
3.20712	37.64
3.22378	37.64
3.24045	37.64
3.25712	37.64
3.27378	37.63
3.29045	37.63
3.30712	37.63
3.32378	37.63
3.34045	37.63
3.35712	37.63
3.37378	37.64
3.39045	37.64
3.40712	37.64
3.42378	37.64
3.44045	37.64
3.45712	37.64
3.47378	37.64
3.49045	37.64
3.50712	37.64
3.52378	37.64
3.54045	37.64
3.55712	37.64
3.57378	37.64
3.59045	37.64
3.60712	37.64
3.62378	37.64
3.64045	37.64
3.65712	37.64
3.67378	37.64
3.69045	37.64
3.70712	37.64
3.72378	37.64
3.74045	37.64
3.75712	37.64
3.77378	37.64
3.79045	37.64
3.80712	37.64
3.82378	37.64
3.84045	37.64
3.85712	37.64
3.87378	37.64
3.89045	37.64
3.90712	37.64
3.92378	37.64
3.94045	37.64
3.95712	37.64
3.97378	37.64
3.99045	37.64

