[Header]
Application Name	LabSolutions
Version	5.110
Data File Name	C:\Users\User\Desktop\GC Analyses\Jack\Nachusa Grasslands Sampling\T1 Timepoint July 12th\T1_07122022_074.gcd
Output Date	3/14/2023
Output Time	3:41:01 PM

[File Information]
Type	Data File
Generated	3/8/2023 9:29:33 PM
Generated by	System Administrator
Modified	3/8/2023 9:36:19 PM
Modified by	System Administrator

[Sample Information]
Operator Name	System Administrator
Acquired	3/8/2023 9:32:18 PM
Sample Type	0:Unknown
Level	0
Sample Name	074
Sample ID	074
ISTD Amount1	1
ISTD Amount2	1
ISTD Amount3	1
ISTD Amount4	1
ISTD Amount5	1
ISTD Amount6	1
ISTD Amount7	1
ISTD Amount8	1
ISTD Amount9	1
ISTD Amount10	1
ISTD Amount11	1
ISTD Amount12	1
ISTD Amount13	1
ISTD Amount14	1
ISTD Amount15	1
ISTD Amount16	1
ISTD Amount17	1
ISTD Amount18	1
ISTD Amount19	1
ISTD Amount20	1
ISTD Amount21	1
ISTD Amount22	1
ISTD Amount23	1
ISTD Amount24	1
ISTD Amount25	1
ISTD Amount26	1
ISTD Amount27	1
ISTD Amount28	1
ISTD Amount29	1
ISTD Amount30	1
ISTD Amount31	1
ISTD Amount32	1
Sample Amount	1
Dilution Factor	1
Vial#	73
Injection Volume	1
Injection Count	1
Bar Code	

[Original Files]
Data File	C:\Users\User\Desktop\GC Analyses\Jack\Nachusa Grasslands Sampling\T1 Timepoint July 12th\T1_07122022_074.gcd
Method File	C:\LabSolutions\Data\GHG_4min_2022\ghg3_togas_w_acet_4 min_new_int.gcm
Batch File	C:\LabSolutions\Data\AutoSamplerTesting\T1_07122022.gcb
Report Format File	c:\LabSolutions\System\DEFAULT.lsr

[File Description]


[Configuration]
Instrument Name	C0B7VH3-Instrument1
Instrument #	1
Line #	1
# of Detectors	3
Detector ID	DET#1	DET#2	DET#3
Detector Name	FID	PTCD	ECD
# of Channels	1	1	1

[Peak Table(Ch1)]
# of Peaks	3
Peak#	R.Time	I.Time	F.Time	Area	Height	A/H	Conc.	Mark	ID#	Name	k'	Plate #	Plate Ht.	Tailing	Resolution	Sep.Factor	Area Ratio	Height Ratio	Conc. %	Norm Conc.
1	1.476	1.435	1.538	28854	13609	2.120	203.712	   	1	CO	0.000	9078	16.523	1.320	0.000	0.000	0	0	26.267	26.267
2	1.567	1.538	1.641	5113	2441	2.094	98.872	 V 	2	CH4	0.062	10386	14.442	0.000	1.485	0.000	0	0	12.749	12.749
3	1.996	1.952	2.528	1884484	891790	2.113	472.954	   	3	CO2	0.353	17212	8.715	1.295	7.011	5.680	0	0	60.984	60.984

[Peak Table(Ch2)]
# of Peaks	0

[Peak Table(Ch3)]
# of Peaks	5
Peak#	R.Time	I.Time	F.Time	Area	Height	A/H	Conc.	Mark	ID#	Name	k'	Plate #	Plate Ht.	Tailing	Resolution	Sep.Factor	Area Ratio	Height Ratio	Conc. %	Norm Conc.
1	2.462	2.301	2.517	1956	533	3.669	0.000	   			0.000	9644	15.554	0.000	0.000	0.000	0	0	0.000	0.000
2	2.539	2.517	2.627	1014	266	3.820	0.000	 V 			0.031	5068	29.600	0.000	0.634	0.000	0	0	0.000	0.000
3	2.678	2.645	2.726	129	52	2.471	0.000	   			0.088	20950	7.160	1.158	1.286	2.810	0	0	0.000	0.000
4	2.873	2.799	3.034	19027	4933	3.857	0.486	   	1	N2O	0.167	13212	11.353	1.766	2.234	1.898	0	0	100.000	100.000
5	3.118	3.038	3.742	12064	493	24.470	0.000	   	2	SF6	0.267	403	372.000	4.391	0.681	1.598	0	0	0.000	0.000

[Compound Results(Ch1)]
# of IDs	6
ID#	Name	R.Time	Area	Height	Conc.	Curve	3rd	2nd	1st	Constant	Area Ratio	Height Ratio	Conc. %	Norm Conc.
1	CO	1.476	28854	13609	203.712	Linear	0.000000e+00	0.000000e+00	1.416423e+002	0.000000e+00	0	0	26.267	26.267
2	CH4	1.567	5113	2441	98.872	Linear	0.000000e+00	0.000000e+00	5.171738e+001	0.000000e+00	0	0	12.749	12.749
3	CO2	1.996	1884484	891790	472.954	Linear	0.000000e+00	0.000000e+00	3.984494e+003	0.000000e+00	0	0	60.984	60.984
4	Ethylene	0.000	0	0	0.000	Linear	0.000000e+00	0.000000e+00	0.000000e+00	0.000000e+00	0	0	0.000	0.000
5	Acetylene	0.000	0	0	0.000	Linear	0.000000e+00	0.000000e+00	0.000000e+00	0.000000e+00	0	0	0.000	0.000
6	Ethane	0.000	0	0	0.000	Linear	0.000000e+00	0.000000e+00	0.000000e+00	0.000000e+00	0	0	0.000	0.000

[Compound Results(Ch2)]
# of IDs	5
ID#	Name	R.Time	Area	Height	Conc.	Curve	3rd	2nd	1st	Constant	Area Ratio	Height Ratio	Conc. %	Norm Conc.
1	Hydrogen	0.000	0	0	0.000	Linear	0.000000e+00	0.000000e+00	0.000000e+00	0.000000e+00	0	0	0.000	0.000
2	Oxygen	0.000	0	0	0.000	Linear	0.000000e+00	0.000000e+00	0.000000e+00	0.000000e+00	0	0	0.000	0.000
3	Nitrogen	0.000	0	0	0.000	Linear	0.000000e+00	0.000000e+00	0.000000e+00	0.000000e+00	0	0	0.000	0.000
4	Methane	0.000	0	0	0.000	Linear	0.000000e+00	0.000000e+00	0.000000e+00	0.000000e+00	0	0	0.000	0.000
5	Carbon Monoxide	0.000	0	0	0.000	Linear	0.000000e+00	0.000000e+00	0.000000e+00	0.000000e+00	0	0	0.000	0.000

[Compound Results(Ch3)]
# of IDs	2
ID#	Name	R.Time	Area	Height	Conc.	Curve	3rd	2nd	1st	Constant	Area Ratio	Height Ratio	Conc. %	Norm Conc.
1	N2O	2.873	19027	4933	0.486	Linear	0.000000e+00	0.000000e+00	3.915173e+004	0.000000e+00	0	0	100.000	100.000
2	SF6	3.118	12064	493	0.000	Linear	0.000000e+00	0.000000e+00	0.000000e+00	0.000000e+00	0	0	0.000	0.000

[Group Results(Ch1)]
# of Groups	0

[Group Results(Ch2)]
# of Groups	0

[Group Results(Ch3)]
# of Groups	0

[Chromatogram (Ch1)]
Interval(msec)	220
# of Points	1091
Start Time(min)	0.002
End Time(min)	3.998
R.Time (min)	Intensity
0.00167	3
0.00533	-2
0.00900	-5
0.01267	-2
0.01633	-1
0.02000	-1
0.02367	3
0.02733	6
0.03100	9
0.03467	12
0.03833	12
0.04200	13
0.04567	19
0.04933	21
0.05300	15
0.05667	6
0.06033	-2
0.06400	-4
0.06767	-1
0.07133	2
0.07500	5
0.07867	13
0.08233	20
0.08600	20
0.08967	16
0.09333	12
0.09700	13
0.10067	17
0.10433	28
0.10800	39
0.11167	43
0.11533	40
0.11900	36
0.12267	32
0.12633	28
0.13000	23
0.13367	24
0.13733	25
0.14100	21
0.14467	13
0.14833	9
0.15200	12
0.15567	22
0.15933	37
0.16300	53
0.16667	62
0.17033	62
0.17400	58
0.17767	48
0.18133	37
0.18500	29
0.18867	26
0.19233	28
0.19600	34
0.19967	41
0.20333	45
0.20700	49
0.21067	50
0.21433	49
0.21800	49
0.22167	51
0.22533	52
0.22900	53
0.23267	54
0.23633	59
0.24000	63
0.24367	67
0.24733	68
0.25100	65
0.25467	59
0.25833	52
0.26200	49
0.26567	50
0.26933	53
0.27300	56
0.27667	59
0.28033	59
0.28400	55
0.28767	48
0.29133	39
0.29500	27
0.29867	16
0.30233	10
0.30600	8
0.30967	7
0.31333	8
0.31700	13
0.32067	19
0.32433	21
0.32800	19
0.33167	18
0.33533	20
0.33900	25
0.34267	31
0.34633	29
0.35000	25
0.35367	23
0.35733	24
0.36100	27
0.36467	31
0.36833	37
0.37200	45
0.37567	52
0.37933	50
0.38300	43
0.38667	36
0.39033	28
0.39400	18
0.39767	13
0.40133	12
0.40500	5
0.40867	-10
0.41233	-23
0.41600	-30
0.41967	-32
0.42333	-32
0.42700	-28
0.43067	-22
0.43433	-16
0.43800	-11
0.44167	-6
0.44533	-3
0.44900	0
0.45267	-2
0.45633	-6
0.46000	-9
0.46367	-7
0.46733	1
0.47100	10
0.47467	17
0.47833	23
0.48200	28
0.48567	31
0.48933	32
0.49300	36
0.49667	38
0.50033	38
0.50400	35
0.50767	34
0.51133	31
0.51500	29
0.51867	31
0.52233	34
0.52600	35
0.52967	32
0.53333	27
0.53700	19
0.54067	13
0.54433	10
0.54800	11
0.55167	12
0.55533	9
0.55900	8
0.56267	11
0.56633	15
0.57000	17
0.57367	14
0.57733	8
0.58100	3
0.58467	-2
0.58833	-4
0.59200	-0
0.59567	8
0.59933	19
0.60300	23
0.60667	21
0.61033	19
0.61400	25
0.61767	35
0.62133	44
0.62500	49
0.62867	50
0.63233	47
0.63600	41
0.63967	34
0.64333	27
0.64700	24
0.65067	27
0.65433	34
0.65800	41
0.66167	44
0.66533	44
0.66900	37
0.67267	27
0.67633	17
0.68000	11
0.68367	10
0.68733	10
0.69100	12
0.69467	17
0.69833	24
0.70200	37
0.70567	54
0.70933	67
0.71300	71
0.71667	59
0.72033	41
0.72400	23
0.72767	4
0.73133	-8
0.73500	-18
0.73867	-28
0.74233	-31
0.74600	-29
0.74967	-22
0.75333	-12
0.75700	-2
0.76067	5
0.76433	10
0.76800	14
0.77167	21
0.77533	29
0.77900	32
0.78267	29
0.78633	24
0.79000	21
0.79367	19
0.79733	18
0.80100	17
0.80467	15
0.80833	14
0.81200	14
0.81567	13
0.81933	12
0.82300	9
0.82667	12
0.83033	18
0.83400	16
0.83767	11
0.84133	6
0.84500	3
0.84867	6
0.85233	14
0.85600	18
0.85967	20
0.86333	19
0.86700	16
0.87067	16
0.87433	24
0.87800	42
0.88167	59
0.88533	70
0.88900	74
0.89267	75
0.89633	78
0.90000	82
0.90367	90
0.90733	91
0.91100	86
0.91467	81
0.91833	74
0.92200	68
0.92567	64
0.92933	61
0.93300	58
0.93667	56
0.94033	60
0.94400	69
0.94767	78
0.95133	89
0.95500	93
0.95867	85
0.96233	69
0.96600	53
0.96967	45
0.97333	47
0.97700	50
0.98067	51
0.98433	51
0.98800	53
0.99167	61
0.99533	72
0.99900	80
1.00267	84
1.00633	84
1.01000	82
1.01367	78
1.01733	74
1.02100	70
1.02467	67
1.02833	62
1.03200	56
1.03567	50
1.03933	44
1.04300	38
1.04667	34
1.05033	33
1.05400	34
1.05767	36
1.06133	36
1.06500	36
1.06867	39
1.07233	42
1.07600	45
1.07967	51
1.08333	56
1.08700	62
1.09067	69
1.09433	74
1.09800	74
1.10167	74
1.10533	73
1.10900	68
1.11267	60
1.11633	52
1.12000	47
1.12367	43
1.12733	40
1.13100	41
1.13467	47
1.13833	50
1.14200	46
1.14567	44
1.14933	45
1.15300	46
1.15667	49
1.16033	52
1.16400	60
1.16767	69
1.17133	78
1.17500	85
1.17867	90
1.18233	93
1.18600	90
1.18967	82
1.19333	67
1.19700	49
1.20067	34
1.20433	24
1.20800	18
1.21167	18
1.21533	21
1.21900	24
1.22267	26
1.22633	29
1.23000	31
1.23367	28
1.23733	27
1.24100	27
1.24467	28
1.24833	30
1.25200	30
1.25567	30
1.25933	32
1.26300	34
1.26667	35
1.27033	41
1.27400	45
1.27767	47
1.28133	50
1.28500	54
1.28867	57
1.29233	54
1.29600	48
1.29967	43
1.30333	42
1.30700	43
1.31067	44
1.31433	44
1.31800	39
1.32167	37
1.32533	39
1.32900	43
1.33267	47
1.33633	52
1.34000	53
1.34367	53
1.34733	51
1.35100	49
1.35467	48
1.35833	48
1.36200	49
1.36567	49
1.36933	48
1.37300	46
1.37667	40
1.38033	35
1.38400	36
1.38767	43
1.39133	52
1.39500	56
1.39867	55
1.40233	48
1.40600	39
1.40967	37
1.41333	41
1.41700	41
1.42067	33
1.42433	23
1.42800	16
1.43167	14
1.43533	20
1.43900	42
1.44267	134
1.44633	370
1.45000	932
1.45367	2227
1.45733	4389
1.46100	7002
1.46467	9509
1.46833	11554
1.47200	12970
1.47567	13635
1.47933	13425
1.48300	12342
1.48667	10597
1.49033	8553
1.49400	6565
1.49767	4866
1.50133	3531
1.50500	2539
1.50867	1828
1.51233	1332
1.51600	985
1.51967	740
1.52333	571
1.52700	454
1.53067	375
1.53433	321
1.53800	297
1.54167	341
1.54533	513
1.54900	841
1.55267	1269
1.55633	1700
1.56000	2068
1.56367	2337
1.56733	2483
1.57100	2466
1.57467	2270
1.57833	1934
1.58200	1539
1.58567	1162
1.58933	845
1.59300	603
1.59667	431
1.60033	311
1.60400	230
1.60767	175
1.61133	141
1.61500	123
1.61867	114
1.62233	109
1.62600	102
1.62967	89
1.63333	74
1.63700	61
1.64067	53
1.64433	52
1.64800	49
1.65167	47
1.65533	44
1.65900	41
1.66267	36
1.66633	36
1.67000	40
1.67367	48
1.67733	54
1.68100	54
1.68467	56
1.68833	59
1.69200	62
1.69567	64
1.69933	66
1.70300	66
1.70667	62
1.71033	57
1.71400	52
1.71767	43
1.72133	40
1.72500	42
1.72867	45
1.73233	49
1.73600	52
1.73967	52
1.74333	54
1.74700	57
1.75067	53
1.75433	42
1.75800	29
1.76167	22
1.76533	20
1.76900	21
1.77267	26
1.77633	31
1.78000	35
1.78367	38
1.78733	39
1.79100	40
1.79467	43
1.79833	45
1.80200	45
1.80567	43
1.80933	36
1.81300	31
1.81667	32
1.82033	36
1.82400	38
1.82767	37
1.83133	34
1.83500	29
1.83867	25
1.84233	21
1.84600	18
1.84967	13
1.85333	12
1.85700	18
1.86067	29
1.86433	39
1.86800	46
1.87167	51
1.87533	56
1.87900	60
1.88267	61
1.88633	59
1.89000	54
1.89367	47
1.89733	41
1.90100	40
1.90467	35
1.90833	32
1.91200	38
1.91567	44
1.91933	46
1.92300	49
1.92667	51
1.93033	54
1.93400	57
1.93767	62
1.94133	64
1.94500	64
1.94867	63
1.95233	78
1.95600	233
1.95967	1160
1.96333	5357
1.96700	19771
1.97067	57889
1.97433	136041
1.97800	261556
1.98167	422602
1.98533	592044
1.98900	740461
1.99267	845200
1.99633	891902
2.00000	875647
2.00367	802406
2.00733	688670
2.01100	556760
2.01467	427621
2.01833	315383
2.02200	225958
2.02567	159053
2.02933	111166
2.03300	77896
2.03667	55205
2.04033	39869
2.04400	29517
2.04767	22498
2.05133	17688
2.05500	14332
2.05867	11939
2.06233	10188
2.06600	8867
2.06967	7844
2.07333	7031
2.07700	6375
2.08067	5838
2.08433	5390
2.08800	5007
2.09167	4676
2.09533	4389
2.09900	4136
2.10267	3911
2.10633	3713
2.11000	3533
2.11367	3368
2.11733	3215
2.12100	3071
2.12467	2935
2.12833	2804
2.13200	2677
2.13567	2561
2.13933	2460
2.14300	2372
2.14667	2293
2.15033	2216
2.15400	2142
2.15767	2076
2.16133	2014
2.16500	1959
2.16867	1910
2.17233	1858
2.17600	1805
2.17967	1756
2.18333	1708
2.18700	1661
2.19067	1616
2.19433	1577
2.19800	1544
2.20167	1514
2.20533	1483
2.20900	1447
2.21267	1409
2.21633	1374
2.22000	1341
2.22367	1309
2.22733	1283
2.23100	1262
2.23467	1242
2.23833	1218
2.24200	1192
2.24567	1165
2.24933	1140
2.25300	1120
2.25667	1099
2.26033	1079
2.26400	1060
2.26767	1040
2.27133	1018
2.27500	1000
2.27867	984
2.28233	969
2.28600	956
2.28967	944
2.29333	930
2.29700	912
2.30067	895
2.30433	881
2.30800	874
2.31167	876
2.31533	878
2.31900	877
2.32267	869
2.32633	851
2.33000	827
2.33367	802
2.33733	783
2.34100	772
2.34467	767
2.34833	764
2.35200	755
2.35567	742
2.35933	729
2.36300	720
2.36667	712
2.37033	704
2.37400	699
2.37767	694
2.38133	689
2.38500	681
2.38867	675
2.39233	673
2.39600	669
2.39967	660
2.40333	646
2.40700	630
2.41067	619
2.41433	613
2.41800	615
2.42167	619
2.42533	623
2.42900	625
2.43267	621
2.43633	611
2.44000	596
2.44367	581
2.44733	571
2.45100	570
2.45467	570
2.45833	570
2.46200	570
2.46567	566
2.46933	561
2.47300	557
2.47667	554
2.48033	554
2.48400	553
2.48767	550
2.49133	545
2.49500	538
2.49867	530
2.50233	524
2.50600	520
2.50967	519
2.51333	518
2.51700	519
2.52067	523
2.52433	526
2.52800	523
2.53167	516
2.53533	508
2.53900	503
2.54267	501
2.54633	502
2.55000	504
2.55367	501
2.55733	499
2.56100	495
2.56467	485
2.56833	474
2.57200	466
2.57567	462
2.57933	460
2.58300	457
2.58667	451
2.59033	445
2.59400	443
2.59767	447
2.60133	456
2.60500	464
2.60867	466
2.61233	459
2.61600	448
2.61967	439
2.62333	431
2.62700	421
2.63067	410
2.63433	402
2.63800	396
2.64167	396
2.64533	399
2.64900	405
2.65267	414
2.65633	421
2.66000	424
2.66367	424
2.66733	422
2.67100	419
2.67467	415
2.67833	411
2.68200	405
2.68567	400
2.68933	399
2.69300	406
2.69667	413
2.70033	416
2.70400	413
2.70767	406
2.71133	400
2.71500	396
2.71867	395
2.72233	393
2.72600	394
2.72967	397
2.73333	396
2.73700	390
2.74067	380
2.74433	370
2.74800	358
2.75167	348
2.75533	343
2.75900	344
2.76267	349
2.76633	355
2.77000	363
2.77367	373
2.77733	385
2.78100	391
2.78467	390
2.78833	387
2.79200	381
2.79567	375
2.79933	371
2.80300	372
2.80667	376
2.81033	374
2.81400	367
2.81767	360
2.82133	355
2.82500	349
2.82867	343
2.83233	332
2.83600	316
2.83967	303
2.84333	299
2.84700	302
2.85067	310
2.85433	318
2.85800	324
2.86167	329
2.86533	332
2.86900	334
2.87267	334
2.87633	333
2.88000	335
2.88367	340
2.88733	343
2.89100	343
2.89467	341
2.89833	339
2.90200	339
2.90567	339
2.90933	342
2.91300	349
2.91667	352
2.92033	351
2.92400	350
2.92767	348
2.93133	347
2.93500	345
2.93867	341
2.94233	342
2.94600	343
2.94967	346
2.95333	347
2.95700	345
2.96067	338
2.96433	330
2.96800	326
2.97167	325
2.97533	327
2.97900	327
2.98267	325
2.98633	324
2.99000	328
2.99367	339
2.99733	347
3.00100	347
3.00467	340
3.00833	330
3.01200	319
3.01567	310
3.01933	304
3.02300	302
3.02667	301
3.03033	301
3.03400	301
3.03767	303
3.04133	305
3.04500	307
3.04867	311
3.05233	317
3.05600	323
3.05967	325
3.06333	320
3.06700	313
3.07067	307
3.07433	299
3.07800	293
3.08167	289
3.08533	288
3.08900	289
3.09267	290
3.09633	294
3.10000	302
3.10367	313
3.10733	325
3.11100	328
3.11467	323
3.11833	312
3.12200	302
3.12567	297
3.12933	289
3.13300	282
3.13667	279
3.14033	279
3.14400	280
3.14767	279
3.15133	276
3.15500	275
3.15867	274
3.16233	274
3.16600	275
3.16967	277
3.17333	281
3.17700	281
3.18067	279
3.18433	280
3.18800	280
3.19167	276
3.19533	275
3.19900	280
3.20267	283
3.20633	284
3.21000	287
3.21367	290
3.21733	289
3.22100	285
3.22467	280
3.22833	275
3.23200	273
3.23567	272
3.23933	272
3.24300	266
3.24667	259
3.25033	260
3.25400	266
3.25767	273
3.26133	275
3.26500	273
3.26867	273
3.27233	271
3.27600	267
3.27967	261
3.28333	254
3.28700	251
3.29067	255
3.29433	258
3.29800	258
3.30167	256
3.30533	258
3.30900	258
3.31267	260
3.31633	259
3.32000	252
3.32367	246
3.32733	244
3.33100	244
3.33467	244
3.33833	248
3.34200	256
3.34567	264
3.34933	271
3.35300	278
3.35667	287
3.36033	289
3.36400	285
3.36767	276
3.37133	266
3.37500	258
3.37867	249
3.38233	239
3.38600	236
3.38967	242
3.39333	249
3.39700	252
3.40067	251
3.40433	247
3.40800	241
3.41167	236
3.41533	230
3.41900	222
3.42267	215
3.42633	209
3.43000	208
3.43367	213
3.43733	219
3.44100	227
3.44467	231
3.44833	233
3.45200	231
3.45567	226
3.45933	222
3.46300	221
3.46667	222
3.47033	224
3.47400	225
3.47767	227
3.48133	232
3.48500	237
3.48867	238
3.49233	235
3.49600	233
3.49967	228
3.50333	222
3.50700	216
3.51067	210
3.51433	208
3.51800	212
3.52167	215
3.52533	215
3.52900	212
3.53267	210
3.53633	210
3.54000	205
3.54367	197
3.54733	193
3.55100	194
3.55467	195
3.55833	199
3.56200	202
3.56567	206
3.56933	211
3.57300	217
3.57667	224
3.58033	227
3.58400	226
3.58767	223
3.59133	219
3.59500	216
3.59867	219
3.60233	223
3.60600	224
3.60967	226
3.61333	228
3.61700	226
3.62067	223
3.62433	218
3.62800	215
3.63167	218
3.63533	219
3.63900	217
3.64267	210
3.64633	203
3.65000	195
3.65367	185
3.65733	176
3.66100	170
3.66467	167
3.66833	165
3.67200	170
3.67567	177
3.67933	186
3.68300	194
3.68667	201
3.69033	209
3.69400	215
3.69767	214
3.70133	213
3.70500	211
3.70867	209
3.71233	207
3.71600	204
3.71967	200
3.72333	194
3.72700	190
3.73067	188
3.73433	186
3.73800	188
3.74167	191
3.74533	193
3.74900	193
3.75267	193
3.75633	191
3.76000	192
3.76367	191
3.76733	187
3.77100	183
3.77467	180
3.77833	181
3.78200	185
3.78567	189
3.78933	189
3.79300	184
3.79667	182
3.80033	183
3.80400	186
3.80767	190
3.81133	190
3.81500	192
3.81867	193
3.82233	187
3.82600	178
3.82967	170
3.83333	164
3.83700	162
3.84067	163
3.84433	167
3.84800	171
3.85167	173
3.85533	175
3.85900	176
3.86267	179
3.86633	180
3.87000	179
3.87367	181
3.87733	183
3.88100	179
3.88467	171
3.88833	167
3.89200	163
3.89567	158
3.89933	153
3.90300	153
3.90667	154
3.91033	152
3.91400	149
3.91767	150
3.92133	154
3.92500	156
3.92867	156
3.93233	156
3.93600	158
3.93967	164
3.94333	170
3.94700	175
3.95067	173
3.95433	171
3.95800	172
3.96167	173
3.96533	173
3.96900	171
3.97267	166
3.97633	156
3.98000	147
3.98367	140
3.98733	138
3.99100	138
3.99467	140
3.99833	142

[Chromatogram (Ch2)]
Interval(msec)	220
# of Points	1091
Start Time(min)	0.002
End Time(min)	3.998
R.Time (min)	Intensity
0.00167	-0
0.00533	-0
0.00900	-0
0.01267	0
0.01633	1
0.02000	1
0.02367	1
0.02733	2
0.03100	2
0.03467	3
0.03833	3
0.04200	3
0.04567	3
0.04933	2
0.05300	2
0.05667	2
0.06033	2
0.06400	2
0.06767	2
0.07133	2
0.07500	3
0.07867	3
0.08233	3
0.08600	3
0.08967	3
0.09333	4
0.09700	4
0.10067	4
0.10433	4
0.10800	4
0.11167	4
0.11533	4
0.11900	4
0.12267	4
0.12633	4
0.13000	4
0.13367	3
0.13733	3
0.14100	2
0.14467	2
0.14833	2
0.15200	2
0.15567	1
0.15933	1
0.16300	1
0.16667	1
0.17033	0
0.17400	-0
0.17767	-0
0.18133	-1
0.18500	-1
0.18867	-1
0.19233	-1
0.19600	-1
0.19967	-1
0.20333	-1
0.20700	-1
0.21067	-1
0.21433	-1
0.21800	-1
0.22167	-1
0.22533	-1
0.22900	-1
0.23267	-0
0.23633	-0
0.24000	0
0.24367	0
0.24733	0
0.25100	0
0.25467	0
0.25833	1
0.26200	1
0.26567	1
0.26933	1
0.27300	1
0.27667	1
0.28033	0
0.28400	0
0.28767	0
0.29133	-0
0.29500	-0
0.29867	-1
0.30233	-1
0.30600	-1
0.30967	-1
0.31333	-1
0.31700	-0
0.32067	-0
0.32433	0
0.32800	0
0.33167	1
0.33533	1
0.33900	0
0.34267	1
0.34633	1
0.35000	1
0.35367	0
0.35733	-0
0.36100	-0
0.36467	-0
0.36833	-1
0.37200	-1
0.37567	-1
0.37933	-0
0.38300	-0
0.38667	0
0.39033	1
0.39400	1
0.39767	1
0.40133	2
0.40500	2
0.40867	2
0.41233	2
0.41600	2
0.41967	2
0.42333	2
0.42700	2
0.43067	2
0.43433	2
0.43800	3
0.44167	3
0.44533	3
0.44900	3
0.45267	3
0.45633	3
0.46000	3
0.46367	2
0.46733	2
0.47100	2
0.47467	2
0.47833	1
0.48200	1
0.48567	1
0.48933	0
0.49300	-0
0.49667	-1
0.50033	-1
0.50400	-1
0.50767	-1
0.51133	-1
0.51500	-1
0.51867	-1
0.52233	-1
0.52600	-1
0.52967	-1
0.53333	-1
0.53700	-1
0.54067	-1
0.54433	-0
0.54800	0
0.55167	0
0.55533	1
0.55900	1
0.56267	1
0.56633	1
0.57000	1
0.57367	1
0.57733	0
0.58100	0
0.58467	0
0.58833	0
0.59200	-0
0.59567	-1
0.59933	-1
0.60300	-1
0.60667	-1
0.61033	-0
0.61400	-0
0.61767	0
0.62133	0
0.62500	0
0.62867	0
0.63233	1
0.63600	1
0.63967	0
0.64333	0
0.64700	0
0.65067	-0
0.65433	0
0.65800	0
0.66167	0
0.66533	1
0.66900	1
0.67267	1
0.67633	1
0.68000	1
0.68367	1
0.68733	1
0.69100	1
0.69467	1
0.69833	0
0.70200	0
0.70567	-0
0.70933	-1
0.71300	-1
0.71667	-1
0.72033	-0
0.72400	-0
0.72767	-0
0.73133	-0
0.73500	-0
0.73867	-0
0.74233	-0
0.74600	-0
0.74967	-0
0.75333	-0
0.75700	-0
0.76067	-1
0.76433	-1
0.76800	-1
0.77167	-1
0.77533	-1
0.77900	-2
0.78267	-2
0.78633	-2
0.79000	-2
0.79367	-2
0.79733	-2
0.80100	-3
0.80467	-3
0.80833	-3
0.81200	-2
0.81567	-2
0.81933	-2
0.82300	-2
0.82667	-2
0.83033	-2
0.83400	-1
0.83767	-1
0.84133	-1
0.84500	-0
0.84867	0
0.85233	0
0.85600	1
0.85967	1
0.86333	1
0.86700	1
0.87067	0
0.87433	0
0.87800	-0
0.88167	-0
0.88533	-1
0.88900	-1
0.89267	-1
0.89633	-1
0.90000	-2
0.90367	-2
0.90733	-2
0.91100	-1
0.91467	-1
0.91833	-1
0.92200	-1
0.92567	-1
0.92933	-0
0.93300	-0
0.93667	0
0.94033	0
0.94400	-0
0.94767	-0
0.95133	-0
0.95500	-1
0.95867	-1
0.96233	-1
0.96600	-1
0.96967	-1
0.97333	-0
0.97700	-0
0.98067	-0
0.98433	-0
0.98800	-0
0.99167	-0
0.99533	-1
0.99900	-1
1.00267	-1
1.00633	-0
1.01000	-0
1.01367	0
1.01733	1
1.02100	1
1.02467	1
1.02833	2
1.03200	2
1.03567	2
1.03933	2
1.04300	2
1.04667	3
1.05033	3
1.05400	3
1.05767	3
1.06133	3
1.06500	2
1.06867	2
1.07233	1
1.07600	1
1.07967	1
1.08333	0
1.08700	-0
1.09067	-1
1.09433	-1
1.09800	-1
1.10167	-1
1.10533	-1
1.10900	-1
1.11267	-1
1.11633	-1
1.12000	-2
1.12367	-2
1.12733	-2
1.13100	-2
1.13467	-2
1.13833	-2
1.14200	-2
1.14567	-2
1.14933	-2
1.15300	-2
1.15667	-2
1.16033	-2
1.16400	-2
1.16767	-2
1.17133	-2
1.17500	-2
1.17867	-2
1.18233	-2
1.18600	-3
1.18967	-3
1.19333	-3
1.19700	-3
1.20067	-3
1.20433	-3
1.20800	-3
1.21167	-3
1.21533	-3
1.21900	-3
1.22267	-3
1.22633	-3
1.23000	-3
1.23367	-3
1.23733	-3
1.24100	-3
1.24467	-3
1.24833	-3
1.25200	-2
1.25567	-2
1.25933	-2
1.26300	-2
1.26667	-1
1.27033	-1
1.27400	-1
1.27767	-1
1.28133	-1
1.28500	-1
1.28867	-1
1.29233	-1
1.29600	-1
1.29967	-2
1.30333	-2
1.30700	-2
1.31067	-2
1.31433	-2
1.31800	-2
1.32167	-2
1.32533	-3
1.32900	-3
1.33267	-3
1.33633	-3
1.34000	-4
1.34367	-4
1.34733	-4
1.35100	-4
1.35467	-4
1.35833	-4
1.36200	-3
1.36567	-3
1.36933	-3
1.37300	-3
1.37667	-3
1.38033	-3
1.38400	-3
1.38767	-3
1.39133	-3
1.39500	-3
1.39867	-3
1.40233	-2
1.40600	-2
1.40967	-2
1.41333	-2
1.41700	-2
1.42067	-2
1.42433	-2
1.42800	-2
1.43167	-2
1.43533	-2
1.43900	-2
1.44267	-2
1.44633	-2
1.45000	-2
1.45367	-1
1.45733	-1
1.46100	-1
1.46467	-1
1.46833	-1
1.47200	-1
1.47567	-2
1.47933	-2
1.48300	-2
1.48667	-2
1.49033	-2
1.49400	-2
1.49767	-3
1.50133	-3
1.50500	-3
1.50867	-3
1.51233	-2
1.51600	-2
1.51967	-2
1.52333	-2
1.52700	-2
1.53067	-2
1.53433	-2
1.53800	-2
1.54167	-2
1.54533	-2
1.54900	-2
1.55267	-2
1.55633	-2
1.56000	-2
1.56367	-2
1.56733	-2
1.57100	-1
1.57467	-1
1.57833	-1
1.58200	-1
1.58567	-1
1.58933	-2
1.59300	-2
1.59667	-3
1.60033	-4
1.60400	-6
1.60767	-8
1.61133	-10
1.61500	-12
1.61867	-15
1.62233	-17
1.62600	-20
1.62967	-23
1.63333	-27
1.63700	-30
1.64067	-34
1.64433	-38
1.64800	-41
1.65167	-45
1.65533	-48
1.65900	-52
1.66267	-56
1.66633	-60
1.67000	-65
1.67367	-69
1.67733	-74
1.68100	-79
1.68467	-84
1.68833	-88
1.69200	-92
1.69567	-96
1.69933	-99
1.70300	-101
1.70667	-103
1.71033	-105
1.71400	-106
1.71767	-107
1.72133	-108
1.72500	-109
1.72867	-109
1.73233	-110
1.73600	-110
1.73967	-109
1.74333	-109
1.74700	-109
1.75067	-109
1.75433	-109
1.75800	-110
1.76167	-110
1.76533	-111
1.76900	-112
1.77267	-113
1.77633	-113
1.78000	-114
1.78367	-114
1.78733	-114
1.79100	-115
1.79467	-115
1.79833	-116
1.80200	-117
1.80567	-117
1.80933	-118
1.81300	-118
1.81667	-117
1.82033	-117
1.82400	-117
1.82767	-117
1.83133	-117
1.83500	-117
1.83867	-118
1.84233	-118
1.84600	-118
1.84967	-118
1.85333	-118
1.85700	-118
1.86067	-118
1.86433	-117
1.86800	-117
1.87167	-117
1.87533	-117
1.87900	-117
1.88267	-117
1.88633	-116
1.89000	-116
1.89367	-116
1.89733	-116
1.90100	-116
1.90467	-116
1.90833	-115
1.91200	-115
1.91567	-114
1.91933	-114
1.92300	-113
1.92667	-113
1.93033	-114
1.93400	-114
1.93767	-114
1.94133	-114
1.94500	-115
1.94867	-115
1.95233	-115
1.95600	-114
1.95967	-114
1.96333	-113
1.96700	-113
1.97067	-113
1.97433	-112
1.97800	-112
1.98167	-112
1.98533	-111
1.98900	-111
1.99267	-111
1.99633	-111
2.00000	-111
2.00367	-110
2.00733	-110
2.01100	-110
2.01467	-109
2.01833	-109
2.02200	-109
2.02567	-108
2.02933	-108
2.03300	-107
2.03667	-107
2.04033	-107
2.04400	-107
2.04767	-107
2.05133	-106
2.05500	-105
2.05867	-105
2.06233	-104
2.06600	-103
2.06967	-102
2.07333	-102
2.07700	-101
2.08067	-101
2.08433	-101
2.08800	-101
2.09167	-101
2.09533	-101
2.09900	-101
2.10267	-101
2.10633	-101
2.11000	-101
2.11367	-101
2.11733	-101
2.12100	-100
2.12467	-100
2.12833	-100
2.13200	-99
2.13567	-99
2.13933	-98
2.14300	-98
2.14667	-97
2.15033	-96
2.15400	-95
2.15767	-95
2.16133	-94
2.16500	-93
2.16867	-93
2.17233	-93
2.17600	-92
2.17967	-92
2.18333	-92
2.18700	-93
2.19067	-93
2.19433	-93
2.19800	-93
2.20167	-93
2.20533	-92
2.20900	-92
2.21267	-91
2.21633	-91
2.22000	-91
2.22367	-90
2.22733	-89
2.23100	-89
2.23467	-88
2.23833	-88
2.24200	-88
2.24567	-88
2.24933	-88
2.25300	-88
2.25667	-88
2.26033	-88
2.26400	-88
2.26767	-88
2.27133	-88
2.27500	-88
2.27867	-87
2.28233	-87
2.28600	-86
2.28967	-86
2.29333	-86
2.29700	-86
2.30067	-86
2.30433	-86
2.30800	-86
2.31167	-85
2.31533	-85
2.31900	-85
2.32267	-84
2.32633	-83
2.33000	-83
2.33367	-82
2.33733	-81
2.34100	-80
2.34467	-79
2.34833	-79
2.35200	-78
2.35567	-77
2.35933	-76
2.36300	-75
2.36667	-73
2.37033	-71
2.37400	-69
2.37767	-66
2.38133	-63
2.38500	-59
2.38867	-55
2.39233	-51
2.39600	-47
2.39967	-43
2.40333	-38
2.40700	-34
2.41067	-31
2.41433	-27
2.41800	-25
2.42167	-22
2.42533	-20
2.42900	-18
2.43267	-16
2.43633	-14
2.44000	-12
2.44367	-11
2.44733	-9
2.45100	-7
2.45467	-6
2.45833	-5
2.46200	-4
2.46567	-3
2.46933	-2
2.47300	-1
2.47667	0
2.48033	2
2.48400	3
2.48767	4
2.49133	4
2.49500	5
2.49867	5
2.50233	6
2.50600	6
2.50967	7
2.51333	7
2.51700	8
2.52067	9
2.52433	9
2.52800	10
2.53167	11
2.53533	12
2.53900	12
2.54267	13
2.54633	14
2.55000	15
2.55367	16
2.55733	16
2.56100	16
2.56467	15
2.56833	14
2.57200	14
2.57567	13
2.57933	13
2.58300	13
2.58667	13
2.59033	14
2.59400	14
2.59767	14
2.60133	15
2.60500	15
2.60867	16
2.61233	16
2.61600	17
2.61967	17
2.62333	17
2.62700	17
2.63067	17
2.63433	17
2.63800	17
2.64167	18
2.64533	18
2.64900	19
2.65267	19
2.65633	19
2.66000	19
2.66367	20
2.66733	20
2.67100	20
2.67467	20
2.67833	21
2.68200	21
2.68567	21
2.68933	21
2.69300	22
2.69667	23
2.70033	23
2.70400	24
2.70767	24
2.71133	24
2.71500	24
2.71867	24
2.72233	25
2.72600	24
2.72967	24
2.73333	24
2.73700	24
2.74067	25
2.74433	25
2.74800	25
2.75167	26
2.75533	26
2.75900	26
2.76267	25
2.76633	25
2.77000	25
2.77367	24
2.77733	24
2.78100	23
2.78467	23
2.78833	23
2.79200	23
2.79567	23
2.79933	24
2.80300	24
2.80667	24
2.81033	24
2.81400	25
2.81767	25
2.82133	26
2.82500	26
2.82867	27
2.83233	27
2.83600	26
2.83967	25
2.84333	22
2.84700	18
2.85067	11
2.85433	1
2.85800	-13
2.86167	-30
2.86533	-52
2.86900	-78
2.87267	-108
2.87633	-142
2.88000	-180
2.88367	-222
2.88733	-267
2.89100	-315
2.89467	-365
2.89833	-417
2.90200	-471
2.90567	-525
2.90933	-579
2.91300	-634
2.91667	-688
2.92033	-742
2.92400	-795
2.92767	-847
2.93133	-900
2.93500	-958
2.93867	-1018
2.94233	-1070
2.94600	-1104
2.94967	-1112
2.95333	-1094
2.95700	-1052
2.96067	-993
2.96433	-921
2.96800	-842
2.97167	-761
2.97533	-680
2.97900	-602
2.98267	-530
2.98633	-463
2.99000	-402
2.99367	-348
2.99733	-299
3.00100	-256
3.00467	-219
3.00833	-186
3.01200	-158
3.01567	-134
3.01933	-113
3.02300	-95
3.02667	-80
3.03033	-66
3.03400	-55
3.03767	-45
3.04133	-36
3.04500	-29
3.04867	-23
3.05233	-17
3.05600	-13
3.05967	-9
3.06333	-6
3.06700	-3
3.07067	-0
3.07433	2
3.07800	3
3.08167	5
3.08533	6
3.08900	7
3.09267	9
3.09633	10
3.10000	11
3.10367	11
3.10733	12
3.11100	13
3.11467	13
3.11833	13
3.12200	14
3.12567	14
3.12933	14
3.13300	14
3.13667	14
3.14033	14
3.14400	14
3.14767	15
3.15133	15
3.15500	15
3.15867	16
3.16233	16
3.16600	17
3.16967	17
3.17333	17
3.17700	18
3.18067	18
3.18433	18
3.18800	19
3.19167	19
3.19533	19
3.19900	19
3.20267	20
3.20633	20
3.21000	20
3.21367	20
3.21733	21
3.22100	21
3.22467	22
3.22833	22
3.23200	23
3.23567	23
3.23933	23
3.24300	24
3.24667	24
3.25033	24
3.25400	25
3.25767	25
3.26133	25
3.26500	25
3.26867	26
3.27233	26
3.27600	26
3.27967	26
3.28333	26
3.28700	26
3.29067	26
3.29433	26
3.29800	26
3.30167	26
3.30533	26
3.30900	26
3.31267	26
3.31633	26
3.32000	26
3.32367	26
3.32733	26
3.33100	26
3.33467	26
3.33833	26
3.34200	26
3.34567	27
3.34933	27
3.35300	27
3.35667	27
3.36033	27
3.36400	27
3.36767	27
3.37133	26
3.37500	26
3.37867	26
3.38233	26
3.38600	26
3.38967	26
3.39333	26
3.39700	26
3.40067	26
3.40433	26
3.40800	26
3.41167	26
3.41533	27
3.41900	27
3.42267	26
3.42633	26
3.43000	26
3.43367	26
3.43733	26
3.44100	27
3.44467	27
3.44833	27
3.45200	27
3.45567	27
3.45933	27
3.46300	27
3.46667	27
3.47033	27
3.47400	27
3.47767	27
3.48133	27
3.48500	27
3.48867	27
3.49233	27
3.49600	26
3.49967	26
3.50333	26
3.50700	26
3.51067	26
3.51433	26
3.51800	26
3.52167	26
3.52533	26
3.52900	26
3.53267	26
3.53633	26
3.54000	26
3.54367	26
3.54733	26
3.55100	26
3.55467	26
3.55833	26
3.56200	26
3.56567	26
3.56933	26
3.57300	27
3.57667	27
3.58033	27
3.58400	27
3.58767	27
3.59133	27
3.59500	27
3.59867	27
3.60233	27
3.60600	27
3.60967	27
3.61333	27
3.61700	27
3.62067	27
3.62433	27
3.62800	27
3.63167	27
3.63533	27
3.63900	27
3.64267	26
3.64633	26
3.65000	26
3.65367	26
3.65733	26
3.66100	26
3.66467	26
3.66833	26
3.67200	25
3.67567	25
3.67933	25
3.68300	25
3.68667	25
3.69033	25
3.69400	26
3.69767	26
3.70133	26
3.70500	26
3.70867	26
3.71233	26
3.71600	26
3.71967	26
3.72333	26
3.72700	27
3.73067	27
3.73433	28
3.73800	28
3.74167	28
3.74533	29
3.74900	29
3.75267	29
3.75633	29
3.76000	29
3.76367	29
3.76733	29
3.77100	29
3.77467	29
3.77833	29
3.78200	29
3.78567	29
3.78933	28
3.79300	28
3.79667	28
3.80033	27
3.80400	27
3.80767	27
3.81133	27
3.81500	27
3.81867	27
3.82233	27
3.82600	27
3.82967	26
3.83333	26
3.83700	26
3.84067	26
3.84433	26
3.84800	26
3.85167	26
3.85533	27
3.85900	27
3.86267	27
3.86633	27
3.87000	27
3.87367	27
3.87733	27
3.88100	27
3.88467	27
3.88833	27
3.89200	27
3.89567	27
3.89933	27
3.90300	27
3.90667	27
3.91033	27
3.91400	27
3.91767	27
3.92133	27
3.92500	27
3.92867	27
3.93233	27
3.93600	27
3.93967	27
3.94333	27
3.94700	27
3.95067	27
3.95433	27
3.95800	27
3.96167	27
3.96533	27
3.96900	27
3.97267	27
3.97633	27
3.98000	27
3.98367	28
3.98733	28
3.99100	28
3.99467	28
3.99833	27

[Chromatogram (Ch3)]
Interval(msec)	220
# of Points	1091
Start Time(min)	0.002
End Time(min)	3.998
R.Time (min)	Intensity
0.00167	0
0.00533	-1
0.00900	-3
0.01267	-4
0.01633	-6
0.02000	-7
0.02367	-6
0.02733	-8
0.03100	-6
0.03467	-5
0.03833	-5
0.04200	-6
0.04567	-7
0.04933	-6
0.05300	-8
0.05667	-9
0.06033	-11
0.06400	-11
0.06767	-12
0.07133	-13
0.07500	-13
0.07867	-11
0.08233	-10
0.08600	-9
0.08967	-9
0.09333	-9
0.09700	-10
0.10067	-10
0.10433	-11
0.10800	-9
0.11167	-7
0.11533	-8
0.11900	-10
0.12267	-10
0.12633	-10
0.13000	-8
0.13367	-8
0.13733	-7
0.14100	-6
0.14467	-7
0.14833	-8
0.15200	-10
0.15567	-11
0.15933	-12
0.16300	-13
0.16667	-15
0.17033	-16
0.17400	-15
0.17767	-13
0.18133	-13
0.18500	-13
0.18867	-13
0.19233	-15
0.19600	-16
0.19967	-17
0.20333	-18
0.20700	-18
0.21067	-18
0.21433	-16
0.21800	-16
0.22167	-19
0.22533	-19
0.22900	-19
0.23267	-17
0.23633	-14
0.24000	-13
0.24367	-11
0.24733	-12
0.25100	-14
0.25467	-14
0.25833	-14
0.26200	-14
0.26567	-11
0.26933	-11
0.27300	-13
0.27667	-13
0.28033	-11
0.28400	-10
0.28767	-10
0.29133	-13
0.29500	-16
0.29867	-17
0.30233	-18
0.30600	-18
0.30967	-17
0.31333	-17
0.31700	-18
0.32067	-17
0.32433	-16
0.32800	-14
0.33167	-13
0.33533	-13
0.33900	-13
0.34267	-14
0.34633	-14
0.35000	-13
0.35367	-13
0.35733	-12
0.36100	-12
0.36467	-10
0.36833	-9
0.37200	-9
0.37567	-11
0.37933	-14
0.38300	-14
0.38667	-14
0.39033	-13
0.39400	-12
0.39767	-11
0.40133	-10
0.40500	-10
0.40867	-9
0.41233	-9
0.41600	-9
0.41967	-8
0.42333	-9
0.42700	-9
0.43067	-9
0.43433	-10
0.43800	-11
0.44167	-11
0.44533	-11
0.44900	-11
0.45267	-10
0.45633	-11
0.46000	-10
0.46367	-9
0.46733	-10
0.47100	-10
0.47467	-10
0.47833	-9
0.48200	-10
0.48567	-8
0.48933	-7
0.49300	-8
0.49667	-9
0.50033	-10
0.50400	-12
0.50767	-12
0.51133	-12
0.51500	-14
0.51867	-14
0.52233	-13
0.52600	-12
0.52967	-11
0.53333	-10
0.53700	-10
0.54067	-11
0.54433	-11
0.54800	-10
0.55167	-9
0.55533	-8
0.55900	-7
0.56267	-8
0.56633	-9
0.57000	-10
0.57367	-9
0.57733	-8
0.58100	-10
0.58467	-13
0.58833	-15
0.59200	-15
0.59567	-13
0.59933	-12
0.60300	-13
0.60667	-13
0.61033	-13
0.61400	-14
0.61767	-16
0.62133	-15
0.62500	-14
0.62867	-14
0.63233	-14
0.63600	-14
0.63967	-13
0.64333	-13
0.64700	-10
0.65067	-8
0.65433	-7
0.65800	-7
0.66167	-8
0.66533	-9
0.66900	-10
0.67267	-11
0.67633	-13
0.68000	-14
0.68367	-14
0.68733	-11
0.69100	-10
0.69467	-10
0.69833	-9
0.70200	-6
0.70567	-5
0.70933	-6
0.71300	-4
0.71667	-4
0.72033	-5
0.72400	-6
0.72767	-7
0.73133	-7
0.73500	-5
0.73867	-3
0.74233	-3
0.74600	-2
0.74967	-1
0.75333	-2
0.75700	-1
0.76067	1
0.76433	2
0.76800	-1
0.77167	-2
0.77533	-1
0.77900	-2
0.78267	-3
0.78633	-2
0.79000	-1
0.79367	-1
0.79733	-1
0.80100	-1
0.80467	-0
0.80833	-2
0.81200	-2
0.81567	-3
0.81933	-6
0.82300	-10
0.82667	-12
0.83033	-13
0.83400	-11
0.83767	-8
0.84133	-7
0.84500	-9
0.84867	-8
0.85233	-7
0.85600	-6
0.85967	-4
0.86333	-3
0.86700	-2
0.87067	0
0.87433	1
0.87800	1
0.88167	-1
0.88533	0
0.88900	1
0.89267	-1
0.89633	-3
0.90000	-3
0.90367	-4
0.90733	-3
0.91100	-1
0.91467	1
0.91833	3
0.92200	4
0.92567	4
0.92933	2
0.93300	4
0.93667	4
0.94033	4
0.94400	4
0.94767	5
0.95133	7
0.95500	7
0.95867	7
0.96233	7
0.96600	6
0.96967	5
0.97333	5
0.97700	5
0.98067	6
0.98433	8
0.98800	7
0.99167	4
0.99533	5
0.99900	3
1.00267	1
1.00633	1
1.01000	-1
1.01367	-1
1.01733	0
1.02100	2
1.02467	2
1.02833	2
1.03200	3
1.03567	3
1.03933	4
1.04300	3
1.04667	4
1.05033	5
1.05400	4
1.05767	7
1.06133	10
1.06500	11
1.06867	11
1.07233	12
1.07600	11
1.07967	10
1.08333	10
1.08700	11
1.09067	9
1.09433	7
1.09800	8
1.10167	13
1.10533	17
1.10900	16
1.11267	13
1.11633	12
1.12000	13
1.12367	12
1.12733	12
1.13100	13
1.13467	14
1.13833	13
1.14200	12
1.14567	10
1.14933	9
1.15300	8
1.15667	7
1.16033	7
1.16400	6
1.16767	8
1.17133	9
1.17500	11
1.17867	12
1.18233	13
1.18600	13
1.18967	13
1.19333	14
1.19700	12
1.20067	12
1.20433	13
1.20800	12
1.21167	11
1.21533	10
1.21900	10
1.22267	11
1.22633	10
1.23000	10
1.23367	13
1.23733	15
1.24100	17
1.24467	18
1.24833	20
1.25200	20
1.25567	21
1.25933	21
1.26300	21
1.26667	21
1.27033	19
1.27400	18
1.27767	18
1.28133	19
1.28500	20
1.28867	20
1.29233	19
1.29600	21
1.29967	21
1.30333	20
1.30700	18
1.31067	16
1.31433	15
1.31800	16
1.32167	17
1.32533	17
1.32900	17
1.33267	18
1.33633	19
1.34000	20
1.34367	23
1.34733	23
1.35100	22
1.35467	20
1.35833	18
1.36200	18
1.36567	21
1.36933	23
1.37300	25
1.37667	29
1.38033	31
1.38400	32
1.38767	32
1.39133	31
1.39500	30
1.39867	30
1.40233	28
1.40600	26
1.40967	25
1.41333	23
1.41700	23
1.42067	23
1.42433	25
1.42800	28
1.43167	29
1.43533	29
1.43900	30
1.44267	31
1.44633	29
1.45000	27
1.45367	25
1.45733	23
1.46100	22
1.46467	24
1.46833	27
1.47200	28
1.47567	29
1.47933	28
1.48300	28
1.48667	29
1.49033	28
1.49400	25
1.49767	24
1.50133	27
1.50500	29
1.50867	29
1.51233	29
1.51600	30
1.51967	30
1.52333	29
1.52700	29
1.53067	31
1.53433	33
1.53800	31
1.54167	31
1.54533	30
1.54900	28
1.55267	26
1.55633	26
1.56000	27
1.56367	26
1.56733	26
1.57100	28
1.57467	29
1.57833	29
1.58200	29
1.58567	26
1.58933	26
1.59300	27
1.59667	30
1.60033	31
1.60400	30
1.60767	29
1.61133	27
1.61500	25
1.61867	23
1.62233	24
1.62600	27
1.62967	29
1.63333	31
1.63700	31
1.64067	30
1.64433	31
1.64800	34
1.65167	35
1.65533	34
1.65900	34
1.66267	34
1.66633	34
1.67000	36
1.67367	39
1.67733	42
1.68100	42
1.68467	40
1.68833	41
1.69200	40
1.69567	40
1.69933	40
1.70300	40
1.70667	38
1.71033	38
1.71400	42
1.71767	43
1.72133	43
1.72500	43
1.72867	42
1.73233	43
1.73600	44
1.73967	44
1.74333	44
1.74700	43
1.75067	42
1.75433	42
1.75800	41
1.76167	42
1.76533	42
1.76900	43
1.77267	42
1.77633	43
1.78000	45
1.78367	46
1.78733	45
1.79100	45
1.79467	47
1.79833	50
1.80200	52
1.80567	53
1.80933	54
1.81300	53
1.81667	54
1.82033	55
1.82400	56
1.82767	57
1.83133	58
1.83500	61
1.83867	62
1.84233	63
1.84600	65
1.84967	67
1.85333	68
1.85700	66
1.86067	65
1.86433	66
1.86800	68
1.87167	69
1.87533	69
1.87900	68
1.88267	68
1.88633	67
1.89000	68
1.89367	70
1.89733	73
1.90100	76
1.90467	77
1.90833	80
1.91200	81
1.91567	83
1.91933	82
1.92300	82
1.92667	84
1.93033	85
1.93400	87
1.93767	87
1.94133	90
1.94500	91
1.94867	89
1.95233	88
1.95600	91
1.95967	93
1.96333	94
1.96700	94
1.97067	96
1.97433	97
1.97800	97
1.98167	97
1.98533	96
1.98900	95
1.99267	95
1.99633	94
2.00000	94
2.00367	95
2.00733	97
2.01100	99
2.01467	102
2.01833	105
2.02200	106
2.02567	105
2.02933	104
2.03300	104
2.03667	105
2.04033	104
2.04400	104
2.04767	103
2.05133	104
2.05500	104
2.05867	106
2.06233	108
2.06600	109
2.06967	113
2.07333	116
2.07700	118
2.08067	119
2.08433	119
2.08800	118
2.09167	117
2.09533	116
2.09900	115
2.10267	116
2.10633	118
2.11000	118
2.11367	120
2.11733	119
2.12100	118
2.12467	118
2.12833	120
2.13200	123
2.13567	125
2.13933	126
2.14300	125
2.14667	125
2.15033	126
2.15400	127
2.15767	129
2.16133	130
2.16500	131
2.16867	132
2.17233	133
2.17600	136
2.17967	137
2.18333	139
2.18700	140
2.19067	141
2.19433	141
2.19800	142
2.20167	144
2.20533	147
2.20900	149
2.21267	149
2.21633	149
2.22000	150
2.22367	152
2.22733	155
2.23100	158
2.23467	163
2.23833	165
2.24200	166
2.24567	164
2.24933	162
2.25300	163
2.25667	166
2.26033	168
2.26400	171
2.26767	173
2.27133	177
2.27500	178
2.27867	178
2.28233	179
2.28600	181
2.28967	184
2.29333	186
2.29700	184
2.30067	184
2.30433	186
2.30800	189
2.31167	189
2.31533	190
2.31900	193
2.32267	196
2.32633	197
2.33000	199
2.33367	202
2.33733	203
2.34100	202
2.34467	203
2.34833	205
2.35200	205
2.35567	205
2.35933	207
2.36300	210
2.36667	212
2.37033	215
2.37400	217
2.37767	218
2.38133	218
2.38500	218
2.38867	217
2.39233	218
2.39600	220
2.39967	221
2.40333	226
2.40700	233
2.41067	237
2.41433	240
2.41800	243
2.42167	244
2.42533	244
2.42900	243
2.43267	245
2.43633	246
2.44000	250
2.44367	290
2.44733	399
2.45100	519
2.45467	616
2.45833	674
2.46200	676
2.46567	639
2.46933	594
2.47300	561
2.47667	542
2.48033	530
2.48400	514
2.48767	488
2.49133	450
2.49500	412
2.49867	381
2.50233	358
2.50600	342
2.50967	333
2.51333	329
2.51700	328
2.52067	335
2.52433	348
2.52800	362
2.53167	375
2.53533	385
2.53900	388
2.54267	383
2.54633	370
2.55000	353
2.55367	334
2.55733	316
2.56100	297
2.56467	281
2.56833	269
2.57200	256
2.57567	248
2.57933	243
2.58300	239
2.58667	236
2.59033	232
2.59400	228
2.59767	222
2.60133	211
2.60500	196
2.60867	179
2.61233	161
2.61600	144
2.61967	126
2.62333	111
2.62700	100
2.63067	95
2.63433	94
2.63800	94
2.64167	98
2.64533	105
2.64900	113
2.65267	122
2.65633	129
2.66000	135
2.66367	142
2.66733	150
2.67100	157
2.67467	162
2.67833	165
2.68200	165
2.68567	162
2.68933	160
2.69300	155
2.69667	149
2.70033	143
2.70400	137
2.70767	132
2.71133	130
2.71500	127
2.71867	125
2.72233	123
2.72600	123
2.72967	123
2.73333	123
2.73700	125
2.74067	124
2.74433	125
2.74800	125
2.75167	128
2.75533	130
2.75900	131
2.76267	132
2.76633	132
2.77000	134
2.77367	139
2.77733	144
2.78100	143
2.78467	141
2.78833	140
2.79200	139
2.79567	138
2.79933	138
2.80300	139
2.80667	138
2.81033	136
2.81400	138
2.81767	147
2.82133	168
2.82500	211
2.82867	294
2.83233	440
2.83600	673
2.83967	1008
2.84333	1445
2.84700	1975
2.85067	2569
2.85433	3182
2.85800	3768
2.86167	4280
2.86533	4677
2.86900	4934
2.87267	5044
2.87633	5013
2.88000	4864
2.88367	4621
2.88733	4315
2.89100	3974
2.89467	3618
2.89833	3262
2.90200	2918
2.90567	2599
2.90933	2310
2.91300	2047
2.91667	1810
2.92033	1600
2.92400	1416
2.92767	1255
2.93133	1112
2.93500	989
2.93867	882
2.94233	788
2.94600	707
2.94967	639
2.95333	578
2.95700	523
2.96067	474
2.96433	431
2.96800	395
2.97167	364
2.97533	339
2.97900	318
2.98267	300
2.98633	281
2.99000	262
2.99367	248
2.99733	235
3.00100	222
3.00467	211
3.00833	202
3.01200	194
3.01567	185
3.01933	179
3.02300	162
3.02667	124
3.03033	78
3.03400	50
3.03767	52
3.04133	75
3.04500	109
3.04867	151
3.05233	197
3.05600	243
3.05967	287
3.06333	331
3.06700	371
3.07067	410
3.07433	445
3.07800	475
3.08167	499
3.08533	520
3.08900	537
3.09267	552
3.09633	563
3.10000	571
3.10367	579
3.10733	584
3.11100	590
3.11467	596
3.11833	599
3.12200	601
3.12567	600
3.12933	599
3.13300	598
3.13667	601
3.14033	605
3.14400	608
3.14767	610
3.15133	611
3.15500	611
3.15867	611
3.16233	611
3.16600	611
3.16967	611
3.17333	610
3.17700	611
3.18067	612
3.18433	612
3.18800	613
3.19167	614
3.19533	618
3.19900	621
3.20267	623
3.20633	621
3.21000	621
3.21367	624
3.21733	627
3.22100	627
3.22467	627
3.22833	627
3.23200	628
3.23567	631
3.23933	634
3.24300	639
3.24667	641
3.25033	643
3.25400	644
3.25767	645
3.26133	646
3.26500	648
3.26867	650
3.27233	651
3.27600	655
3.27967	657
3.28333	658
3.28700	657
3.29067	658
3.29433	660
3.29800	661
3.30167	663
3.30533	663
3.30900	662
3.31267	660
3.31633	657
3.32000	656
3.32367	657
3.32733	657
3.33100	654
3.33467	652
3.33833	650
3.34200	647
3.34567	646
3.34933	646
3.35300	646
3.35667	646
3.36033	644
3.36400	643
3.36767	640
3.37133	639
3.37500	637
3.37867	636
3.38233	636
3.38600	637
3.38967	635
3.39333	633
3.39700	632
3.40067	631
3.40433	630
3.40800	627
3.41167	627
3.41533	626
3.41900	625
3.42267	624
3.42633	621
3.43000	617
3.43367	613
3.43733	612
3.44100	612
3.44467	609
3.44833	606
3.45200	602
3.45567	597
3.45933	595
3.46300	593
3.46667	591
3.47033	590
3.47400	589
3.47767	587
3.48133	584
3.48500	580
3.48867	575
3.49233	573
3.49600	571
3.49967	567
3.50333	564
3.50700	562
3.51067	562
3.51433	561
3.51800	558
3.52167	554
3.52533	555
3.52900	556
3.53267	556
3.53633	554
3.54000	554
3.54367	555
3.54733	553
3.55100	552
3.55467	551
3.55833	550
3.56200	548
3.56567	547
3.56933	547
3.57300	546
3.57667	542
3.58033	538
3.58400	538
3.58767	540
3.59133	542
3.59500	543
3.59867	542
3.60233	541
3.60600	541
3.60967	541
3.61333	543
3.61700	542
3.62067	542
3.62433	542
3.62800	542
3.63167	543
3.63533	543
3.63900	541
3.64267	537
3.64633	534
3.65000	533
3.65367	532
3.65733	532
3.66100	531
3.66467	531
3.66833	532
3.67200	532
3.67567	530
3.67933	528
3.68300	526
3.68667	525
3.69033	524
3.69400	522
3.69767	521
3.70133	523
3.70500	525
3.70867	528
3.71233	526
3.71600	524
3.71967	522
3.72333	520
3.72700	520
3.73067	520
3.73433	521
3.73800	521
3.74167	519
3.74533	519
3.74900	519
3.75267	519
3.75633	519
3.76000	517
3.76367	517
3.76733	517
3.77100	519
3.77467	521
3.77833	521
3.78200	521
3.78567	521
3.78933	519
3.79300	519
3.79667	520
3.80033	520
3.80400	517
3.80767	515
3.81133	512
3.81500	511
3.81867	510
3.82233	510
3.82600	510
3.82967	508
3.83333	505
3.83700	504
3.84067	505
3.84433	504
3.84800	504
3.85167	505
3.85533	505
3.85900	504
3.86267	503
3.86633	500
3.87000	498
3.87367	496
3.87733	494
3.88100	492
3.88467	490
3.88833	488
3.89200	487
3.89567	485
3.89933	486
3.90300	487
3.90667	487
3.91033	490
3.91400	490
3.91767	485
3.92133	481
3.92500	479
3.92867	478
3.93233	476
3.93600	476
3.93967	475
3.94333	475
3.94700	473
3.95067	472
3.95433	469
3.95800	468
3.96167	467
3.96533	467
3.96900	465
3.97267	462
3.97633	461
3.98000	460
3.98367	459
3.98733	458
3.99100	456
3.99467	454
3.99833	450

[Status Trace (Column Oven Temperature)]
Interval(msec)	1000
# of Points	240
Start Time(min)	0.001
End Time(min)	3.984
Intensity Units	
Intensity Multiplier	1
R.Time (min)	Intensity
0.00062	35.05
0.01728	35.05
0.03395	35.04
0.05062	35.04
0.06728	35.02
0.08395	35.02
0.10062	35.01
0.11728	35.02
0.13395	35.03
0.15062	35.03
0.16728	35.03
0.18395	35.04
0.20062	35.04
0.21728	35.05
0.23395	35.05
0.25062	35.04
0.26728	35.04
0.28395	35.04
0.30062	35.04
0.31728	35.04
0.33395	35.04
0.35062	35.04
0.36728	35.04
0.38395	35.04
0.40062	35.03
0.41728	35.01
0.43395	35.01
0.45062	35.00
0.46728	35.01
0.48395	35.01
0.50062	35.01
0.51728	35.01
0.53395	35.01
0.55062	35.01
0.56728	35.01
0.58395	35.02
0.60062	35.02
0.61728	35.00
0.63395	35.01
0.65062	35.02
0.66728	35.01
0.68395	35.00
0.70062	35.00
0.71728	35.00
0.73395	35.00
0.75062	35.00
0.76728	35.01
0.78395	35.02
0.80062	35.02
0.81728	35.02
0.83395	35.01
0.85062	35.01
0.86728	35.01
0.88395	35.01
0.90062	35.02
0.91728	35.02
0.93395	35.03
0.95062	35.03
0.96728	35.03
0.98395	35.03
1.00062	35.02
1.01728	34.99
1.03395	34.98
1.05062	34.97
1.06728	34.97
1.08395	34.97
1.10062	34.98
1.11728	34.98
1.13395	34.98
1.15062	34.98
1.16728	34.99
1.18395	34.99
1.20062	35.00
1.21728	35.01
1.23395	35.00
1.25062	35.00
1.26728	34.99
1.28395	34.99
1.30062	34.98
1.31728	34.99
1.33395	34.99
1.35062	35.00
1.36728	35.00
1.38395	35.01
1.40062	35.00
1.41728	35.00
1.43395	34.99
1.45062	34.98
1.46728	34.98
1.48395	34.98
1.50062	34.98
1.51728	34.98
1.53395	34.98
1.55062	34.98
1.56728	34.97
1.58395	34.97
1.60062	35.01
1.61728	35.11
1.63395	35.28
1.65062	35.51
1.66728	35.81
1.68395	36.19
1.70062	36.54
1.71728	36.89
1.73395	37.20
1.75062	37.52
1.76728	37.87
1.78395	38.19
1.80062	38.54
1.81728	38.86
1.83395	39.20
1.85062	39.52
1.86728	39.85
1.88395	40.19
1.90062	40.52
1.91728	40.83
1.93395	41.16
1.95062	41.49
1.96728	41.81
1.98395	42.13
2.00062	42.46
2.01728	42.78
2.03395	43.12
2.05062	43.45
2.06728	43.74
2.08395	44.08
2.10062	44.40
2.11728	44.73
2.13395	45.06
2.15062	45.38
2.16728	45.69
2.18395	46.04
2.20062	46.36
2.21728	46.71
2.23395	47.03
2.25062	47.37
2.26728	47.70
2.28395	48.02
2.30062	48.37
2.31728	48.70
2.33395	49.01
2.35062	49.31
2.36728	49.55
2.38395	49.65
2.40062	49.66
2.41728	49.67
2.43395	49.67
2.45062	49.68
2.46728	49.69
2.48395	49.69
2.50062	49.71
2.51728	49.72
2.53395	49.74
2.55062	49.73
2.56728	49.79
2.58395	49.80
2.60062	49.81
2.61728	49.81
2.63395	49.82
2.65062	49.83
2.66728	49.84
2.68395	49.85
2.70062	49.84
2.71728	49.86
2.73395	49.85
2.75062	49.84
2.76728	49.86
2.78395	49.89
2.80062	49.90
2.81728	49.89
2.83395	49.88
2.85062	49.86
2.86728	49.85
2.88395	49.86
2.90062	49.89
2.91728	49.91
2.93395	49.92
2.95062	49.94
2.96728	49.96
2.98395	49.96
3.00062	49.97
3.01728	49.98
3.03395	49.99
3.05062	49.99
3.06728	50.00
3.08395	50.01
3.10062	50.02
3.11728	50.04
3.13395	50.06
3.15062	50.07
3.16728	50.09
3.18395	50.09
3.20062	50.11
3.21728	50.11
3.23395	50.10
3.25062	50.08
3.26728	50.07
3.28395	50.07
3.30062	50.06
3.31728	50.06
3.33395	50.06
3.35062	50.05
3.36728	50.05
3.38395	50.05
3.40062	50.05
3.41728	50.06
3.43395	50.05
3.45062	50.05
3.46728	50.05
3.48395	50.05
3.50062	50.06
3.51728	50.07
3.53395	50.07
3.55062	50.07
3.56728	50.07
3.58395	50.06
3.60062	50.06
3.61728	50.07
3.63395	50.07
3.65062	50.08
3.66728	50.09
3.68395	50.09
3.70062	50.10
3.71728	50.10
3.73395	50.08
3.75062	50.06
3.76728	50.05
3.78395	50.04
3.80062	50.05
3.81728	50.05
3.83395	50.05
3.85062	50.05
3.86728	50.04
3.88395	50.03
3.90062	50.03
3.91728	50.04
3.93395	50.04
3.95062	50.03
3.96728	50.03
3.98395	50.02

[Status Trace (Injection Unit Temperature)]
Interval(msec)	1000
# of Points	240
Start Time(min)	0.001
End Time(min)	3.984
Intensity Units	
Intensity Multiplier	1
R.Time (min)	Intensity
0.00062	99.98
0.01728	99.97
0.03395	99.97
0.05062	99.98
0.06728	99.98
0.08395	99.98
0.10062	99.98
0.11728	99.98
0.13395	99.98
0.15062	99.98
0.16728	99.98
0.18395	99.98
0.20062	99.98
0.21728	99.98
0.23395	99.98
0.25062	99.98
0.26728	99.98
0.28395	99.98
0.30062	99.98
0.31728	99.98
0.33395	99.99
0.35062	99.98
0.36728	99.98
0.38395	99.99
0.40062	99.99
0.41728	99.99
0.43395	99.99
0.45062	99.99
0.46728	99.99
0.48395	99.98
0.50062	99.98
0.51728	99.98
0.53395	99.98
0.55062	99.98
0.56728	99.99
0.58395	99.98
0.60062	99.99
0.61728	99.98
0.63395	99.98
0.65062	99.98
0.66728	99.99
0.68395	99.98
0.70062	99.98
0.71728	99.98
0.73395	99.98
0.75062	99.98
0.76728	99.99
0.78395	99.98
0.80062	99.98
0.81728	99.98
0.83395	99.98
0.85062	99.98
0.86728	99.98
0.88395	99.98
0.90062	99.98
0.91728	99.98
0.93395	99.98
0.95062	99.98
0.96728	99.98
0.98395	99.98
1.00062	99.98
1.01728	99.98
1.03395	99.98
1.05062	99.98
1.06728	99.98
1.08395	99.98
1.10062	99.98
1.11728	99.98
1.13395	99.98
1.15062	99.98
1.16728	99.98
1.18395	99.98
1.20062	99.98
1.21728	99.98
1.23395	99.98
1.25062	99.98
1.26728	99.98
1.28395	99.98
1.30062	99.98
1.31728	99.98
1.33395	99.98
1.35062	99.98
1.36728	99.98
1.38395	99.98
1.40062	99.98
1.41728	99.99
1.43395	99.99
1.45062	99.98
1.46728	99.99
1.48395	99.99
1.50062	99.99
1.51728	99.98
1.53395	99.98
1.55062	99.99
1.56728	99.99
1.58395	99.99
1.60062	99.99
1.61728	99.98
1.63395	99.98
1.65062	99.98
1.66728	99.98
1.68395	99.98
1.70062	99.98
1.71728	99.99
1.73395	99.99
1.75062	99.98
1.76728	99.98
1.78395	99.98
1.80062	99.98
1.81728	99.98
1.83395	99.98
1.85062	99.98
1.86728	99.98
1.88395	99.98
1.90062	99.97
1.91728	99.98
1.93395	99.98
1.95062	99.98
1.96728	99.97
1.98395	99.97
2.00062	99.97
2.01728	99.97
2.03395	99.97
2.05062	99.97
2.06728	99.97
2.08395	99.97
2.10062	99.96
2.11728	99.96
2.13395	99.97
2.15062	99.97
2.16728	99.96
2.18395	99.96
2.20062	99.96
2.21728	99.96
2.23395	99.96
2.25062	99.96
2.26728	99.96
2.28395	99.96
2.30062	99.96
2.31728	99.96
2.33395	99.96
2.35062	99.96
2.36728	99.96
2.38395	99.96
2.40062	99.96
2.41728	99.96
2.43395	99.96
2.45062	99.96
2.46728	99.96
2.48395	99.96
2.50062	99.96
2.51728	99.96
2.53395	99.96
2.55062	99.96
2.56728	99.97
2.58395	99.97
2.60062	99.97
2.61728	99.97
2.63395	99.97
2.65062	99.97
2.66728	99.97
2.68395	99.98
2.70062	99.98
2.71728	99.98
2.73395	99.98
2.75062	99.98
2.76728	99.99
2.78395	99.98
2.80062	100.00
2.81728	100.00
2.83395	100.00
2.85062	100.00
2.86728	100.00
2.88395	100.00
2.90062	100.01
2.91728	100.00
2.93395	100.01
2.95062	100.01
2.96728	100.01
2.98395	100.01
3.00062	100.02
3.01728	100.02
3.03395	100.02
3.05062	100.01
3.06728	100.02
3.08395	100.02
3.10062	100.02
3.11728	100.03
3.13395	100.03
3.15062	100.03
3.16728	100.03
3.18395	100.03
3.20062	100.03
3.21728	100.03
3.23395	100.03
3.25062	100.03
3.26728	100.04
3.28395	100.03
3.30062	100.04
3.31728	100.04
3.33395	100.04
3.35062	100.04
3.36728	100.04
3.38395	100.04
3.40062	100.04
3.41728	100.04
3.43395	100.04
3.45062	100.04
3.46728	100.04
3.48395	100.04
3.50062	100.04
3.51728	100.04
3.53395	100.04
3.55062	100.04
3.56728	100.04
3.58395	100.04
3.60062	100.04
3.61728	100.04
3.63395	100.04
3.65062	100.04
3.66728	100.04
3.68395	100.04
3.70062	100.04
3.71728	100.04
3.73395	100.05
3.75062	100.04
3.76728	100.04
3.78395	100.05
3.80062	100.04
3.81728	100.04
3.83395	100.04
3.85062	100.04
3.86728	100.05
3.88395	100.04
3.90062	100.04
3.91728	100.04
3.93395	100.04
3.95062	100.04
3.96728	100.04
3.98395	100.05

[Status Trace (Carrier Gas Pressure)]
Interval(msec)	1000
# of Points	240
Start Time(min)	0.001
End Time(min)	3.984
Intensity Units	
Intensity Multiplier	1
R.Time (min)	Intensity
0.00062	58.00
0.01728	56.63
0.03395	56.11
0.05062	58.32
0.06728	59.90
0.08395	58.38
0.10062	57.97
0.11728	58.00
0.13395	58.01
0.15062	58.01
0.16728	58.00
0.18395	58.00
0.20062	58.00
0.21728	58.00
0.23395	58.00
0.25062	58.00
0.26728	58.00
0.28395	58.00
0.30062	58.00
0.31728	58.00
0.33395	58.00
0.35062	58.00
0.36728	58.00
0.38395	58.00
0.40062	58.00
0.41728	58.00
0.43395	58.00
0.45062	58.00
0.46728	58.00
0.48395	58.00
0.50062	58.00
0.51728	58.00
0.53395	58.00
0.55062	58.00
0.56728	58.00
0.58395	58.00
0.60062	58.00
0.61728	58.00
0.63395	58.00
0.65062	58.00
0.66728	58.00
0.68395	58.00
0.70062	58.00
0.71728	58.00
0.73395	58.00
0.75062	58.00
0.76728	58.00
0.78395	58.00
0.80062	58.00
0.81728	58.00
0.83395	58.00
0.85062	58.00
0.86728	58.00
0.88395	58.00
0.90062	58.00
0.91728	58.00
0.93395	58.00
0.95062	58.00
0.96728	58.00
0.98395	58.00
1.00062	58.00
1.01728	58.00
1.03395	58.00
1.05062	58.00
1.06728	58.00
1.08395	58.00
1.10062	58.00
1.11728	58.00
1.13395	58.00
1.15062	58.00
1.16728	58.00
1.18395	58.00
1.20062	58.00
1.21728	58.00
1.23395	58.00
1.25062	58.00
1.26728	58.00
1.28395	58.00
1.30062	58.00
1.31728	58.00
1.33395	58.00
1.35062	58.00
1.36728	58.00
1.38395	58.00
1.40062	58.00
1.41728	58.00
1.43395	58.00
1.45062	58.00
1.46728	58.00
1.48395	58.00
1.50062	58.00
1.51728	58.00
1.53395	58.00
1.55062	58.00
1.56728	58.00
1.58395	58.00
1.60062	58.00
1.61728	58.00
1.63395	58.00
1.65062	58.00
1.66728	58.01
1.68395	58.01
1.70062	58.00
1.71728	58.00
1.73395	58.00
1.75062	58.00
1.76728	58.00
1.78395	58.00
1.80062	58.00
1.81728	58.00
1.83395	58.00
1.85062	58.00
1.86728	58.00
1.88395	58.00
1.90062	58.00
1.91728	58.00
1.93395	58.00
1.95062	58.00
1.96728	58.00
1.98395	58.00
2.00062	58.00
2.01728	58.00
2.03395	58.00
2.05062	58.00
2.06728	58.00
2.08395	58.00
2.10062	58.00
2.11728	58.00
2.13395	58.00
2.15062	58.00
2.16728	58.00
2.18395	58.00
2.20062	58.00
2.21728	58.00
2.23395	58.00
2.25062	58.00
2.26728	58.00
2.28395	58.00
2.30062	58.00
2.31728	58.00
2.33395	58.00
2.35062	58.00
2.36728	58.00
2.38395	57.99
2.40062	57.99
2.41728	58.00
2.43395	58.00
2.45062	58.00
2.46728	58.00
2.48395	58.00
2.50062	58.00
2.51728	57.99
2.53395	57.99
2.55062	58.00
2.56728	58.00
2.58395	58.00
2.60062	58.00
2.61728	58.00
2.63395	58.00
2.65062	58.00
2.66728	58.00
2.68395	58.00
2.70062	58.00
2.71728	58.00
2.73395	58.00
2.75062	58.00
2.76728	58.00
2.78395	58.00
2.80062	58.00
2.81728	58.00
2.83395	58.00
2.85062	58.00
2.86728	58.00
2.88395	58.00
2.90062	58.00
2.91728	58.00
2.93395	58.00
2.95062	58.00
2.96728	58.00
2.98395	58.00
3.00062	58.00
3.01728	58.00
3.03395	58.00
3.05062	58.00
3.06728	58.00
3.08395	58.00
3.10062	58.00
3.11728	58.00
3.13395	58.00
3.15062	58.00
3.16728	58.00
3.18395	58.00
3.20062	58.00
3.21728	58.00
3.23395	58.00
3.25062	58.00
3.26728	58.00
3.28395	58.00
3.30062	58.00
3.31728	58.00
3.33395	58.00
3.35062	58.00
3.36728	58.00
3.38395	58.00
3.40062	58.00
3.41728	58.00
3.43395	58.00
3.45062	58.00
3.46728	58.00
3.48395	58.00
3.50062	58.00
3.51728	58.00
3.53395	58.00
3.55062	58.00
3.56728	58.00
3.58395	58.00
3.60062	58.00
3.61728	58.00
3.63395	58.00
3.65062	58.00
3.66728	58.00
3.68395	58.00
3.70062	58.00
3.71728	58.00
3.73395	58.00
3.75062	58.00
3.76728	58.00
3.78395	58.00
3.80062	58.00
3.81728	58.00
3.83395	58.00
3.85062	58.00
3.86728	58.00
3.88395	58.00
3.90062	58.00
3.91728	58.00
3.93395	58.00
3.95062	58.00
3.96728	58.00
3.98395	58.00

[Status Trace (Carrier Gas Flow)]
Interval(msec)	1000
# of Points	240
Start Time(min)	0.001
End Time(min)	3.984
Intensity Units	
Intensity Multiplier	1
R.Time (min)	Intensity
0.00062	34.52
0.01728	33.80
0.03395	34.54
0.05062	34.55
0.06728	34.50
0.08395	34.51
0.10062	34.52
0.11728	34.52
0.13395	34.51
0.15062	34.52
0.16728	34.52
0.18395	34.52
0.20062	34.52
0.21728	34.52
0.23395	34.52
0.25062	34.51
0.26728	34.52
0.28395	34.51
0.30062	34.52
0.31728	34.53
0.33395	34.52
0.35062	34.52
0.36728	34.52
0.38395	34.51
0.40062	34.51
0.41728	34.51
0.43395	34.52
0.45062	34.52
0.46728	34.52
0.48395	34.52
0.50062	34.52
0.51728	34.53
0.53395	34.52
0.55062	34.52
0.56728	34.52
0.58395	34.52
0.60062	34.51
0.61728	34.52
0.63395	34.52
0.65062	34.52
0.66728	34.52
0.68395	34.52
0.70062	34.51
0.71728	34.52
0.73395	34.52
0.75062	34.52
0.76728	34.52
0.78395	34.52
0.80062	34.52
0.81728	34.52
0.83395	34.51
0.85062	34.52
0.86728	34.52
0.88395	34.52
0.90062	34.51
0.91728	34.52
0.93395	34.52
0.95062	34.52
0.96728	34.52
0.98395	34.52
1.00062	34.51
1.01728	34.52
1.03395	34.52
1.05062	34.52
1.06728	34.52
1.08395	34.51
1.10062	34.52
1.11728	34.52
1.13395	34.52
1.15062	34.51
1.16728	34.52
1.18395	34.52
1.20062	34.52
1.21728	34.52
1.23395	34.52
1.25062	34.52
1.26728	34.52
1.28395	34.52
1.30062	34.52
1.31728	34.52
1.33395	34.52
1.35062	34.52
1.36728	34.52
1.38395	34.52
1.40062	34.52
1.41728	34.52
1.43395	34.52
1.45062	34.52
1.46728	34.53
1.48395	34.52
1.50062	34.51
1.51728	34.52
1.53395	34.52
1.55062	34.52
1.56728	34.52
1.58395	34.52
1.60062	34.52
1.61728	34.51
1.63395	34.52
1.65062	34.52
1.66728	34.52
1.68395	34.52
1.70062	34.52
1.71728	34.52
1.73395	34.52
1.75062	34.52
1.76728	34.53
1.78395	34.52
1.80062	34.52
1.81728	34.52
1.83395	34.52
1.85062	34.52
1.86728	34.51
1.88395	34.52
1.90062	34.52
1.91728	34.52
1.93395	34.52
1.95062	34.52
1.96728	34.52
1.98395	34.52
2.00062	34.52
2.01728	34.52
2.03395	34.52
2.05062	34.51
2.06728	34.51
2.08395	34.51
2.10062	34.52
2.11728	34.52
2.13395	34.52
2.15062	34.52
2.16728	34.52
2.18395	34.52
2.20062	34.52
2.21728	34.52
2.23395	34.52
2.25062	34.52
2.26728	34.52
2.28395	34.51
2.30062	34.51
2.31728	34.52
2.33395	34.52
2.35062	34.52
2.36728	34.52
2.38395	34.53
2.40062	34.52
2.41728	34.52
2.43395	34.52
2.45062	34.52
2.46728	34.52
2.48395	34.53
2.50062	34.52
2.51728	34.52
2.53395	34.51
2.55062	34.52
2.56728	34.52
2.58395	34.52
2.60062	34.51
2.61728	34.52
2.63395	34.51
2.65062	34.52
2.66728	34.52
2.68395	34.52
2.70062	34.52
2.71728	34.51
2.73395	34.52
2.75062	34.52
2.76728	34.52
2.78395	34.52
2.80062	34.52
2.81728	34.52
2.83395	34.52
2.85062	34.52
2.86728	34.51
2.88395	34.51
2.90062	34.52
2.91728	34.52
2.93395	34.52
2.95062	34.52
2.96728	34.52
2.98395	34.52
3.00062	34.52
3.01728	34.51
3.03395	34.52
3.05062	34.52
3.06728	34.52
3.08395	34.51
3.10062	34.52
3.11728	34.52
3.13395	34.52
3.15062	34.52
3.16728	34.52
3.18395	34.52
3.20062	34.52
3.21728	34.52
3.23395	34.52
3.25062	34.52
3.26728	34.52
3.28395	34.52
3.30062	34.52
3.31728	34.52
3.33395	34.52
3.35062	34.52
3.36728	34.51
3.38395	34.52
3.40062	34.52
3.41728	34.52
3.43395	34.52
3.45062	34.52
3.46728	34.52
3.48395	34.51
3.50062	34.52
3.51728	34.52
3.53395	34.51
3.55062	34.52
3.56728	34.52
3.58395	34.52
3.60062	34.52
3.61728	34.52
3.63395	34.52
3.65062	34.52
3.66728	34.52
3.68395	34.52
3.70062	34.52
3.71728	34.52
3.73395	34.52
3.75062	34.52
3.76728	34.52
3.78395	34.52
3.80062	34.51
3.81728	34.52
3.83395	34.52
3.85062	34.52
3.86728	34.52
3.88395	34.52
3.90062	34.52
3.91728	34.52
3.93395	34.52
3.95062	34.52
3.96728	34.52
3.98395	34.52

[Status Trace (Column Flow)]
Interval(msec)	1000
# of Points	240
Start Time(min)	0.001
End Time(min)	3.984
Intensity Units	
Intensity Multiplier	1
R.Time (min)	Intensity
0.00062	5.56
0.01728	5.40
0.03395	5.34
0.05062	5.60
0.06728	5.79
0.08395	5.61
0.10062	5.56
0.11728	5.56
0.13395	5.57
0.15062	5.56
0.16728	5.56
0.18395	5.56
0.20062	5.56
0.21728	5.56
0.23395	5.56
0.25062	5.56
0.26728	5.56
0.28395	5.56
0.30062	5.56
0.31728	5.56
0.33395	5.56
0.35062	5.56
0.36728	5.56
0.38395	5.56
0.40062	5.56
0.41728	5.56
0.43395	5.56
0.45062	5.56
0.46728	5.56
0.48395	5.56
0.50062	5.56
0.51728	5.56
0.53395	5.56
0.55062	5.56
0.56728	5.56
0.58395	5.56
0.60062	5.56
0.61728	5.56
0.63395	5.56
0.65062	5.56
0.66728	5.56
0.68395	5.56
0.70062	5.56
0.71728	5.56
0.73395	5.56
0.75062	5.56
0.76728	5.56
0.78395	5.56
0.80062	5.56
0.81728	5.56
0.83395	5.56
0.85062	5.56
0.86728	5.56
0.88395	5.56
0.90062	5.56
0.91728	5.56
0.93395	5.56
0.95062	5.56
0.96728	5.56
0.98395	5.56
1.00062	5.56
1.01728	5.56
1.03395	5.57
1.05062	5.57
1.06728	5.57
1.08395	5.57
1.10062	5.57
1.11728	5.57
1.13395	5.57
1.15062	5.57
1.16728	5.56
1.18395	5.56
1.20062	5.56
1.21728	5.56
1.23395	5.56
1.25062	5.56
1.26728	5.56
1.28395	5.56
1.30062	5.57
1.31728	5.56
1.33395	5.56
1.35062	5.56
1.36728	5.56
1.38395	5.56
1.40062	5.56
1.41728	5.56
1.43395	5.56
1.45062	5.57
1.46728	5.57
1.48395	5.57
1.50062	5.57
1.51728	5.57
1.53395	5.57
1.55062	5.57
1.56728	5.57
1.58395	5.57
1.60062	5.56
1.61728	5.56
1.63395	5.56
1.65062	5.55
1.66728	5.54
1.68395	5.53
1.70062	5.52
1.71728	5.50
1.73395	5.49
1.75062	5.49
1.76728	5.47
1.78395	5.46
1.80062	5.45
1.81728	5.44
1.83395	5.43
1.85062	5.42
1.86728	5.41
1.88395	5.40
1.90062	5.39
1.91728	5.38
1.93395	5.37
1.95062	5.36
1.96728	5.35
1.98395	5.34
2.00062	5.34
2.01728	5.33
2.03395	5.32
2.05062	5.31
2.06728	5.30
2.08395	5.29
2.10062	5.28
2.11728	5.27
2.13395	5.26
2.15062	5.25
2.16728	5.24
2.18395	5.23
2.20062	5.22
2.21728	5.21
2.23395	5.20
2.25062	5.19
2.26728	5.18
2.28395	5.17
2.30062	5.16
2.31728	5.15
2.33395	5.15
2.35062	5.14
2.36728	5.13
2.38395	5.13
2.40062	5.13
2.41728	5.13
2.43395	5.13
2.45062	5.13
2.46728	5.13
2.48395	5.13
2.50062	5.13
2.51728	5.12
2.53395	5.12
2.55062	5.13
2.56728	5.12
2.58395	5.12
2.60062	5.12
2.61728	5.12
2.63395	5.12
2.65062	5.12
2.66728	5.12
2.68395	5.12
2.70062	5.12
2.71728	5.12
2.73395	5.12
2.75062	5.12
2.76728	5.12
2.78395	5.12
2.80062	5.12
2.81728	5.12
2.83395	5.12
2.85062	5.12
2.86728	5.12
2.88395	5.12
2.90062	5.12
2.91728	5.12
2.93395	5.12
2.95062	5.12
2.96728	5.12
2.98395	5.12
3.00062	5.12
3.01728	5.12
3.03395	5.12
3.05062	5.12
3.06728	5.12
3.08395	5.12
3.10062	5.12
3.11728	5.12
3.13395	5.12
3.15062	5.12
3.16728	5.12
3.18395	5.12
3.20062	5.11
3.21728	5.11
3.23395	5.12
3.25062	5.12
3.26728	5.12
3.28395	5.12
3.30062	5.12
3.31728	5.12
3.33395	5.12
3.35062	5.12
3.36728	5.12
3.38395	5.12
3.40062	5.12
3.41728	5.12
3.43395	5.12
3.45062	5.12
3.46728	5.12
3.48395	5.12
3.50062	5.12
3.51728	5.12
3.53395	5.12
3.55062	5.12
3.56728	5.12
3.58395	5.12
3.60062	5.12
3.61728	5.12
3.63395	5.12
3.65062	5.12
3.66728	5.12
3.68395	5.12
3.70062	5.12
3.71728	5.12
3.73395	5.12
3.75062	5.12
3.76728	5.12
3.78395	5.12
3.80062	5.12
3.81728	5.12
3.83395	5.12
3.85062	5.12
3.86728	5.12
3.88395	5.12
3.90062	5.12
3.91728	5.12
3.93395	5.12
3.95062	5.12
3.96728	5.12
3.98395	5.12

[Status Trace (Linear Velocity)]
Interval(msec)	1000
# of Points	240
Start Time(min)	0.001
End Time(min)	3.984
Intensity Units	
Intensity Multiplier	1
R.Time (min)	Intensity
0.00062	39.02
0.01728	38.12
0.03395	37.78
0.05062	39.23
0.06728	40.27
0.08395	39.27
0.10062	39.01
0.11728	39.03
0.13395	39.03
0.15062	39.03
0.16728	39.03
0.18395	39.02
0.20062	39.02
0.21728	39.02
0.23395	39.02
0.25062	39.02
0.26728	39.02
0.28395	39.02
0.30062	39.02
0.31728	39.02
0.33395	39.02
0.35062	39.02
0.36728	39.02
0.38395	39.02
0.40062	39.02
0.41728	39.03
0.43395	39.03
0.45062	39.03
0.46728	39.03
0.48395	39.03
0.50062	39.03
0.51728	39.03
0.53395	39.03
0.55062	39.03
0.56728	39.03
0.58395	39.03
0.60062	39.02
0.61728	39.03
0.63395	39.03
0.65062	39.02
0.66728	39.03
0.68395	39.03
0.70062	39.03
0.71728	39.03
0.73395	39.03
0.75062	39.03
0.76728	39.03
0.78395	39.03
0.80062	39.02
0.81728	39.02
0.83395	39.03
0.85062	39.03
0.86728	39.03
0.88395	39.03
0.90062	39.02
0.91728	39.02
0.93395	39.02
0.95062	39.02
0.96728	39.02
0.98395	39.02
1.00062	39.02
1.01728	39.03
1.03395	39.03
1.05062	39.03
1.06728	39.03
1.08395	39.03
1.10062	39.03
1.11728	39.03
1.13395	39.03
1.15062	39.03
1.16728	39.03
1.18395	39.03
1.20062	39.03
1.21728	39.03
1.23395	39.03
1.25062	39.03
1.26728	39.03
1.28395	39.03
1.30062	39.03
1.31728	39.03
1.33395	39.03
1.35062	39.03
1.36728	39.03
1.38395	39.03
1.40062	39.03
1.41728	39.03
1.43395	39.03
1.45062	39.03
1.46728	39.03
1.48395	39.03
1.50062	39.03
1.51728	39.03
1.53395	39.03
1.55062	39.03
1.56728	39.03
1.58395	39.03
1.60062	39.03
1.61728	39.02
1.63395	39.00
1.65062	38.98
1.66728	38.95
1.68395	38.92
1.70062	38.88
1.71728	38.85
1.73395	38.82
1.75062	38.79
1.76728	38.75
1.78395	38.72
1.80062	38.69
1.81728	38.66
1.83395	38.63
1.85062	38.60
1.86728	38.57
1.88395	38.53
1.90062	38.51
1.91728	38.47
1.93395	38.44
1.95062	38.42
1.96728	38.38
1.98395	38.35
2.00062	38.33
2.01728	38.29
2.03395	38.26
2.05062	38.23
2.06728	38.20
2.08395	38.17
2.10062	38.15
2.11728	38.11
2.13395	38.08
2.15062	38.06
2.16728	38.03
2.18395	38.00
2.20062	37.97
2.21728	37.94
2.23395	37.91
2.25062	37.88
2.26728	37.85
2.28395	37.82
2.30062	37.79
2.31728	37.76
2.33395	37.73
2.35062	37.71
2.36728	37.68
2.38395	37.67
2.40062	37.67
2.41728	37.67
2.43395	37.67
2.45062	37.67
2.46728	37.67
2.48395	37.67
2.50062	37.67
2.51728	37.66
2.53395	37.66
2.55062	37.67
2.56728	37.66
2.58395	37.66
2.60062	37.66
2.61728	37.66
2.63395	37.66
2.65062	37.66
2.66728	37.66
2.68395	37.66
2.70062	37.66
2.71728	37.65
2.73395	37.66
2.75062	37.66
2.76728	37.65
2.78395	37.65
2.80062	37.65
2.81728	37.65
2.83395	37.65
2.85062	37.65
2.86728	37.66
2.88395	37.66
2.90062	37.65
2.91728	37.65
2.93395	37.65
2.95062	37.65
2.96728	37.65
2.98395	37.65
3.00062	37.64
3.01728	37.64
3.03395	37.64
3.05062	37.64
3.06728	37.64
3.08395	37.64
3.10062	37.64
3.11728	37.64
3.13395	37.64
3.15062	37.64
3.16728	37.63
3.18395	37.63
3.20062	37.63
3.21728	37.63
3.23395	37.63
3.25062	37.63
3.26728	37.64
3.28395	37.64
3.30062	37.64
3.31728	37.64
3.33395	37.64
3.35062	37.64
3.36728	37.64
3.38395	37.64
3.40062	37.64
3.41728	37.64
3.43395	37.64
3.45062	37.64
3.46728	37.64
3.48395	37.64
3.50062	37.64
3.51728	37.64
3.53395	37.64
3.55062	37.64
3.56728	37.64
3.58395	37.64
3.60062	37.64
3.61728	37.64
3.63395	37.64
3.65062	37.64
3.66728	37.63
3.68395	37.63
3.70062	37.63
3.71728	37.63
3.73395	37.63
3.75062	37.64
3.76728	37.64
3.78395	37.64
3.80062	37.64
3.81728	37.64
3.83395	37.64
3.85062	37.64
3.86728	37.64
3.88395	37.64
3.90062	37.64
3.91728	37.64
3.93395	37.64
3.95062	37.64
3.96728	37.64
3.98395	37.64

