[Header]
Application Name	LabSolutions
Version	5.110
Data File Name	C:\Users\User\Desktop\GC Analyses\Jack\Nachusa Grasslands Sampling\T1 Timepoint July 12th\T1_07122022_072.gcd
Output Date	3/14/2023
Output Time	3:41:01 PM

[File Information]
Type	Data File
Generated	3/8/2023 9:16:10 PM
Generated by	System Administrator
Modified	3/8/2023 9:22:41 PM
Modified by	System Administrator

[Sample Information]
Operator Name	System Administrator
Acquired	3/8/2023 9:18:40 PM
Sample Type	0:Unknown
Level	0
Sample Name	072
Sample ID	072
ISTD Amount1	1
ISTD Amount2	1
ISTD Amount3	1
ISTD Amount4	1
ISTD Amount5	1
ISTD Amount6	1
ISTD Amount7	1
ISTD Amount8	1
ISTD Amount9	1
ISTD Amount10	1
ISTD Amount11	1
ISTD Amount12	1
ISTD Amount13	1
ISTD Amount14	1
ISTD Amount15	1
ISTD Amount16	1
ISTD Amount17	1
ISTD Amount18	1
ISTD Amount19	1
ISTD Amount20	1
ISTD Amount21	1
ISTD Amount22	1
ISTD Amount23	1
ISTD Amount24	1
ISTD Amount25	1
ISTD Amount26	1
ISTD Amount27	1
ISTD Amount28	1
ISTD Amount29	1
ISTD Amount30	1
ISTD Amount31	1
ISTD Amount32	1
Sample Amount	1
Dilution Factor	1
Vial#	71
Injection Volume	1
Injection Count	1
Bar Code	

[Original Files]
Data File	C:\Users\User\Desktop\GC Analyses\Jack\Nachusa Grasslands Sampling\T1 Timepoint July 12th\T1_07122022_072.gcd
Method File	C:\LabSolutions\Data\GHG_4min_2022\ghg3_togas_w_acet_4 min_new_int.gcm
Batch File	C:\LabSolutions\Data\AutoSamplerTesting\T1_07122022.gcb
Report Format File	c:\LabSolutions\System\DEFAULT.lsr

[File Description]


[Configuration]
Instrument Name	C0B7VH3-Instrument1
Instrument #	1
Line #	1
# of Detectors	3
Detector ID	DET#1	DET#2	DET#3
Detector Name	FID	PTCD	ECD
# of Channels	1	1	1

[Peak Table(Ch1)]
# of Peaks	3
Peak#	R.Time	I.Time	F.Time	Area	Height	A/H	Conc.	Mark	ID#	Name	k'	Plate #	Plate Ht.	Tailing	Resolution	Sep.Factor	Area Ratio	Height Ratio	Conc. %	Norm Conc.
1	1.476	1.435	1.538	35499	16841	2.108	250.624	   	1	CO	0.000	9232	16.248	1.340	0.000	0.000	0	0	33.981	33.981
2	1.567	1.538	1.637	4992	2385	2.093	96.516	 V 	2	CH4	0.062	10302	14.560	0.000	1.488	0.000	0	0	13.086	13.086
3	2.000	1.952	2.506	1555550	731172	2.127	390.401	   	3	CO2	0.355	17380	8.631	1.180	7.067	5.720	0	0	52.933	52.933

[Peak Table(Ch2)]
# of Peaks	0

[Peak Table(Ch3)]
# of Peaks	4
Peak#	R.Time	I.Time	F.Time	Area	Height	A/H	Conc.	Mark	ID#	Name	k'	Plate #	Plate Ht.	Tailing	Resolution	Sep.Factor	Area Ratio	Height Ratio	Conc. %	Norm Conc.
1	2.462	2.209	2.517	2370	553	4.287	0.000	   			0.000	9580	15.658	0.000	0.000	0.000	0	0	0.000	0.000
2	2.539	2.517	2.627	935	248	3.770	0.000	 V 			0.031	5465	27.448	0.000	0.647	0.000	0	0	0.000	0.000
3	2.671	2.645	2.737	142	52	2.717	0.000	   			0.085	22122	6.781	1.756	1.262	2.714	0	0	0.000	0.000
4	2.873	2.803	3.089	18768	4927	3.809	0.479	   	1	N2O	0.167	13296	11.281	1.700	2.352	1.965	0	0	100.000	100.000

[Compound Results(Ch1)]
# of IDs	6
ID#	Name	R.Time	Area	Height	Conc.	Curve	3rd	2nd	1st	Constant	Area Ratio	Height Ratio	Conc. %	Norm Conc.
1	CO	1.476	35499	16841	250.624	Linear	0.000000e+00	0.000000e+00	1.416423e+002	0.000000e+00	0	0	33.981	33.981
2	CH4	1.567	4992	2385	96.516	Linear	0.000000e+00	0.000000e+00	5.171738e+001	0.000000e+00	0	0	13.086	13.086
3	CO2	2.000	1555550	731172	390.401	Linear	0.000000e+00	0.000000e+00	3.984494e+003	0.000000e+00	0	0	52.933	52.933
4	Ethylene	0.000	0	0	0.000	Linear	0.000000e+00	0.000000e+00	0.000000e+00	0.000000e+00	0	0	0.000	0.000
5	Acetylene	0.000	0	0	0.000	Linear	0.000000e+00	0.000000e+00	0.000000e+00	0.000000e+00	0	0	0.000	0.000
6	Ethane	0.000	0	0	0.000	Linear	0.000000e+00	0.000000e+00	0.000000e+00	0.000000e+00	0	0	0.000	0.000

[Compound Results(Ch2)]
# of IDs	5
ID#	Name	R.Time	Area	Height	Conc.	Curve	3rd	2nd	1st	Constant	Area Ratio	Height Ratio	Conc. %	Norm Conc.
1	Hydrogen	0.000	0	0	0.000	Linear	0.000000e+00	0.000000e+00	0.000000e+00	0.000000e+00	0	0	0.000	0.000
2	Oxygen	0.000	0	0	0.000	Linear	0.000000e+00	0.000000e+00	0.000000e+00	0.000000e+00	0	0	0.000	0.000
3	Nitrogen	0.000	0	0	0.000	Linear	0.000000e+00	0.000000e+00	0.000000e+00	0.000000e+00	0	0	0.000	0.000
4	Methane	0.000	0	0	0.000	Linear	0.000000e+00	0.000000e+00	0.000000e+00	0.000000e+00	0	0	0.000	0.000
5	Carbon Monoxide	0.000	0	0	0.000	Linear	0.000000e+00	0.000000e+00	0.000000e+00	0.000000e+00	0	0	0.000	0.000

[Compound Results(Ch3)]
# of IDs	2
ID#	Name	R.Time	Area	Height	Conc.	Curve	3rd	2nd	1st	Constant	Area Ratio	Height Ratio	Conc. %	Norm Conc.
1	N2O	2.873	18768	4927	0.479	Linear	0.000000e+00	0.000000e+00	3.915173e+004	0.000000e+00	0	0	100.000	100.000
2	SF6	0.000	0	0	0.000	Linear	0.000000e+00	0.000000e+00	0.000000e+00	0.000000e+00	0	0	0.000	0.000

[Group Results(Ch1)]
# of Groups	0

[Group Results(Ch2)]
# of Groups	0

[Group Results(Ch3)]
# of Groups	0

[Chromatogram (Ch1)]
Interval(msec)	220
# of Points	1091
Start Time(min)	0.002
End Time(min)	3.998
R.Time (min)	Intensity
0.00167	-61
0.00533	-65
0.00900	-65
0.01267	-59
0.01633	-51
0.02000	-44
0.02367	-41
0.02733	-45
0.03100	-53
0.03467	-58
0.03833	-61
0.04200	-59
0.04567	-54
0.04933	-47
0.05300	-41
0.05667	-35
0.06033	-31
0.06400	-27
0.06767	-27
0.07133	-27
0.07500	-29
0.07867	-34
0.08233	-42
0.08600	-50
0.08967	-53
0.09333	-53
0.09700	-52
0.10067	-50
0.10433	-50
0.10800	-50
0.11167	-51
0.11533	-55
0.11900	-60
0.12267	-63
0.12633	-58
0.13000	-50
0.13367	-42
0.13733	-38
0.14100	-38
0.14467	-37
0.14833	-36
0.15200	-33
0.15567	-35
0.15933	-41
0.16300	-42
0.16667	-39
0.17033	-35
0.17400	-29
0.17767	-21
0.18133	-20
0.18500	-20
0.18867	-20
0.19233	-22
0.19600	-24
0.19967	-23
0.20333	-22
0.20700	-24
0.21067	-27
0.21433	-29
0.21800	-27
0.22167	-24
0.22533	-20
0.22900	-22
0.23267	-28
0.23633	-35
0.24000	-39
0.24367	-40
0.24733	-41
0.25100	-41
0.25467	-41
0.25833	-44
0.26200	-45
0.26567	-43
0.26933	-40
0.27300	-39
0.27667	-38
0.28033	-33
0.28400	-28
0.28767	-23
0.29133	-17
0.29500	-16
0.29867	-19
0.30233	-22
0.30600	-24
0.30967	-29
0.31333	-34
0.31700	-38
0.32067	-38
0.32433	-35
0.32800	-31
0.33167	-26
0.33533	-21
0.33900	-15
0.34267	-15
0.34633	-14
0.35000	-11
0.35367	-9
0.35733	-9
0.36100	-13
0.36467	-17
0.36833	-23
0.37200	-27
0.37567	-30
0.37933	-31
0.38300	-33
0.38667	-35
0.39033	-35
0.39400	-37
0.39767	-38
0.40133	-39
0.40500	-39
0.40867	-38
0.41233	-34
0.41600	-31
0.41967	-24
0.42333	-19
0.42700	-18
0.43067	-25
0.43433	-33
0.43800	-37
0.44167	-37
0.44533	-34
0.44900	-28
0.45267	-23
0.45633	-24
0.46000	-28
0.46367	-37
0.46733	-49
0.47100	-59
0.47467	-63
0.47833	-65
0.48200	-65
0.48567	-60
0.48933	-52
0.49300	-44
0.49667	-39
0.50033	-35
0.50400	-33
0.50767	-34
0.51133	-37
0.51500	-37
0.51867	-34
0.52233	-35
0.52600	-41
0.52967	-46
0.53333	-46
0.53700	-44
0.54067	-41
0.54433	-38
0.54800	-35
0.55167	-30
0.55533	-28
0.55900	-27
0.56267	-26
0.56633	-26
0.57000	-34
0.57367	-43
0.57733	-47
0.58100	-45
0.58467	-45
0.58833	-47
0.59200	-45
0.59567	-41
0.59933	-38
0.60300	-35
0.60667	-34
0.61033	-36
0.61400	-38
0.61767	-40
0.62133	-40
0.62500	-36
0.62867	-33
0.63233	-34
0.63600	-37
0.63967	-38
0.64333	-38
0.64700	-39
0.65067	-40
0.65433	-39
0.65800	-37
0.66167	-35
0.66533	-33
0.66900	-32
0.67267	-36
0.67633	-37
0.68000	-36
0.68367	-36
0.68733	-41
0.69100	-52
0.69467	-58
0.69833	-59
0.70200	-51
0.70567	-51
0.70933	-53
0.71300	-55
0.71667	-58
0.72033	-61
0.72400	-60
0.72767	-55
0.73133	-49
0.73500	-48
0.73867	-51
0.74233	-55
0.74600	-56
0.74967	-55
0.75333	-55
0.75700	-56
0.76067	-56
0.76433	-55
0.76800	-54
0.77167	-52
0.77533	-51
0.77900	-49
0.78267	-50
0.78633	-53
0.79000	-56
0.79367	-61
0.79733	-66
0.80100	-70
0.80467	-65
0.80833	-58
0.81200	-53
0.81567	-51
0.81933	-48
0.82300	-44
0.82667	-40
0.83033	-38
0.83400	-42
0.83767	-52
0.84133	-63
0.84500	-73
0.84867	-81
0.85233	-81
0.85600	-77
0.85967	-69
0.86333	-62
0.86700	-59
0.87067	-59
0.87433	-59
0.87800	-56
0.88167	-54
0.88533	-55
0.88900	-59
0.89267	-63
0.89633	-68
0.90000	-73
0.90367	-74
0.90733	-70
0.91100	-64
0.91467	-58
0.91833	-52
0.92200	-49
0.92567	-50
0.92933	-57
0.93300	-67
0.93667	-76
0.94033	-80
0.94400	-81
0.94767	-79
0.95133	-75
0.95500	-70
0.95867	-64
0.96233	-64
0.96600	-72
0.96967	-87
0.97333	-95
0.97700	-94
0.98067	-84
0.98433	-74
0.98800	-72
0.99167	-71
0.99533	-68
0.99900	-68
1.00267	-75
1.00633	-84
1.01000	-91
1.01367	-94
1.01733	-95
1.02100	-94
1.02467	-93
1.02833	-94
1.03200	-91
1.03567	-88
1.03933	-86
1.04300	-78
1.04667	-67
1.05033	-59
1.05400	-53
1.05767	-51
1.06133	-51
1.06500	-54
1.06867	-62
1.07233	-76
1.07600	-88
1.07967	-97
1.08333	-101
1.08700	-99
1.09067	-91
1.09433	-80
1.09800	-69
1.10167	-59
1.10533	-54
1.10900	-50
1.11267	-48
1.11633	-51
1.12000	-53
1.12367	-53
1.12733	-53
1.13100	-50
1.13467	-49
1.13833	-52
1.14200	-54
1.14567	-54
1.14933	-52
1.15300	-53
1.15667	-57
1.16033	-62
1.16400	-63
1.16767	-61
1.17133	-57
1.17500	-54
1.17867	-53
1.18233	-52
1.18600	-55
1.18967	-60
1.19333	-60
1.19700	-55
1.20067	-47
1.20433	-47
1.20800	-51
1.21167	-56
1.21533	-58
1.21900	-56
1.22267	-52
1.22633	-45
1.23000	-40
1.23367	-39
1.23733	-37
1.24100	-37
1.24467	-36
1.24833	-33
1.25200	-32
1.25567	-31
1.25933	-36
1.26300	-41
1.26667	-46
1.27033	-53
1.27400	-59
1.27767	-61
1.28133	-58
1.28500	-55
1.28867	-51
1.29233	-48
1.29600	-46
1.29967	-43
1.30333	-39
1.30700	-34
1.31067	-35
1.31433	-43
1.31800	-53
1.32167	-59
1.32533	-59
1.32900	-57
1.33267	-56
1.33633	-58
1.34000	-56
1.34367	-53
1.34733	-51
1.35100	-51
1.35467	-52
1.35833	-55
1.36200	-64
1.36567	-71
1.36933	-73
1.37300	-71
1.37667	-72
1.38033	-79
1.38400	-88
1.38767	-95
1.39133	-93
1.39500	-91
1.39867	-88
1.40233	-77
1.40600	-68
1.40967	-65
1.41333	-68
1.41700	-73
1.42067	-77
1.42433	-79
1.42800	-78
1.43167	-74
1.43533	-68
1.43900	-43
1.44267	52
1.44633	294
1.45000	901
1.45367	2398
1.45733	5008
1.46100	8251
1.46467	11413
1.46833	14026
1.47200	15871
1.47567	16786
1.47933	16615
1.48300	15341
1.48667	13202
1.49033	10654
1.49400	8157
1.49767	6011
1.50133	4320
1.50500	3064
1.50867	2168
1.51233	1544
1.51600	1114
1.51967	819
1.52333	620
1.52700	486
1.53067	391
1.53433	320
1.53800	276
1.54167	293
1.54533	436
1.54900	742
1.55267	1159
1.55633	1590
1.56000	1956
1.56367	2219
1.56733	2357
1.57100	2343
1.57467	2164
1.57833	1849
1.58200	1467
1.58567	1092
1.58933	774
1.59300	529
1.59667	349
1.60033	225
1.60400	146
1.60767	98
1.61133	66
1.61500	46
1.61867	33
1.62233	23
1.62600	13
1.62967	4
1.63333	-2
1.63700	-6
1.64067	-7
1.64433	-9
1.64800	-13
1.65167	-18
1.65533	-21
1.65900	-17
1.66267	-9
1.66633	-7
1.67000	-11
1.67367	-17
1.67733	-26
1.68100	-37
1.68467	-47
1.68833	-53
1.69200	-54
1.69567	-56
1.69933	-57
1.70300	-57
1.70667	-55
1.71033	-55
1.71400	-57
1.71767	-59
1.72133	-61
1.72500	-62
1.72867	-68
1.73233	-73
1.73600	-78
1.73967	-80
1.74333	-78
1.74700	-74
1.75067	-70
1.75433	-69
1.75800	-68
1.76167	-61
1.76533	-52
1.76900	-41
1.77267	-34
1.77633	-36
1.78000	-46
1.78367	-58
1.78733	-66
1.79100	-66
1.79467	-59
1.79833	-53
1.80200	-51
1.80567	-51
1.80933	-51
1.81300	-50
1.81667	-49
1.82033	-46
1.82400	-45
1.82767	-44
1.83133	-43
1.83500	-39
1.83867	-39
1.84233	-43
1.84600	-49
1.84967	-54
1.85333	-55
1.85700	-56
1.86067	-55
1.86433	-54
1.86800	-62
1.87167	-76
1.87533	-91
1.87900	-100
1.88267	-103
1.88633	-104
1.89000	-102
1.89367	-94
1.89733	-84
1.90100	-76
1.90467	-68
1.90833	-59
1.91200	-51
1.91567	-43
1.91933	-39
1.92300	-39
1.92667	-39
1.93033	-38
1.93400	-40
1.93767	-42
1.94133	-42
1.94500	-45
1.94867	-46
1.95233	-36
1.95600	51
1.95967	578
1.96333	3095
1.96700	12242
1.97067	37679
1.97433	92635
1.97800	185681
1.98167	311329
1.98533	450504
1.98900	579324
1.99267	677167
1.99633	730006
2.00000	731170
2.00367	682665
2.00733	595979
2.01100	489013
2.01467	380158
2.01833	282959
2.02200	204005
2.02567	144113
2.02933	100838
2.03300	70583
2.03667	49866
2.04033	35842
2.04400	26381
2.04767	19968
2.05133	15571
2.05500	12509
2.05867	10333
2.06233	8753
2.06600	7575
2.06967	6677
2.07333	5972
2.07700	5401
2.08067	4932
2.08433	4541
2.08800	4210
2.09167	3924
2.09533	3673
2.09900	3450
2.10267	3255
2.10633	3082
2.11000	2929
2.11367	2791
2.11733	2662
2.12100	2541
2.12467	2423
2.12833	2303
2.13200	2193
2.13567	2091
2.13933	2000
2.14300	1921
2.14667	1852
2.15033	1790
2.15400	1731
2.15767	1679
2.16133	1632
2.16500	1583
2.16867	1537
2.17233	1495
2.17600	1459
2.17967	1426
2.18333	1384
2.18700	1335
2.19067	1287
2.19433	1243
2.19800	1204
2.20167	1169
2.20533	1139
2.20900	1112
2.21267	1080
2.21633	1049
2.22000	1025
2.22367	1004
2.22733	982
2.23100	964
2.23467	948
2.23833	933
2.24200	915
2.24567	895
2.24933	877
2.25300	861
2.25667	846
2.26033	831
2.26400	819
2.26767	810
2.27133	803
2.27500	795
2.27867	783
2.28233	772
2.28600	761
2.28967	744
2.29333	720
2.29700	689
2.30067	656
2.30433	626
2.30800	601
2.31167	586
2.31533	579
2.31900	577
2.32267	579
2.32633	580
2.33000	575
2.33367	570
2.33733	568
2.34100	562
2.34467	552
2.34833	545
2.35200	535
2.35567	527
2.35933	524
2.36300	526
2.36667	527
2.37033	524
2.37400	514
2.37767	500
2.38133	491
2.38500	483
2.38867	474
2.39233	469
2.39600	470
2.39967	474
2.40333	479
2.40700	482
2.41067	478
2.41433	466
2.41800	449
2.42167	435
2.42533	426
2.42900	421
2.43267	418
2.43633	414
2.44000	410
2.44367	408
2.44733	407
2.45100	405
2.45467	406
2.45833	406
2.46200	403
2.46567	400
2.46933	394
2.47300	389
2.47667	382
2.48033	378
2.48400	375
2.48767	374
2.49133	372
2.49500	371
2.49867	372
2.50233	370
2.50600	363
2.50967	355
2.51333	349
2.51700	346
2.52067	345
2.52433	346
2.52800	349
2.53167	353
2.53533	357
2.53900	362
2.54267	363
2.54633	359
2.55000	347
2.55367	333
2.55733	320
2.56100	312
2.56467	308
2.56833	303
2.57200	296
2.57567	290
2.57933	286
2.58300	285
2.58667	284
2.59033	284
2.59400	284
2.59767	284
2.60133	283
2.60500	282
2.60867	281
2.61233	281
2.61600	281
2.61967	282
2.62333	286
2.62700	289
2.63067	297
2.63433	299
2.63800	297
2.64167	291
2.64533	283
2.64900	272
2.65267	264
2.65633	263
2.66000	265
2.66367	269
2.66733	274
2.67100	272
2.67467	262
2.67833	251
2.68200	242
2.68567	238
2.68933	235
2.69300	234
2.69667	238
2.70033	243
2.70400	248
2.70767	252
2.71133	252
2.71500	250
2.71867	249
2.72233	246
2.72600	244
2.72967	245
2.73333	248
2.73700	251
2.74067	256
2.74433	261
2.74800	265
2.75167	264
2.75533	261
2.75900	257
2.76267	250
2.76633	241
2.77000	227
2.77367	215
2.77733	211
2.78100	213
2.78467	222
2.78833	231
2.79200	234
2.79567	230
2.79933	228
2.80300	232
2.80667	235
2.81033	238
2.81400	240
2.81767	243
2.82133	247
2.82500	248
2.82867	246
2.83233	245
2.83600	242
2.83967	238
2.84333	236
2.84700	234
2.85067	231
2.85433	229
2.85800	228
2.86167	229
2.86533	233
2.86900	240
2.87267	245
2.87633	238
2.88000	226
2.88367	211
2.88733	196
2.89100	185
2.89467	182
2.89833	186
2.90200	192
2.90567	198
2.90933	206
2.91300	214
2.91667	218
2.92033	221
2.92400	222
2.92767	221
2.93133	222
2.93500	221
2.93867	220
2.94233	218
2.94600	211
2.94967	206
2.95333	206
2.95700	209
2.96067	209
2.96433	205
2.96800	197
2.97167	187
2.97533	182
2.97900	185
2.98267	196
2.98633	203
2.99000	203
2.99367	200
2.99733	196
3.00100	194
3.00467	194
3.00833	200
3.01200	206
3.01567	205
3.01933	194
3.02300	183
3.02667	178
3.03033	176
3.03400	177
3.03767	178
3.04133	177
3.04500	177
3.04867	181
3.05233	187
3.05600	194
3.05967	198
3.06333	198
3.06700	193
3.07067	188
3.07433	189
3.07800	192
3.08167	196
3.08533	199
3.08900	200
3.09267	200
3.09633	197
3.10000	191
3.10367	186
3.10733	180
3.11100	173
3.11467	166
3.11833	165
3.12200	164
3.12567	162
3.12933	159
3.13300	161
3.13667	166
3.14033	169
3.14400	169
3.14767	169
3.15133	169
3.15500	167
3.15867	164
3.16233	160
3.16600	156
3.16967	153
3.17333	153
3.17700	156
3.18067	162
3.18433	169
3.18800	172
3.19167	170
3.19533	167
3.19900	162
3.20267	161
3.20633	163
3.21000	169
3.21367	176
3.21733	177
3.22100	172
3.22467	162
3.22833	151
3.23200	139
3.23567	130
3.23933	125
3.24300	125
3.24667	129
3.25033	140
3.25400	156
3.25767	164
3.26133	164
3.26500	162
3.26867	155
3.27233	147
3.27600	138
3.27967	130
3.28333	124
3.28700	121
3.29067	118
3.29433	114
3.29800	112
3.30167	112
3.30533	115
3.30900	120
3.31267	125
3.31633	130
3.32000	135
3.32367	137
3.32733	138
3.33100	137
3.33467	130
3.33833	123
3.34200	119
3.34567	117
3.34933	117
3.35300	116
3.35667	117
3.36033	116
3.36400	116
3.36767	115
3.37133	114
3.37500	112
3.37867	111
3.38233	112
3.38600	118
3.38967	124
3.39333	126
3.39700	122
3.40067	115
3.40433	109
3.40800	105
3.41167	100
3.41533	96
3.41900	94
3.42267	97
3.42633	105
3.43000	115
3.43367	124
3.43733	132
3.44100	137
3.44467	140
3.44833	139
3.45200	135
3.45567	130
3.45933	122
3.46300	110
3.46667	100
3.47033	93
3.47400	92
3.47767	94
3.48133	96
3.48500	100
3.48867	104
3.49233	104
3.49600	97
3.49967	86
3.50333	80
3.50700	77
3.51067	77
3.51433	77
3.51800	79
3.52167	84
3.52533	87
3.52900	91
3.53267	90
3.53633	87
3.54000	83
3.54367	79
3.54733	72
3.55100	64
3.55467	60
3.55833	64
3.56200	73
3.56567	81
3.56933	83
3.57300	85
3.57667	90
3.58033	95
3.58400	99
3.58767	100
3.59133	97
3.59500	93
3.59867	90
3.60233	87
3.60600	84
3.60967	84
3.61333	84
3.61700	84
3.62067	87
3.62433	90
3.62800	90
3.63167	87
3.63533	85
3.63900	85
3.64267	84
3.64633	81
3.65000	75
3.65367	70
3.65733	68
3.66100	73
3.66467	79
3.66833	78
3.67200	73
3.67567	65
3.67933	62
3.68300	65
3.68667	69
3.69033	70
3.69400	69
3.69767	67
3.70133	64
3.70500	65
3.70867	67
3.71233	68
3.71600	72
3.71967	78
3.72333	82
3.72700	86
3.73067	85
3.73433	80
3.73800	71
3.74167	62
3.74533	56
3.74900	51
3.75267	51
3.75633	53
3.76000	57
3.76367	64
3.76733	70
3.77100	70
3.77467	61
3.77833	46
3.78200	31
3.78567	23
3.78933	24
3.79300	32
3.79667	38
3.80033	43
3.80400	44
3.80767	44
3.81133	47
3.81500	55
3.81867	59
3.82233	60
3.82600	59
3.82967	58
3.83333	56
3.83700	55
3.84067	55
3.84433	57
3.84800	54
3.85167	49
3.85533	44
3.85900	37
3.86267	32
3.86633	31
3.87000	33
3.87367	37
3.87733	41
3.88100	41
3.88467	39
3.88833	33
3.89200	29
3.89567	29
3.89933	35
3.90300	43
3.90667	46
3.91033	42
3.91400	36
3.91767	35
3.92133	38
3.92500	39
3.92867	41
3.93233	39
3.93600	28
3.93967	15
3.94333	9
3.94700	12
3.95067	16
3.95433	21
3.95800	25
3.96167	32
3.96533	37
3.96900	40
3.97267	42
3.97633	44
3.98000	45
3.98367	46
3.98733	46
3.99100	41
3.99467	33
3.99833	24

[Chromatogram (Ch2)]
Interval(msec)	220
# of Points	1091
Start Time(min)	0.002
End Time(min)	3.998
R.Time (min)	Intensity
0.00167	-0
0.00533	-0
0.00900	-0
0.01267	-0
0.01633	-1
0.02000	-1
0.02367	-1
0.02733	-2
0.03100	-2
0.03467	-2
0.03833	-3
0.04200	-3
0.04567	-4
0.04933	-4
0.05300	-5
0.05667	-5
0.06033	-5
0.06400	-5
0.06767	-5
0.07133	-5
0.07500	-6
0.07867	-6
0.08233	-6
0.08600	-6
0.08967	-5
0.09333	-5
0.09700	-5
0.10067	-5
0.10433	-5
0.10800	-5
0.11167	-5
0.11533	-5
0.11900	-5
0.12267	-5
0.12633	-5
0.13000	-6
0.13367	-6
0.13733	-6
0.14100	-6
0.14467	-6
0.14833	-5
0.15200	-5
0.15567	-5
0.15933	-5
0.16300	-5
0.16667	-4
0.17033	-4
0.17400	-4
0.17767	-4
0.18133	-3
0.18500	-3
0.18867	-3
0.19233	-3
0.19600	-3
0.19967	-3
0.20333	-2
0.20700	-2
0.21067	-2
0.21433	-1
0.21800	-1
0.22167	-1
0.22533	-1
0.22900	-1
0.23267	-1
0.23633	-0
0.24000	-0
0.24367	-0
0.24733	-1
0.25100	-1
0.25467	-1
0.25833	-2
0.26200	-3
0.26567	-3
0.26933	-4
0.27300	-5
0.27667	-6
0.28033	-7
0.28400	-7
0.28767	-7
0.29133	-8
0.29500	-7
0.29867	-7
0.30233	-7
0.30600	-7
0.30967	-7
0.31333	-7
0.31700	-7
0.32067	-7
0.32433	-7
0.32800	-7
0.33167	-6
0.33533	-6
0.33900	-6
0.34267	-5
0.34633	-5
0.35000	-4
0.35367	-4
0.35733	-4
0.36100	-4
0.36467	-5
0.36833	-5
0.37200	-4
0.37567	-4
0.37933	-4
0.38300	-4
0.38667	-4
0.39033	-4
0.39400	-4
0.39767	-5
0.40133	-5
0.40500	-5
0.40867	-6
0.41233	-6
0.41600	-6
0.41967	-6
0.42333	-7
0.42700	-7
0.43067	-7
0.43433	-7
0.43800	-8
0.44167	-8
0.44533	-8
0.44900	-7
0.45267	-7
0.45633	-7
0.46000	-6
0.46367	-5
0.46733	-5
0.47100	-4
0.47467	-4
0.47833	-3
0.48200	-3
0.48567	-3
0.48933	-3
0.49300	-2
0.49667	-2
0.50033	-2
0.50400	-2
0.50767	-2
0.51133	-2
0.51500	-2
0.51867	-2
0.52233	-2
0.52600	-2
0.52967	-3
0.53333	-3
0.53700	-4
0.54067	-5
0.54433	-5
0.54800	-6
0.55167	-6
0.55533	-5
0.55900	-5
0.56267	-5
0.56633	-5
0.57000	-5
0.57367	-5
0.57733	-5
0.58100	-5
0.58467	-5
0.58833	-5
0.59200	-4
0.59567	-4
0.59933	-4
0.60300	-4
0.60667	-5
0.61033	-5
0.61400	-5
0.61767	-5
0.62133	-5
0.62500	-6
0.62867	-6
0.63233	-6
0.63600	-6
0.63967	-6
0.64333	-6
0.64700	-6
0.65067	-6
0.65433	-6
0.65800	-6
0.66167	-6
0.66533	-6
0.66900	-6
0.67267	-6
0.67633	-6
0.68000	-6
0.68367	-6
0.68733	-5
0.69100	-5
0.69467	-5
0.69833	-5
0.70200	-5
0.70567	-4
0.70933	-4
0.71300	-4
0.71667	-4
0.72033	-4
0.72400	-4
0.72767	-4
0.73133	-4
0.73500	-4
0.73867	-4
0.74233	-4
0.74600	-3
0.74967	-3
0.75333	-3
0.75700	-3
0.76067	-3
0.76433	-3
0.76800	-3
0.77167	-4
0.77533	-4
0.77900	-4
0.78267	-5
0.78633	-5
0.79000	-5
0.79367	-6
0.79733	-6
0.80100	-6
0.80467	-7
0.80833	-7
0.81200	-7
0.81567	-7
0.81933	-7
0.82300	-7
0.82667	-7
0.83033	-8
0.83400	-8
0.83767	-8
0.84133	-8
0.84500	-8
0.84867	-8
0.85233	-8
0.85600	-8
0.85967	-8
0.86333	-8
0.86700	-8
0.87067	-7
0.87433	-7
0.87800	-6
0.88167	-6
0.88533	-6
0.88900	-6
0.89267	-6
0.89633	-6
0.90000	-6
0.90367	-6
0.90733	-7
0.91100	-7
0.91467	-7
0.91833	-7
0.92200	-7
0.92567	-7
0.92933	-8
0.93300	-8
0.93667	-8
0.94033	-8
0.94400	-8
0.94767	-8
0.95133	-8
0.95500	-8
0.95867	-8
0.96233	-8
0.96600	-7
0.96967	-7
0.97333	-7
0.97700	-6
0.98067	-6
0.98433	-5
0.98800	-5
0.99167	-4
0.99533	-3
0.99900	-3
1.00267	-3
1.00633	-2
1.01000	-2
1.01367	-2
1.01733	-3
1.02100	-3
1.02467	-3
1.02833	-4
1.03200	-4
1.03567	-5
1.03933	-5
1.04300	-6
1.04667	-6
1.05033	-6
1.05400	-6
1.05767	-6
1.06133	-6
1.06500	-6
1.06867	-6
1.07233	-6
1.07600	-7
1.07967	-7
1.08333	-7
1.08700	-7
1.09067	-7
1.09433	-8
1.09800	-8
1.10167	-8
1.10533	-8
1.10900	-8
1.11267	-8
1.11633	-8
1.12000	-9
1.12367	-9
1.12733	-9
1.13100	-9
1.13467	-9
1.13833	-8
1.14200	-8
1.14567	-8
1.14933	-8
1.15300	-8
1.15667	-8
1.16033	-8
1.16400	-8
1.16767	-7
1.17133	-7
1.17500	-7
1.17867	-7
1.18233	-6
1.18600	-6
1.18967	-6
1.19333	-5
1.19700	-5
1.20067	-5
1.20433	-5
1.20800	-5
1.21167	-5
1.21533	-5
1.21900	-5
1.22267	-5
1.22633	-5
1.23000	-6
1.23367	-6
1.23733	-6
1.24100	-6
1.24467	-6
1.24833	-6
1.25200	-6
1.25567	-6
1.25933	-6
1.26300	-6
1.26667	-6
1.27033	-6
1.27400	-7
1.27767	-7
1.28133	-7
1.28500	-7
1.28867	-7
1.29233	-7
1.29600	-8
1.29967	-8
1.30333	-8
1.30700	-8
1.31067	-8
1.31433	-9
1.31800	-9
1.32167	-9
1.32533	-9
1.32900	-8
1.33267	-8
1.33633	-8
1.34000	-7
1.34367	-7
1.34733	-7
1.35100	-7
1.35467	-7
1.35833	-7
1.36200	-7
1.36567	-7
1.36933	-7
1.37300	-7
1.37667	-7
1.38033	-7
1.38400	-7
1.38767	-6
1.39133	-6
1.39500	-6
1.39867	-5
1.40233	-5
1.40600	-5
1.40967	-5
1.41333	-5
1.41700	-4
1.42067	-4
1.42433	-4
1.42800	-4
1.43167	-4
1.43533	-4
1.43900	-5
1.44267	-5
1.44633	-6
1.45000	-6
1.45367	-7
1.45733	-8
1.46100	-8
1.46467	-9
1.46833	-9
1.47200	-10
1.47567	-10
1.47933	-10
1.48300	-10
1.48667	-11
1.49033	-11
1.49400	-11
1.49767	-11
1.50133	-11
1.50500	-11
1.50867	-10
1.51233	-10
1.51600	-9
1.51967	-9
1.52333	-8
1.52700	-8
1.53067	-8
1.53433	-7
1.53800	-7
1.54167	-6
1.54533	-6
1.54900	-6
1.55267	-6
1.55633	-6
1.56000	-6
1.56367	-6
1.56733	-6
1.57100	-6
1.57467	-6
1.57833	-6
1.58200	-6
1.58567	-6
1.58933	-6
1.59300	-6
1.59667	-6
1.60033	-7
1.60400	-8
1.60767	-9
1.61133	-11
1.61500	-13
1.61867	-15
1.62233	-18
1.62600	-21
1.62967	-25
1.63333	-28
1.63700	-32
1.64067	-36
1.64433	-40
1.64800	-44
1.65167	-48
1.65533	-52
1.65900	-56
1.66267	-59
1.66633	-63
1.67000	-67
1.67367	-71
1.67733	-76
1.68100	-80
1.68467	-85
1.68833	-90
1.69200	-94
1.69567	-98
1.69933	-102
1.70300	-105
1.70667	-107
1.71033	-110
1.71400	-112
1.71767	-113
1.72133	-115
1.72500	-116
1.72867	-117
1.73233	-117
1.73600	-117
1.73967	-116
1.74333	-116
1.74700	-116
1.75067	-115
1.75433	-115
1.75800	-115
1.76167	-115
1.76533	-116
1.76900	-117
1.77267	-117
1.77633	-118
1.78000	-118
1.78367	-118
1.78733	-119
1.79100	-119
1.79467	-119
1.79833	-120
1.80200	-120
1.80567	-120
1.80933	-121
1.81300	-121
1.81667	-121
1.82033	-121
1.82400	-121
1.82767	-121
1.83133	-121
1.83500	-121
1.83867	-121
1.84233	-120
1.84600	-120
1.84967	-120
1.85333	-121
1.85700	-121
1.86067	-122
1.86433	-122
1.86800	-122
1.87167	-122
1.87533	-122
1.87900	-122
1.88267	-122
1.88633	-122
1.89000	-122
1.89367	-121
1.89733	-121
1.90100	-120
1.90467	-120
1.90833	-120
1.91200	-120
1.91567	-120
1.91933	-119
1.92300	-119
1.92667	-119
1.93033	-118
1.93400	-118
1.93767	-118
1.94133	-118
1.94500	-117
1.94867	-117
1.95233	-117
1.95600	-116
1.95967	-115
1.96333	-115
1.96700	-114
1.97067	-114
1.97433	-114
1.97800	-114
1.98167	-113
1.98533	-113
1.98900	-113
1.99267	-113
1.99633	-112
2.00000	-112
2.00367	-112
2.00733	-112
2.01100	-111
2.01467	-112
2.01833	-112
2.02200	-113
2.02567	-113
2.02933	-113
2.03300	-113
2.03667	-113
2.04033	-112
2.04400	-112
2.04767	-111
2.05133	-110
2.05500	-110
2.05867	-109
2.06233	-109
2.06600	-109
2.06967	-109
2.07333	-109
2.07700	-109
2.08067	-108
2.08433	-108
2.08800	-107
2.09167	-106
2.09533	-106
2.09900	-105
2.10267	-105
2.10633	-104
2.11000	-104
2.11367	-104
2.11733	-104
2.12100	-104
2.12467	-104
2.12833	-104
2.13200	-103
2.13567	-103
2.13933	-102
2.14300	-102
2.14667	-101
2.15033	-101
2.15400	-101
2.15767	-101
2.16133	-101
2.16500	-101
2.16867	-101
2.17233	-101
2.17600	-101
2.17967	-100
2.18333	-100
2.18700	-100
2.19067	-100
2.19433	-99
2.19800	-99
2.20167	-99
2.20533	-99
2.20900	-98
2.21267	-98
2.21633	-97
2.22000	-96
2.22367	-95
2.22733	-95
2.23100	-93
2.23467	-93
2.23833	-92
2.24200	-92
2.24567	-92
2.24933	-93
2.25300	-93
2.25667	-94
2.26033	-94
2.26400	-94
2.26767	-93
2.27133	-93
2.27500	-92
2.27867	-92
2.28233	-91
2.28600	-91
2.28967	-91
2.29333	-90
2.29700	-90
2.30067	-90
2.30433	-89
2.30800	-89
2.31167	-88
2.31533	-87
2.31900	-86
2.32267	-86
2.32633	-85
2.33000	-85
2.33367	-85
2.33733	-84
2.34100	-84
2.34467	-83
2.34833	-82
2.35200	-81
2.35567	-80
2.35933	-78
2.36300	-76
2.36667	-74
2.37033	-71
2.37400	-68
2.37767	-65
2.38133	-61
2.38500	-57
2.38867	-52
2.39233	-48
2.39600	-43
2.39967	-39
2.40333	-35
2.40700	-31
2.41067	-28
2.41433	-25
2.41800	-23
2.42167	-21
2.42533	-19
2.42900	-18
2.43267	-17
2.43633	-16
2.44000	-15
2.44367	-13
2.44733	-12
2.45100	-11
2.45467	-10
2.45833	-8
2.46200	-7
2.46567	-6
2.46933	-5
2.47300	-4
2.47667	-3
2.48033	-1
2.48400	0
2.48767	1
2.49133	3
2.49500	4
2.49867	5
2.50233	5
2.50600	6
2.50967	6
2.51333	6
2.51700	7
2.52067	7
2.52433	7
2.52800	8
2.53167	9
2.53533	9
2.53900	10
2.54267	11
2.54633	11
2.55000	12
2.55367	12
2.55733	13
2.56100	13
2.56467	13
2.56833	13
2.57200	14
2.57567	13
2.57933	13
2.58300	13
2.58667	13
2.59033	13
2.59400	12
2.59767	12
2.60133	12
2.60500	12
2.60867	12
2.61233	12
2.61600	12
2.61967	11
2.62333	11
2.62700	11
2.63067	10
2.63433	10
2.63800	11
2.64167	11
2.64533	11
2.64900	12
2.65267	12
2.65633	12
2.66000	13
2.66367	13
2.66733	13
2.67100	13
2.67467	13
2.67833	13
2.68200	14
2.68567	15
2.68933	15
2.69300	16
2.69667	17
2.70033	17
2.70400	18
2.70767	18
2.71133	18
2.71500	18
2.71867	19
2.72233	19
2.72600	19
2.72967	20
2.73333	20
2.73700	21
2.74067	21
2.74433	21
2.74800	22
2.75167	22
2.75533	22
2.75900	22
2.76267	22
2.76633	22
2.77000	22
2.77367	22
2.77733	22
2.78100	22
2.78467	22
2.78833	22
2.79200	22
2.79567	22
2.79933	23
2.80300	23
2.80667	23
2.81033	23
2.81400	23
2.81767	23
2.82133	23
2.82500	23
2.82867	23
2.83233	22
2.83600	22
2.83967	20
2.84333	17
2.84700	12
2.85067	5
2.85433	-6
2.85800	-20
2.86167	-38
2.86533	-60
2.86900	-87
2.87267	-118
2.87633	-153
2.88000	-191
2.88367	-234
2.88733	-279
2.89100	-327
2.89467	-377
2.89833	-429
2.90200	-483
2.90567	-537
2.90933	-591
2.91300	-646
2.91667	-700
2.92033	-753
2.92400	-806
2.92767	-857
2.93133	-912
2.93500	-970
2.93867	-1030
2.94233	-1079
2.94600	-1108
2.94967	-1111
2.95333	-1088
2.95700	-1043
2.96067	-981
2.96433	-908
2.96800	-829
2.97167	-747
2.97533	-667
2.97900	-591
2.98267	-520
2.98633	-454
2.99000	-395
2.99367	-342
2.99733	-295
3.00100	-254
3.00467	-217
3.00833	-185
3.01200	-158
3.01567	-134
3.01933	-113
3.02300	-95
3.02667	-79
3.03033	-66
3.03400	-55
3.03767	-45
3.04133	-36
3.04500	-29
3.04867	-23
3.05233	-18
3.05600	-13
3.05967	-10
3.06333	-6
3.06700	-4
3.07067	-1
3.07433	1
3.07800	3
3.08167	4
3.08533	6
3.08900	7
3.09267	8
3.09633	9
3.10000	9
3.10367	10
3.10733	10
3.11100	10
3.11467	10
3.11833	10
3.12200	10
3.12567	10
3.12933	10
3.13300	10
3.13667	11
3.14033	11
3.14400	11
3.14767	11
3.15133	12
3.15500	12
3.15867	12
3.16233	13
3.16600	13
3.16967	13
3.17333	14
3.17700	14
3.18067	14
3.18433	15
3.18800	15
3.19167	16
3.19533	16
3.19900	16
3.20267	17
3.20633	17
3.21000	18
3.21367	18
3.21733	18
3.22100	19
3.22467	19
3.22833	19
3.23200	19
3.23567	19
3.23933	20
3.24300	20
3.24667	20
3.25033	20
3.25400	20
3.25767	20
3.26133	21
3.26500	21
3.26867	21
3.27233	21
3.27600	21
3.27967	21
3.28333	21
3.28700	21
3.29067	21
3.29433	21
3.29800	21
3.30167	21
3.30533	21
3.30900	21
3.31267	21
3.31633	21
3.32000	20
3.32367	20
3.32733	19
3.33100	19
3.33467	19
3.33833	19
3.34200	19
3.34567	20
3.34933	21
3.35300	21
3.35667	22
3.36033	22
3.36400	23
3.36767	23
3.37133	24
3.37500	24
3.37867	24
3.38233	24
3.38600	24
3.38967	24
3.39333	24
3.39700	24
3.40067	24
3.40433	25
3.40800	25
3.41167	25
3.41533	25
3.41900	26
3.42267	26
3.42633	26
3.43000	26
3.43367	26
3.43733	26
3.44100	27
3.44467	27
3.44833	27
3.45200	27
3.45567	27
3.45933	27
3.46300	27
3.46667	26
3.47033	26
3.47400	26
3.47767	26
3.48133	26
3.48500	26
3.48867	26
3.49233	26
3.49600	26
3.49967	26
3.50333	26
3.50700	26
3.51067	26
3.51433	26
3.51800	26
3.52167	26
3.52533	25
3.52900	25
3.53267	25
3.53633	25
3.54000	25
3.54367	25
3.54733	25
3.55100	25
3.55467	25
3.55833	25
3.56200	25
3.56567	25
3.56933	25
3.57300	25
3.57667	25
3.58033	25
3.58400	24
3.58767	24
3.59133	24
3.59500	23
3.59867	23
3.60233	22
3.60600	22
3.60967	22
3.61333	22
3.61700	22
3.62067	22
3.62433	22
3.62800	22
3.63167	22
3.63533	22
3.63900	22
3.64267	22
3.64633	22
3.65000	21
3.65367	21
3.65733	21
3.66100	21
3.66467	21
3.66833	21
3.67200	21
3.67567	21
3.67933	21
3.68300	21
3.68667	21
3.69033	22
3.69400	22
3.69767	22
3.70133	22
3.70500	22
3.70867	22
3.71233	22
3.71600	22
3.71967	22
3.72333	23
3.72700	23
3.73067	23
3.73433	23
3.73800	24
3.74167	24
3.74533	24
3.74900	24
3.75267	25
3.75633	25
3.76000	24
3.76367	24
3.76733	24
3.77100	24
3.77467	25
3.77833	24
3.78200	24
3.78567	24
3.78933	24
3.79300	23
3.79667	23
3.80033	23
3.80400	24
3.80767	24
3.81133	24
3.81500	24
3.81867	25
3.82233	25
3.82600	24
3.82967	24
3.83333	23
3.83700	23
3.84067	23
3.84433	23
3.84800	23
3.85167	23
3.85533	23
3.85900	23
3.86267	23
3.86633	24
3.87000	24
3.87367	24
3.87733	24
3.88100	24
3.88467	24
3.88833	24
3.89200	24
3.89567	24
3.89933	24
3.90300	24
3.90667	24
3.91033	24
3.91400	24
3.91767	24
3.92133	24
3.92500	24
3.92867	24
3.93233	24
3.93600	24
3.93967	24
3.94333	24
3.94700	24
3.95067	24
3.95433	24
3.95800	24
3.96167	24
3.96533	24
3.96900	24
3.97267	24
3.97633	24
3.98000	24
3.98367	24
3.98733	24
3.99100	24
3.99467	24
3.99833	24

[Chromatogram (Ch3)]
Interval(msec)	220
# of Points	1091
Start Time(min)	0.002
End Time(min)	3.998
R.Time (min)	Intensity
0.00167	0
0.00533	1
0.00900	-1
0.01267	-4
0.01633	-6
0.02000	-7
0.02367	-9
0.02733	-8
0.03100	-6
0.03467	-5
0.03833	-3
0.04200	-2
0.04567	-2
0.04933	-4
0.05300	-4
0.05667	-4
0.06033	-4
0.06400	-3
0.06767	0
0.07133	1
0.07500	-0
0.07867	-1
0.08233	-3
0.08600	-7
0.08967	-9
0.09333	-8
0.09700	-8
0.10067	-6
0.10433	-4
0.10800	-0
0.11167	-1
0.11533	-2
0.11900	-1
0.12267	3
0.12633	6
0.13000	5
0.13367	5
0.13733	5
0.14100	6
0.14467	6
0.14833	3
0.15200	1
0.15567	1
0.15933	2
0.16300	3
0.16667	2
0.17033	1
0.17400	-0
0.17767	-1
0.18133	-1
0.18500	-1
0.18867	-2
0.19233	-1
0.19600	0
0.19967	-0
0.20333	-1
0.20700	-4
0.21067	-6
0.21433	-6
0.21800	-6
0.22167	-7
0.22533	-6
0.22900	-6
0.23267	-4
0.23633	-3
0.24000	-4
0.24367	-4
0.24733	-4
0.25100	-5
0.25467	-5
0.25833	-4
0.26200	-4
0.26567	-4
0.26933	-5
0.27300	-4
0.27667	-4
0.28033	-5
0.28400	-6
0.28767	-5
0.29133	-3
0.29500	-2
0.29867	-1
0.30233	-1
0.30600	-0
0.30967	-1
0.31333	-1
0.31700	-0
0.32067	1
0.32433	3
0.32800	3
0.33167	1
0.33533	-3
0.33900	-7
0.34267	-6
0.34633	-2
0.35000	2
0.35367	2
0.35733	2
0.36100	-0
0.36467	-4
0.36833	-6
0.37200	-7
0.37567	-6
0.37933	-6
0.38300	-5
0.38667	-3
0.39033	-3
0.39400	-5
0.39767	-6
0.40133	-7
0.40500	-5
0.40867	-4
0.41233	-4
0.41600	-3
0.41967	-1
0.42333	-2
0.42700	-3
0.43067	-3
0.43433	-2
0.43800	-1
0.44167	-3
0.44533	-3
0.44900	-4
0.45267	-5
0.45633	-6
0.46000	-5
0.46367	-5
0.46733	-6
0.47100	-5
0.47467	-4
0.47833	-2
0.48200	0
0.48567	0
0.48933	1
0.49300	4
0.49667	4
0.50033	2
0.50400	0
0.50767	-2
0.51133	-4
0.51500	-5
0.51867	-5
0.52233	-4
0.52600	-2
0.52967	-3
0.53333	-3
0.53700	-2
0.54067	-3
0.54433	-5
0.54800	-4
0.55167	-1
0.55533	-1
0.55900	-1
0.56267	-1
0.56633	0
0.57000	2
0.57367	2
0.57733	2
0.58100	3
0.58467	2
0.58833	3
0.59200	1
0.59567	-2
0.59933	-5
0.60300	-5
0.60667	-4
0.61033	-0
0.61400	3
0.61767	4
0.62133	3
0.62500	1
0.62867	-0
0.63233	0
0.63600	0
0.63967	0
0.64333	-1
0.64700	-1
0.65067	-2
0.65433	-1
0.65800	0
0.66167	1
0.66533	2
0.66900	1
0.67267	1
0.67633	1
0.68000	1
0.68367	-2
0.68733	-3
0.69100	-4
0.69467	-5
0.69833	-5
0.70200	-6
0.70567	-7
0.70933	-6
0.71300	-3
0.71667	-1
0.72033	1
0.72400	2
0.72767	6
0.73133	8
0.73500	9
0.73867	7
0.74233	3
0.74600	1
0.74967	0
0.75333	-2
0.75700	-2
0.76067	-2
0.76433	-2
0.76800	-1
0.77167	0
0.77533	4
0.77900	3
0.78267	1
0.78633	-2
0.79000	-3
0.79367	-3
0.79733	-3
0.80100	-2
0.80467	1
0.80833	2
0.81200	3
0.81567	2
0.81933	1
0.82300	-0
0.82667	-2
0.83033	-3
0.83400	-2
0.83767	-0
0.84133	-0
0.84500	-1
0.84867	-4
0.85233	-4
0.85600	-4
0.85967	-4
0.86333	-3
0.86700	-2
0.87067	-2
0.87433	-2
0.87800	-3
0.88167	-3
0.88533	0
0.88900	3
0.89267	7
0.89633	7
0.90000	6
0.90367	3
0.90733	-2
0.91100	-4
0.91467	-5
0.91833	-4
0.92200	-3
0.92567	-4
0.92933	-4
0.93300	-3
0.93667	-1
0.94033	-0
0.94400	1
0.94767	3
0.95133	3
0.95500	3
0.95867	2
0.96233	3
0.96600	4
0.96967	5
0.97333	6
0.97700	4
0.98067	2
0.98433	3
0.98800	6
0.99167	5
0.99533	7
0.99900	6
1.00267	4
1.00633	4
1.01000	5
1.01367	5
1.01733	7
1.02100	10
1.02467	13
1.02833	14
1.03200	11
1.03567	8
1.03933	5
1.04300	3
1.04667	2
1.05033	4
1.05400	3
1.05767	1
1.06133	1
1.06500	3
1.06867	5
1.07233	7
1.07600	7
1.07967	4
1.08333	3
1.08700	4
1.09067	4
1.09433	4
1.09800	6
1.10167	7
1.10533	6
1.10900	5
1.11267	5
1.11633	5
1.12000	6
1.12367	7
1.12733	7
1.13100	7
1.13467	6
1.13833	6
1.14200	8
1.14567	8
1.14933	7
1.15300	7
1.15667	6
1.16033	5
1.16400	3
1.16767	2
1.17133	3
1.17500	2
1.17867	1
1.18233	-0
1.18600	0
1.18967	3
1.19333	5
1.19700	5
1.20067	3
1.20433	1
1.20800	2
1.21167	3
1.21533	4
1.21900	4
1.22267	4
1.22633	5
1.23000	5
1.23367	6
1.23733	8
1.24100	8
1.24467	7
1.24833	5
1.25200	4
1.25567	5
1.25933	7
1.26300	9
1.26667	8
1.27033	7
1.27400	7
1.27767	7
1.28133	6
1.28500	4
1.28867	3
1.29233	3
1.29600	3
1.29967	3
1.30333	7
1.30700	10
1.31067	10
1.31433	9
1.31800	8
1.32167	7
1.32533	7
1.32900	6
1.33267	7
1.33633	9
1.34000	9
1.34367	10
1.34733	10
1.35100	11
1.35467	14
1.35833	16
1.36200	16
1.36567	14
1.36933	12
1.37300	14
1.37667	14
1.38033	13
1.38400	12
1.38767	11
1.39133	10
1.39500	11
1.39867	9
1.40233	7
1.40600	5
1.40967	6
1.41333	6
1.41700	6
1.42067	5
1.42433	6
1.42800	8
1.43167	11
1.43533	12
1.43900	12
1.44267	10
1.44633	9
1.45000	9
1.45367	9
1.45733	10
1.46100	10
1.46467	11
1.46833	11
1.47200	10
1.47567	8
1.47933	8
1.48300	7
1.48667	7
1.49033	8
1.49400	10
1.49767	10
1.50133	9
1.50500	9
1.50867	10
1.51233	9
1.51600	9
1.51967	9
1.52333	11
1.52700	13
1.53067	12
1.53433	12
1.53800	12
1.54167	13
1.54533	13
1.54900	12
1.55267	11
1.55633	10
1.56000	12
1.56367	13
1.56733	14
1.57100	14
1.57467	15
1.57833	15
1.58200	15
1.58567	14
1.58933	11
1.59300	11
1.59667	12
1.60033	12
1.60400	11
1.60767	12
1.61133	13
1.61500	14
1.61867	14
1.62233	15
1.62600	14
1.62967	14
1.63333	16
1.63700	18
1.64067	19
1.64433	19
1.64800	18
1.65167	16
1.65533	16
1.65900	18
1.66267	17
1.66633	18
1.67000	18
1.67367	17
1.67733	16
1.68100	16
1.68467	18
1.68833	20
1.69200	21
1.69567	20
1.69933	20
1.70300	21
1.70667	21
1.71033	22
1.71400	22
1.71767	22
1.72133	24
1.72500	25
1.72867	26
1.73233	28
1.73600	27
1.73967	26
1.74333	27
1.74700	30
1.75067	32
1.75433	31
1.75800	33
1.76167	33
1.76533	32
1.76900	33
1.77267	33
1.77633	33
1.78000	33
1.78367	34
1.78733	32
1.79100	33
1.79467	35
1.79833	36
1.80200	35
1.80567	36
1.80933	38
1.81300	40
1.81667	40
1.82033	39
1.82400	38
1.82767	38
1.83133	38
1.83500	38
1.83867	37
1.84233	38
1.84600	38
1.84967	37
1.85333	38
1.85700	42
1.86067	46
1.86433	48
1.86800	47
1.87167	46
1.87533	43
1.87900	43
1.88267	44
1.88633	46
1.89000	45
1.89367	44
1.89733	45
1.90100	47
1.90467	48
1.90833	47
1.91200	46
1.91567	47
1.91933	46
1.92300	46
1.92667	48
1.93033	48
1.93400	51
1.93767	53
1.94133	54
1.94500	56
1.94867	56
1.95233	52
1.95600	50
1.95967	52
1.96333	54
1.96700	55
1.97067	56
1.97433	56
1.97800	57
1.98167	58
1.98533	60
1.98900	61
1.99267	60
1.99633	60
2.00000	63
2.00367	67
2.00733	69
2.01100	70
2.01467	70
2.01833	71
2.02200	72
2.02567	73
2.02933	72
2.03300	72
2.03667	72
2.04033	71
2.04400	71
2.04767	72
2.05133	72
2.05500	73
2.05867	78
2.06233	79
2.06600	79
2.06967	77
2.07333	76
2.07700	77
2.08067	78
2.08433	81
2.08800	83
2.09167	84
2.09533	85
2.09900	84
2.10267	82
2.10633	83
2.11000	85
2.11367	88
2.11733	90
2.12100	91
2.12467	92
2.12833	92
2.13200	92
2.13567	94
2.13933	97
2.14300	99
2.14667	100
2.15033	100
2.15400	101
2.15767	104
2.16133	106
2.16500	104
2.16867	104
2.17233	105
2.17600	106
2.17967	106
2.18333	107
2.18700	109
2.19067	112
2.19433	117
2.19800	119
2.20167	119
2.20533	119
2.20900	119
2.21267	121
2.21633	122
2.22000	123
2.22367	124
2.22733	125
2.23100	124
2.23467	125
2.23833	126
2.24200	128
2.24567	128
2.24933	127
2.25300	128
2.25667	131
2.26033	134
2.26400	135
2.26767	136
2.27133	139
2.27500	142
2.27867	145
2.28233	148
2.28600	152
2.28967	151
2.29333	149
2.29700	152
2.30067	157
2.30433	160
2.30800	159
2.31167	158
2.31533	160
2.31900	162
2.32267	161
2.32633	160
2.33000	163
2.33367	166
2.33733	170
2.34100	174
2.34467	177
2.34833	180
2.35200	181
2.35567	183
2.35933	185
2.36300	186
2.36667	186
2.37033	186
2.37400	186
2.37767	185
2.38133	186
2.38500	186
2.38867	184
2.39233	186
2.39600	190
2.39967	197
2.40333	204
2.40700	207
2.41067	209
2.41433	211
2.41800	215
2.42167	218
2.42533	220
2.42900	222
2.43267	227
2.43633	230
2.44000	232
2.44367	267
2.44733	370
2.45100	489
2.45467	587
2.45833	646
2.46200	647
2.46567	605
2.46933	555
2.47300	516
2.47667	493
2.48033	478
2.48400	459
2.48767	429
2.49133	394
2.49500	360
2.49867	330
2.50233	305
2.50600	290
2.50967	281
2.51333	275
2.51700	275
2.52067	280
2.52433	289
2.52800	302
2.53167	316
2.53533	329
2.53900	335
2.54267	334
2.54633	326
2.55000	311
2.55367	288
2.55733	266
2.56100	247
2.56467	231
2.56833	216
2.57200	205
2.57567	198
2.57933	194
2.58300	195
2.58667	197
2.59033	196
2.59400	194
2.59767	189
2.60133	180
2.60500	170
2.60867	155
2.61233	139
2.61600	120
2.61967	102
2.62333	88
2.62700	79
2.63067	74
2.63433	72
2.63800	72
2.64167	74
2.64533	82
2.64900	91
2.65267	102
2.65633	113
2.66000	123
2.66367	131
2.66733	137
2.67100	141
2.67467	141
2.67833	141
2.68200	139
2.68567	138
2.68933	136
2.69300	132
2.69667	126
2.70033	120
2.70400	115
2.70767	113
2.71133	111
2.71500	107
2.71867	106
2.72233	108
2.72600	110
2.72967	109
2.73333	107
2.73700	106
2.74067	106
2.74433	107
2.74800	107
2.75167	108
2.75533	110
2.75900	114
2.76267	114
2.76633	114
2.77000	117
2.77367	118
2.77733	120
2.78100	122
2.78467	122
2.78833	123
2.79200	123
2.79567	122
2.79933	120
2.80300	118
2.80667	119
2.81033	124
2.81400	129
2.81767	137
2.82133	155
2.82500	193
2.82867	270
2.83233	405
2.83600	621
2.83967	938
2.84333	1359
2.84700	1877
2.85067	2466
2.85433	3084
2.85800	3678
2.86167	4205
2.86533	4623
2.86900	4902
2.87267	5036
2.87633	5025
2.88000	4887
2.88367	4653
2.88733	4351
2.89100	4012
2.89467	3657
2.89833	3304
2.90200	2961
2.90567	2639
2.90933	2343
2.91300	2075
2.91667	1835
2.92033	1619
2.92400	1428
2.92767	1258
2.93133	1111
2.93500	982
2.93867	869
2.94233	774
2.94600	692
2.94967	620
2.95333	558
2.95700	506
2.96067	460
2.96433	417
2.96800	379
2.97167	347
2.97533	319
2.97900	296
2.98267	276
2.98633	256
2.99000	239
2.99367	224
2.99733	212
3.00100	200
3.00467	190
3.00833	181
3.01200	171
3.01567	160
3.01933	150
3.02300	143
3.02667	138
3.03033	135
3.03400	129
3.03767	124
3.04133	119
3.04500	114
3.04867	111
3.05233	110
3.05600	107
3.05967	103
3.06333	100
3.06700	97
3.07067	94
3.07433	91
3.07800	87
3.08167	84
3.08533	82
3.08900	80
3.09267	78
3.09633	78
3.10000	78
3.10367	76
3.10733	77
3.11100	78
3.11467	79
3.11833	80
3.12200	81
3.12567	80
3.12933	78
3.13300	75
3.13667	73
3.14033	73
3.14400	73
3.14767	73
3.15133	73
3.15500	72
3.15867	73
3.16233	72
3.16600	72
3.16967	73
3.17333	72
3.17700	71
3.18067	69
3.18433	69
3.18800	71
3.19167	72
3.19533	73
3.19900	75
3.20267	76
3.20633	76
3.21000	76
3.21367	75
3.21733	74
3.22100	73
3.22467	74
3.22833	74
3.23200	75
3.23567	74
3.23933	73
3.24300	75
3.24667	76
3.25033	77
3.25400	79
3.25767	81
3.26133	81
3.26500	83
3.26867	83
3.27233	81
3.27600	81
3.27967	81
3.28333	81
3.28700	83
3.29067	83
3.29433	82
3.29800	80
3.30167	79
3.30533	80
3.30900	80
3.31267	81
3.31633	81
3.32000	78
3.32367	74
3.32733	73
3.33100	74
3.33467	77
3.33833	80
3.34200	82
3.34567	83
3.34933	82
3.35300	84
3.35667	84
3.36033	82
3.36400	80
3.36767	79
3.37133	79
3.37500	77
3.37867	75
3.38233	75
3.38600	76
3.38967	75
3.39333	75
3.39700	78
3.40067	78
3.40433	78
3.40800	79
3.41167	79
3.41533	78
3.41900	78
3.42267	78
3.42633	80
3.43000	81
3.43367	84
3.43733	85
3.44100	85
3.44467	85
3.44833	85
3.45200	85
3.45567	87
3.45933	88
3.46300	90
3.46667	89
3.47033	88
3.47400	89
3.47767	89
3.48133	91
3.48500	94
3.48867	95
3.49233	94
3.49600	93
3.49967	94
3.50333	95
3.50700	95
3.51067	95
3.51433	95
3.51800	95
3.52167	96
3.52533	96
3.52900	96
3.53267	98
3.53633	98
3.54000	96
3.54367	96
3.54733	97
3.55100	99
3.55467	100
3.55833	101
3.56200	104
3.56567	106
3.56933	107
3.57300	105
3.57667	106
3.58033	106
3.58400	106
3.58767	109
3.59133	112
3.59500	113
3.59867	112
3.60233	112
3.60600	113
3.60967	113
3.61333	113
3.61700	114
3.62067	118
3.62433	119
3.62800	119
3.63167	118
3.63533	117
3.63900	116
3.64267	115
3.64633	113
3.65000	110
3.65367	109
3.65733	110
3.66100	112
3.66467	114
3.66833	115
3.67200	115
3.67567	116
3.67933	117
3.68300	119
3.68667	119
3.69033	118
3.69400	118
3.69767	119
3.70133	117
3.70500	115
3.70867	115
3.71233	115
3.71600	116
3.71967	117
3.72333	114
3.72700	91
3.73067	58
3.73433	35
3.73800	24
3.74167	19
3.74533	21
3.74900	27
3.75267	37
3.75633	52
3.76000	69
3.76367	87
3.76733	105
3.77100	125
3.77467	143
3.77833	160
3.78200	175
3.78567	192
3.78933	209
3.79300	226
3.79667	243
3.80033	260
3.80400	275
3.80767	289
3.81133	300
3.81500	309
3.81867	321
3.82233	330
3.82600	338
3.82967	345
3.83333	353
3.83700	358
3.84067	362
3.84433	364
3.84800	368
3.85167	371
3.85533	374
3.85900	378
3.86267	382
3.86633	384
3.87000	388
3.87367	392
3.87733	395
3.88100	397
3.88467	399
3.88833	401
3.89200	401
3.89567	401
3.89933	401
3.90300	400
3.90667	398
3.91033	397
3.91400	398
3.91767	398
3.92133	402
3.92500	405
3.92867	406
3.93233	406
3.93600	405
3.93967	404
3.94333	404
3.94700	404
3.95067	402
3.95433	400
3.95800	398
3.96167	399
3.96533	403
3.96900	406
3.97267	406
3.97633	405
3.98000	403
3.98367	400
3.98733	398
3.99100	396
3.99467	396
3.99833	395

[Status Trace (Column Oven Temperature)]
Interval(msec)	1000
# of Points	240
Start Time(min)	0.002
End Time(min)	3.986
Intensity Units	
Intensity Multiplier	1
R.Time (min)	Intensity
0.00235	35.02
0.01902	35.01
0.03568	35.01
0.05235	35.02
0.06902	35.03
0.08568	35.02
0.10235	35.02
0.11902	35.03
0.13568	35.03
0.15235	35.04
0.16902	35.04
0.18568	35.03
0.20235	35.01
0.21902	34.99
0.23568	34.97
0.25235	34.97
0.26902	35.00
0.28568	35.01
0.30235	35.02
0.31902	35.03
0.33568	35.03
0.35235	35.02
0.36902	35.02
0.38568	35.02
0.40235	35.02
0.41902	35.03
0.43568	35.04
0.45235	35.03
0.46902	35.02
0.48568	35.01
0.50235	35.00
0.51902	34.98
0.53568	34.98
0.55235	34.98
0.56902	34.98
0.58568	34.98
0.60235	34.98
0.61902	34.98
0.63568	34.99
0.65235	34.99
0.66902	34.99
0.68568	34.99
0.70235	34.98
0.71902	34.97
0.73568	34.96
0.75235	34.95
0.76902	34.95
0.78568	34.95
0.80235	34.96
0.81902	34.98
0.83568	34.99
0.85235	34.99
0.86902	34.99
0.88568	34.99
0.90235	34.98
0.91902	34.98
0.93568	35.01
0.95235	35.00
0.96902	35.01
0.98568	34.99
1.00235	34.99
1.01902	34.98
1.03568	34.98
1.05235	34.98
1.06902	34.98
1.08568	34.99
1.10235	35.01
1.11902	35.01
1.13568	35.01
1.15235	35.01
1.16902	35.01
1.18568	35.00
1.20235	35.00
1.21902	35.00
1.23568	34.99
1.25235	34.99
1.26902	35.00
1.28568	35.01
1.30235	35.02
1.31902	35.03
1.33568	35.03
1.35235	35.02
1.36902	35.02
1.38568	35.02
1.40235	35.00
1.41902	34.98
1.43568	34.99
1.45235	35.00
1.46902	35.01
1.48568	35.04
1.50235	35.04
1.51902	35.03
1.53568	35.02
1.55235	35.02
1.56902	35.01
1.58568	35.00
1.60235	35.04
1.61902	35.14
1.63568	35.31
1.65235	35.55
1.66902	35.84
1.68568	36.20
1.70235	36.56
1.71902	36.92
1.73568	37.24
1.75235	37.56
1.76902	37.90
1.78568	38.24
1.80235	38.57
1.81902	38.91
1.83568	39.23
1.85235	39.56
1.86902	39.91
1.88568	40.23
1.90235	40.57
1.91902	40.90
1.93568	41.23
1.95235	41.54
1.96902	41.86
1.98568	42.19
2.00235	42.51
2.01902	42.84
2.03568	43.17
2.05235	43.50
2.06902	43.83
2.08568	44.14
2.10235	44.45
2.11902	44.80
2.13568	45.10
2.15235	45.43
2.16902	45.78
2.18568	46.10
2.20235	46.46
2.21902	46.76
2.23568	47.10
2.25235	47.44
2.26902	47.76
2.28568	48.10
2.30235	48.42
2.31902	48.75
2.33568	49.06
2.35235	49.35
2.36902	49.54
2.38568	49.62
2.40235	49.61
2.41902	49.61
2.43568	49.62
2.45235	49.62
2.46902	49.66
2.48568	49.66
2.50235	49.67
2.51902	49.69
2.53568	49.70
2.55235	49.71
2.56902	49.72
2.58568	49.74
2.60235	49.74
2.61902	49.77
2.63568	49.79
2.65235	49.81
2.66902	49.84
2.68568	49.84
2.70235	49.86
2.71902	49.86
2.73568	49.85
2.75235	49.85
2.76902	49.86
2.78568	49.86
2.80235	49.85
2.81902	49.87
2.83568	49.88
2.85235	49.89
2.86902	49.89
2.88568	49.88
2.90235	49.90
2.91902	49.92
2.93568	49.93
2.95235	49.95
2.96902	49.97
2.98568	49.99
3.00235	50.00
3.01902	50.01
3.03568	50.00
3.05235	50.00
3.06902	50.00
3.08568	50.00
3.10235	50.01
3.11902	50.03
3.13568	50.05
3.15235	50.07
3.16902	50.08
3.18568	50.09
3.20235	50.08
3.21902	50.07
3.23568	50.08
3.25235	50.08
3.26902	50.07
3.28568	50.08
3.30235	50.09
3.31902	50.11
3.33568	50.12
3.35235	50.12
3.36902	50.10
3.38568	50.10
3.40235	50.08
3.41902	50.07
3.43568	50.05
3.45235	50.04
3.46902	50.02
3.48568	50.01
3.50235	50.00
3.51902	50.00
3.53568	50.00
3.55235	50.00
3.56902	49.99
3.58568	50.00
3.60235	50.02
3.61902	50.03
3.63568	50.03
3.65235	50.05
3.66902	50.06
3.68568	50.07
3.70235	50.08
3.71902	50.07
3.73568	50.06
3.75235	50.06
3.76902	50.06
3.78568	50.07
3.80235	50.07
3.81902	50.07
3.83568	50.08
3.85235	50.07
3.86902	50.07
3.88568	50.07
3.90235	50.07
3.91902	50.07
3.93568	50.07
3.95235	50.05
3.96902	50.05
3.98568	50.04

[Status Trace (Injection Unit Temperature)]
Interval(msec)	1000
# of Points	240
Start Time(min)	0.002
End Time(min)	3.986
Intensity Units	
Intensity Multiplier	1
R.Time (min)	Intensity
0.00235	99.98
0.01902	99.98
0.03568	99.98
0.05235	99.98
0.06902	99.98
0.08568	99.98
0.10235	99.98
0.11902	99.97
0.13568	99.98
0.15235	99.98
0.16902	99.98
0.18568	99.98
0.20235	99.98
0.21902	99.98
0.23568	99.98
0.25235	99.98
0.26902	99.98
0.28568	99.98
0.30235	99.98
0.31902	99.98
0.33568	99.98
0.35235	99.98
0.36902	99.98
0.38568	99.98
0.40235	99.98
0.41902	99.98
0.43568	99.98
0.45235	99.98
0.46902	99.98
0.48568	99.98
0.50235	99.98
0.51902	99.98
0.53568	99.98
0.55235	99.98
0.56902	99.99
0.58568	99.97
0.60235	99.99
0.61902	99.98
0.63568	99.99
0.65235	99.98
0.66902	99.98
0.68568	99.98
0.70235	99.99
0.71902	99.98
0.73568	99.98
0.75235	99.98
0.76902	99.98
0.78568	99.99
0.80235	99.98
0.81902	99.98
0.83568	99.99
0.85235	99.98
0.86902	99.99
0.88568	99.98
0.90235	99.98
0.91902	99.99
0.93568	99.99
0.95235	99.98
0.96902	99.99
0.98568	99.98
1.00235	99.98
1.01902	99.99
1.03568	99.99
1.05235	99.98
1.06902	99.99
1.08568	99.98
1.10235	99.99
1.11902	99.98
1.13568	99.99
1.15235	99.98
1.16902	99.99
1.18568	99.98
1.20235	99.98
1.21902	99.98
1.23568	99.98
1.25235	99.98
1.26902	99.98
1.28568	99.98
1.30235	99.98
1.31902	99.98
1.33568	99.98
1.35235	99.98
1.36902	99.98
1.38568	99.98
1.40235	99.98
1.41902	99.97
1.43568	99.98
1.45235	99.98
1.46902	99.98
1.48568	99.98
1.50235	99.98
1.51902	99.98
1.53568	99.98
1.55235	99.98
1.56902	99.98
1.58568	99.98
1.60235	99.98
1.61902	99.98
1.63568	99.99
1.65235	99.99
1.66902	99.98
1.68568	99.98
1.70235	99.98
1.71902	99.99
1.73568	99.98
1.75235	99.98
1.76902	99.99
1.78568	99.98
1.80235	99.98
1.81902	99.98
1.83568	99.98
1.85235	99.98
1.86902	99.99
1.88568	99.98
1.90235	99.98
1.91902	99.98
1.93568	99.98
1.95235	99.98
1.96902	99.98
1.98568	99.99
2.00235	99.98
2.01902	99.98
2.03568	99.98
2.05235	99.98
2.06902	99.98
2.08568	99.98
2.10235	99.98
2.11902	99.97
2.13568	99.97
2.15235	99.97
2.16902	99.97
2.18568	99.98
2.20235	99.97
2.21902	99.97
2.23568	99.97
2.25235	99.97
2.26902	99.97
2.28568	99.97
2.30235	99.97
2.31902	99.97
2.33568	99.97
2.35235	99.97
2.36902	99.97
2.38568	99.96
2.40235	99.97
2.41902	99.97
2.43568	99.97
2.45235	99.97
2.46902	99.97
2.48568	99.97
2.50235	99.97
2.51902	99.97
2.53568	99.98
2.55235	99.97
2.56902	99.97
2.58568	99.97
2.60235	99.97
2.61902	99.98
2.63568	99.98
2.65235	99.98
2.66902	99.98
2.68568	99.98
2.70235	99.98
2.71902	99.98
2.73568	99.98
2.75235	99.99
2.76902	99.99
2.78568	99.98
2.80235	99.99
2.81902	99.99
2.83568	99.99
2.85235	99.99
2.86902	99.99
2.88568	99.99
2.90235	99.99
2.91902	99.99
2.93568	99.99
2.95235	100.00
2.96902	100.00
2.98568	100.00
3.00235	100.00
3.01902	100.01
3.03568	100.00
3.05235	100.01
3.06902	100.01
3.08568	100.01
3.10235	100.01
3.11902	100.01
3.13568	100.01
3.15235	100.01
3.16902	100.01
3.18568	100.01
3.20235	100.01
3.21902	100.02
3.23568	100.01
3.25235	100.02
3.26902	100.02
3.28568	100.02
3.30235	100.02
3.31902	100.02
3.33568	100.03
3.35235	100.02
3.36902	100.02
3.38568	100.02
3.40235	100.03
3.41902	100.03
3.43568	100.03
3.45235	100.03
3.46902	100.03
3.48568	100.03
3.50235	100.03
3.51902	100.03
3.53568	100.04
3.55235	100.03
3.56902	100.03
3.58568	100.03
3.60235	100.03
3.61902	100.03
3.63568	100.03
3.65235	100.03
3.66902	100.04
3.68568	100.04
3.70235	100.04
3.71902	100.03
3.73568	100.04
3.75235	100.04
3.76902	100.04
3.78568	100.04
3.80235	100.04
3.81902	100.04
3.83568	100.04
3.85235	100.03
3.86902	100.04
3.88568	100.04
3.90235	100.05
3.91902	100.04
3.93568	100.04
3.95235	100.03
3.96902	100.04
3.98568	100.04

[Status Trace (Carrier Gas Pressure)]
Interval(msec)	1000
# of Points	240
Start Time(min)	0.002
End Time(min)	3.986
Intensity Units	
Intensity Multiplier	1
R.Time (min)	Intensity
0.00235	58.00
0.01902	56.36
0.03568	56.31
0.05235	58.60
0.06902	59.88
0.08568	58.30
0.10235	57.97
0.11902	58.00
0.13568	58.01
0.15235	58.01
0.16902	58.00
0.18568	58.00
0.20235	58.00
0.21902	58.00
0.23568	58.00
0.25235	58.00
0.26902	58.00
0.28568	58.00
0.30235	58.00
0.31902	58.00
0.33568	58.00
0.35235	58.00
0.36902	58.00
0.38568	58.00
0.40235	58.00
0.41902	58.00
0.43568	58.00
0.45235	58.00
0.46902	58.00
0.48568	58.00
0.50235	58.00
0.51902	58.00
0.53568	58.00
0.55235	58.00
0.56902	58.00
0.58568	58.00
0.60235	58.00
0.61902	58.00
0.63568	58.00
0.65235	58.00
0.66902	58.00
0.68568	58.00
0.70235	58.00
0.71902	58.00
0.73568	58.00
0.75235	58.00
0.76902	58.00
0.78568	58.00
0.80235	58.00
0.81902	58.00
0.83568	58.00
0.85235	58.00
0.86902	58.00
0.88568	58.00
0.90235	58.00
0.91902	58.00
0.93568	58.00
0.95235	58.00
0.96902	58.00
0.98568	58.00
1.00235	58.00
1.01902	58.00
1.03568	58.00
1.05235	58.00
1.06902	58.00
1.08568	58.00
1.10235	58.00
1.11902	58.00
1.13568	58.00
1.15235	58.00
1.16902	58.00
1.18568	58.00
1.20235	58.00
1.21902	58.00
1.23568	58.00
1.25235	58.00
1.26902	58.00
1.28568	58.00
1.30235	58.00
1.31902	58.00
1.33568	58.00
1.35235	58.00
1.36902	58.00
1.38568	58.00
1.40235	58.00
1.41902	58.00
1.43568	58.00
1.45235	58.00
1.46902	58.00
1.48568	58.00
1.50235	58.00
1.51902	58.00
1.53568	58.00
1.55235	58.00
1.56902	58.00
1.58568	58.00
1.60235	58.00
1.61902	58.00
1.63568	58.01
1.65235	58.00
1.66902	58.00
1.68568	58.01
1.70235	58.00
1.71902	58.00
1.73568	58.00
1.75235	58.00
1.76902	58.00
1.78568	58.00
1.80235	58.00
1.81902	58.00
1.83568	58.00
1.85235	58.00
1.86902	58.00
1.88568	58.00
1.90235	58.00
1.91902	58.00
1.93568	58.00
1.95235	58.00
1.96902	58.00
1.98568	58.00
2.00235	58.00
2.01902	58.00
2.03568	58.00
2.05235	58.00
2.06902	58.00
2.08568	58.00
2.10235	58.00
2.11902	58.00
2.13568	58.00
2.15235	58.00
2.16902	58.00
2.18568	58.00
2.20235	58.00
2.21902	58.00
2.23568	58.00
2.25235	58.00
2.26902	58.00
2.28568	58.00
2.30235	58.00
2.31902	58.00
2.33568	58.00
2.35235	58.00
2.36902	58.00
2.38568	57.99
2.40235	57.99
2.41902	58.00
2.43568	58.00
2.45235	58.00
2.46902	58.00
2.48568	58.00
2.50235	57.97
2.51902	58.02
2.53568	57.99
2.55235	58.00
2.56902	58.00
2.58568	58.00
2.60235	58.00
2.61902	58.00
2.63568	58.00
2.65235	58.00
2.66902	58.00
2.68568	58.00
2.70235	58.00
2.71902	58.00
2.73568	58.00
2.75235	58.00
2.76902	58.00
2.78568	58.00
2.80235	58.00
2.81902	58.00
2.83568	58.00
2.85235	58.00
2.86902	58.00
2.88568	58.00
2.90235	58.00
2.91902	58.00
2.93568	58.00
2.95235	58.00
2.96902	58.00
2.98568	58.00
3.00235	58.00
3.01902	58.00
3.03568	58.00
3.05235	58.00
3.06902	58.00
3.08568	58.00
3.10235	58.00
3.11902	58.00
3.13568	58.00
3.15235	58.00
3.16902	58.00
3.18568	58.00
3.20235	58.00
3.21902	58.00
3.23568	58.00
3.25235	58.00
3.26902	58.00
3.28568	58.00
3.30235	58.00
3.31902	58.00
3.33568	58.00
3.35235	58.00
3.36902	58.00
3.38568	58.00
3.40235	58.00
3.41902	58.00
3.43568	58.00
3.45235	58.00
3.46902	58.00
3.48568	58.00
3.50235	58.00
3.51902	58.00
3.53568	58.00
3.55235	58.00
3.56902	58.00
3.58568	58.00
3.60235	58.00
3.61902	58.00
3.63568	58.00
3.65235	58.00
3.66902	58.00
3.68568	58.00
3.70235	58.00
3.71902	58.00
3.73568	58.00
3.75235	58.00
3.76902	58.00
3.78568	58.00
3.80235	58.00
3.81902	58.00
3.83568	58.00
3.85235	58.00
3.86902	58.00
3.88568	58.00
3.90235	58.00
3.91902	58.00
3.93568	58.00
3.95235	58.00
3.96902	58.00
3.98568	58.00

[Status Trace (Carrier Gas Flow)]
Interval(msec)	1000
# of Points	240
Start Time(min)	0.002
End Time(min)	3.986
Intensity Units	
Intensity Multiplier	1
R.Time (min)	Intensity
0.00235	34.52
0.01902	34.52
0.03568	34.54
0.05235	34.54
0.06902	34.49
0.08568	34.52
0.10235	34.53
0.11902	34.52
0.13568	34.52
0.15235	34.52
0.16902	34.52
0.18568	34.52
0.20235	34.52
0.21902	34.52
0.23568	34.52
0.25235	34.52
0.26902	34.52
0.28568	34.52
0.30235	34.52
0.31902	34.51
0.33568	34.52
0.35235	34.52
0.36902	34.52
0.38568	34.52
0.40235	34.51
0.41902	34.52
0.43568	34.52
0.45235	34.52
0.46902	34.51
0.48568	34.52
0.50235	34.52
0.51902	34.52
0.53568	34.52
0.55235	34.52
0.56902	34.52
0.58568	34.52
0.60235	34.52
0.61902	34.52
0.63568	34.52
0.65235	34.52
0.66902	34.51
0.68568	34.52
0.70235	34.51
0.71902	34.52
0.73568	34.52
0.75235	34.52
0.76902	34.51
0.78568	34.52
0.80235	34.52
0.81902	34.51
0.83568	34.52
0.85235	34.52
0.86902	34.52
0.88568	34.52
0.90235	34.52
0.91902	34.52
0.93568	34.52
0.95235	34.52
0.96902	34.52
0.98568	34.52
1.00235	34.52
1.01902	34.52
1.03568	34.52
1.05235	34.51
1.06902	34.52
1.08568	34.52
1.10235	34.52
1.11902	34.52
1.13568	34.52
1.15235	34.52
1.16902	34.52
1.18568	34.52
1.20235	34.52
1.21902	34.52
1.23568	34.52
1.25235	34.52
1.26902	34.52
1.28568	34.52
1.30235	34.52
1.31902	34.52
1.33568	34.52
1.35235	34.52
1.36902	34.52
1.38568	34.51
1.40235	34.51
1.41902	34.52
1.43568	34.52
1.45235	34.52
1.46902	34.51
1.48568	34.52
1.50235	34.52
1.51902	34.51
1.53568	34.52
1.55235	34.52
1.56902	34.52
1.58568	34.52
1.60235	34.52
1.61902	34.51
1.63568	34.52
1.65235	34.52
1.66902	34.52
1.68568	34.52
1.70235	34.52
1.71902	34.52
1.73568	34.52
1.75235	34.51
1.76902	34.52
1.78568	34.53
1.80235	34.52
1.81902	34.52
1.83568	34.51
1.85235	34.51
1.86902	34.52
1.88568	34.52
1.90235	34.52
1.91902	34.52
1.93568	34.52
1.95235	34.52
1.96902	34.52
1.98568	34.52
2.00235	34.52
2.01902	34.52
2.03568	34.52
2.05235	34.52
2.06902	34.52
2.08568	34.52
2.10235	34.52
2.11902	34.52
2.13568	34.52
2.15235	34.52
2.16902	34.52
2.18568	34.52
2.20235	34.52
2.21902	34.53
2.23568	34.52
2.25235	34.52
2.26902	34.52
2.28568	34.52
2.30235	34.52
2.31902	34.52
2.33568	34.52
2.35235	34.51
2.36902	34.51
2.38568	34.55
2.40235	34.52
2.41902	34.51
2.43568	34.52
2.45235	34.52
2.46902	34.52
2.48568	34.52
2.50235	34.62
2.51902	34.52
2.53568	34.52
2.55235	34.52
2.56902	34.52
2.58568	34.52
2.60235	34.51
2.61902	34.52
2.63568	34.51
2.65235	34.52
2.66902	34.52
2.68568	34.52
2.70235	34.52
2.71902	34.52
2.73568	34.52
2.75235	34.52
2.76902	34.52
2.78568	34.51
2.80235	34.52
2.81902	34.52
2.83568	34.52
2.85235	34.52
2.86902	34.52
2.88568	34.52
2.90235	34.52
2.91902	34.52
2.93568	34.52
2.95235	34.52
2.96902	34.52
2.98568	34.52
3.00235	34.51
3.01902	34.52
3.03568	34.52
3.05235	34.52
3.06902	34.52
3.08568	34.52
3.10235	34.52
3.11902	34.52
3.13568	34.52
3.15235	34.52
3.16902	34.52
3.18568	34.52
3.20235	34.52
3.21902	34.52
3.23568	34.52
3.25235	34.51
3.26902	34.52
3.28568	34.52
3.30235	34.52
3.31902	34.52
3.33568	34.52
3.35235	34.52
3.36902	34.52
3.38568	34.53
3.40235	34.52
3.41902	34.52
3.43568	34.52
3.45235	34.52
3.46902	34.52
3.48568	34.52
3.50235	34.51
3.51902	34.52
3.53568	34.53
3.55235	34.52
3.56902	34.52
3.58568	34.52
3.60235	34.52
3.61902	34.52
3.63568	34.52
3.65235	34.52
3.66902	34.52
3.68568	34.52
3.70235	34.51
3.71902	34.52
3.73568	34.52
3.75235	34.52
3.76902	34.52
3.78568	34.52
3.80235	34.52
3.81902	34.52
3.83568	34.52
3.85235	34.52
3.86902	34.52
3.88568	34.52
3.90235	34.52
3.91902	34.52
3.93568	34.52
3.95235	34.52
3.96902	34.51
3.98568	34.52

[Status Trace (Column Flow)]
Interval(msec)	1000
# of Points	240
Start Time(min)	0.002
End Time(min)	3.986
Intensity Units	
Intensity Multiplier	1
R.Time (min)	Intensity
0.00235	5.56
0.01902	5.37
0.03568	5.37
0.05235	5.63
0.06902	5.79
0.08568	5.60
0.10235	5.56
0.11902	5.56
0.13568	5.56
0.15235	5.56
0.16902	5.56
0.18568	5.56
0.20235	5.56
0.21902	5.56
0.23568	5.57
0.25235	5.57
0.26902	5.56
0.28568	5.56
0.30235	5.56
0.31902	5.56
0.33568	5.56
0.35235	5.56
0.36902	5.56
0.38568	5.56
0.40235	5.56
0.41902	5.56
0.43568	5.56
0.45235	5.56
0.46902	5.56
0.48568	5.56
0.50235	5.56
0.51902	5.56
0.53568	5.56
0.55235	5.56
0.56902	5.56
0.58568	5.56
0.60235	5.56
0.61902	5.56
0.63568	5.56
0.65235	5.56
0.66902	5.56
0.68568	5.56
0.70235	5.56
0.71902	5.57
0.73568	5.57
0.75235	5.57
0.76902	5.57
0.78568	5.57
0.80235	5.57
0.81902	5.56
0.83568	5.56
0.85235	5.56
0.86902	5.56
0.88568	5.56
0.90235	5.56
0.91902	5.56
0.93568	5.56
0.95235	5.56
0.96902	5.56
0.98568	5.56
1.00235	5.56
1.01902	5.56
1.03568	5.56
1.05235	5.56
1.06902	5.56
1.08568	5.56
1.10235	5.56
1.11902	5.56
1.13568	5.56
1.15235	5.56
1.16902	5.56
1.18568	5.56
1.20235	5.56
1.21902	5.56
1.23568	5.56
1.25235	5.56
1.26902	5.56
1.28568	5.56
1.30235	5.56
1.31902	5.56
1.33568	5.56
1.35235	5.56
1.36902	5.56
1.38568	5.56
1.40235	5.56
1.41902	5.56
1.43568	5.56
1.45235	5.56
1.46902	5.56
1.48568	5.56
1.50235	5.56
1.51902	5.56
1.53568	5.56
1.55235	5.56
1.56902	5.56
1.58568	5.56
1.60235	5.56
1.61902	5.56
1.63568	5.55
1.65235	5.55
1.66902	5.54
1.68568	5.53
1.70235	5.51
1.71902	5.50
1.73568	5.49
1.75235	5.48
1.76902	5.47
1.78568	5.46
1.80235	5.45
1.81902	5.44
1.83568	5.43
1.85235	5.42
1.86902	5.41
1.88568	5.40
1.90235	5.39
1.91902	5.38
1.93568	5.37
1.95235	5.36
1.96902	5.35
1.98568	5.34
2.00235	5.33
2.01902	5.32
2.03568	5.31
2.05235	5.30
2.06902	5.30
2.08568	5.28
2.10235	5.28
2.11902	5.27
2.13568	5.26
2.15235	5.25
2.16902	5.24
2.18568	5.23
2.20235	5.22
2.21902	5.21
2.23568	5.20
2.25235	5.19
2.26902	5.18
2.28568	5.17
2.30235	5.16
2.31902	5.15
2.33568	5.14
2.35235	5.14
2.36902	5.13
2.38568	5.13
2.40235	5.13
2.41902	5.13
2.43568	5.13
2.45235	5.13
2.46902	5.13
2.48568	5.13
2.50235	5.12
2.51902	5.13
2.53568	5.13
2.55235	5.13
2.56902	5.13
2.58568	5.12
2.60235	5.12
2.61902	5.12
2.63568	5.12
2.65235	5.12
2.66902	5.12
2.68568	5.12
2.70235	5.12
2.71902	5.12
2.73568	5.12
2.75235	5.12
2.76902	5.12
2.78568	5.12
2.80235	5.12
2.81902	5.12
2.83568	5.12
2.85235	5.12
2.86902	5.12
2.88568	5.12
2.90235	5.12
2.91902	5.12
2.93568	5.12
2.95235	5.12
2.96902	5.12
2.98568	5.12
3.00235	5.12
3.01902	5.12
3.03568	5.12
3.05235	5.12
3.06902	5.12
3.08568	5.12
3.10235	5.12
3.11902	5.12
3.13568	5.12
3.15235	5.12
3.16902	5.12
3.18568	5.12
3.20235	5.12
3.21902	5.12
3.23568	5.12
3.25235	5.12
3.26902	5.12
3.28568	5.12
3.30235	5.11
3.31902	5.11
3.33568	5.11
3.35235	5.11
3.36902	5.11
3.38568	5.11
3.40235	5.12
3.41902	5.12
3.43568	5.12
3.45235	5.12
3.46902	5.12
3.48568	5.12
3.50235	5.12
3.51902	5.12
3.53568	5.12
3.55235	5.12
3.56902	5.12
3.58568	5.12
3.60235	5.12
3.61902	5.12
3.63568	5.12
3.65235	5.12
3.66902	5.12
3.68568	5.12
3.70235	5.12
3.71902	5.12
3.73568	5.12
3.75235	5.12
3.76902	5.12
3.78568	5.12
3.80235	5.12
3.81902	5.12
3.83568	5.12
3.85235	5.12
3.86902	5.12
3.88568	5.12
3.90235	5.12
3.91902	5.12
3.93568	5.12
3.95235	5.12
3.96902	5.12
3.98568	5.12

[Status Trace (Linear Velocity)]
Interval(msec)	1000
# of Points	240
Start Time(min)	0.002
End Time(min)	3.986
Intensity Units	
Intensity Multiplier	1
R.Time (min)	Intensity
0.00235	39.02
0.01902	37.95
0.03568	37.92
0.05235	39.42
0.06902	40.26
0.08568	39.22
0.10235	39.00
0.11902	39.03
0.13568	39.03
0.15235	39.03
0.16902	39.03
0.18568	39.03
0.20235	39.03
0.21902	39.03
0.23568	39.03
0.25235	39.03
0.26902	39.03
0.28568	39.03
0.30235	39.02
0.31902	39.02
0.33568	39.02
0.35235	39.02
0.36902	39.02
0.38568	39.02
0.40235	39.03
0.41902	39.02
0.43568	39.02
0.45235	39.02
0.46902	39.02
0.48568	39.03
0.50235	39.03
0.51902	39.03
0.53568	39.03
0.55235	39.03
0.56902	39.03
0.58568	39.03
0.60235	39.03
0.61902	39.03
0.63568	39.03
0.65235	39.03
0.66902	39.03
0.68568	39.03
0.70235	39.03
0.71902	39.03
0.73568	39.03
0.75235	39.03
0.76902	39.03
0.78568	39.03
0.80235	39.03
0.81902	39.03
0.83568	39.03
0.85235	39.03
0.86902	39.03
0.88568	39.03
0.90235	39.03
0.91902	39.03
0.93568	39.03
0.95235	39.03
0.96902	39.03
0.98568	39.03
1.00235	39.03
1.01902	39.03
1.03568	39.03
1.05235	39.03
1.06902	39.03
1.08568	39.03
1.10235	39.03
1.11902	39.03
1.13568	39.03
1.15235	39.03
1.16902	39.03
1.18568	39.03
1.20235	39.03
1.21902	39.03
1.23568	39.03
1.25235	39.03
1.26902	39.03
1.28568	39.03
1.30235	39.02
1.31902	39.02
1.33568	39.02
1.35235	39.02
1.36902	39.02
1.38568	39.03
1.40235	39.03
1.41902	39.03
1.43568	39.03
1.45235	39.03
1.46902	39.03
1.48568	39.02
1.50235	39.02
1.51902	39.02
1.53568	39.02
1.55235	39.02
1.56902	39.03
1.58568	39.03
1.60235	39.02
1.61902	39.02
1.63568	39.00
1.65235	38.98
1.66902	38.95
1.68568	38.92
1.70235	38.88
1.71902	38.85
1.73568	38.81
1.75235	38.78
1.76902	38.75
1.78568	38.72
1.80235	38.69
1.81902	38.66
1.83568	38.62
1.85235	38.59
1.86902	38.56
1.88568	38.53
1.90235	38.50
1.91902	38.47
1.93568	38.44
1.95235	38.41
1.96902	38.38
1.98568	38.35
2.00235	38.32
2.01902	38.29
2.03568	38.26
2.05235	38.23
2.06902	38.20
2.08568	38.17
2.10235	38.14
2.11902	38.11
2.13568	38.08
2.15235	38.05
2.16902	38.02
2.18568	37.99
2.20235	37.96
2.21902	37.93
2.23568	37.90
2.25235	37.87
2.26902	37.84
2.28568	37.81
2.30235	37.78
2.31902	37.76
2.33568	37.73
2.35235	37.70
2.36902	37.68
2.38568	37.67
2.40235	37.67
2.41902	37.67
2.43568	37.67
2.45235	37.67
2.46902	37.67
2.48568	37.67
2.50235	37.65
2.51902	37.68
2.53568	37.66
2.55235	37.67
2.56902	37.67
2.58568	37.67
2.60235	37.67
2.61902	37.66
2.63568	37.66
2.65235	37.66
2.66902	37.66
2.68568	37.66
2.70235	37.65
2.71902	37.65
2.73568	37.65
2.75235	37.66
2.76902	37.66
2.78568	37.65
2.80235	37.66
2.81902	37.65
2.83568	37.65
2.85235	37.65
2.86902	37.65
2.88568	37.65
2.90235	37.65
2.91902	37.65
2.93568	37.65
2.95235	37.65
2.96902	37.65
2.98568	37.64
3.00235	37.64
3.01902	37.64
3.03568	37.64
3.05235	37.64
3.06902	37.64
3.08568	37.64
3.10235	37.64
3.11902	37.64
3.13568	37.64
3.15235	37.64
3.16902	37.64
3.18568	37.63
3.20235	37.63
3.21902	37.63
3.23568	37.64
3.25235	37.63
3.26902	37.64
3.28568	37.64
3.30235	37.63
3.31902	37.63
3.33568	37.63
3.35235	37.63
3.36902	37.63
3.38568	37.63
3.40235	37.63
3.41902	37.64
3.43568	37.64
3.45235	37.64
3.46902	37.64
3.48568	37.64
3.50235	37.64
3.51902	37.64
3.53568	37.64
3.55235	37.64
3.56902	37.64
3.58568	37.64
3.60235	37.64
3.61902	37.64
3.63568	37.64
3.65235	37.64
3.66902	37.64
3.68568	37.64
3.70235	37.64
3.71902	37.63
3.73568	37.64
3.75235	37.64
3.76902	37.64
3.78568	37.64
3.80235	37.64
3.81902	37.64
3.83568	37.64
3.85235	37.64
3.86902	37.64
3.88568	37.64
3.90235	37.64
3.91902	37.64
3.93568	37.64
3.95235	37.64
3.96902	37.64
3.98568	37.64

