[Header]
Application Name	LabSolutions
Version	5.110
Data File Name	C:\Users\User\Desktop\GC Analyses\Jack\Nachusa Grasslands Sampling\T1 Timepoint July 12th\T1_07122022_058.gcd
Output Date	3/14/2023
Output Time	3:41:00 PM

[File Information]
Type	Data File
Generated	3/8/2023 7:40:31 PM
Generated by	System Administrator
Modified	3/8/2023 7:47:18 PM
Modified by	System Administrator

[Sample Information]
Operator Name	System Administrator
Acquired	3/8/2023 7:43:16 PM
Sample Type	0:Unknown
Level	0
Sample Name	058
Sample ID	058
ISTD Amount1	1
ISTD Amount2	1
ISTD Amount3	1
ISTD Amount4	1
ISTD Amount5	1
ISTD Amount6	1
ISTD Amount7	1
ISTD Amount8	1
ISTD Amount9	1
ISTD Amount10	1
ISTD Amount11	1
ISTD Amount12	1
ISTD Amount13	1
ISTD Amount14	1
ISTD Amount15	1
ISTD Amount16	1
ISTD Amount17	1
ISTD Amount18	1
ISTD Amount19	1
ISTD Amount20	1
ISTD Amount21	1
ISTD Amount22	1
ISTD Amount23	1
ISTD Amount24	1
ISTD Amount25	1
ISTD Amount26	1
ISTD Amount27	1
ISTD Amount28	1
ISTD Amount29	1
ISTD Amount30	1
ISTD Amount31	1
ISTD Amount32	1
Sample Amount	1
Dilution Factor	1
Vial#	57
Injection Volume	1
Injection Count	1
Bar Code	

[Original Files]
Data File	C:\Users\User\Desktop\GC Analyses\Jack\Nachusa Grasslands Sampling\T1 Timepoint July 12th\T1_07122022_058.gcd
Method File	C:\LabSolutions\Data\GHG_4min_2022\ghg3_togas_w_acet_4 min_new_int.gcm
Batch File	C:\LabSolutions\Data\AutoSamplerTesting\T1_07122022.gcb
Report Format File	c:\LabSolutions\System\DEFAULT.lsr

[File Description]


[Configuration]
Instrument Name	C0B7VH3-Instrument1
Instrument #	1
Line #	1
# of Detectors	3
Detector ID	DET#1	DET#2	DET#3
Detector Name	FID	PTCD	ECD
# of Channels	1	1	1

[Peak Table(Ch1)]
# of Peaks	3
Peak#	R.Time	I.Time	F.Time	Area	Height	A/H	Conc.	Mark	ID#	Name	k'	Plate #	Plate Ht.	Tailing	Resolution	Sep.Factor	Area Ratio	Height Ratio	Conc. %	Norm Conc.
1	1.476	1.439	1.538	36807	17565	2.095	259.861	   	1	CO	0.000	9267	16.186	1.334	0.000	0.000	0	0	29.652	29.652
2	1.567	1.538	1.626	4711	2251	2.093	91.090	 V 	2	CH4	0.062	10159	14.765	0.000	1.484	0.000	0	0	10.394	10.394
3	1.996	1.952	2.590	2093566	990898	2.113	525.428	   	3	CO2	0.353	17354	8.643	1.318	6.986	5.680	0	0	59.954	59.954

[Peak Table(Ch2)]
# of Peaks	0

[Peak Table(Ch3)]
# of Peaks	6
Peak#	R.Time	I.Time	F.Time	Area	Height	A/H	Conc.	Mark	ID#	Name	k'	Plate #	Plate Ht.	Tailing	Resolution	Sep.Factor	Area Ratio	Height Ratio	Conc. %	Norm Conc.
1	2.462	2.077	2.513	2842	530	5.357	0.000	   			0.000	7602	19.732	0.000	0.000	0.000	0	0	0.000	0.000
2	2.539	2.513	2.634	1335	303	4.406	0.000	 V 			0.031	2745	54.648	0.000	0.502	0.000	0	0	0.000	0.000
3	2.682	2.645	2.737	142	51	2.797	0.000	   			0.089	19203	7.811	1.200	1.054	2.857	0	0	0.000	0.000
4	2.873	2.799	3.155	19164	4830	3.967	0.489	S  	1	N2O	0.167	13314	11.266	1.775	2.154	1.867	0	0	100.000	100.000
5	3.144	3.129	3.151	25	32	0.784	0.000	T  	2	SF6	0.277	259584	0.578	0.746	4.367	1.661	0	0	0.000	0.000
6	3.272	3.166	3.995	13596	511	26.586	0.000	   	2	SF6	0.329	355	422.848	3.850	0.357	1.188	0	0	0.000	0.000

[Compound Results(Ch1)]
# of IDs	6
ID#	Name	R.Time	Area	Height	Conc.	Curve	3rd	2nd	1st	Constant	Area Ratio	Height Ratio	Conc. %	Norm Conc.
1	CO	1.476	36807	17565	259.861	Linear	0.000000e+00	0.000000e+00	1.416423e+002	0.000000e+00	0	0	29.652	29.652
2	CH4	1.567	4711	2251	91.090	Linear	0.000000e+00	0.000000e+00	5.171738e+001	0.000000e+00	0	0	10.394	10.394
3	CO2	1.996	2093566	990898	525.428	Linear	0.000000e+00	0.000000e+00	3.984494e+003	0.000000e+00	0	0	59.954	59.954
4	Ethylene	0.000	0	0	0.000	Linear	0.000000e+00	0.000000e+00	0.000000e+00	0.000000e+00	0	0	0.000	0.000
5	Acetylene	0.000	0	0	0.000	Linear	0.000000e+00	0.000000e+00	0.000000e+00	0.000000e+00	0	0	0.000	0.000
6	Ethane	0.000	0	0	0.000	Linear	0.000000e+00	0.000000e+00	0.000000e+00	0.000000e+00	0	0	0.000	0.000

[Compound Results(Ch2)]
# of IDs	5
ID#	Name	R.Time	Area	Height	Conc.	Curve	3rd	2nd	1st	Constant	Area Ratio	Height Ratio	Conc. %	Norm Conc.
1	Hydrogen	0.000	0	0	0.000	Linear	0.000000e+00	0.000000e+00	0.000000e+00	0.000000e+00	0	0	0.000	0.000
2	Oxygen	0.000	0	0	0.000	Linear	0.000000e+00	0.000000e+00	0.000000e+00	0.000000e+00	0	0	0.000	0.000
3	Nitrogen	0.000	0	0	0.000	Linear	0.000000e+00	0.000000e+00	0.000000e+00	0.000000e+00	0	0	0.000	0.000
4	Methane	0.000	0	0	0.000	Linear	0.000000e+00	0.000000e+00	0.000000e+00	0.000000e+00	0	0	0.000	0.000
5	Carbon Monoxide	0.000	0	0	0.000	Linear	0.000000e+00	0.000000e+00	0.000000e+00	0.000000e+00	0	0	0.000	0.000

[Compound Results(Ch3)]
# of IDs	2
ID#	Name	R.Time	Area	Height	Conc.	Curve	3rd	2nd	1st	Constant	Area Ratio	Height Ratio	Conc. %	Norm Conc.
1	N2O	2.873	19164	4830	0.489	Linear	0.000000e+00	0.000000e+00	3.915173e+004	0.000000e+00	0	0	100.000	100.000
2	SF6	3.272	13622	544	0.000	Linear	0.000000e+00	0.000000e+00	0.000000e+00	0.000000e+00	0	0	0.000	0.000

[Group Results(Ch1)]
# of Groups	0

[Group Results(Ch2)]
# of Groups	0

[Group Results(Ch3)]
# of Groups	0

[Chromatogram (Ch1)]
Interval(msec)	220
# of Points	1091
Start Time(min)	0.002
End Time(min)	3.998
R.Time (min)	Intensity
0.00167	-7
0.00533	-6
0.00900	-8
0.01267	-9
0.01633	-7
0.02000	-8
0.02367	-8
0.02733	-3
0.03100	5
0.03467	14
0.03833	13
0.04200	3
0.04567	-11
0.04933	-23
0.05300	-28
0.05667	-28
0.06033	-23
0.06400	-17
0.06767	-12
0.07133	-10
0.07500	-7
0.07867	-6
0.08233	-9
0.08600	-13
0.08967	-17
0.09333	-20
0.09700	-23
0.10067	-24
0.10433	-22
0.10800	-15
0.11167	-4
0.11533	8
0.11900	17
0.12267	25
0.12633	32
0.13000	34
0.13367	34
0.13733	35
0.14100	39
0.14467	41
0.14833	41
0.15200	39
0.15567	38
0.15933	38
0.16300	40
0.16667	43
0.17033	44
0.17400	47
0.17767	51
0.18133	56
0.18500	59
0.18867	58
0.19233	53
0.19600	51
0.19967	53
0.20333	57
0.20700	62
0.21067	64
0.21433	62
0.21800	56
0.22167	50
0.22533	45
0.22900	44
0.23267	43
0.23633	42
0.24000	44
0.24367	48
0.24733	48
0.25100	42
0.25467	38
0.25833	36
0.26200	31
0.26567	26
0.26933	20
0.27300	10
0.27667	-3
0.28033	-11
0.28400	-12
0.28767	-9
0.29133	-3
0.29500	4
0.29867	10
0.30233	13
0.30600	11
0.30967	9
0.31333	4
0.31700	-1
0.32067	-7
0.32433	-13
0.32800	-18
0.33167	-20
0.33533	-24
0.33900	-24
0.34267	-22
0.34633	-18
0.35000	-14
0.35367	-10
0.35733	-6
0.36100	-2
0.36467	-1
0.36833	-1
0.37200	-4
0.37567	-5
0.37933	-8
0.38300	-16
0.38667	-25
0.39033	-32
0.39400	-37
0.39767	-35
0.40133	-27
0.40500	-23
0.40867	-26
0.41233	-30
0.41600	-30
0.41967	-23
0.42333	-15
0.42700	-9
0.43067	-4
0.43433	-2
0.43800	-4
0.44167	-9
0.44533	-14
0.44900	-19
0.45267	-21
0.45633	-23
0.46000	-26
0.46367	-27
0.46733	-27
0.47100	-23
0.47467	-17
0.47833	-8
0.48200	-2
0.48567	-1
0.48933	-1
0.49300	-4
0.49667	-8
0.50033	-11
0.50400	-13
0.50767	-15
0.51133	-16
0.51500	-19
0.51867	-23
0.52233	-23
0.52600	-17
0.52967	-12
0.53333	-11
0.53700	-17
0.54067	-23
0.54433	-25
0.54800	-26
0.55167	-26
0.55533	-26
0.55900	-25
0.56267	-25
0.56633	-25
0.57000	-23
0.57367	-20
0.57733	-19
0.58100	-18
0.58467	-19
0.58833	-18
0.59200	-17
0.59567	-15
0.59933	-13
0.60300	-11
0.60667	-12
0.61033	-15
0.61400	-19
0.61767	-24
0.62133	-28
0.62500	-30
0.62867	-30
0.63233	-25
0.63600	-16
0.63967	-8
0.64333	-6
0.64700	-7
0.65067	-11
0.65433	-18
0.65800	-23
0.66167	-29
0.66533	-38
0.66900	-45
0.67267	-45
0.67633	-38
0.68000	-28
0.68367	-24
0.68733	-26
0.69100	-31
0.69467	-34
0.69833	-35
0.70200	-31
0.70567	-21
0.70933	-14
0.71300	-9
0.71667	-6
0.72033	-5
0.72400	-8
0.72767	-15
0.73133	-25
0.73500	-35
0.73867	-42
0.74233	-49
0.74600	-50
0.74967	-45
0.75333	-40
0.75700	-36
0.76067	-33
0.76433	-35
0.76800	-41
0.77167	-47
0.77533	-47
0.77900	-42
0.78267	-35
0.78633	-26
0.79000	-23
0.79367	-24
0.79733	-24
0.80100	-24
0.80467	-21
0.80833	-19
0.81200	-15
0.81567	-12
0.81933	-15
0.82300	-17
0.82667	-16
0.83033	-15
0.83400	-20
0.83767	-28
0.84133	-33
0.84500	-35
0.84867	-37
0.85233	-35
0.85600	-34
0.85967	-32
0.86333	-28
0.86700	-24
0.87067	-19
0.87433	-18
0.87800	-21
0.88167	-24
0.88533	-26
0.88900	-28
0.89267	-30
0.89633	-29
0.90000	-24
0.90367	-22
0.90733	-25
0.91100	-33
0.91467	-43
0.91833	-47
0.92200	-50
0.92567	-55
0.92933	-56
0.93300	-54
0.93667	-50
0.94033	-46
0.94400	-42
0.94767	-37
0.95133	-36
0.95500	-36
0.95867	-39
0.96233	-40
0.96600	-38
0.96967	-37
0.97333	-37
0.97700	-39
0.98067	-44
0.98433	-47
0.98800	-45
0.99167	-41
0.99533	-46
0.99900	-53
1.00267	-59
1.00633	-61
1.01000	-59
1.01367	-57
1.01733	-55
1.02100	-51
1.02467	-49
1.02833	-46
1.03200	-44
1.03567	-43
1.03933	-45
1.04300	-47
1.04667	-49
1.05033	-49
1.05400	-42
1.05767	-33
1.06133	-30
1.06500	-34
1.06867	-35
1.07233	-35
1.07600	-37
1.07967	-40
1.08333	-43
1.08700	-44
1.09067	-40
1.09433	-39
1.09800	-45
1.10167	-53
1.10533	-62
1.10900	-71
1.11267	-73
1.11633	-71
1.12000	-70
1.12367	-65
1.12733	-56
1.13100	-44
1.13467	-37
1.13833	-36
1.14200	-38
1.14567	-44
1.14933	-49
1.15300	-50
1.15667	-46
1.16033	-41
1.16400	-38
1.16767	-33
1.17133	-28
1.17500	-22
1.17867	-17
1.18233	-16
1.18600	-16
1.18967	-17
1.19333	-17
1.19700	-16
1.20067	-17
1.20433	-23
1.20800	-30
1.21167	-37
1.21533	-42
1.21900	-42
1.22267	-37
1.22633	-31
1.23000	-28
1.23367	-28
1.23733	-28
1.24100	-24
1.24467	-23
1.24833	-25
1.25200	-26
1.25567	-23
1.25933	-17
1.26300	-13
1.26667	-13
1.27033	-18
1.27400	-24
1.27767	-25
1.28133	-25
1.28500	-24
1.28867	-26
1.29233	-31
1.29600	-38
1.29967	-42
1.30333	-39
1.30700	-31
1.31067	-21
1.31433	-13
1.31800	-5
1.32167	-2
1.32533	-7
1.32900	-16
1.33267	-27
1.33633	-37
1.34000	-45
1.34367	-46
1.34733	-44
1.35100	-42
1.35467	-41
1.35833	-40
1.36200	-42
1.36567	-45
1.36933	-46
1.37300	-47
1.37667	-48
1.38033	-46
1.38400	-44
1.38767	-41
1.39133	-39
1.39500	-38
1.39867	-40
1.40233	-43
1.40600	-48
1.40967	-49
1.41333	-44
1.41700	-38
1.42067	-32
1.42433	-30
1.42800	-33
1.43167	-38
1.43533	-37
1.43900	-17
1.44267	72
1.44633	319
1.45000	972
1.45367	2577
1.45733	5344
1.46100	8751
1.46467	12051
1.46833	14762
1.47200	16653
1.47567	17554
1.47933	17316
1.48300	15930
1.48667	13665
1.49033	11001
1.49400	8411
1.49767	6193
1.50133	4451
1.50500	3161
1.50867	2240
1.51233	1602
1.51600	1164
1.51967	860
1.52333	647
1.52700	502
1.53067	403
1.53433	336
1.53800	302
1.54167	325
1.54533	461
1.54900	744
1.55267	1132
1.55633	1531
1.56000	1873
1.56367	2125
1.56733	2256
1.57100	2243
1.57467	2072
1.57833	1771
1.58200	1411
1.58567	1066
1.58933	777
1.59300	549
1.59667	378
1.60033	258
1.60400	176
1.60767	121
1.61133	82
1.61500	53
1.61867	35
1.62233	24
1.62600	17
1.62967	13
1.63333	12
1.63700	9
1.64067	1
1.64433	-8
1.64800	-18
1.65167	-24
1.65533	-27
1.65900	-27
1.66267	-25
1.66633	-24
1.67000	-25
1.67367	-25
1.67733	-19
1.68100	-13
1.68467	-9
1.68833	-12
1.69200	-19
1.69567	-25
1.69933	-26
1.70300	-26
1.70667	-25
1.71033	-22
1.71400	-21
1.71767	-20
1.72133	-27
1.72500	-45
1.72867	-66
1.73233	-80
1.73600	-85
1.73967	-86
1.74333	-83
1.74700	-74
1.75067	-66
1.75433	-62
1.75800	-61
1.76167	-62
1.76533	-60
1.76900	-51
1.77267	-40
1.77633	-35
1.78000	-40
1.78367	-51
1.78733	-60
1.79100	-63
1.79467	-61
1.79833	-59
1.80200	-61
1.80567	-65
1.80933	-64
1.81300	-54
1.81667	-41
1.82033	-32
1.82400	-28
1.82767	-32
1.83133	-42
1.83500	-54
1.83867	-65
1.84233	-73
1.84600	-75
1.84967	-73
1.85333	-71
1.85700	-67
1.86067	-69
1.86433	-77
1.86800	-81
1.87167	-83
1.87533	-81
1.87900	-78
1.88267	-76
1.88633	-76
1.89000	-77
1.89367	-78
1.89733	-76
1.90100	-70
1.90467	-62
1.90833	-54
1.91200	-45
1.91567	-33
1.91933	-26
1.92300	-28
1.92667	-36
1.93033	-47
1.93400	-59
1.93767	-67
1.94133	-70
1.94500	-71
1.94867	-71
1.95233	-53
1.95600	88
1.95967	930
1.96333	4864
1.96700	18849
1.97067	57006
1.97433	137655
1.97800	271181
1.98167	447693
1.98533	638472
1.98900	809135
1.99267	932150
1.99633	990873
2.00000	978976
2.00367	902369
2.00733	778830
2.01100	633025
2.01467	488494
2.01833	361594
2.02200	259686
2.02567	182986
2.02933	127854
2.03300	89444
2.03667	63211
2.04033	45475
2.04400	33505
2.04767	25391
2.05133	19836
2.05500	15969
2.05867	13218
2.06233	11210
2.06600	9709
2.06967	8555
2.07333	7643
2.07700	6910
2.08067	6308
2.08433	5807
2.08800	5380
2.09167	5011
2.09533	4690
2.09900	4406
2.10267	4152
2.10633	3924
2.11000	3722
2.11367	3540
2.11733	3371
2.12100	3216
2.12467	3073
2.12833	2943
2.13200	2823
2.13567	2709
2.13933	2599
2.14300	2493
2.14667	2391
2.15033	2295
2.15400	2207
2.15767	2126
2.16133	2055
2.16500	1989
2.16867	1929
2.17233	1873
2.17600	1819
2.17967	1764
2.18333	1711
2.18700	1662
2.19067	1614
2.19433	1571
2.19800	1532
2.20167	1494
2.20533	1460
2.20900	1427
2.21267	1392
2.21633	1352
2.22000	1309
2.22367	1267
2.22733	1229
2.23100	1197
2.23467	1168
2.23833	1145
2.24200	1127
2.24567	1108
2.24933	1082
2.25300	1052
2.25667	1022
2.26033	996
2.26400	973
2.26767	956
2.27133	943
2.27500	929
2.27867	913
2.28233	895
2.28600	877
2.28967	860
2.29333	846
2.29700	836
2.30067	826
2.30433	816
2.30800	801
2.31167	786
2.31533	774
2.31900	762
2.32267	747
2.32633	735
2.33000	728
2.33367	722
2.33733	715
2.34100	706
2.34467	695
2.34833	683
2.35200	668
2.35567	651
2.35933	631
2.36300	610
2.36667	594
2.37033	581
2.37400	567
2.37767	557
2.38133	552
2.38500	549
2.38867	547
2.39233	543
2.39600	537
2.39967	532
2.40333	531
2.40700	531
2.41067	528
2.41433	524
2.41800	524
2.42167	526
2.42533	522
2.42900	515
2.43267	507
2.43633	501
2.44000	499
2.44367	497
2.44733	497
2.45100	497
2.45467	493
2.45833	488
2.46200	485
2.46567	482
2.46933	473
2.47300	459
2.47667	446
2.48033	435
2.48400	428
2.48767	426
2.49133	424
2.49500	418
2.49867	408
2.50233	401
2.50600	397
2.50967	396
2.51333	398
2.51700	401
2.52067	404
2.52433	404
2.52800	404
2.53167	403
2.53533	404
2.53900	405
2.54267	403
2.54633	396
2.55000	389
2.55367	381
2.55733	374
2.56100	369
2.56467	364
2.56833	361
2.57200	359
2.57567	359
2.57933	362
2.58300	361
2.58667	358
2.59033	355
2.59400	350
2.59767	345
2.60133	338
2.60500	331
2.60867	331
2.61233	333
2.61600	336
2.61967	337
2.62333	336
2.62700	336
2.63067	341
2.63433	345
2.63800	346
2.64167	346
2.64533	347
2.64900	347
2.65267	339
2.65633	328
2.66000	316
2.66367	308
2.66733	304
2.67100	305
2.67467	307
2.67833	305
2.68200	299
2.68567	293
2.68933	289
2.69300	291
2.69667	295
2.70033	302
2.70400	306
2.70767	305
2.71133	298
2.71500	291
2.71867	292
2.72233	296
2.72600	300
2.72967	304
2.73333	309
2.73700	314
2.74067	319
2.74433	319
2.74800	316
2.75167	314
2.75533	312
2.75900	310
2.76267	303
2.76633	293
2.77000	292
2.77367	297
2.77733	300
2.78100	297
2.78467	293
2.78833	291
2.79200	290
2.79567	292
2.79933	297
2.80300	303
2.80667	310
2.81033	315
2.81400	317
2.81767	314
2.82133	311
2.82500	315
2.82867	325
2.83233	332
2.83600	334
2.83967	327
2.84333	312
2.84700	293
2.85067	278
2.85433	270
2.85800	270
2.86167	274
2.86533	278
2.86900	283
2.87267	290
2.87633	298
2.88000	305
2.88367	307
2.88733	301
2.89100	292
2.89467	286
2.89833	281
2.90200	278
2.90567	278
2.90933	281
2.91300	283
2.91667	284
2.92033	280
2.92400	277
2.92767	273
2.93133	271
2.93500	272
2.93867	278
2.94233	286
2.94600	290
2.94967	291
2.95333	291
2.95700	290
2.96067	288
2.96433	284
2.96800	284
2.97167	286
2.97533	289
2.97900	289
2.98267	289
2.98633	292
2.99000	294
2.99367	301
2.99733	305
3.00100	306
3.00467	304
3.00833	304
3.01200	305
3.01567	306
3.01933	307
3.02300	305
3.02667	302
3.03033	296
3.03400	290
3.03767	286
3.04133	285
3.04500	284
3.04867	285
3.05233	287
3.05600	288
3.05967	293
3.06333	299
3.06700	300
3.07067	298
3.07433	295
3.07800	293
3.08167	292
3.08533	297
3.08900	304
3.09267	311
3.09633	312
3.10000	300
3.10367	283
3.10733	273
3.11100	267
3.11467	261
3.11833	254
3.12200	247
3.12567	242
3.12933	242
3.13300	244
3.13667	247
3.14033	254
3.14400	261
3.14767	271
3.15133	280
3.15500	286
3.15867	286
3.16233	283
3.16600	280
3.16967	277
3.17333	272
3.17700	268
3.18067	267
3.18433	268
3.18800	271
3.19167	271
3.19533	267
3.19900	263
3.20267	259
3.20633	257
3.21000	259
3.21367	267
3.21733	278
3.22100	288
3.22467	293
3.22833	290
3.23200	283
3.23567	276
3.23933	270
3.24300	266
3.24667	260
3.25033	254
3.25400	251
3.25767	255
3.26133	261
3.26500	266
3.26867	268
3.27233	263
3.27600	255
3.27967	248
3.28333	242
3.28700	244
3.29067	250
3.29433	256
3.29800	260
3.30167	266
3.30533	269
3.30900	270
3.31267	270
3.31633	270
3.32000	269
3.32367	267
3.32733	266
3.33100	269
3.33467	274
3.33833	280
3.34200	286
3.34567	285
3.34933	273
3.35300	255
3.35667	240
3.36033	232
3.36400	230
3.36767	233
3.37133	238
3.37500	242
3.37867	246
3.38233	247
3.38600	243
3.38967	239
3.39333	239
3.39700	240
3.40067	241
3.40433	240
3.40800	243
3.41167	250
3.41533	260
3.41900	266
3.42267	266
3.42633	262
3.43000	254
3.43367	244
3.43733	235
3.44100	230
3.44467	230
3.44833	233
3.45200	235
3.45567	238
3.45933	243
3.46300	249
3.46667	253
3.47033	253
3.47400	248
3.47767	240
3.48133	234
3.48500	233
3.48867	239
3.49233	244
3.49600	248
3.49967	254
3.50333	260
3.50700	263
3.51067	260
3.51433	254
3.51800	253
3.52167	256
3.52533	257
3.52900	253
3.53267	247
3.53633	239
3.54000	230
3.54367	218
3.54733	208
3.55100	202
3.55467	199
3.55833	199
3.56200	204
3.56567	213
3.56933	225
3.57300	231
3.57667	231
3.58033	228
3.58400	224
3.58767	219
3.59133	213
3.59500	206
3.59867	202
3.60233	202
3.60600	204
3.60967	210
3.61333	216
3.61700	219
3.62067	217
3.62433	214
3.62800	210
3.63167	207
3.63533	208
3.63900	208
3.64267	208
3.64633	208
3.65000	207
3.65367	210
3.65733	216
3.66100	219
3.66467	223
3.66833	228
3.67200	234
3.67567	237
3.67933	237
3.68300	232
3.68667	219
3.69033	206
3.69400	197
3.69767	193
3.70133	192
3.70500	195
3.70867	194
3.71233	188
3.71600	181
3.71967	179
3.72333	183
3.72700	189
3.73067	197
3.73433	207
3.73800	211
3.74167	206
3.74533	199
3.74900	195
3.75267	191
3.75633	188
3.76000	187
3.76367	190
3.76733	193
3.77100	196
3.77467	197
3.77833	195
3.78200	193
3.78567	192
3.78933	190
3.79300	188
3.79667	186
3.80033	189
3.80400	193
3.80767	193
3.81133	188
3.81500	179
3.81867	174
3.82233	174
3.82600	175
3.82967	177
3.83333	182
3.83700	193
3.84067	201
3.84433	205
3.84800	203
3.85167	195
3.85533	184
3.85900	171
3.86267	166
3.86633	163
3.87000	157
3.87367	155
3.87733	158
3.88100	162
3.88467	164
3.88833	166
3.89200	168
3.89567	169
3.89933	174
3.90300	181
3.90667	185
3.91033	186
3.91400	186
3.91767	183
3.92133	179
3.92500	173
3.92867	168
3.93233	161
3.93600	152
3.93967	149
3.94333	152
3.94700	159
3.95067	166
3.95433	170
3.95800	173
3.96167	172
3.96533	167
3.96900	163
3.97267	162
3.97633	163
3.98000	163
3.98367	158
3.98733	151
3.99100	149
3.99467	150
3.99833	150

[Chromatogram (Ch2)]
Interval(msec)	220
# of Points	1091
Start Time(min)	0.002
End Time(min)	3.998
R.Time (min)	Intensity
0.00167	-1
0.00533	-1
0.00900	-1
0.01267	-2
0.01633	-2
0.02000	-2
0.02367	-2
0.02733	-2
0.03100	-2
0.03467	-2
0.03833	-2
0.04200	-2
0.04567	-1
0.04933	-1
0.05300	-1
0.05667	-1
0.06033	-1
0.06400	-1
0.06767	-1
0.07133	-1
0.07500	-2
0.07867	-2
0.08233	-2
0.08600	-3
0.08967	-3
0.09333	-3
0.09700	-3
0.10067	-3
0.10433	-3
0.10800	-3
0.11167	-3
0.11533	-3
0.11900	-3
0.12267	-3
0.12633	-3
0.13000	-4
0.13367	-4
0.13733	-4
0.14100	-4
0.14467	-4
0.14833	-4
0.15200	-4
0.15567	-4
0.15933	-4
0.16300	-4
0.16667	-3
0.17033	-3
0.17400	-3
0.17767	-3
0.18133	-3
0.18500	-3
0.18867	-3
0.19233	-2
0.19600	-2
0.19967	-2
0.20333	-2
0.20700	-2
0.21067	-2
0.21433	-2
0.21800	-2
0.22167	-3
0.22533	-3
0.22900	-3
0.23267	-3
0.23633	-4
0.24000	-4
0.24367	-4
0.24733	-4
0.25100	-4
0.25467	-4
0.25833	-4
0.26200	-4
0.26567	-3
0.26933	-3
0.27300	-3
0.27667	-3
0.28033	-2
0.28400	-2
0.28767	-2
0.29133	-2
0.29500	-2
0.29867	-2
0.30233	-2
0.30600	-2
0.30967	-2
0.31333	-2
0.31700	-2
0.32067	-2
0.32433	-2
0.32800	-1
0.33167	-1
0.33533	-1
0.33900	-1
0.34267	-0
0.34633	-0
0.35000	-1
0.35367	-1
0.35733	-1
0.36100	-1
0.36467	-1
0.36833	-1
0.37200	-1
0.37567	-2
0.37933	-2
0.38300	-2
0.38667	-3
0.39033	-3
0.39400	-4
0.39767	-4
0.40133	-4
0.40500	-4
0.40867	-4
0.41233	-4
0.41600	-4
0.41967	-4
0.42333	-4
0.42700	-4
0.43067	-4
0.43433	-4
0.43800	-4
0.44167	-4
0.44533	-4
0.44900	-4
0.45267	-4
0.45633	-3
0.46000	-3
0.46367	-3
0.46733	-3
0.47100	-3
0.47467	-3
0.47833	-3
0.48200	-3
0.48567	-3
0.48933	-3
0.49300	-3
0.49667	-3
0.50033	-3
0.50400	-3
0.50767	-3
0.51133	-3
0.51500	-3
0.51867	-3
0.52233	-3
0.52600	-3
0.52967	-3
0.53333	-3
0.53700	-3
0.54067	-2
0.54433	-2
0.54800	-2
0.55167	-2
0.55533	-2
0.55900	-2
0.56267	-2
0.56633	-1
0.57000	-1
0.57367	-1
0.57733	-1
0.58100	-1
0.58467	-1
0.58833	-1
0.59200	-1
0.59567	-1
0.59933	-1
0.60300	-2
0.60667	-2
0.61033	-2
0.61400	-2
0.61767	-3
0.62133	-3
0.62500	-3
0.62867	-3
0.63233	-3
0.63600	-3
0.63967	-3
0.64333	-3
0.64700	-3
0.65067	-3
0.65433	-3
0.65800	-3
0.66167	-3
0.66533	-3
0.66900	-3
0.67267	-3
0.67633	-3
0.68000	-3
0.68367	-4
0.68733	-4
0.69100	-4
0.69467	-4
0.69833	-4
0.70200	-4
0.70567	-4
0.70933	-4
0.71300	-3
0.71667	-4
0.72033	-4
0.72400	-4
0.72767	-5
0.73133	-5
0.73500	-5
0.73867	-5
0.74233	-5
0.74600	-5
0.74967	-5
0.75333	-5
0.75700	-4
0.76067	-4
0.76433	-4
0.76800	-4
0.77167	-3
0.77533	-3
0.77900	-3
0.78267	-3
0.78633	-3
0.79000	-3
0.79367	-3
0.79733	-3
0.80100	-3
0.80467	-4
0.80833	-4
0.81200	-4
0.81567	-5
0.81933	-5
0.82300	-5
0.82667	-5
0.83033	-5
0.83400	-5
0.83767	-5
0.84133	-5
0.84500	-5
0.84867	-5
0.85233	-5
0.85600	-4
0.85967	-4
0.86333	-4
0.86700	-4
0.87067	-4
0.87433	-4
0.87800	-4
0.88167	-4
0.88533	-4
0.88900	-4
0.89267	-4
0.89633	-4
0.90000	-4
0.90367	-4
0.90733	-3
0.91100	-3
0.91467	-3
0.91833	-3
0.92200	-3
0.92567	-3
0.92933	-2
0.93300	-2
0.93667	-2
0.94033	-2
0.94400	-2
0.94767	-2
0.95133	-2
0.95500	-2
0.95867	-3
0.96233	-3
0.96600	-3
0.96967	-3
0.97333	-3
0.97700	-3
0.98067	-4
0.98433	-4
0.98800	-4
0.99167	-5
0.99533	-5
0.99900	-5
1.00267	-5
1.00633	-5
1.01000	-5
1.01367	-5
1.01733	-5
1.02100	-4
1.02467	-4
1.02833	-4
1.03200	-4
1.03567	-4
1.03933	-4
1.04300	-4
1.04667	-4
1.05033	-4
1.05400	-4
1.05767	-4
1.06133	-4
1.06500	-4
1.06867	-4
1.07233	-4
1.07600	-4
1.07967	-4
1.08333	-4
1.08700	-4
1.09067	-5
1.09433	-5
1.09800	-5
1.10167	-4
1.10533	-4
1.10900	-4
1.11267	-4
1.11633	-5
1.12000	-5
1.12367	-5
1.12733	-6
1.13100	-6
1.13467	-6
1.13833	-6
1.14200	-7
1.14567	-7
1.14933	-7
1.15300	-7
1.15667	-7
1.16033	-7
1.16400	-8
1.16767	-8
1.17133	-8
1.17500	-7
1.17867	-7
1.18233	-7
1.18600	-7
1.18967	-6
1.19333	-6
1.19700	-5
1.20067	-5
1.20433	-5
1.20800	-5
1.21167	-5
1.21533	-4
1.21900	-4
1.22267	-4
1.22633	-4
1.23000	-4
1.23367	-4
1.23733	-4
1.24100	-4
1.24467	-4
1.24833	-4
1.25200	-4
1.25567	-5
1.25933	-5
1.26300	-4
1.26667	-4
1.27033	-4
1.27400	-4
1.27767	-4
1.28133	-4
1.28500	-4
1.28867	-3
1.29233	-3
1.29600	-4
1.29967	-4
1.30333	-4
1.30700	-4
1.31067	-4
1.31433	-4
1.31800	-4
1.32167	-4
1.32533	-4
1.32900	-4
1.33267	-4
1.33633	-4
1.34000	-4
1.34367	-4
1.34733	-4
1.35100	-4
1.35467	-4
1.35833	-4
1.36200	-4
1.36567	-5
1.36933	-5
1.37300	-5
1.37667	-6
1.38033	-6
1.38400	-6
1.38767	-6
1.39133	-6
1.39500	-6
1.39867	-6
1.40233	-5
1.40600	-5
1.40967	-5
1.41333	-5
1.41700	-5
1.42067	-6
1.42433	-6
1.42800	-6
1.43167	-6
1.43533	-6
1.43900	-7
1.44267	-7
1.44633	-7
1.45000	-7
1.45367	-7
1.45733	-7
1.46100	-7
1.46467	-7
1.46833	-7
1.47200	-7
1.47567	-7
1.47933	-7
1.48300	-7
1.48667	-6
1.49033	-6
1.49400	-6
1.49767	-6
1.50133	-5
1.50500	-5
1.50867	-5
1.51233	-5
1.51600	-5
1.51967	-4
1.52333	-4
1.52700	-4
1.53067	-4
1.53433	-4
1.53800	-3
1.54167	-3
1.54533	-3
1.54900	-3
1.55267	-2
1.55633	-2
1.56000	-2
1.56367	-2
1.56733	-3
1.57100	-3
1.57467	-3
1.57833	-4
1.58200	-4
1.58567	-4
1.58933	-5
1.59300	-5
1.59667	-6
1.60033	-7
1.60400	-9
1.60767	-11
1.61133	-13
1.61500	-15
1.61867	-18
1.62233	-20
1.62600	-23
1.62967	-26
1.63333	-30
1.63700	-33
1.64067	-36
1.64433	-39
1.64800	-43
1.65167	-46
1.65533	-49
1.65900	-53
1.66267	-56
1.66633	-60
1.67000	-64
1.67367	-68
1.67733	-73
1.68100	-78
1.68467	-83
1.68833	-87
1.69200	-92
1.69567	-96
1.69933	-99
1.70300	-102
1.70667	-105
1.71033	-107
1.71400	-108
1.71767	-110
1.72133	-111
1.72500	-112
1.72867	-112
1.73233	-112
1.73600	-113
1.73967	-114
1.74333	-115
1.74700	-115
1.75067	-116
1.75433	-117
1.75800	-117
1.76167	-117
1.76533	-117
1.76900	-117
1.77267	-117
1.77633	-117
1.78000	-117
1.78367	-117
1.78733	-117
1.79100	-118
1.79467	-118
1.79833	-118
1.80200	-119
1.80567	-119
1.80933	-119
1.81300	-119
1.81667	-119
1.82033	-119
1.82400	-119
1.82767	-120
1.83133	-120
1.83500	-120
1.83867	-120
1.84233	-120
1.84600	-120
1.84967	-120
1.85333	-120
1.85700	-120
1.86067	-120
1.86433	-120
1.86800	-120
1.87167	-120
1.87533	-120
1.87900	-120
1.88267	-120
1.88633	-120
1.89000	-120
1.89367	-120
1.89733	-119
1.90100	-119
1.90467	-118
1.90833	-117
1.91200	-117
1.91567	-117
1.91933	-117
1.92300	-117
1.92667	-116
1.93033	-116
1.93400	-116
1.93767	-116
1.94133	-116
1.94500	-116
1.94867	-115
1.95233	-115
1.95600	-115
1.95967	-115
1.96333	-115
1.96700	-115
1.97067	-115
1.97433	-115
1.97800	-115
1.98167	-115
1.98533	-115
1.98900	-114
1.99267	-114
1.99633	-114
2.00000	-114
2.00367	-114
2.00733	-113
2.01100	-113
2.01467	-113
2.01833	-113
2.02200	-113
2.02567	-113
2.02933	-112
2.03300	-112
2.03667	-111
2.04033	-110
2.04400	-109
2.04767	-109
2.05133	-108
2.05500	-108
2.05867	-108
2.06233	-108
2.06600	-107
2.06967	-107
2.07333	-107
2.07700	-106
2.08067	-106
2.08433	-106
2.08800	-106
2.09167	-105
2.09533	-105
2.09900	-104
2.10267	-104
2.10633	-104
2.11000	-104
2.11367	-104
2.11733	-103
2.12100	-103
2.12467	-103
2.12833	-103
2.13200	-102
2.13567	-102
2.13933	-102
2.14300	-101
2.14667	-101
2.15033	-101
2.15400	-100
2.15767	-99
2.16133	-99
2.16500	-98
2.16867	-98
2.17233	-98
2.17600	-99
2.17967	-99
2.18333	-100
2.18700	-100
2.19067	-99
2.19433	-99
2.19800	-99
2.20167	-99
2.20533	-99
2.20900	-98
2.21267	-98
2.21633	-97
2.22000	-97
2.22367	-96
2.22733	-96
2.23100	-96
2.23467	-96
2.23833	-95
2.24200	-95
2.24567	-95
2.24933	-95
2.25300	-95
2.25667	-95
2.26033	-95
2.26400	-94
2.26767	-94
2.27133	-93
2.27500	-93
2.27867	-92
2.28233	-91
2.28600	-91
2.28967	-90
2.29333	-90
2.29700	-91
2.30067	-91
2.30433	-91
2.30800	-91
2.31167	-90
2.31533	-90
2.31900	-89
2.32267	-88
2.32633	-87
2.33000	-86
2.33367	-85
2.33733	-85
2.34100	-84
2.34467	-84
2.34833	-83
2.35200	-82
2.35567	-82
2.35933	-81
2.36300	-81
2.36667	-80
2.37033	-79
2.37400	-77
2.37767	-74
2.38133	-71
2.38500	-67
2.38867	-63
2.39233	-58
2.39600	-53
2.39967	-48
2.40333	-44
2.40700	-39
2.41067	-35
2.41433	-32
2.41800	-29
2.42167	-27
2.42533	-25
2.42900	-24
2.43267	-22
2.43633	-21
2.44000	-20
2.44367	-18
2.44733	-16
2.45100	-14
2.45467	-13
2.45833	-11
2.46200	-10
2.46567	-8
2.46933	-7
2.47300	-6
2.47667	-5
2.48033	-4
2.48400	-2
2.48767	-1
2.49133	0
2.49500	2
2.49867	3
2.50233	4
2.50600	4
2.50967	5
2.51333	6
2.51700	7
2.52067	8
2.52433	9
2.52800	9
2.53167	9
2.53533	9
2.53900	9
2.54267	9
2.54633	9
2.55000	9
2.55367	9
2.55733	9
2.56100	10
2.56467	10
2.56833	10
2.57200	11
2.57567	11
2.57933	11
2.58300	12
2.58667	12
2.59033	12
2.59400	12
2.59767	12
2.60133	12
2.60500	12
2.60867	12
2.61233	13
2.61600	13
2.61967	13
2.62333	14
2.62700	14
2.63067	14
2.63433	14
2.63800	14
2.64167	14
2.64533	14
2.64900	14
2.65267	14
2.65633	14
2.66000	15
2.66367	15
2.66733	15
2.67100	16
2.67467	17
2.67833	17
2.68200	18
2.68567	18
2.68933	18
2.69300	18
2.69667	18
2.70033	18
2.70400	18
2.70767	19
2.71133	19
2.71500	19
2.71867	20
2.72233	20
2.72600	20
2.72967	20
2.73333	20
2.73700	20
2.74067	20
2.74433	20
2.74800	19
2.75167	19
2.75533	18
2.75900	18
2.76267	18
2.76633	19
2.77000	19
2.77367	19
2.77733	20
2.78100	20
2.78467	21
2.78833	22
2.79200	22
2.79567	23
2.79933	23
2.80300	23
2.80667	23
2.81033	24
2.81400	24
2.81767	24
2.82133	23
2.82500	22
2.82867	21
2.83233	20
2.83600	19
2.83967	17
2.84333	14
2.84700	9
2.85067	2
2.85433	-8
2.85800	-21
2.86167	-39
2.86533	-60
2.86900	-86
2.87267	-116
2.87633	-150
2.88000	-188
2.88367	-230
2.88733	-274
2.89100	-322
2.89467	-372
2.89833	-423
2.90200	-476
2.90567	-530
2.90933	-583
2.91300	-637
2.91667	-690
2.92033	-743
2.92400	-794
2.92767	-844
2.93133	-896
2.93500	-952
2.93867	-1011
2.94233	-1062
2.94600	-1096
2.94967	-1105
2.95333	-1088
2.95700	-1048
2.96067	-990
2.96433	-920
2.96800	-842
2.97167	-762
2.97533	-682
2.97900	-605
2.98267	-533
2.98633	-467
2.99000	-406
2.99367	-352
2.99733	-304
3.00100	-261
3.00467	-224
3.00833	-191
3.01200	-163
3.01567	-139
3.01933	-118
3.02300	-100
3.02667	-84
3.03033	-71
3.03400	-59
3.03767	-50
3.04133	-41
3.04500	-34
3.04867	-28
3.05233	-23
3.05600	-18
3.05967	-14
3.06333	-11
3.06700	-8
3.07067	-6
3.07433	-3
3.07800	-1
3.08167	0
3.08533	2
3.08900	3
3.09267	4
3.09633	5
3.10000	5
3.10367	6
3.10733	7
3.11100	7
3.11467	8
3.11833	8
3.12200	9
3.12567	9
3.12933	10
3.13300	10
3.13667	11
3.14033	11
3.14400	12
3.14767	12
3.15133	13
3.15500	13
3.15867	14
3.16233	14
3.16600	14
3.16967	15
3.17333	15
3.17700	15
3.18067	16
3.18433	16
3.18800	16
3.19167	16
3.19533	16
3.19900	16
3.20267	16
3.20633	16
3.21000	17
3.21367	17
3.21733	17
3.22100	17
3.22467	16
3.22833	16
3.23200	16
3.23567	16
3.23933	16
3.24300	16
3.24667	16
3.25033	16
3.25400	16
3.25767	16
3.26133	16
3.26500	16
3.26867	17
3.27233	17
3.27600	17
3.27967	17
3.28333	17
3.28700	17
3.29067	18
3.29433	18
3.29800	19
3.30167	19
3.30533	20
3.30900	20
3.31267	21
3.31633	21
3.32000	22
3.32367	22
3.32733	23
3.33100	23
3.33467	23
3.33833	23
3.34200	23
3.34567	23
3.34933	23
3.35300	23
3.35667	22
3.36033	22
3.36400	22
3.36767	22
3.37133	22
3.37500	22
3.37867	22
3.38233	22
3.38600	22
3.38967	22
3.39333	22
3.39700	22
3.40067	22
3.40433	22
3.40800	22
3.41167	21
3.41533	21
3.41900	21
3.42267	21
3.42633	21
3.43000	22
3.43367	22
3.43733	22
3.44100	22
3.44467	22
3.44833	22
3.45200	22
3.45567	22
3.45933	22
3.46300	22
3.46667	22
3.47033	22
3.47400	22
3.47767	22
3.48133	22
3.48500	22
3.48867	23
3.49233	23
3.49600	23
3.49967	23
3.50333	23
3.50700	23
3.51067	23
3.51433	23
3.51800	23
3.52167	23
3.52533	23
3.52900	23
3.53267	23
3.53633	23
3.54000	22
3.54367	22
3.54733	22
3.55100	22
3.55467	22
3.55833	22
3.56200	22
3.56567	22
3.56933	23
3.57300	23
3.57667	23
3.58033	23
3.58400	23
3.58767	23
3.59133	23
3.59500	22
3.59867	22
3.60233	22
3.60600	22
3.60967	22
3.61333	22
3.61700	22
3.62067	22
3.62433	23
3.62800	23
3.63167	23
3.63533	23
3.63900	23
3.64267	23
3.64633	23
3.65000	24
3.65367	24
3.65733	24
3.66100	24
3.66467	24
3.66833	24
3.67200	23
3.67567	23
3.67933	23
3.68300	23
3.68667	23
3.69033	23
3.69400	22
3.69767	22
3.70133	22
3.70500	22
3.70867	22
3.71233	22
3.71600	21
3.71967	21
3.72333	21
3.72700	21
3.73067	21
3.73433	21
3.73800	21
3.74167	21
3.74533	21
3.74900	21
3.75267	21
3.75633	21
3.76000	21
3.76367	22
3.76733	22
3.77100	22
3.77467	22
3.77833	21
3.78200	21
3.78567	21
3.78933	21
3.79300	21
3.79667	21
3.80033	21
3.80400	21
3.80767	21
3.81133	22
3.81500	22
3.81867	22
3.82233	22
3.82600	22
3.82967	22
3.83333	22
3.83700	23
3.84067	23
3.84433	23
3.84800	23
3.85167	23
3.85533	23
3.85900	23
3.86267	23
3.86633	23
3.87000	23
3.87367	22
3.87733	22
3.88100	22
3.88467	21
3.88833	21
3.89200	20
3.89567	20
3.89933	20
3.90300	20
3.90667	20
3.91033	20
3.91400	20
3.91767	20
3.92133	21
3.92500	21
3.92867	21
3.93233	22
3.93600	22
3.93967	22
3.94333	22
3.94700	22
3.95067	22
3.95433	21
3.95800	21
3.96167	21
3.96533	21
3.96900	21
3.97267	21
3.97633	21
3.98000	21
3.98367	22
3.98733	22
3.99100	22
3.99467	22
3.99833	22

[Chromatogram (Ch3)]
Interval(msec)	220
# of Points	1091
Start Time(min)	0.002
End Time(min)	3.998
R.Time (min)	Intensity
0.00167	0
0.00533	1
0.00900	2
0.01267	4
0.01633	5
0.02000	6
0.02367	9
0.02733	10
0.03100	8
0.03467	8
0.03833	6
0.04200	5
0.04567	6
0.04933	9
0.05300	9
0.05667	9
0.06033	8
0.06400	9
0.06767	10
0.07133	9
0.07500	8
0.07867	6
0.08233	4
0.08600	4
0.08967	4
0.09333	4
0.09700	5
0.10067	8
0.10433	9
0.10800	10
0.11167	12
0.11533	12
0.11900	10
0.12267	9
0.12633	7
0.13000	5
0.13367	5
0.13733	4
0.14100	4
0.14467	6
0.14833	7
0.15200	8
0.15567	8
0.15933	7
0.16300	6
0.16667	7
0.17033	6
0.17400	7
0.17767	7
0.18133	8
0.18500	10
0.18867	12
0.19233	12
0.19600	10
0.19967	9
0.20333	11
0.20700	12
0.21067	14
0.21433	16
0.21800	17
0.22167	14
0.22533	10
0.22900	9
0.23267	8
0.23633	10
0.24000	13
0.24367	15
0.24733	15
0.25100	15
0.25467	16
0.25833	16
0.26200	16
0.26567	14
0.26933	14
0.27300	16
0.27667	17
0.28033	15
0.28400	15
0.28767	14
0.29133	13
0.29500	13
0.29867	13
0.30233	12
0.30600	10
0.30967	11
0.31333	13
0.31700	15
0.32067	17
0.32433	18
0.32800	18
0.33167	19
0.33533	18
0.33900	18
0.34267	16
0.34633	16
0.35000	16
0.35367	17
0.35733	17
0.36100	17
0.36467	16
0.36833	13
0.37200	13
0.37567	13
0.37933	14
0.38300	14
0.38667	15
0.39033	16
0.39400	17
0.39767	19
0.40133	17
0.40500	16
0.40867	15
0.41233	14
0.41600	13
0.41967	14
0.42333	14
0.42700	13
0.43067	14
0.43433	16
0.43800	17
0.44167	15
0.44533	13
0.44900	14
0.45267	16
0.45633	18
0.46000	18
0.46367	17
0.46733	13
0.47100	13
0.47467	15
0.47833	15
0.48200	16
0.48567	17
0.48933	18
0.49300	18
0.49667	18
0.50033	17
0.50400	16
0.50767	15
0.51133	16
0.51500	17
0.51867	18
0.52233	18
0.52600	19
0.52967	19
0.53333	21
0.53700	23
0.54067	25
0.54433	26
0.54800	24
0.55167	23
0.55533	22
0.55900	22
0.56267	21
0.56633	19
0.57000	18
0.57367	17
0.57733	18
0.58100	18
0.58467	19
0.58833	23
0.59200	25
0.59567	26
0.59933	27
0.60300	27
0.60667	26
0.61033	24
0.61400	24
0.61767	24
0.62133	23
0.62500	21
0.62867	20
0.63233	20
0.63600	20
0.63967	22
0.64333	23
0.64700	22
0.65067	22
0.65433	21
0.65800	20
0.66167	20
0.66533	22
0.66900	22
0.67267	23
0.67633	25
0.68000	27
0.68367	26
0.68733	27
0.69100	26
0.69467	23
0.69833	20
0.70200	19
0.70567	19
0.70933	20
0.71300	20
0.71667	21
0.72033	20
0.72400	18
0.72767	16
0.73133	17
0.73500	18
0.73867	20
0.74233	22
0.74600	25
0.74967	26
0.75333	27
0.75700	27
0.76067	26
0.76433	26
0.76800	24
0.77167	24
0.77533	24
0.77900	26
0.78267	27
0.78633	28
0.79000	28
0.79367	28
0.79733	24
0.80100	22
0.80467	23
0.80833	24
0.81200	26
0.81567	26
0.81933	26
0.82300	26
0.82667	27
0.83033	28
0.83400	29
0.83767	29
0.84133	28
0.84500	28
0.84867	26
0.85233	24
0.85600	25
0.85967	25
0.86333	27
0.86700	29
0.87067	30
0.87433	28
0.87800	27
0.88167	27
0.88533	27
0.88900	28
0.89267	29
0.89633	30
0.90000	30
0.90367	30
0.90733	28
0.91100	28
0.91467	29
0.91833	33
0.92200	34
0.92567	34
0.92933	32
0.93300	30
0.93667	28
0.94033	28
0.94400	28
0.94767	29
0.95133	31
0.95500	31
0.95867	29
0.96233	28
0.96600	27
0.96967	26
0.97333	27
0.97700	29
0.98067	31
0.98433	32
0.98800	31
0.99167	28
0.99533	28
0.99900	29
1.00267	29
1.00633	27
1.01000	24
1.01367	22
1.01733	22
1.02100	24
1.02467	26
1.02833	27
1.03200	26
1.03567	24
1.03933	23
1.04300	24
1.04667	26
1.05033	26
1.05400	26
1.05767	28
1.06133	26
1.06500	24
1.06867	23
1.07233	24
1.07600	27
1.07967	29
1.08333	31
1.08700	32
1.09067	29
1.09433	24
1.09800	22
1.10167	22
1.10533	25
1.10900	27
1.11267	28
1.11633	30
1.12000	30
1.12367	30
1.12733	30
1.13100	30
1.13467	32
1.13833	33
1.14200	31
1.14567	28
1.14933	26
1.15300	26
1.15667	26
1.16033	28
1.16400	29
1.16767	30
1.17133	31
1.17500	32
1.17867	31
1.18233	31
1.18600	30
1.18967	29
1.19333	29
1.19700	31
1.20067	32
1.20433	33
1.20800	32
1.21167	33
1.21533	31
1.21900	28
1.22267	28
1.22633	28
1.23000	27
1.23367	28
1.23733	29
1.24100	29
1.24467	28
1.24833	27
1.25200	27
1.25567	29
1.25933	28
1.26300	26
1.26667	24
1.27033	24
1.27400	26
1.27767	28
1.28133	31
1.28500	33
1.28867	34
1.29233	35
1.29600	34
1.29967	33
1.30333	33
1.30700	33
1.31067	34
1.31433	35
1.31800	36
1.32167	34
1.32533	32
1.32900	30
1.33267	30
1.33633	31
1.34000	31
1.34367	32
1.34733	34
1.35100	36
1.35467	37
1.35833	35
1.36200	34
1.36567	33
1.36933	34
1.37300	34
1.37667	35
1.38033	35
1.38400	35
1.38767	36
1.39133	36
1.39500	34
1.39867	34
1.40233	34
1.40600	36
1.40967	37
1.41333	39
1.41700	42
1.42067	40
1.42433	38
1.42800	36
1.43167	34
1.43533	34
1.43900	32
1.44267	33
1.44633	35
1.45000	38
1.45367	39
1.45733	41
1.46100	41
1.46467	40
1.46833	39
1.47200	39
1.47567	39
1.47933	38
1.48300	37
1.48667	38
1.49033	40
1.49400	40
1.49767	42
1.50133	43
1.50500	44
1.50867	45
1.51233	46
1.51600	45
1.51967	43
1.52333	44
1.52700	46
1.53067	47
1.53433	47
1.53800	45
1.54167	44
1.54533	44
1.54900	41
1.55267	37
1.55633	34
1.56000	33
1.56367	34
1.56733	36
1.57100	36
1.57467	36
1.57833	38
1.58200	39
1.58567	38
1.58933	37
1.59300	40
1.59667	45
1.60033	47
1.60400	49
1.60767	51
1.61133	51
1.61500	52
1.61867	51
1.62233	48
1.62600	47
1.62967	47
1.63333	47
1.63700	47
1.64067	47
1.64433	47
1.64800	48
1.65167	47
1.65533	47
1.65900	44
1.66267	41
1.66633	44
1.67000	45
1.67367	46
1.67733	46
1.68100	47
1.68467	48
1.68833	50
1.69200	50
1.69567	49
1.69933	49
1.70300	49
1.70667	50
1.71033	51
1.71400	52
1.71767	52
1.72133	50
1.72500	46
1.72867	45
1.73233	47
1.73600	50
1.73967	51
1.74333	52
1.74700	52
1.75067	54
1.75433	58
1.75800	60
1.76167	59
1.76533	59
1.76900	63
1.77267	66
1.77633	65
1.78000	65
1.78367	64
1.78733	65
1.79100	67
1.79467	67
1.79833	66
1.80200	66
1.80567	65
1.80933	63
1.81300	62
1.81667	60
1.82033	61
1.82400	63
1.82767	66
1.83133	67
1.83500	67
1.83867	68
1.84233	67
1.84600	69
1.84967	71
1.85333	71
1.85700	71
1.86067	70
1.86433	69
1.86800	70
1.87167	71
1.87533	71
1.87900	71
1.88267	72
1.88633	72
1.89000	71
1.89367	73
1.89733	75
1.90100	76
1.90467	77
1.90833	78
1.91200	77
1.91567	78
1.91933	80
1.92300	83
1.92667	84
1.93033	84
1.93400	86
1.93767	84
1.94133	82
1.94500	82
1.94867	82
1.95233	81
1.95600	80
1.95967	83
1.96333	84
1.96700	84
1.97067	84
1.97433	83
1.97800	83
1.98167	83
1.98533	83
1.98900	86
1.99267	92
1.99633	97
2.00000	98
2.00367	98
2.00733	99
2.01100	100
2.01467	100
2.01833	101
2.02200	100
2.02567	100
2.02933	99
2.03300	100
2.03667	104
2.04033	106
2.04400	109
2.04767	112
2.05133	112
2.05500	112
2.05867	113
2.06233	113
2.06600	110
2.06967	109
2.07333	109
2.07700	111
2.08067	114
2.08433	115
2.08800	117
2.09167	119
2.09533	124
2.09900	124
2.10267	123
2.10633	123
2.11000	123
2.11367	122
2.11733	122
2.12100	124
2.12467	125
2.12833	129
2.13200	131
2.13567	132
2.13933	133
2.14300	134
2.14667	133
2.15033	134
2.15400	136
2.15767	136
2.16133	137
2.16500	139
2.16867	144
2.17233	147
2.17600	149
2.17967	150
2.18333	150
2.18700	150
2.19067	152
2.19433	152
2.19800	152
2.20167	152
2.20533	152
2.20900	154
2.21267	156
2.21633	155
2.22000	157
2.22367	159
2.22733	162
2.23100	166
2.23467	169
2.23833	170
2.24200	170
2.24567	169
2.24933	169
2.25300	170
2.25667	171
2.26033	175
2.26400	178
2.26767	180
2.27133	182
2.27500	182
2.27867	181
2.28233	180
2.28600	182
2.28967	185
2.29333	188
2.29700	189
2.30067	189
2.30433	190
2.30800	191
2.31167	192
2.31533	192
2.31900	193
2.32267	193
2.32633	194
2.33000	197
2.33367	201
2.33733	204
2.34100	209
2.34467	210
2.34833	211
2.35200	213
2.35567	217
2.35933	220
2.36300	220
2.36667	222
2.37033	226
2.37400	229
2.37767	231
2.38133	231
2.38500	230
2.38867	230
2.39233	232
2.39600	234
2.39967	238
2.40333	245
2.40700	249
2.41067	253
2.41433	257
2.41800	259
2.42167	261
2.42533	262
2.42900	263
2.43267	265
2.43633	266
2.44000	269
2.44367	306
2.44733	407
2.45100	517
2.45467	607
2.45833	660
2.46200	667
2.46567	643
2.46933	612
2.47300	588
2.47667	575
2.48033	565
2.48400	550
2.48767	527
2.49133	495
2.49500	464
2.49867	436
2.50233	413
2.50600	398
2.50967	390
2.51333	388
2.51700	390
2.52067	396
2.52433	408
2.52800	421
2.53167	432
2.53533	443
2.53900	445
2.54267	439
2.54633	429
2.55000	416
2.55367	398
2.55733	379
2.56100	362
2.56467	349
2.56833	338
2.57200	331
2.57567	326
2.57933	321
2.58300	317
2.58667	315
2.59033	312
2.59400	309
2.59767	302
2.60133	289
2.60500	273
2.60867	254
2.61233	234
2.61600	214
2.61967	197
2.62333	183
2.62700	169
2.63067	157
2.63433	148
2.63800	145
2.64167	146
2.64533	151
2.64900	160
2.65267	169
2.65633	177
2.66000	186
2.66367	196
2.66733	204
2.67100	209
2.67467	213
2.67833	216
2.68200	218
2.68567	218
2.68933	214
2.69300	210
2.69667	207
2.70033	204
2.70400	201
2.70767	199
2.71133	197
2.71500	195
2.71867	195
2.72233	195
2.72600	195
2.72967	193
2.73333	191
2.73700	192
2.74067	194
2.74433	195
2.74800	196
2.75167	198
2.75533	199
2.75900	201
2.76267	203
2.76633	207
2.77000	209
2.77367	210
2.77733	210
2.78100	212
2.78467	213
2.78833	213
2.79200	209
2.79567	206
2.79933	204
2.80300	207
2.80667	211
2.81033	213
2.81400	215
2.81767	222
2.82133	238
2.82500	272
2.82867	345
2.83233	474
2.83600	682
2.83967	986
2.84333	1398
2.84700	1903
2.85067	2476
2.85433	3081
2.85800	3668
2.86167	4188
2.86533	4599
2.86900	4879
2.87267	5012
2.87633	5002
2.88000	4871
2.88367	4646
2.88733	4353
2.89100	4022
2.89467	3671
2.89833	3320
2.90200	2984
2.90567	2668
2.90933	2378
2.91300	2115
2.91667	1879
2.92033	1669
2.92400	1483
2.92767	1319
2.93133	1177
2.93500	1054
2.93867	948
2.94233	856
2.94600	776
2.94967	706
2.95333	646
2.95700	592
2.96067	545
2.96433	504
2.96800	467
2.97167	435
2.97533	407
2.97900	387
2.98267	368
2.98633	349
2.99000	334
2.99367	320
2.99733	308
3.00100	295
3.00467	284
3.00833	275
3.01200	267
3.01567	261
3.01933	255
3.02300	249
3.02667	244
3.03033	240
3.03400	236
3.03767	233
3.04133	230
3.04500	226
3.04867	221
3.05233	215
3.05600	210
3.05967	207
3.06333	206
3.06700	206
3.07067	205
3.07433	202
3.07800	199
3.08167	198
3.08533	196
3.08900	194
3.09267	193
3.09633	191
3.10000	191
3.10367	188
3.10733	188
3.11100	188
3.11467	189
3.11833	187
3.12200	185
3.12567	184
3.12933	184
3.13300	184
3.13667	184
3.14033	181
3.14400	170
3.14767	143
3.15133	114
3.15500	96
3.15867	87
3.16233	88
3.16600	100
3.16967	122
3.17333	157
3.17700	198
3.18067	241
3.18433	283
3.18800	325
3.19167	366
3.19533	404
3.19900	436
3.20267	465
3.20633	492
3.21000	516
3.21367	537
3.21733	554
3.22100	569
3.22467	581
3.22833	592
3.23200	603
3.23567	612
3.23933	620
3.24300	628
3.24667	636
3.25033	642
3.25400	646
3.25767	650
3.26133	654
3.26500	657
3.26867	661
3.27233	663
3.27600	665
3.27967	665
3.28333	664
3.28700	664
3.29067	663
3.29433	661
3.29800	659
3.30167	659
3.30533	661
3.30900	662
3.31267	661
3.31633	660
3.32000	660
3.32367	660
3.32733	660
3.33100	659
3.33467	659
3.33833	659
3.34200	657
3.34567	655
3.34933	653
3.35300	649
3.35667	646
3.36033	646
3.36400	646
3.36767	644
3.37133	644
3.37500	646
3.37867	648
3.38233	649
3.38600	649
3.38967	649
3.39333	648
3.39700	647
3.40067	644
3.40433	643
3.40800	644
3.41167	645
3.41533	645
3.41900	646
3.42267	647
3.42633	649
3.43000	652
3.43367	652
3.43733	650
3.44100	651
3.44467	653
3.44833	652
3.45200	651
3.45567	650
3.45933	648
3.46300	645
3.46667	644
3.47033	643
3.47400	642
3.47767	640
3.48133	637
3.48500	635
3.48867	633
3.49233	631
3.49600	631
3.49967	633
3.50333	631
3.50700	627
3.51067	624
3.51433	621
3.51800	619
3.52167	618
3.52533	615
3.52900	613
3.53267	610
3.53633	608
3.54000	608
3.54367	609
3.54733	608
3.55100	607
3.55467	609
3.55833	607
3.56200	607
3.56567	605
3.56933	602
3.57300	600
3.57667	597
3.58033	596
3.58400	594
3.58767	592
3.59133	592
3.59500	592
3.59867	592
3.60233	590
3.60600	588
3.60967	585
3.61333	584
3.61700	583
3.62067	582
3.62433	582
3.62800	582
3.63167	583
3.63533	583
3.63900	581
3.64267	578
3.64633	576
3.65000	573
3.65367	571
3.65733	571
3.66100	571
3.66467	573
3.66833	572
3.67200	570
3.67567	569
3.67933	568
3.68300	566
3.68667	567
3.69033	569
3.69400	568
3.69767	567
3.70133	565
3.70500	565
3.70867	565
3.71233	565
3.71600	565
3.71967	566
3.72333	565
3.72700	562
3.73067	560
3.73433	560
3.73800	560
3.74167	561
3.74533	561
3.74900	562
3.75267	563
3.75633	564
3.76000	560
3.76367	555
3.76733	553
3.77100	552
3.77467	553
3.77833	554
3.78200	556
3.78567	555
3.78933	556
3.79300	556
3.79667	555
3.80033	553
3.80400	552
3.80767	551
3.81133	554
3.81500	556
3.81867	554
3.82233	552
3.82600	551
3.82967	552
3.83333	552
3.83700	550
3.84067	548
3.84433	545
3.84800	544
3.85167	544
3.85533	545
3.85900	545
3.86267	543
3.86633	540
3.87000	540
3.87367	541
3.87733	540
3.88100	540
3.88467	540
3.88833	541
3.89200	541
3.89567	539
3.89933	539
3.90300	539
3.90667	536
3.91033	531
3.91400	528
3.91767	529
3.92133	530
3.92500	529
3.92867	526
3.93233	526
3.93600	526
3.93967	525
3.94333	523
3.94700	522
3.95067	520
3.95433	518
3.95800	515
3.96167	512
3.96533	512
3.96900	515
3.97267	518
3.97633	520
3.98000	519
3.98367	516
3.98733	514
3.99100	512
3.99467	509
3.99833	503

[Status Trace (Column Oven Temperature)]
Interval(msec)	1000
# of Points	240
Start Time(min)	0.016
End Time(min)	3.999
Intensity Units	
Intensity Multiplier	1
R.Time (min)	Intensity
0.01578	35.02
0.03245	35.02
0.04912	35.01
0.06578	35.00
0.08245	35.01
0.09912	35.02
0.11578	35.03
0.13245	35.04
0.14912	35.04
0.16578	35.04
0.18245	35.04
0.19912	35.03
0.21578	35.04
0.23245	35.04
0.24912	35.04
0.26578	35.03
0.28245	35.03
0.29912	35.02
0.31578	35.02
0.33245	35.00
0.34912	35.00
0.36578	34.99
0.38245	35.00
0.39912	35.00
0.41578	35.01
0.43245	35.02
0.44912	35.02
0.46578	35.01
0.48245	35.01
0.49912	35.01
0.51578	35.02
0.53245	35.01
0.54912	35.01
0.56578	35.00
0.58245	34.99
0.59912	35.00
0.61578	35.00
0.63245	35.00
0.64912	35.00
0.66578	35.01
0.68245	35.00
0.69912	34.99
0.71578	35.00
0.73245	35.01
0.74912	35.01
0.76578	35.01
0.78245	35.01
0.79912	35.01
0.81578	35.01
0.83245	35.00
0.84912	35.01
0.86578	35.00
0.88245	34.99
0.89912	35.00
0.91578	35.00
0.93245	34.99
0.94912	34.98
0.96578	34.98
0.98245	34.99
0.99912	34.99
1.01578	34.99
1.03245	34.99
1.04912	34.98
1.06578	34.98
1.08245	34.98
1.09912	34.98
1.11578	34.99
1.13245	35.00
1.14912	35.01
1.16578	35.01
1.18245	35.01
1.19912	35.00
1.21578	35.01
1.23245	35.01
1.24912	35.00
1.26578	35.00
1.28245	34.99
1.29912	34.99
1.31578	34.99
1.33245	34.99
1.34912	34.99
1.36578	34.99
1.38245	35.00
1.39912	35.00
1.41578	35.01
1.43245	35.00
1.44912	35.02
1.46578	35.02
1.48245	35.02
1.49912	35.01
1.51578	35.00
1.53245	34.99
1.54912	34.99
1.56578	34.98
1.58245	34.99
1.59912	35.03
1.61578	35.13
1.63245	35.28
1.64912	35.50
1.66578	35.77
1.68245	36.13
1.69912	36.49
1.71578	36.83
1.73245	37.17
1.74912	37.51
1.76578	37.84
1.78245	38.17
1.79912	38.50
1.81578	38.83
1.83245	39.16
1.84912	39.49
1.86578	39.82
1.88245	40.15
1.89912	40.47
1.91578	40.80
1.93245	41.12
1.94912	41.45
1.96578	41.77
1.98245	42.11
1.99912	42.42
2.01578	42.76
2.03245	43.08
2.04912	43.40
2.06578	43.72
2.08245	44.04
2.09912	44.37
2.11578	44.70
2.13245	45.02
2.14912	45.34
2.16578	45.65
2.18245	45.98
2.19912	46.32
2.21578	46.64
2.23245	46.98
2.24912	47.32
2.26578	47.66
2.28245	47.97
2.29912	48.33
2.31578	48.66
2.33245	48.98
2.34912	49.29
2.36578	49.57
2.38245	49.70
2.39912	49.72
2.41578	49.72
2.43245	49.74
2.44912	49.72
2.46578	49.74
2.48245	49.74
2.49912	49.75
2.51578	49.74
2.53245	49.76
2.54912	49.79
2.56578	49.79
2.58245	49.81
2.59912	49.82
2.61578	49.81
2.63245	49.81
2.64912	49.82
2.66578	49.83
2.68245	49.83
2.69912	49.84
2.71578	49.85
2.73245	49.85
2.74912	49.88
2.76578	49.88
2.78245	49.86
2.79912	49.85
2.81578	49.86
2.83245	49.90
2.84912	49.93
2.86578	49.95
2.88245	49.95
2.89912	49.95
2.91578	49.94
2.93245	49.94
2.94912	49.92
2.96578	49.93
2.98245	49.94
2.99912	49.95
3.01578	49.96
3.03245	49.97
3.04912	49.98
3.06578	49.99
3.08245	50.00
3.09912	50.01
3.11578	50.02
3.13245	50.03
3.14912	50.03
3.16578	50.03
3.18245	50.03
3.19912	50.04
3.21578	50.05
3.23245	50.07
3.24912	50.09
3.26578	50.10
3.28245	50.10
3.29912	50.09
3.31578	50.08
3.33245	50.07
3.34912	50.07
3.36578	50.06
3.38245	50.06
3.39912	50.07
3.41578	50.07
3.43245	50.07
3.44912	50.07
3.46578	50.07
3.48245	50.07
3.49912	50.07
3.51578	50.06
3.53245	50.07
3.54912	50.07
3.56578	50.07
3.58245	50.07
3.59912	50.08
3.61578	50.08
3.63245	50.08
3.64912	50.07
3.66578	50.07
3.68245	50.07
3.69912	50.07
3.71578	50.09
3.73245	50.09
3.74912	50.09
3.76578	50.09
3.78245	50.09
3.79912	50.09
3.81578	50.09
3.83245	50.08
3.84912	50.08
3.86578	50.08
3.88245	50.08
3.89912	50.09
3.91578	50.09
3.93245	50.09
3.94912	50.09
3.96578	50.09
3.98245	50.09
3.99912	50.09

[Status Trace (Injection Unit Temperature)]
Interval(msec)	1000
# of Points	240
Start Time(min)	0.016
End Time(min)	3.999
Intensity Units	
Intensity Multiplier	1
R.Time (min)	Intensity
0.01578	99.98
0.03245	99.98
0.04912	99.98
0.06578	99.98
0.08245	99.98
0.09912	99.98
0.11578	99.98
0.13245	99.98
0.14912	99.98
0.16578	99.98
0.18245	99.98
0.19912	99.98
0.21578	99.98
0.23245	99.98
0.24912	99.98
0.26578	99.97
0.28245	99.98
0.29912	99.97
0.31578	99.98
0.33245	99.98
0.34912	99.98
0.36578	99.97
0.38245	99.98
0.39912	99.98
0.41578	99.97
0.43245	99.97
0.44912	99.98
0.46578	99.97
0.48245	99.97
0.49912	99.98
0.51578	99.98
0.53245	99.97
0.54912	99.97
0.56578	99.98
0.58245	99.97
0.59912	99.97
0.61578	99.98
0.63245	99.97
0.64912	99.97
0.66578	99.97
0.68245	99.98
0.69912	99.98
0.71578	99.98
0.73245	99.98
0.74912	99.98
0.76578	99.98
0.78245	99.98
0.79912	99.98
0.81578	99.98
0.83245	99.98
0.84912	99.97
0.86578	99.98
0.88245	99.98
0.89912	99.98
0.91578	99.98
0.93245	99.98
0.94912	99.98
0.96578	99.98
0.98245	99.98
0.99912	99.98
1.01578	99.99
1.03245	99.98
1.04912	99.97
1.06578	99.98
1.08245	99.99
1.09912	99.99
1.11578	99.99
1.13245	99.98
1.14912	99.99
1.16578	99.99
1.18245	99.99
1.19912	99.99
1.21578	99.99
1.23245	99.99
1.24912	99.99
1.26578	99.99
1.28245	99.99
1.29912	99.99
1.31578	99.99
1.33245	99.99
1.34912	99.99
1.36578	99.99
1.38245	99.99
1.39912	99.99
1.41578	99.99
1.43245	99.99
1.44912	99.99
1.46578	99.99
1.48245	99.99
1.49912	99.98
1.51578	99.99
1.53245	99.99
1.54912	99.98
1.56578	99.99
1.58245	99.99
1.59912	99.98
1.61578	99.99
1.63245	99.99
1.64912	99.99
1.66578	99.98
1.68245	99.98
1.69912	99.99
1.71578	99.98
1.73245	99.99
1.74912	99.99
1.76578	99.99
1.78245	99.98
1.79912	99.98
1.81578	99.99
1.83245	99.98
1.84912	99.98
1.86578	99.98
1.88245	99.98
1.89912	99.98
1.91578	99.98
1.93245	99.98
1.94912	99.98
1.96578	99.98
1.98245	99.97
1.99912	99.97
2.01578	99.98
2.03245	99.98
2.04912	99.98
2.06578	99.98
2.08245	99.97
2.09912	99.98
2.11578	99.97
2.13245	99.97
2.14912	99.97
2.16578	99.98
2.18245	99.97
2.19912	99.97
2.21578	99.97
2.23245	99.97
2.24912	99.97
2.26578	99.97
2.28245	99.97
2.29912	99.97
2.31578	99.97
2.33245	99.97
2.34912	99.97
2.36578	99.97
2.38245	99.97
2.39912	99.97
2.41578	99.97
2.43245	99.97
2.44912	99.97
2.46578	99.97
2.48245	99.97
2.49912	99.97
2.51578	99.97
2.53245	99.97
2.54912	99.98
2.56578	99.98
2.58245	99.98
2.59912	99.98
2.61578	99.98
2.63245	99.97
2.64912	99.98
2.66578	99.98
2.68245	99.98
2.69912	99.98
2.71578	99.99
2.73245	99.99
2.74912	99.98
2.76578	99.99
2.78245	99.99
2.79912	99.98
2.81578	99.99
2.83245	99.99
2.84912	99.99
2.86578	99.99
2.88245	100.00
2.89912	100.00
2.91578	100.00
2.93245	99.99
2.94912	100.00
2.96578	100.00
2.98245	100.00
2.99912	100.01
3.01578	100.01
3.03245	100.01
3.04912	100.00
3.06578	100.01
3.08245	100.01
3.09912	100.01
3.11578	100.01
3.13245	100.01
3.14912	100.01
3.16578	100.01
3.18245	100.02
3.19912	100.02
3.21578	100.02
3.23245	100.02
3.24912	100.02
3.26578	100.02
3.28245	100.02
3.29912	100.02
3.31578	100.02
3.33245	100.02
3.34912	100.02
3.36578	100.02
3.38245	100.03
3.39912	100.02
3.41578	100.03
3.43245	100.03
3.44912	100.02
3.46578	100.03
3.48245	100.02
3.49912	100.03
3.51578	100.03
3.53245	100.03
3.54912	100.03
3.56578	100.03
3.58245	100.03
3.59912	100.03
3.61578	100.03
3.63245	100.04
3.64912	100.03
3.66578	100.04
3.68245	100.03
3.69912	100.04
3.71578	100.03
3.73245	100.03
3.74912	100.03
3.76578	100.04
3.78245	100.04
3.79912	100.04
3.81578	100.04
3.83245	100.04
3.84912	100.03
3.86578	100.04
3.88245	100.04
3.89912	100.04
3.91578	100.04
3.93245	100.04
3.94912	100.04
3.96578	100.04
3.98245	100.04
3.99912	100.04

[Status Trace (Carrier Gas Pressure)]
Interval(msec)	1000
# of Points	240
Start Time(min)	0.016
End Time(min)	3.999
Intensity Units	
Intensity Multiplier	1
R.Time (min)	Intensity
0.01578	57.05
0.03245	55.82
0.04912	58.21
0.06578	59.88
0.08245	58.52
0.09912	57.97
0.11578	58.00
0.13245	58.01
0.14912	58.01
0.16578	58.00
0.18245	58.00
0.19912	58.00
0.21578	58.00
0.23245	58.00
0.24912	58.00
0.26578	58.00
0.28245	58.00
0.29912	58.00
0.31578	58.00
0.33245	58.00
0.34912	58.00
0.36578	58.00
0.38245	58.00
0.39912	58.00
0.41578	58.00
0.43245	58.00
0.44912	58.00
0.46578	58.00
0.48245	58.00
0.49912	58.00
0.51578	58.00
0.53245	58.00
0.54912	58.00
0.56578	58.00
0.58245	58.00
0.59912	58.00
0.61578	58.00
0.63245	58.00
0.64912	58.00
0.66578	58.00
0.68245	58.00
0.69912	58.00
0.71578	58.00
0.73245	58.00
0.74912	58.00
0.76578	58.00
0.78245	58.00
0.79912	58.00
0.81578	58.00
0.83245	58.00
0.84912	58.00
0.86578	58.00
0.88245	58.00
0.89912	58.00
0.91578	58.00
0.93245	58.00
0.94912	58.00
0.96578	58.00
0.98245	58.00
0.99912	58.00
1.01578	58.00
1.03245	58.00
1.04912	58.00
1.06578	58.00
1.08245	58.00
1.09912	58.00
1.11578	58.00
1.13245	58.00
1.14912	58.00
1.16578	58.00
1.18245	58.00
1.19912	58.00
1.21578	58.00
1.23245	58.00
1.24912	58.00
1.26578	58.00
1.28245	58.00
1.29912	58.00
1.31578	58.00
1.33245	58.00
1.34912	58.00
1.36578	58.00
1.38245	58.00
1.39912	58.00
1.41578	58.00
1.43245	58.00
1.44912	58.00
1.46578	58.00
1.48245	58.00
1.49912	58.00
1.51578	58.00
1.53245	58.00
1.54912	58.00
1.56578	58.00
1.58245	58.00
1.59912	58.00
1.61578	58.00
1.63245	58.00
1.64912	58.00
1.66578	58.00
1.68245	58.01
1.69912	58.00
1.71578	58.00
1.73245	58.00
1.74912	58.00
1.76578	58.00
1.78245	58.00
1.79912	58.00
1.81578	58.00
1.83245	58.00
1.84912	58.00
1.86578	58.00
1.88245	58.00
1.89912	58.00
1.91578	58.00
1.93245	58.00
1.94912	58.00
1.96578	58.00
1.98245	58.00
1.99912	58.00
2.01578	58.00
2.03245	58.00
2.04912	58.00
2.06578	58.00
2.08245	58.00
2.09912	58.00
2.11578	58.00
2.13245	58.00
2.14912	58.00
2.16578	58.00
2.18245	58.00
2.19912	58.00
2.21578	58.00
2.23245	58.00
2.24912	58.00
2.26578	58.00
2.28245	58.00
2.29912	58.00
2.31578	58.00
2.33245	58.00
2.34912	58.00
2.36578	58.00
2.38245	57.99
2.39912	57.99
2.41578	58.00
2.43245	58.00
2.44912	58.00
2.46578	58.00
2.48245	58.00
2.49912	58.00
2.51578	57.99
2.53245	57.99
2.54912	58.00
2.56578	58.00
2.58245	58.00
2.59912	58.00
2.61578	58.00
2.63245	58.00
2.64912	58.00
2.66578	58.00
2.68245	58.00
2.69912	58.00
2.71578	58.00
2.73245	58.00
2.74912	58.00
2.76578	58.00
2.78245	58.00
2.79912	58.00
2.81578	58.00
2.83245	58.00
2.84912	58.00
2.86578	58.00
2.88245	58.00
2.89912	58.00
2.91578	58.00
2.93245	58.00
2.94912	58.00
2.96578	58.00
2.98245	58.00
2.99912	58.00
3.01578	58.00
3.03245	58.00
3.04912	58.00
3.06578	58.00
3.08245	58.00
3.09912	58.00
3.11578	58.00
3.13245	58.00
3.14912	58.00
3.16578	58.00
3.18245	58.00
3.19912	58.00
3.21578	58.00
3.23245	58.00
3.24912	58.00
3.26578	58.00
3.28245	58.00
3.29912	58.00
3.31578	58.00
3.33245	58.00
3.34912	58.00
3.36578	58.00
3.38245	58.00
3.39912	58.00
3.41578	58.00
3.43245	58.00
3.44912	58.00
3.46578	58.00
3.48245	58.00
3.49912	58.00
3.51578	58.00
3.53245	58.00
3.54912	58.00
3.56578	58.00
3.58245	58.00
3.59912	58.00
3.61578	58.00
3.63245	58.00
3.64912	58.00
3.66578	58.00
3.68245	58.00
3.69912	58.00
3.71578	58.00
3.73245	58.00
3.74912	58.00
3.76578	58.00
3.78245	58.00
3.79912	58.00
3.81578	58.00
3.83245	58.00
3.84912	58.00
3.86578	58.00
3.88245	58.00
3.89912	58.00
3.91578	58.00
3.93245	58.00
3.94912	58.00
3.96578	58.00
3.98245	58.00
3.99912	58.00

[Status Trace (Carrier Gas Flow)]
Interval(msec)	1000
# of Points	240
Start Time(min)	0.016
End Time(min)	3.999
Intensity Units	
Intensity Multiplier	1
R.Time (min)	Intensity
0.01578	33.80
0.03245	34.54
0.04912	34.55
0.06578	34.51
0.08245	34.52
0.09912	34.52
0.11578	34.52
0.13245	34.52
0.14912	34.52
0.16578	34.52
0.18245	34.52
0.19912	34.52
0.21578	34.52
0.23245	34.51
0.24912	34.52
0.26578	34.52
0.28245	34.52
0.29912	34.51
0.31578	34.52
0.33245	34.52
0.34912	34.52
0.36578	34.52
0.38245	34.52
0.39912	34.52
0.41578	34.52
0.43245	34.52
0.44912	34.52
0.46578	34.52
0.48245	34.52
0.49912	34.52
0.51578	34.53
0.53245	34.52
0.54912	34.52
0.56578	34.52
0.58245	34.52
0.59912	34.52
0.61578	34.52
0.63245	34.52
0.64912	34.52
0.66578	34.53
0.68245	34.52
0.69912	34.52
0.71578	34.52
0.73245	34.52
0.74912	34.52
0.76578	34.52
0.78245	34.52
0.79912	34.52
0.81578	34.52
0.83245	34.52
0.84912	34.52
0.86578	34.52
0.88245	34.52
0.89912	34.52
0.91578	34.52
0.93245	34.52
0.94912	34.52
0.96578	34.52
0.98245	34.51
0.99912	34.52
1.01578	34.52
1.03245	34.51
1.04912	34.52
1.06578	34.52
1.08245	34.52
1.09912	34.52
1.11578	34.52
1.13245	34.52
1.14912	34.52
1.16578	34.52
1.18245	34.52
1.19912	34.52
1.21578	34.52
1.23245	34.52
1.24912	34.52
1.26578	34.52
1.28245	34.52
1.29912	34.52
1.31578	34.52
1.33245	34.52
1.34912	34.52
1.36578	34.52
1.38245	34.52
1.39912	34.52
1.41578	34.52
1.43245	34.52
1.44912	34.51
1.46578	34.52
1.48245	34.51
1.49912	34.52
1.51578	34.52
1.53245	34.51
1.54912	34.51
1.56578	34.52
1.58245	34.52
1.59912	34.52
1.61578	34.52
1.63245	34.52
1.64912	34.51
1.66578	34.52
1.68245	34.52
1.69912	34.51
1.71578	34.52
1.73245	34.52
1.74912	34.52
1.76578	34.52
1.78245	34.52
1.79912	34.52
1.81578	34.52
1.83245	34.52
1.84912	34.52
1.86578	34.52
1.88245	34.52
1.89912	34.52
1.91578	34.51
1.93245	34.52
1.94912	34.52
1.96578	34.52
1.98245	34.51
1.99912	34.52
2.01578	34.52
2.03245	34.52
2.04912	34.52
2.06578	34.52
2.08245	34.52
2.09912	34.52
2.11578	34.52
2.13245	34.53
2.14912	34.52
2.16578	34.52
2.18245	34.52
2.19912	34.52
2.21578	34.52
2.23245	34.51
2.24912	34.51
2.26578	34.52
2.28245	34.53
2.29912	34.53
2.31578	34.52
2.33245	34.52
2.34912	34.52
2.36578	34.52
2.38245	34.52
2.39912	34.51
2.41578	34.52
2.43245	34.52
2.44912	34.52
2.46578	34.52
2.48245	34.52
2.49912	34.52
2.51578	34.52
2.53245	34.52
2.54912	34.52
2.56578	34.52
2.58245	34.52
2.59912	34.52
2.61578	34.52
2.63245	34.52
2.64912	34.51
2.66578	34.52
2.68245	34.52
2.69912	34.52
2.71578	34.52
2.73245	34.52
2.74912	34.52
2.76578	34.52
2.78245	34.52
2.79912	34.52
2.81578	34.52
2.83245	34.52
2.84912	34.52
2.86578	34.52
2.88245	34.52
2.89912	34.52
2.91578	34.52
2.93245	34.52
2.94912	34.52
2.96578	34.52
2.98245	34.52
2.99912	34.51
3.01578	34.52
3.03245	34.52
3.04912	34.52
3.06578	34.52
3.08245	34.52
3.09912	34.52
3.11578	34.52
3.13245	34.52
3.14912	34.52
3.16578	34.52
3.18245	34.52
3.19912	34.52
3.21578	34.51
3.23245	34.52
3.24912	34.52
3.26578	34.52
3.28245	34.52
3.29912	34.52
3.31578	34.52
3.33245	34.52
3.34912	34.52
3.36578	34.52
3.38245	34.52
3.39912	34.52
3.41578	34.52
3.43245	34.52
3.44912	34.52
3.46578	34.51
3.48245	34.52
3.49912	34.52
3.51578	34.52
3.53245	34.52
3.54912	34.52
3.56578	34.52
3.58245	34.52
3.59912	34.52
3.61578	34.51
3.63245	34.51
3.64912	34.52
3.66578	34.52
3.68245	34.51
3.69912	34.52
3.71578	34.52
3.73245	34.52
3.74912	34.52
3.76578	34.52
3.78245	34.52
3.79912	34.52
3.81578	34.52
3.83245	34.52
3.84912	34.52
3.86578	34.51
3.88245	34.52
3.89912	34.52
3.91578	34.52
3.93245	34.52
3.94912	34.52
3.96578	34.52
3.98245	34.52
3.99912	34.51

[Status Trace (Column Flow)]
Interval(msec)	1000
# of Points	240
Start Time(min)	0.016
End Time(min)	3.999
Intensity Units	
Intensity Multiplier	1
R.Time (min)	Intensity
0.01578	5.45
0.03245	5.31
0.04912	5.59
0.06578	5.79
0.08245	5.62
0.09912	5.56
0.11578	5.56
0.13245	5.56
0.14912	5.56
0.16578	5.56
0.18245	5.56
0.19912	5.56
0.21578	5.56
0.23245	5.56
0.24912	5.56
0.26578	5.56
0.28245	5.56
0.29912	5.56
0.31578	5.56
0.33245	5.56
0.34912	5.56
0.36578	5.56
0.38245	5.56
0.39912	5.56
0.41578	5.56
0.43245	5.56
0.44912	5.56
0.46578	5.56
0.48245	5.56
0.49912	5.56
0.51578	5.56
0.53245	5.56
0.54912	5.56
0.56578	5.56
0.58245	5.56
0.59912	5.56
0.61578	5.56
0.63245	5.56
0.64912	5.56
0.66578	5.56
0.68245	5.56
0.69912	5.56
0.71578	5.56
0.73245	5.56
0.74912	5.56
0.76578	5.56
0.78245	5.56
0.79912	5.56
0.81578	5.56
0.83245	5.56
0.84912	5.56
0.86578	5.56
0.88245	5.56
0.89912	5.56
0.91578	5.56
0.93245	5.56
0.94912	5.56
0.96578	5.56
0.98245	5.56
0.99912	5.56
1.01578	5.56
1.03245	5.56
1.04912	5.56
1.06578	5.56
1.08245	5.56
1.09912	5.56
1.11578	5.56
1.13245	5.56
1.14912	5.56
1.16578	5.56
1.18245	5.56
1.19912	5.56
1.21578	5.56
1.23245	5.56
1.24912	5.56
1.26578	5.56
1.28245	5.56
1.29912	5.56
1.31578	5.56
1.33245	5.56
1.34912	5.56
1.36578	5.56
1.38245	5.56
1.39912	5.56
1.41578	5.56
1.43245	5.56
1.44912	5.56
1.46578	5.56
1.48245	5.56
1.49912	5.56
1.51578	5.56
1.53245	5.56
1.54912	5.56
1.56578	5.56
1.58245	5.56
1.59912	5.56
1.61578	5.56
1.63245	5.56
1.64912	5.55
1.66578	5.54
1.68245	5.53
1.69912	5.52
1.71578	5.51
1.73245	5.50
1.74912	5.48
1.76578	5.48
1.78245	5.46
1.79912	5.45
1.81578	5.45
1.83245	5.43
1.84912	5.42
1.86578	5.42
1.88245	5.40
1.89912	5.39
1.91578	5.39
1.93245	5.37
1.94912	5.36
1.96578	5.36
1.98245	5.34
1.99912	5.34
2.01578	5.33
2.03245	5.32
2.04912	5.31
2.06578	5.30
2.08245	5.29
2.09912	5.28
2.11578	5.27
2.13245	5.26
2.14912	5.25
2.16578	5.24
2.18245	5.23
2.19912	5.22
2.21578	5.21
2.23245	5.20
2.24912	5.19
2.26578	5.18
2.28245	5.17
2.29912	5.16
2.31578	5.16
2.33245	5.15
2.34912	5.14
2.36578	5.13
2.38245	5.12
2.39912	5.12
2.41578	5.12
2.43245	5.12
2.44912	5.12
2.46578	5.12
2.48245	5.12
2.49912	5.12
2.51578	5.12
2.53245	5.12
2.54912	5.12
2.56578	5.12
2.58245	5.12
2.59912	5.12
2.61578	5.12
2.63245	5.12
2.64912	5.12
2.66578	5.12
2.68245	5.12
2.69912	5.12
2.71578	5.12
2.73245	5.12
2.74912	5.12
2.76578	5.12
2.78245	5.12
2.79912	5.12
2.81578	5.12
2.83245	5.12
2.84912	5.12
2.86578	5.12
2.88245	5.12
2.89912	5.12
2.91578	5.12
2.93245	5.12
2.94912	5.12
2.96578	5.12
2.98245	5.12
2.99912	5.12
3.01578	5.12
3.03245	5.12
3.04912	5.12
3.06578	5.12
3.08245	5.12
3.09912	5.12
3.11578	5.12
3.13245	5.12
3.14912	5.12
3.16578	5.12
3.18245	5.12
3.19912	5.12
3.21578	5.12
3.23245	5.12
3.24912	5.11
3.26578	5.11
3.28245	5.11
3.29912	5.11
3.31578	5.11
3.33245	5.12
3.34912	5.12
3.36578	5.12
3.38245	5.12
3.39912	5.12
3.41578	5.12
3.43245	5.12
3.44912	5.12
3.46578	5.12
3.48245	5.12
3.49912	5.12
3.51578	5.12
3.53245	5.12
3.54912	5.12
3.56578	5.12
3.58245	5.12
3.59912	5.12
3.61578	5.12
3.63245	5.12
3.64912	5.12
3.66578	5.12
3.68245	5.12
3.69912	5.12
3.71578	5.11
3.73245	5.11
3.74912	5.11
3.76578	5.11
3.78245	5.11
3.79912	5.11
3.81578	5.11
3.83245	5.12
3.84912	5.12
3.86578	5.12
3.88245	5.11
3.89912	5.11
3.91578	5.11
3.93245	5.11
3.94912	5.11
3.96578	5.11
3.98245	5.11
3.99912	5.11

[Status Trace (Linear Velocity)]
Interval(msec)	1000
# of Points	240
Start Time(min)	0.016
End Time(min)	3.999
Intensity Units	
Intensity Multiplier	1
R.Time (min)	Intensity
0.01578	38.40
0.03245	37.59
0.04912	39.17
0.06578	40.26
0.08245	39.37
0.09912	39.01
0.11578	39.02
0.13245	39.03
0.14912	39.03
0.16578	39.02
0.18245	39.03
0.19912	39.03
0.21578	39.02
0.23245	39.02
0.24912	39.02
0.26578	39.02
0.28245	39.02
0.29912	39.02
0.31578	39.03
0.33245	39.03
0.34912	39.03
0.36578	39.03
0.38245	39.03
0.39912	39.03
0.41578	39.03
0.43245	39.03
0.44912	39.02
0.46578	39.03
0.48245	39.03
0.49912	39.03
0.51578	39.03
0.53245	39.03
0.54912	39.03
0.56578	39.03
0.58245	39.03
0.59912	39.03
0.61578	39.03
0.63245	39.03
0.64912	39.03
0.66578	39.03
0.68245	39.03
0.69912	39.03
0.71578	39.03
0.73245	39.03
0.74912	39.03
0.76578	39.03
0.78245	39.03
0.79912	39.03
0.81578	39.03
0.83245	39.03
0.84912	39.03
0.86578	39.03
0.88245	39.03
0.89912	39.03
0.91578	39.03
0.93245	39.03
0.94912	39.03
0.96578	39.03
0.98245	39.03
0.99912	39.03
1.01578	39.03
1.03245	39.03
1.04912	39.03
1.06578	39.03
1.08245	39.03
1.09912	39.03
1.11578	39.03
1.13245	39.03
1.14912	39.03
1.16578	39.03
1.18245	39.03
1.19912	39.03
1.21578	39.03
1.23245	39.03
1.24912	39.03
1.26578	39.03
1.28245	39.03
1.29912	39.03
1.31578	39.03
1.33245	39.03
1.34912	39.03
1.36578	39.03
1.38245	39.03
1.39912	39.03
1.41578	39.03
1.43245	39.03
1.44912	39.02
1.46578	39.02
1.48245	39.02
1.49912	39.02
1.51578	39.03
1.53245	39.03
1.54912	39.03
1.56578	39.03
1.58245	39.03
1.59912	39.02
1.61578	39.02
1.63245	39.00
1.64912	38.98
1.66578	38.96
1.68245	38.92
1.69912	38.89
1.71578	38.85
1.73245	38.82
1.74912	38.79
1.76578	38.76
1.78245	38.72
1.79912	38.69
1.81578	38.67
1.83245	38.63
1.84912	38.60
1.86578	38.57
1.88245	38.54
1.89912	38.51
1.91578	38.48
1.93245	38.45
1.94912	38.42
1.96578	38.39
1.98245	38.36
1.99912	38.33
2.01578	38.30
2.03245	38.26
2.04912	38.24
2.06578	38.21
2.08245	38.18
2.09912	38.15
2.11578	38.12
2.13245	38.09
2.14912	38.06
2.16578	38.03
2.18245	38.00
2.19912	37.97
2.21578	37.94
2.23245	37.91
2.24912	37.88
2.26578	37.85
2.28245	37.82
2.29912	37.79
2.31578	37.76
2.33245	37.73
2.34912	37.70
2.36578	37.68
2.38245	37.66
2.39912	37.66
2.41578	37.66
2.43245	37.66
2.44912	37.66
2.46578	37.66
2.48245	37.66
2.49912	37.66
2.51578	37.66
2.53245	37.66
2.54912	37.66
2.56578	37.66
2.58245	37.66
2.59912	37.66
2.61578	37.66
2.63245	37.66
2.64912	37.66
2.66578	37.66
2.68245	37.66
2.69912	37.66
2.71578	37.66
2.73245	37.66
2.74912	37.65
2.76578	37.65
2.78245	37.65
2.79912	37.66
2.81578	37.66
2.83245	37.65
2.84912	37.65
2.86578	37.65
2.88245	37.65
2.89912	37.65
2.91578	37.65
2.93245	37.65
2.94912	37.65
2.96578	37.65
2.98245	37.65
2.99912	37.65
3.01578	37.65
3.03245	37.64
3.04912	37.64
3.06578	37.64
3.08245	37.64
3.09912	37.64
3.11578	37.64
3.13245	37.64
3.14912	37.64
3.16578	37.64
3.18245	37.64
3.19912	37.64
3.21578	37.64
3.23245	37.64
3.24912	37.63
3.26578	37.63
3.28245	37.63
3.29912	37.63
3.31578	37.63
3.33245	37.64
3.34912	37.64
3.36578	37.64
3.38245	37.64
3.39912	37.64
3.41578	37.64
3.43245	37.64
3.44912	37.64
3.46578	37.64
3.48245	37.64
3.49912	37.64
3.51578	37.64
3.53245	37.64
3.54912	37.64
3.56578	37.64
3.58245	37.64
3.59912	37.63
3.61578	37.64
3.63245	37.64
3.64912	37.64
3.66578	37.64
3.68245	37.64
3.69912	37.64
3.71578	37.63
3.73245	37.63
3.74912	37.63
3.76578	37.63
3.78245	37.63
3.79912	37.63
3.81578	37.63
3.83245	37.64
3.84912	37.64
3.86578	37.64
3.88245	37.64
3.89912	37.63
3.91578	37.63
3.93245	37.63
3.94912	37.63
3.96578	37.63
3.98245	37.63
3.99912	37.64

