[Header]
Application Name	LabSolutions
Version	5.110
Data File Name	C:\Users\User\Desktop\GC Analyses\Jack\Nachusa Grasslands Sampling\T1 Timepoint July 12th\T1_07122022_067.gcd
Output Date	3/14/2023
Output Time	3:41:01 PM

[File Information]
Type	Data File
Generated	3/8/2023 8:42:00 PM
Generated by	System Administrator
Modified	3/8/2023 8:48:48 PM
Modified by	System Administrator

[Sample Information]
Operator Name	System Administrator
Acquired	3/8/2023 8:44:48 PM
Sample Type	0:Unknown
Level	0
Sample Name	067
Sample ID	067
ISTD Amount1	1
ISTD Amount2	1
ISTD Amount3	1
ISTD Amount4	1
ISTD Amount5	1
ISTD Amount6	1
ISTD Amount7	1
ISTD Amount8	1
ISTD Amount9	1
ISTD Amount10	1
ISTD Amount11	1
ISTD Amount12	1
ISTD Amount13	1
ISTD Amount14	1
ISTD Amount15	1
ISTD Amount16	1
ISTD Amount17	1
ISTD Amount18	1
ISTD Amount19	1
ISTD Amount20	1
ISTD Amount21	1
ISTD Amount22	1
ISTD Amount23	1
ISTD Amount24	1
ISTD Amount25	1
ISTD Amount26	1
ISTD Amount27	1
ISTD Amount28	1
ISTD Amount29	1
ISTD Amount30	1
ISTD Amount31	1
ISTD Amount32	1
Sample Amount	1
Dilution Factor	1
Vial#	66
Injection Volume	1
Injection Count	1
Bar Code	

[Original Files]
Data File	C:\Users\User\Desktop\GC Analyses\Jack\Nachusa Grasslands Sampling\T1 Timepoint July 12th\T1_07122022_067.gcd
Method File	C:\LabSolutions\Data\GHG_4min_2022\ghg3_togas_w_acet_4 min_new_int.gcm
Batch File	C:\LabSolutions\Data\AutoSamplerTesting\T1_07122022.gcb
Report Format File	c:\LabSolutions\System\DEFAULT.lsr

[File Description]


[Configuration]
Instrument Name	C0B7VH3-Instrument1
Instrument #	1
Line #	1
# of Detectors	3
Detector ID	DET#1	DET#2	DET#3
Detector Name	FID	PTCD	ECD
# of Channels	1	1	1

[Peak Table(Ch1)]
# of Peaks	3
Peak#	R.Time	I.Time	F.Time	Area	Height	A/H	Conc.	Mark	ID#	Name	k'	Plate #	Plate Ht.	Tailing	Resolution	Sep.Factor	Area Ratio	Height Ratio	Conc. %	Norm Conc.
1	1.476	1.439	1.538	29962	14198	2.110	211.533	   	1	CO	0.000	9147	16.398	1.325	0.000	0.000	0	0	31.956	31.956
2	1.567	1.538	1.619	4817	2356	2.045	93.140	 V 	2	CH4	0.062	10557	14.208	0.000	1.494	0.000	0	0	14.070	14.070
3	1.996	1.952	2.433	1423605	674587	2.110	357.286	   	3	CO2	0.353	17345	8.648	1.309	7.053	5.680	0	0	53.974	53.974

[Peak Table(Ch2)]
# of Peaks	0

[Peak Table(Ch3)]
# of Peaks	5
Peak#	R.Time	I.Time	F.Time	Area	Height	A/H	Conc.	Mark	ID#	Name	k'	Plate #	Plate Ht.	Tailing	Resolution	Sep.Factor	Area Ratio	Height Ratio	Conc. %	Norm Conc.
1	2.462	2.191	2.517	2330	510	4.566	0.000	   			0.000	8452	17.746	0.000	0.000	0.000	0	0	0.000	0.000
2	2.539	2.517	2.631	1091	280	3.892	0.000	 V 			0.031	4214	35.596	0.000	0.584	0.000	0	0	0.000	0.000
3	2.675	2.645	2.726	147	53	2.776	0.000	   			0.086	17825	8.415	1.344	1.147	2.762	0	0	0.000	0.000
4	2.873	2.810	3.104	18752	4906	3.822	0.479	   	1	N2O	0.167	13377	11.213	1.696	2.206	1.931	0	0	100.000	100.000
5	3.250	3.111	3.965	12173	435	28.008	0.000	   	2	SF6	0.320	378	396.410	3.129	0.984	1.920	0	0	0.000	0.000

[Compound Results(Ch1)]
# of IDs	6
ID#	Name	R.Time	Area	Height	Conc.	Curve	3rd	2nd	1st	Constant	Area Ratio	Height Ratio	Conc. %	Norm Conc.
1	CO	1.476	29962	14198	211.533	Linear	0.000000e+00	0.000000e+00	1.416423e+002	0.000000e+00	0	0	31.956	31.956
2	CH4	1.567	4817	2356	93.140	Linear	0.000000e+00	0.000000e+00	5.171738e+001	0.000000e+00	0	0	14.070	14.070
3	CO2	1.996	1423605	674587	357.286	Linear	0.000000e+00	0.000000e+00	3.984494e+003	0.000000e+00	0	0	53.974	53.974
4	Ethylene	0.000	0	0	0.000	Linear	0.000000e+00	0.000000e+00	0.000000e+00	0.000000e+00	0	0	0.000	0.000
5	Acetylene	0.000	0	0	0.000	Linear	0.000000e+00	0.000000e+00	0.000000e+00	0.000000e+00	0	0	0.000	0.000
6	Ethane	0.000	0	0	0.000	Linear	0.000000e+00	0.000000e+00	0.000000e+00	0.000000e+00	0	0	0.000	0.000

[Compound Results(Ch2)]
# of IDs	5
ID#	Name	R.Time	Area	Height	Conc.	Curve	3rd	2nd	1st	Constant	Area Ratio	Height Ratio	Conc. %	Norm Conc.
1	Hydrogen	0.000	0	0	0.000	Linear	0.000000e+00	0.000000e+00	0.000000e+00	0.000000e+00	0	0	0.000	0.000
2	Oxygen	0.000	0	0	0.000	Linear	0.000000e+00	0.000000e+00	0.000000e+00	0.000000e+00	0	0	0.000	0.000
3	Nitrogen	0.000	0	0	0.000	Linear	0.000000e+00	0.000000e+00	0.000000e+00	0.000000e+00	0	0	0.000	0.000
4	Methane	0.000	0	0	0.000	Linear	0.000000e+00	0.000000e+00	0.000000e+00	0.000000e+00	0	0	0.000	0.000
5	Carbon Monoxide	0.000	0	0	0.000	Linear	0.000000e+00	0.000000e+00	0.000000e+00	0.000000e+00	0	0	0.000	0.000

[Compound Results(Ch3)]
# of IDs	2
ID#	Name	R.Time	Area	Height	Conc.	Curve	3rd	2nd	1st	Constant	Area Ratio	Height Ratio	Conc. %	Norm Conc.
1	N2O	2.873	18752	4906	0.479	Linear	0.000000e+00	0.000000e+00	3.915173e+004	0.000000e+00	0	0	100.000	100.000
2	SF6	3.250	12173	435	0.000	Linear	0.000000e+00	0.000000e+00	0.000000e+00	0.000000e+00	0	0	0.000	0.000

[Group Results(Ch1)]
# of Groups	0

[Group Results(Ch2)]
# of Groups	0

[Group Results(Ch3)]
# of Groups	0

[Chromatogram (Ch1)]
Interval(msec)	220
# of Points	1091
Start Time(min)	0.002
End Time(min)	3.998
R.Time (min)	Intensity
0.00167	3
0.00533	-3
0.00900	-9
0.01267	-11
0.01633	-13
0.02000	-13
0.02367	-12
0.02733	-14
0.03100	-19
0.03467	-25
0.03833	-34
0.04200	-40
0.04567	-40
0.04933	-33
0.05300	-21
0.05667	-10
0.06033	-3
0.06400	-0
0.06767	4
0.07133	6
0.07500	4
0.07867	1
0.08233	3
0.08600	5
0.08967	4
0.09333	1
0.09700	1
0.10067	1
0.10433	3
0.10800	9
0.11167	19
0.11533	28
0.11900	33
0.12267	40
0.12633	48
0.13000	56
0.13367	53
0.13733	43
0.14100	33
0.14467	30
0.14833	32
0.15200	33
0.15567	33
0.15933	29
0.16300	26
0.16667	27
0.17033	30
0.17400	33
0.17767	35
0.18133	38
0.18500	45
0.18867	52
0.19233	54
0.19600	50
0.19967	43
0.20333	37
0.20700	33
0.21067	29
0.21433	27
0.21800	24
0.22167	24
0.22533	23
0.22900	16
0.23267	8
0.23633	5
0.24000	5
0.24367	4
0.24733	7
0.25100	11
0.25467	15
0.25833	21
0.26200	29
0.26567	35
0.26933	37
0.27300	35
0.27667	29
0.28033	23
0.28400	18
0.28767	17
0.29133	14
0.29500	10
0.29867	10
0.30233	14
0.30600	17
0.30967	18
0.31333	17
0.31700	10
0.32067	2
0.32433	-1
0.32800	0
0.33167	1
0.33533	2
0.33900	4
0.34267	9
0.34633	13
0.35000	22
0.35367	34
0.35733	40
0.36100	40
0.36467	35
0.36833	28
0.37200	22
0.37567	19
0.37933	20
0.38300	23
0.38667	29
0.39033	33
0.39400	29
0.39767	21
0.40133	13
0.40500	5
0.40867	-1
0.41233	-7
0.41600	-15
0.41967	-25
0.42333	-34
0.42700	-41
0.43067	-43
0.43433	-42
0.43800	-37
0.44167	-25
0.44533	-11
0.44900	-1
0.45267	5
0.45633	9
0.46000	9
0.46367	10
0.46733	23
0.47100	36
0.47467	39
0.47833	33
0.48200	26
0.48567	20
0.48933	15
0.49300	12
0.49667	11
0.50033	10
0.50400	7
0.50767	6
0.51133	10
0.51500	16
0.51867	21
0.52233	28
0.52600	37
0.52967	46
0.53333	52
0.53700	52
0.54067	47
0.54433	39
0.54800	29
0.55167	21
0.55533	17
0.55900	17
0.56267	18
0.56633	17
0.57000	14
0.57367	14
0.57733	17
0.58100	21
0.58467	25
0.58833	28
0.59200	26
0.59567	22
0.59933	18
0.60300	15
0.60667	8
0.61033	1
0.61400	0
0.61767	6
0.62133	18
0.62500	29
0.62867	33
0.63233	32
0.63600	28
0.63967	25
0.64333	27
0.64700	27
0.65067	28
0.65433	29
0.65800	33
0.66167	35
0.66533	35
0.66900	33
0.67267	31
0.67633	29
0.68000	25
0.68367	22
0.68733	21
0.69100	20
0.69467	16
0.69833	16
0.70200	21
0.70567	28
0.70933	34
0.71300	37
0.71667	40
0.72033	43
0.72400	44
0.72767	40
0.73133	35
0.73500	32
0.73867	35
0.74233	40
0.74600	41
0.74967	40
0.75333	36
0.75700	35
0.76067	36
0.76433	37
0.76800	33
0.77167	27
0.77533	21
0.77900	18
0.78267	20
0.78633	23
0.79000	30
0.79367	34
0.79733	35
0.80100	32
0.80467	26
0.80833	21
0.81200	20
0.81567	19
0.81933	20
0.82300	20
0.82667	19
0.83033	17
0.83400	15
0.83767	14
0.84133	17
0.84500	18
0.84867	19
0.85233	21
0.85600	20
0.85967	18
0.86333	14
0.86700	14
0.87067	19
0.87433	26
0.87800	29
0.88167	25
0.88533	16
0.88900	14
0.89267	14
0.89633	15
0.90000	16
0.90367	16
0.90733	15
0.91100	11
0.91467	6
0.91833	3
0.92200	2
0.92567	4
0.92933	9
0.93300	16
0.93667	25
0.94033	33
0.94400	38
0.94767	39
0.95133	36
0.95500	31
0.95867	27
0.96233	25
0.96600	23
0.96967	18
0.97333	13
0.97700	17
0.98067	24
0.98433	28
0.98800	30
0.99167	33
0.99533	30
0.99900	23
1.00267	17
1.00633	16
1.01000	18
1.01367	18
1.01733	14
1.02100	8
1.02467	4
1.02833	5
1.03200	7
1.03567	6
1.03933	5
1.04300	3
1.04667	-0
1.05033	-4
1.05400	-8
1.05767	-10
1.06133	-11
1.06500	-12
1.06867	-10
1.07233	-4
1.07600	1
1.07967	5
1.08333	11
1.08700	22
1.09067	35
1.09433	43
1.09800	40
1.10167	28
1.10533	18
1.10900	17
1.11267	24
1.11633	30
1.12000	28
1.12367	16
1.12733	5
1.13100	-2
1.13467	-10
1.13833	-18
1.14200	-22
1.14567	-22
1.14933	-18
1.15300	-15
1.15667	-11
1.16033	-7
1.16400	-8
1.16767	-8
1.17133	-8
1.17500	-8
1.17867	-11
1.18233	-13
1.18600	-14
1.18967	-14
1.19333	-10
1.19700	-4
1.20067	-1
1.20433	-1
1.20800	1
1.21167	3
1.21533	8
1.21900	16
1.22267	15
1.22633	8
1.23000	4
1.23367	4
1.23733	7
1.24100	11
1.24467	12
1.24833	10
1.25200	9
1.25567	3
1.25933	-1
1.26300	-3
1.26667	-2
1.27033	-0
1.27400	2
1.27767	5
1.28133	9
1.28500	12
1.28867	14
1.29233	20
1.29600	25
1.29967	29
1.30333	35
1.30700	41
1.31067	44
1.31433	39
1.31800	30
1.32167	18
1.32533	3
1.32900	-13
1.33267	-25
1.33633	-33
1.34000	-36
1.34367	-34
1.34733	-30
1.35100	-25
1.35467	-22
1.35833	-22
1.36200	-21
1.36567	-22
1.36933	-21
1.37300	-17
1.37667	-8
1.38033	2
1.38400	10
1.38767	14
1.39133	15
1.39500	11
1.39867	1
1.40233	-12
1.40600	-23
1.40967	-28
1.41333	-31
1.41700	-29
1.42067	-26
1.42433	-20
1.42800	-19
1.43167	-21
1.43533	-21
1.43900	-2
1.44267	86
1.44633	324
1.45000	914
1.45367	2273
1.45733	4542
1.46100	7283
1.46467	9904
1.46833	12045
1.47200	13524
1.47567	14206
1.47933	13975
1.48300	12828
1.48667	10983
1.49033	8832
1.49400	6758
1.49767	4995
1.50133	3616
1.50500	2593
1.50867	1859
1.51233	1347
1.51600	994
1.51967	750
1.52333	581
1.52700	460
1.53067	373
1.53433	312
1.53800	283
1.54167	320
1.54533	482
1.54900	795
1.55267	1212
1.55633	1637
1.56000	1998
1.56367	2256
1.56733	2389
1.57100	2370
1.57467	2179
1.57833	1852
1.58200	1465
1.58567	1095
1.58933	791
1.59300	558
1.59667	389
1.60033	269
1.60400	186
1.60767	129
1.61133	89
1.61500	63
1.61867	47
1.62233	38
1.62600	35
1.62967	34
1.63333	30
1.63700	25
1.64067	22
1.64433	23
1.64800	24
1.65167	19
1.65533	15
1.65900	8
1.66267	-1
1.66633	-5
1.67000	-3
1.67367	2
1.67733	9
1.68100	12
1.68467	10
1.68833	5
1.69200	1
1.69567	1
1.69933	-0
1.70300	-5
1.70667	-12
1.71033	-20
1.71400	-24
1.71767	-25
1.72133	-26
1.72500	-25
1.72867	-22
1.73233	-15
1.73600	-10
1.73967	-8
1.74333	-8
1.74700	-9
1.75067	-11
1.75433	-12
1.75800	-10
1.76167	-9
1.76533	-12
1.76900	-15
1.77267	-15
1.77633	-15
1.78000	-14
1.78367	-10
1.78733	-5
1.79100	-6
1.79467	-11
1.79833	-17
1.80200	-19
1.80567	-17
1.80933	-16
1.81300	-16
1.81667	-19
1.82033	-22
1.82400	-24
1.82767	-24
1.83133	-22
1.83500	-14
1.83867	-4
1.84233	-0
1.84600	-2
1.84967	-8
1.85333	-16
1.85700	-22
1.86067	-27
1.86433	-30
1.86800	-30
1.87167	-29
1.87533	-27
1.87900	-23
1.88267	-20
1.88633	-18
1.89000	-15
1.89367	-9
1.89733	2
1.90100	12
1.90467	14
1.90833	11
1.91200	6
1.91567	2
1.91933	-5
1.92300	-13
1.92667	-16
1.93033	-16
1.93400	-13
1.93767	-9
1.94133	-4
1.94500	-2
1.94867	-4
1.95233	6
1.95600	118
1.95967	774
1.96333	3750
1.96700	13993
1.97067	41090
1.97433	97019
1.97800	188086
1.98167	307254
1.98533	435542
1.98900	550686
1.99267	634404
1.99633	674632
2.00000	666555
2.00367	613978
2.00733	529175
2.01100	429205
2.01467	330467
2.01833	244172
2.02200	175167
2.02567	123414
2.02933	86308
2.03300	60497
2.03667	42881
2.04033	30974
2.04400	22939
2.04767	17483
2.05133	13734
2.05500	11111
2.05867	9236
2.06233	7860
2.06600	6828
2.06967	6035
2.07333	5404
2.07700	4894
2.08067	4476
2.08433	4122
2.08800	3820
2.09167	3560
2.09533	3339
2.09900	3145
2.10267	2971
2.10633	2816
2.11000	2678
2.11367	2553
2.11733	2439
2.12100	2335
2.12467	2238
2.12833	2150
2.13200	2068
2.13567	1989
2.13933	1906
2.14300	1821
2.14667	1739
2.15033	1668
2.15400	1608
2.15767	1555
2.16133	1507
2.16500	1460
2.16867	1417
2.17233	1381
2.17600	1352
2.17967	1329
2.18333	1306
2.18700	1275
2.19067	1240
2.19433	1198
2.19800	1153
2.20167	1111
2.20533	1077
2.20900	1050
2.21267	1025
2.21633	998
2.22000	978
2.22367	963
2.22733	948
2.23100	929
2.23467	907
2.23833	891
2.24200	880
2.24567	865
2.24933	847
2.25300	829
2.25667	815
2.26033	802
2.26400	783
2.26767	760
2.27133	736
2.27500	714
2.27867	695
2.28233	677
2.28600	662
2.28967	651
2.29333	640
2.29700	633
2.30067	627
2.30433	623
2.30800	623
2.31167	625
2.31533	625
2.31900	623
2.32267	619
2.32633	617
2.33000	613
2.33367	605
2.33733	590
2.34100	569
2.34467	552
2.34833	540
2.35200	528
2.35567	514
2.35933	501
2.36300	492
2.36667	489
2.37033	490
2.37400	491
2.37767	491
2.38133	490
2.38500	486
2.38867	486
2.39233	491
2.39600	495
2.39967	497
2.40333	493
2.40700	485
2.41067	479
2.41433	475
2.41800	468
2.42167	458
2.42533	448
2.42900	440
2.43267	430
2.43633	419
2.44000	414
2.44367	408
2.44733	401
2.45100	401
2.45467	404
2.45833	410
2.46200	418
2.46567	433
2.46933	456
2.47300	471
2.47667	471
2.48033	467
2.48400	466
2.48767	468
2.49133	468
2.49500	464
2.49867	455
2.50233	444
2.50600	433
2.50967	425
2.51333	422
2.51700	423
2.52067	426
2.52433	432
2.52800	437
2.53167	436
2.53533	430
2.53900	418
2.54267	406
2.54633	398
2.55000	390
2.55367	385
2.55733	386
2.56100	386
2.56467	384
2.56833	381
2.57200	380
2.57567	380
2.57933	381
2.58300	383
2.58667	386
2.59033	387
2.59400	388
2.59767	391
2.60133	395
2.60500	400
2.60867	401
2.61233	397
2.61600	390
2.61967	383
2.62333	380
2.62700	382
2.63067	385
2.63433	389
2.63800	389
2.64167	387
2.64533	384
2.64900	379
2.65267	371
2.65633	363
2.66000	354
2.66367	345
2.66733	339
2.67100	339
2.67467	339
2.67833	342
2.68200	348
2.68567	354
2.68933	359
2.69300	363
2.69667	364
2.70033	365
2.70400	367
2.70767	369
2.71133	374
2.71500	381
2.71867	386
2.72233	383
2.72600	371
2.72967	357
2.73333	346
2.73700	339
2.74067	337
2.74433	339
2.74800	346
2.75167	350
2.75533	345
2.75900	336
2.76267	330
2.76633	333
2.77000	338
2.77367	342
2.77733	341
2.78100	340
2.78467	339
2.78833	339
2.79200	339
2.79567	338
2.79933	340
2.80300	344
2.80667	345
2.81033	347
2.81400	344
2.81767	338
2.82133	335
2.82500	335
2.82867	337
2.83233	339
2.83600	337
2.83967	335
2.84333	332
2.84700	333
2.85067	336
2.85433	343
2.85800	348
2.86167	350
2.86533	350
2.86900	343
2.87267	328
2.87633	323
2.88000	323
2.88367	322
2.88733	330
2.89100	345
2.89467	353
2.89833	350
2.90200	351
2.90567	344
2.90933	338
2.91300	335
2.91667	329
2.92033	330
2.92400	341
2.92767	346
2.93133	342
2.93500	335
2.93867	329
2.94233	326
2.94600	325
2.94967	323
2.95333	326
2.95700	328
2.96067	322
2.96433	322
2.96800	323
2.97167	322
2.97533	320
2.97900	319
2.98267	322
2.98633	322
2.99000	321
2.99367	326
2.99733	333
3.00100	340
3.00467	345
3.00833	348
3.01200	350
3.01567	350
3.01933	346
3.02300	338
3.02667	331
3.03033	324
3.03400	312
3.03767	307
3.04133	313
3.04500	324
3.04867	333
3.05233	339
3.05600	339
3.05967	338
3.06333	331
3.06700	326
3.07067	325
3.07433	327
3.07800	332
3.08167	335
3.08533	334
3.08900	331
3.09267	327
3.09633	323
3.10000	321
3.10367	320
3.10733	315
3.11100	306
3.11467	303
3.11833	310
3.12200	318
3.12567	320
3.12933	318
3.13300	314
3.13667	307
3.14033	299
3.14400	294
3.14767	298
3.15133	303
3.15500	305
3.15867	303
3.16233	299
3.16600	298
3.16967	302
3.17333	307
3.17700	311
3.18067	314
3.18433	314
3.18800	315
3.19167	320
3.19533	327
3.19900	330
3.20267	328
3.20633	322
3.21000	312
3.21367	307
3.21733	306
3.22100	302
3.22467	294
3.22833	286
3.23200	281
3.23567	277
3.23933	274
3.24300	272
3.24667	274
3.25033	275
3.25400	279
3.25767	280
3.26133	283
3.26500	284
3.26867	286
3.27233	291
3.27600	297
3.27967	299
3.28333	297
3.28700	290
3.29067	287
3.29433	292
3.29800	298
3.30167	305
3.30533	313
3.30900	316
3.31267	313
3.31633	307
3.32000	303
3.32367	302
3.32733	296
3.33100	286
3.33467	274
3.33833	264
3.34200	255
3.34567	246
3.34933	239
3.35300	233
3.35667	234
3.36033	242
3.36400	251
3.36767	255
3.37133	255
3.37500	258
3.37867	266
3.38233	276
3.38600	278
3.38967	272
3.39333	266
3.39700	263
3.40067	260
3.40433	259
3.40800	254
3.41167	246
3.41533	243
3.41900	245
3.42267	252
3.42633	263
3.43000	271
3.43367	280
3.43733	285
3.44100	286
3.44467	281
3.44833	272
3.45200	260
3.45567	254
3.45933	249
3.46300	248
3.46667	252
3.47033	260
3.47400	262
3.47767	261
3.48133	259
3.48500	255
3.48867	252
3.49233	254
3.49600	259
3.49967	263
3.50333	261
3.50700	254
3.51067	249
3.51433	245
3.51800	243
3.52167	239
3.52533	239
3.52900	238
3.53267	234
3.53633	227
3.54000	224
3.54367	228
3.54733	236
3.55100	241
3.55467	245
3.55833	251
3.56200	257
3.56567	257
3.56933	251
3.57300	248
3.57667	248
3.58033	243
3.58400	238
3.58767	234
3.59133	231
3.59500	229
3.59867	228
3.60233	228
3.60600	227
3.60967	227
3.61333	227
3.61700	224
3.62067	220
3.62433	215
3.62800	211
3.63167	209
3.63533	206
3.63900	205
3.64267	203
3.64633	202
3.65000	202
3.65367	203
3.65733	208
3.66100	217
3.66467	229
3.66833	241
3.67200	249
3.67567	251
3.67933	243
3.68300	231
3.68667	222
3.69033	217
3.69400	212
3.69767	207
3.70133	204
3.70500	203
3.70867	204
3.71233	204
3.71600	203
3.71967	202
3.72333	201
3.72700	199
3.73067	196
3.73433	194
3.73800	196
3.74167	202
3.74533	210
3.74900	218
3.75267	223
3.75633	222
3.76000	219
3.76367	220
3.76733	223
3.77100	223
3.77467	214
3.77833	206
3.78200	201
3.78567	197
3.78933	196
3.79300	196
3.79667	194
3.80033	194
3.80400	196
3.80767	198
3.81133	202
3.81500	205
3.81867	207
3.82233	205
3.82600	202
3.82967	200
3.83333	201
3.83700	203
3.84067	206
3.84433	210
3.84800	213
3.85167	216
3.85533	217
3.85900	217
3.86267	218
3.86633	221
3.87000	218
3.87367	208
3.87733	196
3.88100	183
3.88467	172
3.88833	164
3.89200	160
3.89567	165
3.89933	176
3.90300	185
3.90667	185
3.91033	180
3.91400	177
3.91767	172
3.92133	163
3.92500	151
3.92867	140
3.93233	139
3.93600	149
3.93967	161
3.94333	170
3.94700	173
3.95067	174
3.95433	177
3.95800	176
3.96167	172
3.96533	170
3.96900	170
3.97267	169
3.97633	170
3.98000	173
3.98367	172
3.98733	166
3.99100	159
3.99467	160
3.99833	166

[Chromatogram (Ch2)]
Interval(msec)	220
# of Points	1091
Start Time(min)	0.002
End Time(min)	3.998
R.Time (min)	Intensity
0.00167	1
0.00533	1
0.00900	1
0.01267	1
0.01633	1
0.02000	0
0.02367	0
0.02733	0
0.03100	0
0.03467	0
0.03833	0
0.04200	-0
0.04567	-0
0.04933	-1
0.05300	-1
0.05667	-1
0.06033	-1
0.06400	-2
0.06767	-2
0.07133	-2
0.07500	-2
0.07867	-2
0.08233	-2
0.08600	-2
0.08967	-2
0.09333	-2
0.09700	-1
0.10067	-1
0.10433	-1
0.10800	-0
0.11167	0
0.11533	0
0.11900	0
0.12267	-0
0.12633	-0
0.13000	-0
0.13367	-0
0.13733	-0
0.14100	0
0.14467	0
0.14833	1
0.15200	1
0.15567	2
0.15933	2
0.16300	2
0.16667	2
0.17033	1
0.17400	1
0.17767	0
0.18133	-0
0.18500	-1
0.18867	-1
0.19233	-2
0.19600	-2
0.19967	-2
0.20333	-2
0.20700	-2
0.21067	-2
0.21433	-2
0.21800	-2
0.22167	-2
0.22533	-2
0.22900	-2
0.23267	-2
0.23633	-1
0.24000	-2
0.24367	-2
0.24733	-2
0.25100	-2
0.25467	-1
0.25833	-1
0.26200	-1
0.26567	-1
0.26933	-1
0.27300	-1
0.27667	-1
0.28033	-1
0.28400	-1
0.28767	-0
0.29133	-0
0.29500	0
0.29867	0
0.30233	0
0.30600	0
0.30967	0
0.31333	0
0.31700	0
0.32067	0
0.32433	-0
0.32800	-1
0.33167	-1
0.33533	-1
0.33900	-1
0.34267	-2
0.34633	-2
0.35000	-2
0.35367	-2
0.35733	-1
0.36100	-1
0.36467	-1
0.36833	-1
0.37200	-0
0.37567	0
0.37933	0
0.38300	1
0.38667	1
0.39033	1
0.39400	1
0.39767	-0
0.40133	-1
0.40500	-1
0.40867	-2
0.41233	-2
0.41600	-3
0.41967	-3
0.42333	-3
0.42700	-3
0.43067	-3
0.43433	-3
0.43800	-3
0.44167	-3
0.44533	-3
0.44900	-3
0.45267	-3
0.45633	-3
0.46000	-2
0.46367	-2
0.46733	-2
0.47100	-2
0.47467	-2
0.47833	-2
0.48200	-2
0.48567	-2
0.48933	-2
0.49300	-2
0.49667	-2
0.50033	-2
0.50400	-2
0.50767	-2
0.51133	-2
0.51500	-3
0.51867	-3
0.52233	-3
0.52600	-3
0.52967	-3
0.53333	-3
0.53700	-2
0.54067	-2
0.54433	-2
0.54800	-3
0.55167	-3
0.55533	-3
0.55900	-3
0.56267	-3
0.56633	-3
0.57000	-3
0.57367	-3
0.57733	-3
0.58100	-3
0.58467	-2
0.58833	-2
0.59200	-2
0.59567	-2
0.59933	-1
0.60300	-1
0.60667	-1
0.61033	-1
0.61400	-1
0.61767	-1
0.62133	-1
0.62500	-1
0.62867	-1
0.63233	-1
0.63600	-1
0.63967	-1
0.64333	-1
0.64700	-1
0.65067	-1
0.65433	-1
0.65800	-2
0.66167	-2
0.66533	-2
0.66900	-2
0.67267	-2
0.67633	-2
0.68000	-2
0.68367	-2
0.68733	-2
0.69100	-2
0.69467	-2
0.69833	-2
0.70200	-2
0.70567	-2
0.70933	-2
0.71300	-2
0.71667	-2
0.72033	-2
0.72400	-2
0.72767	-2
0.73133	-2
0.73500	-2
0.73867	-2
0.74233	-2
0.74600	-2
0.74967	-2
0.75333	-2
0.75700	-2
0.76067	-2
0.76433	-2
0.76800	-2
0.77167	-2
0.77533	-2
0.77900	-2
0.78267	-2
0.78633	-2
0.79000	-2
0.79367	-2
0.79733	-2
0.80100	-2
0.80467	-2
0.80833	-2
0.81200	-2
0.81567	-2
0.81933	-2
0.82300	-2
0.82667	-2
0.83033	-2
0.83400	-2
0.83767	-1
0.84133	-1
0.84500	-1
0.84867	-1
0.85233	-1
0.85600	-0
0.85967	-1
0.86333	-1
0.86700	-1
0.87067	-1
0.87433	-2
0.87800	-2
0.88167	-2
0.88533	-3
0.88900	-3
0.89267	-4
0.89633	-4
0.90000	-4
0.90367	-4
0.90733	-4
0.91100	-4
0.91467	-4
0.91833	-4
0.92200	-4
0.92567	-4
0.92933	-4
0.93300	-4
0.93667	-4
0.94033	-4
0.94400	-3
0.94767	-3
0.95133	-3
0.95500	-2
0.95867	-2
0.96233	-2
0.96600	-1
0.96967	-1
0.97333	-1
0.97700	-0
0.98067	-0
0.98433	-0
0.98800	-0
0.99167	-0
0.99533	-0
0.99900	-0
1.00267	-0
1.00633	-1
1.01000	-1
1.01367	-1
1.01733	-2
1.02100	-2
1.02467	-3
1.02833	-3
1.03200	-3
1.03567	-3
1.03933	-3
1.04300	-4
1.04667	-4
1.05033	-4
1.05400	-4
1.05767	-4
1.06133	-4
1.06500	-4
1.06867	-4
1.07233	-4
1.07600	-3
1.07967	-3
1.08333	-3
1.08700	-2
1.09067	-2
1.09433	-2
1.09800	-1
1.10167	-1
1.10533	-1
1.10900	-1
1.11267	-1
1.11633	-1
1.12000	-2
1.12367	-2
1.12733	-2
1.13100	-2
1.13467	-2
1.13833	-2
1.14200	-2
1.14567	-2
1.14933	-2
1.15300	-2
1.15667	-2
1.16033	-2
1.16400	-2
1.16767	-2
1.17133	-2
1.17500	-2
1.17867	-2
1.18233	-2
1.18600	-2
1.18967	-1
1.19333	-1
1.19700	-1
1.20067	-0
1.20433	-0
1.20800	-0
1.21167	-0
1.21533	-1
1.21900	-1
1.22267	-1
1.22633	-2
1.23000	-2
1.23367	-2
1.23733	-3
1.24100	-3
1.24467	-3
1.24833	-4
1.25200	-4
1.25567	-4
1.25933	-4
1.26300	-4
1.26667	-4
1.27033	-3
1.27400	-3
1.27767	-3
1.28133	-3
1.28500	-2
1.28867	-2
1.29233	-2
1.29600	-2
1.29967	-2
1.30333	-2
1.30700	-1
1.31067	-1
1.31433	-1
1.31800	-1
1.32167	-0
1.32533	-0
1.32900	-0
1.33267	-0
1.33633	-0
1.34000	-0
1.34367	-0
1.34733	-1
1.35100	-1
1.35467	-1
1.35833	-2
1.36200	-2
1.36567	-3
1.36933	-3
1.37300	-4
1.37667	-4
1.38033	-5
1.38400	-5
1.38767	-5
1.39133	-6
1.39500	-6
1.39867	-6
1.40233	-6
1.40600	-7
1.40967	-7
1.41333	-7
1.41700	-7
1.42067	-7
1.42433	-7
1.42800	-7
1.43167	-6
1.43533	-6
1.43900	-5
1.44267	-5
1.44633	-5
1.45000	-4
1.45367	-4
1.45733	-4
1.46100	-4
1.46467	-4
1.46833	-3
1.47200	-3
1.47567	-3
1.47933	-3
1.48300	-3
1.48667	-3
1.49033	-3
1.49400	-3
1.49767	-3
1.50133	-3
1.50500	-4
1.50867	-4
1.51233	-4
1.51600	-4
1.51967	-4
1.52333	-4
1.52700	-4
1.53067	-3
1.53433	-3
1.53800	-2
1.54167	-2
1.54533	-2
1.54900	-3
1.55267	-3
1.55633	-3
1.56000	-3
1.56367	-3
1.56733	-3
1.57100	-2
1.57467	-2
1.57833	-2
1.58200	-2
1.58567	-2
1.58933	-2
1.59300	-2
1.59667	-2
1.60033	-3
1.60400	-4
1.60767	-5
1.61133	-7
1.61500	-9
1.61867	-11
1.62233	-14
1.62600	-17
1.62967	-20
1.63333	-23
1.63700	-26
1.64067	-30
1.64433	-33
1.64800	-36
1.65167	-40
1.65533	-43
1.65900	-47
1.66267	-51
1.66633	-55
1.67000	-60
1.67367	-65
1.67733	-70
1.68100	-75
1.68467	-80
1.68833	-85
1.69200	-89
1.69567	-93
1.69933	-97
1.70300	-99
1.70667	-102
1.71033	-104
1.71400	-105
1.71767	-106
1.72133	-107
1.72500	-108
1.72867	-109
1.73233	-109
1.73600	-109
1.73967	-110
1.74333	-111
1.74700	-111
1.75067	-112
1.75433	-113
1.75800	-114
1.76167	-115
1.76533	-116
1.76900	-117
1.77267	-117
1.77633	-117
1.78000	-117
1.78367	-116
1.78733	-115
1.79100	-115
1.79467	-114
1.79833	-114
1.80200	-115
1.80567	-115
1.80933	-116
1.81300	-116
1.81667	-117
1.82033	-117
1.82400	-117
1.82767	-118
1.83133	-118
1.83500	-117
1.83867	-117
1.84233	-117
1.84600	-117
1.84967	-117
1.85333	-117
1.85700	-117
1.86067	-117
1.86433	-117
1.86800	-116
1.87167	-117
1.87533	-117
1.87900	-117
1.88267	-117
1.88633	-117
1.89000	-116
1.89367	-115
1.89733	-115
1.90100	-114
1.90467	-114
1.90833	-114
1.91200	-114
1.91567	-114
1.91933	-114
1.92300	-114
1.92667	-113
1.93033	-113
1.93400	-113
1.93767	-113
1.94133	-113
1.94500	-113
1.94867	-113
1.95233	-112
1.95600	-112
1.95967	-112
1.96333	-111
1.96700	-111
1.97067	-111
1.97433	-111
1.97800	-111
1.98167	-111
1.98533	-111
1.98900	-111
1.99267	-111
1.99633	-111
2.00000	-111
2.00367	-110
2.00733	-110
2.01100	-110
2.01467	-109
2.01833	-109
2.02200	-109
2.02567	-109
2.02933	-109
2.03300	-109
2.03667	-109
2.04033	-108
2.04400	-107
2.04767	-106
2.05133	-105
2.05500	-104
2.05867	-103
2.06233	-103
2.06600	-102
2.06967	-102
2.07333	-102
2.07700	-102
2.08067	-102
2.08433	-102
2.08800	-102
2.09167	-102
2.09533	-102
2.09900	-102
2.10267	-102
2.10633	-101
2.11000	-101
2.11367	-101
2.11733	-100
2.12100	-100
2.12467	-100
2.12833	-100
2.13200	-100
2.13567	-100
2.13933	-100
2.14300	-100
2.14667	-100
2.15033	-99
2.15400	-98
2.15767	-98
2.16133	-98
2.16500	-98
2.16867	-99
2.17233	-99
2.17600	-99
2.17967	-99
2.18333	-98
2.18700	-98
2.19067	-97
2.19433	-96
2.19800	-96
2.20167	-95
2.20533	-94
2.20900	-93
2.21267	-93
2.21633	-93
2.22000	-92
2.22367	-92
2.22733	-92
2.23100	-92
2.23467	-92
2.23833	-91
2.24200	-91
2.24567	-91
2.24933	-90
2.25300	-90
2.25667	-89
2.26033	-89
2.26400	-90
2.26767	-90
2.27133	-90
2.27500	-90
2.27867	-90
2.28233	-90
2.28600	-90
2.28967	-90
2.29333	-89
2.29700	-88
2.30067	-88
2.30433	-87
2.30800	-86
2.31167	-85
2.31533	-85
2.31900	-84
2.32267	-85
2.32633	-85
2.33000	-85
2.33367	-85
2.33733	-85
2.34100	-85
2.34467	-84
2.34833	-83
2.35200	-81
2.35567	-79
2.35933	-77
2.36300	-75
2.36667	-72
2.37033	-69
2.37400	-66
2.37767	-63
2.38133	-59
2.38500	-55
2.38867	-51
2.39233	-46
2.39600	-42
2.39967	-38
2.40333	-34
2.40700	-30
2.41067	-26
2.41433	-23
2.41800	-20
2.42167	-18
2.42533	-17
2.42900	-15
2.43267	-15
2.43633	-14
2.44000	-13
2.44367	-12
2.44733	-11
2.45100	-9
2.45467	-8
2.45833	-7
2.46200	-6
2.46567	-5
2.46933	-4
2.47300	-3
2.47667	-2
2.48033	-0
2.48400	1
2.48767	1
2.49133	2
2.49500	2
2.49867	2
2.50233	3
2.50600	3
2.50967	4
2.51333	5
2.51700	6
2.52067	7
2.52433	8
2.52800	9
2.53167	10
2.53533	11
2.53900	12
2.54267	13
2.54633	13
2.55000	14
2.55367	14
2.55733	15
2.56100	15
2.56467	15
2.56833	15
2.57200	15
2.57567	15
2.57933	14
2.58300	14
2.58667	13
2.59033	13
2.59400	13
2.59767	13
2.60133	13
2.60500	13
2.60867	13
2.61233	13
2.61600	13
2.61967	12
2.62333	12
2.62700	12
2.63067	12
2.63433	12
2.63800	13
2.64167	13
2.64533	14
2.64900	14
2.65267	15
2.65633	16
2.66000	17
2.66367	17
2.66733	18
2.67100	19
2.67467	20
2.67833	20
2.68200	21
2.68567	21
2.68933	21
2.69300	20
2.69667	20
2.70033	20
2.70400	20
2.70767	20
2.71133	20
2.71500	20
2.71867	21
2.72233	21
2.72600	21
2.72967	22
2.73333	22
2.73700	22
2.74067	22
2.74433	23
2.74800	23
2.75167	23
2.75533	24
2.75900	24
2.76267	24
2.76633	25
2.77000	25
2.77367	25
2.77733	25
2.78100	24
2.78467	24
2.78833	23
2.79200	23
2.79567	23
2.79933	23
2.80300	23
2.80667	23
2.81033	23
2.81400	23
2.81767	23
2.82133	23
2.82500	23
2.82867	24
2.83233	24
2.83600	23
2.83967	22
2.84333	19
2.84700	15
2.85067	8
2.85433	-2
2.85800	-15
2.86167	-32
2.86533	-54
2.86900	-80
2.87267	-110
2.87633	-144
2.88000	-182
2.88367	-223
2.88733	-268
2.89100	-315
2.89467	-365
2.89833	-416
2.90200	-469
2.90567	-523
2.90933	-577
2.91300	-632
2.91667	-686
2.92033	-739
2.92400	-791
2.92767	-842
2.93133	-895
2.93500	-953
2.93867	-1012
2.94233	-1064
2.94600	-1099
2.94967	-1110
2.95333	-1094
2.95700	-1055
2.96067	-997
2.96433	-927
2.96800	-849
2.97167	-768
2.97533	-688
2.97900	-610
2.98267	-538
2.98633	-471
2.99000	-410
2.99367	-355
2.99733	-306
3.00100	-264
3.00467	-226
3.00833	-193
3.01200	-165
3.01567	-140
3.01933	-119
3.02300	-100
3.02667	-84
3.03033	-70
3.03400	-59
3.03767	-49
3.04133	-40
3.04500	-33
3.04867	-26
3.05233	-21
3.05600	-16
3.05967	-12
3.06333	-9
3.06700	-6
3.07067	-3
3.07433	-0
3.07800	2
3.08167	3
3.08533	5
3.08900	6
3.09267	7
3.09633	8
3.10000	9
3.10367	10
3.10733	10
3.11100	11
3.11467	12
3.11833	12
3.12200	12
3.12567	12
3.12933	13
3.13300	13
3.13667	13
3.14033	13
3.14400	13
3.14767	14
3.15133	14
3.15500	14
3.15867	14
3.16233	15
3.16600	15
3.16967	15
3.17333	16
3.17700	16
3.18067	16
3.18433	17
3.18800	17
3.19167	18
3.19533	18
3.19900	18
3.20267	18
3.20633	18
3.21000	18
3.21367	19
3.21733	19
3.22100	19
3.22467	19
3.22833	19
3.23200	19
3.23567	19
3.23933	19
3.24300	19
3.24667	19
3.25033	19
3.25400	19
3.25767	19
3.26133	19
3.26500	20
3.26867	20
3.27233	20
3.27600	21
3.27967	21
3.28333	21
3.28700	22
3.29067	22
3.29433	22
3.29800	22
3.30167	23
3.30533	23
3.30900	23
3.31267	23
3.31633	23
3.32000	23
3.32367	23
3.32733	23
3.33100	24
3.33467	23
3.33833	23
3.34200	23
3.34567	23
3.34933	22
3.35300	22
3.35667	22
3.36033	22
3.36400	23
3.36767	23
3.37133	23
3.37500	23
3.37867	22
3.38233	22
3.38600	22
3.38967	22
3.39333	23
3.39700	23
3.40067	23
3.40433	23
3.40800	24
3.41167	24
3.41533	24
3.41900	25
3.42267	25
3.42633	26
3.43000	26
3.43367	26
3.43733	26
3.44100	26
3.44467	26
3.44833	26
3.45200	26
3.45567	26
3.45933	26
3.46300	26
3.46667	26
3.47033	26
3.47400	26
3.47767	26
3.48133	26
3.48500	26
3.48867	26
3.49233	25
3.49600	25
3.49967	25
3.50333	25
3.50700	25
3.51067	24
3.51433	24
3.51800	24
3.52167	24
3.52533	23
3.52900	23
3.53267	23
3.53633	23
3.54000	23
3.54367	24
3.54733	24
3.55100	24
3.55467	24
3.55833	24
3.56200	24
3.56567	23
3.56933	24
3.57300	24
3.57667	24
3.58033	24
3.58400	24
3.58767	24
3.59133	24
3.59500	24
3.59867	25
3.60233	25
3.60600	25
3.60967	26
3.61333	26
3.61700	26
3.62067	26
3.62433	26
3.62800	26
3.63167	26
3.63533	26
3.63900	26
3.64267	26
3.64633	25
3.65000	25
3.65367	25
3.65733	25
3.66100	25
3.66467	24
3.66833	24
3.67200	24
3.67567	24
3.67933	24
3.68300	24
3.68667	23
3.69033	23
3.69400	23
3.69767	23
3.70133	23
3.70500	23
3.70867	23
3.71233	23
3.71600	24
3.71967	24
3.72333	24
3.72700	24
3.73067	24
3.73433	24
3.73800	24
3.74167	24
3.74533	24
3.74900	24
3.75267	24
3.75633	23
3.76000	23
3.76367	23
3.76733	23
3.77100	23
3.77467	23
3.77833	23
3.78200	23
3.78567	23
3.78933	23
3.79300	23
3.79667	24
3.80033	24
3.80400	24
3.80767	24
3.81133	24
3.81500	24
3.81867	25
3.82233	25
3.82600	25
3.82967	25
3.83333	25
3.83700	25
3.84067	26
3.84433	26
3.84800	26
3.85167	26
3.85533	26
3.85900	27
3.86267	27
3.86633	27
3.87000	27
3.87367	26
3.87733	26
3.88100	26
3.88467	26
3.88833	26
3.89200	26
3.89567	26
3.89933	26
3.90300	25
3.90667	25
3.91033	25
3.91400	25
3.91767	25
3.92133	25
3.92500	24
3.92867	24
3.93233	24
3.93600	24
3.93967	24
3.94333	24
3.94700	24
3.95067	24
3.95433	24
3.95800	24
3.96167	24
3.96533	24
3.96900	24
3.97267	24
3.97633	24
3.98000	24
3.98367	24
3.98733	24
3.99100	23
3.99467	23
3.99833	23

[Chromatogram (Ch3)]
Interval(msec)	220
# of Points	1091
Start Time(min)	0.002
End Time(min)	3.998
R.Time (min)	Intensity
0.00167	-1
0.00533	-2
0.00900	-1
0.01267	1
0.01633	2
0.02000	3
0.02367	4
0.02733	3
0.03100	1
0.03467	-0
0.03833	-2
0.04200	-2
0.04567	-3
0.04933	-2
0.05300	-0
0.05667	-0
0.06033	-2
0.06400	-3
0.06767	-3
0.07133	-3
0.07500	-4
0.07867	-5
0.08233	-5
0.08600	-4
0.08967	-3
0.09333	-1
0.09700	-1
0.10067	-1
0.10433	0
0.10800	1
0.11167	2
0.11533	2
0.11900	-0
0.12267	-3
0.12633	-2
0.13000	-2
0.13367	-3
0.13733	-4
0.14100	-3
0.14467	-2
0.14833	1
0.15200	2
0.15567	1
0.15933	-1
0.16300	-3
0.16667	-3
0.17033	-4
0.17400	-4
0.17767	-5
0.18133	-5
0.18500	-5
0.18867	-5
0.19233	-6
0.19600	-6
0.19967	-4
0.20333	-4
0.20700	-4
0.21067	-1
0.21433	-1
0.21800	-2
0.22167	-1
0.22533	-2
0.22900	-5
0.23267	-5
0.23633	-6
0.24000	-8
0.24367	-8
0.24733	-8
0.25100	-7
0.25467	-9
0.25833	-10
0.26200	-10
0.26567	-9
0.26933	-9
0.27300	-9
0.27667	-10
0.28033	-10
0.28400	-8
0.28767	-7
0.29133	-5
0.29500	-6
0.29867	-7
0.30233	-6
0.30600	-5
0.30967	-6
0.31333	-8
0.31700	-10
0.32067	-9
0.32433	-7
0.32800	-7
0.33167	-9
0.33533	-8
0.33900	-6
0.34267	-8
0.34633	-9
0.35000	-11
0.35367	-12
0.35733	-12
0.36100	-12
0.36467	-11
0.36833	-10
0.37200	-10
0.37567	-11
0.37933	-11
0.38300	-11
0.38667	-9
0.39033	-9
0.39400	-11
0.39767	-10
0.40133	-9
0.40500	-9
0.40867	-7
0.41233	-7
0.41600	-4
0.41967	-3
0.42333	-3
0.42700	-4
0.43067	-5
0.43433	-4
0.43800	-4
0.44167	-3
0.44533	-1
0.44900	-1
0.45267	-0
0.45633	1
0.46000	1
0.46367	-0
0.46733	-0
0.47100	1
0.47467	3
0.47833	3
0.48200	1
0.48567	-0
0.48933	-1
0.49300	-2
0.49667	-2
0.50033	0
0.50400	1
0.50767	1
0.51133	0
0.51500	-1
0.51867	-2
0.52233	-2
0.52600	-1
0.52967	-3
0.53333	-2
0.53700	-0
0.54067	-1
0.54433	-1
0.54800	-3
0.55167	-3
0.55533	-1
0.55900	0
0.56267	1
0.56633	2
0.57000	2
0.57367	3
0.57733	4
0.58100	2
0.58467	1
0.58833	2
0.59200	2
0.59567	1
0.59933	0
0.60300	-0
0.60667	-2
0.61033	1
0.61400	3
0.61767	3
0.62133	2
0.62500	2
0.62867	5
0.63233	8
0.63600	8
0.63967	8
0.64333	8
0.64700	6
0.65067	3
0.65433	4
0.65800	7
0.66167	7
0.66533	9
0.66900	10
0.67267	10
0.67633	7
0.68000	3
0.68367	2
0.68733	1
0.69100	1
0.69467	3
0.69833	6
0.70200	8
0.70567	10
0.70933	8
0.71300	6
0.71667	7
0.72033	8
0.72400	7
0.72767	8
0.73133	8
0.73500	8
0.73867	7
0.74233	6
0.74600	6
0.74967	4
0.75333	1
0.75700	-1
0.76067	-3
0.76433	-4
0.76800	-2
0.77167	0
0.77533	1
0.77900	1
0.78267	-1
0.78633	0
0.79000	1
0.79367	2
0.79733	3
0.80100	2
0.80467	1
0.80833	3
0.81200	4
0.81567	4
0.81933	3
0.82300	2
0.82667	3
0.83033	5
0.83400	4
0.83767	3
0.84133	4
0.84500	3
0.84867	3
0.85233	3
0.85600	-0
0.85967	-4
0.86333	-2
0.86700	0
0.87067	2
0.87433	0
0.87800	2
0.88167	3
0.88533	3
0.88900	4
0.89267	3
0.89633	4
0.90000	6
0.90367	8
0.90733	8
0.91100	7
0.91467	6
0.91833	3
0.92200	2
0.92567	2
0.92933	2
0.93300	3
0.93667	4
0.94033	3
0.94400	2
0.94767	-0
0.95133	-2
0.95500	-3
0.95867	-5
0.96233	-7
0.96600	-6
0.96967	-7
0.97333	-9
0.97700	-9
0.98067	-6
0.98433	-4
0.98800	-2
0.99167	-1
0.99533	0
0.99900	0
1.00267	1
1.00633	1
1.01000	2
1.01367	2
1.01733	-1
1.02100	-3
1.02467	-4
1.02833	-4
1.03200	-4
1.03567	-4
1.03933	-4
1.04300	-4
1.04667	-5
1.05033	-6
1.05400	-7
1.05767	-5
1.06133	-2
1.06500	-2
1.06867	-2
1.07233	-1
1.07600	0
1.07967	1
1.08333	3
1.08700	3
1.09067	2
1.09433	3
1.09800	5
1.10167	6
1.10533	6
1.10900	6
1.11267	5
1.11633	4
1.12000	4
1.12367	5
1.12733	5
1.13100	4
1.13467	2
1.13833	-0
1.14200	-3
1.14567	-3
1.14933	-2
1.15300	-1
1.15667	-2
1.16033	-0
1.16400	2
1.16767	3
1.17133	1
1.17500	-1
1.17867	-0
1.18233	-3
1.18600	-5
1.18967	-3
1.19333	-2
1.19700	-3
1.20067	-2
1.20433	-1
1.20800	-1
1.21167	-0
1.21533	-1
1.21900	-1
1.22267	-1
1.22633	-1
1.23000	-1
1.23367	1
1.23733	4
1.24100	5
1.24467	3
1.24833	1
1.25200	1
1.25567	1
1.25933	0
1.26300	-0
1.26667	-1
1.27033	-1
1.27400	-0
1.27767	-1
1.28133	-1
1.28500	-1
1.28867	-0
1.29233	-1
1.29600	-0
1.29967	0
1.30333	1
1.30700	0
1.31067	1
1.31433	1
1.31800	-1
1.32167	-2
1.32533	-3
1.32900	-5
1.33267	-6
1.33633	-6
1.34000	-6
1.34367	-5
1.34733	-4
1.35100	-0
1.35467	0
1.35833	-0
1.36200	0
1.36567	-1
1.36933	-2
1.37300	-3
1.37667	-4
1.38033	-5
1.38400	-4
1.38767	-3
1.39133	-2
1.39500	-1
1.39867	1
1.40233	2
1.40600	2
1.40967	1
1.41333	1
1.41700	2
1.42067	2
1.42433	2
1.42800	4
1.43167	4
1.43533	5
1.43900	3
1.44267	2
1.44633	3
1.45000	3
1.45367	3
1.45733	2
1.46100	3
1.46467	3
1.46833	2
1.47200	2
1.47567	2
1.47933	1
1.48300	1
1.48667	1
1.49033	2
1.49400	5
1.49767	7
1.50133	7
1.50500	7
1.50867	6
1.51233	5
1.51600	3
1.51967	2
1.52333	3
1.52700	4
1.53067	6
1.53433	7
1.53800	5
1.54167	3
1.54533	2
1.54900	1
1.55267	2
1.55633	4
1.56000	6
1.56367	10
1.56733	12
1.57100	10
1.57467	7
1.57833	7
1.58200	7
1.58567	7
1.58933	7
1.59300	8
1.59667	8
1.60033	6
1.60400	7
1.60767	9
1.61133	9
1.61500	9
1.61867	10
1.62233	12
1.62600	12
1.62967	13
1.63333	14
1.63700	14
1.64067	13
1.64433	13
1.64800	11
1.65167	11
1.65533	11
1.65900	13
1.66267	13
1.66633	14
1.67000	13
1.67367	12
1.67733	11
1.68100	11
1.68467	11
1.68833	11
1.69200	10
1.69567	11
1.69933	14
1.70300	15
1.70667	16
1.71033	16
1.71400	16
1.71767	17
1.72133	19
1.72500	20
1.72867	22
1.73233	23
1.73600	23
1.73967	23
1.74333	22
1.74700	24
1.75067	28
1.75433	28
1.75800	28
1.76167	28
1.76533	26
1.76900	26
1.77267	26
1.77633	24
1.78000	27
1.78367	29
1.78733	30
1.79100	31
1.79467	29
1.79833	27
1.80200	27
1.80567	29
1.80933	33
1.81300	36
1.81667	41
1.82033	41
1.82400	39
1.82767	38
1.83133	37
1.83500	34
1.83867	33
1.84233	33
1.84600	33
1.84967	34
1.85333	36
1.85700	35
1.86067	35
1.86433	36
1.86800	39
1.87167	41
1.87533	43
1.87900	43
1.88267	44
1.88633	47
1.89000	48
1.89367	48
1.89733	46
1.90100	44
1.90467	44
1.90833	46
1.91200	49
1.91567	51
1.91933	52
1.92300	52
1.92667	52
1.93033	53
1.93400	52
1.93767	51
1.94133	49
1.94500	48
1.94867	51
1.95233	57
1.95600	60
1.95967	62
1.96333	62
1.96700	60
1.97067	58
1.97433	60
1.97800	62
1.98167	61
1.98533	61
1.98900	60
1.99267	60
1.99633	60
2.00000	62
2.00367	65
2.00733	64
2.01100	65
2.01467	68
2.01833	71
2.02200	73
2.02567	72
2.02933	71
2.03300	71
2.03667	72
2.04033	72
2.04400	72
2.04767	71
2.05133	73
2.05500	74
2.05867	77
2.06233	78
2.06600	80
2.06967	81
2.07333	81
2.07700	82
2.08067	84
2.08433	85
2.08800	85
2.09167	82
2.09533	82
2.09900	84
2.10267	86
2.10633	88
2.11000	88
2.11367	89
2.11733	92
2.12100	94
2.12467	98
2.12833	100
2.13200	102
2.13567	102
2.13933	103
2.14300	105
2.14667	107
2.15033	109
2.15400	110
2.15767	112
2.16133	113
2.16500	114
2.16867	115
2.17233	115
2.17600	115
2.17967	114
2.18333	115
2.18700	115
2.19067	116
2.19433	118
2.19800	120
2.20167	123
2.20533	126
2.20900	129
2.21267	131
2.21633	132
2.22000	132
2.22367	132
2.22733	134
2.23100	136
2.23467	138
2.23833	139
2.24200	141
2.24567	140
2.24933	139
2.25300	141
2.25667	144
2.26033	144
2.26400	145
2.26767	148
2.27133	150
2.27500	152
2.27867	154
2.28233	155
2.28600	156
2.28967	158
2.29333	159
2.29700	162
2.30067	166
2.30433	170
2.30800	174
2.31167	176
2.31533	176
2.31900	174
2.32267	174
2.32633	176
2.33000	178
2.33367	181
2.33733	184
2.34100	189
2.34467	191
2.34833	194
2.35200	197
2.35567	202
2.35933	204
2.36300	205
2.36667	204
2.37033	205
2.37400	209
2.37767	211
2.38133	212
2.38500	214
2.38867	215
2.39233	215
2.39600	216
2.39967	220
2.40333	225
2.40700	227
2.41067	227
2.41433	228
2.41800	232
2.42167	235
2.42533	237
2.42900	241
2.43267	244
2.43633	244
2.44000	245
2.44367	279
2.44733	381
2.45100	491
2.45467	584
2.45833	641
2.46200	650
2.46567	625
2.46933	594
2.47300	572
2.47667	560
2.48033	552
2.48400	539
2.48767	515
2.49133	485
2.49500	452
2.49867	422
2.50233	399
2.50600	382
2.50967	371
2.51333	364
2.51700	364
2.52067	368
2.52433	381
2.52800	395
2.53167	410
2.53533	421
2.53900	427
2.54267	424
2.54633	412
2.55000	394
2.55367	375
2.55733	357
2.56100	338
2.56467	324
2.56833	311
2.57200	303
2.57567	293
2.57933	287
2.58300	286
2.58667	285
2.59033	283
2.59400	280
2.59767	275
2.60133	268
2.60500	259
2.60867	244
2.61233	227
2.61600	205
2.61967	185
2.62333	171
2.62700	162
2.63067	155
2.63433	153
2.63800	153
2.64167	155
2.64533	160
2.64900	168
2.65267	178
2.65633	189
2.66000	198
2.66367	206
2.66733	213
2.67100	217
2.67467	218
2.67833	218
2.68200	218
2.68567	215
2.68933	211
2.69300	208
2.69667	203
2.70033	198
2.70400	195
2.70767	193
2.71133	188
2.71500	181
2.71867	177
2.72233	174
2.72600	173
2.72967	171
2.73333	170
2.73700	169
2.74067	169
2.74433	172
2.74800	175
2.75167	177
2.75533	178
2.75900	178
2.76267	178
2.76633	178
2.77000	178
2.77367	178
2.77733	178
2.78100	177
2.78467	176
2.78833	177
2.79200	180
2.79567	182
2.79933	182
2.80300	182
2.80667	182
2.81033	181
2.81400	184
2.81767	192
2.82133	210
2.82500	251
2.82867	331
2.83233	474
2.83600	699
2.83967	1025
2.84333	1456
2.84700	1984
2.85067	2578
2.85433	3194
2.85800	3785
2.86167	4303
2.86533	4704
2.86900	4966
2.87267	5077
2.87633	5047
2.88000	4898
2.88367	4657
2.88733	4354
2.89100	4013
2.89467	3655
2.89833	3301
2.90200	2964
2.90567	2647
2.90933	2353
2.91300	2085
2.91667	1847
2.92033	1637
2.92400	1452
2.92767	1291
2.93133	1148
2.93500	1023
2.93867	913
2.94233	819
2.94600	737
2.94967	668
2.95333	608
2.95700	554
2.96067	506
2.96433	467
2.96800	434
2.97167	405
2.97533	380
2.97900	359
2.98267	342
2.98633	327
2.99000	312
2.99367	298
2.99733	284
3.00100	272
3.00467	262
3.00833	255
3.01200	247
3.01567	238
3.01933	233
3.02300	227
3.02667	221
3.03033	212
3.03400	205
3.03767	201
3.04133	200
3.04500	196
3.04867	191
3.05233	187
3.05600	183
3.05967	181
3.06333	178
3.06700	176
3.07067	175
3.07433	173
3.07800	169
3.08167	167
3.08533	164
3.08900	161
3.09267	158
3.09633	151
3.10000	141
3.10367	135
3.10733	134
3.11100	138
3.11467	145
3.11833	156
3.12200	170
3.12567	190
3.12933	215
3.13300	246
3.13667	280
3.14033	315
3.14400	350
3.14767	384
3.15133	415
3.15500	442
3.15867	465
3.16233	486
3.16600	504
3.16967	522
3.17333	537
3.17700	549
3.18067	560
3.18433	569
3.18800	577
3.19167	583
3.19533	590
3.19900	595
3.20267	598
3.20633	600
3.21000	602
3.21367	605
3.21733	609
3.22100	613
3.22467	615
3.22833	617
3.23200	620
3.23567	621
3.23933	621
3.24300	621
3.24667	624
3.25033	627
3.25400	627
3.25767	624
3.26133	622
3.26500	623
3.26867	623
3.27233	621
3.27600	621
3.27967	621
3.28333	622
3.28700	622
3.29067	620
3.29433	618
3.29800	618
3.30167	619
3.30533	621
3.30900	621
3.31267	620
3.31633	621
3.32000	621
3.32367	617
3.32733	616
3.33100	615
3.33467	614
3.33833	614
3.34200	615
3.34567	616
3.34933	618
3.35300	620
3.35667	620
3.36033	619
3.36400	617
3.36767	616
3.37133	615
3.37500	617
3.37867	617
3.38233	616
3.38600	617
3.38967	621
3.39333	623
3.39700	623
3.40067	623
3.40433	623
3.40800	623
3.41167	622
3.41533	619
3.41900	619
3.42267	617
3.42633	616
3.43000	616
3.43367	617
3.43733	617
3.44100	617
3.44467	617
3.44833	616
3.45200	616
3.45567	617
3.45933	617
3.46300	614
3.46667	612
3.47033	610
3.47400	610
3.47767	609
3.48133	606
3.48500	601
3.48867	597
3.49233	595
3.49600	592
3.49967	590
3.50333	591
3.50700	590
3.51067	589
3.51433	587
3.51800	585
3.52167	584
3.52533	579
3.52900	575
3.53267	573
3.53633	573
3.54000	572
3.54367	569
3.54733	566
3.55100	563
3.55467	563
3.55833	565
3.56200	562
3.56567	557
3.56933	554
3.57300	550
3.57667	550
3.58033	550
3.58400	549
3.58767	547
3.59133	543
3.59500	538
3.59867	537
3.60233	537
3.60600	536
3.60967	534
3.61333	534
3.61700	534
3.62067	533
3.62433	533
3.62800	532
3.63167	532
3.63533	532
3.63900	532
3.64267	530
3.64633	528
3.65000	529
3.65367	530
3.65733	530
3.66100	528
3.66467	527
3.66833	526
3.67200	525
3.67567	524
3.67933	522
3.68300	520
3.68667	520
3.69033	521
3.69400	520
3.69767	519
3.70133	520
3.70500	521
3.70867	522
3.71233	521
3.71600	521
3.71967	522
3.72333	523
3.72700	522
3.73067	521
3.73433	519
3.73800	518
3.74167	518
3.74533	518
3.74900	517
3.75267	517
3.75633	516
3.76000	517
3.76367	516
3.76733	515
3.77100	514
3.77467	513
3.77833	513
3.78200	513
3.78567	514
3.78933	515
3.79300	514
3.79667	514
3.80033	514
3.80400	516
3.80767	516
3.81133	516
3.81500	516
3.81867	515
3.82233	514
3.82600	513
3.82967	511
3.83333	511
3.83700	511
3.84067	511
3.84433	510
3.84800	510
3.85167	509
3.85533	506
3.85900	504
3.86267	501
3.86633	500
3.87000	498
3.87367	494
3.87733	491
3.88100	491
3.88467	491
3.88833	491
3.89200	492
3.89567	492
3.89933	490
3.90300	488
3.90667	488
3.91033	486
3.91400	486
3.91767	487
3.92133	489
3.92500	487
3.92867	485
3.93233	484
3.93600	482
3.93967	482
3.94333	482
3.94700	482
3.95067	481
3.95433	481
3.95800	480
3.96167	477
3.96533	473
3.96900	471
3.97267	471
3.97633	470
3.98000	469
3.98367	468
3.98733	466
3.99100	465
3.99467	464
3.99833	464

[Status Trace (Column Oven Temperature)]
Interval(msec)	1000
# of Points	240
Start Time(min)	0.016
End Time(min)	3.999
Intensity Units	
Intensity Multiplier	1
R.Time (min)	Intensity
0.01562	35.04
0.03228	35.04
0.04895	35.04
0.06562	35.05
0.08228	35.05
0.09895	35.05
0.11562	35.05
0.13228	35.05
0.14895	35.04
0.16562	35.03
0.18228	35.04
0.19895	35.04
0.21562	35.05
0.23228	35.04
0.24895	35.04
0.26562	35.03
0.28228	35.01
0.29895	35.00
0.31562	35.00
0.33228	35.01
0.34895	35.01
0.36562	34.99
0.38228	34.99
0.39895	34.99
0.41562	34.99
0.43228	35.00
0.44895	35.01
0.46562	35.01
0.48228	35.01
0.49895	35.00
0.51562	35.00
0.53228	35.01
0.54895	35.01
0.56562	35.01
0.58228	35.01
0.59895	35.02
0.61562	35.01
0.63228	35.01
0.64895	35.00
0.66562	35.00
0.68228	35.00
0.69895	34.99
0.71562	35.00
0.73228	35.00
0.74895	35.00
0.76562	35.00
0.78228	35.00
0.79895	35.00
0.81562	35.02
0.83228	35.01
0.84895	35.01
0.86562	35.01
0.88228	35.02
0.89895	35.03
0.91562	35.03
0.93228	35.03
0.94895	35.02
0.96562	35.00
0.98228	35.00
0.99895	35.00
1.01562	35.01
1.03228	35.02
1.04895	35.03
1.06562	35.02
1.08228	35.02
1.09895	35.01
1.11562	35.01
1.13228	35.01
1.14895	35.00
1.16562	35.00
1.18228	35.00
1.19895	34.99
1.21562	34.98
1.23228	34.98
1.24895	35.00
1.26562	35.00
1.28228	35.00
1.29895	34.99
1.31562	34.98
1.33228	34.97
1.34895	34.98
1.36562	35.00
1.38228	35.01
1.39895	35.02
1.41562	35.04
1.43228	35.04
1.44895	35.03
1.46562	35.04
1.48228	35.04
1.49895	35.04
1.51562	35.04
1.53228	35.04
1.54895	35.04
1.56562	35.03
1.58228	35.03
1.59895	35.04
1.61562	35.12
1.63228	35.27
1.64895	35.46
1.66562	35.75
1.68228	36.12
1.69895	36.47
1.71562	36.83
1.73228	37.16
1.74895	37.51
1.76562	37.84
1.78228	38.16
1.79895	38.49
1.81562	38.83
1.83228	39.15
1.84895	39.48
1.86562	39.82
1.88228	40.16
1.89895	40.48
1.91562	40.81
1.93228	41.13
1.94895	41.45
1.96562	41.77
1.98228	42.10
1.99895	42.42
2.01562	42.75
2.03228	43.08
2.04895	43.39
2.06562	43.71
2.08228	44.04
2.09895	44.37
2.11562	44.69
2.13228	45.03
2.14895	45.33
2.16562	45.68
2.18228	46.01
2.19895	46.32
2.21562	46.65
2.23228	46.98
2.24895	47.30
2.26562	47.65
2.28228	47.99
2.29895	48.32
2.31562	48.65
2.33228	49.01
2.34895	49.30
2.36562	49.52
2.38228	49.62
2.39895	49.63
2.41562	49.61
2.43228	49.64
2.44895	49.64
2.46562	49.65
2.48228	49.65
2.49895	49.70
2.51562	49.70
2.53228	49.71
2.54895	49.72
2.56562	49.73
2.58228	49.76
2.59895	49.77
2.61562	49.82
2.63228	49.83
2.64895	49.84
2.66562	49.82
2.68228	49.83
2.69895	49.85
2.71562	49.85
2.73228	49.85
2.74895	49.85
2.76562	49.85
2.78228	49.86
2.79895	49.87
2.81562	49.87
2.83228	49.88
2.84895	49.88
2.86562	49.87
2.88228	49.87
2.89895	49.88
2.91562	49.89
2.93228	49.90
2.94895	49.91
2.96562	49.92
2.98228	49.93
2.99895	49.95
3.01562	49.98
3.03228	49.99
3.04895	50.00
3.06562	50.01
3.08228	50.01
3.09895	50.01
3.11562	50.02
3.13228	50.03
3.14895	50.04
3.16562	50.04
3.18228	50.05
3.19895	50.06
3.21562	50.07
3.23228	50.08
3.24895	50.09
3.26562	50.10
3.28228	50.10
3.29895	50.10
3.31562	50.09
3.33228	50.09
3.34895	50.10
3.36562	50.10
3.38228	50.11
3.39895	50.10
3.41562	50.09
3.43228	50.08
3.44895	50.07
3.46562	50.06
3.48228	50.05
3.49895	50.05
3.51562	50.07
3.53228	50.07
3.54895	50.08
3.56562	50.08
3.58228	50.09
3.59895	50.08
3.61562	50.06
3.63228	50.05
3.64895	50.06
3.66562	50.08
3.68228	50.08
3.69895	50.08
3.71562	50.08
3.73228	50.09
3.74895	50.09
3.76562	50.10
3.78228	50.10
3.79895	50.10
3.81562	50.08
3.83228	50.07
3.84895	50.05
3.86562	50.04
3.88228	50.04
3.89895	50.03
3.91562	50.04
3.93228	50.04
3.94895	50.03
3.96562	50.04
3.98228	50.04
3.99895	50.04

[Status Trace (Injection Unit Temperature)]
Interval(msec)	1000
# of Points	240
Start Time(min)	0.016
End Time(min)	3.999
Intensity Units	
Intensity Multiplier	1
R.Time (min)	Intensity
0.01562	99.98
0.03228	99.97
0.04895	99.98
0.06562	99.98
0.08228	99.98
0.09895	99.98
0.11562	99.98
0.13228	99.98
0.14895	99.98
0.16562	99.98
0.18228	99.98
0.19895	99.98
0.21562	99.98
0.23228	99.98
0.24895	99.98
0.26562	99.98
0.28228	99.98
0.29895	99.98
0.31562	99.98
0.33228	99.98
0.34895	99.98
0.36562	99.99
0.38228	99.98
0.39895	99.98
0.41562	99.98
0.43228	99.98
0.44895	99.98
0.46562	99.98
0.48228	99.98
0.49895	99.99
0.51562	99.98
0.53228	99.98
0.54895	99.98
0.56562	99.98
0.58228	99.98
0.59895	99.98
0.61562	99.98
0.63228	99.98
0.64895	99.98
0.66562	99.98
0.68228	99.98
0.69895	99.98
0.71562	99.98
0.73228	99.98
0.74895	99.98
0.76562	99.98
0.78228	99.98
0.79895	99.98
0.81562	99.98
0.83228	99.98
0.84895	99.98
0.86562	99.98
0.88228	99.98
0.89895	99.98
0.91562	99.98
0.93228	99.98
0.94895	99.98
0.96562	99.98
0.98228	99.98
0.99895	99.98
1.01562	99.98
1.03228	99.98
1.04895	99.98
1.06562	99.98
1.08228	99.98
1.09895	99.98
1.11562	99.98
1.13228	99.98
1.14895	99.98
1.16562	99.98
1.18228	99.98
1.19895	99.99
1.21562	99.98
1.23228	99.99
1.24895	99.98
1.26562	99.99
1.28228	99.99
1.29895	99.98
1.31562	99.98
1.33228	99.99
1.34895	99.99
1.36562	99.98
1.38228	99.99
1.39895	99.99
1.41562	99.99
1.43228	99.98
1.44895	99.98
1.46562	99.99
1.48228	99.99
1.49895	99.99
1.51562	99.98
1.53228	99.99
1.54895	99.98
1.56562	99.99
1.58228	99.99
1.59895	99.99
1.61562	99.99
1.63228	99.99
1.64895	99.99
1.66562	99.98
1.68228	99.99
1.69895	99.99
1.71562	99.98
1.73228	99.99
1.74895	99.99
1.76562	99.98
1.78228	99.98
1.79895	99.98
1.81562	99.98
1.83228	99.98
1.84895	99.98
1.86562	99.98
1.88228	99.98
1.89895	99.98
1.91562	99.98
1.93228	99.98
1.94895	99.98
1.96562	99.98
1.98228	99.98
1.99895	99.98
2.01562	99.97
2.03228	99.97
2.04895	99.97
2.06562	99.97
2.08228	99.97
2.09895	99.98
2.11562	99.97
2.13228	99.97
2.14895	99.97
2.16562	99.97
2.18228	99.97
2.19895	99.97
2.21562	99.97
2.23228	99.97
2.24895	99.97
2.26562	99.96
2.28228	99.97
2.29895	99.97
2.31562	99.97
2.33228	99.96
2.34895	99.97
2.36562	99.97
2.38228	99.97
2.39895	99.96
2.41562	99.96
2.43228	99.97
2.44895	99.97
2.46562	99.96
2.48228	99.97
2.49895	99.97
2.51562	99.97
2.53228	99.96
2.54895	99.97
2.56562	99.97
2.58228	99.97
2.59895	99.97
2.61562	99.97
2.63228	99.97
2.64895	99.97
2.66562	99.98
2.68228	99.97
2.69895	99.98
2.71562	99.98
2.73228	99.98
2.74895	99.98
2.76562	99.98
2.78228	99.99
2.79895	99.99
2.81562	99.99
2.83228	99.99
2.84895	99.99
2.86562	99.99
2.88228	100.00
2.89895	100.00
2.91562	100.00
2.93228	100.00
2.94895	100.00
2.96562	100.00
2.98228	100.00
2.99895	100.01
3.01562	100.01
3.03228	100.01
3.04895	100.01
3.06562	100.01
3.08228	100.01
3.09895	100.02
3.11562	100.02
3.13228	100.02
3.14895	100.02
3.16562	100.02
3.18228	100.02
3.19895	100.02
3.21562	100.03
3.23228	100.02
3.24895	100.02
3.26562	100.03
3.28228	100.02
3.29895	100.03
3.31562	100.03
3.33228	100.03
3.34895	100.03
3.36562	100.03
3.38228	100.03
3.39895	100.03
3.41562	100.03
3.43228	100.02
3.44895	100.03
3.46562	100.04
3.48228	100.03
3.49895	100.03
3.51562	100.03
3.53228	100.03
3.54895	100.03
3.56562	100.03
3.58228	100.03
3.59895	100.03
3.61562	100.03
3.63228	100.03
3.64895	100.03
3.66562	100.03
3.68228	100.03
3.69895	100.03
3.71562	100.03
3.73228	100.03
3.74895	100.03
3.76562	100.03
3.78228	100.04
3.79895	100.04
3.81562	100.04
3.83228	100.03
3.84895	100.04
3.86562	100.04
3.88228	100.04
3.89895	100.04
3.91562	100.03
3.93228	100.04
3.94895	100.04
3.96562	100.04
3.98228	100.04
3.99895	100.04

[Status Trace (Carrier Gas Pressure)]
Interval(msec)	1000
# of Points	240
Start Time(min)	0.016
End Time(min)	3.999
Intensity Units	
Intensity Multiplier	1
R.Time (min)	Intensity
0.01562	57.02
0.03228	55.84
0.04895	58.10
0.06562	59.89
0.08228	58.52
0.09895	57.97
0.11562	58.00
0.13228	58.01
0.14895	58.01
0.16562	58.00
0.18228	58.00
0.19895	58.00
0.21562	58.00
0.23228	58.00
0.24895	58.00
0.26562	58.00
0.28228	58.00
0.29895	58.00
0.31562	58.00
0.33228	58.00
0.34895	58.00
0.36562	58.00
0.38228	58.00
0.39895	58.00
0.41562	58.00
0.43228	58.00
0.44895	58.00
0.46562	58.00
0.48228	58.00
0.49895	58.00
0.51562	58.00
0.53228	58.00
0.54895	58.00
0.56562	58.00
0.58228	58.00
0.59895	58.00
0.61562	58.00
0.63228	58.00
0.64895	58.00
0.66562	58.00
0.68228	58.00
0.69895	58.00
0.71562	58.00
0.73228	58.00
0.74895	58.00
0.76562	58.00
0.78228	58.00
0.79895	58.00
0.81562	58.00
0.83228	58.00
0.84895	58.00
0.86562	58.00
0.88228	58.00
0.89895	58.00
0.91562	58.00
0.93228	58.00
0.94895	58.00
0.96562	58.00
0.98228	58.00
0.99895	58.00
1.01562	58.00
1.03228	58.00
1.04895	58.00
1.06562	58.00
1.08228	58.00
1.09895	58.00
1.11562	58.00
1.13228	58.00
1.14895	58.00
1.16562	58.00
1.18228	58.00
1.19895	58.00
1.21562	58.00
1.23228	58.00
1.24895	58.00
1.26562	58.00
1.28228	58.00
1.29895	58.00
1.31562	58.00
1.33228	58.00
1.34895	58.00
1.36562	58.00
1.38228	58.00
1.39895	58.00
1.41562	58.00
1.43228	58.00
1.44895	58.00
1.46562	58.00
1.48228	58.00
1.49895	58.00
1.51562	58.00
1.53228	58.00
1.54895	58.00
1.56562	58.00
1.58228	58.00
1.59895	58.00
1.61562	58.00
1.63228	58.00
1.64895	58.00
1.66562	58.01
1.68228	58.01
1.69895	58.00
1.71562	58.00
1.73228	58.00
1.74895	58.00
1.76562	58.00
1.78228	58.00
1.79895	58.00
1.81562	58.00
1.83228	58.00
1.84895	58.00
1.86562	58.00
1.88228	58.00
1.89895	58.00
1.91562	58.00
1.93228	58.00
1.94895	58.00
1.96562	58.00
1.98228	58.00
1.99895	58.00
2.01562	58.00
2.03228	58.00
2.04895	58.00
2.06562	58.00
2.08228	58.00
2.09895	58.00
2.11562	58.00
2.13228	58.00
2.14895	58.00
2.16562	58.00
2.18228	58.00
2.19895	58.00
2.21562	58.00
2.23228	58.00
2.24895	58.00
2.26562	58.00
2.28228	58.00
2.29895	58.00
2.31562	58.00
2.33228	58.00
2.34895	58.00
2.36562	58.00
2.38228	57.99
2.39895	57.99
2.41562	58.00
2.43228	58.00
2.44895	58.00
2.46562	58.00
2.48228	58.00
2.49895	58.00
2.51562	57.99
2.53228	57.99
2.54895	58.00
2.56562	58.00
2.58228	58.00
2.59895	58.00
2.61562	58.00
2.63228	58.00
2.64895	58.00
2.66562	58.00
2.68228	58.00
2.69895	58.00
2.71562	58.00
2.73228	58.00
2.74895	58.00
2.76562	58.00
2.78228	58.00
2.79895	58.00
2.81562	58.00
2.83228	58.00
2.84895	58.00
2.86562	58.00
2.88228	58.00
2.89895	58.00
2.91562	58.00
2.93228	58.00
2.94895	58.00
2.96562	58.00
2.98228	58.00
2.99895	58.00
3.01562	58.00
3.03228	58.00
3.04895	58.00
3.06562	58.00
3.08228	58.00
3.09895	58.00
3.11562	58.00
3.13228	58.00
3.14895	58.00
3.16562	58.00
3.18228	58.00
3.19895	58.00
3.21562	58.00
3.23228	58.00
3.24895	58.00
3.26562	58.00
3.28228	58.00
3.29895	58.00
3.31562	58.00
3.33228	58.00
3.34895	58.00
3.36562	58.00
3.38228	58.00
3.39895	58.00
3.41562	58.00
3.43228	58.00
3.44895	58.00
3.46562	58.00
3.48228	58.00
3.49895	58.00
3.51562	58.00
3.53228	58.00
3.54895	58.00
3.56562	58.00
3.58228	58.00
3.59895	58.00
3.61562	58.00
3.63228	58.00
3.64895	58.00
3.66562	58.00
3.68228	58.00
3.69895	58.00
3.71562	58.00
3.73228	58.00
3.74895	58.00
3.76562	58.00
3.78228	58.00
3.79895	58.00
3.81562	58.00
3.83228	58.00
3.84895	58.00
3.86562	58.00
3.88228	58.00
3.89895	58.00
3.91562	58.00
3.93228	58.00
3.94895	58.00
3.96562	58.00
3.98228	58.00
3.99895	58.00

[Status Trace (Carrier Gas Flow)]
Interval(msec)	1000
# of Points	240
Start Time(min)	0.016
End Time(min)	3.999
Intensity Units	
Intensity Multiplier	1
R.Time (min)	Intensity
0.01562	33.72
0.03228	34.53
0.04895	34.55
0.06562	34.51
0.08228	34.51
0.09895	34.52
0.11562	34.52
0.13228	34.52
0.14895	34.51
0.16562	34.53
0.18228	34.52
0.19895	34.53
0.21562	34.51
0.23228	34.51
0.24895	34.52
0.26562	34.51
0.28228	34.52
0.29895	34.52
0.31562	34.52
0.33228	34.52
0.34895	34.52
0.36562	34.52
0.38228	34.52
0.39895	34.51
0.41562	34.51
0.43228	34.52
0.44895	34.52
0.46562	34.51
0.48228	34.52
0.49895	34.52
0.51562	34.51
0.53228	34.52
0.54895	34.51
0.56562	34.52
0.58228	34.52
0.59895	34.51
0.61562	34.52
0.63228	34.51
0.64895	34.51
0.66562	34.51
0.68228	34.52
0.69895	34.52
0.71562	34.52
0.73228	34.53
0.74895	34.52
0.76562	34.52
0.78228	34.52
0.79895	34.52
0.81562	34.51
0.83228	34.52
0.84895	34.51
0.86562	34.52
0.88228	34.52
0.89895	34.53
0.91562	34.52
0.93228	34.52
0.94895	34.52
0.96562	34.52
0.98228	34.51
0.99895	34.52
1.01562	34.52
1.03228	34.52
1.04895	34.52
1.06562	34.52
1.08228	34.51
1.09895	34.52
1.11562	34.52
1.13228	34.52
1.14895	34.52
1.16562	34.52
1.18228	34.52
1.19895	34.52
1.21562	34.52
1.23228	34.52
1.24895	34.52
1.26562	34.52
1.28228	34.52
1.29895	34.52
1.31562	34.52
1.33228	34.51
1.34895	34.52
1.36562	34.52
1.38228	34.52
1.39895	34.53
1.41562	34.52
1.43228	34.52
1.44895	34.52
1.46562	34.52
1.48228	34.52
1.49895	34.51
1.51562	34.51
1.53228	34.52
1.54895	34.52
1.56562	34.52
1.58228	34.52
1.59895	34.52
1.61562	34.52
1.63228	34.52
1.64895	34.52
1.66562	34.53
1.68228	34.53
1.69895	34.52
1.71562	34.51
1.73228	34.52
1.74895	34.52
1.76562	34.52
1.78228	34.52
1.79895	34.52
1.81562	34.52
1.83228	34.52
1.84895	34.52
1.86562	34.52
1.88228	34.51
1.89895	34.51
1.91562	34.52
1.93228	34.52
1.94895	34.52
1.96562	34.52
1.98228	34.52
1.99895	34.52
2.01562	34.52
2.03228	34.51
2.04895	34.52
2.06562	34.52
2.08228	34.52
2.09895	34.53
2.11562	34.51
2.13228	34.52
2.14895	34.51
2.16562	34.52
2.18228	34.52
2.19895	34.52
2.21562	34.52
2.23228	34.52
2.24895	34.52
2.26562	34.51
2.28228	34.52
2.29895	34.51
2.31562	34.52
2.33228	34.52
2.34895	34.52
2.36562	34.52
2.38228	34.53
2.39895	34.51
2.41562	34.52
2.43228	34.52
2.44895	34.53
2.46562	34.52
2.48228	34.52
2.49895	34.52
2.51562	34.52
2.53228	34.52
2.54895	34.52
2.56562	34.52
2.58228	34.52
2.59895	34.52
2.61562	34.52
2.63228	34.51
2.64895	34.52
2.66562	34.52
2.68228	34.52
2.69895	34.52
2.71562	34.52
2.73228	34.52
2.74895	34.52
2.76562	34.52
2.78228	34.53
2.79895	34.52
2.81562	34.52
2.83228	34.52
2.84895	34.52
2.86562	34.52
2.88228	34.51
2.89895	34.52
2.91562	34.52
2.93228	34.52
2.94895	34.51
2.96562	34.52
2.98228	34.52
2.99895	34.52
3.01562	34.52
3.03228	34.52
3.04895	34.52
3.06562	34.53
3.08228	34.52
3.09895	34.52
3.11562	34.52
3.13228	34.52
3.14895	34.51
3.16562	34.51
3.18228	34.52
3.19895	34.52
3.21562	34.52
3.23228	34.52
3.24895	34.52
3.26562	34.52
3.28228	34.52
3.29895	34.52
3.31562	34.52
3.33228	34.52
3.34895	34.52
3.36562	34.52
3.38228	34.52
3.39895	34.52
3.41562	34.52
3.43228	34.52
3.44895	34.52
3.46562	34.52
3.48228	34.52
3.49895	34.52
3.51562	34.52
3.53228	34.52
3.54895	34.52
3.56562	34.52
3.58228	34.52
3.59895	34.52
3.61562	34.52
3.63228	34.53
3.64895	34.52
3.66562	34.52
3.68228	34.52
3.69895	34.51
3.71562	34.52
3.73228	34.52
3.74895	34.52
3.76562	34.52
3.78228	34.52
3.79895	34.52
3.81562	34.51
3.83228	34.52
3.84895	34.52
3.86562	34.52
3.88228	34.52
3.89895	34.52
3.91562	34.52
3.93228	34.51
3.94895	34.52
3.96562	34.52
3.98228	34.52
3.99895	34.52

[Status Trace (Column Flow)]
Interval(msec)	1000
# of Points	240
Start Time(min)	0.016
End Time(min)	3.999
Intensity Units	
Intensity Multiplier	1
R.Time (min)	Intensity
0.01562	5.45
0.03228	5.31
0.04895	5.57
0.06562	5.79
0.08228	5.62
0.09895	5.56
0.11562	5.56
0.13228	5.56
0.14895	5.56
0.16562	5.56
0.18228	5.56
0.19895	5.56
0.21562	5.56
0.23228	5.56
0.24895	5.56
0.26562	5.56
0.28228	5.56
0.29895	5.56
0.31562	5.56
0.33228	5.56
0.34895	5.56
0.36562	5.56
0.38228	5.56
0.39895	5.56
0.41562	5.56
0.43228	5.56
0.44895	5.56
0.46562	5.56
0.48228	5.56
0.49895	5.56
0.51562	5.56
0.53228	5.56
0.54895	5.56
0.56562	5.56
0.58228	5.56
0.59895	5.56
0.61562	5.56
0.63228	5.56
0.64895	5.56
0.66562	5.56
0.68228	5.56
0.69895	5.56
0.71562	5.56
0.73228	5.56
0.74895	5.56
0.76562	5.56
0.78228	5.56
0.79895	5.56
0.81562	5.56
0.83228	5.56
0.84895	5.56
0.86562	5.56
0.88228	5.56
0.89895	5.56
0.91562	5.56
0.93228	5.56
0.94895	5.56
0.96562	5.56
0.98228	5.56
0.99895	5.56
1.01562	5.56
1.03228	5.56
1.04895	5.56
1.06562	5.56
1.08228	5.56
1.09895	5.56
1.11562	5.56
1.13228	5.56
1.14895	5.56
1.16562	5.56
1.18228	5.56
1.19895	5.56
1.21562	5.56
1.23228	5.56
1.24895	5.56
1.26562	5.56
1.28228	5.56
1.29895	5.56
1.31562	5.56
1.33228	5.57
1.34895	5.57
1.36562	5.56
1.38228	5.56
1.39895	5.56
1.41562	5.56
1.43228	5.56
1.44895	5.56
1.46562	5.56
1.48228	5.56
1.49895	5.56
1.51562	5.56
1.53228	5.56
1.54895	5.56
1.56562	5.56
1.58228	5.56
1.59895	5.56
1.61562	5.56
1.63228	5.56
1.64895	5.55
1.66562	5.54
1.68228	5.53
1.69895	5.52
1.71562	5.51
1.73228	5.50
1.74895	5.49
1.76562	5.47
1.78228	5.46
1.79895	5.46
1.81562	5.44
1.83228	5.43
1.84895	5.43
1.86562	5.41
1.88228	5.40
1.89895	5.39
1.91562	5.38
1.93228	5.37
1.94895	5.37
1.96562	5.35
1.98228	5.35
1.99895	5.34
2.01562	5.33
2.03228	5.32
2.04895	5.31
2.06562	5.30
2.08228	5.29
2.09895	5.28
2.11562	5.27
2.13228	5.26
2.14895	5.25
2.16562	5.24
2.18228	5.23
2.19895	5.22
2.21562	5.21
2.23228	5.20
2.24895	5.19
2.26562	5.18
2.28228	5.17
2.29895	5.16
2.31562	5.15
2.33228	5.15
2.34895	5.14
2.36562	5.13
2.38228	5.13
2.39895	5.13
2.41562	5.13
2.43228	5.13
2.44895	5.13
2.46562	5.13
2.48228	5.13
2.49895	5.13
2.51562	5.12
2.53228	5.12
2.54895	5.13
2.56562	5.13
2.58228	5.12
2.59895	5.12
2.61562	5.12
2.63228	5.12
2.64895	5.12
2.66562	5.12
2.68228	5.12
2.69895	5.12
2.71562	5.12
2.73228	5.12
2.74895	5.12
2.76562	5.12
2.78228	5.12
2.79895	5.12
2.81562	5.12
2.83228	5.12
2.84895	5.12
2.86562	5.12
2.88228	5.12
2.89895	5.12
2.91562	5.12
2.93228	5.12
2.94895	5.12
2.96562	5.12
2.98228	5.12
2.99895	5.12
3.01562	5.12
3.03228	5.12
3.04895	5.12
3.06562	5.12
3.08228	5.12
3.09895	5.12
3.11562	5.12
3.13228	5.12
3.14895	5.12
3.16562	5.12
3.18228	5.12
3.19895	5.12
3.21562	5.12
3.23228	5.12
3.24895	5.12
3.26562	5.11
3.28228	5.11
3.29895	5.11
3.31562	5.12
3.33228	5.11
3.34895	5.11
3.36562	5.11
3.38228	5.11
3.39895	5.11
3.41562	5.11
3.43228	5.12
3.44895	5.12
3.46562	5.12
3.48228	5.12
3.49895	5.12
3.51562	5.12
3.53228	5.12
3.54895	5.12
3.56562	5.12
3.58228	5.11
3.59895	5.12
3.61562	5.12
3.63228	5.12
3.64895	5.12
3.66562	5.12
3.68228	5.12
3.69895	5.12
3.71562	5.12
3.73228	5.12
3.74895	5.12
3.76562	5.11
3.78228	5.11
3.79895	5.11
3.81562	5.12
3.83228	5.12
3.84895	5.12
3.86562	5.12
3.88228	5.12
3.89895	5.12
3.91562	5.12
3.93228	5.12
3.94895	5.12
3.96562	5.12
3.98228	5.12
3.99895	5.12

[Status Trace (Linear Velocity)]
Interval(msec)	1000
# of Points	240
Start Time(min)	0.016
End Time(min)	3.999
Intensity Units	
Intensity Multiplier	1
R.Time (min)	Intensity
0.01562	38.38
0.03228	37.60
0.04895	39.09
0.06562	40.26
0.08228	39.36
0.09895	39.00
0.11562	39.02
0.13228	39.03
0.14895	39.03
0.16562	39.03
0.18228	39.03
0.19895	39.02
0.21562	39.02
0.23228	39.02
0.24895	39.02
0.26562	39.02
0.28228	39.03
0.29895	39.03
0.31562	39.03
0.33228	39.03
0.34895	39.03
0.36562	39.03
0.38228	39.03
0.39895	39.03
0.41562	39.03
0.43228	39.03
0.44895	39.03
0.46562	39.03
0.48228	39.03
0.49895	39.03
0.51562	39.03
0.53228	39.03
0.54895	39.03
0.56562	39.03
0.58228	39.03
0.59895	39.03
0.61562	39.03
0.63228	39.03
0.64895	39.03
0.66562	39.03
0.68228	39.03
0.69895	39.03
0.71562	39.03
0.73228	39.03
0.74895	39.03
0.76562	39.03
0.78228	39.03
0.79895	39.03
0.81562	39.03
0.83228	39.02
0.84895	39.03
0.86562	39.03
0.88228	39.03
0.89895	39.02
0.91562	39.02
0.93228	39.02
0.94895	39.02
0.96562	39.03
0.98228	39.03
0.99895	39.03
1.01562	39.03
1.03228	39.02
1.04895	39.02
1.06562	39.02
1.08228	39.02
1.09895	39.03
1.11562	39.03
1.13228	39.03
1.14895	39.03
1.16562	39.03
1.18228	39.03
1.19895	39.03
1.21562	39.03
1.23228	39.03
1.24895	39.03
1.26562	39.03
1.28228	39.03
1.29895	39.03
1.31562	39.03
1.33228	39.03
1.34895	39.03
1.36562	39.03
1.38228	39.03
1.39895	39.02
1.41562	39.02
1.43228	39.02
1.44895	39.02
1.46562	39.02
1.48228	39.02
1.49895	39.02
1.51562	39.02
1.53228	39.02
1.54895	39.02
1.56562	39.02
1.58228	39.02
1.59895	39.02
1.61562	39.02
1.63228	39.00
1.64895	38.99
1.66562	38.96
1.68228	38.92
1.69895	38.89
1.71562	38.85
1.73228	38.82
1.74895	38.79
1.76562	38.76
1.78228	38.72
1.79895	38.70
1.81562	38.66
1.83228	38.63
1.84895	38.60
1.86562	38.57
1.88228	38.54
1.89895	38.51
1.91562	38.48
1.93228	38.45
1.94895	38.42
1.96562	38.39
1.98228	38.36
1.99895	38.33
2.01562	38.30
2.03228	38.27
2.04895	38.24
2.06562	38.21
2.08228	38.18
2.09895	38.15
2.11562	38.12
2.13228	38.09
2.14895	38.06
2.16562	38.03
2.18228	38.00
2.19895	37.97
2.21562	37.94
2.23228	37.91
2.24895	37.89
2.26562	37.85
2.28228	37.82
2.29895	37.79
2.31562	37.76
2.33228	37.73
2.34895	37.70
2.36562	37.68
2.38228	37.67
2.39895	37.67
2.41562	37.67
2.43228	37.67
2.44895	37.67
2.46562	37.67
2.48228	37.67
2.49895	37.67
2.51562	37.66
2.53228	37.66
2.54895	37.67
2.56562	37.67
2.58228	37.66
2.59895	37.66
2.61562	37.66
2.63228	37.66
2.64895	37.66
2.66562	37.66
2.68228	37.66
2.69895	37.66
2.71562	37.65
2.73228	37.66
2.74895	37.66
2.76562	37.66
2.78228	37.66
2.79895	37.65
2.81562	37.65
2.83228	37.65
2.84895	37.65
2.86562	37.65
2.88228	37.65
2.89895	37.65
2.91562	37.65
2.93228	37.65
2.94895	37.65
2.96562	37.65
2.98228	37.65
2.99895	37.65
3.01562	37.64
3.03228	37.64
3.04895	37.64
3.06562	37.64
3.08228	37.64
3.09895	37.64
3.11562	37.64
3.13228	37.64
3.14895	37.64
3.16562	37.64
3.18228	37.64
3.19895	37.64
3.21562	37.64
3.23228	37.64
3.24895	37.63
3.26562	37.63
3.28228	37.63
3.29895	37.63
3.31562	37.63
3.33228	37.63
3.34895	37.63
3.36562	37.63
3.38228	37.63
3.39895	37.63
3.41562	37.63
3.43228	37.64
3.44895	37.64
3.46562	37.64
3.48228	37.64
3.49895	37.64
3.51562	37.64
3.53228	37.64
3.54895	37.64
3.56562	37.64
3.58228	37.63
3.59895	37.63
3.61562	37.64
3.63228	37.64
3.64895	37.64
3.66562	37.64
3.68228	37.64
3.69895	37.63
3.71562	37.63
3.73228	37.63
3.74895	37.63
3.76562	37.63
3.78228	37.63
3.79895	37.63
3.81562	37.63
3.83228	37.64
3.84895	37.64
3.86562	37.64
3.88228	37.64
3.89895	37.64
3.91562	37.64
3.93228	37.64
3.94895	37.64
3.96562	37.64
3.98228	37.64
3.99895	37.64

