[Header]
Application Name	LabSolutions
Version	5.110
Data File Name	C:\Users\User\Desktop\GC Analyses\Jack\Nachusa Grasslands Sampling\T1 Timepoint July 12th\T1_07122022_002.gcd
Output Date	3/14/2023
Output Time	3:40:56 PM

[File Information]
Type	Data File
Generated	3/8/2023 1:24:35 PM
Generated by	System Administrator
Modified	3/8/2023 1:30:50 PM
Modified by	System Administrator

[Sample Information]
Operator Name	System Administrator
Acquired	3/8/2023 1:26:48 PM
Sample Type	0:Unknown
Level	0
Sample Name	002
Sample ID	002
ISTD Amount1	1
ISTD Amount2	1
ISTD Amount3	1
ISTD Amount4	1
ISTD Amount5	1
ISTD Amount6	1
ISTD Amount7	1
ISTD Amount8	1
ISTD Amount9	1
ISTD Amount10	1
ISTD Amount11	1
ISTD Amount12	1
ISTD Amount13	1
ISTD Amount14	1
ISTD Amount15	1
ISTD Amount16	1
ISTD Amount17	1
ISTD Amount18	1
ISTD Amount19	1
ISTD Amount20	1
ISTD Amount21	1
ISTD Amount22	1
ISTD Amount23	1
ISTD Amount24	1
ISTD Amount25	1
ISTD Amount26	1
ISTD Amount27	1
ISTD Amount28	1
ISTD Amount29	1
ISTD Amount30	1
ISTD Amount31	1
ISTD Amount32	1
Sample Amount	1
Dilution Factor	1
Vial#	1
Injection Volume	1
Injection Count	1
Bar Code	

[Original Files]
Data File	C:\Users\User\Desktop\GC Analyses\Jack\Nachusa Grasslands Sampling\T1 Timepoint July 12th\T1_07122022_002.gcd
Method File	C:\LabSolutions\Data\GHG_4min_2022\ghg3_togas_w_acet_4 min_new_int.gcm
Batch File	C:\LabSolutions\Data\AutoSamplerTesting\T1_07122022.gcb
Report Format File	c:\LabSolutions\System\DEFAULT.lsr

[File Description]


[Configuration]
Instrument Name	C0B7VH3-Instrument1
Instrument #	1
Line #	1
# of Detectors	3
Detector ID	DET#1	DET#2	DET#3
Detector Name	FID	PTCD	ECD
# of Channels	1	1	1

[Peak Table(Ch1)]
# of Peaks	3
Peak#	R.Time	I.Time	F.Time	Area	Height	A/H	Conc.	Mark	ID#	Name	k'	Plate #	Plate Ht.	Tailing	Resolution	Sep.Factor	Area Ratio	Height Ratio	Conc. %	Norm Conc.
1	1.483	1.446	1.545	3129	1123	2.785	22.090	   	1	CO	0.000	6306	23.786	0.000	0.000	0.000	0	0	9.302	9.302
2	1.575	1.545	1.633	2957	1715	1.724	57.180	 V 	2	CH4	0.062	15313	9.796	0.000	1.460	0.000	0	0	24.078	24.078
3	2.004	1.949	2.363	630403	332617	1.895	158.214	   	3	CO2	0.351	21759	6.894	1.395	8.153	5.680	0	0	66.621	66.621

[Peak Table(Ch2)]
# of Peaks	0

[Peak Table(Ch3)]
# of Peaks	4
Peak#	R.Time	I.Time	F.Time	Area	Height	A/H	Conc.	Mark	ID#	Name	k'	Plate #	Plate Ht.	Tailing	Resolution	Sep.Factor	Area Ratio	Height Ratio	Conc. %	Norm Conc.
1	2.462	2.374	2.521	1147	342	3.355	0.000	   			0.000	8113	18.488	0.000	0.000	0.000	0	0	0.000	0.000
2	2.550	2.521	2.638	905	196	4.606	0.000	 V 			0.036	3034	49.442	0.000	0.598	0.000	0	0	0.000	0.000
3	2.711	2.653	2.737	355	97	3.657	0.000	   			0.101	1073	139.749	0.000	0.625	2.833	0	0	0.000	0.000
4	2.880	2.737	3.368	21741	5205	4.177	0.555	 V 	1	N2O	0.170	12873	11.652	1.589	0.780	1.676	0	0	100.000	100.000

[Compound Results(Ch1)]
# of IDs	6
ID#	Name	R.Time	Area	Height	Conc.	Curve	3rd	2nd	1st	Constant	Area Ratio	Height Ratio	Conc. %	Norm Conc.
1	CO	1.483	3129	1123	22.090	Linear	0.000000e+00	0.000000e+00	1.416423e+002	0.000000e+00	0	0	9.302	9.302
2	CH4	1.575	2957	1715	57.180	Linear	0.000000e+00	0.000000e+00	5.171738e+001	0.000000e+00	0	0	24.078	24.078
3	CO2	2.004	630403	332617	158.214	Linear	0.000000e+00	0.000000e+00	3.984494e+003	0.000000e+00	0	0	66.621	66.621
4	Ethylene	0.000	0	0	0.000	Linear	0.000000e+00	0.000000e+00	0.000000e+00	0.000000e+00	0	0	0.000	0.000
5	Acetylene	0.000	0	0	0.000	Linear	0.000000e+00	0.000000e+00	0.000000e+00	0.000000e+00	0	0	0.000	0.000
6	Ethane	0.000	0	0	0.000	Linear	0.000000e+00	0.000000e+00	0.000000e+00	0.000000e+00	0	0	0.000	0.000

[Compound Results(Ch2)]
# of IDs	5
ID#	Name	R.Time	Area	Height	Conc.	Curve	3rd	2nd	1st	Constant	Area Ratio	Height Ratio	Conc. %	Norm Conc.
1	Hydrogen	0.000	0	0	0.000	Linear	0.000000e+00	0.000000e+00	0.000000e+00	0.000000e+00	0	0	0.000	0.000
2	Oxygen	0.000	0	0	0.000	Linear	0.000000e+00	0.000000e+00	0.000000e+00	0.000000e+00	0	0	0.000	0.000
3	Nitrogen	0.000	0	0	0.000	Linear	0.000000e+00	0.000000e+00	0.000000e+00	0.000000e+00	0	0	0.000	0.000
4	Methane	0.000	0	0	0.000	Linear	0.000000e+00	0.000000e+00	0.000000e+00	0.000000e+00	0	0	0.000	0.000
5	Carbon Monoxide	0.000	0	0	0.000	Linear	0.000000e+00	0.000000e+00	0.000000e+00	0.000000e+00	0	0	0.000	0.000

[Compound Results(Ch3)]
# of IDs	2
ID#	Name	R.Time	Area	Height	Conc.	Curve	3rd	2nd	1st	Constant	Area Ratio	Height Ratio	Conc. %	Norm Conc.
1	N2O	2.880	21741	5205	0.555	Linear	0.000000e+00	0.000000e+00	3.915173e+004	0.000000e+00	0	0	100.000	100.000
2	SF6	0.000	0	0	0.000	Linear	0.000000e+00	0.000000e+00	0.000000e+00	0.000000e+00	0	0	0.000	0.000

[Group Results(Ch1)]
# of Groups	0

[Group Results(Ch2)]
# of Groups	0

[Group Results(Ch3)]
# of Groups	0

[Chromatogram (Ch1)]
Interval(msec)	220
# of Points	1091
Start Time(min)	0.002
End Time(min)	3.998
R.Time (min)	Intensity
0.00167	-29
0.00533	-24
0.00900	-20
0.01267	-18
0.01633	-17
0.02000	-16
0.02367	-7
0.02733	-3
0.03100	-5
0.03467	-7
0.03833	-10
0.04200	-11
0.04567	-14
0.04933	-21
0.05300	-28
0.05667	-33
0.06033	-36
0.06400	-42
0.06767	-44
0.07133	-44
0.07500	-40
0.07867	-35
0.08233	-30
0.08600	-25
0.08967	-16
0.09333	-8
0.09700	4
0.10067	12
0.10433	16
0.10800	13
0.11167	10
0.11533	6
0.11900	4
0.12267	6
0.12633	7
0.13000	4
0.13367	-3
0.13733	-9
0.14100	-15
0.14467	-17
0.14833	-19
0.15200	-21
0.15567	-24
0.15933	-27
0.16300	-21
0.16667	-15
0.17033	-12
0.17400	-11
0.17767	-11
0.18133	-13
0.18500	-13
0.18867	-11
0.19233	-9
0.19600	-10
0.19967	-14
0.20333	-16
0.20700	-11
0.21067	-7
0.21433	-7
0.21800	-9
0.22167	-10
0.22533	-10
0.22900	-13
0.23267	-21
0.23633	-32
0.24000	-39
0.24367	-42
0.24733	-43
0.25100	-41
0.25467	-36
0.25833	-32
0.26200	-24
0.26567	-13
0.26933	-5
0.27300	-3
0.27667	3
0.28033	8
0.28400	10
0.28767	9
0.29133	2
0.29500	-5
0.29867	-11
0.30233	-13
0.30600	-13
0.30967	-9
0.31333	-8
0.31700	-10
0.32067	-10
0.32433	-10
0.32800	-7
0.33167	-7
0.33533	-12
0.33900	-15
0.34267	-13
0.34633	-14
0.35000	-19
0.35367	-25
0.35733	-29
0.36100	-28
0.36467	-25
0.36833	-20
0.37200	-15
0.37567	-14
0.37933	-14
0.38300	-11
0.38667	-6
0.39033	-3
0.39400	0
0.39767	4
0.40133	7
0.40500	8
0.40867	12
0.41233	19
0.41600	24
0.41967	25
0.42333	20
0.42700	13
0.43067	6
0.43433	1
0.43800	-4
0.44167	-8
0.44533	-10
0.44900	-8
0.45267	-2
0.45633	5
0.46000	9
0.46367	8
0.46733	4
0.47100	0
0.47467	-1
0.47833	2
0.48200	4
0.48567	2
0.48933	-1
0.49300	-4
0.49667	-8
0.50033	-12
0.50400	-12
0.50767	-10
0.51133	-6
0.51500	-3
0.51867	-0
0.52233	2
0.52600	8
0.52967	10
0.53333	7
0.53700	3
0.54067	3
0.54433	3
0.54800	1
0.55167	-3
0.55533	-5
0.55900	-5
0.56267	-4
0.56633	-3
0.57000	-0
0.57367	-0
0.57733	-2
0.58100	-7
0.58467	-9
0.58833	-9
0.59200	-3
0.59567	5
0.59933	10
0.60300	12
0.60667	14
0.61033	15
0.61400	15
0.61767	14
0.62133	9
0.62500	3
0.62867	4
0.63233	6
0.63600	5
0.63967	3
0.64333	3
0.64700	6
0.65067	12
0.65433	17
0.65800	20
0.66167	20
0.66533	19
0.66900	14
0.67267	9
0.67633	10
0.68000	13
0.68367	10
0.68733	4
0.69100	1
0.69467	-2
0.69833	-4
0.70200	-3
0.70567	1
0.70933	8
0.71300	16
0.71667	30
0.72033	38
0.72400	37
0.72767	27
0.73133	15
0.73500	7
0.73867	-0
0.74233	-8
0.74600	-17
0.74967	-23
0.75333	-27
0.75700	-31
0.76067	-35
0.76433	-32
0.76800	-26
0.77167	-17
0.77533	-9
0.77900	-1
0.78267	4
0.78633	8
0.79000	10
0.79367	7
0.79733	1
0.80100	-6
0.80467	-11
0.80833	-16
0.81200	-20
0.81567	-23
0.81933	-27
0.82300	-27
0.82667	-28
0.83033	-26
0.83400	-21
0.83767	-15
0.84133	-6
0.84500	-1
0.84867	-1
0.85233	2
0.85600	8
0.85967	14
0.86333	20
0.86700	22
0.87067	21
0.87433	19
0.87800	14
0.88167	10
0.88533	2
0.88900	-6
0.89267	-13
0.89633	-18
0.90000	-20
0.90367	-17
0.90733	-10
0.91100	-4
0.91467	1
0.91833	4
0.92200	2
0.92567	-1
0.92933	-4
0.93300	-5
0.93667	2
0.94033	17
0.94400	36
0.94767	49
0.95133	53
0.95500	48
0.95867	34
0.96233	17
0.96600	3
0.96967	-5
0.97333	-7
0.97700	-10
0.98067	-12
0.98433	-12
0.98800	-8
0.99167	-3
0.99533	1
0.99900	4
1.00267	6
1.00633	5
1.01000	2
1.01367	-2
1.01733	-5
1.02100	-8
1.02467	-9
1.02833	-11
1.03200	-12
1.03567	-11
1.03933	-9
1.04300	-6
1.04667	-5
1.05033	-3
1.05400	-1
1.05767	3
1.06133	9
1.06500	11
1.06867	13
1.07233	12
1.07600	10
1.07967	7
1.08333	4
1.08700	6
1.09067	8
1.09433	7
1.09800	1
1.10167	-5
1.10533	-7
1.10900	-3
1.11267	1
1.11633	5
1.12000	7
1.12367	5
1.12733	0
1.13100	-4
1.13467	-5
1.13833	-1
1.14200	4
1.14567	6
1.14933	3
1.15300	-1
1.15667	-2
1.16033	-1
1.16400	3
1.16767	5
1.17133	5
1.17500	2
1.17867	-4
1.18233	-9
1.18600	-12
1.18967	-13
1.19333	-14
1.19700	-13
1.20067	-5
1.20433	7
1.20800	21
1.21167	29
1.21533	30
1.21900	26
1.22267	17
1.22633	6
1.23000	-2
1.23367	-7
1.23733	-12
1.24100	-17
1.24467	-18
1.24833	-17
1.25200	-16
1.25567	-18
1.25933	-18
1.26300	-17
1.26667	-12
1.27033	-4
1.27400	3
1.27767	10
1.28133	13
1.28500	9
1.28867	1
1.29233	-3
1.29600	-3
1.29967	-1
1.30333	2
1.30700	6
1.31067	10
1.31433	14
1.31800	14
1.32167	10
1.32533	3
1.32900	-5
1.33267	-10
1.33633	-10
1.34000	-7
1.34367	-2
1.34733	1
1.35100	-1
1.35467	-12
1.35833	-24
1.36200	-30
1.36567	-28
1.36933	-22
1.37300	-17
1.37667	-18
1.38033	-22
1.38400	-29
1.38767	-33
1.39133	-32
1.39500	-28
1.39867	-25
1.40233	-22
1.40600	-19
1.40967	-14
1.41333	-8
1.41700	-2
1.42067	1
1.42433	8
1.42800	14
1.43167	15
1.43533	12
1.43900	9
1.44267	6
1.44633	18
1.45000	74
1.45367	203
1.45733	392
1.46100	601
1.46467	787
1.46833	931
1.47200	1033
1.47567	1103
1.47933	1143
1.48300	1145
1.48667	1101
1.49033	1007
1.49400	883
1.49767	753
1.50133	634
1.50500	534
1.50867	454
1.51233	388
1.51600	329
1.51967	275
1.52333	228
1.52700	191
1.53067	167
1.53433	153
1.53800	139
1.54167	125
1.54533	122
1.54900	137
1.55267	191
1.55633	313
1.56000	520
1.56367	823
1.56733	1189
1.57100	1538
1.57467	1746
1.57833	1726
1.58200	1507
1.58567	1199
1.58933	896
1.59300	647
1.59667	459
1.60033	326
1.60400	238
1.60767	179
1.61133	137
1.61500	108
1.61867	86
1.62233	68
1.62600	54
1.62967	42
1.63333	36
1.63700	29
1.64067	34
1.64433	31
1.64800	27
1.65167	24
1.65533	24
1.65900	25
1.66267	25
1.66633	25
1.67000	27
1.67367	28
1.67733	28
1.68100	28
1.68467	26
1.68833	22
1.69200	21
1.69567	26
1.69933	32
1.70300	32
1.70667	26
1.71033	17
1.71400	7
1.71767	3
1.72133	6
1.72500	15
1.72867	22
1.73233	26
1.73600	26
1.73967	24
1.74333	22
1.74700	21
1.75067	22
1.75433	23
1.75800	28
1.76167	34
1.76533	35
1.76900	31
1.77267	24
1.77633	19
1.78000	22
1.78367	34
1.78733	46
1.79100	52
1.79467	48
1.79833	39
1.80200	31
1.80567	27
1.80933	25
1.81300	23
1.81667	23
1.82033	24
1.82400	24
1.82767	24
1.83133	22
1.83500	19
1.83867	20
1.84233	23
1.84600	24
1.84967	28
1.85333	36
1.85700	42
1.86067	40
1.86433	34
1.86800	27
1.87167	23
1.87533	23
1.87900	27
1.88267	33
1.88633	38
1.89000	39
1.89367	36
1.89733	34
1.90100	30
1.90467	25
1.90833	21
1.91200	24
1.91567	30
1.91933	35
1.92300	41
1.92667	42
1.93033	40
1.93400	36
1.93767	32
1.94133	25
1.94500	22
1.94867	28
1.95233	39
1.95600	59
1.95967	84
1.96333	139
1.96700	347
1.97067	1162
1.97433	3837
1.97800	11056
1.98167	27224
1.98533	57636
1.98900	105948
1.99267	170310
1.99633	240652
2.00000	300307
2.00367	332682
2.00733	329776
2.01100	295804
2.01467	243859
2.01833	188274
2.02200	138955
2.02567	100062
2.02933	71590
2.03300	51589
2.03667	37727
2.04033	28062
2.04400	21209
2.04767	16248
2.05133	12601
2.05500	9891
2.05867	7866
2.06233	6351
2.06600	5213
2.06967	4354
2.07333	3703
2.07700	3200
2.08067	2804
2.08433	2496
2.08800	2250
2.09167	2048
2.09533	1878
2.09900	1728
2.10267	1595
2.10633	1479
2.11000	1385
2.11367	1311
2.11733	1248
2.12100	1189
2.12467	1136
2.12833	1083
2.13200	1027
2.13567	980
2.13933	943
2.14300	910
2.14667	876
2.15033	844
2.15400	812
2.15767	775
2.16133	750
2.16500	730
2.16867	715
2.17233	695
2.17600	676
2.17967	662
2.18333	648
2.18700	632
2.19067	616
2.19433	601
2.19800	581
2.20167	569
2.20533	563
2.20900	551
2.21267	536
2.21633	521
2.22000	508
2.22367	499
2.22733	489
2.23100	477
2.23467	468
2.23833	464
2.24200	462
2.24567	452
2.24933	444
2.25300	436
2.25667	431
2.26033	427
2.26400	423
2.26767	419
2.27133	415
2.27500	407
2.27867	400
2.28233	395
2.28600	387
2.28967	380
2.29333	378
2.29700	380
2.30067	381
2.30433	381
2.30800	379
2.31167	376
2.31533	370
2.31900	362
2.32267	351
2.32633	339
2.33000	331
2.33367	329
2.33733	330
2.34100	330
2.34467	331
2.34833	332
2.35200	329
2.35567	324
2.35933	315
2.36300	304
2.36667	294
2.37033	285
2.37400	288
2.37767	294
2.38133	302
2.38500	310
2.38867	315
2.39233	317
2.39600	317
2.39967	313
2.40333	306
2.40700	302
2.41067	299
2.41433	296
2.41800	296
2.42167	301
2.42533	305
2.42900	306
2.43267	305
2.43633	302
2.44000	301
2.44367	301
2.44733	301
2.45100	303
2.45467	307
2.45833	312
2.46200	318
2.46567	322
2.46933	322
2.47300	319
2.47667	317
2.48033	314
2.48400	313
2.48767	313
2.49133	312
2.49500	313
2.49867	314
2.50233	313
2.50600	314
2.50967	316
2.51333	318
2.51700	317
2.52067	316
2.52433	316
2.52800	323
2.53167	330
2.53533	330
2.53900	325
2.54267	316
2.54633	309
2.55000	302
2.55367	297
2.55733	294
2.56100	295
2.56467	294
2.56833	288
2.57200	283
2.57567	285
2.57933	287
2.58300	288
2.58667	295
2.59033	305
2.59400	308
2.59767	302
2.60133	302
2.60500	309
2.60867	315
2.61233	318
2.61600	318
2.61967	319
2.62333	320
2.62700	321
2.63067	322
2.63433	321
2.63800	324
2.64167	330
2.64533	334
2.64900	337
2.65267	339
2.65633	342
2.66000	341
2.66367	344
2.66733	350
2.67100	356
2.67467	355
2.67833	351
2.68200	345
2.68567	342
2.68933	346
2.69300	351
2.69667	355
2.70033	359
2.70400	363
2.70767	366
2.71133	362
2.71500	358
2.71867	356
2.72233	355
2.72600	351
2.72967	348
2.73333	348
2.73700	353
2.74067	365
2.74433	370
2.74800	367
2.75167	366
2.75533	364
2.75900	360
2.76267	356
2.76633	354
2.77000	353
2.77367	351
2.77733	351
2.78100	351
2.78467	353
2.78833	357
2.79200	362
2.79567	368
2.79933	372
2.80300	374
2.80667	379
2.81033	387
2.81400	401
2.81767	416
2.82133	425
2.82500	423
2.82867	414
2.83233	403
2.83600	395
2.83967	393
2.84333	397
2.84700	404
2.85067	405
2.85433	398
2.85800	390
2.86167	389
2.86533	393
2.86900	397
2.87267	397
2.87633	392
2.88000	386
2.88367	382
2.88733	381
2.89100	382
2.89467	385
2.89833	389
2.90200	390
2.90567	388
2.90933	384
2.91300	382
2.91667	387
2.92033	398
2.92400	408
2.92767	417
2.93133	427
2.93500	436
2.93867	440
2.94233	440
2.94600	433
2.94967	420
2.95333	409
2.95700	403
2.96067	406
2.96433	410
2.96800	411
2.97167	412
2.97533	414
2.97900	419
2.98267	425
2.98633	431
2.99000	435
2.99367	439
2.99733	440
3.00100	441
3.00467	443
3.00833	447
3.01200	453
3.01567	459
3.01933	461
3.02300	460
3.02667	457
3.03033	457
3.03400	458
3.03767	450
3.04133	441
3.04500	440
3.04867	440
3.05233	444
3.05600	446
3.05967	447
3.06333	446
3.06700	448
3.07067	449
3.07433	453
3.07800	460
3.08167	466
3.08533	464
3.08900	457
3.09267	454
3.09633	456
3.10000	458
3.10367	452
3.10733	447
3.11100	442
3.11467	438
3.11833	437
3.12200	441
3.12567	449
3.12933	454
3.13300	456
3.13667	458
3.14033	459
3.14400	458
3.14767	455
3.15133	452
3.15500	453
3.15867	454
3.16233	456
3.16600	460
3.16967	458
3.17333	458
3.17700	463
3.18067	473
3.18433	481
3.18800	483
3.19167	481
3.19533	481
3.19900	478
3.20267	474
3.20633	470
3.21000	471
3.21367	473
3.21733	471
3.22100	469
3.22467	466
3.22833	466
3.23200	465
3.23567	460
3.23933	456
3.24300	455
3.24667	457
3.25033	458
3.25400	459
3.25767	459
3.26133	459
3.26500	462
3.26867	463
3.27233	458
3.27600	455
3.27967	453
3.28333	453
3.28700	454
3.29067	461
3.29433	473
3.29800	483
3.30167	488
3.30533	482
3.30900	472
3.31267	461
3.31633	453
3.32000	449
3.32367	448
3.32733	452
3.33100	458
3.33467	463
3.33833	466
3.34200	467
3.34567	463
3.34933	460
3.35300	460
3.35667	464
3.36033	470
3.36400	471
3.36767	466
3.37133	458
3.37500	452
3.37867	452
3.38233	460
3.38600	472
3.38967	485
3.39333	493
3.39700	491
3.40067	483
3.40433	470
3.40800	454
3.41167	440
3.41533	432
3.41900	429
3.42267	429
3.42633	433
3.43000	439
3.43367	449
3.43733	459
3.44100	464
3.44467	465
3.44833	464
3.45200	461
3.45567	454
3.45933	447
3.46300	442
3.46667	443
3.47033	448
3.47400	453
3.47767	455
3.48133	449
3.48500	437
3.48867	425
3.49233	418
3.49600	415
3.49967	418
3.50333	424
3.50700	432
3.51067	442
3.51433	453
3.51800	460
3.52167	463
3.52533	463
3.52900	459
3.53267	451
3.53633	445
3.54000	446
3.54367	454
3.54733	463
3.55100	465
3.55467	466
3.55833	464
3.56200	464
3.56567	467
3.56933	467
3.57300	458
3.57667	448
3.58033	443
3.58400	440
3.58767	436
3.59133	433
3.59500	430
3.59867	425
3.60233	421
3.60600	417
3.60967	415
3.61333	415
3.61700	415
3.62067	418
3.62433	424
3.62800	426
3.63167	426
3.63533	424
3.63900	421
3.64267	423
3.64633	425
3.65000	429
3.65367	435
3.65733	437
3.66100	437
3.66467	434
3.66833	427
3.67200	424
3.67567	425
3.67933	430
3.68300	432
3.68667	435
3.69033	437
3.69400	439
3.69767	440
3.70133	442
3.70500	446
3.70867	452
3.71233	461
3.71600	463
3.71967	459
3.72333	451
3.72700	441
3.73067	432
3.73433	426
3.73800	425
3.74167	422
3.74533	421
3.74900	422
3.75267	423
3.75633	420
3.76000	416
3.76367	414
3.76733	411
3.77100	406
3.77467	401
3.77833	398
3.78200	395
3.78567	398
3.78933	404
3.79300	413
3.79667	424
3.80033	431
3.80400	434
3.80767	431
3.81133	427
3.81500	422
3.81867	418
3.82233	414
3.82600	406
3.82967	399
3.83333	397
3.83700	400
3.84067	404
3.84433	405
3.84800	407
3.85167	415
3.85533	420
3.85900	422
3.86267	426
3.86633	433
3.87000	436
3.87367	431
3.87733	419
3.88100	407
3.88467	399
3.88833	394
3.89200	394
3.89567	400
3.89933	408
3.90300	416
3.90667	420
3.91033	419
3.91400	415
3.91767	408
3.92133	399
3.92500	394
3.92867	391
3.93233	387
3.93600	384
3.93967	381
3.94333	382
3.94700	384
3.95067	388
3.95433	394
3.95800	402
3.96167	403
3.96533	401
3.96900	399
3.97267	399
3.97633	402
3.98000	404
3.98367	406
3.98733	407
3.99100	409
3.99467	409
3.99833	409

[Chromatogram (Ch2)]
Interval(msec)	220
# of Points	1091
Start Time(min)	0.002
End Time(min)	3.998
R.Time (min)	Intensity
0.00167	1
0.00533	1
0.00900	1
0.01267	1
0.01633	2
0.02000	2
0.02367	3
0.02733	3
0.03100	3
0.03467	3
0.03833	3
0.04200	3
0.04567	3
0.04933	3
0.05300	3
0.05667	3
0.06033	3
0.06400	3
0.06767	3
0.07133	3
0.07500	3
0.07867	4
0.08233	4
0.08600	5
0.08967	5
0.09333	5
0.09700	6
0.10067	7
0.10433	7
0.10800	8
0.11167	9
0.11533	9
0.11900	10
0.12267	11
0.12633	12
0.13000	12
0.13367	13
0.13733	13
0.14100	13
0.14467	13
0.14833	13
0.15200	13
0.15567	12
0.15933	12
0.16300	11
0.16667	11
0.17033	10
0.17400	10
0.17767	9
0.18133	9
0.18500	9
0.18867	9
0.19233	9
0.19600	9
0.19967	9
0.20333	9
0.20700	8
0.21067	8
0.21433	8
0.21800	8
0.22167	8
0.22533	8
0.22900	8
0.23267	8
0.23633	8
0.24000	8
0.24367	7
0.24733	7
0.25100	7
0.25467	6
0.25833	5
0.26200	5
0.26567	5
0.26933	4
0.27300	4
0.27667	3
0.28033	3
0.28400	2
0.28767	2
0.29133	1
0.29500	1
0.29867	1
0.30233	1
0.30600	1
0.30967	1
0.31333	1
0.31700	1
0.32067	2
0.32433	2
0.32800	2
0.33167	2
0.33533	2
0.33900	2
0.34267	2
0.34633	2
0.35000	2
0.35367	2
0.35733	2
0.36100	2
0.36467	2
0.36833	3
0.37200	3
0.37567	3
0.37933	3
0.38300	4
0.38667	4
0.39033	4
0.39400	4
0.39767	4
0.40133	4
0.40500	4
0.40867	4
0.41233	5
0.41600	5
0.41967	5
0.42333	6
0.42700	6
0.43067	6
0.43433	6
0.43800	6
0.44167	6
0.44533	6
0.44900	5
0.45267	5
0.45633	5
0.46000	5
0.46367	5
0.46733	5
0.47100	5
0.47467	5
0.47833	5
0.48200	5
0.48567	4
0.48933	4
0.49300	3
0.49667	3
0.50033	2
0.50400	2
0.50767	2
0.51133	1
0.51500	1
0.51867	1
0.52233	1
0.52600	1
0.52967	1
0.53333	1
0.53700	1
0.54067	1
0.54433	1
0.54800	1
0.55167	2
0.55533	2
0.55900	2
0.56267	3
0.56633	3
0.57000	3
0.57367	3
0.57733	2
0.58100	2
0.58467	2
0.58833	2
0.59200	2
0.59567	2
0.59933	3
0.60300	3
0.60667	3
0.61033	3
0.61400	3
0.61767	3
0.62133	3
0.62500	3
0.62867	4
0.63233	4
0.63600	4
0.63967	4
0.64333	4
0.64700	4
0.65067	4
0.65433	5
0.65800	5
0.66167	5
0.66533	5
0.66900	6
0.67267	6
0.67633	7
0.68000	7
0.68367	8
0.68733	8
0.69100	9
0.69467	9
0.69833	10
0.70200	10
0.70567	10
0.70933	9
0.71300	9
0.71667	9
0.72033	8
0.72400	8
0.72767	8
0.73133	8
0.73500	8
0.73867	8
0.74233	8
0.74600	8
0.74967	7
0.75333	7
0.75700	7
0.76067	7
0.76433	6
0.76800	6
0.77167	6
0.77533	5
0.77900	5
0.78267	5
0.78633	5
0.79000	4
0.79367	4
0.79733	3
0.80100	3
0.80467	3
0.80833	3
0.81200	3
0.81567	3
0.81933	3
0.82300	3
0.82667	3
0.83033	3
0.83400	2
0.83767	2
0.84133	2
0.84500	2
0.84867	2
0.85233	2
0.85600	2
0.85967	2
0.86333	2
0.86700	2
0.87067	2
0.87433	2
0.87800	2
0.88167	2
0.88533	2
0.88900	2
0.89267	2
0.89633	2
0.90000	2
0.90367	3
0.90733	3
0.91100	3
0.91467	3
0.91833	4
0.92200	4
0.92567	4
0.92933	4
0.93300	5
0.93667	4
0.94033	4
0.94400	4
0.94767	3
0.95133	3
0.95500	3
0.95867	3
0.96233	2
0.96600	2
0.96967	2
0.97333	2
0.97700	2
0.98067	2
0.98433	2
0.98800	2
0.99167	2
0.99533	2
0.99900	2
1.00267	2
1.00633	2
1.01000	2
1.01367	2
1.01733	2
1.02100	2
1.02467	2
1.02833	3
1.03200	3
1.03567	3
1.03933	4
1.04300	4
1.04667	4
1.05033	4
1.05400	4
1.05767	4
1.06133	4
1.06500	4
1.06867	4
1.07233	4
1.07600	4
1.07967	4
1.08333	4
1.08700	4
1.09067	4
1.09433	4
1.09800	4
1.10167	4
1.10533	4
1.10900	4
1.11267	4
1.11633	4
1.12000	4
1.12367	5
1.12733	5
1.13100	6
1.13467	6
1.13833	6
1.14200	7
1.14567	7
1.14933	7
1.15300	6
1.15667	6
1.16033	6
1.16400	6
1.16767	6
1.17133	6
1.17500	6
1.17867	6
1.18233	5
1.18600	5
1.18967	5
1.19333	4
1.19700	3
1.20067	3
1.20433	2
1.20800	2
1.21167	2
1.21533	1
1.21900	1
1.22267	1
1.22633	1
1.23000	1
1.23367	1
1.23733	1
1.24100	2
1.24467	2
1.24833	2
1.25200	2
1.25567	2
1.25933	2
1.26300	2
1.26667	2
1.27033	2
1.27400	3
1.27767	3
1.28133	3
1.28500	3
1.28867	3
1.29233	3
1.29600	3
1.29967	3
1.30333	3
1.30700	3
1.31067	3
1.31433	3
1.31800	3
1.32167	3
1.32533	4
1.32900	4
1.33267	4
1.33633	5
1.34000	5
1.34367	5
1.34733	5
1.35100	5
1.35467	6
1.35833	6
1.36200	6
1.36567	6
1.36933	6
1.37300	6
1.37667	6
1.38033	5
1.38400	5
1.38767	5
1.39133	4
1.39500	4
1.39867	3
1.40233	3
1.40600	3
1.40967	2
1.41333	2
1.41700	2
1.42067	2
1.42433	2
1.42800	1
1.43167	1
1.43533	1
1.43900	1
1.44267	1
1.44633	1
1.45000	1
1.45367	1
1.45733	2
1.46100	2
1.46467	3
1.46833	3
1.47200	3
1.47567	4
1.47933	4
1.48300	4
1.48667	4
1.49033	4
1.49400	4
1.49767	4
1.50133	4
1.50500	4
1.50867	4
1.51233	4
1.51600	4
1.51967	3
1.52333	3
1.52700	3
1.53067	3
1.53433	3
1.53800	3
1.54167	3
1.54533	3
1.54900	3
1.55267	3
1.55633	3
1.56000	2
1.56367	2
1.56733	2
1.57100	1
1.57467	1
1.57833	1
1.58200	1
1.58567	1
1.58933	1
1.59300	1
1.59667	1
1.60033	0
1.60400	-1
1.60767	-2
1.61133	-4
1.61500	-6
1.61867	-8
1.62233	-11
1.62600	-14
1.62967	-17
1.63333	-20
1.63700	-24
1.64067	-27
1.64433	-31
1.64800	-35
1.65167	-39
1.65533	-42
1.65900	-46
1.66267	-50
1.66633	-53
1.67000	-57
1.67367	-61
1.67733	-66
1.68100	-70
1.68467	-75
1.68833	-80
1.69200	-84
1.69567	-88
1.69933	-91
1.70300	-94
1.70667	-97
1.71033	-99
1.71400	-100
1.71767	-101
1.72133	-102
1.72500	-103
1.72867	-103
1.73233	-104
1.73600	-104
1.73967	-105
1.74333	-106
1.74700	-106
1.75067	-107
1.75433	-107
1.75800	-107
1.76167	-107
1.76533	-107
1.76900	-107
1.77267	-107
1.77633	-107
1.78000	-107
1.78367	-108
1.78733	-109
1.79100	-110
1.79467	-110
1.79833	-111
1.80200	-111
1.80567	-112
1.80933	-112
1.81300	-112
1.81667	-112
1.82033	-112
1.82400	-111
1.82767	-111
1.83133	-111
1.83500	-110
1.83867	-111
1.84233	-111
1.84600	-111
1.84967	-112
1.85333	-112
1.85700	-112
1.86067	-112
1.86433	-112
1.86800	-112
1.87167	-112
1.87533	-111
1.87900	-111
1.88267	-111
1.88633	-111
1.89000	-111
1.89367	-111
1.89733	-110
1.90100	-110
1.90467	-110
1.90833	-110
1.91200	-109
1.91567	-109
1.91933	-109
1.92300	-109
1.92667	-109
1.93033	-109
1.93400	-109
1.93767	-108
1.94133	-108
1.94500	-107
1.94867	-107
1.95233	-106
1.95600	-106
1.95967	-106
1.96333	-106
1.96700	-106
1.97067	-106
1.97433	-106
1.97800	-105
1.98167	-104
1.98533	-104
1.98900	-103
1.99267	-103
1.99633	-103
2.00000	-103
2.00367	-102
2.00733	-102
2.01100	-102
2.01467	-102
2.01833	-102
2.02200	-101
2.02567	-101
2.02933	-100
2.03300	-100
2.03667	-100
2.04033	-99
2.04400	-99
2.04767	-99
2.05133	-98
2.05500	-98
2.05867	-98
2.06233	-98
2.06600	-98
2.06967	-98
2.07333	-99
2.07700	-99
2.08067	-99
2.08433	-99
2.08800	-99
2.09167	-99
2.09533	-99
2.09900	-99
2.10267	-99
2.10633	-99
2.11000	-98
2.11367	-98
2.11733	-98
2.12100	-97
2.12467	-96
2.12833	-95
2.13200	-95
2.13567	-95
2.13933	-95
2.14300	-94
2.14667	-94
2.15033	-94
2.15400	-94
2.15767	-93
2.16133	-92
2.16500	-91
2.16867	-91
2.17233	-90
2.17600	-90
2.17967	-89
2.18333	-89
2.18700	-88
2.19067	-88
2.19433	-88
2.19800	-88
2.20167	-87
2.20533	-87
2.20900	-86
2.21267	-86
2.21633	-85
2.22000	-84
2.22367	-84
2.22733	-84
2.23100	-83
2.23467	-83
2.23833	-83
2.24200	-83
2.24567	-82
2.24933	-82
2.25300	-82
2.25667	-82
2.26033	-83
2.26400	-83
2.26767	-83
2.27133	-83
2.27500	-82
2.27867	-81
2.28233	-80
2.28600	-79
2.28967	-79
2.29333	-79
2.29700	-79
2.30067	-80
2.30433	-81
2.30800	-82
2.31167	-83
2.31533	-83
2.31900	-82
2.32267	-82
2.32633	-81
2.33000	-80
2.33367	-78
2.33733	-77
2.34100	-76
2.34467	-75
2.34833	-74
2.35200	-73
2.35567	-71
2.35933	-69
2.36300	-68
2.36667	-66
2.37033	-63
2.37400	-61
2.37767	-58
2.38133	-56
2.38500	-52
2.38867	-49
2.39233	-45
2.39600	-41
2.39967	-36
2.40333	-32
2.40700	-28
2.41067	-24
2.41433	-21
2.41800	-18
2.42167	-16
2.42533	-14
2.42900	-12
2.43267	-11
2.43633	-9
2.44000	-8
2.44367	-7
2.44733	-6
2.45100	-4
2.45467	-3
2.45833	-2
2.46200	-0
2.46567	1
2.46933	2
2.47300	3
2.47667	4
2.48033	5
2.48400	6
2.48767	7
2.49133	8
2.49500	9
2.49867	10
2.50233	10
2.50600	11
2.50967	12
2.51333	14
2.51700	15
2.52067	16
2.52433	16
2.52800	17
2.53167	17
2.53533	18
2.53900	18
2.54267	19
2.54633	19
2.55000	20
2.55367	21
2.55733	21
2.56100	21
2.56467	22
2.56833	22
2.57200	21
2.57567	21
2.57933	21
2.58300	21
2.58667	21
2.59033	22
2.59400	22
2.59767	22
2.60133	23
2.60500	23
2.60867	23
2.61233	23
2.61600	24
2.61967	24
2.62333	24
2.62700	24
2.63067	25
2.63433	25
2.63800	25
2.64167	25
2.64533	25
2.64900	25
2.65267	26
2.65633	26
2.66000	26
2.66367	27
2.66733	27
2.67100	28
2.67467	28
2.67833	28
2.68200	28
2.68567	28
2.68933	28
2.69300	28
2.69667	28
2.70033	28
2.70400	28
2.70767	28
2.71133	28
2.71500	28
2.71867	28
2.72233	28
2.72600	28
2.72967	29
2.73333	29
2.73700	30
2.74067	30
2.74433	30
2.74800	31
2.75167	31
2.75533	32
2.75900	32
2.76267	33
2.76633	33
2.77000	34
2.77367	34
2.77733	34
2.78100	33
2.78467	33
2.78833	32
2.79200	32
2.79567	31
2.79933	31
2.80300	31
2.80667	31
2.81033	31
2.81400	31
2.81767	31
2.82133	31
2.82500	32
2.82867	32
2.83233	32
2.83600	32
2.83967	31
2.84333	30
2.84700	28
2.85067	23
2.85433	17
2.85800	7
2.86167	-6
2.86533	-22
2.86900	-42
2.87267	-67
2.87633	-96
2.88000	-128
2.88367	-165
2.88733	-205
2.89100	-249
2.89467	-295
2.89833	-344
2.90200	-395
2.90567	-447
2.90933	-501
2.91300	-555
2.91667	-609
2.92033	-663
2.92400	-716
2.92767	-768
2.93133	-819
2.93500	-870
2.93867	-922
2.94233	-980
2.94600	-1038
2.94967	-1087
2.95333	-1115
2.95700	-1119
2.96067	-1096
2.96433	-1050
2.96800	-988
2.97167	-914
2.97533	-834
2.97900	-751
2.98267	-671
2.98633	-593
2.99000	-521
2.99367	-454
2.99733	-394
3.00100	-339
3.00467	-291
3.00833	-249
3.01200	-212
3.01567	-179
3.01933	-151
3.02300	-126
3.02667	-105
3.03033	-87
3.03400	-71
3.03767	-58
3.04133	-46
3.04500	-36
3.04867	-28
3.05233	-20
3.05600	-14
3.05967	-9
3.06333	-5
3.06700	-1
3.07067	1
3.07433	4
3.07800	6
3.08167	7
3.08533	9
3.08900	10
3.09267	11
3.09633	12
3.10000	13
3.10367	14
3.10733	15
3.11100	16
3.11467	16
3.11833	17
3.12200	18
3.12567	19
3.12933	19
3.13300	20
3.13667	20
3.14033	21
3.14400	21
3.14767	21
3.15133	21
3.15500	22
3.15867	22
3.16233	22
3.16600	22
3.16967	22
3.17333	23
3.17700	23
3.18067	23
3.18433	23
3.18800	23
3.19167	24
3.19533	24
3.19900	24
3.20267	25
3.20633	25
3.21000	25
3.21367	25
3.21733	25
3.22100	25
3.22467	26
3.22833	26
3.23200	26
3.23567	27
3.23933	27
3.24300	28
3.24667	28
3.25033	28
3.25400	28
3.25767	28
3.26133	28
3.26500	29
3.26867	29
3.27233	29
3.27600	30
3.27967	30
3.28333	30
3.28700	30
3.29067	30
3.29433	31
3.29800	31
3.30167	31
3.30533	31
3.30900	31
3.31267	31
3.31633	31
3.32000	32
3.32367	32
3.32733	32
3.33100	32
3.33467	32
3.33833	33
3.34200	33
3.34567	33
3.34933	34
3.35300	34
3.35667	34
3.36033	34
3.36400	34
3.36767	35
3.37133	35
3.37500	35
3.37867	35
3.38233	35
3.38600	35
3.38967	35
3.39333	34
3.39700	34
3.40067	34
3.40433	34
3.40800	34
3.41167	34
3.41533	34
3.41900	33
3.42267	33
3.42633	33
3.43000	33
3.43367	33
3.43733	33
3.44100	33
3.44467	33
3.44833	33
3.45200	33
3.45567	33
3.45933	33
3.46300	32
3.46667	32
3.47033	32
3.47400	32
3.47767	32
3.48133	32
3.48500	32
3.48867	32
3.49233	32
3.49600	32
3.49967	32
3.50333	31
3.50700	31
3.51067	31
3.51433	31
3.51800	31
3.52167	31
3.52533	31
3.52900	31
3.53267	31
3.53633	31
3.54000	32
3.54367	32
3.54733	32
3.55100	32
3.55467	32
3.55833	33
3.56200	33
3.56567	33
3.56933	33
3.57300	33
3.57667	33
3.58033	33
3.58400	33
3.58767	33
3.59133	34
3.59500	34
3.59867	34
3.60233	34
3.60600	34
3.60967	34
3.61333	34
3.61700	34
3.62067	34
3.62433	34
3.62800	34
3.63167	34
3.63533	33
3.63900	33
3.64267	33
3.64633	33
3.65000	33
3.65367	33
3.65733	33
3.66100	33
3.66467	33
3.66833	33
3.67200	34
3.67567	34
3.67933	34
3.68300	34
3.68667	34
3.69033	34
3.69400	34
3.69767	34
3.70133	34
3.70500	34
3.70867	34
3.71233	34
3.71600	34
3.71967	33
3.72333	33
3.72700	33
3.73067	33
3.73433	33
3.73800	33
3.74167	33
3.74533	33
3.74900	32
3.75267	32
3.75633	32
3.76000	32
3.76367	32
3.76733	32
3.77100	32
3.77467	32
3.77833	32
3.78200	32
3.78567	32
3.78933	32
3.79300	32
3.79667	32
3.80033	31
3.80400	31
3.80767	31
3.81133	30
3.81500	30
3.81867	30
3.82233	30
3.82600	30
3.82967	30
3.83333	30
3.83700	30
3.84067	30
3.84433	30
3.84800	29
3.85167	29
3.85533	29
3.85900	29
3.86267	30
3.86633	30
3.87000	30
3.87367	30
3.87733	30
3.88100	31
3.88467	31
3.88833	32
3.89200	32
3.89567	33
3.89933	33
3.90300	33
3.90667	33
3.91033	33
3.91400	33
3.91767	33
3.92133	33
3.92500	32
3.92867	32
3.93233	32
3.93600	32
3.93967	32
3.94333	32
3.94700	32
3.95067	32
3.95433	32
3.95800	32
3.96167	32
3.96533	31
3.96900	31
3.97267	31
3.97633	31
3.98000	31
3.98367	31
3.98733	31
3.99100	31
3.99467	31
3.99833	31

[Chromatogram (Ch3)]
Interval(msec)	220
# of Points	1091
Start Time(min)	0.002
End Time(min)	3.998
R.Time (min)	Intensity
0.00167	-1
0.00533	-3
0.00900	-3
0.01267	-3
0.01633	-1
0.02000	1
0.02367	1
0.02733	3
0.03100	4
0.03467	4
0.03833	5
0.04200	3
0.04567	3
0.04933	4
0.05300	5
0.05667	5
0.06033	4
0.06400	3
0.06767	2
0.07133	3
0.07500	4
0.07867	4
0.08233	1
0.08600	-3
0.08967	-4
0.09333	-3
0.09700	-0
0.10067	1
0.10433	1
0.10800	1
0.11167	-0
0.11533	-0
0.11900	-0
0.12267	-0
0.12633	-1
0.13000	-3
0.13367	-2
0.13733	0
0.14100	-0
0.14467	1
0.14833	4
0.15200	4
0.15567	1
0.15933	-2
0.16300	-4
0.16667	-4
0.17033	-4
0.17400	-3
0.17767	-0
0.18133	-0
0.18500	-3
0.18867	-4
0.19233	-3
0.19600	-4
0.19967	-5
0.20333	-5
0.20700	-4
0.21067	-1
0.21433	-0
0.21800	-2
0.22167	-4
0.22533	-2
0.22900	-1
0.23267	-2
0.23633	-2
0.24000	-2
0.24367	0
0.24733	3
0.25100	2
0.25467	2
0.25833	1
0.26200	-1
0.26567	-3
0.26933	-6
0.27300	-8
0.27667	-8
0.28033	-8
0.28400	-7
0.28767	-6
0.29133	-6
0.29500	-4
0.29867	-1
0.30233	1
0.30600	2
0.30967	1
0.31333	-3
0.31700	-4
0.32067	-5
0.32433	-7
0.32800	-8
0.33167	-5
0.33533	-3
0.33900	-2
0.34267	-2
0.34633	-4
0.35000	-5
0.35367	-6
0.35733	-7
0.36100	-6
0.36467	-6
0.36833	-7
0.37200	-9
0.37567	-9
0.37933	-11
0.38300	-9
0.38667	-5
0.39033	-1
0.39400	-0
0.39767	-1
0.40133	-3
0.40500	-4
0.40867	-4
0.41233	-4
0.41600	-3
0.41967	-1
0.42333	1
0.42700	1
0.43067	0
0.43433	-0
0.43800	-1
0.44167	-2
0.44533	-3
0.44900	-6
0.45267	-8
0.45633	-8
0.46000	-8
0.46367	-9
0.46733	-8
0.47100	-8
0.47467	-9
0.47833	-8
0.48200	-7
0.48567	-7
0.48933	-4
0.49300	-2
0.49667	-0
0.50033	0
0.50400	-0
0.50767	-1
0.51133	-3
0.51500	-5
0.51867	-6
0.52233	-8
0.52600	-8
0.52967	-6
0.53333	-5
0.53700	-5
0.54067	-3
0.54433	-5
0.54800	-10
0.55167	-11
0.55533	-8
0.55900	-7
0.56267	-5
0.56633	-2
0.57000	-1
0.57367	0
0.57733	-0
0.58100	1
0.58467	-0
0.58833	-3
0.59200	-1
0.59567	1
0.59933	1
0.60300	0
0.60667	1
0.61033	3
0.61400	3
0.61767	3
0.62133	3
0.62500	2
0.62867	1
0.63233	1
0.63600	2
0.63967	3
0.64333	3
0.64700	3
0.65067	3
0.65433	4
0.65800	3
0.66167	0
0.66533	-3
0.66900	-5
0.67267	-7
0.67633	-8
0.68000	-7
0.68367	-7
0.68733	-7
0.69100	-7
0.69467	-6
0.69833	-5
0.70200	-5
0.70567	-7
0.70933	-8
0.71300	-10
0.71667	-10
0.72033	-9
0.72400	-6
0.72767	-3
0.73133	-4
0.73500	-3
0.73867	-2
0.74233	-2
0.74600	-2
0.74967	-1
0.75333	-1
0.75700	-1
0.76067	-3
0.76433	-4
0.76800	-3
0.77167	-2
0.77533	-3
0.77900	-6
0.78267	-7
0.78633	-7
0.79000	-6
0.79367	-6
0.79733	-7
0.80100	-8
0.80467	-7
0.80833	-6
0.81200	-5
0.81567	-5
0.81933	-7
0.82300	-10
0.82667	-13
0.83033	-13
0.83400	-12
0.83767	-10
0.84133	-8
0.84500	-7
0.84867	-8
0.85233	-9
0.85600	-10
0.85967	-9
0.86333	-6
0.86700	-4
0.87067	-5
0.87433	-4
0.87800	-4
0.88167	-6
0.88533	-6
0.88900	-5
0.89267	-5
0.89633	-4
0.90000	-4
0.90367	-6
0.90733	-8
0.91100	-9
0.91467	-7
0.91833	-5
0.92200	-3
0.92567	-2
0.92933	-2
0.93300	-6
0.93667	-8
0.94033	-8
0.94400	-7
0.94767	-8
0.95133	-7
0.95500	-8
0.95867	-8
0.96233	-7
0.96600	-6
0.96967	-6
0.97333	-5
0.97700	-3
0.98067	-4
0.98433	-6
0.98800	-7
0.99167	-6
0.99533	-8
0.99900	-9
1.00267	-8
1.00633	-9
1.01000	-9
1.01367	-7
1.01733	-5
1.02100	-4
1.02467	-3
1.02833	-4
1.03200	-5
1.03567	-4
1.03933	-4
1.04300	-5
1.04667	-6
1.05033	-7
1.05400	-6
1.05767	-5
1.06133	-3
1.06500	-3
1.06867	-3
1.07233	-3
1.07600	-4
1.07967	-5
1.08333	-6
1.08700	-6
1.09067	-6
1.09433	-4
1.09800	-2
1.10167	-1
1.10533	-2
1.10900	-4
1.11267	-4
1.11633	-5
1.12000	-5
1.12367	-6
1.12733	-6
1.13100	-6
1.13467	-6
1.13833	-5
1.14200	-4
1.14567	-3
1.14933	-3
1.15300	-2
1.15667	2
1.16033	4
1.16400	3
1.16767	1
1.17133	2
1.17500	4
1.17867	3
1.18233	1
1.18600	-0
1.18967	-1
1.19333	-1
1.19700	-1
1.20067	-3
1.20433	-3
1.20800	-1
1.21167	0
1.21533	-1
1.21900	-3
1.22267	-5
1.22633	-5
1.23000	-6
1.23367	-6
1.23733	-5
1.24100	-3
1.24467	1
1.24833	1
1.25200	-0
1.25567	-1
1.25933	-2
1.26300	-4
1.26667	-7
1.27033	-10
1.27400	-10
1.27767	-8
1.28133	-6
1.28500	-6
1.28867	-6
1.29233	-6
1.29600	-7
1.29967	-9
1.30333	-10
1.30700	-9
1.31067	-5
1.31433	-3
1.31800	-2
1.32167	-2
1.32533	-4
1.32900	-4
1.33267	-4
1.33633	-3
1.34000	-3
1.34367	-1
1.34733	-2
1.35100	-4
1.35467	-5
1.35833	-7
1.36200	-5
1.36567	-2
1.36933	2
1.37300	4
1.37667	6
1.38033	7
1.38400	6
1.38767	5
1.39133	3
1.39500	3
1.39867	1
1.40233	-1
1.40600	-1
1.40967	1
1.41333	2
1.41700	3
1.42067	3
1.42433	5
1.42800	6
1.43167	5
1.43533	3
1.43900	3
1.44267	4
1.44633	5
1.45000	5
1.45367	5
1.45733	4
1.46100	4
1.46467	7
1.46833	11
1.47200	13
1.47567	12
1.47933	9
1.48300	9
1.48667	9
1.49033	9
1.49400	9
1.49767	9
1.50133	8
1.50500	7
1.50867	7
1.51233	7
1.51600	7
1.51967	5
1.52333	4
1.52700	6
1.53067	7
1.53433	8
1.53800	9
1.54167	10
1.54533	11
1.54900	11
1.55267	9
1.55633	9
1.56000	7
1.56367	7
1.56733	8
1.57100	9
1.57467	8
1.57833	7
1.58200	7
1.58567	9
1.58933	9
1.59300	10
1.59667	9
1.60033	9
1.60400	8
1.60767	8
1.61133	8
1.61500	9
1.61867	9
1.62233	8
1.62600	7
1.62967	6
1.63333	7
1.63700	10
1.64067	12
1.64433	11
1.64800	11
1.65167	11
1.65533	10
1.65900	10
1.66267	10
1.66633	11
1.67000	14
1.67367	15
1.67733	14
1.68100	12
1.68467	10
1.68833	9
1.69200	10
1.69567	10
1.69933	11
1.70300	12
1.70667	13
1.71033	14
1.71400	14
1.71767	14
1.72133	15
1.72500	15
1.72867	15
1.73233	16
1.73600	17
1.73967	17
1.74333	17
1.74700	17
1.75067	17
1.75433	16
1.75800	17
1.76167	20
1.76533	22
1.76900	23
1.77267	23
1.77633	22
1.78000	22
1.78367	21
1.78733	20
1.79100	19
1.79467	20
1.79833	20
1.80200	18
1.80567	18
1.80933	19
1.81300	20
1.81667	18
1.82033	19
1.82400	21
1.82767	22
1.83133	21
1.83500	21
1.83867	20
1.84233	21
1.84600	22
1.84967	22
1.85333	23
1.85700	23
1.86067	24
1.86433	25
1.86800	25
1.87167	25
1.87533	26
1.87900	25
1.88267	23
1.88633	21
1.89000	21
1.89367	23
1.89733	24
1.90100	25
1.90467	25
1.90833	26
1.91200	25
1.91567	24
1.91933	24
1.92300	24
1.92667	25
1.93033	25
1.93400	26
1.93767	25
1.94133	25
1.94500	26
1.94867	28
1.95233	29
1.95600	30
1.95967	29
1.96333	27
1.96700	25
1.97067	24
1.97433	25
1.97800	28
1.98167	29
1.98533	32
1.98900	32
1.99267	31
1.99633	32
2.00000	34
2.00367	35
2.00733	34
2.01100	32
2.01467	30
2.01833	30
2.02200	33
2.02567	34
2.02933	35
2.03300	32
2.03667	30
2.04033	27
2.04400	28
2.04767	30
2.05133	30
2.05500	30
2.05867	31
2.06233	33
2.06600	33
2.06967	33
2.07333	33
2.07700	32
2.08067	33
2.08433	34
2.08800	34
2.09167	34
2.09533	36
2.09900	40
2.10267	42
2.10633	39
2.11000	38
2.11367	41
2.11733	43
2.12100	44
2.12467	43
2.12833	43
2.13200	43
2.13567	45
2.13933	45
2.14300	45
2.14667	45
2.15033	46
2.15400	46
2.15767	47
2.16133	49
2.16500	50
2.16867	50
2.17233	49
2.17600	48
2.17967	47
2.18333	47
2.18700	48
2.19067	50
2.19433	51
2.19800	52
2.20167	52
2.20533	53
2.20900	56
2.21267	60
2.21633	60
2.22000	60
2.22367	59
2.22733	59
2.23100	59
2.23467	60
2.23833	61
2.24200	61
2.24567	63
2.24933	64
2.25300	62
2.25667	62
2.26033	62
2.26400	63
2.26767	63
2.27133	64
2.27500	66
2.27867	66
2.28233	65
2.28600	64
2.28967	66
2.29333	67
2.29700	68
2.30067	69
2.30433	70
2.30800	72
2.31167	74
2.31533	76
2.31900	75
2.32267	74
2.32633	73
2.33000	73
2.33367	74
2.33733	76
2.34100	81
2.34467	83
2.34833	83
2.35200	83
2.35567	82
2.35933	81
2.36300	81
2.36667	83
2.37033	86
2.37400	88
2.37767	89
2.38133	92
2.38500	94
2.38867	95
2.39233	94
2.39600	93
2.39967	92
2.40333	94
2.40700	96
2.41067	97
2.41433	99
2.41800	102
2.42167	104
2.42533	104
2.42900	105
2.43267	106
2.43633	107
2.44000	108
2.44367	133
2.44733	206
2.45100	288
2.45467	354
2.45833	398
2.46200	410
2.46567	396
2.46933	373
2.47300	352
2.47667	338
2.48033	331
2.48400	327
2.48767	319
2.49133	302
2.49500	280
2.49867	258
2.50233	240
2.50600	226
2.50967	217
2.51333	211
2.51700	206
2.52067	203
2.52433	203
2.52800	205
2.53167	212
2.53533	222
2.53900	232
2.54267	241
2.54633	246
2.55000	246
2.55367	245
2.55733	239
2.56100	231
2.56467	222
2.56833	209
2.57200	197
2.57567	189
2.57933	181
2.58300	175
2.58667	171
2.59033	167
2.59400	165
2.59767	162
2.60133	157
2.60500	151
2.60867	140
2.61233	128
2.61600	112
2.61967	96
2.62333	80
2.62700	64
2.63067	51
2.63433	40
2.63800	31
2.64167	24
2.64533	22
2.64900	24
2.65267	30
2.65633	38
2.66000	46
2.66367	58
2.66733	68
2.67100	77
2.67467	86
2.67833	94
2.68200	99
2.68567	104
2.68933	110
2.69300	116
2.69667	123
2.70033	128
2.70400	129
2.70767	130
2.71133	132
2.71500	131
2.71867	129
2.72233	125
2.72600	125
2.72967	126
2.73333	128
2.73700	129
2.74067	128
2.74433	128
2.74800	129
2.75167	132
2.75533	133
2.75900	132
2.76267	131
2.76633	133
2.77000	133
2.77367	134
2.77733	137
2.78100	138
2.78467	138
2.78833	137
2.79200	134
2.79567	134
2.79933	135
2.80300	138
2.80667	139
2.81033	139
2.81400	140
2.81767	143
2.82133	150
2.82500	169
2.82867	209
2.83233	285
2.83600	420
2.83967	635
2.84333	945
2.84700	1362
2.85067	1872
2.85433	2456
2.85800	3078
2.86167	3698
2.86533	4262
2.86900	4727
2.87267	5054
2.87633	5230
2.88000	5255
2.88367	5149
2.88733	4935
2.89100	4642
2.89467	4299
2.89833	3933
2.90200	3563
2.90567	3204
2.90933	2861
2.91300	2542
2.91667	2253
2.92033	1991
2.92400	1755
2.92767	1546
2.93133	1361
2.93500	1200
2.93867	1058
2.94233	934
2.94600	825
2.94967	734
2.95333	654
2.95700	584
2.96067	525
2.96433	475
2.96800	433
2.97167	398
2.97533	368
2.97900	343
2.98267	319
2.98633	296
2.99000	278
2.99367	260
2.99733	246
3.00100	236
3.00467	229
3.00833	220
3.01200	210
3.01567	203
3.01933	199
3.02300	194
3.02667	189
3.03033	185
3.03400	179
3.03767	174
3.04133	169
3.04500	166
3.04867	163
3.05233	159
3.05600	158
3.05967	158
3.06333	156
3.06700	155
3.07067	153
3.07433	150
3.07800	148
3.08167	146
3.08533	144
3.08900	143
3.09267	140
3.09633	137
3.10000	134
3.10367	134
3.10733	133
3.11100	133
3.11467	133
3.11833	134
3.12200	132
3.12567	132
3.12933	129
3.13300	126
3.13667	125
3.14033	124
3.14400	123
3.14767	121
3.15133	120
3.15500	118
3.15867	115
3.16233	113
3.16600	114
3.16967	115
3.17333	117
3.17700	116
3.18067	115
3.18433	115
3.18800	117
3.19167	120
3.19533	123
3.19900	124
3.20267	125
3.20633	126
3.21000	126
3.21367	125
3.21733	124
3.22100	122
3.22467	120
3.22833	119
3.23200	119
3.23567	119
3.23933	121
3.24300	123
3.24667	125
3.25033	128
3.25400	126
3.25767	123
3.26133	123
3.26500	123
3.26867	124
3.27233	122
3.27600	119
3.27967	118
3.28333	116
3.28700	114
3.29067	113
3.29433	115
3.29800	116
3.30167	115
3.30533	114
3.30900	112
3.31267	111
3.31633	111
3.32000	109
3.32367	110
3.32733	111
3.33100	111
3.33467	110
3.33833	108
3.34200	104
3.34567	101
3.34933	99
3.35300	97
3.35667	96
3.36033	94
3.36400	94
3.36767	94
3.37133	95
3.37500	96
3.37867	96
3.38233	96
3.38600	97
3.38967	98
3.39333	97
3.39700	95
3.40067	96
3.40433	97
3.40800	97
3.41167	95
3.41533	96
3.41900	98
3.42267	97
3.42633	95
3.43000	93
3.43367	95
3.43733	97
3.44100	96
3.44467	98
3.44833	100
3.45200	101
3.45567	102
3.45933	100
3.46300	97
3.46667	94
3.47033	93
3.47400	93
3.47767	95
3.48133	95
3.48500	95
3.48867	96
3.49233	96
3.49600	96
3.49967	95
3.50333	95
3.50700	98
3.51067	99
3.51433	97
3.51800	95
3.52167	95
3.52533	96
3.52900	96
3.53267	94
3.53633	94
3.54000	94
3.54367	95
3.54733	95
3.55100	95
3.55467	97
3.55833	100
3.56200	99
3.56567	98
3.56933	97
3.57300	98
3.57667	100
3.58033	101
3.58400	100
3.58767	99
3.59133	96
3.59500	96
3.59867	99
3.60233	100
3.60600	101
3.60967	102
3.61333	103
3.61700	103
3.62067	102
3.62433	100
3.62800	98
3.63167	98
3.63533	101
3.63900	103
3.64267	105
3.64633	104
3.65000	102
3.65367	102
3.65733	101
3.66100	102
3.66467	103
3.66833	103
3.67200	102
3.67567	102
3.67933	101
3.68300	99
3.68667	97
3.69033	95
3.69400	96
3.69767	97
3.70133	99
3.70500	101
3.70867	102
3.71233	100
3.71600	99
3.71967	98
3.72333	95
3.72700	93
3.73067	93
3.73433	96
3.73800	97
3.74167	97
3.74533	96
3.74900	94
3.75267	94
3.75633	93
3.76000	93
3.76367	95
3.76733	97
3.77100	96
3.77467	97
3.77833	97
3.78200	97
3.78567	95
3.78933	93
3.79300	93
3.79667	95
3.80033	93
3.80400	90
3.80767	90
3.81133	90
3.81500	91
3.81867	91
3.82233	93
3.82600	93
3.82967	93
3.83333	91
3.83700	91
3.84067	92
3.84433	93
3.84800	94
3.85167	94
3.85533	95
3.85900	95
3.86267	94
3.86633	92
3.87000	92
3.87367	94
3.87733	94
3.88100	93
3.88467	91
3.88833	90
3.89200	89
3.89567	89
3.89933	89
3.90300	90
3.90667	93
3.91033	92
3.91400	91
3.91767	91
3.92133	93
3.92500	95
3.92867	94
3.93233	94
3.93600	93
3.93967	92
3.94333	91
3.94700	89
3.95067	86
3.95433	84
3.95800	83
3.96167	83
3.96533	84
3.96900	85
3.97267	86
3.97633	87
3.98000	86
3.98367	85
3.98733	84
3.99100	87
3.99467	90
3.99833	92

[Status Trace (Column Oven Temperature)]
Interval(msec)	1000
# of Points	240
Start Time(min)	0.009
End Time(min)	3.992
Intensity Units	
Intensity Multiplier	1
R.Time (min)	Intensity
0.00872	35.12
0.02538	35.11
0.04205	35.11
0.05872	35.11
0.07538	35.10
0.09205	35.09
0.10872	35.07
0.12538	35.05
0.14205	35.03
0.15872	35.03
0.17538	35.01
0.19205	35.00
0.20872	35.00
0.22538	34.98
0.24205	34.98
0.25872	34.98
0.27538	35.00
0.29205	35.02
0.30872	35.02
0.32538	35.02
0.34205	35.02
0.35872	35.01
0.37538	35.01
0.39205	35.02
0.40872	35.02
0.42538	35.01
0.44205	35.01
0.45872	35.00
0.47538	35.00
0.49205	35.01
0.50872	35.03
0.52538	35.04
0.54205	35.05
0.55872	35.06
0.57538	35.07
0.59205	35.06
0.60872	35.06
0.62538	35.07
0.64205	35.06
0.65872	35.05
0.67538	35.03
0.69205	35.00
0.70872	34.99
0.72538	34.98
0.74205	34.98
0.75872	34.97
0.77538	34.97
0.79205	34.98
0.80872	34.99
0.82538	34.99
0.84205	34.99
0.85872	35.00
0.87538	35.00
0.89205	35.01
0.90872	35.00
0.92538	35.00
0.94205	35.01
0.95872	35.02
0.97538	35.02
0.99205	35.04
1.00872	35.05
1.02538	35.03
1.04205	35.03
1.05872	35.03
1.07538	35.02
1.09205	35.01
1.10872	35.01
1.12538	35.01
1.14205	35.00
1.15872	34.99
1.17538	34.98
1.19205	34.98
1.20872	34.99
1.22538	35.00
1.24205	35.01
1.25872	35.02
1.27538	35.02
1.29205	35.01
1.30872	35.01
1.32538	35.00
1.34205	34.98
1.35872	34.97
1.37538	34.96
1.39205	34.97
1.40872	34.99
1.42538	34.99
1.44205	35.00
1.45872	34.99
1.47538	34.98
1.49205	34.98
1.50872	34.99
1.52538	34.99
1.54205	34.99
1.55872	35.00
1.57538	35.00
1.59205	35.02
1.60872	35.08
1.62538	35.21
1.64205	35.41
1.65872	35.65
1.67538	35.98
1.69205	36.35
1.70872	36.70
1.72538	37.03
1.74205	37.37
1.75872	37.69
1.77538	38.01
1.79205	38.35
1.80872	38.69
1.82538	39.02
1.84205	39.36
1.85872	39.69
1.87538	40.02
1.89205	40.34
1.90872	40.68
1.92538	41.01
1.94205	41.32
1.95872	41.66
1.97538	41.96
1.99205	42.28
2.00872	42.61
2.02538	42.91
2.04205	43.23
2.05872	43.56
2.07538	43.89
2.09205	44.22
2.10872	44.56
2.12538	44.87
2.14205	45.22
2.15872	45.54
2.17538	45.86
2.19205	46.19
2.20872	46.52
2.22538	46.85
2.24205	47.17
2.25872	47.52
2.27538	47.83
2.29205	48.17
2.30872	48.54
2.32538	48.87
2.34205	49.18
2.35872	49.44
2.37538	49.63
2.39205	49.70
2.40872	49.69
2.42538	49.70
2.44205	49.71
2.45872	49.70
2.47538	49.73
2.49205	49.74
2.50872	49.74
2.52538	49.76
2.54205	49.78
2.55872	49.79
2.57538	49.80
2.59205	49.81
2.60872	49.82
2.62538	49.83
2.64205	49.83
2.65872	49.84
2.67538	49.83
2.69205	49.84
2.70872	49.86
2.72538	49.86
2.74205	49.87
2.75872	49.85
2.77538	49.86
2.79205	49.88
2.80872	49.89
2.82538	49.89
2.84205	49.90
2.85872	49.92
2.87538	49.93
2.89205	49.93
2.90872	49.95
2.92538	49.94
2.94205	49.95
2.95872	49.95
2.97538	49.96
2.99205	49.96
3.00872	49.97
3.02538	49.97
3.04205	49.97
3.05872	49.98
3.07538	50.00
3.09205	50.01
3.10872	50.03
3.12538	50.04
3.14205	50.06
3.15872	50.07
3.17538	50.08
3.19205	50.09
3.20872	50.10
3.22538	50.10
3.24205	50.11
3.25872	50.11
3.27538	50.10
3.29205	50.10
3.30872	50.08
3.32538	50.06
3.34205	50.05
3.35872	50.04
3.37538	50.03
3.39205	50.01
3.40872	50.01
3.42538	50.01
3.44205	50.01
3.45872	50.02
3.47538	50.02
3.49205	50.03
3.50872	50.04
3.52538	50.05
3.54205	50.04
3.55872	50.04
3.57538	50.04
3.59205	50.04
3.60872	50.04
3.62538	50.04
3.64205	50.04
3.65872	50.04
3.67538	50.03
3.69205	50.03
3.70872	50.03
3.72538	50.03
3.74205	50.04
3.75872	50.04
3.77538	50.04
3.79205	50.04
3.80872	50.06
3.82538	50.08
3.84205	50.08
3.85872	50.08
3.87538	50.08
3.89205	50.07
3.90872	50.08
3.92538	50.08
3.94205	50.09
3.95872	50.10
3.97538	50.10
3.99205	50.10

[Status Trace (Injection Unit Temperature)]
Interval(msec)	1000
# of Points	240
Start Time(min)	0.009
End Time(min)	3.992
Intensity Units	
Intensity Multiplier	1
R.Time (min)	Intensity
0.00872	99.98
0.02538	99.98
0.04205	99.98
0.05872	99.98
0.07538	99.98
0.09205	99.98
0.10872	99.97
0.12538	99.98
0.14205	99.97
0.15872	99.98
0.17538	99.98
0.19205	99.97
0.20872	99.98
0.22538	99.98
0.24205	99.98
0.25872	99.98
0.27538	99.98
0.29205	99.98
0.30872	99.98
0.32538	99.98
0.34205	99.98
0.35872	99.98
0.37538	99.98
0.39205	99.98
0.40872	99.98
0.42538	99.98
0.44205	99.98
0.45872	99.98
0.47538	99.98
0.49205	99.98
0.50872	99.98
0.52538	99.98
0.54205	99.97
0.55872	99.98
0.57538	99.98
0.59205	99.98
0.60872	99.98
0.62538	99.98
0.64205	99.98
0.65872	99.98
0.67538	99.98
0.69205	99.98
0.70872	99.98
0.72538	99.98
0.74205	99.98
0.75872	99.98
0.77538	99.98
0.79205	99.98
0.80872	99.98
0.82538	99.99
0.84205	99.98
0.85872	99.98
0.87538	99.98
0.89205	99.98
0.90872	99.98
0.92538	99.98
0.94205	99.98
0.95872	99.98
0.97538	99.99
0.99205	99.98
1.00872	99.98
1.02538	99.98
1.04205	99.98
1.05872	99.98
1.07538	99.99
1.09205	99.98
1.10872	99.99
1.12538	99.98
1.14205	99.98
1.15872	99.98
1.17538	99.98
1.19205	99.98
1.20872	99.98
1.22538	99.99
1.24205	99.98
1.25872	99.99
1.27538	99.99
1.29205	99.99
1.30872	99.98
1.32538	99.99
1.34205	99.99
1.35872	99.99
1.37538	99.99
1.39205	99.99
1.40872	99.99
1.42538	99.99
1.44205	99.98
1.45872	99.98
1.47538	99.98
1.49205	99.98
1.50872	99.98
1.52538	99.98
1.54205	99.98
1.55872	99.98
1.57538	99.98
1.59205	99.98
1.60872	99.98
1.62538	99.98
1.64205	99.98
1.65872	99.98
1.67538	99.98
1.69205	99.97
1.70872	99.98
1.72538	99.98
1.74205	99.98
1.75872	99.98
1.77538	99.98
1.79205	99.98
1.80872	99.98
1.82538	99.98
1.84205	99.97
1.85872	99.98
1.87538	99.98
1.89205	99.97
1.90872	99.98
1.92538	99.98
1.94205	99.98
1.95872	99.98
1.97538	99.98
1.99205	99.98
2.00872	99.98
2.02538	99.97
2.04205	99.97
2.05872	99.97
2.07538	99.97
2.09205	99.97
2.10872	99.97
2.12538	99.97
2.14205	99.97
2.15872	99.97
2.17538	99.97
2.19205	99.97
2.20872	99.97
2.22538	99.97
2.24205	99.97
2.25872	99.97
2.27538	99.97
2.29205	99.97
2.30872	99.97
2.32538	99.97
2.34205	99.97
2.35872	99.97
2.37538	99.97
2.39205	99.97
2.40872	99.97
2.42538	99.97
2.44205	99.98
2.45872	99.97
2.47538	99.97
2.49205	99.98
2.50872	99.98
2.52538	99.98
2.54205	99.98
2.55872	99.98
2.57538	99.98
2.59205	99.98
2.60872	99.97
2.62538	99.98
2.64205	99.98
2.65872	99.98
2.67538	99.98
2.69205	99.99
2.70872	99.98
2.72538	99.99
2.74205	99.99
2.75872	99.99
2.77538	99.99
2.79205	100.00
2.80872	100.00
2.82538	99.99
2.84205	100.00
2.85872	100.00
2.87538	100.00
2.89205	100.01
2.90872	100.01
2.92538	100.01
2.94205	100.01
2.95872	100.01
2.97538	100.01
2.99205	100.01
3.00872	100.01
3.02538	100.01
3.04205	100.01
3.05872	100.01
3.07538	100.02
3.09205	100.01
3.10872	100.02
3.12538	100.02
3.14205	100.02
3.15872	100.02
3.17538	100.02
3.19205	100.02
3.20872	100.02
3.22538	100.03
3.24205	100.02
3.25872	100.03
3.27538	100.04
3.29205	100.03
3.30872	100.03
3.32538	100.04
3.34205	100.04
3.35872	100.04
3.37538	100.03
3.39205	100.04
3.40872	100.04
3.42538	100.04
3.44205	100.04
3.45872	100.04
3.47538	100.04
3.49205	100.04
3.50872	100.04
3.52538	100.04
3.54205	100.04
3.55872	100.04
3.57538	100.04
3.59205	100.04
3.60872	100.05
3.62538	100.04
3.64205	100.04
3.65872	100.05
3.67538	100.04
3.69205	100.04
3.70872	100.04
3.72538	100.04
3.74205	100.04
3.75872	100.04
3.77538	100.04
3.79205	100.04
3.80872	100.05
3.82538	100.05
3.84205	100.04
3.85872	100.04
3.87538	100.04
3.89205	100.04
3.90872	100.04
3.92538	100.04
3.94205	100.04
3.95872	100.05
3.97538	100.04
3.99205	100.04

[Status Trace (Carrier Gas Pressure)]
Interval(msec)	1000
# of Points	240
Start Time(min)	0.009
End Time(min)	3.992
Intensity Units	
Intensity Multiplier	1
R.Time (min)	Intensity
0.00872	58.00
0.02538	53.28
0.04205	55.21
0.05872	57.54
0.07538	59.60
0.09205	60.91
0.10872	58.68
0.12538	57.99
0.14205	58.01
0.15872	58.02
0.17538	58.01
0.19205	58.01
0.20872	58.01
0.22538	58.01
0.24205	58.01
0.25872	58.00
0.27538	58.00
0.29205	58.00
0.30872	58.00
0.32538	58.00
0.34205	58.00
0.35872	58.00
0.37538	58.00
0.39205	58.00
0.40872	58.00
0.42538	58.00
0.44205	58.00
0.45872	58.00
0.47538	58.00
0.49205	58.00
0.50872	58.00
0.52538	58.00
0.54205	58.00
0.55872	58.00
0.57538	58.00
0.59205	58.00
0.60872	58.00
0.62538	58.00
0.64205	58.00
0.65872	58.00
0.67538	58.00
0.69205	58.00
0.70872	58.00
0.72538	58.00
0.74205	58.00
0.75872	58.00
0.77538	58.00
0.79205	58.00
0.80872	58.00
0.82538	58.00
0.84205	58.00
0.85872	58.00
0.87538	58.00
0.89205	58.00
0.90872	58.00
0.92538	58.00
0.94205	58.00
0.95872	58.00
0.97538	58.00
0.99205	58.00
1.00872	58.00
1.02538	58.00
1.04205	58.00
1.05872	58.00
1.07538	58.00
1.09205	58.00
1.10872	58.00
1.12538	58.00
1.14205	58.00
1.15872	58.00
1.17538	58.00
1.19205	58.00
1.20872	58.00
1.22538	58.00
1.24205	58.00
1.25872	58.00
1.27538	58.00
1.29205	58.00
1.30872	58.00
1.32538	58.00
1.34205	58.00
1.35872	58.00
1.37538	58.00
1.39205	58.00
1.40872	58.00
1.42538	58.00
1.44205	58.00
1.45872	58.00
1.47538	58.00
1.49205	58.00
1.50872	58.00
1.52538	58.00
1.54205	58.00
1.55872	58.00
1.57538	58.00
1.59205	58.00
1.60872	58.00
1.62538	58.00
1.64205	58.00
1.65872	58.00
1.67538	58.01
1.69205	58.00
1.70872	58.00
1.72538	58.00
1.74205	58.00
1.75872	58.00
1.77538	58.00
1.79205	58.00
1.80872	58.00
1.82538	58.00
1.84205	58.00
1.85872	58.00
1.87538	58.00
1.89205	58.00
1.90872	58.00
1.92538	58.00
1.94205	58.00
1.95872	58.00
1.97538	58.00
1.99205	58.00
2.00872	58.00
2.02538	58.00
2.04205	58.00
2.05872	58.00
2.07538	58.00
2.09205	58.00
2.10872	58.00
2.12538	58.00
2.14205	58.00
2.15872	58.00
2.17538	58.00
2.19205	58.00
2.20872	58.00
2.22538	58.00
2.24205	58.00
2.25872	58.00
2.27538	58.00
2.29205	58.00
2.30872	58.00
2.32538	58.00
2.34205	58.00
2.35872	58.00
2.37538	58.00
2.39205	57.99
2.40872	57.99
2.42538	58.00
2.44205	58.00
2.45872	58.00
2.47538	58.00
2.49205	58.00
2.50872	57.99
2.52538	57.98
2.54205	58.00
2.55872	58.00
2.57538	58.00
2.59205	58.00
2.60872	58.00
2.62538	58.00
2.64205	58.00
2.65872	58.00
2.67538	58.00
2.69205	58.00
2.70872	58.00
2.72538	58.00
2.74205	58.00
2.75872	58.00
2.77538	58.00
2.79205	58.00
2.80872	58.00
2.82538	58.00
2.84205	58.00
2.85872	58.00
2.87538	58.00
2.89205	58.00
2.90872	58.00
2.92538	58.00
2.94205	58.00
2.95872	58.00
2.97538	58.00
2.99205	58.00
3.00872	58.00
3.02538	58.00
3.04205	58.00
3.05872	58.00
3.07538	58.00
3.09205	58.00
3.10872	58.00
3.12538	58.00
3.14205	58.00
3.15872	58.00
3.17538	58.00
3.19205	58.00
3.20872	58.00
3.22538	58.00
3.24205	58.00
3.25872	58.00
3.27538	58.00
3.29205	58.00
3.30872	58.00
3.32538	58.00
3.34205	58.00
3.35872	58.00
3.37538	58.00
3.39205	58.00
3.40872	58.00
3.42538	58.00
3.44205	58.00
3.45872	58.00
3.47538	58.00
3.49205	58.00
3.50872	58.00
3.52538	58.00
3.54205	58.00
3.55872	58.00
3.57538	58.00
3.59205	58.00
3.60872	58.00
3.62538	58.00
3.64205	58.00
3.65872	58.00
3.67538	58.00
3.69205	58.00
3.70872	58.00
3.72538	58.00
3.74205	58.00
3.75872	58.00
3.77538	58.00
3.79205	58.00
3.80872	58.00
3.82538	58.00
3.84205	58.00
3.85872	58.00
3.87538	58.00
3.89205	58.00
3.90872	58.00
3.92538	58.00
3.94205	58.00
3.95872	58.00
3.97538	58.00
3.99205	58.00

[Status Trace (Carrier Gas Flow)]
Interval(msec)	1000
# of Points	240
Start Time(min)	0.009
End Time(min)	3.992
Intensity Units	
Intensity Multiplier	1
R.Time (min)	Intensity
0.00872	34.51
0.02538	34.53
0.04205	34.53
0.05872	34.55
0.07538	34.55
0.09205	34.48
0.10872	34.51
0.12538	34.52
0.14205	34.51
0.15872	34.52
0.17538	34.52
0.19205	34.52
0.20872	34.52
0.22538	34.52
0.24205	34.52
0.25872	34.51
0.27538	34.52
0.29205	34.52
0.30872	34.52
0.32538	34.51
0.34205	34.52
0.35872	34.52
0.37538	34.52
0.39205	34.52
0.40872	34.51
0.42538	34.52
0.44205	34.51
0.45872	34.52
0.47538	34.51
0.49205	34.52
0.50872	34.52
0.52538	34.53
0.54205	34.51
0.55872	34.52
0.57538	34.51
0.59205	34.52
0.60872	34.52
0.62538	34.52
0.64205	34.52
0.65872	34.52
0.67538	34.52
0.69205	34.52
0.70872	34.52
0.72538	34.52
0.74205	34.52
0.75872	34.52
0.77538	34.52
0.79205	34.51
0.80872	34.51
0.82538	34.52
0.84205	34.52
0.85872	34.52
0.87538	34.52
0.89205	34.52
0.90872	34.52
0.92538	34.52
0.94205	34.52
0.95872	34.52
0.97538	34.52
0.99205	34.52
1.00872	34.52
1.02538	34.52
1.04205	34.52
1.05872	34.52
1.07538	34.52
1.09205	34.52
1.10872	34.52
1.12538	34.52
1.14205	34.52
1.15872	34.52
1.17538	34.52
1.19205	34.52
1.20872	34.52
1.22538	34.52
1.24205	34.52
1.25872	34.52
1.27538	34.52
1.29205	34.52
1.30872	34.52
1.32538	34.52
1.34205	34.52
1.35872	34.52
1.37538	34.51
1.39205	34.51
1.40872	34.52
1.42538	34.52
1.44205	34.52
1.45872	34.52
1.47538	34.52
1.49205	34.52
1.50872	34.52
1.52538	34.52
1.54205	34.52
1.55872	34.52
1.57538	34.52
1.59205	34.52
1.60872	34.52
1.62538	34.52
1.64205	34.52
1.65872	34.52
1.67538	34.52
1.69205	34.52
1.70872	34.51
1.72538	34.52
1.74205	34.52
1.75872	34.52
1.77538	34.51
1.79205	34.52
1.80872	34.52
1.82538	34.52
1.84205	34.52
1.85872	34.52
1.87538	34.52
1.89205	34.52
1.90872	34.52
1.92538	34.52
1.94205	34.52
1.95872	34.52
1.97538	34.52
1.99205	34.52
2.00872	34.52
2.02538	34.52
2.04205	34.53
2.05872	34.52
2.07538	34.52
2.09205	34.52
2.10872	34.52
2.12538	34.52
2.14205	34.52
2.15872	34.52
2.17538	34.51
2.19205	34.53
2.20872	34.52
2.22538	34.52
2.24205	34.52
2.25872	34.52
2.27538	34.52
2.29205	34.52
2.30872	34.52
2.32538	34.52
2.34205	34.52
2.35872	34.52
2.37538	34.52
2.39205	34.52
2.40872	34.51
2.42538	34.52
2.44205	34.52
2.45872	34.52
2.47538	34.52
2.49205	34.51
2.50872	34.47
2.52538	34.51
2.54205	34.52
2.55872	34.52
2.57538	34.51
2.59205	34.52
2.60872	34.52
2.62538	34.53
2.64205	34.52
2.65872	34.52
2.67538	34.52
2.69205	34.52
2.70872	34.52
2.72538	34.52
2.74205	34.52
2.75872	34.52
2.77538	34.52
2.79205	34.51
2.80872	34.52
2.82538	34.52
2.84205	34.52
2.85872	34.52
2.87538	34.52
2.89205	34.51
2.90872	34.52
2.92538	34.51
2.94205	34.52
2.95872	34.52
2.97538	34.51
2.99205	34.52
3.00872	34.52
3.02538	34.52
3.04205	34.52
3.05872	34.52
3.07538	34.52
3.09205	34.52
3.10872	34.52
3.12538	34.52
3.14205	34.52
3.15872	34.52
3.17538	34.52
3.19205	34.52
3.20872	34.52
3.22538	34.52
3.24205	34.52
3.25872	34.52
3.27538	34.52
3.29205	34.52
3.30872	34.53
3.32538	34.52
3.34205	34.52
3.35872	34.52
3.37538	34.52
3.39205	34.52
3.40872	34.52
3.42538	34.52
3.44205	34.52
3.45872	34.52
3.47538	34.52
3.49205	34.52
3.50872	34.52
3.52538	34.52
3.54205	34.52
3.55872	34.52
3.57538	34.52
3.59205	34.51
3.60872	34.52
3.62538	34.52
3.64205	34.52
3.65872	34.52
3.67538	34.52
3.69205	34.52
3.70872	34.52
3.72538	34.52
3.74205	34.51
3.75872	34.52
3.77538	34.52
3.79205	34.52
3.80872	34.52
3.82538	34.52
3.84205	34.52
3.85872	34.52
3.87538	34.52
3.89205	34.52
3.90872	34.52
3.92538	34.51
3.94205	34.52
3.95872	34.52
3.97538	34.52
3.99205	34.52

[Status Trace (Column Flow)]
Interval(msec)	1000
# of Points	240
Start Time(min)	0.009
End Time(min)	3.992
Intensity Units	
Intensity Multiplier	1
R.Time (min)	Intensity
0.00872	5.57
0.02538	5.02
0.04205	5.25
0.05872	5.52
0.07538	5.76
0.09205	5.92
0.10872	5.65
0.12538	5.57
0.14205	5.57
0.15872	5.58
0.17538	5.58
0.19205	5.58
0.20872	5.57
0.22538	5.58
0.24205	5.58
0.25872	5.58
0.27538	5.57
0.29205	5.57
0.30872	5.57
0.32538	5.57
0.34205	5.57
0.35872	5.57
0.37538	5.57
0.39205	5.57
0.40872	5.57
0.42538	5.57
0.44205	5.57
0.45872	5.57
0.47538	5.57
0.49205	5.57
0.50872	5.57
0.52538	5.57
0.54205	5.57
0.55872	5.57
0.57538	5.57
0.59205	5.57
0.60872	5.57
0.62538	5.57
0.64205	5.57
0.65872	5.57
0.67538	5.57
0.69205	5.57
0.70872	5.57
0.72538	5.57
0.74205	5.57
0.75872	5.58
0.77538	5.58
0.79205	5.57
0.80872	5.57
0.82538	5.57
0.84205	5.57
0.85872	5.57
0.87538	5.57
0.89205	5.57
0.90872	5.57
0.92538	5.57
0.94205	5.57
0.95872	5.57
0.97538	5.57
0.99205	5.57
1.00872	5.57
1.02538	5.57
1.04205	5.57
1.05872	5.57
1.07538	5.57
1.09205	5.57
1.10872	5.57
1.12538	5.57
1.14205	5.57
1.15872	5.57
1.17538	5.57
1.19205	5.58
1.20872	5.57
1.22538	5.57
1.24205	5.57
1.25872	5.57
1.27538	5.57
1.29205	5.57
1.30872	5.57
1.32538	5.57
1.34205	5.57
1.35872	5.58
1.37538	5.58
1.39205	5.58
1.40872	5.57
1.42538	5.57
1.44205	5.57
1.45872	5.57
1.47538	5.57
1.49205	5.57
1.50872	5.57
1.52538	5.57
1.54205	5.57
1.55872	5.57
1.57538	5.57
1.59205	5.57
1.60872	5.57
1.62538	5.57
1.64205	5.56
1.65872	5.55
1.67538	5.54
1.69205	5.53
1.70872	5.52
1.72538	5.51
1.74205	5.50
1.75872	5.49
1.77538	5.48
1.79205	5.47
1.80872	5.46
1.82538	5.45
1.84205	5.44
1.85872	5.43
1.87538	5.42
1.89205	5.41
1.90872	5.40
1.92538	5.39
1.94205	5.38
1.95872	5.37
1.97538	5.36
1.99205	5.35
2.00872	5.34
2.02538	5.33
2.04205	5.32
2.05872	5.31
2.07538	5.30
2.09205	5.29
2.10872	5.28
2.12538	5.27
2.14205	5.26
2.15872	5.25
2.17538	5.24
2.19205	5.24
2.20872	5.23
2.22538	5.22
2.24205	5.21
2.25872	5.20
2.27538	5.19
2.29205	5.18
2.30872	5.17
2.32538	5.16
2.34205	5.15
2.35872	5.14
2.37538	5.14
2.39205	5.13
2.40872	5.13
2.42538	5.13
2.44205	5.13
2.45872	5.13
2.47538	5.13
2.49205	5.13
2.50872	5.13
2.52538	5.13
2.54205	5.13
2.55872	5.13
2.57538	5.13
2.59205	5.13
2.60872	5.13
2.62538	5.13
2.64205	5.13
2.65872	5.13
2.67538	5.13
2.69205	5.13
2.70872	5.13
2.72538	5.13
2.74205	5.13
2.75872	5.13
2.77538	5.13
2.79205	5.13
2.80872	5.13
2.82538	5.13
2.84205	5.13
2.85872	5.13
2.87538	5.13
2.89205	5.13
2.90872	5.13
2.92538	5.13
2.94205	5.13
2.95872	5.13
2.97538	5.13
2.99205	5.13
3.00872	5.13
3.02538	5.13
3.04205	5.13
3.05872	5.13
3.07538	5.13
3.09205	5.13
3.10872	5.13
3.12538	5.13
3.14205	5.13
3.15872	5.12
3.17538	5.12
3.19205	5.12
3.20872	5.12
3.22538	5.12
3.24205	5.12
3.25872	5.12
3.27538	5.12
3.29205	5.12
3.30872	5.12
3.32538	5.12
3.34205	5.13
3.35872	5.13
3.37538	5.13
3.39205	5.13
3.40872	5.13
3.42538	5.13
3.44205	5.13
3.45872	5.13
3.47538	5.13
3.49205	5.13
3.50872	5.13
3.52538	5.13
3.54205	5.13
3.55872	5.13
3.57538	5.13
3.59205	5.13
3.60872	5.13
3.62538	5.13
3.64205	5.13
3.65872	5.13
3.67538	5.13
3.69205	5.13
3.70872	5.13
3.72538	5.13
3.74205	5.13
3.75872	5.13
3.77538	5.13
3.79205	5.13
3.80872	5.12
3.82538	5.12
3.84205	5.12
3.85872	5.12
3.87538	5.12
3.89205	5.12
3.90872	5.12
3.92538	5.12
3.94205	5.12
3.95872	5.12
3.97538	5.12
3.99205	5.12

[Status Trace (Linear Velocity)]
Interval(msec)	1000
# of Points	240
Start Time(min)	0.009
End Time(min)	3.992
Intensity Units	
Intensity Multiplier	1
R.Time (min)	Intensity
0.00872	39.02
0.02538	35.92
0.04205	37.18
0.05872	38.72
0.07538	40.07
0.09205	40.92
0.10872	39.47
0.12538	39.02
0.14205	39.03
0.15872	39.04
0.17538	39.04
0.19205	39.03
0.20872	39.03
0.22538	39.03
0.24205	39.03
0.25872	39.03
0.27538	39.03
0.29205	39.03
0.30872	39.03
0.32538	39.03
0.34205	39.03
0.35872	39.03
0.37538	39.03
0.39205	39.03
0.40872	39.03
0.42538	39.03
0.44205	39.03
0.45872	39.03
0.47538	39.03
0.49205	39.03
0.50872	39.03
0.52538	39.03
0.54205	39.02
0.55872	39.02
0.57538	39.02
0.59205	39.02
0.60872	39.02
0.62538	39.02
0.64205	39.02
0.65872	39.02
0.67538	39.02
0.69205	39.03
0.70872	39.03
0.72538	39.03
0.74205	39.03
0.75872	39.03
0.77538	39.03
0.79205	39.03
0.80872	39.03
0.82538	39.03
0.84205	39.03
0.85872	39.03
0.87538	39.03
0.89205	39.03
0.90872	39.03
0.92538	39.03
0.94205	39.03
0.95872	39.03
0.97538	39.03
0.99205	39.03
1.00872	39.02
1.02538	39.03
1.04205	39.03
1.05872	39.03
1.07538	39.03
1.09205	39.03
1.10872	39.03
1.12538	39.03
1.14205	39.03
1.15872	39.03
1.17538	39.03
1.19205	39.03
1.20872	39.03
1.22538	39.03
1.24205	39.03
1.25872	39.03
1.27538	39.03
1.29205	39.03
1.30872	39.03
1.32538	39.03
1.34205	39.03
1.35872	39.03
1.37538	39.03
1.39205	39.03
1.40872	39.03
1.42538	39.03
1.44205	39.03
1.45872	39.03
1.47538	39.03
1.49205	39.03
1.50872	39.03
1.52538	39.03
1.54205	39.03
1.55872	39.03
1.57538	39.03
1.59205	39.03
1.60872	39.02
1.62538	39.01
1.64205	38.99
1.65872	38.97
1.67538	38.94
1.69205	38.91
1.70872	38.87
1.72538	38.83
1.74205	38.81
1.75872	38.77
1.77538	38.74
1.79205	38.71
1.80872	38.68
1.82538	38.65
1.84205	38.62
1.85872	38.58
1.87538	38.55
1.89205	38.52
1.90872	38.49
1.92538	38.46
1.94205	38.43
1.95872	38.40
1.97538	38.37
1.99205	38.34
2.00872	38.31
2.02538	38.28
2.04205	38.26
2.05872	38.22
2.07538	38.19
2.09205	38.17
2.10872	38.13
2.12538	38.10
2.14205	38.08
2.15872	38.04
2.17538	38.01
2.19205	37.99
2.20872	37.95
2.22538	37.92
2.24205	37.90
2.25872	37.87
2.27538	37.84
2.29205	37.81
2.30872	37.78
2.32538	37.74
2.34205	37.72
2.35872	37.69
2.37538	37.67
2.39205	37.67
2.40872	37.67
2.42538	37.67
2.44205	37.67
2.45872	37.67
2.47538	37.67
2.49205	37.67
2.50872	37.66
2.52538	37.65
2.54205	37.66
2.55872	37.66
2.57538	37.66
2.59205	37.66
2.60872	37.66
2.62538	37.66
2.64205	37.66
2.65872	37.66
2.67538	37.66
2.69205	37.66
2.70872	37.66
2.72538	37.66
2.74205	37.66
2.75872	37.66
2.77538	37.66
2.79205	37.66
2.80872	37.65
2.82538	37.65
2.84205	37.65
2.85872	37.65
2.87538	37.65
2.89205	37.65
2.90872	37.65
2.92538	37.65
2.94205	37.65
2.95872	37.65
2.97538	37.65
2.99205	37.65
3.00872	37.65
3.02538	37.65
3.04205	37.65
3.05872	37.65
3.07538	37.65
3.09205	37.64
3.10872	37.64
3.12538	37.64
3.14205	37.64
3.15872	37.64
3.17538	37.64
3.19205	37.64
3.20872	37.64
3.22538	37.64
3.24205	37.63
3.25872	37.63
3.27538	37.64
3.29205	37.64
3.30872	37.64
3.32538	37.64
3.34205	37.64
3.35872	37.64
3.37538	37.64
3.39205	37.64
3.40872	37.64
3.42538	37.64
3.44205	37.64
3.45872	37.64
3.47538	37.64
3.49205	37.64
3.50872	37.64
3.52538	37.64
3.54205	37.64
3.55872	37.64
3.57538	37.64
3.59205	37.64
3.60872	37.64
3.62538	37.64
3.64205	37.64
3.65872	37.64
3.67538	37.64
3.69205	37.64
3.70872	37.64
3.72538	37.64
3.74205	37.64
3.75872	37.64
3.77538	37.64
3.79205	37.64
3.80872	37.64
3.82538	37.64
3.84205	37.64
3.85872	37.64
3.87538	37.64
3.89205	37.64
3.90872	37.64
3.92538	37.64
3.94205	37.64
3.95872	37.64
3.97538	37.64
3.99205	37.64

