[Header]
Application Name	LabSolutions
Version	5.110
Data File Name	C:\Users\User\Desktop\GC Analyses\Jack\Nachusa Grasslands Sampling\T1 Timepoint July 12th\T1_07122022_085.gcd
Output Date	3/14/2023
Output Time	3:41:02 PM

[File Information]
Type	Data File
Generated	3/8/2023 10:44:40 PM
Generated by	System Administrator
Modified	3/8/2023 10:51:31 PM
Modified by	System Administrator

[Sample Information]
Operator Name	System Administrator
Acquired	3/8/2023 10:47:30 PM
Sample Type	0:Unknown
Level	0
Sample Name	085
Sample ID	085
ISTD Amount1	1
ISTD Amount2	1
ISTD Amount3	1
ISTD Amount4	1
ISTD Amount5	1
ISTD Amount6	1
ISTD Amount7	1
ISTD Amount8	1
ISTD Amount9	1
ISTD Amount10	1
ISTD Amount11	1
ISTD Amount12	1
ISTD Amount13	1
ISTD Amount14	1
ISTD Amount15	1
ISTD Amount16	1
ISTD Amount17	1
ISTD Amount18	1
ISTD Amount19	1
ISTD Amount20	1
ISTD Amount21	1
ISTD Amount22	1
ISTD Amount23	1
ISTD Amount24	1
ISTD Amount25	1
ISTD Amount26	1
ISTD Amount27	1
ISTD Amount28	1
ISTD Amount29	1
ISTD Amount30	1
ISTD Amount31	1
ISTD Amount32	1
Sample Amount	1
Dilution Factor	1
Vial#	84
Injection Volume	1
Injection Count	1
Bar Code	

[Original Files]
Data File	C:\Users\User\Desktop\GC Analyses\Jack\Nachusa Grasslands Sampling\T1 Timepoint July 12th\T1_07122022_085.gcd
Method File	C:\LabSolutions\Data\GHG_4min_2022\ghg3_togas_w_acet_4 min_new_int.gcm
Batch File	C:\LabSolutions\Data\AutoSamplerTesting\T1_07122022.gcb
Report Format File	c:\LabSolutions\System\DEFAULT.lsr

[File Description]


[Configuration]
Instrument Name	C0B7VH3-Instrument1
Instrument #	1
Line #	1
# of Detectors	3
Detector ID	DET#1	DET#2	DET#3
Detector Name	FID	PTCD	ECD
# of Channels	1	1	1

[Peak Table(Ch1)]
# of Peaks	3
Peak#	R.Time	I.Time	F.Time	Area	Height	A/H	Conc.	Mark	ID#	Name	k'	Plate #	Plate Ht.	Tailing	Resolution	Sep.Factor	Area Ratio	Height Ratio	Conc. %	Norm Conc.
1	1.476	1.439	1.538	26965	12721	2.120	190.374	   	1	CO	0.000	9069	16.540	1.326	0.000	0.000	0	0	29.268	29.268
2	1.567	1.538	1.641	5052	2426	2.082	97.676	 V 	2	CH4	0.062	10528	14.247	0.000	1.490	0.000	0	0	15.017	15.017
3	1.996	1.945	2.506	1444005	684134	2.111	362.406	   	3	CO2	0.353	17383	8.629	1.308	7.052	5.680	0	0	55.716	55.716

[Peak Table(Ch2)]
# of Peaks	0

[Peak Table(Ch3)]
# of Peaks	6
Peak#	R.Time	I.Time	F.Time	Area	Height	A/H	Conc.	Mark	ID#	Name	k'	Plate #	Plate Ht.	Tailing	Resolution	Sep.Factor	Area Ratio	Height Ratio	Conc. %	Norm Conc.
1	2.458	2.249	2.517	2297	583	3.937	0.000	   			0.000	10120	14.823	0.000	0.000	0.000	0	0	0.000	0.000
2	2.539	2.517	2.627	966	265	3.644	0.000	 V 			0.033	6816	22.008	0.000	0.731	0.000	0	0	0.000	0.000
3	2.678	2.638	2.741	225	68	3.311	0.000	   			0.089	13799	10.870	1.249	1.301	2.727	0	0	0.000	0.000
4	2.873	2.814	2.990	17105	4669	3.664	0.437	   	1	N2O	0.169	13577	11.048	1.617	2.048	1.883	0	0	100.000	100.000
5	3.063	2.990	3.166	3425	414	8.279	0.000	   			0.246	305	491.490	0.000	0.477	1.460	0	0	0.000	0.000
6	3.221	3.166	3.723	6638	367	18.066	0.000	 V 	2	SF6	0.310	45	3335.937	0.000	0.120	1.261	0	0	0.000	0.000

[Compound Results(Ch1)]
# of IDs	6
ID#	Name	R.Time	Area	Height	Conc.	Curve	3rd	2nd	1st	Constant	Area Ratio	Height Ratio	Conc. %	Norm Conc.
1	CO	1.476	26965	12721	190.374	Linear	0.000000e+00	0.000000e+00	1.416423e+002	0.000000e+00	0	0	29.268	29.268
2	CH4	1.567	5052	2426	97.676	Linear	0.000000e+00	0.000000e+00	5.171738e+001	0.000000e+00	0	0	15.017	15.017
3	CO2	1.996	1444005	684134	362.406	Linear	0.000000e+00	0.000000e+00	3.984494e+003	0.000000e+00	0	0	55.716	55.716
4	Ethylene	0.000	0	0	0.000	Linear	0.000000e+00	0.000000e+00	0.000000e+00	0.000000e+00	0	0	0.000	0.000
5	Acetylene	0.000	0	0	0.000	Linear	0.000000e+00	0.000000e+00	0.000000e+00	0.000000e+00	0	0	0.000	0.000
6	Ethane	0.000	0	0	0.000	Linear	0.000000e+00	0.000000e+00	0.000000e+00	0.000000e+00	0	0	0.000	0.000

[Compound Results(Ch2)]
# of IDs	5
ID#	Name	R.Time	Area	Height	Conc.	Curve	3rd	2nd	1st	Constant	Area Ratio	Height Ratio	Conc. %	Norm Conc.
1	Hydrogen	0.000	0	0	0.000	Linear	0.000000e+00	0.000000e+00	0.000000e+00	0.000000e+00	0	0	0.000	0.000
2	Oxygen	0.000	0	0	0.000	Linear	0.000000e+00	0.000000e+00	0.000000e+00	0.000000e+00	0	0	0.000	0.000
3	Nitrogen	0.000	0	0	0.000	Linear	0.000000e+00	0.000000e+00	0.000000e+00	0.000000e+00	0	0	0.000	0.000
4	Methane	0.000	0	0	0.000	Linear	0.000000e+00	0.000000e+00	0.000000e+00	0.000000e+00	0	0	0.000	0.000
5	Carbon Monoxide	0.000	0	0	0.000	Linear	0.000000e+00	0.000000e+00	0.000000e+00	0.000000e+00	0	0	0.000	0.000

[Compound Results(Ch3)]
# of IDs	2
ID#	Name	R.Time	Area	Height	Conc.	Curve	3rd	2nd	1st	Constant	Area Ratio	Height Ratio	Conc. %	Norm Conc.
1	N2O	2.873	17105	4669	0.437	Linear	0.000000e+00	0.000000e+00	3.915173e+004	0.000000e+00	0	0	100.000	100.000
2	SF6	3.221	6638	367	0.000	Linear	0.000000e+00	0.000000e+00	0.000000e+00	0.000000e+00	0	0	0.000	0.000

[Group Results(Ch1)]
# of Groups	0

[Group Results(Ch2)]
# of Groups	0

[Group Results(Ch3)]
# of Groups	0

[Chromatogram (Ch1)]
Interval(msec)	220
# of Points	1091
Start Time(min)	0.002
End Time(min)	3.998
R.Time (min)	Intensity
0.00167	1
0.00533	9
0.00900	15
0.01267	19
0.01633	21
0.02000	21
0.02367	23
0.02733	23
0.03100	15
0.03467	7
0.03833	4
0.04200	5
0.04567	4
0.04933	1
0.05300	3
0.05667	11
0.06033	19
0.06400	27
0.06767	32
0.07133	35
0.07500	40
0.07867	48
0.08233	60
0.08600	72
0.08967	77
0.09333	80
0.09700	88
0.10067	94
0.10433	89
0.10800	89
0.11167	91
0.11533	92
0.11900	90
0.12267	91
0.12633	101
0.13000	100
0.13367	96
0.13733	94
0.14100	95
0.14467	98
0.14833	98
0.15200	92
0.15567	84
0.15933	80
0.16300	79
0.16667	80
0.17033	80
0.17400	75
0.17767	66
0.18133	59
0.18500	56
0.18867	56
0.19233	56
0.19600	53
0.19967	46
0.20333	35
0.20700	23
0.21067	16
0.21433	14
0.21800	19
0.22167	27
0.22533	32
0.22900	34
0.23267	33
0.23633	33
0.24000	31
0.24367	25
0.24733	21
0.25100	21
0.25467	22
0.25833	24
0.26200	25
0.26567	27
0.26933	30
0.27300	32
0.27667	31
0.28033	27
0.28400	20
0.28767	15
0.29133	11
0.29500	10
0.29867	12
0.30233	13
0.30600	12
0.30967	13
0.31333	15
0.31700	19
0.32067	23
0.32433	27
0.32800	30
0.33167	31
0.33533	31
0.33900	27
0.34267	20
0.34633	16
0.35000	15
0.35367	12
0.35733	9
0.36100	5
0.36467	3
0.36833	3
0.37200	6
0.37567	8
0.37933	12
0.38300	16
0.38667	15
0.39033	15
0.39400	17
0.39767	19
0.40133	21
0.40500	23
0.40867	28
0.41233	33
0.41600	34
0.41967	31
0.42333	30
0.42700	31
0.43067	34
0.43433	35
0.43800	31
0.44167	27
0.44533	24
0.44900	24
0.45267	22
0.45633	24
0.46000	29
0.46367	36
0.46733	45
0.47100	51
0.47467	47
0.47833	34
0.48200	19
0.48567	6
0.48933	-5
0.49300	-14
0.49667	-19
0.50033	-21
0.50400	-19
0.50767	-17
0.51133	-17
0.51500	-15
0.51867	-7
0.52233	4
0.52600	16
0.52967	21
0.53333	21
0.53700	21
0.54067	19
0.54433	14
0.54800	10
0.55167	6
0.55533	0
0.55900	0
0.56267	6
0.56633	16
0.57000	26
0.57367	31
0.57733	26
0.58100	18
0.58467	11
0.58833	8
0.59200	7
0.59567	8
0.59933	8
0.60300	9
0.60667	10
0.61033	11
0.61400	13
0.61767	15
0.62133	15
0.62500	11
0.62867	10
0.63233	10
0.63600	7
0.63967	6
0.64333	6
0.64700	4
0.65067	4
0.65433	6
0.65800	6
0.66167	5
0.66533	-0
0.66900	-6
0.67267	-9
0.67633	-3
0.68000	10
0.68367	22
0.68733	30
0.69100	29
0.69467	24
0.69833	16
0.70200	10
0.70567	5
0.70933	5
0.71300	10
0.71667	12
0.72033	11
0.72400	9
0.72767	8
0.73133	9
0.73500	9
0.73867	9
0.74233	9
0.74600	7
0.74967	5
0.75333	2
0.75700	1
0.76067	2
0.76433	5
0.76800	9
0.77167	18
0.77533	30
0.77900	40
0.78267	42
0.78633	40
0.79000	30
0.79367	21
0.79733	13
0.80100	8
0.80467	3
0.80833	-1
0.81200	-1
0.81567	2
0.81933	6
0.82300	8
0.82667	6
0.83033	3
0.83400	-1
0.83767	-5
0.84133	-6
0.84500	-4
0.84867	1
0.85233	3
0.85600	3
0.85967	-1
0.86333	-2
0.86700	2
0.87067	9
0.87433	13
0.87800	9
0.88167	-1
0.88533	-11
0.88900	-16
0.89267	-19
0.89633	-18
0.90000	-11
0.90367	-1
0.90733	8
0.91100	11
0.91467	9
0.91833	7
0.92200	2
0.92567	-3
0.92933	-5
0.93300	-6
0.93667	-7
0.94033	-9
0.94400	-7
0.94767	-2
0.95133	0
0.95500	-0
0.95867	-2
0.96233	-8
0.96600	-15
0.96967	-17
0.97333	-16
0.97700	-14
0.98067	-14
0.98433	-15
0.98800	-14
0.99167	-11
0.99533	-8
0.99900	-1
1.00267	6
1.00633	15
1.01000	19
1.01367	14
1.01733	5
1.02100	-5
1.02467	-14
1.02833	-19
1.03200	-19
1.03567	-18
1.03933	-18
1.04300	-20
1.04667	-23
1.05033	-22
1.05400	-20
1.05767	-17
1.06133	-16
1.06500	-16
1.06867	-16
1.07233	-11
1.07600	-7
1.07967	-8
1.08333	-16
1.08700	-23
1.09067	-30
1.09433	-31
1.09800	-26
1.10167	-20
1.10533	-17
1.10900	-18
1.11267	-15
1.11633	-13
1.12000	-11
1.12367	-12
1.12733	-13
1.13100	-13
1.13467	-17
1.13833	-22
1.14200	-25
1.14567	-30
1.14933	-37
1.15300	-40
1.15667	-39
1.16033	-36
1.16400	-34
1.16767	-30
1.17133	-26
1.17500	-21
1.17867	-15
1.18233	-13
1.18600	-16
1.18967	-20
1.19333	-22
1.19700	-26
1.20067	-26
1.20433	-24
1.20800	-27
1.21167	-31
1.21533	-31
1.21900	-27
1.22267	-19
1.22633	-16
1.23000	-16
1.23367	-18
1.23733	-22
1.24100	-27
1.24467	-33
1.24833	-37
1.25200	-37
1.25567	-36
1.25933	-35
1.26300	-33
1.26667	-30
1.27033	-28
1.27400	-24
1.27767	-24
1.28133	-26
1.28500	-31
1.28867	-35
1.29233	-37
1.29600	-38
1.29967	-37
1.30333	-35
1.30700	-34
1.31067	-32
1.31433	-30
1.31800	-29
1.32167	-29
1.32533	-34
1.32900	-38
1.33267	-38
1.33633	-37
1.34000	-35
1.34367	-31
1.34733	-26
1.35100	-20
1.35467	-15
1.35833	-14
1.36200	-19
1.36567	-28
1.36933	-40
1.37300	-51
1.37667	-59
1.38033	-62
1.38400	-63
1.38767	-62
1.39133	-60
1.39500	-59
1.39867	-56
1.40233	-50
1.40600	-43
1.40967	-36
1.41333	-33
1.41700	-32
1.42067	-33
1.42433	-36
1.42800	-43
1.43167	-50
1.43533	-49
1.43900	-29
1.44267	56
1.44633	279
1.45000	812
1.45367	2025
1.45733	4049
1.46100	6495
1.46467	8837
1.46833	10744
1.47200	12070
1.47567	12693
1.47933	12495
1.48300	11475
1.48667	9836
1.49033	7929
1.49400	6084
1.49767	4507
1.50133	3261
1.50500	2336
1.50867	1673
1.51233	1202
1.51600	874
1.51967	641
1.52333	477
1.52700	363
1.53067	284
1.53433	230
1.53800	210
1.54167	259
1.54533	430
1.54900	753
1.55267	1184
1.55633	1626
1.56000	1998
1.56367	2265
1.56733	2400
1.57100	2375
1.57467	2176
1.57833	1842
1.58200	1452
1.58567	1078
1.58933	765
1.59300	522
1.59667	345
1.60033	224
1.60400	150
1.60767	108
1.61133	81
1.61500	60
1.61867	44
1.62233	28
1.62600	13
1.62967	1
1.63333	-9
1.63700	-18
1.64067	-25
1.64433	-26
1.64800	-24
1.65167	-20
1.65533	-13
1.65900	-8
1.66267	-6
1.66633	-10
1.67000	-19
1.67367	-28
1.67733	-31
1.68100	-28
1.68467	-20
1.68833	-12
1.69200	-11
1.69567	-17
1.69933	-28
1.70300	-40
1.70667	-48
1.71033	-51
1.71400	-52
1.71767	-52
1.72133	-49
1.72500	-43
1.72867	-34
1.73233	-30
1.73600	-28
1.73967	-26
1.74333	-26
1.74700	-31
1.75067	-39
1.75433	-45
1.75800	-47
1.76167	-51
1.76533	-56
1.76900	-57
1.77267	-54
1.77633	-50
1.78000	-44
1.78367	-42
1.78733	-44
1.79100	-47
1.79467	-47
1.79833	-50
1.80200	-54
1.80567	-57
1.80933	-55
1.81300	-47
1.81667	-40
1.82033	-35
1.82400	-32
1.82767	-30
1.83133	-30
1.83500	-32
1.83867	-33
1.84233	-30
1.84600	-28
1.84967	-30
1.85333	-35
1.85700	-42
1.86067	-47
1.86433	-54
1.86800	-60
1.87167	-59
1.87533	-54
1.87900	-52
1.88267	-49
1.88633	-45
1.89000	-40
1.89367	-35
1.89733	-31
1.90100	-24
1.90467	-15
1.90833	-13
1.91200	-14
1.91567	-15
1.91933	-13
1.92300	-17
1.92667	-28
1.93033	-41
1.93400	-49
1.93767	-54
1.94133	-53
1.94500	-46
1.94867	-34
1.95233	-3
1.95600	126
1.95967	806
1.96333	3833
1.96700	14226
1.97067	41706
1.97433	98298
1.97800	190272
1.98167	310636
1.98533	440236
1.98900	556943
1.99267	642506
1.99633	684126
2.00000	676408
2.00367	623068
2.00733	536696
2.01100	434939
2.01467	334587
2.01833	247017
2.02200	177087
2.02567	124699
2.02933	87166
2.03300	61075
2.03667	43274
2.04033	31241
2.04400	23124
2.04767	17625
2.05133	13851
2.05500	11215
2.05867	9337
2.06233	7959
2.06600	6917
2.06967	6112
2.07333	5479
2.07700	4972
2.08067	4555
2.08433	4208
2.08800	3912
2.09167	3656
2.09533	3426
2.09900	3214
2.10267	3022
2.10633	2849
2.11000	2698
2.11367	2559
2.11733	2436
2.12100	2329
2.12467	2228
2.12833	2130
2.13200	2040
2.13567	1958
2.13933	1883
2.14300	1816
2.14667	1758
2.15033	1705
2.15400	1654
2.15767	1603
2.16133	1549
2.16500	1490
2.16867	1430
2.17233	1376
2.17600	1333
2.17967	1297
2.18333	1268
2.18700	1239
2.19067	1206
2.19433	1174
2.19800	1143
2.20167	1112
2.20533	1081
2.20900	1053
2.21267	1029
2.21633	1009
2.22000	990
2.22367	970
2.22733	945
2.23100	917
2.23467	892
2.23833	870
2.24200	852
2.24567	833
2.24933	814
2.25300	798
2.25667	783
2.26033	764
2.26400	747
2.26767	740
2.27133	735
2.27500	725
2.27867	709
2.28233	691
2.28600	672
2.28967	650
2.29333	630
2.29700	617
2.30067	609
2.30433	604
2.30800	596
2.31167	584
2.31533	570
2.31900	555
2.32267	543
2.32633	534
2.33000	527
2.33367	521
2.33733	522
2.34100	521
2.34467	516
2.34833	506
2.35200	493
2.35567	477
2.35933	463
2.36300	458
2.36667	459
2.37033	463
2.37400	468
2.37767	469
2.38133	465
2.38500	457
2.38867	451
2.39233	446
2.39600	444
2.39967	441
2.40333	440
2.40700	441
2.41067	438
2.41433	432
2.41800	431
2.42167	430
2.42533	429
2.42900	427
2.43267	420
2.43633	422
2.44000	419
2.44367	413
2.44733	409
2.45100	407
2.45467	404
2.45833	401
2.46200	396
2.46567	394
2.46933	393
2.47300	392
2.47667	387
2.48033	383
2.48400	382
2.48767	382
2.49133	381
2.49500	378
2.49867	375
2.50233	371
2.50600	364
2.50967	357
2.51333	354
2.51700	355
2.52067	357
2.52433	362
2.52800	368
2.53167	374
2.53533	376
2.53900	377
2.54267	375
2.54633	376
2.55000	375
2.55367	373
2.55733	363
2.56100	346
2.56467	328
2.56833	313
2.57200	304
2.57567	301
2.57933	302
2.58300	306
2.58667	310
2.59033	309
2.59400	301
2.59767	294
2.60133	299
2.60500	311
2.60867	317
2.61233	315
2.61600	312
2.61967	311
2.62333	311
2.62700	306
2.63067	299
2.63433	288
2.63800	279
2.64167	272
2.64533	267
2.64900	265
2.65267	258
2.65633	252
2.66000	250
2.66367	250
2.66733	250
2.67100	251
2.67467	251
2.67833	253
2.68200	254
2.68567	256
2.68933	258
2.69300	257
2.69667	253
2.70033	249
2.70400	244
2.70767	239
2.71133	236
2.71500	237
2.71867	242
2.72233	245
2.72600	248
2.72967	244
2.73333	237
2.73700	230
2.74067	227
2.74433	230
2.74800	237
2.75167	243
2.75533	243
2.75900	240
2.76267	240
2.76633	240
2.77000	239
2.77367	239
2.77733	240
2.78100	240
2.78467	238
2.78833	233
2.79200	231
2.79567	228
2.79933	227
2.80300	228
2.80667	227
2.81033	223
2.81400	221
2.81767	221
2.82133	219
2.82500	215
2.82867	208
2.83233	201
2.83600	197
2.83967	198
2.84333	198
2.84700	194
2.85067	190
2.85433	188
2.85800	188
2.86167	186
2.86533	181
2.86900	179
2.87267	181
2.87633	184
2.88000	189
2.88367	196
2.88733	199
2.89100	198
2.89467	199
2.89833	204
2.90200	206
2.90567	204
2.90933	198
2.91300	194
2.91667	193
2.92033	192
2.92400	192
2.92767	195
2.93133	195
2.93500	190
2.93867	187
2.94233	188
2.94600	196
2.94967	202
2.95333	202
2.95700	198
2.96067	193
2.96433	186
2.96800	178
2.97167	170
2.97533	166
2.97900	167
2.98267	172
2.98633	172
2.99000	166
2.99367	162
2.99733	163
3.00100	165
3.00467	165
3.00833	165
3.01200	165
3.01567	167
3.01933	171
3.02300	179
3.02667	188
3.03033	194
3.03400	192
3.03767	181
3.04133	168
3.04500	160
3.04867	154
3.05233	148
3.05600	140
3.05967	136
3.06333	139
3.06700	146
3.07067	154
3.07433	160
3.07800	162
3.08167	159
3.08533	149
3.08900	133
3.09267	120
3.09633	112
3.10000	109
3.10367	114
3.10733	123
3.11100	129
3.11467	130
3.11833	127
3.12200	124
3.12567	124
3.12933	126
3.13300	131
3.13667	140
3.14033	148
3.14400	150
3.14767	147
3.15133	146
3.15500	146
3.15867	145
3.16233	146
3.16600	146
3.16967	144
3.17333	144
3.17700	151
3.18067	156
3.18433	154
3.18800	143
3.19167	128
3.19533	117
3.19900	113
3.20267	114
3.20633	116
3.21000	119
3.21367	126
3.21733	132
3.22100	128
3.22467	119
3.22833	106
3.23200	96
3.23567	89
3.23933	87
3.24300	89
3.24667	95
3.25033	102
3.25400	111
3.25767	115
3.26133	111
3.26500	103
3.26867	100
3.27233	104
3.27600	109
3.27967	111
3.28333	117
3.28700	122
3.29067	127
3.29433	128
3.29800	127
3.30167	122
3.30533	113
3.30900	106
3.31267	98
3.31633	88
3.32000	77
3.32367	68
3.32733	63
3.33100	65
3.33467	71
3.33833	77
3.34200	80
3.34567	83
3.34933	84
3.35300	89
3.35667	97
3.36033	99
3.36400	98
3.36767	98
3.37133	98
3.37500	97
3.37867	97
3.38233	100
3.38600	104
3.38967	111
3.39333	118
3.39700	120
3.40067	118
3.40433	119
3.40800	121
3.41167	119
3.41533	112
3.41900	103
3.42267	94
3.42633	88
3.43000	85
3.43367	84
3.43733	82
3.44100	79
3.44467	73
3.44833	67
3.45200	62
3.45567	61
3.45933	63
3.46300	65
3.46667	68
3.47033	73
3.47400	77
3.47767	78
3.48133	77
3.48500	77
3.48867	79
3.49233	84
3.49600	93
3.49967	104
3.50333	107
3.50700	106
3.51067	103
3.51433	101
3.51800	96
3.52167	89
3.52533	84
3.52900	81
3.53267	81
3.53633	87
3.54000	95
3.54367	96
3.54733	87
3.55100	71
3.55467	52
3.55833	38
3.56200	30
3.56567	26
3.56933	29
3.57300	36
3.57667	45
3.58033	50
3.58400	51
3.58767	50
3.59133	50
3.59500	48
3.59867	49
3.60233	57
3.60600	68
3.60967	75
3.61333	75
3.61700	71
3.62067	67
3.62433	66
3.62800	68
3.63167	68
3.63533	61
3.63900	49
3.64267	35
3.64633	25
3.65000	20
3.65367	20
3.65733	27
3.66100	38
3.66467	48
3.66833	52
3.67200	54
3.67567	55
3.67933	54
3.68300	52
3.68667	48
3.69033	45
3.69400	44
3.69767	46
3.70133	50
3.70500	53
3.70867	50
3.71233	46
3.71600	45
3.71967	47
3.72333	47
3.72700	44
3.73067	42
3.73433	46
3.73800	50
3.74167	52
3.74533	51
3.74900	50
3.75267	48
3.75633	47
3.76000	42
3.76367	34
3.76733	26
3.77100	20
3.77467	15
3.77833	14
3.78200	19
3.78567	25
3.78933	31
3.79300	36
3.79667	41
3.80033	45
3.80400	45
3.80767	38
3.81133	29
3.81500	20
3.81867	16
3.82233	17
3.82600	20
3.82967	20
3.83333	19
3.83700	18
3.84067	15
3.84433	12
3.84800	14
3.85167	18
3.85533	20
3.85900	21
3.86267	18
3.86633	11
3.87000	8
3.87367	9
3.87733	13
3.88100	16
3.88467	18
3.88833	18
3.89200	19
3.89567	23
3.89933	28
3.90300	30
3.90667	28
3.91033	27
3.91400	27
3.91767	25
3.92133	22
3.92500	18
3.92867	13
3.93233	14
3.93600	18
3.93967	18
3.94333	15
3.94700	12
3.95067	9
3.95433	6
3.95800	6
3.96167	8
3.96533	9
3.96900	7
3.97267	3
3.97633	2
3.98000	5
3.98367	5
3.98733	3
3.99100	3
3.99467	1
3.99833	1

[Chromatogram (Ch2)]
Interval(msec)	220
# of Points	1091
Start Time(min)	0.002
End Time(min)	3.998
R.Time (min)	Intensity
0.00167	-0
0.00533	-1
0.00900	-1
0.01267	-1
0.01633	-1
0.02000	-1
0.02367	-1
0.02733	-1
0.03100	-1
0.03467	-1
0.03833	-1
0.04200	-1
0.04567	-1
0.04933	-1
0.05300	-1
0.05667	-2
0.06033	-2
0.06400	-3
0.06767	-3
0.07133	-3
0.07500	-3
0.07867	-4
0.08233	-4
0.08600	-4
0.08967	-4
0.09333	-4
0.09700	-5
0.10067	-5
0.10433	-5
0.10800	-4
0.11167	-4
0.11533	-4
0.11900	-4
0.12267	-4
0.12633	-4
0.13000	-4
0.13367	-5
0.13733	-5
0.14100	-5
0.14467	-5
0.14833	-6
0.15200	-6
0.15567	-6
0.15933	-6
0.16300	-5
0.16667	-5
0.17033	-6
0.17400	-6
0.17767	-6
0.18133	-6
0.18500	-6
0.18867	-6
0.19233	-6
0.19600	-6
0.19967	-5
0.20333	-5
0.20700	-5
0.21067	-5
0.21433	-5
0.21800	-4
0.22167	-4
0.22533	-4
0.22900	-3
0.23267	-3
0.23633	-3
0.24000	-3
0.24367	-3
0.24733	-3
0.25100	-3
0.25467	-3
0.25833	-2
0.26200	-2
0.26567	-2
0.26933	-2
0.27300	-2
0.27667	-2
0.28033	-2
0.28400	-2
0.28767	-2
0.29133	-2
0.29500	-2
0.29867	-2
0.30233	-2
0.30600	-3
0.30967	-3
0.31333	-3
0.31700	-3
0.32067	-4
0.32433	-4
0.32800	-4
0.33167	-5
0.33533	-6
0.33900	-6
0.34267	-7
0.34633	-7
0.35000	-7
0.35367	-7
0.35733	-7
0.36100	-7
0.36467	-6
0.36833	-6
0.37200	-5
0.37567	-5
0.37933	-5
0.38300	-5
0.38667	-5
0.39033	-5
0.39400	-6
0.39767	-6
0.40133	-6
0.40500	-6
0.40867	-6
0.41233	-6
0.41600	-6
0.41967	-6
0.42333	-6
0.42700	-6
0.43067	-6
0.43433	-6
0.43800	-6
0.44167	-6
0.44533	-7
0.44900	-7
0.45267	-7
0.45633	-7
0.46000	-7
0.46367	-7
0.46733	-7
0.47100	-7
0.47467	-7
0.47833	-7
0.48200	-7
0.48567	-7
0.48933	-7
0.49300	-7
0.49667	-7
0.50033	-6
0.50400	-6
0.50767	-6
0.51133	-6
0.51500	-6
0.51867	-6
0.52233	-6
0.52600	-6
0.52967	-6
0.53333	-6
0.53700	-5
0.54067	-5
0.54433	-5
0.54800	-5
0.55167	-5
0.55533	-5
0.55900	-5
0.56267	-5
0.56633	-5
0.57000	-5
0.57367	-5
0.57733	-5
0.58100	-5
0.58467	-5
0.58833	-5
0.59200	-5
0.59567	-5
0.59933	-5
0.60300	-5
0.60667	-6
0.61033	-6
0.61400	-6
0.61767	-6
0.62133	-7
0.62500	-7
0.62867	-7
0.63233	-7
0.63600	-7
0.63967	-7
0.64333	-7
0.64700	-7
0.65067	-7
0.65433	-7
0.65800	-6
0.66167	-6
0.66533	-6
0.66900	-6
0.67267	-6
0.67633	-6
0.68000	-6
0.68367	-6
0.68733	-6
0.69100	-6
0.69467	-6
0.69833	-5
0.70200	-5
0.70567	-5
0.70933	-5
0.71300	-5
0.71667	-5
0.72033	-4
0.72400	-5
0.72767	-5
0.73133	-5
0.73500	-5
0.73867	-5
0.74233	-5
0.74600	-5
0.74967	-5
0.75333	-4
0.75700	-4
0.76067	-4
0.76433	-3
0.76800	-3
0.77167	-3
0.77533	-2
0.77900	-2
0.78267	-2
0.78633	-2
0.79000	-1
0.79367	-1
0.79733	-1
0.80100	-1
0.80467	-1
0.80833	-1
0.81200	-2
0.81567	-2
0.81933	-2
0.82300	-3
0.82667	-3
0.83033	-4
0.83400	-4
0.83767	-5
0.84133	-6
0.84500	-6
0.84867	-6
0.85233	-6
0.85600	-6
0.85967	-6
0.86333	-5
0.86700	-5
0.87067	-5
0.87433	-5
0.87800	-5
0.88167	-5
0.88533	-5
0.88900	-5
0.89267	-5
0.89633	-5
0.90000	-6
0.90367	-6
0.90733	-6
0.91100	-7
0.91467	-7
0.91833	-7
0.92200	-7
0.92567	-7
0.92933	-7
0.93300	-7
0.93667	-7
0.94033	-6
0.94400	-6
0.94767	-6
0.95133	-6
0.95500	-6
0.95867	-5
0.96233	-5
0.96600	-5
0.96967	-5
0.97333	-5
0.97700	-4
0.98067	-4
0.98433	-4
0.98800	-4
0.99167	-4
0.99533	-4
0.99900	-4
1.00267	-4
1.00633	-4
1.01000	-4
1.01367	-4
1.01733	-4
1.02100	-4
1.02467	-4
1.02833	-4
1.03200	-4
1.03567	-4
1.03933	-4
1.04300	-4
1.04667	-4
1.05033	-4
1.05400	-4
1.05767	-4
1.06133	-4
1.06500	-4
1.06867	-5
1.07233	-5
1.07600	-5
1.07967	-5
1.08333	-5
1.08700	-5
1.09067	-5
1.09433	-5
1.09800	-5
1.10167	-5
1.10533	-5
1.10900	-6
1.11267	-6
1.11633	-6
1.12000	-7
1.12367	-7
1.12733	-7
1.13100	-7
1.13467	-7
1.13833	-7
1.14200	-6
1.14567	-6
1.14933	-7
1.15300	-7
1.15667	-7
1.16033	-7
1.16400	-7
1.16767	-7
1.17133	-7
1.17500	-7
1.17867	-6
1.18233	-6
1.18600	-6
1.18967	-6
1.19333	-6
1.19700	-6
1.20067	-6
1.20433	-6
1.20800	-6
1.21167	-6
1.21533	-6
1.21900	-5
1.22267	-5
1.22633	-4
1.23000	-4
1.23367	-4
1.23733	-4
1.24100	-4
1.24467	-5
1.24833	-5
1.25200	-5
1.25567	-6
1.25933	-6
1.26300	-6
1.26667	-7
1.27033	-7
1.27400	-7
1.27767	-6
1.28133	-7
1.28500	-7
1.28867	-7
1.29233	-7
1.29600	-7
1.29967	-7
1.30333	-6
1.30700	-6
1.31067	-6
1.31433	-6
1.31800	-6
1.32167	-6
1.32533	-6
1.32900	-6
1.33267	-6
1.33633	-6
1.34000	-6
1.34367	-6
1.34733	-6
1.35100	-7
1.35467	-7
1.35833	-7
1.36200	-7
1.36567	-7
1.36933	-8
1.37300	-8
1.37667	-8
1.38033	-8
1.38400	-8
1.38767	-8
1.39133	-8
1.39500	-8
1.39867	-8
1.40233	-9
1.40600	-9
1.40967	-9
1.41333	-9
1.41700	-9
1.42067	-9
1.42433	-9
1.42800	-9
1.43167	-9
1.43533	-8
1.43900	-8
1.44267	-8
1.44633	-7
1.45000	-7
1.45367	-7
1.45733	-7
1.46100	-6
1.46467	-6
1.46833	-6
1.47200	-6
1.47567	-6
1.47933	-6
1.48300	-6
1.48667	-6
1.49033	-6
1.49400	-6
1.49767	-5
1.50133	-5
1.50500	-5
1.50867	-5
1.51233	-5
1.51600	-5
1.51967	-5
1.52333	-4
1.52700	-4
1.53067	-4
1.53433	-4
1.53800	-4
1.54167	-4
1.54533	-4
1.54900	-4
1.55267	-4
1.55633	-4
1.56000	-5
1.56367	-5
1.56733	-6
1.57100	-6
1.57467	-6
1.57833	-6
1.58200	-7
1.58567	-7
1.58933	-8
1.59300	-8
1.59667	-8
1.60033	-9
1.60400	-10
1.60767	-11
1.61133	-13
1.61500	-15
1.61867	-17
1.62233	-20
1.62600	-23
1.62967	-26
1.63333	-29
1.63700	-33
1.64067	-36
1.64433	-39
1.64800	-43
1.65167	-46
1.65533	-50
1.65900	-53
1.66267	-57
1.66633	-62
1.67000	-66
1.67367	-70
1.67733	-75
1.68100	-81
1.68467	-86
1.68833	-91
1.69200	-96
1.69567	-100
1.69933	-104
1.70300	-107
1.70667	-109
1.71033	-110
1.71400	-112
1.71767	-112
1.72133	-113
1.72500	-113
1.72867	-113
1.73233	-113
1.73600	-113
1.73967	-113
1.74333	-114
1.74700	-115
1.75067	-116
1.75433	-118
1.75800	-119
1.76167	-119
1.76533	-120
1.76900	-120
1.77267	-120
1.77633	-120
1.78000	-119
1.78367	-119
1.78733	-118
1.79100	-118
1.79467	-117
1.79833	-117
1.80200	-118
1.80567	-118
1.80933	-118
1.81300	-118
1.81667	-118
1.82033	-118
1.82400	-118
1.82767	-118
1.83133	-118
1.83500	-119
1.83867	-119
1.84233	-120
1.84600	-120
1.84967	-121
1.85333	-121
1.85700	-121
1.86067	-121
1.86433	-121
1.86800	-121
1.87167	-121
1.87533	-121
1.87900	-121
1.88267	-121
1.88633	-121
1.89000	-121
1.89367	-121
1.89733	-120
1.90100	-120
1.90467	-119
1.90833	-118
1.91200	-118
1.91567	-117
1.91933	-117
1.92300	-117
1.92667	-117
1.93033	-117
1.93400	-117
1.93767	-117
1.94133	-117
1.94500	-116
1.94867	-116
1.95233	-116
1.95600	-115
1.95967	-115
1.96333	-116
1.96700	-116
1.97067	-116
1.97433	-116
1.97800	-116
1.98167	-116
1.98533	-116
1.98900	-116
1.99267	-116
1.99633	-116
2.00000	-115
2.00367	-115
2.00733	-115
2.01100	-115
2.01467	-115
2.01833	-114
2.02200	-114
2.02567	-114
2.02933	-113
2.03300	-112
2.03667	-112
2.04033	-112
2.04400	-112
2.04767	-112
2.05133	-111
2.05500	-111
2.05867	-111
2.06233	-111
2.06600	-110
2.06967	-110
2.07333	-109
2.07700	-109
2.08067	-109
2.08433	-109
2.08800	-109
2.09167	-108
2.09533	-108
2.09900	-107
2.10267	-107
2.10633	-106
2.11000	-106
2.11367	-105
2.11733	-105
2.12100	-105
2.12467	-104
2.12833	-104
2.13200	-103
2.13567	-103
2.13933	-103
2.14300	-103
2.14667	-103
2.15033	-103
2.15400	-103
2.15767	-103
2.16133	-102
2.16500	-102
2.16867	-101
2.17233	-100
2.17600	-99
2.17967	-99
2.18333	-99
2.18700	-99
2.19067	-99
2.19433	-98
2.19800	-98
2.20167	-98
2.20533	-98
2.20900	-97
2.21267	-97
2.21633	-96
2.22000	-96
2.22367	-95
2.22733	-95
2.23100	-94
2.23467	-94
2.23833	-94
2.24200	-94
2.24567	-95
2.24933	-95
2.25300	-96
2.25667	-96
2.26033	-96
2.26400	-95
2.26767	-95
2.27133	-94
2.27500	-94
2.27867	-93
2.28233	-93
2.28600	-93
2.28967	-92
2.29333	-92
2.29700	-91
2.30067	-91
2.30433	-90
2.30800	-90
2.31167	-90
2.31533	-89
2.31900	-89
2.32267	-88
2.32633	-88
2.33000	-88
2.33367	-87
2.33733	-87
2.34100	-86
2.34467	-86
2.34833	-86
2.35200	-85
2.35567	-84
2.35933	-84
2.36300	-83
2.36667	-82
2.37033	-80
2.37400	-78
2.37767	-76
2.38133	-72
2.38500	-68
2.38867	-64
2.39233	-60
2.39600	-55
2.39967	-50
2.40333	-46
2.40700	-41
2.41067	-37
2.41433	-33
2.41800	-30
2.42167	-27
2.42533	-25
2.42900	-23
2.43267	-21
2.43633	-20
2.44000	-19
2.44367	-17
2.44733	-16
2.45100	-14
2.45467	-13
2.45833	-11
2.46200	-10
2.46567	-9
2.46933	-8
2.47300	-6
2.47667	-5
2.48033	-4
2.48400	-3
2.48767	-1
2.49133	-0
2.49500	0
2.49867	1
2.50233	2
2.50600	2
2.50967	3
2.51333	4
2.51700	5
2.52067	6
2.52433	7
2.52800	7
2.53167	7
2.53533	8
2.53900	8
2.54267	8
2.54633	8
2.55000	9
2.55367	9
2.55733	10
2.56100	11
2.56467	11
2.56833	11
2.57200	11
2.57567	11
2.57933	11
2.58300	12
2.58667	12
2.59033	12
2.59400	12
2.59767	12
2.60133	11
2.60500	11
2.60867	10
2.61233	10
2.61600	10
2.61967	11
2.62333	11
2.62700	11
2.63067	12
2.63433	13
2.63800	13
2.64167	13
2.64533	13
2.64900	13
2.65267	14
2.65633	14
2.66000	15
2.66367	15
2.66733	15
2.67100	16
2.67467	16
2.67833	17
2.68200	17
2.68567	18
2.68933	18
2.69300	18
2.69667	18
2.70033	18
2.70400	18
2.70767	18
2.71133	18
2.71500	17
2.71867	17
2.72233	17
2.72600	17
2.72967	17
2.73333	17
2.73700	17
2.74067	18
2.74433	18
2.74800	19
2.75167	20
2.75533	20
2.75900	21
2.76267	21
2.76633	22
2.77000	22
2.77367	23
2.77733	23
2.78100	24
2.78467	24
2.78833	25
2.79200	25
2.79567	25
2.79933	25
2.80300	25
2.80667	24
2.81033	24
2.81400	23
2.81767	23
2.82133	22
2.82500	22
2.82867	21
2.83233	20
2.83600	20
2.83967	18
2.84333	16
2.84700	11
2.85067	4
2.85433	-5
2.85800	-18
2.86167	-35
2.86533	-56
2.86900	-82
2.87267	-112
2.87633	-146
2.88000	-184
2.88367	-225
2.88733	-270
2.89100	-317
2.89467	-367
2.89833	-419
2.90200	-472
2.90567	-525
2.90933	-579
2.91300	-634
2.91667	-688
2.92033	-741
2.92400	-793
2.92767	-844
2.93133	-897
2.93500	-954
2.93867	-1013
2.94233	-1066
2.94600	-1101
2.94967	-1111
2.95333	-1095
2.95700	-1056
2.96067	-998
2.96433	-927
2.96800	-849
2.97167	-769
2.97533	-688
2.97900	-611
2.98267	-539
2.98633	-472
2.99000	-411
2.99367	-356
2.99733	-308
3.00100	-265
3.00467	-227
3.00833	-194
3.01200	-165
3.01567	-140
3.01933	-119
3.02300	-101
3.02667	-85
3.03033	-71
3.03400	-60
3.03767	-50
3.04133	-41
3.04500	-34
3.04867	-28
3.05233	-22
3.05600	-18
3.05967	-14
3.06333	-11
3.06700	-8
3.07067	-5
3.07433	-3
3.07800	-1
3.08167	0
3.08533	1
3.08900	2
3.09267	3
3.09633	4
3.10000	4
3.10367	5
3.10733	6
3.11100	7
3.11467	7
3.11833	8
3.12200	9
3.12567	9
3.12933	10
3.13300	11
3.13667	11
3.14033	11
3.14400	11
3.14767	12
3.15133	12
3.15500	12
3.15867	12
3.16233	13
3.16600	13
3.16967	13
3.17333	13
3.17700	13
3.18067	13
3.18433	14
3.18800	14
3.19167	14
3.19533	14
3.19900	14
3.20267	14
3.20633	14
3.21000	14
3.21367	15
3.21733	15
3.22100	15
3.22467	15
3.22833	15
3.23200	15
3.23567	15
3.23933	15
3.24300	15
3.24667	15
3.25033	15
3.25400	16
3.25767	16
3.26133	16
3.26500	17
3.26867	17
3.27233	18
3.27600	18
3.27967	18
3.28333	19
3.28700	19
3.29067	19
3.29433	20
3.29800	20
3.30167	20
3.30533	20
3.30900	20
3.31267	20
3.31633	20
3.32000	20
3.32367	20
3.32733	20
3.33100	19
3.33467	19
3.33833	19
3.34200	20
3.34567	20
3.34933	20
3.35300	20
3.35667	20
3.36033	20
3.36400	21
3.36767	21
3.37133	21
3.37500	22
3.37867	22
3.38233	22
3.38600	22
3.38967	22
3.39333	22
3.39700	22
3.40067	22
3.40433	22
3.40800	23
3.41167	23
3.41533	23
3.41900	23
3.42267	23
3.42633	23
3.43000	23
3.43367	23
3.43733	23
3.44100	23
3.44467	23
3.44833	23
3.45200	23
3.45567	23
3.45933	23
3.46300	23
3.46667	23
3.47033	22
3.47400	22
3.47767	22
3.48133	22
3.48500	22
3.48867	23
3.49233	23
3.49600	23
3.49967	22
3.50333	22
3.50700	22
3.51067	22
3.51433	22
3.51800	22
3.52167	22
3.52533	22
3.52900	22
3.53267	22
3.53633	22
3.54000	22
3.54367	22
3.54733	22
3.55100	22
3.55467	22
3.55833	23
3.56200	23
3.56567	24
3.56933	24
3.57300	24
3.57667	24
3.58033	24
3.58400	24
3.58767	24
3.59133	24
3.59500	24
3.59867	24
3.60233	24
3.60600	23
3.60967	23
3.61333	23
3.61700	22
3.62067	22
3.62433	22
3.62800	22
3.63167	22
3.63533	21
3.63900	21
3.64267	21
3.64633	21
3.65000	21
3.65367	21
3.65733	21
3.66100	21
3.66467	21
3.66833	22
3.67200	22
3.67567	22
3.67933	23
3.68300	23
3.68667	24
3.69033	24
3.69400	24
3.69767	24
3.70133	24
3.70500	24
3.70867	25
3.71233	24
3.71600	24
3.71967	24
3.72333	24
3.72700	24
3.73067	24
3.73433	23
3.73800	23
3.74167	23
3.74533	23
3.74900	23
3.75267	23
3.75633	22
3.76000	23
3.76367	22
3.76733	22
3.77100	22
3.77467	22
3.77833	22
3.78200	21
3.78567	21
3.78933	21
3.79300	21
3.79667	22
3.80033	22
3.80400	22
3.80767	22
3.81133	21
3.81500	21
3.81867	21
3.82233	21
3.82600	21
3.82967	21
3.83333	22
3.83700	22
3.84067	22
3.84433	23
3.84800	23
3.85167	23
3.85533	23
3.85900	22
3.86267	22
3.86633	22
3.87000	22
3.87367	22
3.87733	22
3.88100	22
3.88467	22
3.88833	22
3.89200	22
3.89567	22
3.89933	22
3.90300	22
3.90667	22
3.91033	22
3.91400	22
3.91767	22
3.92133	22
3.92500	22
3.92867	22
3.93233	21
3.93600	21
3.93967	21
3.94333	21
3.94700	21
3.95067	21
3.95433	21
3.95800	21
3.96167	21
3.96533	21
3.96900	21
3.97267	21
3.97633	21
3.98000	21
3.98367	21
3.98733	21
3.99100	21
3.99467	21
3.99833	21

[Chromatogram (Ch3)]
Interval(msec)	220
# of Points	1091
Start Time(min)	0.002
End Time(min)	3.998
R.Time (min)	Intensity
0.00167	1
0.00533	3
0.00900	6
0.01267	6
0.01633	4
0.02000	4
0.02367	6
0.02733	7
0.03100	4
0.03467	3
0.03833	4
0.04200	6
0.04567	7
0.04933	4
0.05300	2
0.05667	2
0.06033	3
0.06400	2
0.06767	3
0.07133	6
0.07500	7
0.07867	5
0.08233	2
0.08600	1
0.08967	0
0.09333	-1
0.09700	1
0.10067	2
0.10433	1
0.10800	0
0.11167	-0
0.11533	-1
0.11900	-1
0.12267	1
0.12633	1
0.13000	-0
0.13367	-0
0.13733	1
0.14100	3
0.14467	4
0.14833	4
0.15200	4
0.15567	2
0.15933	2
0.16300	3
0.16667	4
0.17033	5
0.17400	7
0.17767	6
0.18133	5
0.18500	5
0.18867	5
0.19233	7
0.19600	8
0.19967	7
0.20333	5
0.20700	2
0.21067	2
0.21433	1
0.21800	-0
0.22167	-2
0.22533	-1
0.22900	-1
0.23267	-0
0.23633	0
0.24000	2
0.24367	6
0.24733	6
0.25100	6
0.25467	7
0.25833	8
0.26200	7
0.26567	3
0.26933	0
0.27300	0
0.27667	2
0.28033	6
0.28400	8
0.28767	8
0.29133	7
0.29500	7
0.29867	7
0.30233	8
0.30600	7
0.30967	6
0.31333	4
0.31700	4
0.32067	4
0.32433	2
0.32800	1
0.33167	2
0.33533	2
0.33900	3
0.34267	2
0.34633	2
0.35000	3
0.35367	3
0.35733	3
0.36100	4
0.36467	7
0.36833	9
0.37200	7
0.37567	8
0.37933	8
0.38300	6
0.38667	5
0.39033	4
0.39400	5
0.39767	4
0.40133	4
0.40500	4
0.40867	5
0.41233	4
0.41600	2
0.41967	2
0.42333	2
0.42700	2
0.43067	5
0.43433	7
0.43800	8
0.44167	8
0.44533	7
0.44900	7
0.45267	7
0.45633	5
0.46000	5
0.46367	7
0.46733	8
0.47100	9
0.47467	9
0.47833	8
0.48200	8
0.48567	7
0.48933	8
0.49300	8
0.49667	8
0.50033	10
0.50400	10
0.50767	9
0.51133	10
0.51500	10
0.51867	10
0.52233	8
0.52600	7
0.52967	8
0.53333	9
0.53700	7
0.54067	9
0.54433	9
0.54800	8
0.55167	9
0.55533	10
0.55900	10
0.56267	10
0.56633	10
0.57000	11
0.57367	11
0.57733	12
0.58100	11
0.58467	11
0.58833	10
0.59200	11
0.59567	11
0.59933	11
0.60300	10
0.60667	11
0.61033	12
0.61400	12
0.61767	12
0.62133	11
0.62500	8
0.62867	6
0.63233	6
0.63600	8
0.63967	11
0.64333	13
0.64700	14
0.65067	12
0.65433	11
0.65800	9
0.66167	7
0.66533	7
0.66900	6
0.67267	8
0.67633	10
0.68000	10
0.68367	10
0.68733	11
0.69100	12
0.69467	11
0.69833	12
0.70200	15
0.70567	15
0.70933	15
0.71300	14
0.71667	13
0.72033	13
0.72400	11
0.72767	11
0.73133	12
0.73500	13
0.73867	15
0.74233	14
0.74600	14
0.74967	15
0.75333	15
0.75700	17
0.76067	16
0.76433	17
0.76800	17
0.77167	16
0.77533	15
0.77900	13
0.78267	13
0.78633	14
0.79000	15
0.79367	16
0.79733	17
0.80100	18
0.80467	18
0.80833	16
0.81200	15
0.81567	15
0.81933	14
0.82300	13
0.82667	11
0.83033	11
0.83400	11
0.83767	11
0.84133	13
0.84500	13
0.84867	14
0.85233	15
0.85600	13
0.85967	11
0.86333	10
0.86700	11
0.87067	12
0.87433	13
0.87800	15
0.88167	15
0.88533	15
0.88900	13
0.89267	14
0.89633	15
0.90000	18
0.90367	18
0.90733	19
0.91100	18
0.91467	18
0.91833	19
0.92200	19
0.92567	19
0.92933	19
0.93300	19
0.93667	20
0.94033	20
0.94400	20
0.94767	19
0.95133	20
0.95500	18
0.95867	18
0.96233	20
0.96600	21
0.96967	23
0.97333	23
0.97700	23
0.98067	23
0.98433	25
0.98800	26
0.99167	25
0.99533	23
0.99900	20
1.00267	19
1.00633	21
1.01000	24
1.01367	26
1.01733	27
1.02100	25
1.02467	24
1.02833	24
1.03200	25
1.03567	25
1.03933	23
1.04300	22
1.04667	20
1.05033	20
1.05400	22
1.05767	23
1.06133	23
1.06500	23
1.06867	23
1.07233	21
1.07600	18
1.07967	18
1.08333	17
1.08700	17
1.09067	17
1.09433	18
1.09800	17
1.10167	17
1.10533	16
1.10900	15
1.11267	14
1.11633	14
1.12000	18
1.12367	21
1.12733	23
1.13100	22
1.13467	22
1.13833	23
1.14200	23
1.14567	21
1.14933	22
1.15300	23
1.15667	22
1.16033	21
1.16400	22
1.16767	22
1.17133	24
1.17500	24
1.17867	22
1.18233	21
1.18600	22
1.18967	25
1.19333	27
1.19700	26
1.20067	24
1.20433	23
1.20800	22
1.21167	21
1.21533	22
1.21900	25
1.22267	27
1.22633	27
1.23000	24
1.23367	22
1.23733	21
1.24100	22
1.24467	24
1.24833	24
1.25200	24
1.25567	24
1.25933	24
1.26300	22
1.26667	23
1.27033	25
1.27400	28
1.27767	29
1.28133	29
1.28500	30
1.28867	30
1.29233	29
1.29600	28
1.29967	28
1.30333	28
1.30700	28
1.31067	28
1.31433	28
1.31800	29
1.32167	28
1.32533	27
1.32900	28
1.33267	28
1.33633	28
1.34000	26
1.34367	26
1.34733	26
1.35100	26
1.35467	28
1.35833	30
1.36200	31
1.36567	32
1.36933	32
1.37300	32
1.37667	32
1.38033	30
1.38400	27
1.38767	25
1.39133	25
1.39500	27
1.39867	29
1.40233	31
1.40600	33
1.40967	34
1.41333	33
1.41700	29
1.42067	26
1.42433	27
1.42800	31
1.43167	30
1.43533	27
1.43900	26
1.44267	28
1.44633	28
1.45000	30
1.45367	32
1.45733	33
1.46100	33
1.46467	33
1.46833	32
1.47200	30
1.47567	31
1.47933	31
1.48300	32
1.48667	33
1.49033	33
1.49400	34
1.49767	35
1.50133	35
1.50500	35
1.50867	35
1.51233	36
1.51600	35
1.51967	36
1.52333	36
1.52700	36
1.53067	35
1.53433	33
1.53800	33
1.54167	34
1.54533	34
1.54900	33
1.55267	35
1.55633	36
1.56000	36
1.56367	38
1.56733	36
1.57100	33
1.57467	32
1.57833	33
1.58200	35
1.58567	35
1.58933	36
1.59300	38
1.59667	37
1.60033	37
1.60400	38
1.60767	40
1.61133	41
1.61500	41
1.61867	39
1.62233	38
1.62600	39
1.62967	41
1.63333	40
1.63700	41
1.64067	42
1.64433	42
1.64800	42
1.65167	41
1.65533	40
1.65900	42
1.66267	43
1.66633	43
1.67000	45
1.67367	46
1.67733	46
1.68100	48
1.68467	48
1.68833	49
1.69200	51
1.69567	52
1.69933	54
1.70300	55
1.70667	56
1.71033	54
1.71400	52
1.71767	50
1.72133	49
1.72500	48
1.72867	49
1.73233	50
1.73600	48
1.73967	49
1.74333	49
1.74700	50
1.75067	51
1.75433	53
1.75800	55
1.76167	54
1.76533	54
1.76900	56
1.77267	54
1.77633	53
1.78000	55
1.78367	58
1.78733	60
1.79100	60
1.79467	60
1.79833	58
1.80200	56
1.80567	57
1.80933	58
1.81300	59
1.81667	60
1.82033	60
1.82400	60
1.82767	59
1.83133	61
1.83500	62
1.83867	64
1.84233	66
1.84600	66
1.84967	66
1.85333	66
1.85700	64
1.86067	62
1.86433	59
1.86800	58
1.87167	59
1.87533	62
1.87900	63
1.88267	64
1.88633	66
1.89000	68
1.89367	70
1.89733	70
1.90100	70
1.90467	70
1.90833	72
1.91200	72
1.91567	74
1.91933	75
1.92300	75
1.92667	77
1.93033	79
1.93400	81
1.93767	80
1.94133	79
1.94500	78
1.94867	79
1.95233	79
1.95600	81
1.95967	83
1.96333	84
1.96700	86
1.97067	88
1.97433	89
1.97800	89
1.98167	89
1.98533	92
1.98900	95
1.99267	98
1.99633	97
2.00000	95
2.00367	94
2.00733	94
2.01100	94
2.01467	95
2.01833	97
2.02200	98
2.02567	98
2.02933	98
2.03300	96
2.03667	97
2.04033	97
2.04400	98
2.04767	100
2.05133	101
2.05500	104
2.05867	105
2.06233	107
2.06600	109
2.06967	110
2.07333	111
2.07700	112
2.08067	112
2.08433	112
2.08800	116
2.09167	118
2.09533	118
2.09900	117
2.10267	116
2.10633	115
2.11000	117
2.11367	120
2.11733	122
2.12100	124
2.12467	125
2.12833	124
2.13200	123
2.13567	124
2.13933	124
2.14300	124
2.14667	126
2.15033	129
2.15400	131
2.15767	133
2.16133	136
2.16500	139
2.16867	142
2.17233	143
2.17600	148
2.17967	153
2.18333	154
2.18700	153
2.19067	151
2.19433	151
2.19800	152
2.20167	154
2.20533	156
2.20900	158
2.21267	160
2.21633	163
2.22000	163
2.22367	165
2.22733	166
2.23100	169
2.23467	171
2.23833	171
2.24200	173
2.24567	174
2.24933	178
2.25300	180
2.25667	181
2.26033	182
2.26400	181
2.26767	180
2.27133	179
2.27500	179
2.27867	181
2.28233	184
2.28600	187
2.28967	190
2.29333	191
2.29700	193
2.30067	196
2.30433	198
2.30800	199
2.31167	202
2.31533	204
2.31900	206
2.32267	208
2.32633	208
2.33000	207
2.33367	206
2.33733	206
2.34100	209
2.34467	212
2.34833	214
2.35200	218
2.35567	223
2.35933	226
2.36300	228
2.36667	230
2.37033	230
2.37400	233
2.37767	236
2.38133	239
2.38500	241
2.38867	238
2.39233	236
2.39600	238
2.39967	242
2.40333	247
2.40700	253
2.41067	256
2.41433	258
2.41800	260
2.42167	261
2.42533	262
2.42900	266
2.43267	268
2.43633	271
2.44000	275
2.44367	319
2.44733	437
2.45100	564
2.45467	668
2.45833	729
2.46200	727
2.46567	683
2.46933	632
2.47300	594
2.47667	571
2.48033	557
2.48400	538
2.48767	509
2.49133	473
2.49500	436
2.49867	402
2.50233	375
2.50600	353
2.50967	339
2.51333	329
2.51700	328
2.52067	335
2.52433	350
2.52800	369
2.53167	384
2.53533	395
2.53900	397
2.54267	393
2.54633	381
2.55000	363
2.55367	340
2.55733	319
2.56100	299
2.56467	280
2.56833	264
2.57200	252
2.57567	243
2.57933	237
2.58300	237
2.58667	237
2.59033	235
2.59400	231
2.59767	226
2.60133	217
2.60500	206
2.60867	190
2.61233	173
2.61600	157
2.61967	142
2.62333	128
2.62700	119
2.63067	113
2.63433	113
2.63800	116
2.64167	123
2.64533	133
2.64900	144
2.65267	157
2.65633	167
2.66000	175
2.66367	182
2.66733	184
2.67100	185
2.67467	187
2.67833	187
2.68200	184
2.68567	179
2.68933	175
2.69300	173
2.69667	169
2.70033	164
2.70400	157
2.70767	151
2.71133	146
2.71500	144
2.71867	140
2.72233	137
2.72600	135
2.72967	132
2.73333	130
2.73700	127
2.74067	124
2.74433	123
2.74800	123
2.75167	123
2.75533	123
2.75900	125
2.76267	126
2.76633	127
2.77000	128
2.77367	130
2.77733	132
2.78100	132
2.78467	131
2.78833	132
2.79200	132
2.79567	131
2.79933	132
2.80300	134
2.80667	133
2.81033	134
2.81400	137
2.81767	144
2.82133	162
2.82500	201
2.82867	276
2.83233	409
2.83600	623
2.83967	938
2.84333	1353
2.84700	1859
2.85067	2426
2.85433	3015
2.85800	3581
2.86167	4074
2.86533	4456
2.86900	4707
2.87267	4819
2.87633	4794
2.88000	4652
2.88367	4420
2.88733	4125
2.89100	3796
2.89467	3454
2.89833	3117
2.90200	2794
2.90567	2489
2.90933	2208
2.91300	1953
2.91667	1725
2.92033	1525
2.92400	1348
2.92767	1193
2.93133	1058
2.93500	939
2.93867	837
2.94233	747
2.94600	669
2.94967	602
2.95333	543
2.95700	492
2.96067	449
2.96433	410
2.96800	374
2.97167	346
2.97533	322
2.97900	284
2.98267	226
2.98633	185
2.99000	177
2.99367	188
2.99733	208
3.00100	236
3.00467	268
3.00833	303
3.01200	340
3.01567	379
3.01933	417
3.02300	453
3.02667	485
3.03033	516
3.03400	543
3.03767	563
3.04133	578
3.04500	589
3.04867	600
3.05233	608
3.05600	615
3.05967	618
3.06333	621
3.06700	622
3.07067	623
3.07433	622
3.07800	619
3.08167	614
3.08533	611
3.08900	610
3.09267	606
3.09633	602
3.10000	600
3.10367	599
3.10733	599
3.11100	602
3.11467	602
3.11833	600
3.12200	597
3.12567	595
3.12933	595
3.13300	595
3.13667	597
3.14033	595
3.14400	595
3.14767	597
3.15133	599
3.15500	600
3.15867	602
3.16233	602
3.16600	602
3.16967	605
3.17333	607
3.17700	609
3.18067	610
3.18433	612
3.18800	616
3.19167	620
3.19533	622
3.19900	622
3.20267	621
3.20633	623
3.21000	628
3.21367	634
3.21733	638
3.22100	641
3.22467	642
3.22833	643
3.23200	645
3.23567	645
3.23933	643
3.24300	642
3.24667	642
3.25033	643
3.25400	644
3.25767	645
3.26133	646
3.26500	645
3.26867	644
3.27233	644
3.27600	643
3.27967	641
3.28333	640
3.28700	639
3.29067	639
3.29433	639
3.29800	638
3.30167	636
3.30533	634
3.30900	632
3.31267	632
3.31633	633
3.32000	631
3.32367	627
3.32733	623
3.33100	620
3.33467	619
3.33833	620
3.34200	619
3.34567	617
3.34933	615
3.35300	613
3.35667	610
3.36033	609
3.36400	610
3.36767	608
3.37133	606
3.37500	603
3.37867	601
3.38233	600
3.38600	599
3.38967	598
3.39333	598
3.39700	595
3.40067	592
3.40433	586
3.40800	582
3.41167	581
3.41533	580
3.41900	581
3.42267	582
3.42633	579
3.43000	578
3.43367	577
3.43733	573
3.44100	569
3.44467	566
3.44833	562
3.45200	559
3.45567	557
3.45933	556
3.46300	555
3.46667	553
3.47033	551
3.47400	549
3.47767	548
3.48133	546
3.48500	544
3.48867	541
3.49233	538
3.49600	535
3.49967	534
3.50333	532
3.50700	529
3.51067	527
3.51433	527
3.51800	526
3.52167	524
3.52533	521
3.52900	518
3.53267	517
3.53633	514
3.54000	513
3.54367	512
3.54733	512
3.55100	513
3.55467	513
3.55833	512
3.56200	512
3.56567	512
3.56933	512
3.57300	515
3.57667	514
3.58033	511
3.58400	507
3.58767	505
3.59133	506
3.59500	506
3.59867	505
3.60233	505
3.60600	506
3.60967	505
3.61333	505
3.61700	503
3.62067	502
3.62433	502
3.62800	501
3.63167	502
3.63533	503
3.63900	502
3.64267	499
3.64633	496
3.65000	493
3.65367	491
3.65733	490
3.66100	490
3.66467	490
3.66833	491
3.67200	490
3.67567	490
3.67933	492
3.68300	493
3.68667	491
3.69033	489
3.69400	487
3.69767	485
3.70133	485
3.70500	485
3.70867	483
3.71233	481
3.71600	481
3.71967	482
3.72333	483
3.72700	482
3.73067	484
3.73433	485
3.73800	484
3.74167	482
3.74533	478
3.74900	473
3.75267	470
3.75633	470
3.76000	471
3.76367	473
3.76733	475
3.77100	475
3.77467	474
3.77833	473
3.78200	471
3.78567	470
3.78933	469
3.79300	469
3.79667	468
3.80033	465
3.80400	465
3.80767	465
3.81133	466
3.81500	466
3.81867	466
3.82233	468
3.82600	467
3.82967	467
3.83333	466
3.83700	462
3.84067	459
3.84433	457
3.84800	454
3.85167	451
3.85533	451
3.85900	452
3.86267	451
3.86633	448
3.87000	445
3.87367	445
3.87733	446
3.88100	444
3.88467	441
3.88833	440
3.89200	439
3.89567	440
3.89933	441
3.90300	438
3.90667	437
3.91033	436
3.91400	435
3.91767	433
3.92133	432
3.92500	430
3.92867	427
3.93233	424
3.93600	424
3.93967	426
3.94333	427
3.94700	427
3.95067	425
3.95433	423
3.95800	422
3.96167	419
3.96533	419
3.96900	418
3.97267	417
3.97633	416
3.98000	412
3.98367	411
3.98733	412
3.99100	411
3.99467	409
3.99833	404

[Status Trace (Column Oven Temperature)]
Interval(msec)	1000
# of Points	240
Start Time(min)	0.014
End Time(min)	3.997
Intensity Units	
Intensity Multiplier	1
R.Time (min)	Intensity
0.01378	34.97
0.03045	34.96
0.04712	34.97
0.06378	34.98
0.08045	34.99
0.09712	35.01
0.11378	35.01
0.13045	35.02
0.14712	35.03
0.16378	35.03
0.18045	35.04
0.19712	35.04
0.21378	35.03
0.23045	35.02
0.24712	35.01
0.26378	35.00
0.28045	35.00
0.29712	34.99
0.31378	34.99
0.33045	34.99
0.34712	35.01
0.36378	35.01
0.38045	35.01
0.39712	35.01
0.41378	35.01
0.43045	35.02
0.44712	35.02
0.46378	35.03
0.48045	35.04
0.49712	35.04
0.51378	35.04
0.53045	35.04
0.54712	35.03
0.56378	35.03
0.58045	35.03
0.59712	35.03
0.61378	35.04
0.63045	35.04
0.64712	35.05
0.66378	35.04
0.68045	35.04
0.69712	35.03
0.71378	35.03
0.73045	35.03
0.74712	35.03
0.76378	35.01
0.78045	35.00
0.79712	34.98
0.81378	34.99
0.83045	35.01
0.84712	35.01
0.86378	35.00
0.88045	35.00
0.89712	35.00
0.91378	35.01
0.93045	35.01
0.94712	35.01
0.96378	35.01
0.98045	35.00
0.99712	34.99
1.01378	34.99
1.03045	34.99
1.04712	34.98
1.06378	34.98
1.08045	34.97
1.09712	34.98
1.11378	34.99
1.13045	35.00
1.14712	35.00
1.16378	35.00
1.18045	34.99
1.19712	34.99
1.21378	34.98
1.23045	34.98
1.24712	34.97
1.26378	34.98
1.28045	34.99
1.29712	34.99
1.31378	35.00
1.33045	34.99
1.34712	34.99
1.36378	34.99
1.38045	35.01
1.39712	35.02
1.41378	35.02
1.43045	35.03
1.44712	35.02
1.46378	35.02
1.48045	35.01
1.49712	35.01
1.51378	34.99
1.53045	34.98
1.54712	34.97
1.56378	34.98
1.58045	34.99
1.59712	35.03
1.61378	35.11
1.63045	35.25
1.64712	35.45
1.66378	35.72
1.68045	36.09
1.69712	36.46
1.71378	36.81
1.73045	37.12
1.74712	37.47
1.76378	37.82
1.78045	38.12
1.79712	38.45
1.81378	38.79
1.83045	39.11
1.84712	39.44
1.86378	39.77
1.88045	40.11
1.89712	40.43
1.91378	40.74
1.93045	41.08
1.94712	41.40
1.96378	41.73
1.98045	42.07
1.99712	42.37
2.01378	42.71
2.03045	43.04
2.04712	43.36
2.06378	43.68
2.08045	44.02
2.09712	44.34
2.11378	44.69
2.13045	45.00
2.14712	45.34
2.16378	45.64
2.18045	45.96
2.19712	46.29
2.21378	46.61
2.23045	46.93
2.24712	47.30
2.26378	47.63
2.28045	47.96
2.29712	48.29
2.31378	48.62
2.33045	48.94
2.34712	49.24
2.36378	49.54
2.38045	49.70
2.39712	49.73
2.41378	49.71
2.43045	49.70
2.44712	49.72
2.46378	49.73
2.48045	49.72
2.49712	49.74
2.51378	49.74
2.53045	49.76
2.54712	49.78
2.56378	49.79
2.58045	49.79
2.59712	49.81
2.61378	49.83
2.63045	49.83
2.64712	49.84
2.66378	49.85
2.68045	49.84
2.69712	49.85
2.71378	49.88
2.73045	49.90
2.74712	49.88
2.76378	49.87
2.78045	49.85
2.79712	49.84
2.81378	49.87
2.83045	49.89
2.84712	49.90
2.86378	49.90
2.88045	49.91
2.89712	49.90
2.91378	49.91
2.93045	49.93
2.94712	49.94
2.96378	49.95
2.98045	49.95
2.99712	49.97
3.01378	49.98
3.03045	49.98
3.04712	49.99
3.06378	50.00
3.08045	50.01
3.09712	50.02
3.11378	50.02
3.13045	50.03
3.14712	50.03
3.16378	50.04
3.18045	50.04
3.19712	50.05
3.21378	50.07
3.23045	50.08
3.24712	50.09
3.26378	50.09
3.28045	50.08
3.29712	50.08
3.31378	50.09
3.33045	50.10
3.34712	50.11
3.36378	50.10
3.38045	50.09
3.39712	50.08
3.41378	50.08
3.43045	50.07
3.44712	50.07
3.46378	50.07
3.48045	50.07
3.49712	50.08
3.51378	50.08
3.53045	50.08
3.54712	50.08
3.56378	50.06
3.58045	50.06
3.59712	50.05
3.61378	50.07
3.63045	50.08
3.64712	50.08
3.66378	50.08
3.68045	50.07
3.69712	50.05
3.71378	50.05
3.73045	50.05
3.74712	50.05
3.76378	50.05
3.78045	50.06
3.79712	50.07
3.81378	50.08
3.83045	50.07
3.84712	50.06
3.86378	50.06
3.88045	50.07
3.89712	50.06
3.91378	50.05
3.93045	50.06
3.94712	50.07
3.96378	50.07
3.98045	50.06
3.99712	50.05

[Status Trace (Injection Unit Temperature)]
Interval(msec)	1000
# of Points	240
Start Time(min)	0.014
End Time(min)	3.997
Intensity Units	
Intensity Multiplier	1
R.Time (min)	Intensity
0.01378	99.98
0.03045	99.98
0.04712	99.98
0.06378	99.98
0.08045	99.98
0.09712	99.98
0.11378	99.98
0.13045	99.98
0.14712	99.98
0.16378	99.98
0.18045	99.98
0.19712	99.99
0.21378	99.99
0.23045	99.99
0.24712	99.98
0.26378	99.99
0.28045	99.98
0.29712	99.99
0.31378	99.99
0.33045	99.99
0.34712	99.99
0.36378	99.98
0.38045	99.99
0.39712	99.99
0.41378	99.98
0.43045	99.99
0.44712	99.99
0.46378	99.99
0.48045	99.99
0.49712	99.99
0.51378	99.99
0.53045	99.99
0.54712	99.99
0.56378	99.99
0.58045	99.99
0.59712	99.99
0.61378	99.99
0.63045	99.98
0.64712	99.98
0.66378	99.99
0.68045	99.98
0.69712	99.98
0.71378	99.98
0.73045	99.98
0.74712	99.98
0.76378	99.98
0.78045	99.99
0.79712	99.98
0.81378	99.98
0.83045	99.99
0.84712	99.99
0.86378	99.98
0.88045	99.98
0.89712	99.98
0.91378	99.98
0.93045	99.99
0.94712	99.98
0.96378	99.98
0.98045	99.98
0.99712	99.99
1.01378	99.98
1.03045	99.98
1.04712	99.98
1.06378	99.99
1.08045	99.98
1.09712	99.99
1.11378	99.98
1.13045	99.98
1.14712	99.99
1.16378	99.99
1.18045	99.98
1.19712	99.98
1.21378	99.99
1.23045	99.99
1.24712	99.98
1.26378	99.99
1.28045	99.98
1.29712	99.98
1.31378	99.98
1.33045	99.98
1.34712	99.99
1.36378	99.98
1.38045	99.99
1.39712	99.98
1.41378	99.98
1.43045	99.98
1.44712	99.98
1.46378	99.98
1.48045	99.98
1.49712	99.98
1.51378	99.99
1.53045	99.98
1.54712	99.98
1.56378	99.99
1.58045	99.98
1.59712	99.99
1.61378	99.99
1.63045	99.98
1.64712	99.99
1.66378	99.99
1.68045	99.98
1.69712	99.98
1.71378	99.99
1.73045	99.98
1.74712	99.98
1.76378	99.98
1.78045	99.98
1.79712	99.98
1.81378	99.98
1.83045	99.99
1.84712	99.98
1.86378	99.98
1.88045	99.98
1.89712	99.97
1.91378	99.98
1.93045	99.98
1.94712	99.98
1.96378	99.98
1.98045	99.98
1.99712	99.98
2.01378	99.98
2.03045	99.97
2.04712	99.98
2.06378	99.98
2.08045	99.97
2.09712	99.98
2.11378	99.97
2.13045	99.97
2.14712	99.97
2.16378	99.97
2.18045	99.97
2.19712	99.97
2.21378	99.96
2.23045	99.97
2.24712	99.97
2.26378	99.97
2.28045	99.97
2.29712	99.97
2.31378	99.97
2.33045	99.96
2.34712	99.97
2.36378	99.97
2.38045	99.97
2.39712	99.97
2.41378	99.96
2.43045	99.97
2.44712	99.97
2.46378	99.97
2.48045	99.97
2.49712	99.97
2.51378	99.97
2.53045	99.97
2.54712	99.97
2.56378	99.97
2.58045	99.97
2.59712	99.97
2.61378	99.98
2.63045	99.97
2.64712	99.98
2.66378	99.98
2.68045	99.98
2.69712	99.98
2.71378	99.97
2.73045	99.98
2.74712	99.98
2.76378	99.99
2.78045	99.98
2.79712	99.99
2.81378	99.99
2.83045	99.99
2.84712	99.99
2.86378	100.00
2.88045	100.00
2.89712	100.00
2.91378	100.00
2.93045	100.00
2.94712	100.00
2.96378	100.00
2.98045	100.01
2.99712	100.01
3.01378	100.01
3.03045	100.01
3.04712	100.01
3.06378	100.01
3.08045	100.02
3.09712	100.01
3.11378	100.01
3.13045	100.02
3.14712	100.02
3.16378	100.02
3.18045	100.02
3.19712	100.02
3.21378	100.03
3.23045	100.03
3.24712	100.03
3.26378	100.03
3.28045	100.03
3.29712	100.03
3.31378	100.03
3.33045	100.03
3.34712	100.03
3.36378	100.03
3.38045	100.03
3.39712	100.03
3.41378	100.03
3.43045	100.04
3.44712	100.03
3.46378	100.04
3.48045	100.04
3.49712	100.04
3.51378	100.04
3.53045	100.04
3.54712	100.04
3.56378	100.04
3.58045	100.04
3.59712	100.04
3.61378	100.04
3.63045	100.04
3.64712	100.04
3.66378	100.04
3.68045	100.04
3.69712	100.04
3.71378	100.04
3.73045	100.04
3.74712	100.05
3.76378	100.05
3.78045	100.05
3.79712	100.05
3.81378	100.05
3.83045	100.05
3.84712	100.05
3.86378	100.05
3.88045	100.05
3.89712	100.05
3.91378	100.05
3.93045	100.05
3.94712	100.04
3.96378	100.04
3.98045	100.04
3.99712	100.05

[Status Trace (Carrier Gas Pressure)]
Interval(msec)	1000
# of Points	240
Start Time(min)	0.014
End Time(min)	3.997
Intensity Units	
Intensity Multiplier	1
R.Time (min)	Intensity
0.01378	57.63
0.03045	55.48
0.04712	57.86
0.06378	59.82
0.08045	58.70
0.09712	57.98
0.11378	57.99
0.13045	58.01
0.14712	58.01
0.16378	58.00
0.18045	58.00
0.19712	58.00
0.21378	58.00
0.23045	58.00
0.24712	58.00
0.26378	58.00
0.28045	58.00
0.29712	58.00
0.31378	58.00
0.33045	58.00
0.34712	58.00
0.36378	58.00
0.38045	58.00
0.39712	58.00
0.41378	58.00
0.43045	58.00
0.44712	58.00
0.46378	58.00
0.48045	58.00
0.49712	58.00
0.51378	58.00
0.53045	58.00
0.54712	58.00
0.56378	58.00
0.58045	58.00
0.59712	58.00
0.61378	58.00
0.63045	58.00
0.64712	58.00
0.66378	58.00
0.68045	58.00
0.69712	58.00
0.71378	58.00
0.73045	58.00
0.74712	58.00
0.76378	58.00
0.78045	58.00
0.79712	58.00
0.81378	58.00
0.83045	58.00
0.84712	58.00
0.86378	58.00
0.88045	58.00
0.89712	58.00
0.91378	58.00
0.93045	58.00
0.94712	58.00
0.96378	58.00
0.98045	58.00
0.99712	58.00
1.01378	58.00
1.03045	58.00
1.04712	58.00
1.06378	58.00
1.08045	58.00
1.09712	58.00
1.11378	58.00
1.13045	58.00
1.14712	58.00
1.16378	58.00
1.18045	58.00
1.19712	58.00
1.21378	58.00
1.23045	58.00
1.24712	58.00
1.26378	58.00
1.28045	58.00
1.29712	58.00
1.31378	58.00
1.33045	58.00
1.34712	58.00
1.36378	58.00
1.38045	58.00
1.39712	58.00
1.41378	58.00
1.43045	58.00
1.44712	58.00
1.46378	58.00
1.48045	58.00
1.49712	58.00
1.51378	58.00
1.53045	58.00
1.54712	58.00
1.56378	58.00
1.58045	58.00
1.59712	58.00
1.61378	58.00
1.63045	58.00
1.64712	58.00
1.66378	58.01
1.68045	58.01
1.69712	58.00
1.71378	58.00
1.73045	58.00
1.74712	58.00
1.76378	58.00
1.78045	58.00
1.79712	58.00
1.81378	58.00
1.83045	58.00
1.84712	58.00
1.86378	58.00
1.88045	58.00
1.89712	58.00
1.91378	58.00
1.93045	58.00
1.94712	58.00
1.96378	58.00
1.98045	58.00
1.99712	58.00
2.01378	58.00
2.03045	58.00
2.04712	58.00
2.06378	58.00
2.08045	58.00
2.09712	58.00
2.11378	58.00
2.13045	58.00
2.14712	58.00
2.16378	58.00
2.18045	58.00
2.19712	58.00
2.21378	58.00
2.23045	58.00
2.24712	58.00
2.26378	58.00
2.28045	58.00
2.29712	58.00
2.31378	58.00
2.33045	58.00
2.34712	58.00
2.36378	58.00
2.38045	57.99
2.39712	57.99
2.41378	57.99
2.43045	58.00
2.44712	58.00
2.46378	58.00
2.48045	58.00
2.49712	58.00
2.51378	57.99
2.53045	57.99
2.54712	58.00
2.56378	58.00
2.58045	58.00
2.59712	58.00
2.61378	58.00
2.63045	58.00
2.64712	58.00
2.66378	58.00
2.68045	58.00
2.69712	58.00
2.71378	58.00
2.73045	58.00
2.74712	58.00
2.76378	58.00
2.78045	58.00
2.79712	58.00
2.81378	58.00
2.83045	58.00
2.84712	58.00
2.86378	58.00
2.88045	58.00
2.89712	58.00
2.91378	58.00
2.93045	58.00
2.94712	58.00
2.96378	58.00
2.98045	58.00
2.99712	58.00
3.01378	58.00
3.03045	58.00
3.04712	58.00
3.06378	58.00
3.08045	58.00
3.09712	58.00
3.11378	58.00
3.13045	58.00
3.14712	58.00
3.16378	58.00
3.18045	58.00
3.19712	58.00
3.21378	58.00
3.23045	58.00
3.24712	58.00
3.26378	58.00
3.28045	58.00
3.29712	58.00
3.31378	58.00
3.33045	58.00
3.34712	58.00
3.36378	58.00
3.38045	58.00
3.39712	58.00
3.41378	58.00
3.43045	58.00
3.44712	58.00
3.46378	58.00
3.48045	58.00
3.49712	58.00
3.51378	58.00
3.53045	58.00
3.54712	58.00
3.56378	58.00
3.58045	58.00
3.59712	58.00
3.61378	58.00
3.63045	58.00
3.64712	58.00
3.66378	58.00
3.68045	58.00
3.69712	58.00
3.71378	58.00
3.73045	58.00
3.74712	58.00
3.76378	58.00
3.78045	58.00
3.79712	58.00
3.81378	58.00
3.83045	58.00
3.84712	58.00
3.86378	58.00
3.88045	58.00
3.89712	58.00
3.91378	58.00
3.93045	58.00
3.94712	58.00
3.96378	58.00
3.98045	58.00
3.99712	58.00

[Status Trace (Carrier Gas Flow)]
Interval(msec)	1000
# of Points	240
Start Time(min)	0.014
End Time(min)	3.997
Intensity Units	
Intensity Multiplier	1
R.Time (min)	Intensity
0.01378	34.25
0.03045	34.54
0.04712	34.55
0.06378	34.52
0.08045	34.51
0.09712	34.52
0.11378	34.51
0.13045	34.52
0.14712	34.52
0.16378	34.52
0.18045	34.52
0.19712	34.52
0.21378	34.52
0.23045	34.52
0.24712	34.51
0.26378	34.52
0.28045	34.52
0.29712	34.52
0.31378	34.51
0.33045	34.51
0.34712	34.52
0.36378	34.52
0.38045	34.52
0.39712	34.52
0.41378	34.52
0.43045	34.52
0.44712	34.52
0.46378	34.51
0.48045	34.52
0.49712	34.53
0.51378	34.51
0.53045	34.52
0.54712	34.52
0.56378	34.52
0.58045	34.52
0.59712	34.52
0.61378	34.52
0.63045	34.53
0.64712	34.52
0.66378	34.52
0.68045	34.52
0.69712	34.52
0.71378	34.52
0.73045	34.52
0.74712	34.52
0.76378	34.52
0.78045	34.52
0.79712	34.52
0.81378	34.51
0.83045	34.52
0.84712	34.52
0.86378	34.52
0.88045	34.52
0.89712	34.53
0.91378	34.52
0.93045	34.52
0.94712	34.52
0.96378	34.51
0.98045	34.52
0.99712	34.52
1.01378	34.52
1.03045	34.52
1.04712	34.52
1.06378	34.52
1.08045	34.51
1.09712	34.52
1.11378	34.52
1.13045	34.51
1.14712	34.53
1.16378	34.51
1.18045	34.52
1.19712	34.52
1.21378	34.52
1.23045	34.52
1.24712	34.52
1.26378	34.52
1.28045	34.52
1.29712	34.51
1.31378	34.51
1.33045	34.52
1.34712	34.52
1.36378	34.52
1.38045	34.52
1.39712	34.52
1.41378	34.52
1.43045	34.52
1.44712	34.52
1.46378	34.52
1.48045	34.52
1.49712	34.52
1.51378	34.52
1.53045	34.52
1.54712	34.52
1.56378	34.52
1.58045	34.52
1.59712	34.52
1.61378	34.52
1.63045	34.52
1.64712	34.52
1.66378	34.52
1.68045	34.52
1.69712	34.52
1.71378	34.53
1.73045	34.52
1.74712	34.52
1.76378	34.52
1.78045	34.52
1.79712	34.52
1.81378	34.52
1.83045	34.52
1.84712	34.52
1.86378	34.52
1.88045	34.52
1.89712	34.52
1.91378	34.52
1.93045	34.52
1.94712	34.52
1.96378	34.53
1.98045	34.52
1.99712	34.52
2.01378	34.52
2.03045	34.52
2.04712	34.52
2.06378	34.52
2.08045	34.52
2.09712	34.52
2.11378	34.52
2.13045	34.52
2.14712	34.52
2.16378	34.52
2.18045	34.52
2.19712	34.52
2.21378	34.51
2.23045	34.52
2.24712	34.52
2.26378	34.52
2.28045	34.52
2.29712	34.52
2.31378	34.52
2.33045	34.52
2.34712	34.52
2.36378	34.52
2.38045	34.52
2.39712	34.52
2.41378	34.52
2.43045	34.51
2.44712	34.51
2.46378	34.52
2.48045	34.52
2.49712	34.52
2.51378	34.52
2.53045	34.52
2.54712	34.52
2.56378	34.52
2.58045	34.52
2.59712	34.52
2.61378	34.52
2.63045	34.53
2.64712	34.52
2.66378	34.52
2.68045	34.52
2.69712	34.51
2.71378	34.52
2.73045	34.51
2.74712	34.52
2.76378	34.53
2.78045	34.52
2.79712	34.51
2.81378	34.52
2.83045	34.52
2.84712	34.52
2.86378	34.52
2.88045	34.52
2.89712	34.52
2.91378	34.52
2.93045	34.52
2.94712	34.52
2.96378	34.52
2.98045	34.51
2.99712	34.52
3.01378	34.52
3.03045	34.52
3.04712	34.52
3.06378	34.52
3.08045	34.52
3.09712	34.52
3.11378	34.51
3.13045	34.52
3.14712	34.52
3.16378	34.53
3.18045	34.51
3.19712	34.52
3.21378	34.51
3.23045	34.52
3.24712	34.52
3.26378	34.51
3.28045	34.52
3.29712	34.52
3.31378	34.52
3.33045	34.52
3.34712	34.52
3.36378	34.52
3.38045	34.51
3.39712	34.52
3.41378	34.52
3.43045	34.52
3.44712	34.52
3.46378	34.51
3.48045	34.52
3.49712	34.52
3.51378	34.52
3.53045	34.52
3.54712	34.52
3.56378	34.52
3.58045	34.52
3.59712	34.52
3.61378	34.51
3.63045	34.52
3.64712	34.52
3.66378	34.52
3.68045	34.52
3.69712	34.52
3.71378	34.52
3.73045	34.53
3.74712	34.51
3.76378	34.51
3.78045	34.52
3.79712	34.52
3.81378	34.52
3.83045	34.52
3.84712	34.51
3.86378	34.53
3.88045	34.52
3.89712	34.52
3.91378	34.52
3.93045	34.52
3.94712	34.51
3.96378	34.52
3.98045	34.52
3.99712	34.52

[Status Trace (Column Flow)]
Interval(msec)	1000
# of Points	240
Start Time(min)	0.014
End Time(min)	3.997
Intensity Units	
Intensity Multiplier	1
R.Time (min)	Intensity
0.01378	5.52
0.03045	5.27
0.04712	5.55
0.06378	5.78
0.08045	5.65
0.09712	5.56
0.11378	5.56
0.13045	5.57
0.14712	5.56
0.16378	5.56
0.18045	5.56
0.19712	5.56
0.21378	5.56
0.23045	5.56
0.24712	5.56
0.26378	5.56
0.28045	5.57
0.29712	5.57
0.31378	5.57
0.33045	5.57
0.34712	5.56
0.36378	5.56
0.38045	5.56
0.39712	5.56
0.41378	5.56
0.43045	5.56
0.44712	5.56
0.46378	5.56
0.48045	5.56
0.49712	5.56
0.51378	5.56
0.53045	5.56
0.54712	5.56
0.56378	5.56
0.58045	5.56
0.59712	5.56
0.61378	5.56
0.63045	5.56
0.64712	5.56
0.66378	5.56
0.68045	5.56
0.69712	5.56
0.71378	5.56
0.73045	5.56
0.74712	5.56
0.76378	5.56
0.78045	5.56
0.79712	5.57
0.81378	5.57
0.83045	5.56
0.84712	5.56
0.86378	5.56
0.88045	5.56
0.89712	5.57
0.91378	5.56
0.93045	5.56
0.94712	5.56
0.96378	5.56
0.98045	5.56
0.99712	5.57
1.01378	5.57
1.03045	5.57
1.04712	5.57
1.06378	5.57
1.08045	5.57
1.09712	5.57
1.11378	5.57
1.13045	5.57
1.14712	5.56
1.16378	5.56
1.18045	5.56
1.19712	5.57
1.21378	5.57
1.23045	5.57
1.24712	5.57
1.26378	5.57
1.28045	5.57
1.29712	5.56
1.31378	5.56
1.33045	5.57
1.34712	5.56
1.36378	5.57
1.38045	5.56
1.39712	5.56
1.41378	5.56
1.43045	5.56
1.44712	5.56
1.46378	5.56
1.48045	5.56
1.49712	5.56
1.51378	5.57
1.53045	5.57
1.54712	5.57
1.56378	5.57
1.58045	5.56
1.59712	5.56
1.61378	5.56
1.63045	5.56
1.64712	5.55
1.66378	5.54
1.68045	5.53
1.69712	5.52
1.71378	5.51
1.73045	5.50
1.74712	5.49
1.76378	5.48
1.78045	5.47
1.79712	5.46
1.81378	5.45
1.83045	5.44
1.84712	5.43
1.86378	5.42
1.88045	5.41
1.89712	5.40
1.91378	5.39
1.93045	5.38
1.94712	5.37
1.96378	5.36
1.98045	5.35
1.99712	5.34
2.01378	5.33
2.03045	5.32
2.04712	5.31
2.06378	5.30
2.08045	5.29
2.09712	5.28
2.11378	5.27
2.13045	5.26
2.14712	5.25
2.16378	5.24
2.18045	5.23
2.19712	5.22
2.21378	5.21
2.23045	5.20
2.24712	5.20
2.26378	5.18
2.28045	5.18
2.29712	5.17
2.31378	5.16
2.33045	5.15
2.34712	5.14
2.36378	5.13
2.38045	5.13
2.39712	5.12
2.41378	5.13
2.43045	5.13
2.44712	5.13
2.46378	5.13
2.48045	5.13
2.49712	5.13
2.51378	5.12
2.53045	5.12
2.54712	5.12
2.56378	5.12
2.58045	5.12
2.59712	5.12
2.61378	5.12
2.63045	5.12
2.64712	5.12
2.66378	5.12
2.68045	5.12
2.69712	5.12
2.71378	5.12
2.73045	5.12
2.74712	5.12
2.76378	5.12
2.78045	5.12
2.79712	5.12
2.81378	5.12
2.83045	5.12
2.84712	5.12
2.86378	5.12
2.88045	5.12
2.89712	5.12
2.91378	5.12
2.93045	5.12
2.94712	5.12
2.96378	5.12
2.98045	5.12
2.99712	5.12
3.01378	5.12
3.03045	5.12
3.04712	5.12
3.06378	5.12
3.08045	5.12
3.09712	5.12
3.11378	5.12
3.13045	5.12
3.14712	5.12
3.16378	5.12
3.18045	5.12
3.19712	5.12
3.21378	5.12
3.23045	5.12
3.24712	5.12
3.26378	5.12
3.28045	5.12
3.29712	5.12
3.31378	5.12
3.33045	5.12
3.34712	5.12
3.36378	5.12
3.38045	5.12
3.39712	5.12
3.41378	5.12
3.43045	5.12
3.44712	5.12
3.46378	5.12
3.48045	5.12
3.49712	5.12
3.51378	5.12
3.53045	5.12
3.54712	5.12
3.56378	5.12
3.58045	5.12
3.59712	5.12
3.61378	5.12
3.63045	5.12
3.64712	5.12
3.66378	5.12
3.68045	5.12
3.69712	5.12
3.71378	5.12
3.73045	5.12
3.74712	5.12
3.76378	5.12
3.78045	5.12
3.79712	5.12
3.81378	5.12
3.83045	5.12
3.84712	5.12
3.86378	5.12
3.88045	5.12
3.89712	5.12
3.91378	5.12
3.93045	5.12
3.94712	5.12
3.96378	5.12
3.98045	5.12
3.99712	5.12

[Status Trace (Linear Velocity)]
Interval(msec)	1000
# of Points	240
Start Time(min)	0.014
End Time(min)	3.997
Intensity Units	
Intensity Multiplier	1
R.Time (min)	Intensity
0.01378	38.79
0.03045	37.38
0.04712	38.94
0.06378	40.22
0.08045	39.49
0.09712	39.02
0.11378	39.02
0.13045	39.03
0.14712	39.03
0.16378	39.03
0.18045	39.02
0.19712	39.02
0.21378	39.02
0.23045	39.03
0.24712	39.03
0.26378	39.03
0.28045	39.03
0.29712	39.03
0.31378	39.03
0.33045	39.03
0.34712	39.03
0.36378	39.02
0.38045	39.03
0.39712	39.03
0.41378	39.03
0.43045	39.03
0.44712	39.03
0.46378	39.02
0.48045	39.02
0.49712	39.02
0.51378	39.02
0.53045	39.02
0.54712	39.02
0.56378	39.02
0.58045	39.02
0.59712	39.02
0.61378	39.02
0.63045	39.02
0.64712	39.02
0.66378	39.02
0.68045	39.02
0.69712	39.02
0.71378	39.02
0.73045	39.02
0.74712	39.02
0.76378	39.03
0.78045	39.03
0.79712	39.03
0.81378	39.03
0.83045	39.03
0.84712	39.03
0.86378	39.03
0.88045	39.03
0.89712	39.03
0.91378	39.03
0.93045	39.03
0.94712	39.02
0.96378	39.03
0.98045	39.03
0.99712	39.03
1.01378	39.03
1.03045	39.03
1.04712	39.03
1.06378	39.03
1.08045	39.03
1.09712	39.03
1.11378	39.03
1.13045	39.03
1.14712	39.03
1.16378	39.03
1.18045	39.03
1.19712	39.03
1.21378	39.03
1.23045	39.03
1.24712	39.03
1.26378	39.03
1.28045	39.03
1.29712	39.03
1.31378	39.03
1.33045	39.03
1.34712	39.03
1.36378	39.03
1.38045	39.03
1.39712	39.03
1.41378	39.02
1.43045	39.02
1.44712	39.02
1.46378	39.03
1.48045	39.03
1.49712	39.03
1.51378	39.03
1.53045	39.03
1.54712	39.03
1.56378	39.03
1.58045	39.03
1.59712	39.03
1.61378	39.02
1.63045	39.01
1.64712	38.99
1.66378	38.96
1.68045	38.93
1.69712	38.89
1.71378	38.85
1.73045	38.82
1.74712	38.80
1.76378	38.76
1.78045	38.73
1.79712	38.70
1.81378	38.67
1.83045	38.64
1.84712	38.61
1.86378	38.57
1.88045	38.54
1.89712	38.51
1.91378	38.48
1.93045	38.45
1.94712	38.42
1.96378	38.39
1.98045	38.36
1.99712	38.33
2.01378	38.30
2.03045	38.27
2.04712	38.24
2.06378	38.21
2.08045	38.18
2.09712	38.15
2.11378	38.12
2.13045	38.09
2.14712	38.06
2.16378	38.03
2.18045	38.00
2.19712	37.98
2.21378	37.94
2.23045	37.92
2.24712	37.89
2.26378	37.85
2.28045	37.82
2.29712	37.80
2.31378	37.77
2.33045	37.74
2.34712	37.71
2.36378	37.68
2.38045	37.67
2.39712	37.66
2.41378	37.66
2.43045	37.67
2.44712	37.67
2.46378	37.67
2.48045	37.67
2.49712	37.66
2.51378	37.66
2.53045	37.66
2.54712	37.66
2.56378	37.66
2.58045	37.66
2.59712	37.66
2.61378	37.66
2.63045	37.66
2.64712	37.66
2.66378	37.66
2.68045	37.66
2.69712	37.66
2.71378	37.65
2.73045	37.65
2.74712	37.65
2.76378	37.65
2.78045	37.66
2.79712	37.66
2.81378	37.66
2.83045	37.65
2.84712	37.65
2.86378	37.65
2.88045	37.65
2.89712	37.65
2.91378	37.65
2.93045	37.65
2.94712	37.65
2.96378	37.65
2.98045	37.65
2.99712	37.65
3.01378	37.64
3.03045	37.64
3.04712	37.64
3.06378	37.64
3.08045	37.64
3.09712	37.64
3.11378	37.64
3.13045	37.64
3.14712	37.64
3.16378	37.64
3.18045	37.64
3.19712	37.64
3.21378	37.64
3.23045	37.64
3.24712	37.63
3.26378	37.63
3.28045	37.63
3.29712	37.63
3.31378	37.63
3.33045	37.63
3.34712	37.63
3.36378	37.63
3.38045	37.63
3.39712	37.63
3.41378	37.64
3.43045	37.64
3.44712	37.64
3.46378	37.64
3.48045	37.64
3.49712	37.64
3.51378	37.63
3.53045	37.63
3.54712	37.64
3.56378	37.64
3.58045	37.64
3.59712	37.64
3.61378	37.64
3.63045	37.64
3.64712	37.64
3.66378	37.64
3.68045	37.64
3.69712	37.64
3.71378	37.64
3.73045	37.64
3.74712	37.64
3.76378	37.64
3.78045	37.64
3.79712	37.64
3.81378	37.64
3.83045	37.64
3.84712	37.64
3.86378	37.64
3.88045	37.64
3.89712	37.64
3.91378	37.64
3.93045	37.64
3.94712	37.64
3.96378	37.64
3.98045	37.64
3.99712	37.64

