[Header]
Application Name	LabSolutions
Version	5.110
Data File Name	C:\Users\User\Desktop\GC Analyses\Jack\Nachusa Grasslands Sampling\T1 Timepoint July 12th\T1_07122022_024.gcd
Output Date	3/14/2023
Output Time	3:40:58 PM

[File Information]
Type	Data File
Generated	3/8/2023 3:49:08 PM
Generated by	System Administrator
Modified	3/8/2023 3:55:50 PM
Modified by	System Administrator

[Sample Information]
Operator Name	System Administrator
Acquired	3/8/2023 3:51:49 PM
Sample Type	0:Unknown
Level	0
Sample Name	024
Sample ID	024
ISTD Amount1	1
ISTD Amount2	1
ISTD Amount3	1
ISTD Amount4	1
ISTD Amount5	1
ISTD Amount6	1
ISTD Amount7	1
ISTD Amount8	1
ISTD Amount9	1
ISTD Amount10	1
ISTD Amount11	1
ISTD Amount12	1
ISTD Amount13	1
ISTD Amount14	1
ISTD Amount15	1
ISTD Amount16	1
ISTD Amount17	1
ISTD Amount18	1
ISTD Amount19	1
ISTD Amount20	1
ISTD Amount21	1
ISTD Amount22	1
ISTD Amount23	1
ISTD Amount24	1
ISTD Amount25	1
ISTD Amount26	1
ISTD Amount27	1
ISTD Amount28	1
ISTD Amount29	1
ISTD Amount30	1
ISTD Amount31	1
ISTD Amount32	1
Sample Amount	1
Dilution Factor	1
Vial#	23
Injection Volume	1
Injection Count	1
Bar Code	

[Original Files]
Data File	C:\Users\User\Desktop\GC Analyses\Jack\Nachusa Grasslands Sampling\T1 Timepoint July 12th\T1_07122022_024.gcd
Method File	C:\LabSolutions\Data\GHG_4min_2022\ghg3_togas_w_acet_4 min_new_int.gcm
Batch File	C:\LabSolutions\Data\AutoSamplerTesting\T1_07122022.gcb
Report Format File	c:\LabSolutions\System\DEFAULT.lsr

[File Description]


[Configuration]
Instrument Name	C0B7VH3-Instrument1
Instrument #	1
Line #	1
# of Detectors	3
Detector ID	DET#1	DET#2	DET#3
Detector Name	FID	PTCD	ECD
# of Channels	1	1	1

[Peak Table(Ch1)]
# of Peaks	4
Peak#	R.Time	I.Time	F.Time	Area	Height	A/H	Conc.	Mark	ID#	Name	k'	Plate #	Plate Ht.	Tailing	Resolution	Sep.Factor	Area Ratio	Height Ratio	Conc. %	Norm Conc.
1	1.476	1.439	1.538	55502	26763	2.074	391.844	   	1	CO	0.000	9405	15.950	1.343	0.000	0.000	0	0	43.869	43.869
2	1.567	1.538	1.622	5068	2375	2.134	97.998	 V 	2	CH4	0.062	9676	15.502	0.000	1.471	0.000	0	0	10.971	10.971
3	1.996	1.952	2.484	1607204	760036	2.115	403.365	   	3	CO2	0.353	17316	8.663	1.314	6.896	5.680	0	0	45.159	45.159
4	3.243	2.792	3.635	2476	83	29.699	0.000	   	6	Ethane	1.198	17332	8.655	0.934	15.660	3.394	0	0	0.000	0.000

[Peak Table(Ch2)]
# of Peaks	0

[Peak Table(Ch3)]
# of Peaks	6
Peak#	R.Time	I.Time	F.Time	Area	Height	A/H	Conc.	Mark	ID#	Name	k'	Plate #	Plate Ht.	Tailing	Resolution	Sep.Factor	Area Ratio	Height Ratio	Conc. %	Norm Conc.
1	0.739	0.559	0.849	179	18	10.064	0.000	   			0.000	300	499.583	0.805	0.000	0.000	0	0	0.000	0.000
2	1.113	1.021	1.274	103	14	7.165	0.000	   			0.506	1491	100.612	1.397	2.617	0.000	0	0	0.000	0.000
3	2.462	2.414	2.517	1217	392	3.108	0.000	   			2.333	9109	16.467	0.000	12.354	4.608	0	0	0.000	0.000
4	2.543	2.517	2.634	1038	242	4.284	0.000	 V 			2.442	4290	34.966	0.000	0.624	1.047	0	0	0.000	0.000
5	2.682	2.645	2.799	457	79	5.803	0.000	   			2.631	5552	27.020	0.000	0.931	1.077	0	0	0.000	0.000
6	2.873	2.799	3.045	18335	4871	3.764	0.468	 V 	1	N2O	2.889	13440	11.161	1.636	1.569	1.098	0	0	100.000	100.000

[Compound Results(Ch1)]
# of IDs	6
ID#	Name	R.Time	Area	Height	Conc.	Curve	3rd	2nd	1st	Constant	Area Ratio	Height Ratio	Conc. %	Norm Conc.
1	CO	1.476	55502	26763	391.844	Linear	0.000000e+00	0.000000e+00	1.416423e+002	0.000000e+00	0	0	43.869	43.869
2	CH4	1.567	5068	2375	97.998	Linear	0.000000e+00	0.000000e+00	5.171738e+001	0.000000e+00	0	0	10.971	10.971
3	CO2	1.996	1607204	760036	403.365	Linear	0.000000e+00	0.000000e+00	3.984494e+003	0.000000e+00	0	0	45.159	45.159
4	Ethylene	0.000	0	0	0.000	Linear	0.000000e+00	0.000000e+00	0.000000e+00	0.000000e+00	0	0	0.000	0.000
5	Acetylene	0.000	0	0	0.000	Linear	0.000000e+00	0.000000e+00	0.000000e+00	0.000000e+00	0	0	0.000	0.000
6	Ethane	3.243	2476	83	0.000	Linear	0.000000e+00	0.000000e+00	0.000000e+00	0.000000e+00	0	0	0.000	0.000

[Compound Results(Ch2)]
# of IDs	5
ID#	Name	R.Time	Area	Height	Conc.	Curve	3rd	2nd	1st	Constant	Area Ratio	Height Ratio	Conc. %	Norm Conc.
1	Hydrogen	0.000	0	0	0.000	Linear	0.000000e+00	0.000000e+00	0.000000e+00	0.000000e+00	0	0	0.000	0.000
2	Oxygen	0.000	0	0	0.000	Linear	0.000000e+00	0.000000e+00	0.000000e+00	0.000000e+00	0	0	0.000	0.000
3	Nitrogen	0.000	0	0	0.000	Linear	0.000000e+00	0.000000e+00	0.000000e+00	0.000000e+00	0	0	0.000	0.000
4	Methane	0.000	0	0	0.000	Linear	0.000000e+00	0.000000e+00	0.000000e+00	0.000000e+00	0	0	0.000	0.000
5	Carbon Monoxide	0.000	0	0	0.000	Linear	0.000000e+00	0.000000e+00	0.000000e+00	0.000000e+00	0	0	0.000	0.000

[Compound Results(Ch3)]
# of IDs	2
ID#	Name	R.Time	Area	Height	Conc.	Curve	3rd	2nd	1st	Constant	Area Ratio	Height Ratio	Conc. %	Norm Conc.
1	N2O	2.873	18335	4871	0.468	Linear	0.000000e+00	0.000000e+00	3.915173e+004	0.000000e+00	0	0	100.000	100.000
2	SF6	0.000	0	0	0.000	Linear	0.000000e+00	0.000000e+00	0.000000e+00	0.000000e+00	0	0	0.000	0.000

[Group Results(Ch1)]
# of Groups	0

[Group Results(Ch2)]
# of Groups	0

[Group Results(Ch3)]
# of Groups	0

[Chromatogram (Ch1)]
Interval(msec)	220
# of Points	1091
Start Time(min)	0.002
End Time(min)	3.998
R.Time (min)	Intensity
0.00167	1
0.00533	5
0.00900	6
0.01267	6
0.01633	5
0.02000	3
0.02367	-1
0.02733	-2
0.03100	-1
0.03467	-1
0.03833	-3
0.04200	-5
0.04567	-5
0.04933	-2
0.05300	1
0.05667	3
0.06033	2
0.06400	0
0.06767	-2
0.07133	-5
0.07500	-5
0.07867	-0
0.08233	7
0.08600	12
0.08967	15
0.09333	18
0.09700	22
0.10067	24
0.10433	20
0.10800	10
0.11167	3
0.11533	2
0.11900	6
0.12267	11
0.12633	9
0.13000	5
0.13367	2
0.13733	1
0.14100	1
0.14467	-1
0.14833	-5
0.15200	-3
0.15567	2
0.15933	4
0.16300	1
0.16667	-4
0.17033	-3
0.17400	4
0.17767	11
0.18133	16
0.18500	19
0.18867	23
0.19233	25
0.19600	23
0.19967	19
0.20333	13
0.20700	7
0.21067	5
0.21433	4
0.21800	3
0.22167	8
0.22533	9
0.22900	5
0.23267	4
0.23633	11
0.24000	19
0.24367	25
0.24733	23
0.25100	16
0.25467	11
0.25833	9
0.26200	12
0.26567	18
0.26933	22
0.27300	18
0.27667	11
0.28033	7
0.28400	5
0.28767	-0
0.29133	-10
0.29500	-16
0.29867	-16
0.30233	-11
0.30600	-2
0.30967	10
0.31333	17
0.31700	18
0.32067	18
0.32433	16
0.32800	13
0.33167	12
0.33533	12
0.33900	9
0.34267	1
0.34633	-8
0.35000	-14
0.35367	-18
0.35733	-19
0.36100	-18
0.36467	-16
0.36833	-11
0.37200	-12
0.37567	-18
0.37933	-22
0.38300	-21
0.38667	-14
0.39033	-6
0.39400	1
0.39767	2
0.40133	-1
0.40500	-1
0.40867	1
0.41233	7
0.41600	19
0.41967	27
0.42333	26
0.42700	18
0.43067	7
0.43433	-4
0.43800	-11
0.44167	-11
0.44533	-10
0.44900	-10
0.45267	-7
0.45633	-4
0.46000	-0
0.46367	2
0.46733	3
0.47100	4
0.47467	3
0.47833	-0
0.48200	-3
0.48567	-6
0.48933	-6
0.49300	-6
0.49667	-6
0.50033	-6
0.50400	-8
0.50767	-12
0.51133	-18
0.51500	-20
0.51867	-20
0.52233	-17
0.52600	-15
0.52967	-13
0.53333	-9
0.53700	-6
0.54067	-6
0.54433	-6
0.54800	-4
0.55167	-3
0.55533	0
0.55900	3
0.56267	5
0.56633	8
0.57000	11
0.57367	10
0.57733	8
0.58100	9
0.58467	11
0.58833	12
0.59200	13
0.59567	11
0.59933	7
0.60300	2
0.60667	3
0.61033	8
0.61400	13
0.61767	18
0.62133	21
0.62500	21
0.62867	18
0.63233	11
0.63600	6
0.63967	1
0.64333	-2
0.64700	1
0.65067	7
0.65433	14
0.65800	19
0.66167	17
0.66533	11
0.66900	4
0.67267	-4
0.67633	-7
0.68000	-11
0.68367	-15
0.68733	-17
0.69100	-16
0.69467	-16
0.69833	-16
0.70200	-12
0.70567	-5
0.70933	2
0.71300	7
0.71667	10
0.72033	10
0.72400	3
0.72767	-4
0.73133	-11
0.73500	-15
0.73867	-16
0.74233	-14
0.74600	-15
0.74967	-12
0.75333	-7
0.75700	-3
0.76067	0
0.76433	3
0.76800	4
0.77167	0
0.77533	-3
0.77900	-4
0.78267	1
0.78633	8
0.79000	13
0.79367	13
0.79733	5
0.80100	-6
0.80467	-13
0.80833	-17
0.81200	-17
0.81567	-18
0.81933	-20
0.82300	-22
0.82667	-20
0.83033	-14
0.83400	-8
0.83767	-2
0.84133	11
0.84500	20
0.84867	16
0.85233	0
0.85600	-12
0.85967	-17
0.86333	-16
0.86700	-13
0.87067	-12
0.87433	-15
0.87800	-17
0.88167	-16
0.88533	-12
0.88900	-10
0.89267	-7
0.89633	-7
0.90000	-8
0.90367	-12
0.90733	-12
0.91100	-12
0.91467	-11
0.91833	-10
0.92200	-9
0.92567	-8
0.92933	-5
0.93300	4
0.93667	16
0.94033	21
0.94400	20
0.94767	15
0.95133	9
0.95500	0
0.95867	-10
0.96233	-17
0.96600	-19
0.96967	-18
0.97333	-17
0.97700	-18
0.98067	-20
0.98433	-23
0.98800	-26
0.99167	-27
0.99533	-28
0.99900	-27
1.00267	-19
1.00633	-10
1.01000	-5
1.01367	-3
1.01733	-3
1.02100	-2
1.02467	1
1.02833	2
1.03200	3
1.03567	4
1.03933	5
1.04300	6
1.04667	10
1.05033	16
1.05400	19
1.05767	18
1.06133	11
1.06500	2
1.06867	-9
1.07233	-18
1.07600	-23
1.07967	-26
1.08333	-28
1.08700	-29
1.09067	-27
1.09433	-24
1.09800	-21
1.10167	-16
1.10533	-9
1.10900	-2
1.11267	-1
1.11633	-2
1.12000	-7
1.12367	-13
1.12733	-13
1.13100	-5
1.13467	2
1.13833	4
1.14200	1
1.14567	-7
1.14933	-12
1.15300	-13
1.15667	-14
1.16033	-15
1.16400	-11
1.16767	-1
1.17133	11
1.17500	21
1.17867	25
1.18233	21
1.18600	15
1.18967	8
1.19333	-2
1.19700	-15
1.20067	-28
1.20433	-33
1.20800	-30
1.21167	-25
1.21533	-15
1.21900	-1
1.22267	10
1.22633	11
1.23000	-1
1.23367	-14
1.23733	-21
1.24100	-21
1.24467	-20
1.24833	-25
1.25200	-31
1.25567	-33
1.25933	-28
1.26300	-21
1.26667	-17
1.27033	-8
1.27400	0
1.27767	6
1.28133	10
1.28500	13
1.28867	19
1.29233	25
1.29600	27
1.29967	29
1.30333	31
1.30700	31
1.31067	28
1.31433	25
1.31800	25
1.32167	27
1.32533	26
1.32900	23
1.33267	17
1.33633	13
1.34000	11
1.34367	9
1.34733	6
1.35100	8
1.35467	16
1.35833	29
1.36200	42
1.36567	54
1.36933	62
1.37300	67
1.37667	66
1.38033	57
1.38400	45
1.38767	37
1.39133	34
1.39500	35
1.39867	38
1.40233	43
1.40600	47
1.40967	49
1.41333	48
1.41700	44
1.42067	40
1.42433	35
1.42800	29
1.43167	25
1.43533	27
1.43900	49
1.44267	142
1.44633	430
1.45000	1368
1.45367	3844
1.45733	8139
1.46100	13401
1.46467	18476
1.46833	22624
1.47200	25492
1.47567	26826
1.47933	26393
1.48300	24193
1.48667	20664
1.49033	16561
1.49400	12617
1.49767	9276
1.50133	6671
1.50500	4750
1.50867	3383
1.51233	2428
1.51600	1770
1.51967	1319
1.52333	1011
1.52700	805
1.53067	670
1.53433	576
1.53800	517
1.54167	524
1.54533	657
1.54900	945
1.55267	1336
1.55633	1741
1.56000	2087
1.56367	2338
1.56733	2472
1.57100	2458
1.57467	2279
1.57833	1963
1.58200	1585
1.58567	1221
1.58933	915
1.59300	677
1.59667	503
1.60033	382
1.60400	294
1.60767	229
1.61133	182
1.61500	152
1.61867	132
1.62233	118
1.62600	113
1.62967	113
1.63333	113
1.63700	112
1.64067	110
1.64433	103
1.64800	96
1.65167	90
1.65533	88
1.65900	89
1.66267	89
1.66633	93
1.67000	98
1.67367	101
1.67733	100
1.68100	95
1.68467	95
1.68833	99
1.69200	107
1.69567	110
1.69933	105
1.70300	93
1.70667	78
1.71033	71
1.71400	69
1.71767	71
1.72133	77
1.72500	81
1.72867	81
1.73233	79
1.73600	75
1.73967	73
1.74333	73
1.74700	74
1.75067	75
1.75433	77
1.75800	80
1.76167	83
1.76533	84
1.76900	85
1.77267	87
1.77633	89
1.78000	90
1.78367	90
1.78733	90
1.79100	87
1.79467	81
1.79833	77
1.80200	75
1.80567	80
1.80933	90
1.81300	98
1.81667	101
1.82033	99
1.82400	92
1.82767	82
1.83133	76
1.83500	74
1.83867	72
1.84233	68
1.84600	63
1.84967	56
1.85333	48
1.85700	41
1.86067	40
1.86433	44
1.86800	50
1.87167	55
1.87533	60
1.87900	59
1.88267	55
1.88633	54
1.89000	55
1.89367	54
1.89733	52
1.90100	55
1.90467	63
1.90833	77
1.91200	87
1.91567	96
1.91933	106
1.92300	110
1.92667	106
1.93033	98
1.93400	91
1.93767	86
1.94133	81
1.94500	77
1.94867	74
1.95233	86
1.95600	206
1.95967	906
1.96333	4096
1.96700	15244
1.97067	45133
1.97433	107410
1.97800	209399
1.98167	343318
1.98533	487861
1.98900	618141
1.99267	713416
1.99633	760160
2.00000	752878
2.00367	695355
2.00733	600907
2.01100	488592
2.01467	376939
2.01833	278875
2.02200	200180
2.02567	141019
2.02933	98538
2.03300	68970
2.03667	48787
2.04033	35147
2.04400	25949
2.04767	19716
2.05133	15445
2.05500	12467
2.05867	10348
2.06233	8804
2.06600	7653
2.06967	6774
2.07333	6083
2.07700	5526
2.08067	5056
2.08433	4651
2.08800	4304
2.09167	4005
2.09533	3745
2.09900	3518
2.10267	3316
2.10633	3133
2.11000	2972
2.11367	2830
2.11733	2705
2.12100	2589
2.12467	2481
2.12833	2386
2.13200	2299
2.13567	2219
2.13933	2141
2.14300	2061
2.14667	1985
2.15033	1919
2.15400	1866
2.15767	1820
2.16133	1774
2.16500	1723
2.16867	1669
2.17233	1611
2.17600	1553
2.17967	1499
2.18333	1449
2.18700	1405
2.19067	1367
2.19433	1333
2.19800	1303
2.20167	1273
2.20533	1241
2.20900	1210
2.21267	1179
2.21633	1152
2.22000	1132
2.22367	1115
2.22733	1096
2.23100	1077
2.23467	1061
2.23833	1051
2.24200	1043
2.24567	1031
2.24933	1012
2.25300	991
2.25667	969
2.26033	946
2.26400	923
2.26767	903
2.27133	888
2.27500	876
2.27867	865
2.28233	854
2.28600	841
2.28967	825
2.29333	808
2.29700	797
2.30067	789
2.30433	782
2.30800	775
2.31167	768
2.31533	765
2.31900	762
2.32267	757
2.32633	748
2.33000	737
2.33367	727
2.33733	723
2.34100	718
2.34467	708
2.34833	697
2.35200	689
2.35567	684
2.35933	681
2.36300	675
2.36667	669
2.37033	661
2.37400	654
2.37767	646
2.38133	633
2.38500	622
2.38867	614
2.39233	608
2.39600	604
2.39967	603
2.40333	604
2.40700	602
2.41067	599
2.41433	598
2.41800	594
2.42167	588
2.42533	586
2.42900	585
2.43267	581
2.43633	579
2.44000	581
2.44367	582
2.44733	581
2.45100	581
2.45467	582
2.45833	585
2.46200	586
2.46567	584
2.46933	577
2.47300	567
2.47667	555
2.48033	542
2.48400	538
2.48767	539
2.49133	540
2.49500	539
2.49867	536
2.50233	534
2.50600	533
2.50967	534
2.51333	539
2.51700	547
2.52067	557
2.52433	566
2.52800	571
2.53167	573
2.53533	576
2.53900	578
2.54267	580
2.54633	578
2.55000	571
2.55367	562
2.55733	554
2.56100	546
2.56467	536
2.56833	528
2.57200	523
2.57567	520
2.57933	515
2.58300	509
2.58667	505
2.59033	506
2.59400	509
2.59767	511
2.60133	512
2.60500	513
2.60867	515
2.61233	515
2.61600	512
2.61967	511
2.62333	511
2.62700	515
2.63067	527
2.63433	536
2.63800	539
2.64167	536
2.64533	530
2.64900	524
2.65267	518
2.65633	513
2.66000	509
2.66367	510
2.66733	514
2.67100	515
2.67467	514
2.67833	512
2.68200	512
2.68567	512
2.68933	512
2.69300	513
2.69667	515
2.70033	515
2.70400	516
2.70767	515
2.71133	510
2.71500	505
2.71867	505
2.72233	507
2.72600	510
2.72967	515
2.73333	524
2.73700	533
2.74067	539
2.74433	543
2.74800	543
2.75167	542
2.75533	540
2.75900	537
2.76267	536
2.76633	539
2.77000	537
2.77367	531
2.77733	522
2.78100	514
2.78467	512
2.78833	513
2.79200	519
2.79567	527
2.79933	531
2.80300	533
2.80667	533
2.81033	535
2.81400	537
2.81767	538
2.82133	540
2.82500	545
2.82867	548
2.83233	547
2.83600	545
2.83967	544
2.84333	544
2.84700	546
2.85067	544
2.85433	541
2.85800	542
2.86167	546
2.86533	549
2.86900	549
2.87267	545
2.87633	541
2.88000	540
2.88367	538
2.88733	537
2.89100	538
2.89467	542
2.89833	547
2.90200	549
2.90567	549
2.90933	552
2.91300	560
2.91667	568
2.92033	571
2.92400	574
2.92767	577
2.93133	576
2.93500	574
2.93867	576
2.94233	577
2.94600	575
2.94967	573
2.95333	573
2.95700	575
2.96067	578
2.96433	583
2.96800	584
2.97167	580
2.97533	573
2.97900	562
2.98267	555
2.98633	554
2.99000	555
2.99367	553
2.99733	553
3.00100	559
3.00467	566
3.00833	570
3.01200	574
3.01567	577
3.01933	579
3.02300	581
3.02667	579
3.03033	574
3.03400	570
3.03767	570
3.04133	571
3.04500	571
3.04867	571
3.05233	574
3.05600	581
3.05967	588
3.06333	590
3.06700	590
3.07067	586
3.07433	580
3.07800	574
3.08167	570
3.08533	572
3.08900	577
3.09267	581
3.09633	582
3.10000	579
3.10367	574
3.10733	570
3.11100	567
3.11467	566
3.11833	567
3.12200	567
3.12567	569
3.12933	569
3.13300	569
3.13667	566
3.14033	564
3.14400	563
3.14767	565
3.15133	570
3.15500	575
3.15867	579
3.16233	582
3.16600	583
3.16967	581
3.17333	578
3.17700	572
3.18067	561
3.18433	551
3.18800	545
3.19167	548
3.19533	555
3.19900	561
3.20267	564
3.20633	562
3.21000	557
3.21367	551
3.21733	547
3.22100	546
3.22467	547
3.22833	551
3.23200	560
3.23567	573
3.23933	584
3.24300	586
3.24667	586
3.25033	584
3.25400	581
3.25767	575
3.26133	566
3.26500	558
3.26867	552
3.27233	548
3.27600	548
3.27967	550
3.28333	551
3.28700	551
3.29067	552
3.29433	552
3.29800	550
3.30167	546
3.30533	547
3.30900	551
3.31267	557
3.31633	563
3.32000	568
3.32367	571
3.32733	570
3.33100	569
3.33467	567
3.33833	565
3.34200	564
3.34567	562
3.34933	561
3.35300	562
3.35667	565
3.36033	566
3.36400	565
3.36767	562
3.37133	561
3.37500	559
3.37867	557
3.38233	553
3.38600	547
3.38967	543
3.39333	542
3.39700	546
3.40067	557
3.40433	567
3.40800	569
3.41167	564
3.41533	555
3.41900	545
3.42267	533
3.42633	526
3.43000	522
3.43367	520
3.43733	518
3.44100	515
3.44467	514
3.44833	516
3.45200	520
3.45567	530
3.45933	540
3.46300	550
3.46667	557
3.47033	556
3.47400	551
3.47767	546
3.48133	540
3.48500	534
3.48867	530
3.49233	527
3.49600	528
3.49967	528
3.50333	529
3.50700	528
3.51067	524
3.51433	522
3.51800	524
3.52167	528
3.52533	531
3.52900	534
3.53267	539
3.53633	544
3.54000	545
3.54367	541
3.54733	532
3.55100	525
3.55467	525
3.55833	529
3.56200	531
3.56567	527
3.56933	523
3.57300	518
3.57667	513
3.58033	509
3.58400	512
3.58767	519
3.59133	526
3.59500	533
3.59867	539
3.60233	540
3.60600	538
3.60967	536
3.61333	533
3.61700	526
3.62067	517
3.62433	507
3.62800	500
3.63167	495
3.63533	490
3.63900	488
3.64267	490
3.64633	494
3.65000	494
3.65367	492
3.65733	487
3.66100	483
3.66467	482
3.66833	482
3.67200	481
3.67567	484
3.67933	490
3.68300	490
3.68667	490
3.69033	492
3.69400	495
3.69767	495
3.70133	495
3.70500	493
3.70867	492
3.71233	493
3.71600	491
3.71967	491
3.72333	493
3.72700	495
3.73067	495
3.73433	493
3.73800	491
3.74167	488
3.74533	485
3.74900	481
3.75267	478
3.75633	473
3.76000	473
3.76367	479
3.76733	484
3.77100	483
3.77467	484
3.77833	485
3.78200	482
3.78567	478
3.78933	472
3.79300	468
3.79667	464
3.80033	462
3.80400	460
3.80767	457
3.81133	454
3.81500	453
3.81867	451
3.82233	453
3.82600	460
3.82967	468
3.83333	474
3.83700	479
3.84067	483
3.84433	485
3.84800	484
3.85167	479
3.85533	471
3.85900	465
3.86267	459
3.86633	455
3.87000	450
3.87367	441
3.87733	435
3.88100	438
3.88467	447
3.88833	452
3.89200	454
3.89567	456
3.89933	454
3.90300	450
3.90667	445
3.91033	435
3.91400	426
3.91767	421
3.92133	422
3.92500	424
3.92867	430
3.93233	434
3.93600	434
3.93967	431
3.94333	428
3.94700	424
3.95067	418
3.95433	412
3.95800	410
3.96167	411
3.96533	415
3.96900	419
3.97267	420
3.97633	417
3.98000	412
3.98367	406
3.98733	400
3.99100	399
3.99467	405
3.99833	414

[Chromatogram (Ch2)]
Interval(msec)	220
# of Points	1091
Start Time(min)	0.002
End Time(min)	3.998
R.Time (min)	Intensity
0.00167	1
0.00533	1
0.00900	1
0.01267	0
0.01633	0
0.02000	0
0.02367	0
0.02733	0
0.03100	0
0.03467	-0
0.03833	-0
0.04200	-1
0.04567	-1
0.04933	-1
0.05300	-1
0.05667	-0
0.06033	-0
0.06400	-0
0.06767	-0
0.07133	-0
0.07500	-1
0.07867	-1
0.08233	-1
0.08600	-1
0.08967	-1
0.09333	-2
0.09700	-2
0.10067	-2
0.10433	-2
0.10800	-2
0.11167	-2
0.11533	-2
0.11900	-2
0.12267	-2
0.12633	-2
0.13000	-2
0.13367	-2
0.13733	-2
0.14100	-1
0.14467	-1
0.14833	-1
0.15200	-1
0.15567	-1
0.15933	-1
0.16300	-1
0.16667	-1
0.17033	-1
0.17400	-0
0.17767	-0
0.18133	-0
0.18500	-0
0.18867	-1
0.19233	-1
0.19600	-1
0.19967	-1
0.20333	-1
0.20700	-1
0.21067	-2
0.21433	-2
0.21800	-2
0.22167	-2
0.22533	-3
0.22900	-3
0.23267	-3
0.23633	-3
0.24000	-3
0.24367	-2
0.24733	-2
0.25100	-2
0.25467	-2
0.25833	-2
0.26200	-2
0.26567	-2
0.26933	-2
0.27300	-2
0.27667	-2
0.28033	-2
0.28400	-2
0.28767	-2
0.29133	-2
0.29500	-2
0.29867	-2
0.30233	-2
0.30600	-2
0.30967	-2
0.31333	-2
0.31700	-2
0.32067	-2
0.32433	-2
0.32800	-1
0.33167	-1
0.33533	-1
0.33900	-1
0.34267	-1
0.34633	-1
0.35000	-1
0.35367	-1
0.35733	-1
0.36100	-2
0.36467	-2
0.36833	-2
0.37200	-2
0.37567	-2
0.37933	-1
0.38300	-1
0.38667	-1
0.39033	-1
0.39400	-1
0.39767	-1
0.40133	-1
0.40500	-2
0.40867	-2
0.41233	-2
0.41600	-2
0.41967	-2
0.42333	-2
0.42700	-2
0.43067	-2
0.43433	-1
0.43800	-1
0.44167	-1
0.44533	-1
0.44900	-1
0.45267	-1
0.45633	-1
0.46000	-1
0.46367	-1
0.46733	-1
0.47100	-1
0.47467	-0
0.47833	-1
0.48200	-1
0.48567	-1
0.48933	-1
0.49300	-1
0.49667	-2
0.50033	-2
0.50400	-2
0.50767	-2
0.51133	-2
0.51500	-3
0.51867	-3
0.52233	-3
0.52600	-3
0.52967	-4
0.53333	-4
0.53700	-4
0.54067	-4
0.54433	-4
0.54800	-5
0.55167	-5
0.55533	-5
0.55900	-5
0.56267	-5
0.56633	-5
0.57000	-5
0.57367	-5
0.57733	-5
0.58100	-5
0.58467	-5
0.58833	-4
0.59200	-4
0.59567	-4
0.59933	-4
0.60300	-4
0.60667	-4
0.61033	-4
0.61400	-4
0.61767	-4
0.62133	-4
0.62500	-4
0.62867	-4
0.63233	-5
0.63600	-5
0.63967	-5
0.64333	-5
0.64700	-5
0.65067	-5
0.65433	-5
0.65800	-5
0.66167	-4
0.66533	-4
0.66900	-4
0.67267	-4
0.67633	-3
0.68000	-3
0.68367	-3
0.68733	-3
0.69100	-3
0.69467	-3
0.69833	-2
0.70200	-2
0.70567	-2
0.70933	-2
0.71300	-2
0.71667	-2
0.72033	-2
0.72400	-2
0.72767	-2
0.73133	-2
0.73500	-2
0.73867	-2
0.74233	-1
0.74600	-1
0.74967	-1
0.75333	-1
0.75700	-1
0.76067	-1
0.76433	-1
0.76800	-1
0.77167	-1
0.77533	-1
0.77900	-1
0.78267	-1
0.78633	-1
0.79000	-1
0.79367	-2
0.79733	-2
0.80100	-2
0.80467	-3
0.80833	-3
0.81200	-3
0.81567	-3
0.81933	-4
0.82300	-4
0.82667	-4
0.83033	-4
0.83400	-4
0.83767	-3
0.84133	-3
0.84500	-3
0.84867	-3
0.85233	-3
0.85600	-3
0.85967	-3
0.86333	-3
0.86700	-3
0.87067	-4
0.87433	-4
0.87800	-4
0.88167	-4
0.88533	-5
0.88900	-5
0.89267	-5
0.89633	-5
0.90000	-5
0.90367	-5
0.90733	-5
0.91100	-4
0.91467	-4
0.91833	-4
0.92200	-4
0.92567	-4
0.92933	-4
0.93300	-4
0.93667	-4
0.94033	-4
0.94400	-4
0.94767	-4
0.95133	-4
0.95500	-4
0.95867	-4
0.96233	-3
0.96600	-3
0.96967	-3
0.97333	-2
0.97700	-2
0.98067	-2
0.98433	-2
0.98800	-2
0.99167	-3
0.99533	-3
0.99900	-3
1.00267	-3
1.00633	-4
1.01000	-4
1.01367	-4
1.01733	-4
1.02100	-4
1.02467	-4
1.02833	-4
1.03200	-4
1.03567	-3
1.03933	-4
1.04300	-4
1.04667	-4
1.05033	-4
1.05400	-4
1.05767	-4
1.06133	-4
1.06500	-4
1.06867	-4
1.07233	-4
1.07600	-4
1.07967	-3
1.08333	-3
1.08700	-3
1.09067	-3
1.09433	-3
1.09800	-3
1.10167	-3
1.10533	-3
1.10900	-3
1.11267	-3
1.11633	-4
1.12000	-4
1.12367	-4
1.12733	-4
1.13100	-4
1.13467	-4
1.13833	-3
1.14200	-3
1.14567	-3
1.14933	-3
1.15300	-3
1.15667	-3
1.16033	-3
1.16400	-3
1.16767	-3
1.17133	-3
1.17500	-3
1.17867	-3
1.18233	-3
1.18600	-3
1.18967	-4
1.19333	-4
1.19700	-4
1.20067	-4
1.20433	-4
1.20800	-5
1.21167	-5
1.21533	-5
1.21900	-5
1.22267	-6
1.22633	-6
1.23000	-6
1.23367	-6
1.23733	-6
1.24100	-7
1.24467	-7
1.24833	-7
1.25200	-7
1.25567	-6
1.25933	-6
1.26300	-6
1.26667	-6
1.27033	-6
1.27400	-5
1.27767	-5
1.28133	-5
1.28500	-5
1.28867	-4
1.29233	-4
1.29600	-4
1.29967	-5
1.30333	-5
1.30700	-5
1.31067	-5
1.31433	-6
1.31800	-6
1.32167	-6
1.32533	-6
1.32900	-5
1.33267	-5
1.33633	-5
1.34000	-5
1.34367	-5
1.34733	-5
1.35100	-4
1.35467	-4
1.35833	-4
1.36200	-4
1.36567	-4
1.36933	-3
1.37300	-3
1.37667	-3
1.38033	-3
1.38400	-3
1.38767	-2
1.39133	-2
1.39500	-2
1.39867	-3
1.40233	-3
1.40600	-3
1.40967	-4
1.41333	-4
1.41700	-4
1.42067	-5
1.42433	-5
1.42800	-5
1.43167	-5
1.43533	-5
1.43900	-5
1.44267	-6
1.44633	-6
1.45000	-6
1.45367	-6
1.45733	-6
1.46100	-6
1.46467	-6
1.46833	-6
1.47200	-6
1.47567	-6
1.47933	-6
1.48300	-6
1.48667	-6
1.49033	-6
1.49400	-6
1.49767	-6
1.50133	-6
1.50500	-6
1.50867	-5
1.51233	-5
1.51600	-5
1.51967	-5
1.52333	-5
1.52700	-5
1.53067	-5
1.53433	-5
1.53800	-5
1.54167	-5
1.54533	-5
1.54900	-5
1.55267	-5
1.55633	-6
1.56000	-6
1.56367	-6
1.56733	-6
1.57100	-6
1.57467	-7
1.57833	-7
1.58200	-6
1.58567	-6
1.58933	-6
1.59300	-6
1.59667	-6
1.60033	-7
1.60400	-7
1.60767	-9
1.61133	-10
1.61500	-12
1.61867	-15
1.62233	-18
1.62600	-21
1.62967	-24
1.63333	-28
1.63700	-32
1.64067	-36
1.64433	-40
1.64800	-44
1.65167	-47
1.65533	-50
1.65900	-54
1.66267	-58
1.66633	-62
1.67000	-66
1.67367	-71
1.67733	-76
1.68100	-81
1.68467	-85
1.68833	-90
1.69200	-94
1.69567	-97
1.69933	-100
1.70300	-103
1.70667	-106
1.71033	-108
1.71400	-109
1.71767	-111
1.72133	-113
1.72500	-114
1.72867	-115
1.73233	-116
1.73600	-117
1.73967	-117
1.74333	-117
1.74700	-117
1.75067	-117
1.75433	-116
1.75800	-114
1.76167	-113
1.76533	-112
1.76900	-112
1.77267	-112
1.77633	-112
1.78000	-113
1.78367	-114
1.78733	-116
1.79100	-117
1.79467	-118
1.79833	-119
1.80200	-119
1.80567	-120
1.80933	-120
1.81300	-121
1.81667	-120
1.82033	-120
1.82400	-120
1.82767	-120
1.83133	-120
1.83500	-120
1.83867	-120
1.84233	-120
1.84600	-121
1.84967	-121
1.85333	-121
1.85700	-121
1.86067	-121
1.86433	-121
1.86800	-120
1.87167	-120
1.87533	-119
1.87900	-118
1.88267	-118
1.88633	-118
1.89000	-118
1.89367	-118
1.89733	-118
1.90100	-118
1.90467	-118
1.90833	-118
1.91200	-118
1.91567	-119
1.91933	-119
1.92300	-119
1.92667	-119
1.93033	-118
1.93400	-118
1.93767	-117
1.94133	-117
1.94500	-117
1.94867	-116
1.95233	-116
1.95600	-116
1.95967	-117
1.96333	-117
1.96700	-117
1.97067	-117
1.97433	-116
1.97800	-115
1.98167	-114
1.98533	-113
1.98900	-112
1.99267	-112
1.99633	-111
2.00000	-111
2.00367	-111
2.00733	-112
2.01100	-112
2.01467	-112
2.01833	-111
2.02200	-111
2.02567	-110
2.02933	-110
2.03300	-109
2.03667	-109
2.04033	-109
2.04400	-109
2.04767	-109
2.05133	-110
2.05500	-109
2.05867	-109
2.06233	-109
2.06600	-110
2.06967	-110
2.07333	-110
2.07700	-109
2.08067	-108
2.08433	-107
2.08800	-106
2.09167	-105
2.09533	-104
2.09900	-103
2.10267	-103
2.10633	-103
2.11000	-103
2.11367	-102
2.11733	-102
2.12100	-102
2.12467	-102
2.12833	-102
2.13200	-101
2.13567	-100
2.13933	-100
2.14300	-99
2.14667	-98
2.15033	-98
2.15400	-98
2.15767	-98
2.16133	-98
2.16500	-98
2.16867	-98
2.17233	-98
2.17600	-98
2.17967	-98
2.18333	-98
2.18700	-98
2.19067	-97
2.19433	-97
2.19800	-97
2.20167	-96
2.20533	-96
2.20900	-96
2.21267	-95
2.21633	-95
2.22000	-95
2.22367	-94
2.22733	-94
2.23100	-94
2.23467	-94
2.23833	-93
2.24200	-93
2.24567	-92
2.24933	-92
2.25300	-91
2.25667	-91
2.26033	-91
2.26400	-91
2.26767	-90
2.27133	-90
2.27500	-90
2.27867	-90
2.28233	-90
2.28600	-91
2.28967	-91
2.29333	-91
2.29700	-91
2.30067	-90
2.30433	-90
2.30800	-89
2.31167	-88
2.31533	-87
2.31900	-86
2.32267	-86
2.32633	-86
2.33000	-86
2.33367	-86
2.33733	-85
2.34100	-84
2.34467	-83
2.34833	-83
2.35200	-82
2.35567	-82
2.35933	-82
2.36300	-82
2.36667	-80
2.37033	-79
2.37400	-76
2.37767	-73
2.38133	-69
2.38500	-65
2.38867	-60
2.39233	-56
2.39600	-51
2.39967	-46
2.40333	-42
2.40700	-37
2.41067	-34
2.41433	-30
2.41800	-28
2.42167	-26
2.42533	-24
2.42900	-22
2.43267	-21
2.43633	-19
2.44000	-17
2.44367	-15
2.44733	-13
2.45100	-12
2.45467	-10
2.45833	-8
2.46200	-7
2.46567	-6
2.46933	-5
2.47300	-4
2.47667	-4
2.48033	-3
2.48400	-3
2.48767	-2
2.49133	-1
2.49500	-0
2.49867	0
2.50233	1
2.50600	2
2.50967	3
2.51333	4
2.51700	5
2.52067	6
2.52433	6
2.52800	7
2.53167	7
2.53533	8
2.53900	8
2.54267	9
2.54633	10
2.55000	10
2.55367	10
2.55733	11
2.56100	11
2.56467	12
2.56833	12
2.57200	13
2.57567	13
2.57933	13
2.58300	13
2.58667	13
2.59033	12
2.59400	12
2.59767	11
2.60133	11
2.60500	11
2.60867	11
2.61233	11
2.61600	11
2.61967	12
2.62333	12
2.62700	12
2.63067	12
2.63433	12
2.63800	12
2.64167	12
2.64533	12
2.64900	12
2.65267	13
2.65633	13
2.66000	14
2.66367	15
2.66733	15
2.67100	16
2.67467	16
2.67833	17
2.68200	17
2.68567	18
2.68933	18
2.69300	19
2.69667	19
2.70033	19
2.70400	19
2.70767	19
2.71133	19
2.71500	19
2.71867	19
2.72233	19
2.72600	20
2.72967	20
2.73333	20
2.73700	20
2.74067	21
2.74433	21
2.74800	21
2.75167	22
2.75533	22
2.75900	23
2.76267	23
2.76633	24
2.77000	24
2.77367	25
2.77733	25
2.78100	25
2.78467	25
2.78833	25
2.79200	24
2.79567	23
2.79933	22
2.80300	21
2.80667	21
2.81033	20
2.81400	20
2.81767	20
2.82133	20
2.82500	20
2.82867	20
2.83233	20
2.83600	19
2.83967	18
2.84333	16
2.84700	12
2.85067	5
2.85433	-5
2.85800	-18
2.86167	-35
2.86533	-56
2.86900	-82
2.87267	-112
2.87633	-146
2.88000	-184
2.88367	-225
2.88733	-270
2.89100	-317
2.89467	-367
2.89833	-419
2.90200	-472
2.90567	-526
2.90933	-580
2.91300	-634
2.91667	-688
2.92033	-742
2.92400	-794
2.92767	-846
2.93133	-899
2.93500	-957
2.93867	-1017
2.94233	-1069
2.94600	-1103
2.94967	-1113
2.95333	-1096
2.95700	-1055
2.96067	-996
2.96433	-925
2.96800	-847
2.97167	-766
2.97533	-686
2.97900	-608
2.98267	-536
2.98633	-469
2.99000	-408
2.99367	-353
2.99733	-304
3.00100	-261
3.00467	-223
3.00833	-190
3.01200	-162
3.01567	-138
3.01933	-116
3.02300	-98
3.02667	-82
3.03033	-69
3.03400	-58
3.03767	-48
3.04133	-39
3.04500	-32
3.04867	-26
3.05233	-21
3.05600	-16
3.05967	-13
3.06333	-10
3.06700	-7
3.07067	-5
3.07433	-3
3.07800	-1
3.08167	1
3.08533	2
3.08900	3
3.09267	4
3.09633	5
3.10000	6
3.10367	7
3.10733	7
3.11100	8
3.11467	8
3.11833	9
3.12200	9
3.12567	10
3.12933	11
3.13300	11
3.13667	12
3.14033	13
3.14400	13
3.14767	14
3.15133	15
3.15500	15
3.15867	15
3.16233	16
3.16600	16
3.16967	16
3.17333	17
3.17700	17
3.18067	17
3.18433	17
3.18800	18
3.19167	18
3.19533	18
3.19900	18
3.20267	18
3.20633	18
3.21000	18
3.21367	18
3.21733	18
3.22100	18
3.22467	18
3.22833	18
3.23200	18
3.23567	18
3.23933	18
3.24300	19
3.24667	19
3.25033	19
3.25400	20
3.25767	20
3.26133	21
3.26500	21
3.26867	22
3.27233	22
3.27600	22
3.27967	22
3.28333	23
3.28700	23
3.29067	24
3.29433	24
3.29800	24
3.30167	24
3.30533	24
3.30900	25
3.31267	25
3.31633	25
3.32000	25
3.32367	25
3.32733	25
3.33100	25
3.33467	25
3.33833	24
3.34200	25
3.34567	25
3.34933	25
3.35300	25
3.35667	25
3.36033	26
3.36400	26
3.36767	26
3.37133	25
3.37500	25
3.37867	25
3.38233	25
3.38600	25
3.38967	24
3.39333	24
3.39700	24
3.40067	24
3.40433	24
3.40800	24
3.41167	24
3.41533	24
3.41900	24
3.42267	24
3.42633	23
3.43000	23
3.43367	23
3.43733	22
3.44100	22
3.44467	22
3.44833	22
3.45200	22
3.45567	22
3.45933	22
3.46300	22
3.46667	22
3.47033	22
3.47400	22
3.47767	22
3.48133	22
3.48500	22
3.48867	22
3.49233	22
3.49600	22
3.49967	21
3.50333	21
3.50700	21
3.51067	21
3.51433	21
3.51800	21
3.52167	22
3.52533	22
3.52900	22
3.53267	22
3.53633	22
3.54000	22
3.54367	22
3.54733	22
3.55100	22
3.55467	22
3.55833	22
3.56200	22
3.56567	22
3.56933	22
3.57300	22
3.57667	22
3.58033	23
3.58400	23
3.58767	23
3.59133	23
3.59500	23
3.59867	23
3.60233	23
3.60600	23
3.60967	23
3.61333	23
3.61700	23
3.62067	23
3.62433	23
3.62800	23
3.63167	23
3.63533	23
3.63900	23
3.64267	23
3.64633	23
3.65000	23
3.65367	23
3.65733	23
3.66100	23
3.66467	23
3.66833	23
3.67200	23
3.67567	23
3.67933	23
3.68300	23
3.68667	24
3.69033	24
3.69400	24
3.69767	24
3.70133	24
3.70500	24
3.70867	23
3.71233	23
3.71600	24
3.71967	24
3.72333	24
3.72700	24
3.73067	24
3.73433	24
3.73800	24
3.74167	24
3.74533	24
3.74900	24
3.75267	24
3.75633	23
3.76000	23
3.76367	23
3.76733	23
3.77100	23
3.77467	23
3.77833	23
3.78200	23
3.78567	23
3.78933	23
3.79300	23
3.79667	22
3.80033	22
3.80400	22
3.80767	22
3.81133	22
3.81500	22
3.81867	22
3.82233	22
3.82600	22
3.82967	21
3.83333	21
3.83700	21
3.84067	21
3.84433	21
3.84800	21
3.85167	21
3.85533	21
3.85900	21
3.86267	22
3.86633	22
3.87000	22
3.87367	21
3.87733	21
3.88100	21
3.88467	21
3.88833	21
3.89200	21
3.89567	21
3.89933	21
3.90300	22
3.90667	22
3.91033	22
3.91400	22
3.91767	22
3.92133	22
3.92500	22
3.92867	22
3.93233	22
3.93600	23
3.93967	23
3.94333	23
3.94700	23
3.95067	23
3.95433	23
3.95800	23
3.96167	23
3.96533	23
3.96900	23
3.97267	23
3.97633	24
3.98000	23
3.98367	24
3.98733	24
3.99100	24
3.99467	24
3.99833	24

[Chromatogram (Ch3)]
Interval(msec)	220
# of Points	1091
Start Time(min)	0.002
End Time(min)	3.998
R.Time (min)	Intensity
0.00167	-0
0.00533	0
0.00900	1
0.01267	4
0.01633	5
0.02000	4
0.02367	4
0.02733	5
0.03100	4
0.03467	1
0.03833	-2
0.04200	-3
0.04567	-2
0.04933	0
0.05300	1
0.05667	-1
0.06033	-2
0.06400	-2
0.06767	-3
0.07133	-5
0.07500	-5
0.07867	-3
0.08233	-3
0.08600	-3
0.08967	-6
0.09333	-7
0.09700	-7
0.10067	-7
0.10433	-7
0.10800	-5
0.11167	-5
0.11533	-5
0.11900	-6
0.12267	-6
0.12633	-5
0.13000	-5
0.13367	-4
0.13733	-1
0.14100	0
0.14467	-0
0.14833	1
0.15200	2
0.15567	-0
0.15933	-0
0.16300	1
0.16667	1
0.17033	1
0.17400	-0
0.17767	-3
0.18133	-4
0.18500	-2
0.18867	-1
0.19233	0
0.19600	1
0.19967	0
0.20333	-2
0.20700	-4
0.21067	-5
0.21433	-4
0.21800	-3
0.22167	-3
0.22533	-2
0.22900	-3
0.23267	-5
0.23633	-6
0.24000	-7
0.24367	-7
0.24733	-6
0.25100	-4
0.25467	-2
0.25833	-1
0.26200	0
0.26567	1
0.26933	0
0.27300	-1
0.27667	-2
0.28033	-2
0.28400	-2
0.28767	-3
0.29133	-2
0.29500	-1
0.29867	-1
0.30233	-2
0.30600	-1
0.30967	-1
0.31333	1
0.31700	-0
0.32067	0
0.32433	0
0.32800	-1
0.33167	-3
0.33533	-3
0.33900	-3
0.34267	-2
0.34633	-0
0.35000	1
0.35367	1
0.35733	0
0.36100	1
0.36467	1
0.36833	1
0.37200	1
0.37567	3
0.37933	5
0.38300	5
0.38667	4
0.39033	4
0.39400	4
0.39767	4
0.40133	3
0.40500	3
0.40867	4
0.41233	4
0.41600	4
0.41967	6
0.42333	5
0.42700	5
0.43067	2
0.43433	1
0.43800	2
0.44167	1
0.44533	-0
0.44900	1
0.45267	1
0.45633	0
0.46000	0
0.46367	-3
0.46733	-6
0.47100	-8
0.47467	-8
0.47833	-5
0.48200	-2
0.48567	-0
0.48933	0
0.49300	-0
0.49667	-1
0.50033	0
0.50400	-0
0.50767	0
0.51133	0
0.51500	-1
0.51867	1
0.52233	2
0.52600	3
0.52967	2
0.53333	0
0.53700	-1
0.54067	-1
0.54433	-2
0.54800	-4
0.55167	-3
0.55533	-1
0.55900	1
0.56267	3
0.56633	4
0.57000	8
0.57367	8
0.57733	8
0.58100	10
0.58467	10
0.58833	9
0.59200	7
0.59567	7
0.59933	9
0.60300	11
0.60667	12
0.61033	11
0.61400	8
0.61767	8
0.62133	7
0.62500	6
0.62867	6
0.63233	8
0.63600	10
0.63967	11
0.64333	11
0.64700	14
0.65067	14
0.65433	14
0.65800	14
0.66167	15
0.66533	14
0.66900	12
0.67267	12
0.67633	11
0.68000	12
0.68367	13
0.68733	14
0.69100	14
0.69467	13
0.69833	12
0.70200	12
0.70567	14
0.70933	16
0.71300	16
0.71667	14
0.72033	13
0.72400	13
0.72767	13
0.73133	14
0.73500	16
0.73867	17
0.74233	15
0.74600	13
0.74967	11
0.75333	9
0.75700	7
0.76067	8
0.76433	8
0.76800	9
0.77167	8
0.77533	7
0.77900	7
0.78267	7
0.78633	7
0.79000	9
0.79367	9
0.79733	10
0.80100	13
0.80467	12
0.80833	10
0.81200	7
0.81567	4
0.81933	3
0.82300	2
0.82667	2
0.83033	3
0.83400	5
0.83767	4
0.84133	3
0.84500	1
0.84867	-2
0.85233	-4
0.85600	-3
0.85967	-1
0.86333	-1
0.86700	-2
0.87067	-1
0.87433	-1
0.87800	-3
0.88167	-5
0.88533	-5
0.88900	-4
0.89267	-3
0.89633	-2
0.90000	-2
0.90367	-2
0.90733	-0
0.91100	2
0.91467	2
0.91833	3
0.92200	4
0.92567	5
0.92933	4
0.93300	2
0.93667	2
0.94033	3
0.94400	4
0.94767	4
0.95133	4
0.95500	4
0.95867	5
0.96233	5
0.96600	4
0.96967	5
0.97333	7
0.97700	6
0.98067	4
0.98433	2
0.98800	1
0.99167	2
0.99533	4
0.99900	6
1.00267	8
1.00633	8
1.01000	7
1.01367	6
1.01733	5
1.02100	5
1.02467	7
1.02833	10
1.03200	12
1.03567	13
1.03933	11
1.04300	10
1.04667	12
1.05033	11
1.05400	9
1.05767	9
1.06133	9
1.06500	9
1.06867	10
1.07233	12
1.07600	15
1.07967	17
1.08333	15
1.08700	15
1.09067	16
1.09433	18
1.09800	18
1.10167	18
1.10533	19
1.10900	21
1.11267	22
1.11633	21
1.12000	20
1.12367	19
1.12733	19
1.13100	18
1.13467	18
1.13833	17
1.14200	14
1.14567	14
1.14933	15
1.15300	14
1.15667	14
1.16033	14
1.16400	16
1.16767	18
1.17133	17
1.17500	16
1.17867	16
1.18233	16
1.18600	16
1.18967	16
1.19333	17
1.19700	17
1.20067	18
1.20433	19
1.20800	18
1.21167	17
1.21533	17
1.21900	18
1.22267	17
1.22633	17
1.23000	20
1.23367	20
1.23733	19
1.24100	19
1.24467	16
1.24833	14
1.25200	15
1.25567	16
1.25933	15
1.26300	15
1.26667	16
1.27033	15
1.27400	12
1.27767	9
1.28133	7
1.28500	8
1.28867	8
1.29233	7
1.29600	7
1.29967	8
1.30333	11
1.30700	13
1.31067	14
1.31433	15
1.31800	15
1.32167	14
1.32533	15
1.32900	17
1.33267	17
1.33633	18
1.34000	17
1.34367	16
1.34733	16
1.35100	18
1.35467	18
1.35833	17
1.36200	14
1.36567	13
1.36933	15
1.37300	15
1.37667	16
1.38033	16
1.38400	15
1.38767	13
1.39133	13
1.39500	13
1.39867	14
1.40233	15
1.40600	13
1.40967	13
1.41333	11
1.41700	10
1.42067	10
1.42433	10
1.42800	9
1.43167	7
1.43533	6
1.43900	6
1.44267	9
1.44633	9
1.45000	10
1.45367	11
1.45733	11
1.46100	11
1.46467	11
1.46833	12
1.47200	14
1.47567	14
1.47933	15
1.48300	16
1.48667	15
1.49033	13
1.49400	11
1.49767	11
1.50133	14
1.50500	15
1.50867	17
1.51233	18
1.51600	20
1.51967	18
1.52333	16
1.52700	13
1.53067	11
1.53433	9
1.53800	8
1.54167	6
1.54533	5
1.54900	7
1.55267	11
1.55633	12
1.56000	12
1.56367	11
1.56733	13
1.57100	16
1.57467	18
1.57833	18
1.58200	16
1.58567	14
1.58933	14
1.59300	13
1.59667	12
1.60033	11
1.60400	10
1.60767	10
1.61133	10
1.61500	11
1.61867	14
1.62233	16
1.62600	18
1.62967	17
1.63333	19
1.63700	21
1.64067	21
1.64433	21
1.64800	21
1.65167	21
1.65533	22
1.65900	23
1.66267	24
1.66633	24
1.67000	24
1.67367	24
1.67733	23
1.68100	24
1.68467	26
1.68833	26
1.69200	28
1.69567	30
1.69933	30
1.70300	30
1.70667	29
1.71033	27
1.71400	26
1.71767	26
1.72133	27
1.72500	27
1.72867	28
1.73233	29
1.73600	29
1.73967	27
1.74333	25
1.74700	25
1.75067	25
1.75433	25
1.75800	25
1.76167	26
1.76533	26
1.76900	26
1.77267	27
1.77633	29
1.78000	31
1.78367	30
1.78733	30
1.79100	32
1.79467	32
1.79833	31
1.80200	30
1.80567	29
1.80933	30
1.81300	30
1.81667	30
1.82033	30
1.82400	29
1.82767	28
1.83133	28
1.83500	29
1.83867	31
1.84233	31
1.84600	33
1.84967	34
1.85333	34
1.85700	33
1.86067	32
1.86433	31
1.86800	31
1.87167	34
1.87533	38
1.87900	40
1.88267	39
1.88633	38
1.89000	37
1.89367	37
1.89733	40
1.90100	41
1.90467	41
1.90833	42
1.91200	43
1.91567	41
1.91933	39
1.92300	39
1.92667	40
1.93033	42
1.93400	41
1.93767	41
1.94133	42
1.94500	43
1.94867	46
1.95233	46
1.95600	45
1.95967	44
1.96333	43
1.96700	43
1.97067	42
1.97433	40
1.97800	39
1.98167	39
1.98533	41
1.98900	43
1.99267	45
1.99633	47
2.00000	49
2.00367	49
2.00733	50
2.01100	49
2.01467	50
2.01833	49
2.02200	48
2.02567	48
2.02933	49
2.03300	49
2.03667	47
2.04033	46
2.04400	46
2.04767	46
2.05133	48
2.05500	50
2.05867	51
2.06233	50
2.06600	52
2.06967	54
2.07333	56
2.07700	58
2.08067	60
2.08433	59
2.08800	57
2.09167	58
2.09533	59
2.09900	59
2.10267	60
2.10633	59
2.11000	58
2.11367	59
2.11733	61
2.12100	64
2.12467	65
2.12833	64
2.13200	64
2.13567	66
2.13933	66
2.14300	67
2.14667	69
2.15033	72
2.15400	74
2.15767	77
2.16133	76
2.16500	75
2.16867	75
2.17233	76
2.17600	76
2.17967	74
2.18333	76
2.18700	81
2.19067	83
2.19433	82
2.19800	83
2.20167	85
2.20533	85
2.20900	85
2.21267	86
2.21633	86
2.22000	89
2.22367	89
2.22733	89
2.23100	89
2.23467	91
2.23833	96
2.24200	99
2.24567	102
2.24933	102
2.25300	102
2.25667	103
2.26033	106
2.26400	107
2.26767	109
2.27133	110
2.27500	112
2.27867	115
2.28233	116
2.28600	116
2.28967	118
2.29333	120
2.29700	122
2.30067	124
2.30433	125
2.30800	124
2.31167	123
2.31533	127
2.31900	128
2.32267	129
2.32633	129
2.33000	131
2.33367	132
2.33733	132
2.34100	133
2.34467	134
2.34833	138
2.35200	143
2.35567	146
2.35933	148
2.36300	149
2.36667	153
2.37033	155
2.37400	156
2.37767	155
2.38133	155
2.38500	154
2.38867	152
2.39233	151
2.39600	154
2.39967	157
2.40333	161
2.40700	166
2.41067	172
2.41433	175
2.41800	175
2.42167	175
2.42533	175
2.42900	179
2.43267	183
2.43633	186
2.44000	189
2.44367	219
2.44733	307
2.45100	405
2.45467	485
2.45833	540
2.46200	555
2.46567	539
2.46933	516
2.47300	500
2.47667	491
2.48033	486
2.48400	477
2.48767	459
2.49133	435
2.49500	409
2.49867	383
2.50233	361
2.50600	344
2.50967	335
2.51333	331
2.51700	329
2.52067	331
2.52433	342
2.52800	355
2.53167	367
2.53533	378
2.53900	385
2.54267	387
2.54633	384
2.55000	375
2.55367	362
2.55733	345
2.56100	330
2.56467	314
2.56833	300
2.57200	289
2.57567	282
2.57933	278
2.58300	275
2.58667	273
2.59033	273
2.59400	270
2.59767	265
2.60133	257
2.60500	246
2.60867	230
2.61233	210
2.61600	188
2.61967	170
2.62333	155
2.62700	141
2.63067	131
2.63433	124
2.63800	121
2.64167	122
2.64533	128
2.64900	136
2.65267	146
2.65633	156
2.66000	166
2.66367	177
2.66733	188
2.67100	198
2.67467	208
2.67833	213
2.68200	215
2.68567	215
2.68933	212
2.69300	209
2.69667	208
2.70033	207
2.70400	207
2.70767	205
2.71133	203
2.71500	201
2.71867	199
2.72233	196
2.72600	195
2.72967	194
2.73333	193
2.73700	193
2.74067	191
2.74433	192
2.74800	194
2.75167	197
2.75533	199
2.75900	200
2.76267	202
2.76633	203
2.77000	204
2.77367	203
2.77733	204
2.78100	205
2.78467	206
2.78833	206
2.79200	206
2.79567	206
2.79933	205
2.80300	206
2.80667	207
2.81033	208
2.81400	211
2.81767	219
2.82133	239
2.82500	279
2.82867	356
2.83233	492
2.83600	707
2.83967	1021
2.84333	1441
2.84700	1955
2.85067	2538
2.85433	3148
2.85800	3737
2.86167	4257
2.86533	4665
2.86900	4934
2.87267	5054
2.87633	5035
2.88000	4894
2.88367	4657
2.88733	4357
2.89100	4022
2.89467	3669
2.89833	3315
2.90200	2971
2.90567	2651
2.90933	2359
2.91300	2094
2.91667	1857
2.92033	1647
2.92400	1461
2.92767	1298
2.93133	1155
2.93500	1032
2.93867	926
2.94233	834
2.94600	755
2.94967	685
2.95333	625
2.95700	573
2.96067	529
2.96433	490
2.96800	457
2.97167	429
2.97533	403
2.97900	381
2.98267	362
2.98633	345
2.99000	330
2.99367	316
2.99733	303
3.00100	290
3.00467	280
3.00833	274
3.01200	267
3.01567	261
3.01933	257
3.02300	253
3.02667	247
3.03033	241
3.03400	236
3.03767	231
3.04133	227
3.04500	224
3.04867	224
3.05233	221
3.05600	217
3.05967	213
3.06333	209
3.06700	206
3.07067	203
3.07433	198
3.07800	196
3.08167	195
3.08533	194
3.08900	194
3.09267	194
3.09633	192
3.10000	189
3.10367	188
3.10733	186
3.11100	185
3.11467	183
3.11833	180
3.12200	178
3.12567	176
3.12933	175
3.13300	174
3.13667	174
3.14033	174
3.14400	173
3.14767	171
3.15133	172
3.15500	173
3.15867	173
3.16233	172
3.16600	171
3.16967	170
3.17333	172
3.17700	175
3.18067	175
3.18433	175
3.18800	175
3.19167	174
3.19533	177
3.19900	180
3.20267	180
3.20633	180
3.21000	180
3.21367	179
3.21733	177
3.22100	176
3.22467	176
3.22833	177
3.23200	179
3.23567	179
3.23933	179
3.24300	180
3.24667	180
3.25033	179
3.25400	180
3.25767	182
3.26133	181
3.26500	181
3.26867	183
3.27233	182
3.27600	180
3.27967	177
3.28333	176
3.28700	179
3.29067	181
3.29433	181
3.29800	179
3.30167	179
3.30533	176
3.30900	172
3.31267	173
3.31633	174
3.32000	175
3.32367	175
3.32733	175
3.33100	173
3.33467	170
3.33833	167
3.34200	167
3.34567	168
3.34933	167
3.35300	167
3.35667	168
3.36033	168
3.36400	169
3.36767	169
3.37133	168
3.37500	166
3.37867	165
3.38233	162
3.38600	160
3.38967	161
3.39333	162
3.39700	162
3.40067	163
3.40433	165
3.40800	168
3.41167	171
3.41533	169
3.41900	168
3.42267	168
3.42633	168
3.43000	167
3.43367	167
3.43733	169
3.44100	168
3.44467	167
3.44833	166
3.45200	166
3.45567	164
3.45933	162
3.46300	160
3.46667	160
3.47033	163
3.47400	164
3.47767	163
3.48133	164
3.48500	164
3.48867	165
3.49233	166
3.49600	165
3.49967	165
3.50333	165
3.50700	165
3.51067	164
3.51433	163
3.51800	162
3.52167	161
3.52533	159
3.52900	159
3.53267	160
3.53633	163
3.54000	165
3.54367	168
3.54733	170
3.55100	173
3.55467	173
3.55833	174
3.56200	175
3.56567	174
3.56933	173
3.57300	169
3.57667	165
3.58033	162
3.58400	160
3.58767	162
3.59133	164
3.59500	166
3.59867	166
3.60233	166
3.60600	166
3.60967	164
3.61333	166
3.61700	168
3.62067	169
3.62433	170
3.62800	168
3.63167	164
3.63533	162
3.63900	163
3.64267	165
3.64633	166
3.65000	166
3.65367	164
3.65733	163
3.66100	163
3.66467	163
3.66833	163
3.67200	166
3.67567	168
3.67933	168
3.68300	167
3.68667	167
3.69033	165
3.69400	164
3.69767	160
3.70133	152
3.70500	142
3.70867	122
3.71233	97
3.71600	72
3.71967	55
3.72333	46
3.72700	45
3.73067	52
3.73433	59
3.73800	70
3.74167	87
3.74533	102
3.74900	118
3.75267	130
3.75633	142
3.76000	155
3.76367	169
3.76733	185
3.77100	200
3.77467	215
3.77833	231
3.78200	246
3.78567	258
3.78933	269
3.79300	281
3.79667	291
3.80033	301
3.80400	307
3.80767	313
3.81133	319
3.81500	327
3.81867	334
3.82233	338
3.82600	341
3.82967	344
3.83333	348
3.83700	353
3.84067	357
3.84433	356
3.84800	355
3.85167	356
3.85533	359
3.85900	360
3.86267	360
3.86633	361
3.87000	361
3.87367	361
3.87733	361
3.88100	361
3.88467	363
3.88833	362
3.89200	362
3.89567	363
3.89933	364
3.90300	363
3.90667	363
3.91033	364
3.91400	363
3.91767	365
3.92133	366
3.92500	363
3.92867	360
3.93233	358
3.93600	358
3.93967	357
3.94333	356
3.94700	354
3.95067	352
3.95433	350
3.95800	350
3.96167	348
3.96533	344
3.96900	342
3.97267	343
3.97633	346
3.98000	349
3.98367	349
3.98733	349
3.99100	349
3.99467	348
3.99833	347

[Status Trace (Column Oven Temperature)]
Interval(msec)	1000
# of Points	240
Start Time(min)	0.008
End Time(min)	3.991
Intensity Units	
Intensity Multiplier	1
R.Time (min)	Intensity
0.00767	35.04
0.02433	35.03
0.04100	35.03
0.05767	35.04
0.07433	35.04
0.09100	35.04
0.10767	35.04
0.12433	35.04
0.14100	35.04
0.15767	35.04
0.17433	35.03
0.19100	35.02
0.20767	35.01
0.22433	35.02
0.24100	35.03
0.25767	35.02
0.27433	35.02
0.29100	35.02
0.30767	35.01
0.32433	35.01
0.34100	35.01
0.35767	35.01
0.37433	35.01
0.39100	35.01
0.40767	35.01
0.42433	35.00
0.44100	34.99
0.45767	35.00
0.47433	35.00
0.49100	35.00
0.50767	35.00
0.52433	35.01
0.54100	35.02
0.55767	35.02
0.57433	35.02
0.59100	35.03
0.60767	35.03
0.62433	35.03
0.64100	35.03
0.65767	35.03
0.67433	35.02
0.69100	35.02
0.70767	35.02
0.72433	35.02
0.74100	35.01
0.75767	35.00
0.77433	35.00
0.79100	34.99
0.80767	35.00
0.82433	35.00
0.84100	34.99
0.85767	34.99
0.87433	35.00
0.89100	35.00
0.90767	35.00
0.92433	35.00
0.94100	35.01
0.95767	35.01
0.97433	34.99
0.99100	34.99
1.00767	35.00
1.02433	35.01
1.04100	35.00
1.05767	35.00
1.07433	35.00
1.09100	35.00
1.10767	35.00
1.12433	35.00
1.14100	34.99
1.15767	34.98
1.17433	34.98
1.19100	34.99
1.20767	35.00
1.22433	35.00
1.24100	35.00
1.25767	35.01
1.27433	35.00
1.29100	35.00
1.30767	35.00
1.32433	35.00
1.34100	35.00
1.35767	34.99
1.37433	34.98
1.39100	34.97
1.40767	34.97
1.42433	34.97
1.44100	34.97
1.45767	34.98
1.47433	34.99
1.49100	34.99
1.50767	34.99
1.52433	34.98
1.54100	34.98
1.55767	34.99
1.57433	34.99
1.59100	35.00
1.60767	35.05
1.62433	35.18
1.64100	35.37
1.65767	35.63
1.67433	35.96
1.69100	36.32
1.70767	36.68
1.72433	37.03
1.74100	37.36
1.75767	37.66
1.77433	37.98
1.79100	38.33
1.80767	38.67
1.82433	39.00
1.84100	39.34
1.85767	39.68
1.87433	39.99
1.89100	40.33
1.90767	40.66
1.92433	41.00
1.94100	41.31
1.95767	41.65
1.97433	41.97
1.99100	42.27
2.00767	42.62
2.02433	42.93
2.04100	43.26
2.05767	43.59
2.07433	43.91
2.09100	44.24
2.10767	44.56
2.12433	44.88
2.14100	45.20
2.15767	45.53
2.17433	45.85
2.19100	46.19
2.20767	46.50
2.22433	46.84
2.24100	47.16
2.25767	47.49
2.27433	47.83
2.29100	48.18
2.30767	48.49
2.32433	48.83
2.34100	49.14
2.35767	49.47
2.37433	49.67
2.39100	49.74
2.40767	49.71
2.42433	49.73
2.44100	49.73
2.45767	49.73
2.47433	49.77
2.49100	49.78
2.50767	49.78
2.52433	49.80
2.54100	49.80
2.55767	49.80
2.57433	49.80
2.59100	49.83
2.60767	49.83
2.62433	49.83
2.64100	49.84
2.65767	49.85
2.67433	49.85
2.69100	49.85
2.70767	49.86
2.72433	49.87
2.74100	49.86
2.75767	49.87
2.77433	49.84
2.79100	49.86
2.80767	49.90
2.82433	49.91
2.84100	49.91
2.85767	49.91
2.87433	49.92
2.89100	49.92
2.90767	49.93
2.92433	49.95
2.94100	49.97
2.95767	49.98
2.97433	50.00
2.99100	50.00
3.00767	50.01
3.02433	50.02
3.04100	50.04
3.05767	50.05
3.07433	50.07
3.09100	50.07
3.10767	50.09
3.12433	50.09
3.14100	50.09
3.15767	50.09
3.17433	50.08
3.19100	50.09
3.20767	50.10
3.22433	50.11
3.24100	50.12
3.25767	50.11
3.27433	50.09
3.29100	50.07
3.30767	50.05
3.32433	50.04
3.34100	50.02
3.35767	50.00
3.37433	49.99
3.39100	50.00
3.40767	50.00
3.42433	50.01
3.44100	50.01
3.45767	50.01
3.47433	50.01
3.49100	50.02
3.50767	50.02
3.52433	50.03
3.54100	50.03
3.55767	50.04
3.57433	50.03
3.59100	50.03
3.60767	50.04
3.62433	50.04
3.64100	50.05
3.65767	50.05
3.67433	50.05
3.69100	50.04
3.70767	50.04
3.72433	50.04
3.74100	50.04
3.75767	50.04
3.77433	50.04
3.79100	50.04
3.80767	50.05
3.82433	50.06
3.84100	50.07
3.85767	50.08
3.87433	50.08
3.89100	50.09
3.90767	50.08
3.92433	50.09
3.94100	50.08
3.95767	50.08
3.97433	50.08
3.99100	50.07

[Status Trace (Injection Unit Temperature)]
Interval(msec)	1000
# of Points	240
Start Time(min)	0.008
End Time(min)	3.991
Intensity Units	
Intensity Multiplier	1
R.Time (min)	Intensity
0.00767	99.98
0.02433	99.98
0.04100	99.98
0.05767	99.97
0.07433	99.98
0.09100	99.98
0.10767	99.98
0.12433	99.98
0.14100	99.97
0.15767	99.98
0.17433	99.98
0.19100	99.98
0.20767	99.98
0.22433	99.98
0.24100	99.98
0.25767	99.98
0.27433	99.98
0.29100	99.98
0.30767	99.98
0.32433	99.98
0.34100	99.98
0.35767	99.98
0.37433	99.98
0.39100	99.98
0.40767	99.98
0.42433	99.98
0.44100	99.98
0.45767	99.98
0.47433	99.98
0.49100	99.98
0.50767	99.98
0.52433	99.98
0.54100	99.98
0.55767	99.98
0.57433	99.98
0.59100	99.98
0.60767	99.98
0.62433	99.98
0.64100	99.98
0.65767	99.98
0.67433	99.98
0.69100	99.98
0.70767	99.98
0.72433	99.98
0.74100	99.98
0.75767	99.98
0.77433	99.98
0.79100	99.97
0.80767	99.98
0.82433	99.98
0.84100	99.98
0.85767	99.98
0.87433	99.98
0.89100	99.98
0.90767	99.98
0.92433	99.98
0.94100	99.98
0.95767	99.98
0.97433	99.98
0.99100	99.98
1.00767	99.98
1.02433	99.98
1.04100	99.98
1.05767	99.98
1.07433	99.98
1.09100	99.98
1.10767	99.98
1.12433	99.98
1.14100	99.98
1.15767	99.98
1.17433	99.98
1.19100	99.98
1.20767	99.98
1.22433	99.98
1.24100	99.98
1.25767	99.98
1.27433	99.98
1.29100	99.98
1.30767	99.98
1.32433	99.98
1.34100	99.98
1.35767	99.98
1.37433	99.98
1.39100	99.98
1.40767	99.98
1.42433	99.98
1.44100	99.98
1.45767	99.98
1.47433	99.98
1.49100	99.98
1.50767	99.98
1.52433	99.98
1.54100	99.98
1.55767	99.98
1.57433	99.98
1.59100	99.98
1.60767	99.98
1.62433	99.98
1.64100	99.98
1.65767	99.98
1.67433	99.98
1.69100	99.98
1.70767	99.99
1.72433	99.99
1.74100	99.98
1.75767	99.98
1.77433	99.98
1.79100	99.98
1.80767	99.98
1.82433	99.98
1.84100	99.98
1.85767	99.98
1.87433	99.98
1.89100	99.98
1.90767	99.98
1.92433	99.98
1.94100	99.98
1.95767	99.98
1.97433	99.98
1.99100	99.98
2.00767	99.98
2.02433	99.98
2.04100	99.98
2.05767	99.98
2.07433	99.97
2.09100	99.97
2.10767	99.98
2.12433	99.97
2.14100	99.97
2.15767	99.97
2.17433	99.97
2.19100	99.97
2.20767	99.97
2.22433	99.97
2.24100	99.97
2.25767	99.97
2.27433	99.97
2.29100	99.97
2.30767	99.97
2.32433	99.97
2.34100	99.97
2.35767	99.97
2.37433	99.97
2.39100	99.96
2.40767	99.97
2.42433	99.97
2.44100	99.97
2.45767	99.96
2.47433	99.97
2.49100	99.97
2.50767	99.97
2.52433	99.97
2.54100	99.97
2.55767	99.98
2.57433	99.97
2.59100	99.98
2.60767	99.98
2.62433	99.98
2.64100	99.97
2.65767	99.98
2.67433	99.98
2.69100	99.98
2.70767	99.99
2.72433	99.98
2.74100	99.99
2.75767	99.99
2.77433	99.99
2.79100	99.99
2.80767	99.99
2.82433	99.99
2.84100	99.99
2.85767	99.99
2.87433	100.00
2.89100	100.00
2.90767	100.00
2.92433	100.00
2.94100	100.00
2.95767	100.01
2.97433	100.00
2.99100	100.00
3.00767	100.00
3.02433	100.01
3.04100	100.01
3.05767	100.01
3.07433	100.01
3.09100	100.01
3.10767	100.01
3.12433	100.01
3.14100	100.02
3.15767	100.02
3.17433	100.02
3.19100	100.02
3.20767	100.02
3.22433	100.02
3.24100	100.02
3.25767	100.03
3.27433	100.02
3.29100	100.03
3.30767	100.03
3.32433	100.02
3.34100	100.03
3.35767	100.03
3.37433	100.03
3.39100	100.03
3.40767	100.03
3.42433	100.03
3.44100	100.03
3.45767	100.03
3.47433	100.04
3.49100	100.03
3.50767	100.04
3.52433	100.04
3.54100	100.04
3.55767	100.03
3.57433	100.03
3.59100	100.04
3.60767	100.04
3.62433	100.04
3.64100	100.04
3.65767	100.04
3.67433	100.04
3.69100	100.04
3.70767	100.04
3.72433	100.04
3.74100	100.04
3.75767	100.04
3.77433	100.04
3.79100	100.04
3.80767	100.05
3.82433	100.05
3.84100	100.05
3.85767	100.05
3.87433	100.04
3.89100	100.05
3.90767	100.04
3.92433	100.04
3.94100	100.04
3.95767	100.04
3.97433	100.05
3.99100	100.05

[Status Trace (Carrier Gas Pressure)]
Interval(msec)	1000
# of Points	240
Start Time(min)	0.008
End Time(min)	3.991
Intensity Units	
Intensity Multiplier	1
R.Time (min)	Intensity
0.00767	58.00
0.02433	55.47
0.04100	57.09
0.05767	59.26
0.07433	59.48
0.09100	58.07
0.10767	57.98
0.12433	58.01
0.14100	58.01
0.15767	58.00
0.17433	58.00
0.19100	58.00
0.20767	58.00
0.22433	58.00
0.24100	58.00
0.25767	58.00
0.27433	58.00
0.29100	58.00
0.30767	58.00
0.32433	58.00
0.34100	58.00
0.35767	58.00
0.37433	58.00
0.39100	58.00
0.40767	58.00
0.42433	58.00
0.44100	58.00
0.45767	58.00
0.47433	58.00
0.49100	58.00
0.50767	58.00
0.52433	58.00
0.54100	58.00
0.55767	58.00
0.57433	58.00
0.59100	58.00
0.60767	58.00
0.62433	58.00
0.64100	58.00
0.65767	58.00
0.67433	58.00
0.69100	58.00
0.70767	58.00
0.72433	58.00
0.74100	58.00
0.75767	58.00
0.77433	58.00
0.79100	58.00
0.80767	58.00
0.82433	58.00
0.84100	58.00
0.85767	58.00
0.87433	58.00
0.89100	58.00
0.90767	58.00
0.92433	58.00
0.94100	58.00
0.95767	58.00
0.97433	58.00
0.99100	58.00
1.00767	58.00
1.02433	58.00
1.04100	58.00
1.05767	58.00
1.07433	58.00
1.09100	58.00
1.10767	58.00
1.12433	58.00
1.14100	58.00
1.15767	58.00
1.17433	58.00
1.19100	58.00
1.20767	58.00
1.22433	58.00
1.24100	58.00
1.25767	58.00
1.27433	58.00
1.29100	58.00
1.30767	58.00
1.32433	58.00
1.34100	58.00
1.35767	58.00
1.37433	58.00
1.39100	58.00
1.40767	58.00
1.42433	58.00
1.44100	58.00
1.45767	58.00
1.47433	58.00
1.49100	58.00
1.50767	58.00
1.52433	58.00
1.54100	58.00
1.55767	58.00
1.57433	58.00
1.59100	58.00
1.60767	58.00
1.62433	58.00
1.64100	58.00
1.65767	58.00
1.67433	58.01
1.69100	58.00
1.70767	58.00
1.72433	58.00
1.74100	58.00
1.75767	58.00
1.77433	58.00
1.79100	58.00
1.80767	58.00
1.82433	58.00
1.84100	58.00
1.85767	58.00
1.87433	58.00
1.89100	58.00
1.90767	58.00
1.92433	58.00
1.94100	58.00
1.95767	58.00
1.97433	58.00
1.99100	58.00
2.00767	58.00
2.02433	58.00
2.04100	58.00
2.05767	58.00
2.07433	58.00
2.09100	58.00
2.10767	58.00
2.12433	58.00
2.14100	58.00
2.15767	58.00
2.17433	58.00
2.19100	58.00
2.20767	58.00
2.22433	58.00
2.24100	58.00
2.25767	58.00
2.27433	58.00
2.29100	58.00
2.30767	58.00
2.32433	58.00
2.34100	58.00
2.35767	58.00
2.37433	58.00
2.39100	57.99
2.40767	57.99
2.42433	58.00
2.44100	58.00
2.45767	58.00
2.47433	58.00
2.49100	58.00
2.50767	57.99
2.52433	57.98
2.54100	58.00
2.55767	58.00
2.57433	58.00
2.59100	58.00
2.60767	58.00
2.62433	58.00
2.64100	58.00
2.65767	58.00
2.67433	58.00
2.69100	58.00
2.70767	58.00
2.72433	58.00
2.74100	58.00
2.75767	58.00
2.77433	58.00
2.79100	58.00
2.80767	58.00
2.82433	58.00
2.84100	58.00
2.85767	58.00
2.87433	58.00
2.89100	58.00
2.90767	58.00
2.92433	58.00
2.94100	58.00
2.95767	58.00
2.97433	58.00
2.99100	58.00
3.00767	58.00
3.02433	58.00
3.04100	58.00
3.05767	58.00
3.07433	58.00
3.09100	58.00
3.10767	58.00
3.12433	58.00
3.14100	58.00
3.15767	58.00
3.17433	58.00
3.19100	58.00
3.20767	58.00
3.22433	58.00
3.24100	58.00
3.25767	58.00
3.27433	58.00
3.29100	58.00
3.30767	58.00
3.32433	58.00
3.34100	58.00
3.35767	58.00
3.37433	58.00
3.39100	58.00
3.40767	58.00
3.42433	58.00
3.44100	58.00
3.45767	58.00
3.47433	58.00
3.49100	58.00
3.50767	58.00
3.52433	58.00
3.54100	58.00
3.55767	58.00
3.57433	58.00
3.59100	58.00
3.60767	58.00
3.62433	58.00
3.64100	58.00
3.65767	58.00
3.67433	58.00
3.69100	58.00
3.70767	58.00
3.72433	58.00
3.74100	58.00
3.75767	58.00
3.77433	58.00
3.79100	58.00
3.80767	58.00
3.82433	58.00
3.84100	58.00
3.85767	58.00
3.87433	58.00
3.89100	58.00
3.90767	58.00
3.92433	58.00
3.94100	58.00
3.95767	58.00
3.97433	58.00
3.99100	58.00

[Status Trace (Carrier Gas Flow)]
Interval(msec)	1000
# of Points	240
Start Time(min)	0.008
End Time(min)	3.991
Intensity Units	
Intensity Multiplier	1
R.Time (min)	Intensity
0.00767	34.52
0.02433	34.54
0.04100	34.54
0.05767	34.55
0.07433	34.50
0.09100	34.52
0.10767	34.52
0.12433	34.52
0.14100	34.52
0.15767	34.51
0.17433	34.52
0.19100	34.52
0.20767	34.52
0.22433	34.52
0.24100	34.52
0.25767	34.52
0.27433	34.51
0.29100	34.52
0.30767	34.51
0.32433	34.52
0.34100	34.52
0.35767	34.52
0.37433	34.52
0.39100	34.52
0.40767	34.52
0.42433	34.52
0.44100	34.52
0.45767	34.51
0.47433	34.51
0.49100	34.52
0.50767	34.52
0.52433	34.52
0.54100	34.52
0.55767	34.52
0.57433	34.52
0.59100	34.52
0.60767	34.52
0.62433	34.52
0.64100	34.51
0.65767	34.52
0.67433	34.52
0.69100	34.52
0.70767	34.52
0.72433	34.52
0.74100	34.52
0.75767	34.52
0.77433	34.52
0.79100	34.51
0.80767	34.51
0.82433	34.52
0.84100	34.52
0.85767	34.52
0.87433	34.52
0.89100	34.53
0.90767	34.52
0.92433	34.52
0.94100	34.52
0.95767	34.52
0.97433	34.52
0.99100	34.52
1.00767	34.52
1.02433	34.52
1.04100	34.51
1.05767	34.52
1.07433	34.51
1.09100	34.52
1.10767	34.52
1.12433	34.52
1.14100	34.52
1.15767	34.52
1.17433	34.53
1.19100	34.52
1.20767	34.52
1.22433	34.52
1.24100	34.52
1.25767	34.52
1.27433	34.52
1.29100	34.52
1.30767	34.52
1.32433	34.52
1.34100	34.52
1.35767	34.52
1.37433	34.52
1.39100	34.52
1.40767	34.52
1.42433	34.52
1.44100	34.52
1.45767	34.52
1.47433	34.51
1.49100	34.51
1.50767	34.52
1.52433	34.52
1.54100	34.52
1.55767	34.51
1.57433	34.52
1.59100	34.53
1.60767	34.52
1.62433	34.51
1.64100	34.51
1.65767	34.52
1.67433	34.52
1.69100	34.52
1.70767	34.52
1.72433	34.52
1.74100	34.52
1.75767	34.52
1.77433	34.52
1.79100	34.52
1.80767	34.52
1.82433	34.52
1.84100	34.51
1.85767	34.52
1.87433	34.52
1.89100	34.52
1.90767	34.52
1.92433	34.52
1.94100	34.52
1.95767	34.52
1.97433	34.52
1.99100	34.52
2.00767	34.53
2.02433	34.52
2.04100	34.52
2.05767	34.52
2.07433	34.52
2.09100	34.51
2.10767	34.52
2.12433	34.51
2.14100	34.51
2.15767	34.52
2.17433	34.51
2.19100	34.52
2.20767	34.51
2.22433	34.52
2.24100	34.52
2.25767	34.52
2.27433	34.52
2.29100	34.52
2.30767	34.52
2.32433	34.52
2.34100	34.52
2.35767	34.52
2.37433	34.52
2.39100	34.52
2.40767	34.52
2.42433	34.51
2.44100	34.52
2.45767	34.52
2.47433	34.52
2.49100	34.52
2.50767	34.40
2.52433	34.52
2.54100	34.53
2.55767	34.52
2.57433	34.52
2.59100	34.52
2.60767	34.52
2.62433	34.52
2.64100	34.51
2.65767	34.51
2.67433	34.52
2.69100	34.52
2.70767	34.52
2.72433	34.52
2.74100	34.52
2.75767	34.52
2.77433	34.53
2.79100	34.52
2.80767	34.51
2.82433	34.52
2.84100	34.51
2.85767	34.52
2.87433	34.52
2.89100	34.52
2.90767	34.52
2.92433	34.51
2.94100	34.52
2.95767	34.51
2.97433	34.52
2.99100	34.52
3.00767	34.52
3.02433	34.52
3.04100	34.52
3.05767	34.52
3.07433	34.52
3.09100	34.52
3.10767	34.51
3.12433	34.52
3.14100	34.52
3.15767	34.52
3.17433	34.52
3.19100	34.52
3.20767	34.52
3.22433	34.52
3.24100	34.52
3.25767	34.52
3.27433	34.52
3.29100	34.52
3.30767	34.51
3.32433	34.52
3.34100	34.52
3.35767	34.52
3.37433	34.52
3.39100	34.52
3.40767	34.52
3.42433	34.52
3.44100	34.52
3.45767	34.51
3.47433	34.52
3.49100	34.52
3.50767	34.52
3.52433	34.52
3.54100	34.52
3.55767	34.52
3.57433	34.52
3.59100	34.52
3.60767	34.52
3.62433	34.52
3.64100	34.52
3.65767	34.52
3.67433	34.52
3.69100	34.52
3.70767	34.52
3.72433	34.52
3.74100	34.52
3.75767	34.52
3.77433	34.52
3.79100	34.52
3.80767	34.52
3.82433	34.52
3.84100	34.52
3.85767	34.52
3.87433	34.52
3.89100	34.52
3.90767	34.52
3.92433	34.51
3.94100	34.52
3.95767	34.52
3.97433	34.52
3.99100	34.52

[Status Trace (Column Flow)]
Interval(msec)	1000
# of Points	240
Start Time(min)	0.008
End Time(min)	3.991
Intensity Units	
Intensity Multiplier	1
R.Time (min)	Intensity
0.00767	5.57
0.02433	5.28
0.04100	5.46
0.05767	5.72
0.07433	5.75
0.09100	5.58
0.10767	5.57
0.12433	5.57
0.14100	5.57
0.15767	5.57
0.17433	5.57
0.19100	5.57
0.20767	5.57
0.22433	5.57
0.24100	5.57
0.25767	5.57
0.27433	5.57
0.29100	5.57
0.30767	5.57
0.32433	5.57
0.34100	5.57
0.35767	5.57
0.37433	5.57
0.39100	5.57
0.40767	5.57
0.42433	5.57
0.44100	5.57
0.45767	5.57
0.47433	5.57
0.49100	5.57
0.50767	5.57
0.52433	5.57
0.54100	5.57
0.55767	5.57
0.57433	5.57
0.59100	5.57
0.60767	5.57
0.62433	5.57
0.64100	5.57
0.65767	5.57
0.67433	5.57
0.69100	5.57
0.70767	5.57
0.72433	5.57
0.74100	5.57
0.75767	5.57
0.77433	5.57
0.79100	5.57
0.80767	5.57
0.82433	5.57
0.84100	5.57
0.85767	5.57
0.87433	5.57
0.89100	5.57
0.90767	5.57
0.92433	5.57
0.94100	5.57
0.95767	5.57
0.97433	5.57
0.99100	5.57
1.00767	5.57
1.02433	5.57
1.04100	5.57
1.05767	5.57
1.07433	5.57
1.09100	5.57
1.10767	5.57
1.12433	5.57
1.14100	5.57
1.15767	5.57
1.17433	5.57
1.19100	5.57
1.20767	5.57
1.22433	5.57
1.24100	5.57
1.25767	5.57
1.27433	5.57
1.29100	5.57
1.30767	5.57
1.32433	5.57
1.34100	5.57
1.35767	5.57
1.37433	5.57
1.39100	5.57
1.40767	5.57
1.42433	5.57
1.44100	5.57
1.45767	5.57
1.47433	5.57
1.49100	5.57
1.50767	5.57
1.52433	5.57
1.54100	5.57
1.55767	5.57
1.57433	5.57
1.59100	5.57
1.60767	5.57
1.62433	5.57
1.64100	5.56
1.65767	5.55
1.67433	5.54
1.69100	5.53
1.70767	5.52
1.72433	5.51
1.74100	5.50
1.75767	5.49
1.77433	5.48
1.79100	5.47
1.80767	5.46
1.82433	5.45
1.84100	5.44
1.85767	5.43
1.87433	5.42
1.89100	5.41
1.90767	5.40
1.92433	5.39
1.94100	5.38
1.95767	5.37
1.97433	5.36
1.99100	5.35
2.00767	5.34
2.02433	5.33
2.04100	5.32
2.05767	5.31
2.07433	5.30
2.09100	5.29
2.10767	5.28
2.12433	5.27
2.14100	5.26
2.15767	5.25
2.17433	5.24
2.19100	5.23
2.20767	5.22
2.22433	5.22
2.24100	5.20
2.25767	5.20
2.27433	5.19
2.29100	5.18
2.30767	5.17
2.32433	5.16
2.34100	5.15
2.35767	5.14
2.37433	5.13
2.39100	5.13
2.40767	5.13
2.42433	5.13
2.44100	5.13
2.45767	5.13
2.47433	5.13
2.49100	5.13
2.50767	5.13
2.52433	5.13
2.54100	5.13
2.55767	5.13
2.57433	5.13
2.59100	5.13
2.60767	5.13
2.62433	5.13
2.64100	5.13
2.65767	5.13
2.67433	5.13
2.69100	5.13
2.70767	5.13
2.72433	5.13
2.74100	5.13
2.75767	5.13
2.77433	5.13
2.79100	5.13
2.80767	5.13
2.82433	5.13
2.84100	5.13
2.85767	5.13
2.87433	5.13
2.89100	5.13
2.90767	5.13
2.92433	5.13
2.94100	5.13
2.95767	5.12
2.97433	5.12
2.99100	5.12
3.00767	5.12
3.02433	5.12
3.04100	5.12
3.05767	5.12
3.07433	5.12
3.09100	5.12
3.10767	5.12
3.12433	5.12
3.14100	5.12
3.15767	5.12
3.17433	5.12
3.19100	5.12
3.20767	5.12
3.22433	5.12
3.24100	5.12
3.25767	5.12
3.27433	5.12
3.29100	5.12
3.30767	5.12
3.32433	5.12
3.34100	5.12
3.35767	5.12
3.37433	5.12
3.39100	5.12
3.40767	5.12
3.42433	5.12
3.44100	5.12
3.45767	5.12
3.47433	5.12
3.49100	5.12
3.50767	5.12
3.52433	5.12
3.54100	5.12
3.55767	5.12
3.57433	5.12
3.59100	5.12
3.60767	5.12
3.62433	5.12
3.64100	5.12
3.65767	5.12
3.67433	5.12
3.69100	5.12
3.70767	5.12
3.72433	5.12
3.74100	5.12
3.75767	5.12
3.77433	5.12
3.79100	5.12
3.80767	5.12
3.82433	5.12
3.84100	5.12
3.85767	5.12
3.87433	5.12
3.89100	5.12
3.90767	5.12
3.92433	5.12
3.94100	5.12
3.95767	5.12
3.97433	5.12
3.99100	5.12

[Status Trace (Linear Velocity)]
Interval(msec)	1000
# of Points	240
Start Time(min)	0.008
End Time(min)	3.991
Intensity Units	
Intensity Multiplier	1
R.Time (min)	Intensity
0.00767	39.03
0.02433	37.37
0.04100	38.42
0.05767	39.85
0.07433	40.00
0.09100	39.07
0.10767	39.01
0.12433	39.03
0.14100	39.03
0.15767	39.03
0.17433	39.03
0.19100	39.03
0.20767	39.03
0.22433	39.03
0.24100	39.03
0.25767	39.03
0.27433	39.03
0.29100	39.03
0.30767	39.03
0.32433	39.03
0.34100	39.03
0.35767	39.03
0.37433	39.03
0.39100	39.03
0.40767	39.03
0.42433	39.03
0.44100	39.03
0.45767	39.03
0.47433	39.03
0.49100	39.03
0.50767	39.03
0.52433	39.03
0.54100	39.03
0.55767	39.03
0.57433	39.03
0.59100	39.03
0.60767	39.03
0.62433	39.03
0.64100	39.03
0.65767	39.03
0.67433	39.03
0.69100	39.03
0.70767	39.03
0.72433	39.03
0.74100	39.03
0.75767	39.03
0.77433	39.03
0.79100	39.03
0.80767	39.03
0.82433	39.03
0.84100	39.03
0.85767	39.03
0.87433	39.03
0.89100	39.03
0.90767	39.03
0.92433	39.03
0.94100	39.03
0.95767	39.03
0.97433	39.03
0.99100	39.03
1.00767	39.03
1.02433	39.03
1.04100	39.03
1.05767	39.03
1.07433	39.03
1.09100	39.03
1.10767	39.03
1.12433	39.03
1.14100	39.03
1.15767	39.03
1.17433	39.03
1.19100	39.03
1.20767	39.03
1.22433	39.03
1.24100	39.03
1.25767	39.03
1.27433	39.03
1.29100	39.03
1.30767	39.03
1.32433	39.03
1.34100	39.03
1.35767	39.03
1.37433	39.03
1.39100	39.03
1.40767	39.03
1.42433	39.03
1.44100	39.03
1.45767	39.03
1.47433	39.03
1.49100	39.03
1.50767	39.03
1.52433	39.03
1.54100	39.03
1.55767	39.03
1.57433	39.03
1.59100	39.03
1.60767	39.03
1.62433	39.02
1.64100	39.00
1.65767	38.97
1.67433	38.94
1.69100	38.90
1.70767	38.87
1.72433	38.84
1.74100	38.80
1.75767	38.77
1.77433	38.75
1.79100	38.71
1.80767	38.68
1.82433	38.65
1.84100	38.62
1.85767	38.58
1.87433	38.56
1.89100	38.52
1.90767	38.49
1.92433	38.46
1.94100	38.43
1.95767	38.40
1.97433	38.37
1.99100	38.34
2.00767	38.31
2.02433	38.28
2.04100	38.25
2.05767	38.22
2.07433	38.19
2.09100	38.16
2.10767	38.13
2.12433	38.11
2.14100	38.07
2.15767	38.04
2.17433	38.02
2.19100	37.98
2.20767	37.96
2.22433	37.93
2.24100	37.90
2.25767	37.87
2.27433	37.84
2.29100	37.81
2.30767	37.78
2.32433	37.75
2.34100	37.72
2.35767	37.69
2.37433	37.67
2.39100	37.66
2.40767	37.66
2.42433	37.67
2.44100	37.67
2.45767	37.67
2.47433	37.67
2.49100	37.66
2.50767	37.66
2.52433	37.65
2.54100	37.66
2.55767	37.66
2.57433	37.66
2.59100	37.66
2.60767	37.66
2.62433	37.66
2.64100	37.66
2.65767	37.66
2.67433	37.66
2.69100	37.66
2.70767	37.66
2.72433	37.65
2.74100	37.65
2.75767	37.66
2.77433	37.66
2.79100	37.66
2.80767	37.65
2.82433	37.65
2.84100	37.65
2.85767	37.65
2.87433	37.65
2.89100	37.65
2.90767	37.65
2.92433	37.65
2.94100	37.65
2.95767	37.65
2.97433	37.64
2.99100	37.64
3.00767	37.64
3.02433	37.64
3.04100	37.64
3.05767	37.64
3.07433	37.64
3.09100	37.64
3.10767	37.64
3.12433	37.64
3.14100	37.64
3.15767	37.64
3.17433	37.64
3.19100	37.64
3.20767	37.64
3.22433	37.63
3.24100	37.63
3.25767	37.63
3.27433	37.64
3.29100	37.64
3.30767	37.64
3.32433	37.64
3.34100	37.64
3.35767	37.64
3.37433	37.64
3.39100	37.65
3.40767	37.64
3.42433	37.64
3.44100	37.64
3.45767	37.64
3.47433	37.64
3.49100	37.64
3.50767	37.64
3.52433	37.64
3.54100	37.64
3.55767	37.64
3.57433	37.64
3.59100	37.64
3.60767	37.64
3.62433	37.64
3.64100	37.64
3.65767	37.64
3.67433	37.64
3.69100	37.64
3.70767	37.64
3.72433	37.64
3.74100	37.64
3.75767	37.64
3.77433	37.64
3.79100	37.64
3.80767	37.64
3.82433	37.64
3.84100	37.64
3.85767	37.64
3.87433	37.64
3.89100	37.64
3.90767	37.64
3.92433	37.64
3.94100	37.64
3.95767	37.64
3.97433	37.64
3.99100	37.64

