[Header]
Application Name	LabSolutions
Version	5.110
Data File Name	C:\Users\User\Desktop\GC Analyses\Jack\Nachusa Grasslands Sampling\T1 Timepoint July 12th\T1_07122022_007.gcd
Output Date	3/14/2023
Output Time	3:40:57 PM

[File Information]
Type	Data File
Generated	3/8/2023 1:57:11 PM
Generated by	System Administrator
Modified	3/8/2023 2:03:42 PM
Modified by	System Administrator

[Sample Information]
Operator Name	System Administrator
Acquired	3/8/2023 1:59:41 PM
Sample Type	0:Unknown
Level	0
Sample Name	007
Sample ID	007
ISTD Amount1	1
ISTD Amount2	1
ISTD Amount3	1
ISTD Amount4	1
ISTD Amount5	1
ISTD Amount6	1
ISTD Amount7	1
ISTD Amount8	1
ISTD Amount9	1
ISTD Amount10	1
ISTD Amount11	1
ISTD Amount12	1
ISTD Amount13	1
ISTD Amount14	1
ISTD Amount15	1
ISTD Amount16	1
ISTD Amount17	1
ISTD Amount18	1
ISTD Amount19	1
ISTD Amount20	1
ISTD Amount21	1
ISTD Amount22	1
ISTD Amount23	1
ISTD Amount24	1
ISTD Amount25	1
ISTD Amount26	1
ISTD Amount27	1
ISTD Amount28	1
ISTD Amount29	1
ISTD Amount30	1
ISTD Amount31	1
ISTD Amount32	1
Sample Amount	1
Dilution Factor	1
Vial#	6
Injection Volume	1
Injection Count	1
Bar Code	

[Original Files]
Data File	C:\Users\User\Desktop\GC Analyses\Jack\Nachusa Grasslands Sampling\T1 Timepoint July 12th\T1_07122022_007.gcd
Method File	C:\LabSolutions\Data\GHG_4min_2022\ghg3_togas_w_acet_4 min_new_int.gcm
Batch File	C:\LabSolutions\Data\AutoSamplerTesting\T1_07122022.gcb
Report Format File	c:\LabSolutions\System\DEFAULT.lsr

[File Description]


[Configuration]
Instrument Name	C0B7VH3-Instrument1
Instrument #	1
Line #	1
# of Detectors	3
Detector ID	DET#1	DET#2	DET#3
Detector Name	FID	PTCD	ECD
# of Channels	1	1	1

[Peak Table(Ch1)]
# of Peaks	3
Peak#	R.Time	I.Time	F.Time	Area	Height	A/H	Conc.	Mark	ID#	Name	k'	Plate #	Plate Ht.	Tailing	Resolution	Sep.Factor	Area Ratio	Height Ratio	Conc. %	Norm Conc.
1	1.476	1.439	1.538	26498	12435	2.131	187.077	   	1	CO	0.000	9277	16.169	1.330	0.000	0.000	0	0	29.594	29.594
2	1.567	1.538	1.619	4574	2255	2.029	88.449	 V 	2	CH4	0.062	10756	13.946	0.000	1.506	0.000	0	0	13.992	13.992
3	1.996	1.952	2.477	1420981	671059	2.118	356.628	   	3	CO2	0.353	17316	8.663	1.318	7.083	5.680	0	0	56.415	56.415

[Peak Table(Ch2)]
# of Peaks	0

[Peak Table(Ch3)]
# of Peaks	6
Peak#	R.Time	I.Time	F.Time	Area	Height	A/H	Conc.	Mark	ID#	Name	k'	Plate #	Plate Ht.	Tailing	Resolution	Sep.Factor	Area Ratio	Height Ratio	Conc. %	Norm Conc.
1	2.462	2.246	2.521	1775	418	4.249	0.000	   			0.000	6683	22.445	0.000	0.000	0.000	0	0	0.000	0.000
2	2.546	2.521	2.634	1110	248	4.478	0.000	 V 			0.034	2673	56.114	0.000	0.531	0.000	0	0	0.000	0.000
3	2.715	2.645	2.752	588	119	4.933	0.000	   			0.103	521	287.684	0.000	0.502	3.000	0	0	0.000	0.000
4	2.873	2.752	3.320	21462	5043	4.256	0.548	SV 	1	N2O	0.167	13029	11.513	1.728	0.547	1.623	0	0	100.000	100.000
5	3.302	3.239	3.320	100	36	2.771	0.000	T  	2	SF6	0.341	27173	5.520	0.640	4.746	2.045	0	0	0.000	0.000
6	3.423	3.331	3.995	8951	423	21.180	0.000	   	2	SF6	0.390	617	243.039	3.598	0.383	1.144	0	0	0.000	0.000

[Compound Results(Ch1)]
# of IDs	6
ID#	Name	R.Time	Area	Height	Conc.	Curve	3rd	2nd	1st	Constant	Area Ratio	Height Ratio	Conc. %	Norm Conc.
1	CO	1.476	26498	12435	187.077	Linear	0.000000e+00	0.000000e+00	1.416423e+002	0.000000e+00	0	0	29.594	29.594
2	CH4	1.567	4574	2255	88.449	Linear	0.000000e+00	0.000000e+00	5.171738e+001	0.000000e+00	0	0	13.992	13.992
3	CO2	1.996	1420981	671059	356.628	Linear	0.000000e+00	0.000000e+00	3.984494e+003	0.000000e+00	0	0	56.415	56.415
4	Ethylene	0.000	0	0	0.000	Linear	0.000000e+00	0.000000e+00	0.000000e+00	0.000000e+00	0	0	0.000	0.000
5	Acetylene	0.000	0	0	0.000	Linear	0.000000e+00	0.000000e+00	0.000000e+00	0.000000e+00	0	0	0.000	0.000
6	Ethane	0.000	0	0	0.000	Linear	0.000000e+00	0.000000e+00	0.000000e+00	0.000000e+00	0	0	0.000	0.000

[Compound Results(Ch2)]
# of IDs	5
ID#	Name	R.Time	Area	Height	Conc.	Curve	3rd	2nd	1st	Constant	Area Ratio	Height Ratio	Conc. %	Norm Conc.
1	Hydrogen	0.000	0	0	0.000	Linear	0.000000e+00	0.000000e+00	0.000000e+00	0.000000e+00	0	0	0.000	0.000
2	Oxygen	0.000	0	0	0.000	Linear	0.000000e+00	0.000000e+00	0.000000e+00	0.000000e+00	0	0	0.000	0.000
3	Nitrogen	0.000	0	0	0.000	Linear	0.000000e+00	0.000000e+00	0.000000e+00	0.000000e+00	0	0	0.000	0.000
4	Methane	0.000	0	0	0.000	Linear	0.000000e+00	0.000000e+00	0.000000e+00	0.000000e+00	0	0	0.000	0.000
5	Carbon Monoxide	0.000	0	0	0.000	Linear	0.000000e+00	0.000000e+00	0.000000e+00	0.000000e+00	0	0	0.000	0.000

[Compound Results(Ch3)]
# of IDs	2
ID#	Name	R.Time	Area	Height	Conc.	Curve	3rd	2nd	1st	Constant	Area Ratio	Height Ratio	Conc. %	Norm Conc.
1	N2O	2.873	21462	5043	0.548	Linear	0.000000e+00	0.000000e+00	3.915173e+004	0.000000e+00	0	0	100.000	100.000
2	SF6	3.423	9051	459	0.000	Linear	0.000000e+00	0.000000e+00	0.000000e+00	0.000000e+00	0	0	0.000	0.000

[Group Results(Ch1)]
# of Groups	0

[Group Results(Ch2)]
# of Groups	0

[Group Results(Ch3)]
# of Groups	0

[Chromatogram (Ch1)]
Interval(msec)	220
# of Points	1091
Start Time(min)	0.002
End Time(min)	3.998
R.Time (min)	Intensity
0.00167	-22
0.00533	-34
0.00900	-45
0.01267	-50
0.01633	-50
0.02000	-47
0.02367	-44
0.02733	-42
0.03100	-39
0.03467	-38
0.03833	-35
0.04200	-32
0.04567	-34
0.04933	-38
0.05300	-41
0.05667	-41
0.06033	-39
0.06400	-31
0.06767	-20
0.07133	-10
0.07500	-5
0.07867	-7
0.08233	-16
0.08600	-27
0.08967	-35
0.09333	-35
0.09700	-29
0.10067	-24
0.10433	-22
0.10800	-17
0.11167	-14
0.11533	-10
0.11900	-7
0.12267	-8
0.12633	-14
0.13000	-24
0.13367	-36
0.13733	-44
0.14100	-49
0.14467	-49
0.14833	-45
0.15200	-39
0.15567	-31
0.15933	-27
0.16300	-27
0.16667	-31
0.17033	-37
0.17400	-43
0.17767	-48
0.18133	-50
0.18500	-52
0.18867	-53
0.19233	-51
0.19600	-50
0.19967	-48
0.20333	-43
0.20700	-37
0.21067	-34
0.21433	-26
0.21800	-17
0.22167	-10
0.22533	-8
0.22900	-7
0.23267	-12
0.23633	-17
0.24000	-22
0.24367	-30
0.24733	-40
0.25100	-48
0.25467	-50
0.25833	-49
0.26200	-47
0.26567	-46
0.26933	-46
0.27300	-46
0.27667	-45
0.28033	-40
0.28400	-37
0.28767	-37
0.29133	-38
0.29500	-37
0.29867	-30
0.30233	-24
0.30600	-21
0.30967	-20
0.31333	-22
0.31700	-26
0.32067	-28
0.32433	-28
0.32800	-28
0.33167	-26
0.33533	-21
0.33900	-13
0.34267	-5
0.34633	-1
0.35000	-7
0.35367	-17
0.35733	-28
0.36100	-34
0.36467	-38
0.36833	-39
0.37200	-35
0.37567	-30
0.37933	-28
0.38300	-29
0.38667	-26
0.39033	-22
0.39400	-15
0.39767	-6
0.40133	4
0.40500	12
0.40867	12
0.41233	8
0.41600	1
0.41967	-9
0.42333	-14
0.42700	-12
0.43067	-4
0.43433	6
0.43800	13
0.44167	14
0.44533	9
0.44900	5
0.45267	4
0.45633	6
0.46000	7
0.46367	5
0.46733	1
0.47100	-3
0.47467	-3
0.47833	-1
0.48200	-1
0.48567	1
0.48933	2
0.49300	-2
0.49667	-8
0.50033	-12
0.50400	-15
0.50767	-14
0.51133	-14
0.51500	-16
0.51867	-19
0.52233	-23
0.52600	-25
0.52967	-23
0.53333	-18
0.53700	-11
0.54067	-4
0.54433	2
0.54800	3
0.55167	-2
0.55533	-7
0.55900	-11
0.56267	-14
0.56633	-13
0.57000	-15
0.57367	-26
0.57733	-42
0.58100	-54
0.58467	-63
0.58833	-67
0.59200	-72
0.59567	-77
0.59933	-76
0.60300	-68
0.60667	-56
0.61033	-51
0.61400	-51
0.61767	-51
0.62133	-48
0.62500	-43
0.62867	-40
0.63233	-37
0.63600	-38
0.63967	-41
0.64333	-44
0.64700	-48
0.65067	-50
0.65433	-49
0.65800	-44
0.66167	-35
0.66533	-29
0.66900	-31
0.67267	-38
0.67633	-47
0.68000	-54
0.68367	-59
0.68733	-62
0.69100	-58
0.69467	-51
0.69833	-43
0.70200	-35
0.70567	-30
0.70933	-33
0.71300	-39
0.71667	-45
0.72033	-51
0.72400	-55
0.72767	-59
0.73133	-63
0.73500	-66
0.73867	-65
0.74233	-62
0.74600	-61
0.74967	-63
0.75333	-58
0.75700	-48
0.76067	-38
0.76433	-34
0.76800	-34
0.77167	-36
0.77533	-36
0.77900	-32
0.78267	-25
0.78633	-23
0.79000	-24
0.79367	-30
0.79733	-39
0.80100	-48
0.80467	-57
0.80833	-68
0.81200	-82
0.81567	-94
0.81933	-100
0.82300	-102
0.82667	-99
0.83033	-91
0.83400	-80
0.83767	-70
0.84133	-61
0.84500	-50
0.84867	-44
0.85233	-43
0.85600	-45
0.85967	-49
0.86333	-56
0.86700	-62
0.87067	-62
0.87433	-56
0.87800	-50
0.88167	-46
0.88533	-46
0.88900	-47
0.89267	-48
0.89633	-50
0.90000	-51
0.90367	-45
0.90733	-33
0.91100	-18
0.91467	-7
0.91833	-6
0.92200	-18
0.92567	-38
0.92933	-60
0.93300	-77
0.93667	-86
0.94033	-94
0.94400	-98
0.94767	-100
0.95133	-98
0.95500	-94
0.95867	-90
0.96233	-87
0.96600	-84
0.96967	-82
0.97333	-81
0.97700	-81
0.98067	-83
0.98433	-84
0.98800	-80
0.99167	-72
0.99533	-65
0.99900	-61
1.00267	-62
1.00633	-66
1.01000	-71
1.01367	-75
1.01733	-78
1.02100	-78
1.02467	-76
1.02833	-72
1.03200	-68
1.03567	-65
1.03933	-61
1.04300	-60
1.04667	-60
1.05033	-61
1.05400	-62
1.05767	-61
1.06133	-56
1.06500	-53
1.06867	-56
1.07233	-58
1.07600	-57
1.07967	-58
1.08333	-66
1.08700	-75
1.09067	-80
1.09433	-81
1.09800	-78
1.10167	-75
1.10533	-76
1.10900	-77
1.11267	-76
1.11633	-72
1.12000	-69
1.12367	-68
1.12733	-69
1.13100	-70
1.13467	-63
1.13833	-53
1.14200	-49
1.14567	-53
1.14933	-58
1.15300	-60
1.15667	-65
1.16033	-71
1.16400	-75
1.16767	-78
1.17133	-77
1.17500	-72
1.17867	-68
1.18233	-64
1.18600	-60
1.18967	-58
1.19333	-57
1.19700	-55
1.20067	-52
1.20433	-49
1.20800	-45
1.21167	-41
1.21533	-46
1.21900	-59
1.22267	-77
1.22633	-97
1.23000	-110
1.23367	-113
1.23733	-109
1.24100	-103
1.24467	-94
1.24833	-87
1.25200	-84
1.25567	-82
1.25933	-86
1.26300	-93
1.26667	-99
1.27033	-100
1.27400	-93
1.27767	-85
1.28133	-81
1.28500	-79
1.28867	-75
1.29233	-75
1.29600	-76
1.29967	-74
1.30333	-70
1.30700	-67
1.31067	-67
1.31433	-75
1.31800	-85
1.32167	-92
1.32533	-97
1.32900	-104
1.33267	-106
1.33633	-94
1.34000	-77
1.34367	-61
1.34733	-52
1.35100	-53
1.35467	-62
1.35833	-71
1.36200	-80
1.36567	-87
1.36933	-91
1.37300	-96
1.37667	-101
1.38033	-107
1.38400	-112
1.38767	-114
1.39133	-112
1.39500	-105
1.39867	-97
1.40233	-92
1.40600	-91
1.40967	-93
1.41333	-97
1.41700	-100
1.42067	-101
1.42433	-101
1.42800	-99
1.43167	-101
1.43533	-100
1.43900	-88
1.44267	-14
1.44633	202
1.45000	737
1.45367	1945
1.45733	3937
1.46100	6329
1.46467	8611
1.46833	10468
1.47200	11752
1.47567	12358
1.47933	12183
1.48300	11220
1.48667	9648
1.49033	7790
1.49400	5978
1.49767	4424
1.50133	3200
1.50500	2284
1.50867	1625
1.51233	1159
1.51600	829
1.51967	598
1.52333	439
1.52700	324
1.53067	244
1.53433	190
1.53800	162
1.54167	194
1.54533	345
1.54900	643
1.55267	1045
1.55633	1460
1.56000	1816
1.56367	2074
1.56733	2208
1.57100	2188
1.57467	2007
1.57833	1695
1.58200	1328
1.58567	974
1.58933	677
1.59300	453
1.59667	295
1.60033	186
1.60400	110
1.60767	58
1.61133	20
1.61500	-10
1.61867	-31
1.62233	-40
1.62600	-41
1.62967	-42
1.63333	-51
1.63700	-60
1.64067	-70
1.64433	-79
1.64800	-88
1.65167	-97
1.65533	-103
1.65900	-108
1.66267	-109
1.66633	-103
1.67000	-94
1.67367	-85
1.67733	-79
1.68100	-76
1.68467	-74
1.68833	-75
1.69200	-84
1.69567	-91
1.69933	-93
1.70300	-96
1.70667	-103
1.71033	-108
1.71400	-109
1.71767	-111
1.72133	-114
1.72500	-116
1.72867	-116
1.73233	-117
1.73600	-116
1.73967	-114
1.74333	-113
1.74700	-109
1.75067	-103
1.75433	-99
1.75800	-96
1.76167	-98
1.76533	-100
1.76900	-99
1.77267	-96
1.77633	-94
1.78000	-91
1.78367	-85
1.78733	-78
1.79100	-74
1.79467	-68
1.79833	-57
1.80200	-48
1.80567	-45
1.80933	-52
1.81300	-64
1.81667	-82
1.82033	-99
1.82400	-112
1.82767	-122
1.83133	-135
1.83500	-146
1.83867	-153
1.84233	-154
1.84600	-154
1.84967	-152
1.85333	-147
1.85700	-134
1.86067	-118
1.86433	-103
1.86800	-94
1.87167	-91
1.87533	-92
1.87900	-95
1.88267	-101
1.88633	-103
1.89000	-100
1.89367	-100
1.89733	-99
1.90100	-100
1.90467	-105
1.90833	-111
1.91200	-117
1.91567	-122
1.91933	-125
1.92300	-125
1.92667	-123
1.93033	-118
1.93400	-114
1.93767	-114
1.94133	-116
1.94500	-122
1.94867	-122
1.95233	-105
1.95600	1
1.95967	604
1.96333	3372
1.96700	13074
1.97067	39109
1.97433	93351
1.97800	182306
1.98167	299532
1.98533	426685
1.98900	542127
1.99267	627629
1.99633	670986
2.00000	666707
2.00367	617491
2.00733	534801
2.01100	435579
2.01467	336436
2.01833	249080
2.02200	178833
2.02567	125944
2.02933	87926
2.03300	61441
2.03667	43352
2.04033	31129
2.04400	22887
2.04767	17305
2.05133	13484
2.05500	10824
2.05867	8935
2.06233	7560
2.06600	6532
2.06967	5743
2.07333	5121
2.07700	4619
2.08067	4208
2.08433	3866
2.08800	3578
2.09167	3331
2.09533	3114
2.09900	2919
2.10267	2745
2.10633	2590
2.11000	2448
2.11367	2322
2.11733	2208
2.12100	2106
2.12467	2009
2.12833	1914
2.13200	1823
2.13567	1743
2.13933	1671
2.14300	1606
2.14667	1547
2.15033	1489
2.15400	1432
2.15767	1380
2.16133	1332
2.16500	1290
2.16867	1250
2.17233	1214
2.17600	1177
2.17967	1144
2.18333	1115
2.18700	1083
2.19067	1044
2.19433	1002
2.19800	960
2.20167	925
2.20533	897
2.20900	872
2.21267	848
2.21633	828
2.22000	813
2.22367	798
2.22733	784
2.23100	770
2.23467	753
2.23833	735
2.24200	720
2.24567	701
2.24933	675
2.25300	648
2.25667	625
2.26033	607
2.26400	593
2.26767	582
2.27133	574
2.27500	571
2.27867	573
2.28233	573
2.28600	566
2.28967	554
2.29333	545
2.29700	537
2.30067	526
2.30433	516
2.30800	506
2.31167	493
2.31533	480
2.31900	467
2.32267	455
2.32633	448
2.33000	447
2.33367	447
2.33733	445
2.34100	442
2.34467	438
2.34833	431
2.35200	419
2.35567	409
2.35933	400
2.36300	391
2.36667	387
2.37033	384
2.37400	381
2.37767	376
2.38133	369
2.38500	359
2.38867	355
2.39233	354
2.39600	351
2.39967	344
2.40333	337
2.40700	331
2.41067	324
2.41433	318
2.41800	317
2.42167	318
2.42533	324
2.42900	330
2.43267	335
2.43633	334
2.44000	330
2.44367	324
2.44733	318
2.45100	309
2.45467	298
2.45833	288
2.46200	283
2.46567	284
2.46933	286
2.47300	287
2.47667	287
2.48033	286
2.48400	285
2.48767	288
2.49133	291
2.49500	291
2.49867	287
2.50233	282
2.50600	277
2.50967	273
2.51333	273
2.51700	276
2.52067	282
2.52433	292
2.52800	301
2.53167	308
2.53533	306
2.53900	301
2.54267	297
2.54633	298
2.55000	295
2.55367	288
2.55733	284
2.56100	285
2.56467	287
2.56833	289
2.57200	287
2.57567	279
2.57933	272
2.58300	267
2.58667	265
2.59033	269
2.59400	276
2.59767	282
2.60133	286
2.60500	286
2.60867	284
2.61233	281
2.61600	280
2.61967	279
2.62333	276
2.62700	269
2.63067	266
2.63433	266
2.63800	267
2.64167	268
2.64533	268
2.64900	267
2.65267	264
2.65633	264
2.66000	267
2.66367	266
2.66733	262
2.67100	259
2.67467	257
2.67833	253
2.68200	249
2.68567	248
2.68933	250
2.69300	254
2.69667	261
2.70033	271
2.70400	280
2.70767	284
2.71133	284
2.71500	283
2.71867	279
2.72233	276
2.72600	274
2.72967	272
2.73333	269
2.73700	266
2.74067	267
2.74433	272
2.74800	277
2.75167	277
2.75533	278
2.75900	281
2.76267	282
2.76633	281
2.77000	278
2.77367	276
2.77733	274
2.78100	275
2.78467	279
2.78833	284
2.79200	287
2.79567	289
2.79933	295
2.80300	308
2.80667	319
2.81033	325
2.81400	325
2.81767	320
2.82133	307
2.82500	292
2.82867	280
2.83233	275
2.83600	278
2.83967	284
2.84333	289
2.84700	290
2.85067	289
2.85433	287
2.85800	285
2.86167	286
2.86533	296
2.86900	307
2.87267	316
2.87633	327
2.88000	336
2.88367	344
2.88733	347
2.89100	342
2.89467	334
2.89833	328
2.90200	326
2.90567	325
2.90933	325
2.91300	327
2.91667	330
2.92033	334
2.92400	340
2.92767	346
2.93133	349
2.93500	347
2.93867	346
2.94233	349
2.94600	352
2.94967	351
2.95333	349
2.95700	347
2.96067	343
2.96433	338
2.96800	335
2.97167	335
2.97533	338
2.97900	341
2.98267	348
2.98633	359
2.99000	363
2.99367	366
2.99733	370
3.00100	365
3.00467	354
3.00833	349
3.01200	349
3.01567	350
3.01933	351
3.02300	353
3.02667	355
3.03033	355
3.03400	357
3.03767	360
3.04133	363
3.04500	367
3.04867	367
3.05233	365
3.05600	365
3.05967	363
3.06333	360
3.06700	362
3.07067	366
3.07433	372
3.07800	381
3.08167	389
3.08533	391
3.08900	384
3.09267	373
3.09633	363
3.10000	357
3.10367	354
3.10733	358
3.11100	364
3.11467	367
3.11833	366
3.12200	360
3.12567	350
3.12933	342
3.13300	339
3.13667	344
3.14033	348
3.14400	351
3.14767	352
3.15133	350
3.15500	347
3.15867	343
3.16233	343
3.16600	346
3.16967	347
3.17333	351
3.17700	360
3.18067	367
3.18433	371
3.18800	373
3.19167	372
3.19533	368
3.19900	362
3.20267	360
3.20633	361
3.21000	364
3.21367	368
3.21733	372
3.22100	375
3.22467	372
3.22833	368
3.23200	363
3.23567	355
3.23933	348
3.24300	347
3.24667	349
3.25033	353
3.25400	357
3.25767	362
3.26133	362
3.26500	356
3.26867	348
3.27233	339
3.27600	330
3.27967	324
3.28333	323
3.28700	328
3.29067	336
3.29433	341
3.29800	344
3.30167	347
3.30533	354
3.30900	365
3.31267	371
3.31633	367
3.32000	355
3.32367	342
3.32733	333
3.33100	324
3.33467	314
3.33833	308
3.34200	312
3.34567	318
3.34933	319
3.35300	317
3.35667	318
3.36033	324
3.36400	332
3.36767	337
3.37133	334
3.37500	328
3.37867	322
3.38233	317
3.38600	316
3.38967	322
3.39333	331
3.39700	334
3.40067	333
3.40433	333
3.40800	335
3.41167	336
3.41533	338
3.41900	341
3.42267	343
3.42633	340
3.43000	335
3.43367	326
3.43733	321
3.44100	321
3.44467	325
3.44833	331
3.45200	339
3.45567	343
3.45933	337
3.46300	326
3.46667	316
3.47033	310
3.47400	311
3.47767	318
3.48133	328
3.48500	334
3.48867	330
3.49233	319
3.49600	307
3.49967	296
3.50333	287
3.50700	284
3.51067	288
3.51433	294
3.51800	298
3.52167	299
3.52533	298
3.52900	300
3.53267	303
3.53633	307
3.54000	311
3.54367	313
3.54733	315
3.55100	314
3.55467	312
3.55833	311
3.56200	311
3.56567	312
3.56933	316
3.57300	318
3.57667	315
3.58033	308
3.58400	302
3.58767	302
3.59133	309
3.59500	322
3.59867	336
3.60233	341
3.60600	335
3.60967	323
3.61333	309
3.61700	297
3.62067	286
3.62433	277
3.62800	276
3.63167	282
3.63533	290
3.63900	292
3.64267	291
3.64633	297
3.65000	304
3.65367	305
3.65733	299
3.66100	289
3.66467	279
3.66833	268
3.67200	263
3.67567	266
3.67933	272
3.68300	281
3.68667	288
3.69033	291
3.69400	292
3.69767	288
3.70133	284
3.70500	284
3.70867	288
3.71233	291
3.71600	293
3.71967	293
3.72333	291
3.72700	287
3.73067	285
3.73433	287
3.73800	289
3.74167	290
3.74533	294
3.74900	296
3.75267	295
3.75633	291
3.76000	285
3.76367	278
3.76733	269
3.77100	262
3.77467	259
3.77833	256
3.78200	255
3.78567	258
3.78933	264
3.79300	273
3.79667	282
3.80033	285
3.80400	283
3.80767	283
3.81133	282
3.81500	277
3.81867	270
3.82233	262
3.82600	259
3.82967	260
3.83333	262
3.83700	263
3.84067	260
3.84433	258
3.84800	255
3.85167	251
3.85533	248
3.85900	247
3.86267	253
3.86633	267
3.87000	281
3.87367	288
3.87733	286
3.88100	278
3.88467	270
3.88833	266
3.89200	261
3.89567	253
3.89933	244
3.90300	241
3.90667	241
3.91033	241
3.91400	239
3.91767	238
3.92133	235
3.92500	230
3.92867	227
3.93233	227
3.93600	228
3.93967	230
3.94333	231
3.94700	232
3.95067	232
3.95433	228
3.95800	231
3.96167	240
3.96533	244
3.96900	243
3.97267	241
3.97633	238
3.98000	239
3.98367	244
3.98733	246
3.99100	246
3.99467	244
3.99833	240

[Chromatogram (Ch2)]
Interval(msec)	220
# of Points	1091
Start Time(min)	0.002
End Time(min)	3.998
R.Time (min)	Intensity
0.00167	-1
0.00533	-1
0.00900	-1
0.01267	-1
0.01633	-1
0.02000	-1
0.02367	-1
0.02733	-1
0.03100	-1
0.03467	-1
0.03833	-1
0.04200	-1
0.04567	-1
0.04933	-1
0.05300	-1
0.05667	-1
0.06033	-1
0.06400	-1
0.06767	-2
0.07133	-2
0.07500	-2
0.07867	-2
0.08233	-2
0.08600	-2
0.08967	-2
0.09333	-2
0.09700	-1
0.10067	-1
0.10433	-1
0.10800	-1
0.11167	-1
0.11533	-1
0.11900	-0
0.12267	-0
0.12633	-0
0.13000	-0
0.13367	-0
0.13733	-0
0.14100	-0
0.14467	-1
0.14833	-1
0.15200	-1
0.15567	-1
0.15933	-1
0.16300	-1
0.16667	-1
0.17033	-0
0.17400	-0
0.17767	0
0.18133	1
0.18500	1
0.18867	1
0.19233	1
0.19600	1
0.19967	1
0.20333	2
0.20700	2
0.21067	2
0.21433	2
0.21800	2
0.22167	2
0.22533	2
0.22900	1
0.23267	1
0.23633	0
0.24000	0
0.24367	-0
0.24733	-0
0.25100	-1
0.25467	-1
0.25833	-1
0.26200	-1
0.26567	-1
0.26933	-1
0.27300	-1
0.27667	-2
0.28033	-2
0.28400	-2
0.28767	-2
0.29133	-2
0.29500	-1
0.29867	-1
0.30233	-1
0.30600	-1
0.30967	-1
0.31333	-0
0.31700	-0
0.32067	-1
0.32433	-1
0.32800	-1
0.33167	-2
0.33533	-2
0.33900	-3
0.34267	-3
0.34633	-3
0.35000	-3
0.35367	-3
0.35733	-3
0.36100	-4
0.36467	-4
0.36833	-4
0.37200	-3
0.37567	-3
0.37933	-3
0.38300	-2
0.38667	-2
0.39033	-1
0.39400	-1
0.39767	-1
0.40133	-1
0.40500	-1
0.40867	-1
0.41233	-1
0.41600	-1
0.41967	-1
0.42333	-1
0.42700	-1
0.43067	-2
0.43433	-2
0.43800	-2
0.44167	-3
0.44533	-3
0.44900	-2
0.45267	-2
0.45633	-2
0.46000	-1
0.46367	-1
0.46733	-1
0.47100	-0
0.47467	-0
0.47833	-0
0.48200	-0
0.48567	-0
0.48933	-1
0.49300	-1
0.49667	-1
0.50033	-2
0.50400	-2
0.50767	-2
0.51133	-3
0.51500	-3
0.51867	-4
0.52233	-4
0.52600	-4
0.52967	-4
0.53333	-4
0.53700	-4
0.54067	-4
0.54433	-4
0.54800	-3
0.55167	-3
0.55533	-3
0.55900	-2
0.56267	-2
0.56633	-2
0.57000	-1
0.57367	-1
0.57733	-1
0.58100	-0
0.58467	-0
0.58833	0
0.59200	0
0.59567	-0
0.59933	-0
0.60300	-1
0.60667	-1
0.61033	-1
0.61400	-2
0.61767	-2
0.62133	-2
0.62500	-2
0.62867	-3
0.63233	-3
0.63600	-3
0.63967	-3
0.64333	-4
0.64700	-4
0.65067	-4
0.65433	-4
0.65800	-5
0.66167	-5
0.66533	-5
0.66900	-5
0.67267	-5
0.67633	-5
0.68000	-5
0.68367	-5
0.68733	-5
0.69100	-5
0.69467	-4
0.69833	-4
0.70200	-4
0.70567	-3
0.70933	-3
0.71300	-3
0.71667	-3
0.72033	-3
0.72400	-2
0.72767	-2
0.73133	-2
0.73500	-2
0.73867	-3
0.74233	-3
0.74600	-3
0.74967	-3
0.75333	-3
0.75700	-3
0.76067	-3
0.76433	-3
0.76800	-3
0.77167	-3
0.77533	-3
0.77900	-3
0.78267	-2
0.78633	-2
0.79000	-2
0.79367	-2
0.79733	-2
0.80100	-2
0.80467	-2
0.80833	-2
0.81200	-2
0.81567	-2
0.81933	-2
0.82300	-2
0.82667	-2
0.83033	-2
0.83400	-1
0.83767	-1
0.84133	-1
0.84500	-1
0.84867	-0
0.85233	-0
0.85600	-1
0.85967	-1
0.86333	-1
0.86700	-1
0.87067	-1
0.87433	-1
0.87800	-2
0.88167	-2
0.88533	-2
0.88900	-2
0.89267	-1
0.89633	-1
0.90000	-1
0.90367	-1
0.90733	-1
0.91100	-1
0.91467	-1
0.91833	-1
0.92200	-1
0.92567	-1
0.92933	-1
0.93300	-1
0.93667	-1
0.94033	-2
0.94400	-2
0.94767	-3
0.95133	-3
0.95500	-3
0.95867	-4
0.96233	-4
0.96600	-4
0.96967	-5
0.97333	-5
0.97700	-6
0.98067	-6
0.98433	-6
0.98800	-6
0.99167	-6
0.99533	-5
0.99900	-5
1.00267	-5
1.00633	-4
1.01000	-4
1.01367	-4
1.01733	-3
1.02100	-3
1.02467	-3
1.02833	-3
1.03200	-2
1.03567	-2
1.03933	-2
1.04300	-2
1.04667	-1
1.05033	-1
1.05400	-1
1.05767	-1
1.06133	-2
1.06500	-2
1.06867	-2
1.07233	-2
1.07600	-3
1.07967	-3
1.08333	-4
1.08700	-5
1.09067	-5
1.09433	-6
1.09800	-6
1.10167	-6
1.10533	-6
1.10900	-6
1.11267	-6
1.11633	-5
1.12000	-5
1.12367	-5
1.12733	-5
1.13100	-4
1.13467	-4
1.13833	-3
1.14200	-3
1.14567	-3
1.14933	-3
1.15300	-2
1.15667	-2
1.16033	-2
1.16400	-2
1.16767	-2
1.17133	-1
1.17500	-1
1.17867	-1
1.18233	-1
1.18600	-1
1.18967	-1
1.19333	-1
1.19700	-1
1.20067	-1
1.20433	-1
1.20800	-1
1.21167	-1
1.21533	-1
1.21900	-1
1.22267	-1
1.22633	-2
1.23000	-2
1.23367	-3
1.23733	-3
1.24100	-3
1.24467	-4
1.24833	-4
1.25200	-4
1.25567	-4
1.25933	-4
1.26300	-4
1.26667	-5
1.27033	-5
1.27400	-5
1.27767	-6
1.28133	-6
1.28500	-6
1.28867	-6
1.29233	-7
1.29600	-7
1.29967	-7
1.30333	-7
1.30700	-7
1.31067	-7
1.31433	-8
1.31800	-8
1.32167	-8
1.32533	-8
1.32900	-8
1.33267	-8
1.33633	-7
1.34000	-7
1.34367	-7
1.34733	-7
1.35100	-7
1.35467	-6
1.35833	-6
1.36200	-6
1.36567	-6
1.36933	-6
1.37300	-6
1.37667	-5
1.38033	-5
1.38400	-5
1.38767	-5
1.39133	-5
1.39500	-4
1.39867	-4
1.40233	-3
1.40600	-3
1.40967	-3
1.41333	-3
1.41700	-2
1.42067	-2
1.42433	-2
1.42800	-1
1.43167	-1
1.43533	-1
1.43900	-1
1.44267	-1
1.44633	-1
1.45000	-1
1.45367	-1
1.45733	-1
1.46100	-1
1.46467	-2
1.46833	-2
1.47200	-3
1.47567	-3
1.47933	-3
1.48300	-4
1.48667	-4
1.49033	-4
1.49400	-3
1.49767	-3
1.50133	-3
1.50500	-2
1.50867	-2
1.51233	-2
1.51600	-2
1.51967	-1
1.52333	-1
1.52700	-1
1.53067	-1
1.53433	-1
1.53800	-1
1.54167	-2
1.54533	-2
1.54900	-2
1.55267	-2
1.55633	-3
1.56000	-3
1.56367	-4
1.56733	-4
1.57100	-4
1.57467	-4
1.57833	-4
1.58200	-4
1.58567	-4
1.58933	-4
1.59300	-5
1.59667	-6
1.60033	-6
1.60400	-7
1.60767	-8
1.61133	-9
1.61500	-11
1.61867	-13
1.62233	-16
1.62600	-19
1.62967	-22
1.63333	-26
1.63700	-30
1.64067	-34
1.64433	-38
1.64800	-42
1.65167	-46
1.65533	-51
1.65900	-55
1.66267	-60
1.66633	-64
1.67000	-69
1.67367	-74
1.67733	-78
1.68100	-83
1.68467	-87
1.68833	-91
1.69200	-95
1.69567	-98
1.69933	-100
1.70300	-103
1.70667	-105
1.71033	-106
1.71400	-108
1.71767	-109
1.72133	-110
1.72500	-111
1.72867	-112
1.73233	-113
1.73600	-113
1.73967	-114
1.74333	-114
1.74700	-113
1.75067	-113
1.75433	-113
1.75800	-113
1.76167	-114
1.76533	-114
1.76900	-115
1.77267	-115
1.77633	-116
1.78000	-117
1.78367	-118
1.78733	-119
1.79100	-120
1.79467	-120
1.79833	-120
1.80200	-120
1.80567	-120
1.80933	-119
1.81300	-119
1.81667	-118
1.82033	-117
1.82400	-117
1.82767	-116
1.83133	-116
1.83500	-116
1.83867	-116
1.84233	-117
1.84600	-118
1.84967	-118
1.85333	-119
1.85700	-119
1.86067	-119
1.86433	-119
1.86800	-119
1.87167	-119
1.87533	-119
1.87900	-120
1.88267	-120
1.88633	-120
1.89000	-120
1.89367	-120
1.89733	-120
1.90100	-120
1.90467	-120
1.90833	-120
1.91200	-119
1.91567	-119
1.91933	-118
1.92300	-118
1.92667	-117
1.93033	-116
1.93400	-116
1.93767	-116
1.94133	-116
1.94500	-116
1.94867	-116
1.95233	-116
1.95600	-116
1.95967	-116
1.96333	-116
1.96700	-116
1.97067	-116
1.97433	-115
1.97800	-115
1.98167	-114
1.98533	-113
1.98900	-112
1.99267	-111
1.99633	-111
2.00000	-110
2.00367	-110
2.00733	-110
2.01100	-111
2.01467	-112
2.01833	-112
2.02200	-112
2.02567	-112
2.02933	-112
2.03300	-112
2.03667	-111
2.04033	-110
2.04400	-110
2.04767	-109
2.05133	-109
2.05500	-109
2.05867	-109
2.06233	-109
2.06600	-109
2.06967	-108
2.07333	-107
2.07700	-105
2.08067	-104
2.08433	-103
2.08800	-102
2.09167	-101
2.09533	-101
2.09900	-101
2.10267	-100
2.10633	-101
2.11000	-101
2.11367	-101
2.11733	-101
2.12100	-101
2.12467	-101
2.12833	-100
2.13200	-100
2.13567	-100
2.13933	-99
2.14300	-99
2.14667	-99
2.15033	-99
2.15400	-99
2.15767	-99
2.16133	-99
2.16500	-99
2.16867	-99
2.17233	-98
2.17600	-98
2.17967	-98
2.18333	-99
2.18700	-99
2.19067	-99
2.19433	-99
2.19800	-99
2.20167	-98
2.20533	-97
2.20900	-96
2.21267	-95
2.21633	-94
2.22000	-94
2.22367	-94
2.22733	-94
2.23100	-93
2.23467	-93
2.23833	-93
2.24200	-93
2.24567	-92
2.24933	-92
2.25300	-91
2.25667	-91
2.26033	-90
2.26400	-90
2.26767	-90
2.27133	-90
2.27500	-90
2.27867	-90
2.28233	-90
2.28600	-90
2.28967	-90
2.29333	-89
2.29700	-89
2.30067	-88
2.30433	-88
2.30800	-87
2.31167	-86
2.31533	-86
2.31900	-86
2.32267	-86
2.32633	-87
2.33000	-86
2.33367	-86
2.33733	-85
2.34100	-85
2.34467	-84
2.34833	-83
2.35200	-82
2.35567	-81
2.35933	-81
2.36300	-80
2.36667	-80
2.37033	-79
2.37400	-77
2.37767	-75
2.38133	-72
2.38500	-68
2.38867	-64
2.39233	-60
2.39600	-56
2.39967	-51
2.40333	-46
2.40700	-42
2.41067	-37
2.41433	-33
2.41800	-30
2.42167	-26
2.42533	-24
2.42900	-22
2.43267	-20
2.43633	-19
2.44000	-18
2.44367	-17
2.44733	-16
2.45100	-15
2.45467	-13
2.45833	-11
2.46200	-10
2.46567	-8
2.46933	-6
2.47300	-5
2.47667	-4
2.48033	-3
2.48400	-1
2.48767	0
2.49133	1
2.49500	2
2.49867	2
2.50233	2
2.50600	3
2.50967	3
2.51333	4
2.51700	5
2.52067	6
2.52433	7
2.52800	8
2.53167	9
2.53533	9
2.53900	10
2.54267	11
2.54633	12
2.55000	12
2.55367	13
2.55733	13
2.56100	13
2.56467	13
2.56833	13
2.57200	13
2.57567	13
2.57933	13
2.58300	13
2.58667	13
2.59033	13
2.59400	14
2.59767	14
2.60133	14
2.60500	14
2.60867	14
2.61233	14
2.61600	15
2.61967	15
2.62333	15
2.62700	15
2.63067	15
2.63433	14
2.63800	15
2.64167	15
2.64533	15
2.64900	15
2.65267	16
2.65633	17
2.66000	17
2.66367	18
2.66733	18
2.67100	19
2.67467	19
2.67833	19
2.68200	19
2.68567	18
2.68933	18
2.69300	18
2.69667	18
2.70033	18
2.70400	19
2.70767	19
2.71133	20
2.71500	20
2.71867	21
2.72233	21
2.72600	22
2.72967	22
2.73333	23
2.73700	24
2.74067	24
2.74433	24
2.74800	23
2.75167	23
2.75533	22
2.75900	21
2.76267	21
2.76633	20
2.77000	20
2.77367	19
2.77733	19
2.78100	19
2.78467	19
2.78833	20
2.79200	20
2.79567	20
2.79933	21
2.80300	21
2.80667	22
2.81033	22
2.81400	23
2.81767	23
2.82133	23
2.82500	23
2.82867	23
2.83233	23
2.83600	22
2.83967	21
2.84333	18
2.84700	13
2.85067	6
2.85433	-5
2.85800	-19
2.86167	-37
2.86533	-59
2.86900	-85
2.87267	-116
2.87633	-150
2.88000	-189
2.88367	-231
2.88733	-276
2.89100	-324
2.89467	-374
2.89833	-425
2.90200	-479
2.90567	-532
2.90933	-586
2.91300	-640
2.91667	-694
2.92033	-748
2.92400	-800
2.92767	-851
2.93133	-904
2.93500	-962
2.93867	-1022
2.94233	-1074
2.94600	-1108
2.94967	-1116
2.95333	-1098
2.95700	-1056
2.96067	-997
2.96433	-925
2.96800	-847
2.97167	-765
2.97533	-684
2.97900	-607
2.98267	-534
2.98633	-468
2.99000	-407
2.99367	-352
2.99733	-304
3.00100	-261
3.00467	-223
3.00833	-191
3.01200	-162
3.01567	-138
3.01933	-117
3.02300	-99
3.02667	-83
3.03033	-70
3.03400	-58
3.03767	-48
3.04133	-39
3.04500	-32
3.04867	-26
3.05233	-20
3.05600	-16
3.05967	-12
3.06333	-9
3.06700	-6
3.07067	-4
3.07433	-2
3.07800	-0
3.08167	1
3.08533	2
3.08900	3
3.09267	4
3.09633	5
3.10000	6
3.10367	7
3.10733	8
3.11100	9
3.11467	9
3.11833	10
3.12200	10
3.12567	10
3.12933	11
3.13300	12
3.13667	12
3.14033	13
3.14400	13
3.14767	14
3.15133	14
3.15500	15
3.15867	16
3.16233	16
3.16600	17
3.16967	18
3.17333	19
3.17700	20
3.18067	21
3.18433	21
3.18800	22
3.19167	22
3.19533	22
3.19900	22
3.20267	22
3.20633	22
3.21000	22
3.21367	22
3.21733	22
3.22100	21
3.22467	21
3.22833	21
3.23200	21
3.23567	20
3.23933	20
3.24300	20
3.24667	20
3.25033	20
3.25400	20
3.25767	20
3.26133	19
3.26500	19
3.26867	19
3.27233	19
3.27600	20
3.27967	20
3.28333	20
3.28700	20
3.29067	20
3.29433	21
3.29800	21
3.30167	21
3.30533	21
3.30900	21
3.31267	21
3.31633	22
3.32000	22
3.32367	22
3.32733	23
3.33100	23
3.33467	23
3.33833	23
3.34200	22
3.34567	22
3.34933	22
3.35300	22
3.35667	22
3.36033	22
3.36400	22
3.36767	22
3.37133	22
3.37500	22
3.37867	21
3.38233	21
3.38600	21
3.38967	21
3.39333	21
3.39700	21
3.40067	22
3.40433	22
3.40800	22
3.41167	22
3.41533	23
3.41900	23
3.42267	22
3.42633	22
3.43000	22
3.43367	22
3.43733	22
3.44100	22
3.44467	22
3.44833	22
3.45200	22
3.45567	22
3.45933	23
3.46300	23
3.46667	23
3.47033	24
3.47400	24
3.47767	24
3.48133	24
3.48500	24
3.48867	25
3.49233	25
3.49600	25
3.49967	25
3.50333	25
3.50700	24
3.51067	24
3.51433	24
3.51800	24
3.52167	24
3.52533	24
3.52900	24
3.53267	24
3.53633	23
3.54000	23
3.54367	23
3.54733	23
3.55100	23
3.55467	22
3.55833	22
3.56200	22
3.56567	21
3.56933	21
3.57300	21
3.57667	21
3.58033	21
3.58400	21
3.58767	21
3.59133	21
3.59500	21
3.59867	21
3.60233	21
3.60600	21
3.60967	22
3.61333	22
3.61700	23
3.62067	23
3.62433	23
3.62800	23
3.63167	24
3.63533	24
3.63900	24
3.64267	24
3.64633	25
3.65000	25
3.65367	25
3.65733	25
3.66100	25
3.66467	25
3.66833	25
3.67200	25
3.67567	25
3.67933	25
3.68300	25
3.68667	25
3.69033	26
3.69400	26
3.69767	26
3.70133	26
3.70500	26
3.70867	26
3.71233	26
3.71600	26
3.71967	26
3.72333	27
3.72700	26
3.73067	26
3.73433	26
3.73800	26
3.74167	26
3.74533	26
3.74900	26
3.75267	26
3.75633	26
3.76000	25
3.76367	25
3.76733	25
3.77100	25
3.77467	25
3.77833	26
3.78200	26
3.78567	26
3.78933	26
3.79300	26
3.79667	26
3.80033	25
3.80400	25
3.80767	25
3.81133	25
3.81500	25
3.81867	25
3.82233	25
3.82600	25
3.82967	24
3.83333	24
3.83700	24
3.84067	24
3.84433	24
3.84800	23
3.85167	23
3.85533	23
3.85900	23
3.86267	23
3.86633	23
3.87000	23
3.87367	23
3.87733	23
3.88100	23
3.88467	24
3.88833	24
3.89200	24
3.89567	24
3.89933	24
3.90300	24
3.90667	25
3.91033	25
3.91400	25
3.91767	25
3.92133	25
3.92500	26
3.92867	26
3.93233	26
3.93600	26
3.93967	26
3.94333	26
3.94700	26
3.95067	26
3.95433	25
3.95800	25
3.96167	25
3.96533	24
3.96900	24
3.97267	24
3.97633	24
3.98000	23
3.98367	23
3.98733	22
3.99100	22
3.99467	22
3.99833	22

[Chromatogram (Ch3)]
Interval(msec)	220
# of Points	1091
Start Time(min)	0.002
End Time(min)	3.998
R.Time (min)	Intensity
0.00167	-1
0.00533	-3
0.00900	-4
0.01267	-5
0.01633	-6
0.02000	-3
0.02367	-2
0.02733	-1
0.03100	-1
0.03467	-2
0.03833	-3
0.04200	-1
0.04567	1
0.04933	2
0.05300	4
0.05667	5
0.06033	4
0.06400	3
0.06767	2
0.07133	4
0.07500	7
0.07867	7
0.08233	6
0.08600	6
0.08967	7
0.09333	6
0.09700	3
0.10067	2
0.10433	1
0.10800	1
0.11167	3
0.11533	4
0.11900	2
0.12267	0
0.12633	1
0.13000	2
0.13367	2
0.13733	3
0.14100	0
0.14467	-2
0.14833	-1
0.15200	2
0.15567	3
0.15933	2
0.16300	2
0.16667	3
0.17033	2
0.17400	1
0.17767	-1
0.18133	-0
0.18500	-1
0.18867	-2
0.19233	-1
0.19600	1
0.19967	1
0.20333	3
0.20700	3
0.21067	3
0.21433	4
0.21800	2
0.22167	-0
0.22533	-1
0.22900	-1
0.23267	-1
0.23633	-1
0.24000	-1
0.24367	-1
0.24733	-1
0.25100	-2
0.25467	-2
0.25833	-2
0.26200	-1
0.26567	1
0.26933	2
0.27300	0
0.27667	-0
0.28033	-0
0.28400	-0
0.28767	-1
0.29133	-2
0.29500	-1
0.29867	-1
0.30233	-2
0.30600	-4
0.30967	-7
0.31333	-6
0.31700	-5
0.32067	-3
0.32433	-1
0.32800	-2
0.33167	-3
0.33533	-5
0.33900	-5
0.34267	-6
0.34633	-7
0.35000	-5
0.35367	-2
0.35733	-2
0.36100	-1
0.36467	-1
0.36833	-0
0.37200	0
0.37567	-2
0.37933	-4
0.38300	-4
0.38667	-3
0.39033	-2
0.39400	-2
0.39767	-2
0.40133	-1
0.40500	-3
0.40867	-4
0.41233	-3
0.41600	-2
0.41967	-1
0.42333	-2
0.42700	-1
0.43067	-0
0.43433	1
0.43800	2
0.44167	2
0.44533	1
0.44900	-0
0.45267	-1
0.45633	-1
0.46000	-1
0.46367	0
0.46733	1
0.47100	2
0.47467	2
0.47833	1
0.48200	-0
0.48567	0
0.48933	1
0.49300	1
0.49667	3
0.50033	2
0.50400	-0
0.50767	-1
0.51133	-1
0.51500	-2
0.51867	-3
0.52233	-4
0.52600	-2
0.52967	-1
0.53333	0
0.53700	2
0.54067	2
0.54433	2
0.54800	2
0.55167	-0
0.55533	-3
0.55900	-3
0.56267	-5
0.56633	-4
0.57000	-1
0.57367	1
0.57733	0
0.58100	1
0.58467	2
0.58833	0
0.59200	-1
0.59567	-2
0.59933	-3
0.60300	0
0.60667	2
0.61033	4
0.61400	6
0.61767	5
0.62133	3
0.62500	1
0.62867	0
0.63233	1
0.63600	1
0.63967	1
0.64333	1
0.64700	2
0.65067	4
0.65433	5
0.65800	4
0.66167	3
0.66533	2
0.66900	-1
0.67267	0
0.67633	2
0.68000	2
0.68367	1
0.68733	1
0.69100	1
0.69467	1
0.69833	2
0.70200	1
0.70567	2
0.70933	5
0.71300	5
0.71667	2
0.72033	4
0.72400	5
0.72767	6
0.73133	7
0.73500	6
0.73867	6
0.74233	6
0.74600	4
0.74967	2
0.75333	1
0.75700	2
0.76067	5
0.76433	6
0.76800	8
0.77167	8
0.77533	7
0.77900	8
0.78267	6
0.78633	5
0.79000	4
0.79367	4
0.79733	6
0.80100	5
0.80467	3
0.80833	3
0.81200	6
0.81567	8
0.81933	10
0.82300	9
0.82667	7
0.83033	5
0.83400	3
0.83767	2
0.84133	3
0.84500	5
0.84867	5
0.85233	7
0.85600	7
0.85967	6
0.86333	7
0.86700	9
0.87067	9
0.87433	9
0.87800	9
0.88167	7
0.88533	6
0.88900	5
0.89267	5
0.89633	5
0.90000	5
0.90367	5
0.90733	4
0.91100	5
0.91467	6
0.91833	4
0.92200	4
0.92567	5
0.92933	6
0.93300	7
0.93667	7
0.94033	7
0.94400	6
0.94767	4
0.95133	2
0.95500	2
0.95867	4
0.96233	6
0.96600	7
0.96967	6
0.97333	4
0.97700	4
0.98067	3
0.98433	3
0.98800	5
0.99167	6
0.99533	6
0.99900	8
1.00267	7
1.00633	6
1.01000	5
1.01367	5
1.01733	7
1.02100	6
1.02467	5
1.02833	5
1.03200	6
1.03567	5
1.03933	5
1.04300	6
1.04667	7
1.05033	6
1.05400	7
1.05767	7
1.06133	8
1.06500	8
1.06867	7
1.07233	5
1.07600	5
1.07967	7
1.08333	7
1.08700	7
1.09067	7
1.09433	9
1.09800	9
1.10167	7
1.10533	7
1.10900	5
1.11267	6
1.11633	8
1.12000	7
1.12367	7
1.12733	8
1.13100	6
1.13467	5
1.13833	3
1.14200	3
1.14567	5
1.14933	8
1.15300	9
1.15667	8
1.16033	5
1.16400	3
1.16767	1
1.17133	-1
1.17500	-1
1.17867	-0
1.18233	-1
1.18600	0
1.18967	3
1.19333	6
1.19700	7
1.20067	7
1.20433	6
1.20800	8
1.21167	8
1.21533	7
1.21900	6
1.22267	5
1.22633	7
1.23000	7
1.23367	6
1.23733	7
1.24100	8
1.24467	7
1.24833	4
1.25200	4
1.25567	5
1.25933	6
1.26300	7
1.26667	11
1.27033	13
1.27400	13
1.27767	12
1.28133	12
1.28500	10
1.28867	9
1.29233	11
1.29600	13
1.29967	15
1.30333	14
1.30700	12
1.31067	12
1.31433	11
1.31800	9
1.32167	8
1.32533	9
1.32900	10
1.33267	10
1.33633	12
1.34000	13
1.34367	13
1.34733	12
1.35100	11
1.35467	14
1.35833	17
1.36200	19
1.36567	19
1.36933	16
1.37300	14
1.37667	13
1.38033	11
1.38400	12
1.38767	13
1.39133	13
1.39500	12
1.39867	14
1.40233	14
1.40600	12
1.40967	11
1.41333	10
1.41700	8
1.42067	9
1.42433	11
1.42800	11
1.43167	11
1.43533	11
1.43900	12
1.44267	10
1.44633	10
1.45000	11
1.45367	11
1.45733	11
1.46100	12
1.46467	11
1.46833	11
1.47200	10
1.47567	9
1.47933	8
1.48300	9
1.48667	10
1.49033	10
1.49400	9
1.49767	7
1.50133	5
1.50500	6
1.50867	8
1.51233	9
1.51600	8
1.51967	6
1.52333	5
1.52700	6
1.53067	8
1.53433	10
1.53800	11
1.54167	11
1.54533	9
1.54900	5
1.55267	3
1.55633	4
1.56000	4
1.56367	4
1.56733	4
1.57100	5
1.57467	5
1.57833	5
1.58200	3
1.58567	2
1.58933	1
1.59300	-1
1.59667	-2
1.60033	1
1.60400	3
1.60767	5
1.61133	4
1.61500	2
1.61867	1
1.62233	2
1.62600	3
1.62967	2
1.63333	3
1.63700	4
1.64067	4
1.64433	5
1.64800	7
1.65167	6
1.65533	4
1.65900	3
1.66267	3
1.66633	5
1.67000	8
1.67367	10
1.67733	10
1.68100	11
1.68467	9
1.68833	8
1.69200	9
1.69567	9
1.69933	11
1.70300	12
1.70667	12
1.71033	12
1.71400	13
1.71767	14
1.72133	12
1.72500	12
1.72867	12
1.73233	13
1.73600	13
1.73967	13
1.74333	11
1.74700	11
1.75067	13
1.75433	14
1.75800	16
1.76167	17
1.76533	19
1.76900	20
1.77267	19
1.77633	19
1.78000	21
1.78367	20
1.78733	20
1.79100	20
1.79467	21
1.79833	21
1.80200	22
1.80567	23
1.80933	25
1.81300	26
1.81667	26
1.82033	27
1.82400	27
1.82767	27
1.83133	26
1.83500	28
1.83867	28
1.84233	27
1.84600	26
1.84967	24
1.85333	24
1.85700	23
1.86067	23
1.86433	23
1.86800	23
1.87167	24
1.87533	26
1.87900	26
1.88267	26
1.88633	26
1.89000	25
1.89367	26
1.89733	26
1.90100	27
1.90467	27
1.90833	28
1.91200	29
1.91567	29
1.91933	28
1.92300	27
1.92667	28
1.93033	31
1.93400	34
1.93767	36
1.94133	36
1.94500	33
1.94867	32
1.95233	32
1.95600	32
1.95967	32
1.96333	33
1.96700	36
1.97067	39
1.97433	41
1.97800	41
1.98167	37
1.98533	35
1.98900	34
1.99267	35
1.99633	35
2.00000	37
2.00367	40
2.00733	41
2.01100	42
2.01467	43
2.01833	45
2.02200	46
2.02567	47
2.02933	49
2.03300	49
2.03667	48
2.04033	48
2.04400	48
2.04767	47
2.05133	46
2.05500	46
2.05867	46
2.06233	46
2.06600	47
2.06967	49
2.07333	51
2.07700	53
2.08067	54
2.08433	55
2.08800	56
2.09167	55
2.09533	55
2.09900	55
2.10267	55
2.10633	57
2.11000	58
2.11367	59
2.11733	59
2.12100	62
2.12467	62
2.12833	60
2.13200	60
2.13567	62
2.13933	62
2.14300	61
2.14667	63
2.15033	65
2.15400	67
2.15767	68
2.16133	67
2.16500	66
2.16867	68
2.17233	69
2.17600	71
2.17967	74
2.18333	76
2.18700	77
2.19067	77
2.19433	78
2.19800	80
2.20167	81
2.20533	83
2.20900	84
2.21267	84
2.21633	84
2.22000	83
2.22367	82
2.22733	82
2.23100	83
2.23467	83
2.23833	83
2.24200	82
2.24567	82
2.24933	83
2.25300	86
2.25667	88
2.26033	89
2.26400	89
2.26767	89
2.27133	89
2.27500	90
2.27867	92
2.28233	93
2.28600	91
2.28967	90
2.29333	92
2.29700	94
2.30067	96
2.30433	100
2.30800	103
2.31167	104
2.31533	104
2.31900	105
2.32267	108
2.32633	108
2.33000	109
2.33367	107
2.33733	107
2.34100	109
2.34467	112
2.34833	114
2.35200	116
2.35567	116
2.35933	118
2.36300	120
2.36667	122
2.37033	125
2.37400	127
2.37767	127
2.38133	129
2.38500	132
2.38867	131
2.39233	132
2.39600	133
2.39967	135
2.40333	135
2.40700	135
2.41067	137
2.41433	140
2.41800	143
2.42167	145
2.42533	146
2.42900	148
2.43267	149
2.43633	151
2.44000	156
2.44367	185
2.44733	263
2.45100	352
2.45467	427
2.45833	479
2.46200	494
2.46567	481
2.46933	456
2.47300	431
2.47667	413
2.48033	405
2.48400	400
2.48767	391
2.49133	375
2.49500	353
2.49867	330
2.50233	310
2.50600	296
2.50967	285
2.51333	278
2.51700	274
2.52067	274
2.52433	277
2.52800	282
2.53167	291
2.53533	303
2.53900	312
2.54267	319
2.54633	322
2.55000	319
2.55367	313
2.55733	305
2.56100	296
2.56467	285
2.56833	273
2.57200	262
2.57567	252
2.57933	245
2.58300	240
2.58667	238
2.59033	235
2.59400	232
2.59767	227
2.60133	218
2.60500	204
2.60867	187
2.61233	167
2.61600	147
2.61967	126
2.62333	108
2.62700	93
2.63067	79
2.63433	72
2.63800	70
2.64167	70
2.64533	75
2.64900	84
2.65267	93
2.65633	104
2.66000	117
2.66367	128
2.66733	139
2.67100	151
2.67467	160
2.67833	167
2.68200	174
2.68567	181
2.68933	187
2.69300	192
2.69667	195
2.70033	195
2.70400	195
2.70767	195
2.71133	196
2.71500	197
2.71867	196
2.72233	194
2.72600	193
2.72967	192
2.73333	191
2.73700	189
2.74067	190
2.74433	190
2.74800	190
2.75167	190
2.75533	189
2.75900	190
2.76267	192
2.76633	192
2.77000	191
2.77367	194
2.77733	195
2.78100	195
2.78467	196
2.78833	197
2.79200	198
2.79567	197
2.79933	199
2.80300	199
2.80667	200
2.81033	200
2.81400	203
2.81767	211
2.82133	230
2.82500	272
2.82867	354
2.83233	498
2.83600	726
2.83967	1058
2.84333	1499
2.84700	2034
2.85067	2632
2.85433	3252
2.85800	3843
2.86167	4360
2.86533	4759
2.86900	5018
2.87267	5125
2.87633	5091
2.88000	4935
2.88367	4686
2.88733	4376
2.89100	4029
2.89467	3668
2.89833	3308
2.90200	2961
2.90567	2638
2.90933	2344
2.91300	2079
2.91667	1839
2.92033	1628
2.92400	1442
2.92767	1279
2.93133	1137
2.93500	1013
2.93867	905
2.94233	813
2.94600	732
2.94967	661
2.95333	600
2.95700	545
2.96067	499
2.96433	461
2.96800	430
2.97167	402
2.97533	378
2.97900	359
2.98267	339
2.98633	322
2.99000	308
2.99367	297
2.99733	285
3.00100	275
3.00467	268
3.00833	264
3.01200	259
3.01567	253
3.01933	249
3.02300	244
3.02667	238
3.03033	233
3.03400	229
3.03767	223
3.04133	218
3.04500	215
3.04867	214
3.05233	212
3.05600	213
3.05967	211
3.06333	208
3.06700	207
3.07067	204
3.07433	199
3.07800	196
3.08167	193
3.08533	190
3.08900	188
3.09267	186
3.09633	184
3.10000	181
3.10367	179
3.10733	178
3.11100	178
3.11467	177
3.11833	176
3.12200	174
3.12567	170
3.12933	167
3.13300	167
3.13667	167
3.14033	166
3.14400	163
3.14767	163
3.15133	163
3.15500	162
3.15867	159
3.16233	157
3.16600	155
3.16967	154
3.17333	153
3.17700	155
3.18067	154
3.18433	151
3.18800	151
3.19167	153
3.19533	155
3.19900	155
3.20267	156
3.20633	156
3.21000	157
3.21367	156
3.21733	155
3.22100	154
3.22467	155
3.22833	155
3.23200	155
3.23567	154
3.23933	156
3.24300	158
3.24667	157
3.25033	157
3.25400	156
3.25767	156
3.26133	156
3.26500	156
3.26867	154
3.27233	153
3.27600	154
3.27967	155
3.28333	154
3.28700	153
3.29067	149
3.29433	146
3.29800	145
3.30167	145
3.30533	142
3.30900	130
3.31267	115
3.31633	103
3.32000	95
3.32367	92
3.32733	90
3.33100	96
3.33467	109
3.33833	126
3.34200	152
3.34567	184
3.34933	216
3.35300	252
3.35667	292
3.36033	328
3.36400	363
3.36767	393
3.37133	417
3.37500	438
3.37867	460
3.38233	478
3.38600	491
3.38967	504
3.39333	517
3.39700	528
3.40067	535
3.40433	543
3.40800	550
3.41167	557
3.41533	563
3.41900	565
3.42267	568
3.42633	569
3.43000	570
3.43367	573
3.43733	575
3.44100	575
3.44467	576
3.44833	578
3.45200	582
3.45567	583
3.45933	584
3.46300	584
3.46667	585
3.47033	585
3.47400	584
3.47767	585
3.48133	584
3.48500	583
3.48867	581
3.49233	578
3.49600	577
3.49967	577
3.50333	577
3.50700	575
3.51067	575
3.51433	574
3.51800	571
3.52167	571
3.52533	574
3.52900	574
3.53267	574
3.53633	575
3.54000	576
3.54367	577
3.54733	578
3.55100	577
3.55467	577
3.55833	577
3.56200	578
3.56567	576
3.56933	574
3.57300	571
3.57667	569
3.58033	571
3.58400	574
3.58767	572
3.59133	570
3.59500	570
3.59867	569
3.60233	568
3.60600	566
3.60967	564
3.61333	560
3.61700	557
3.62067	557
3.62433	557
3.62800	558
3.63167	557
3.63533	555
3.63900	551
3.64267	550
3.64633	545
3.65000	540
3.65367	537
3.65733	536
3.66100	535
3.66467	534
3.66833	530
3.67200	525
3.67567	523
3.67933	521
3.68300	521
3.68667	521
3.69033	520
3.69400	520
3.69767	517
3.70133	515
3.70500	514
3.70867	513
3.71233	512
3.71600	513
3.71967	513
3.72333	511
3.72700	508
3.73067	506
3.73433	503
3.73800	500
3.74167	499
3.74533	498
3.74900	497
3.75267	497
3.75633	495
3.76000	497
3.76367	498
3.76733	497
3.77100	494
3.77467	490
3.77833	488
3.78200	487
3.78567	487
3.78933	487
3.79300	483
3.79667	480
3.80033	477
3.80400	476
3.80767	474
3.81133	473
3.81500	472
3.81867	472
3.82233	472
3.82600	472
3.82967	473
3.83333	473
3.83700	472
3.84067	469
3.84433	465
3.84800	461
3.85167	460
3.85533	461
3.85900	460
3.86267	459
3.86633	457
3.87000	455
3.87367	454
3.87733	455
3.88100	454
3.88467	453
3.88833	452
3.89200	451
3.89567	448
3.89933	446
3.90300	447
3.90667	448
3.91033	450
3.91400	452
3.91767	452
3.92133	451
3.92500	451
3.92867	451
3.93233	452
3.93600	452
3.93967	450
3.94333	449
3.94700	450
3.95067	452
3.95433	452
3.95800	453
3.96167	454
3.96533	454
3.96900	455
3.97267	453
3.97633	452
3.98000	453
3.98367	452
3.98733	451
3.99100	451
3.99467	453
3.99833	452

[Status Trace (Column Oven Temperature)]
Interval(msec)	1000
# of Points	240
Start Time(min)	0.001
End Time(min)	3.985
Intensity Units	
Intensity Multiplier	1
R.Time (min)	Intensity
0.00118	35.04
0.01785	35.04
0.03452	35.03
0.05118	35.03
0.06785	35.04
0.08452	35.05
0.10118	35.04
0.11785	35.03
0.13452	35.03
0.15118	35.03
0.16785	35.03
0.18452	35.01
0.20118	35.00
0.21785	34.99
0.23452	35.00
0.25118	34.99
0.26785	34.99
0.28452	34.99
0.30118	34.98
0.31785	34.98
0.33452	35.00
0.35118	35.00
0.36785	35.01
0.38452	35.00
0.40118	34.99
0.41785	34.99
0.43452	35.00
0.45118	34.99
0.46785	34.98
0.48452	34.97
0.50118	34.98
0.51785	34.99
0.53452	34.99
0.55118	34.98
0.56785	34.98
0.58452	34.97
0.60118	34.97
0.61785	34.98
0.63452	34.99
0.65118	35.00
0.66785	35.01
0.68452	35.01
0.70118	35.01
0.71785	35.00
0.73452	35.01
0.75118	35.03
0.76785	35.02
0.78452	35.02
0.80118	35.01
0.81785	35.00
0.83452	35.00
0.85118	34.99
0.86785	34.99
0.88452	34.98
0.90118	34.98
0.91785	34.97
0.93452	34.97
0.95118	34.99
0.96785	35.01
0.98452	35.01
1.00118	35.01
1.01785	35.01
1.03452	35.00
1.05118	34.99
1.06785	34.99
1.08452	35.01
1.10118	35.02
1.11785	35.02
1.13452	35.00
1.15118	35.00
1.16785	34.99
1.18452	34.97
1.20118	34.98
1.21785	34.98
1.23452	34.99
1.25118	34.99
1.26785	35.00
1.28452	35.01
1.30118	35.03
1.31785	35.04
1.33452	35.05
1.35118	35.05
1.36785	35.05
1.38452	35.04
1.40118	35.03
1.41785	35.02
1.43452	35.01
1.45118	35.00
1.46785	35.01
1.48452	35.01
1.50118	35.00
1.51785	35.00
1.53452	34.99
1.55118	35.00
1.56785	35.00
1.58452	34.99
1.60118	35.02
1.61785	35.12
1.63452	35.29
1.65118	35.52
1.66785	35.83
1.68452	36.19
1.70118	36.53
1.71785	36.88
1.73452	37.22
1.75118	37.54
1.76785	37.88
1.78452	38.23
1.80118	38.54
1.81785	38.86
1.83452	39.18
1.85118	39.51
1.86785	39.83
1.88452	40.17
1.90118	40.51
1.91785	40.83
1.93452	41.15
1.95118	41.48
1.96785	41.80
1.98452	42.11
2.00118	42.44
2.01785	42.80
2.03452	43.12
2.05118	43.46
2.06785	43.79
2.08452	44.09
2.10118	44.43
2.11785	44.74
2.13452	45.07
2.15118	45.41
2.16785	45.73
2.18452	46.08
2.20118	46.38
2.21785	46.72
2.23452	47.07
2.25118	47.39
2.26785	47.70
2.28452	48.03
2.30118	48.35
2.31785	48.69
2.33452	49.02
2.35118	49.34
2.36785	49.63
2.38452	49.77
2.40118	49.78
2.41785	49.77
2.43452	49.77
2.45118	49.78
2.46785	49.80
2.48452	49.79
2.50118	49.80
2.51785	49.80
2.53452	49.80
2.55118	49.81
2.56785	49.82
2.58452	49.83
2.60118	49.83
2.61785	49.83
2.63452	49.85
2.65118	49.84
2.66785	49.84
2.68452	49.87
2.70118	49.86
2.71785	49.85
2.73452	49.84
2.75118	49.87
2.76785	49.89
2.78452	49.90
2.80118	49.89
2.81785	49.90
2.83452	49.90
2.85118	49.91
2.86785	49.91
2.88452	49.92
2.90118	49.93
2.91785	49.95
2.93452	49.96
2.95118	49.98
2.96785	50.00
2.98452	50.00
3.00118	50.02
3.01785	50.02
3.03452	50.03
3.05118	50.03
3.06785	50.05
3.08452	50.07
3.10118	50.08
3.11785	50.10
3.13452	50.11
3.15118	50.10
3.16785	50.08
3.18452	50.05
3.20118	50.04
3.21785	50.05
3.23452	50.05
3.25118	50.06
3.26785	50.07
3.28452	50.08
3.30118	50.07
3.31785	50.06
3.33452	50.07
3.35118	50.07
3.36785	50.08
3.38452	50.08
3.40118	50.07
3.41785	50.08
3.43452	50.09
3.45118	50.09
3.46785	50.08
3.48452	50.08
3.50118	50.07
3.51785	50.07
3.53452	50.07
3.55118	50.08
3.56785	50.10
3.58452	50.11
3.60118	50.12
3.61785	50.10
3.63452	50.10
3.65118	50.08
3.66785	50.08
3.68452	50.07
3.70118	50.05
3.71785	50.05
3.73452	50.04
3.75118	50.03
3.76785	50.02
3.78452	50.02
3.80118	50.02
3.81785	50.02
3.83452	50.01
3.85118	50.02
3.86785	50.02
3.88452	50.01
3.90118	50.01
3.91785	50.01
3.93452	50.01
3.95118	50.01
3.96785	50.02
3.98452	50.04

[Status Trace (Injection Unit Temperature)]
Interval(msec)	1000
# of Points	240
Start Time(min)	0.001
End Time(min)	3.985
Intensity Units	
Intensity Multiplier	1
R.Time (min)	Intensity
0.00118	99.97
0.01785	99.97
0.03452	99.98
0.05118	99.97
0.06785	99.98
0.08452	99.98
0.10118	99.97
0.11785	99.98
0.13452	99.98
0.15118	99.98
0.16785	99.98
0.18452	99.98
0.20118	99.98
0.21785	99.98
0.23452	99.98
0.25118	99.97
0.26785	99.98
0.28452	99.98
0.30118	99.98
0.31785	99.98
0.33452	99.96
0.35118	99.98
0.36785	99.98
0.38452	99.98
0.40118	99.98
0.41785	99.98
0.43452	99.98
0.45118	99.98
0.46785	99.98
0.48452	99.98
0.50118	99.98
0.51785	99.98
0.53452	99.98
0.55118	99.98
0.56785	99.99
0.58452	99.98
0.60118	99.98
0.61785	99.98
0.63452	99.98
0.65118	99.98
0.66785	99.98
0.68452	99.98
0.70118	99.99
0.71785	99.98
0.73452	99.98
0.75118	99.99
0.76785	99.98
0.78452	99.98
0.80118	99.98
0.81785	99.98
0.83452	99.98
0.85118	99.98
0.86785	99.98
0.88452	99.98
0.90118	99.98
0.91785	99.98
0.93452	99.98
0.95118	99.98
0.96785	99.98
0.98452	99.98
1.00118	99.98
1.01785	99.98
1.03452	99.98
1.05118	99.98
1.06785	99.98
1.08452	99.98
1.10118	99.98
1.11785	99.98
1.13452	99.98
1.15118	99.98
1.16785	99.98
1.18452	99.98
1.20118	99.98
1.21785	99.98
1.23452	99.98
1.25118	99.99
1.26785	99.98
1.28452	99.98
1.30118	99.98
1.31785	99.98
1.33452	99.98
1.35118	99.97
1.36785	99.98
1.38452	99.98
1.40118	99.98
1.41785	99.98
1.43452	99.98
1.45118	99.98
1.46785	99.98
1.48452	99.98
1.50118	99.97
1.51785	99.98
1.53452	99.98
1.55118	99.98
1.56785	99.98
1.58452	99.98
1.60118	99.98
1.61785	99.98
1.63452	99.98
1.65118	99.98
1.66785	99.98
1.68452	99.98
1.70118	99.98
1.71785	99.99
1.73452	99.98
1.75118	99.98
1.76785	99.98
1.78452	99.98
1.80118	99.98
1.81785	99.98
1.83452	99.98
1.85118	99.98
1.86785	99.98
1.88452	99.98
1.90118	99.98
1.91785	99.98
1.93452	99.98
1.95118	99.98
1.96785	99.98
1.98452	99.97
2.00118	99.98
2.01785	99.98
2.03452	99.98
2.05118	99.97
2.06785	99.98
2.08452	99.98
2.10118	99.97
2.11785	99.97
2.13452	99.97
2.15118	99.97
2.16785	99.97
2.18452	99.97
2.20118	99.97
2.21785	99.97
2.23452	99.97
2.25118	99.96
2.26785	99.97
2.28452	99.96
2.30118	99.96
2.31785	99.96
2.33452	99.96
2.35118	99.97
2.36785	99.96
2.38452	99.96
2.40118	99.96
2.41785	99.96
2.43452	99.96
2.45118	99.96
2.46785	99.96
2.48452	99.96
2.50118	99.96
2.51785	99.96
2.53452	99.96
2.55118	99.96
2.56785	99.96
2.58452	99.96
2.60118	99.97
2.61785	99.97
2.63452	99.97
2.65118	99.97
2.66785	99.97
2.68452	99.97
2.70118	99.97
2.71785	99.98
2.73452	99.97
2.75118	99.98
2.76785	99.98
2.78452	99.98
2.80118	99.98
2.81785	99.99
2.83452	99.99
2.85118	99.99
2.86785	99.99
2.88452	99.99
2.90118	99.99
2.91785	99.99
2.93452	99.99
2.95118	100.00
2.96785	100.00
2.98452	100.00
3.00118	100.00
3.01785	100.00
3.03452	100.00
3.05118	100.01
3.06785	100.01
3.08452	100.01
3.10118	100.01
3.11785	100.01
3.13452	100.02
3.15118	100.01
3.16785	100.02
3.18452	100.02
3.20118	100.03
3.21785	100.02
3.23452	100.02
3.25118	100.02
3.26785	100.02
3.28452	100.03
3.30118	100.03
3.31785	100.03
3.33452	100.03
3.35118	100.03
3.36785	100.03
3.38452	100.03
3.40118	100.03
3.41785	100.03
3.43452	100.04
3.45118	100.04
3.46785	100.04
3.48452	100.03
3.50118	100.04
3.51785	100.04
3.53452	100.04
3.55118	100.04
3.56785	100.04
3.58452	100.04
3.60118	100.04
3.61785	100.04
3.63452	100.04
3.65118	100.04
3.66785	100.04
3.68452	100.05
3.70118	100.05
3.71785	100.05
3.73452	100.05
3.75118	100.04
3.76785	100.05
3.78452	100.05
3.80118	100.05
3.81785	100.05
3.83452	100.05
3.85118	100.05
3.86785	100.05
3.88452	100.05
3.90118	100.05
3.91785	100.05
3.93452	100.05
3.95118	100.05
3.96785	100.05
3.98452	100.05

[Status Trace (Carrier Gas Pressure)]
Interval(msec)	1000
# of Points	240
Start Time(min)	0.001
End Time(min)	3.985
Intensity Units	
Intensity Multiplier	1
R.Time (min)	Intensity
0.00118	58.00
0.01785	56.59
0.03452	56.13
0.05118	58.46
0.06785	59.90
0.08452	58.38
0.10118	57.97
0.11785	58.00
0.13452	58.01
0.15118	58.01
0.16785	58.00
0.18452	58.00
0.20118	58.00
0.21785	58.00
0.23452	58.00
0.25118	58.00
0.26785	58.00
0.28452	58.00
0.30118	58.00
0.31785	58.00
0.33452	58.00
0.35118	58.00
0.36785	58.00
0.38452	58.00
0.40118	58.00
0.41785	58.00
0.43452	58.00
0.45118	58.00
0.46785	58.00
0.48452	58.00
0.50118	58.00
0.51785	58.00
0.53452	58.00
0.55118	58.00
0.56785	58.00
0.58452	58.00
0.60118	58.00
0.61785	58.00
0.63452	58.00
0.65118	58.00
0.66785	58.00
0.68452	58.00
0.70118	58.00
0.71785	58.00
0.73452	58.00
0.75118	58.00
0.76785	58.00
0.78452	58.00
0.80118	58.00
0.81785	58.00
0.83452	58.00
0.85118	58.00
0.86785	58.00
0.88452	58.00
0.90118	58.00
0.91785	58.00
0.93452	58.00
0.95118	58.00
0.96785	58.00
0.98452	58.00
1.00118	58.00
1.01785	58.00
1.03452	58.00
1.05118	58.00
1.06785	58.00
1.08452	58.00
1.10118	58.00
1.11785	58.00
1.13452	58.00
1.15118	58.00
1.16785	58.00
1.18452	58.00
1.20118	58.00
1.21785	58.00
1.23452	58.00
1.25118	58.00
1.26785	58.00
1.28452	58.00
1.30118	58.00
1.31785	58.00
1.33452	58.00
1.35118	58.00
1.36785	58.00
1.38452	58.00
1.40118	58.00
1.41785	58.00
1.43452	58.00
1.45118	58.00
1.46785	58.00
1.48452	58.00
1.50118	58.00
1.51785	58.00
1.53452	58.00
1.55118	58.00
1.56785	58.00
1.58452	58.00
1.60118	58.00
1.61785	58.00
1.63452	58.00
1.65118	58.00
1.66785	58.01
1.68452	58.00
1.70118	58.00
1.71785	58.00
1.73452	58.00
1.75118	58.00
1.76785	58.00
1.78452	58.00
1.80118	58.00
1.81785	58.00
1.83452	58.00
1.85118	58.00
1.86785	58.00
1.88452	58.00
1.90118	58.00
1.91785	58.00
1.93452	58.00
1.95118	58.00
1.96785	58.00
1.98452	58.00
2.00118	58.00
2.01785	58.00
2.03452	58.00
2.05118	58.00
2.06785	58.00
2.08452	58.00
2.10118	58.00
2.11785	58.00
2.13452	58.00
2.15118	58.00
2.16785	58.00
2.18452	58.00
2.20118	58.00
2.21785	58.00
2.23452	58.00
2.25118	58.00
2.26785	58.00
2.28452	58.00
2.30118	58.00
2.31785	58.00
2.33452	58.00
2.35118	58.00
2.36785	58.00
2.38452	57.99
2.40118	57.99
2.41785	57.99
2.43452	58.00
2.45118	58.00
2.46785	58.00
2.48452	58.00
2.50118	58.00
2.51785	57.98
2.53452	57.99
2.55118	58.00
2.56785	58.00
2.58452	58.00
2.60118	58.00
2.61785	58.00
2.63452	58.00
2.65118	58.00
2.66785	58.00
2.68452	58.00
2.70118	58.00
2.71785	58.00
2.73452	58.00
2.75118	58.00
2.76785	58.00
2.78452	58.00
2.80118	58.00
2.81785	58.00
2.83452	58.00
2.85118	58.00
2.86785	58.00
2.88452	58.00
2.90118	58.00
2.91785	58.00
2.93452	58.00
2.95118	58.00
2.96785	58.00
2.98452	58.00
3.00118	58.00
3.01785	58.00
3.03452	58.00
3.05118	58.00
3.06785	58.00
3.08452	58.00
3.10118	58.00
3.11785	58.00
3.13452	58.00
3.15118	58.00
3.16785	58.00
3.18452	58.00
3.20118	58.00
3.21785	58.00
3.23452	58.00
3.25118	58.00
3.26785	58.00
3.28452	58.00
3.30118	58.00
3.31785	58.00
3.33452	58.00
3.35118	58.00
3.36785	58.00
3.38452	58.00
3.40118	58.00
3.41785	58.00
3.43452	58.00
3.45118	58.00
3.46785	58.00
3.48452	58.00
3.50118	58.00
3.51785	58.00
3.53452	58.00
3.55118	58.00
3.56785	58.00
3.58452	58.00
3.60118	58.00
3.61785	58.00
3.63452	58.00
3.65118	58.00
3.66785	58.00
3.68452	58.00
3.70118	58.00
3.71785	58.00
3.73452	58.00
3.75118	58.00
3.76785	58.00
3.78452	58.00
3.80118	58.00
3.81785	58.00
3.83452	58.00
3.85118	58.00
3.86785	58.00
3.88452	58.00
3.90118	58.00
3.91785	58.00
3.93452	58.00
3.95118	58.00
3.96785	58.00
3.98452	58.00

[Status Trace (Carrier Gas Flow)]
Interval(msec)	1000
# of Points	240
Start Time(min)	0.001
End Time(min)	3.985
Intensity Units	
Intensity Multiplier	1
R.Time (min)	Intensity
0.00118	34.52
0.01785	33.97
0.03452	34.54
0.05118	34.55
0.06785	34.50
0.08452	34.51
0.10118	34.52
0.11785	34.52
0.13452	34.52
0.15118	34.52
0.16785	34.52
0.18452	34.51
0.20118	34.52
0.21785	34.52
0.23452	34.51
0.25118	34.51
0.26785	34.52
0.28452	34.52
0.30118	34.52
0.31785	34.51
0.33452	34.52
0.35118	34.52
0.36785	34.52
0.38452	34.52
0.40118	34.52
0.41785	34.52
0.43452	34.52
0.45118	34.52
0.46785	34.52
0.48452	34.52
0.50118	34.52
0.51785	34.52
0.53452	34.52
0.55118	34.52
0.56785	34.52
0.58452	34.52
0.60118	34.52
0.61785	34.52
0.63452	34.52
0.65118	34.52
0.66785	34.52
0.68452	34.52
0.70118	34.51
0.71785	34.52
0.73452	34.52
0.75118	34.53
0.76785	34.52
0.78452	34.52
0.80118	34.52
0.81785	34.52
0.83452	34.52
0.85118	34.51
0.86785	34.52
0.88452	34.52
0.90118	34.51
0.91785	34.52
0.93452	34.52
0.95118	34.52
0.96785	34.51
0.98452	34.52
1.00118	34.52
1.01785	34.52
1.03452	34.52
1.05118	34.52
1.06785	34.52
1.08452	34.51
1.10118	34.52
1.11785	34.52
1.13452	34.53
1.15118	34.52
1.16785	34.52
1.18452	34.52
1.20118	34.52
1.21785	34.52
1.23452	34.51
1.25118	34.52
1.26785	34.52
1.28452	34.51
1.30118	34.52
1.31785	34.52
1.33452	34.52
1.35118	34.52
1.36785	34.52
1.38452	34.52
1.40118	34.52
1.41785	34.52
1.43452	34.52
1.45118	34.52
1.46785	34.52
1.48452	34.52
1.50118	34.52
1.51785	34.51
1.53452	34.52
1.55118	34.52
1.56785	34.52
1.58452	34.52
1.60118	34.52
1.61785	34.52
1.63452	34.52
1.65118	34.52
1.66785	34.52
1.68452	34.52
1.70118	34.52
1.71785	34.52
1.73452	34.51
1.75118	34.52
1.76785	34.52
1.78452	34.52
1.80118	34.51
1.81785	34.51
1.83452	34.52
1.85118	34.52
1.86785	34.52
1.88452	34.51
1.90118	34.52
1.91785	34.52
1.93452	34.51
1.95118	34.52
1.96785	34.52
1.98452	34.52
2.00118	34.52
2.01785	34.52
2.03452	34.52
2.05118	34.52
2.06785	34.52
2.08452	34.52
2.10118	34.52
2.11785	34.52
2.13452	34.52
2.15118	34.52
2.16785	34.52
2.18452	34.52
2.20118	34.52
2.21785	34.52
2.23452	34.51
2.25118	34.52
2.26785	34.52
2.28452	34.52
2.30118	34.52
2.31785	34.52
2.33452	34.51
2.35118	34.52
2.36785	34.52
2.38452	34.52
2.40118	34.52
2.41785	34.52
2.43452	34.52
2.45118	34.52
2.46785	34.52
2.48452	34.52
2.50118	34.52
2.51785	34.52
2.53452	34.52
2.55118	34.52
2.56785	34.52
2.58452	34.51
2.60118	34.52
2.61785	34.52
2.63452	34.52
2.65118	34.52
2.66785	34.52
2.68452	34.52
2.70118	34.51
2.71785	34.52
2.73452	34.52
2.75118	34.52
2.76785	34.51
2.78452	34.52
2.80118	34.52
2.81785	34.51
2.83452	34.52
2.85118	34.52
2.86785	34.51
2.88452	34.52
2.90118	34.52
2.91785	34.52
2.93452	34.52
2.95118	34.52
2.96785	34.52
2.98452	34.52
3.00118	34.52
3.01785	34.52
3.03452	34.52
3.05118	34.52
3.06785	34.51
3.08452	34.52
3.10118	34.52
3.11785	34.52
3.13452	34.52
3.15118	34.51
3.16785	34.52
3.18452	34.52
3.20118	34.52
3.21785	34.52
3.23452	34.51
3.25118	34.51
3.26785	34.52
3.28452	34.52
3.30118	34.52
3.31785	34.52
3.33452	34.52
3.35118	34.51
3.36785	34.52
3.38452	34.52
3.40118	34.52
3.41785	34.52
3.43452	34.51
3.45118	34.51
3.46785	34.53
3.48452	34.52
3.50118	34.52
3.51785	34.51
3.53452	34.52
3.55118	34.51
3.56785	34.51
3.58452	34.52
3.60118	34.52
3.61785	34.52
3.63452	34.52
3.65118	34.52
3.66785	34.51
3.68452	34.51
3.70118	34.53
3.71785	34.52
3.73452	34.52
3.75118	34.52
3.76785	34.52
3.78452	34.52
3.80118	34.52
3.81785	34.52
3.83452	34.52
3.85118	34.51
3.86785	34.52
3.88452	34.51
3.90118	34.52
3.91785	34.52
3.93452	34.52
3.95118	34.51
3.96785	34.52
3.98452	34.52

[Status Trace (Column Flow)]
Interval(msec)	1000
# of Points	240
Start Time(min)	0.001
End Time(min)	3.985
Intensity Units	
Intensity Multiplier	1
R.Time (min)	Intensity
0.00118	5.57
0.01785	5.41
0.03452	5.36
0.05118	5.63
0.06785	5.80
0.08452	5.62
0.10118	5.57
0.11785	5.57
0.13452	5.57
0.15118	5.57
0.16785	5.57
0.18452	5.57
0.20118	5.57
0.21785	5.57
0.23452	5.57
0.25118	5.57
0.26785	5.57
0.28452	5.57
0.30118	5.57
0.31785	5.58
0.33452	5.57
0.35118	5.57
0.36785	5.57
0.38452	5.57
0.40118	5.57
0.41785	5.57
0.43452	5.57
0.45118	5.57
0.46785	5.57
0.48452	5.58
0.50118	5.57
0.51785	5.57
0.53452	5.57
0.55118	5.57
0.56785	5.57
0.58452	5.58
0.60118	5.58
0.61785	5.58
0.63452	5.57
0.65118	5.57
0.66785	5.57
0.68452	5.57
0.70118	5.57
0.71785	5.57
0.73452	5.57
0.75118	5.57
0.76785	5.57
0.78452	5.57
0.80118	5.57
0.81785	5.57
0.83452	5.57
0.85118	5.57
0.86785	5.57
0.88452	5.57
0.90118	5.57
0.91785	5.58
0.93452	5.58
0.95118	5.57
0.96785	5.57
0.98452	5.57
1.00118	5.57
1.01785	5.57
1.03452	5.57
1.05118	5.57
1.06785	5.57
1.08452	5.57
1.10118	5.57
1.11785	5.57
1.13452	5.57
1.15118	5.57
1.16785	5.57
1.18452	5.57
1.20118	5.57
1.21785	5.57
1.23452	5.57
1.25118	5.57
1.26785	5.57
1.28452	5.57
1.30118	5.57
1.31785	5.57
1.33452	5.57
1.35118	5.57
1.36785	5.57
1.38452	5.57
1.40118	5.57
1.41785	5.57
1.43452	5.57
1.45118	5.57
1.46785	5.57
1.48452	5.57
1.50118	5.57
1.51785	5.57
1.53452	5.57
1.55118	5.57
1.56785	5.57
1.58452	5.57
1.60118	5.57
1.61785	5.57
1.63452	5.57
1.65118	5.56
1.66785	5.55
1.68452	5.54
1.70118	5.53
1.71785	5.52
1.73452	5.50
1.75118	5.49
1.76785	5.48
1.78452	5.47
1.80118	5.46
1.81785	5.45
1.83452	5.44
1.85118	5.43
1.86785	5.42
1.88452	5.41
1.90118	5.40
1.91785	5.39
1.93452	5.38
1.95118	5.37
1.96785	5.36
1.98452	5.35
2.00118	5.34
2.01785	5.34
2.03452	5.32
2.05118	5.31
2.06785	5.31
2.08452	5.30
2.10118	5.29
2.11785	5.28
2.13452	5.27
2.15118	5.26
2.16785	5.25
2.18452	5.24
2.20118	5.23
2.21785	5.22
2.23452	5.21
2.25118	5.20
2.26785	5.19
2.28452	5.18
2.30118	5.17
2.31785	5.16
2.33452	5.15
2.35118	5.15
2.36785	5.14
2.38452	5.13
2.40118	5.13
2.41785	5.13
2.43452	5.13
2.45118	5.13
2.46785	5.13
2.48452	5.13
2.50118	5.13
2.51785	5.13
2.53452	5.13
2.55118	5.13
2.56785	5.13
2.58452	5.13
2.60118	5.13
2.61785	5.13
2.63452	5.13
2.65118	5.13
2.66785	5.13
2.68452	5.13
2.70118	5.13
2.71785	5.13
2.73452	5.13
2.75118	5.13
2.76785	5.13
2.78452	5.13
2.80118	5.13
2.81785	5.13
2.83452	5.13
2.85118	5.13
2.86785	5.13
2.88452	5.13
2.90118	5.13
2.91785	5.13
2.93452	5.13
2.95118	5.13
2.96785	5.13
2.98452	5.13
3.00118	5.13
3.01785	5.13
3.03452	5.13
3.05118	5.13
3.06785	5.13
3.08452	5.12
3.10118	5.12
3.11785	5.12
3.13452	5.12
3.15118	5.12
3.16785	5.12
3.18452	5.13
3.20118	5.13
3.21785	5.13
3.23452	5.13
3.25118	5.12
3.26785	5.12
3.28452	5.12
3.30118	5.12
3.31785	5.12
3.33452	5.12
3.35118	5.12
3.36785	5.12
3.38452	5.12
3.40118	5.12
3.41785	5.12
3.43452	5.12
3.45118	5.12
3.46785	5.12
3.48452	5.12
3.50118	5.12
3.51785	5.12
3.53452	5.12
3.55118	5.12
3.56785	5.12
3.58452	5.12
3.60118	5.12
3.61785	5.12
3.63452	5.12
3.65118	5.12
3.66785	5.12
3.68452	5.12
3.70118	5.13
3.71785	5.13
3.73452	5.13
3.75118	5.13
3.76785	5.13
3.78452	5.13
3.80118	5.13
3.81785	5.13
3.83452	5.13
3.85118	5.13
3.86785	5.13
3.88452	5.13
3.90118	5.13
3.91785	5.13
3.93452	5.13
3.95118	5.13
3.96785	5.13
3.98452	5.13

[Status Trace (Linear Velocity)]
Interval(msec)	1000
# of Points	240
Start Time(min)	0.001
End Time(min)	3.985
Intensity Units	
Intensity Multiplier	1
R.Time (min)	Intensity
0.00118	39.03
0.01785	38.10
0.03452	37.80
0.05118	39.32
0.06785	40.27
0.08452	39.27
0.10118	39.01
0.11785	39.03
0.13452	39.03
0.15118	39.03
0.16785	39.03
0.18452	39.03
0.20118	39.03
0.21785	39.03
0.23452	39.03
0.25118	39.03
0.26785	39.03
0.28452	39.03
0.30118	39.03
0.31785	39.03
0.33452	39.03
0.35118	39.03
0.36785	39.03
0.38452	39.03
0.40118	39.03
0.41785	39.03
0.43452	39.03
0.45118	39.03
0.46785	39.03
0.48452	39.03
0.50118	39.03
0.51785	39.03
0.53452	39.03
0.55118	39.03
0.56785	39.03
0.58452	39.03
0.60118	39.03
0.61785	39.03
0.63452	39.03
0.65118	39.03
0.66785	39.03
0.68452	39.03
0.70118	39.03
0.71785	39.03
0.73452	39.03
0.75118	39.03
0.76785	39.03
0.78452	39.03
0.80118	39.03
0.81785	39.03
0.83452	39.03
0.85118	39.03
0.86785	39.03
0.88452	39.03
0.90118	39.03
0.91785	39.03
0.93452	39.03
0.95118	39.03
0.96785	39.03
0.98452	39.03
1.00118	39.03
1.01785	39.03
1.03452	39.03
1.05118	39.03
1.06785	39.03
1.08452	39.03
1.10118	39.03
1.11785	39.03
1.13452	39.03
1.15118	39.03
1.16785	39.03
1.18452	39.03
1.20118	39.03
1.21785	39.03
1.23452	39.03
1.25118	39.03
1.26785	39.03
1.28452	39.03
1.30118	39.03
1.31785	39.02
1.33452	39.02
1.35118	39.02
1.36785	39.02
1.38452	39.02
1.40118	39.03
1.41785	39.03
1.43452	39.03
1.45118	39.03
1.46785	39.03
1.48452	39.03
1.50118	39.03
1.51785	39.03
1.53452	39.03
1.55118	39.03
1.56785	39.03
1.58452	39.03
1.60118	39.03
1.61785	39.02
1.63452	39.00
1.65118	38.98
1.66785	38.96
1.68452	38.92
1.70118	38.88
1.71785	38.85
1.73452	38.82
1.75118	38.79
1.76785	38.76
1.78452	38.72
1.80118	38.69
1.81785	38.66
1.83452	38.63
1.85118	38.60
1.86785	38.57
1.88452	38.54
1.90118	38.51
1.91785	38.48
1.93452	38.45
1.95118	38.42
1.96785	38.39
1.98452	38.36
2.00118	38.33
2.01785	38.30
2.03452	38.26
2.05118	38.23
2.06785	38.21
2.08452	38.17
2.10118	38.15
2.11785	38.12
2.13452	38.09
2.15118	38.06
2.16785	38.03
2.18452	38.00
2.20118	37.97
2.21785	37.94
2.23452	37.91
2.25118	37.88
2.26785	37.85
2.28452	37.82
2.30118	37.79
2.31785	37.76
2.33452	37.73
2.35118	37.70
2.36785	37.68
2.38452	37.66
2.40118	37.66
2.41785	37.66
2.43452	37.66
2.45118	37.66
2.46785	37.66
2.48452	37.66
2.50118	37.66
2.51785	37.65
2.53452	37.66
2.55118	37.66
2.56785	37.66
2.58452	37.66
2.60118	37.66
2.61785	37.66
2.63452	37.66
2.65118	37.66
2.66785	37.66
2.68452	37.66
2.70118	37.66
2.71785	37.66
2.73452	37.66
2.75118	37.66
2.76785	37.65
2.78452	37.65
2.80118	37.65
2.81785	37.65
2.83452	37.65
2.85118	37.65
2.86785	37.65
2.88452	37.65
2.90118	37.65
2.91785	37.65
2.93452	37.65
2.95118	37.65
2.96785	37.64
2.98452	37.64
3.00118	37.64
3.01785	37.64
3.03452	37.64
3.05118	37.64
3.06785	37.64
3.08452	37.64
3.10118	37.64
3.11785	37.64
3.13452	37.63
3.15118	37.64
3.16785	37.64
3.18452	37.64
3.20118	37.64
3.21785	37.64
3.23452	37.64
3.25118	37.64
3.26785	37.64
3.28452	37.64
3.30118	37.64
3.31785	37.64
3.33452	37.64
3.35118	37.64
3.36785	37.64
3.38452	37.64
3.40118	37.64
3.41785	37.64
3.43452	37.64
3.45118	37.64
3.46785	37.64
3.48452	37.64
3.50118	37.64
3.51785	37.64
3.53452	37.64
3.55118	37.64
3.56785	37.64
3.58452	37.63
3.60118	37.63
3.61785	37.64
3.63452	37.64
3.65118	37.64
3.66785	37.64
3.68452	37.64
3.70118	37.64
3.71785	37.64
3.73452	37.64
3.75118	37.64
3.76785	37.64
3.78452	37.64
3.80118	37.64
3.81785	37.64
3.83452	37.64
3.85118	37.64
3.86785	37.64
3.88452	37.64
3.90118	37.64
3.91785	37.64
3.93452	37.64
3.95118	37.64
3.96785	37.64
3.98452	37.64

