[Header]
Application Name	LabSolutions
Version	5.110
Data File Name	C:\Users\User\Desktop\GC Analyses\Jack\Nachusa Grasslands Sampling\T1 Timepoint July 12th\T1_07122022_048.gcd
Output Date	3/14/2023
Output Time	3:41:00 PM

[File Information]
Type	Data File
Generated	3/8/2023 6:32:25 PM
Generated by	System Administrator
Modified	3/8/2023 6:39:01 PM
Modified by	System Administrator

[Sample Information]
Operator Name	System Administrator
Acquired	3/8/2023 6:35:00 PM
Sample Type	0:Unknown
Level	0
Sample Name	048
Sample ID	048
ISTD Amount1	1
ISTD Amount2	1
ISTD Amount3	1
ISTD Amount4	1
ISTD Amount5	1
ISTD Amount6	1
ISTD Amount7	1
ISTD Amount8	1
ISTD Amount9	1
ISTD Amount10	1
ISTD Amount11	1
ISTD Amount12	1
ISTD Amount13	1
ISTD Amount14	1
ISTD Amount15	1
ISTD Amount16	1
ISTD Amount17	1
ISTD Amount18	1
ISTD Amount19	1
ISTD Amount20	1
ISTD Amount21	1
ISTD Amount22	1
ISTD Amount23	1
ISTD Amount24	1
ISTD Amount25	1
ISTD Amount26	1
ISTD Amount27	1
ISTD Amount28	1
ISTD Amount29	1
ISTD Amount30	1
ISTD Amount31	1
ISTD Amount32	1
Sample Amount	1
Dilution Factor	1
Vial#	47
Injection Volume	1
Injection Count	1
Bar Code	

[Original Files]
Data File	C:\Users\User\Desktop\GC Analyses\Jack\Nachusa Grasslands Sampling\T1 Timepoint July 12th\T1_07122022_048.gcd
Method File	C:\LabSolutions\Data\GHG_4min_2022\ghg3_togas_w_acet_4 min_new_int.gcm
Batch File	C:\LabSolutions\Data\AutoSamplerTesting\T1_07122022.gcb
Report Format File	c:\LabSolutions\System\DEFAULT.lsr

[File Description]


[Configuration]
Instrument Name	C0B7VH3-Instrument1
Instrument #	1
Line #	1
# of Detectors	3
Detector ID	DET#1	DET#2	DET#3
Detector Name	FID	PTCD	ECD
# of Channels	1	1	1

[Peak Table(Ch1)]
# of Peaks	3
Peak#	R.Time	I.Time	F.Time	Area	Height	A/H	Conc.	Mark	ID#	Name	k'	Plate #	Plate Ht.	Tailing	Resolution	Sep.Factor	Area Ratio	Height Ratio	Conc. %	Norm Conc.
1	1.476	1.439	1.538	26844	12555	2.138	189.517	   	1	CO	0.000	9049	16.576	1.356	0.000	0.000	0	0	31.076	31.076
2	1.567	1.538	1.626	4746	2259	2.101	91.771	 V 	2	CH4	0.062	10252	14.631	0.000	1.479	0.000	0	0	15.048	15.048
3	2.000	1.952	2.491	1309132	616781	2.123	328.557	   	3	CO2	0.355	17437	8.602	1.182	7.064	5.720	0	0	53.875	53.875

[Peak Table(Ch2)]
# of Peaks	0

[Peak Table(Ch3)]
# of Peaks	5
Peak#	R.Time	I.Time	F.Time	Area	Height	A/H	Conc.	Mark	ID#	Name	k'	Plate #	Plate Ht.	Tailing	Resolution	Sep.Factor	Area Ratio	Height Ratio	Conc. %	Norm Conc.
1	2.462	2.224	2.517	2103	497	4.236	0.000	   			0.000	7495	20.012	0.000	0.000	0.000	0	0	0.000	0.000
2	2.543	2.517	2.634	1273	289	4.412	0.000	 V 			0.033	3040	49.334	0.000	0.541	0.000	0	0	0.000	0.000
3	2.678	2.634	2.744	476	99	4.835	0.000	 V 			0.088	2737	54.797	0.000	0.697	2.682	0	0	0.000	0.000
4	2.873	2.744	3.122	19410	4943	3.926	0.496	 V 	1	N2O	0.167	13168	11.391	1.706	1.275	1.898	0	0	100.000	100.000
5	3.698	3.221	3.749	1386	82	16.944	0.000	   			0.502	2168	69.193	0.553	3.949	3.009	0	0	0.000	0.000

[Compound Results(Ch1)]
# of IDs	6
ID#	Name	R.Time	Area	Height	Conc.	Curve	3rd	2nd	1st	Constant	Area Ratio	Height Ratio	Conc. %	Norm Conc.
1	CO	1.476	26844	12555	189.517	Linear	0.000000e+00	0.000000e+00	1.416423e+002	0.000000e+00	0	0	31.076	31.076
2	CH4	1.567	4746	2259	91.771	Linear	0.000000e+00	0.000000e+00	5.171738e+001	0.000000e+00	0	0	15.048	15.048
3	CO2	2.000	1309132	616781	328.557	Linear	0.000000e+00	0.000000e+00	3.984494e+003	0.000000e+00	0	0	53.875	53.875
4	Ethylene	0.000	0	0	0.000	Linear	0.000000e+00	0.000000e+00	0.000000e+00	0.000000e+00	0	0	0.000	0.000
5	Acetylene	0.000	0	0	0.000	Linear	0.000000e+00	0.000000e+00	0.000000e+00	0.000000e+00	0	0	0.000	0.000
6	Ethane	0.000	0	0	0.000	Linear	0.000000e+00	0.000000e+00	0.000000e+00	0.000000e+00	0	0	0.000	0.000

[Compound Results(Ch2)]
# of IDs	5
ID#	Name	R.Time	Area	Height	Conc.	Curve	3rd	2nd	1st	Constant	Area Ratio	Height Ratio	Conc. %	Norm Conc.
1	Hydrogen	0.000	0	0	0.000	Linear	0.000000e+00	0.000000e+00	0.000000e+00	0.000000e+00	0	0	0.000	0.000
2	Oxygen	0.000	0	0	0.000	Linear	0.000000e+00	0.000000e+00	0.000000e+00	0.000000e+00	0	0	0.000	0.000
3	Nitrogen	0.000	0	0	0.000	Linear	0.000000e+00	0.000000e+00	0.000000e+00	0.000000e+00	0	0	0.000	0.000
4	Methane	0.000	0	0	0.000	Linear	0.000000e+00	0.000000e+00	0.000000e+00	0.000000e+00	0	0	0.000	0.000
5	Carbon Monoxide	0.000	0	0	0.000	Linear	0.000000e+00	0.000000e+00	0.000000e+00	0.000000e+00	0	0	0.000	0.000

[Compound Results(Ch3)]
# of IDs	2
ID#	Name	R.Time	Area	Height	Conc.	Curve	3rd	2nd	1st	Constant	Area Ratio	Height Ratio	Conc. %	Norm Conc.
1	N2O	2.873	19410	4943	0.496	Linear	0.000000e+00	0.000000e+00	3.915173e+004	0.000000e+00	0	0	100.000	100.000
2	SF6	0.000	0	0	0.000	Linear	0.000000e+00	0.000000e+00	0.000000e+00	0.000000e+00	0	0	0.000	0.000

[Group Results(Ch1)]
# of Groups	0

[Group Results(Ch2)]
# of Groups	0

[Group Results(Ch3)]
# of Groups	0

[Chromatogram (Ch1)]
Interval(msec)	220
# of Points	1091
Start Time(min)	0.002
End Time(min)	3.998
R.Time (min)	Intensity
0.00167	15
0.00533	13
0.00900	12
0.01267	13
0.01633	15
0.02000	15
0.02367	16
0.02733	16
0.03100	16
0.03467	17
0.03833	17
0.04200	17
0.04567	17
0.04933	19
0.05300	21
0.05667	23
0.06033	23
0.06400	27
0.06767	36
0.07133	45
0.07500	49
0.07867	43
0.08233	30
0.08600	18
0.08967	11
0.09333	7
0.09700	4
0.10067	0
0.10433	-4
0.10800	-7
0.11167	-9
0.11533	-10
0.11900	-12
0.12267	-11
0.12633	-4
0.13000	3
0.13367	7
0.13733	7
0.14100	8
0.14467	15
0.14833	19
0.15200	22
0.15567	25
0.15933	30
0.16300	33
0.16667	33
0.17033	33
0.17400	36
0.17767	41
0.18133	46
0.18500	45
0.18867	38
0.19233	30
0.19600	28
0.19967	28
0.20333	27
0.20700	26
0.21067	25
0.21433	29
0.21800	34
0.22167	37
0.22533	35
0.22900	28
0.23267	19
0.23633	13
0.24000	9
0.24367	8
0.24733	11
0.25100	11
0.25467	16
0.25833	20
0.26200	24
0.26567	24
0.26933	25
0.27300	25
0.27667	24
0.28033	24
0.28400	25
0.28767	25
0.29133	25
0.29500	28
0.29867	29
0.30233	26
0.30600	21
0.30967	17
0.31333	21
0.31700	29
0.32067	35
0.32433	34
0.32800	31
0.33167	30
0.33533	33
0.33900	38
0.34267	41
0.34633	40
0.35000	40
0.35367	43
0.35733	46
0.36100	48
0.36467	43
0.36833	38
0.37200	39
0.37567	42
0.37933	48
0.38300	55
0.38667	57
0.39033	51
0.39400	44
0.39767	38
0.40133	35
0.40500	37
0.40867	42
0.41233	44
0.41600	44
0.41967	44
0.42333	44
0.42700	44
0.43067	42
0.43433	38
0.43800	36
0.44167	35
0.44533	35
0.44900	34
0.45267	33
0.45633	31
0.46000	29
0.46367	30
0.46733	30
0.47100	30
0.47467	31
0.47833	34
0.48200	39
0.48567	43
0.48933	42
0.49300	37
0.49667	33
0.50033	30
0.50400	27
0.50767	25
0.51133	26
0.51500	30
0.51867	32
0.52233	29
0.52600	24
0.52967	24
0.53333	28
0.53700	36
0.54067	44
0.54433	52
0.54800	60
0.55167	63
0.55533	59
0.55900	50
0.56267	40
0.56633	30
0.57000	23
0.57367	18
0.57733	16
0.58100	15
0.58467	10
0.58833	6
0.59200	3
0.59567	3
0.59933	6
0.60300	11
0.60667	16
0.61033	20
0.61400	21
0.61767	21
0.62133	22
0.62500	26
0.62867	30
0.63233	36
0.63600	39
0.63967	39
0.64333	38
0.64700	36
0.65067	33
0.65433	31
0.65800	35
0.66167	37
0.66533	38
0.66900	39
0.67267	38
0.67633	38
0.68000	36
0.68367	37
0.68733	40
0.69100	45
0.69467	49
0.69833	48
0.70200	44
0.70567	40
0.70933	37
0.71300	35
0.71667	31
0.72033	30
0.72400	28
0.72767	25
0.73133	22
0.73500	18
0.73867	15
0.74233	16
0.74600	16
0.74967	15
0.75333	14
0.75700	15
0.76067	20
0.76433	24
0.76800	25
0.77167	25
0.77533	24
0.77900	25
0.78267	28
0.78633	36
0.79000	43
0.79367	45
0.79733	42
0.80100	35
0.80467	30
0.80833	29
0.81200	29
0.81567	27
0.81933	21
0.82300	11
0.82667	-0
0.83033	-5
0.83400	-3
0.83767	3
0.84133	10
0.84500	16
0.84867	23
0.85233	25
0.85600	22
0.85967	17
0.86333	13
0.86700	11
0.87067	12
0.87433	16
0.87800	22
0.88167	27
0.88533	32
0.88900	35
0.89267	33
0.89633	26
0.90000	16
0.90367	11
0.90733	7
0.91100	4
0.91467	4
0.91833	9
0.92200	17
0.92567	26
0.92933	34
0.93300	38
0.93667	42
0.94033	40
0.94400	33
0.94767	25
0.95133	20
0.95500	17
0.95867	14
0.96233	11
0.96600	11
0.96967	13
0.97333	17
0.97700	19
0.98067	15
0.98433	9
0.98800	3
0.99167	1
0.99533	-2
0.99900	-3
1.00267	-2
1.00633	2
1.01000	8
1.01367	13
1.01733	15
1.02100	15
1.02467	14
1.02833	14
1.03200	16
1.03567	22
1.03933	20
1.04300	12
1.04667	5
1.05033	3
1.05400	7
1.05767	9
1.06133	13
1.06500	19
1.06867	24
1.07233	28
1.07600	28
1.07967	31
1.08333	34
1.08700	30
1.09067	25
1.09433	18
1.09800	11
1.10167	9
1.10533	10
1.10900	11
1.11267	8
1.11633	3
1.12000	0
1.12367	2
1.12733	7
1.13100	13
1.13467	16
1.13833	19
1.14200	19
1.14567	18
1.14933	13
1.15300	5
1.15667	1
1.16033	-2
1.16400	-4
1.16767	-9
1.17133	-13
1.17500	-14
1.17867	-17
1.18233	-21
1.18600	-23
1.18967	-22
1.19333	-21
1.19700	-17
1.20067	-7
1.20433	3
1.20800	9
1.21167	9
1.21533	6
1.21900	6
1.22267	7
1.22633	5
1.23000	3
1.23367	5
1.23733	9
1.24100	10
1.24467	5
1.24833	2
1.25200	-1
1.25567	-3
1.25933	-3
1.26300	-1
1.26667	-1
1.27033	-1
1.27400	-3
1.27767	-4
1.28133	-1
1.28500	2
1.28867	2
1.29233	2
1.29600	-1
1.29967	-6
1.30333	-9
1.30700	-10
1.31067	-5
1.31433	2
1.31800	9
1.32167	19
1.32533	28
1.32900	37
1.33267	42
1.33633	43
1.34000	35
1.34367	25
1.34733	17
1.35100	11
1.35467	12
1.35833	20
1.36200	32
1.36567	42
1.36933	43
1.37300	39
1.37667	34
1.38033	30
1.38400	27
1.38767	26
1.39133	22
1.39500	18
1.39867	14
1.40233	14
1.40600	19
1.40967	22
1.41333	24
1.41700	26
1.42067	25
1.42433	26
1.42800	31
1.43167	36
1.43533	38
1.43900	56
1.44267	138
1.44633	347
1.45000	834
1.45367	1962
1.45733	3893
1.46100	6285
1.46467	8616
1.46833	10546
1.47200	11918
1.47567	12615
1.47933	12526
1.48300	11627
1.48667	10077
1.49033	8202
1.49400	6347
1.49767	4738
1.50133	3460
1.50500	2506
1.50867	1821
1.51233	1339
1.51600	1002
1.51967	772
1.52333	615
1.52700	505
1.53067	426
1.53433	370
1.53800	335
1.54167	353
1.54533	483
1.54900	762
1.55267	1156
1.55633	1572
1.56000	1929
1.56367	2190
1.56733	2329
1.57100	2327
1.57467	2168
1.57833	1878
1.58200	1522
1.58567	1173
1.58933	876
1.59300	645
1.59667	471
1.60033	346
1.60400	256
1.60767	192
1.61133	152
1.61500	125
1.61867	105
1.62233	90
1.62600	77
1.62967	71
1.63333	73
1.63700	75
1.64067	72
1.64433	65
1.64800	61
1.65167	55
1.65533	47
1.65900	40
1.66267	34
1.66633	33
1.67000	35
1.67367	39
1.67733	45
1.68100	53
1.68467	60
1.68833	66
1.69200	72
1.69567	79
1.69933	84
1.70300	88
1.70667	89
1.71033	82
1.71400	71
1.71767	60
1.72133	49
1.72500	36
1.72867	25
1.73233	18
1.73600	16
1.73967	19
1.74333	22
1.74700	24
1.75067	25
1.75433	26
1.75800	29
1.76167	33
1.76533	38
1.76900	44
1.77267	52
1.77633	60
1.78000	64
1.78367	67
1.78733	67
1.79100	61
1.79467	51
1.79833	45
1.80200	41
1.80567	41
1.80933	41
1.81300	43
1.81667	46
1.82033	49
1.82400	53
1.82767	56
1.83133	57
1.83500	56
1.83867	53
1.84233	52
1.84600	52
1.84967	52
1.85333	48
1.85700	46
1.86067	46
1.86433	47
1.86800	43
1.87167	36
1.87533	32
1.87900	33
1.88267	33
1.88633	32
1.89000	33
1.89367	37
1.89733	42
1.90100	49
1.90467	56
1.90833	60
1.91200	58
1.91567	56
1.91933	59
1.92300	64
1.92667	64
1.93033	61
1.93400	63
1.93767	65
1.94133	66
1.94500	64
1.94867	61
1.95233	68
1.95600	138
1.95967	577
1.96333	2681
1.96700	10314
1.97067	31490
1.97433	77138
1.97800	154455
1.98167	259420
1.98533	376383
1.98900	485310
1.99267	568883
1.99633	614752
2.00000	616882
2.00367	576741
2.00733	503865
2.01100	413474
2.01467	321361
2.01833	239116
2.02200	172353
2.02567	121755
2.02933	85219
2.03300	59689
2.03667	42214
2.04033	30379
2.04400	22385
2.04767	16967
2.05133	13258
2.05500	10678
2.05867	8843
2.06233	7510
2.06600	6518
2.06967	5760
2.07333	5173
2.07700	4705
2.08067	4317
2.08433	3986
2.08800	3701
2.09167	3451
2.09533	3232
2.09900	3036
2.10267	2859
2.10633	2698
2.11000	2557
2.11367	2435
2.11733	2327
2.12100	2230
2.12467	2136
2.12833	2047
2.13200	1968
2.13567	1895
2.13933	1828
2.14300	1767
2.14667	1711
2.15033	1656
2.15400	1601
2.15767	1546
2.16133	1493
2.16500	1446
2.16867	1398
2.17233	1351
2.17600	1306
2.17967	1266
2.18333	1235
2.18700	1212
2.19067	1192
2.19433	1171
2.19800	1146
2.20167	1117
2.20533	1088
2.20900	1064
2.21267	1044
2.21633	1030
2.22000	1014
2.22367	992
2.22733	964
2.23100	938
2.23467	917
2.23833	902
2.24200	895
2.24567	884
2.24933	868
2.25300	852
2.25667	836
2.26033	820
2.26400	805
2.26767	789
2.27133	777
2.27500	765
2.27867	754
2.28233	743
2.28600	733
2.28967	721
2.29333	711
2.29700	701
2.30067	689
2.30433	677
2.30800	667
2.31167	657
2.31533	644
2.31900	636
2.32267	630
2.32633	621
2.33000	612
2.33367	604
2.33733	598
2.34100	597
2.34467	596
2.34833	593
2.35200	588
2.35567	585
2.35933	586
2.36300	582
2.36667	575
2.37033	569
2.37400	566
2.37767	567
2.38133	566
2.38500	557
2.38867	549
2.39233	542
2.39600	538
2.39967	538
2.40333	537
2.40700	532
2.41067	527
2.41433	526
2.41800	525
2.42167	520
2.42533	510
2.42900	501
2.43267	498
2.43633	499
2.44000	499
2.44367	499
2.44733	499
2.45100	499
2.45467	498
2.45833	497
2.46200	496
2.46567	489
2.46933	484
2.47300	481
2.47667	475
2.48033	467
2.48400	459
2.48767	451
2.49133	445
2.49500	442
2.49867	445
2.50233	449
2.50600	452
2.50967	453
2.51333	455
2.51700	457
2.52067	455
2.52433	455
2.52800	456
2.53167	457
2.53533	455
2.53900	453
2.54267	454
2.54633	455
2.55000	453
2.55367	447
2.55733	440
2.56100	433
2.56467	423
2.56833	414
2.57200	412
2.57567	416
2.57933	424
2.58300	430
2.58667	436
2.59033	441
2.59400	438
2.59767	435
2.60133	438
2.60500	443
2.60867	443
2.61233	438
2.61600	430
2.61967	416
2.62333	399
2.62700	386
2.63067	377
2.63433	373
2.63800	369
2.64167	366
2.64533	364
2.64900	363
2.65267	363
2.65633	365
2.66000	370
2.66367	374
2.66733	378
2.67100	383
2.67467	389
2.67833	392
2.68200	394
2.68567	398
2.68933	409
2.69300	419
2.69667	422
2.70033	416
2.70400	409
2.70767	404
2.71133	401
2.71500	401
2.71867	401
2.72233	404
2.72600	403
2.72967	401
2.73333	398
2.73700	395
2.74067	397
2.74433	406
2.74800	416
2.75167	422
2.75533	416
2.75900	405
2.76267	395
2.76633	389
2.77000	387
2.77367	390
2.77733	396
2.78100	403
2.78467	408
2.78833	411
2.79200	409
2.79567	405
2.79933	402
2.80300	400
2.80667	398
2.81033	398
2.81400	403
2.81767	412
2.82133	421
2.82500	427
2.82867	429
2.83233	428
2.83600	423
2.83967	418
2.84333	418
2.84700	424
2.85067	433
2.85433	437
2.85800	435
2.86167	428
2.86533	421
2.86900	412
2.87267	402
2.87633	394
2.88000	390
2.88367	391
2.88733	392
2.89100	394
2.89467	398
2.89833	403
2.90200	404
2.90567	404
2.90933	403
2.91300	399
2.91667	395
2.92033	393
2.92400	395
2.92767	397
2.93133	399
2.93500	403
2.93867	408
2.94233	409
2.94600	407
2.94967	403
2.95333	401
2.95700	401
2.96067	407
2.96433	411
2.96800	413
2.97167	412
2.97533	410
2.97900	407
2.98267	407
2.98633	408
2.99000	412
2.99367	418
2.99733	426
3.00100	430
3.00467	430
3.00833	428
3.01200	425
3.01567	422
3.01933	419
3.02300	415
3.02667	409
3.03033	402
3.03400	401
3.03767	399
3.04133	392
3.04500	383
3.04867	380
3.05233	378
3.05600	377
3.05967	382
3.06333	389
3.06700	397
3.07067	404
3.07433	410
3.07800	410
3.08167	409
3.08533	407
3.08900	403
3.09267	399
3.09633	395
3.10000	391
3.10367	391
3.10733	395
3.11100	401
3.11467	403
3.11833	402
3.12200	400
3.12567	396
3.12933	389
3.13300	382
3.13667	377
3.14033	376
3.14400	378
3.14767	381
3.15133	380
3.15500	376
3.15867	381
3.16233	394
3.16600	406
3.16967	415
3.17333	415
3.17700	404
3.18067	394
3.18433	388
3.18800	388
3.19167	390
3.19533	392
3.19900	392
3.20267	393
3.20633	397
3.21000	405
3.21367	410
3.21733	411
3.22100	405
3.22467	394
3.22833	384
3.23200	375
3.23567	371
3.23933	371
3.24300	371
3.24667	374
3.25033	375
3.25400	376
3.25767	375
3.26133	373
3.26500	373
3.26867	379
3.27233	388
3.27600	396
3.27967	402
3.28333	400
3.28700	393
3.29067	387
3.29433	383
3.29800	381
3.30167	377
3.30533	374
3.30900	373
3.31267	373
3.31633	369
3.32000	364
3.32367	367
3.32733	375
3.33100	382
3.33467	387
3.33833	387
3.34200	383
3.34567	378
3.34933	371
3.35300	367
3.35667	363
3.36033	360
3.36400	359
3.36767	364
3.37133	368
3.37500	370
3.37867	369
3.38233	363
3.38600	356
3.38967	350
3.39333	351
3.39700	357
3.40067	363
3.40433	365
3.40800	365
3.41167	366
3.41533	363
3.41900	357
3.42267	354
3.42633	355
3.43000	353
3.43367	350
3.43733	349
3.44100	353
3.44467	358
3.44833	360
3.45200	358
3.45567	354
3.45933	354
3.46300	355
3.46667	357
3.47033	357
3.47400	355
3.47767	352
3.48133	348
3.48500	345
3.48867	343
3.49233	346
3.49600	348
3.49967	347
3.50333	350
3.50700	358
3.51067	365
3.51433	364
3.51800	355
3.52167	347
3.52533	340
3.52900	334
3.53267	332
3.53633	340
3.54000	351
3.54367	352
3.54733	345
3.55100	335
3.55467	329
3.55833	325
3.56200	323
3.56567	321
3.56933	321
3.57300	323
3.57667	324
3.58033	325
3.58400	325
3.58767	324
3.59133	326
3.59500	330
3.59867	335
3.60233	340
3.60600	340
3.60967	335
3.61333	331
3.61700	330
3.62067	329
3.62433	327
3.62800	328
3.63167	332
3.63533	337
3.63900	338
3.64267	332
3.64633	321
3.65000	312
3.65367	306
3.65733	302
3.66100	306
3.66467	311
3.66833	311
3.67200	310
3.67567	308
3.67933	308
3.68300	307
3.68667	307
3.69033	309
3.69400	310
3.69767	309
3.70133	304
3.70500	299
3.70867	299
3.71233	304
3.71600	308
3.71967	309
3.72333	310
3.72700	310
3.73067	310
3.73433	311
3.73800	312
3.74167	312
3.74533	313
3.74900	315
3.75267	313
3.75633	306
3.76000	302
3.76367	301
3.76733	299
3.77100	301
3.77467	304
3.77833	302
3.78200	296
3.78567	292
3.78933	293
3.79300	295
3.79667	297
3.80033	298
3.80400	296
3.80767	293
3.81133	291
3.81500	290
3.81867	291
3.82233	289
3.82600	284
3.82967	275
3.83333	269
3.83700	267
3.84067	269
3.84433	273
3.84800	278
3.85167	281
3.85533	285
3.85900	290
3.86267	297
3.86633	303
3.87000	302
3.87367	297
3.87733	289
3.88100	278
3.88467	266
3.88833	258
3.89200	253
3.89567	250
3.89933	248
3.90300	247
3.90667	248
3.91033	252
3.91400	262
3.91767	276
3.92133	284
3.92500	289
3.92867	289
3.93233	284
3.93600	280
3.93967	277
3.94333	270
3.94700	259
3.95067	248
3.95433	238
3.95800	232
3.96167	231
3.96533	231
3.96900	232
3.97267	232
3.97633	231
3.98000	232
3.98367	237
3.98733	245
3.99100	251
3.99467	255
3.99833	260

[Chromatogram (Ch2)]
Interval(msec)	220
# of Points	1091
Start Time(min)	0.002
End Time(min)	3.998
R.Time (min)	Intensity
0.00167	0
0.00533	0
0.00900	1
0.01267	1
0.01633	1
0.02000	1
0.02367	1
0.02733	0
0.03100	0
0.03467	-0
0.03833	-0
0.04200	-1
0.04567	-1
0.04933	-1
0.05300	-1
0.05667	-2
0.06033	-2
0.06400	-2
0.06767	-2
0.07133	-3
0.07500	-3
0.07867	-3
0.08233	-2
0.08600	-2
0.08967	-2
0.09333	-2
0.09700	-1
0.10067	-1
0.10433	-1
0.10800	-1
0.11167	-2
0.11533	-2
0.11900	-2
0.12267	-2
0.12633	-3
0.13000	-3
0.13367	-3
0.13733	-4
0.14100	-4
0.14467	-4
0.14833	-4
0.15200	-4
0.15567	-4
0.15933	-4
0.16300	-4
0.16667	-4
0.17033	-3
0.17400	-3
0.17767	-3
0.18133	-3
0.18500	-3
0.18867	-3
0.19233	-3
0.19600	-3
0.19967	-3
0.20333	-3
0.20700	-2
0.21067	-2
0.21433	-2
0.21800	-2
0.22167	-3
0.22533	-3
0.22900	-3
0.23267	-3
0.23633	-2
0.24000	-3
0.24367	-3
0.24733	-3
0.25100	-3
0.25467	-3
0.25833	-3
0.26200	-3
0.26567	-3
0.26933	-3
0.27300	-3
0.27667	-3
0.28033	-3
0.28400	-3
0.28767	-3
0.29133	-3
0.29500	-2
0.29867	-2
0.30233	-2
0.30600	-2
0.30967	-3
0.31333	-3
0.31700	-3
0.32067	-2
0.32433	-2
0.32800	-2
0.33167	-2
0.33533	-1
0.33900	-1
0.34267	-1
0.34633	-0
0.35000	-0
0.35367	-1
0.35733	-1
0.36100	-2
0.36467	-2
0.36833	-3
0.37200	-3
0.37567	-3
0.37933	-4
0.38300	-4
0.38667	-4
0.39033	-4
0.39400	-4
0.39767	-4
0.40133	-5
0.40500	-5
0.40867	-5
0.41233	-5
0.41600	-4
0.41967	-4
0.42333	-4
0.42700	-3
0.43067	-3
0.43433	-3
0.43800	-3
0.44167	-3
0.44533	-2
0.44900	-2
0.45267	-2
0.45633	-3
0.46000	-3
0.46367	-2
0.46733	-2
0.47100	-2
0.47467	-3
0.47833	-3
0.48200	-2
0.48567	-2
0.48933	-2
0.49300	-2
0.49667	-2
0.50033	-1
0.50400	-1
0.50767	-1
0.51133	-1
0.51500	-1
0.51867	-1
0.52233	-1
0.52600	-2
0.52967	-2
0.53333	-2
0.53700	-2
0.54067	-2
0.54433	-2
0.54800	-2
0.55167	-2
0.55533	-3
0.55900	-3
0.56267	-3
0.56633	-3
0.57000	-3
0.57367	-3
0.57733	-3
0.58100	-3
0.58467	-3
0.58833	-2
0.59200	-2
0.59567	-2
0.59933	-1
0.60300	-1
0.60667	-1
0.61033	-0
0.61400	-0
0.61767	0
0.62133	0
0.62500	1
0.62867	1
0.63233	1
0.63600	1
0.63967	1
0.64333	0
0.64700	0
0.65067	0
0.65433	0
0.65800	0
0.66167	-0
0.66533	-0
0.66900	-1
0.67267	-1
0.67633	-1
0.68000	-2
0.68367	-2
0.68733	-2
0.69100	-2
0.69467	-2
0.69833	-2
0.70200	-2
0.70567	-2
0.70933	-2
0.71300	-2
0.71667	-2
0.72033	-2
0.72400	-2
0.72767	-2
0.73133	-2
0.73500	-2
0.73867	-2
0.74233	-2
0.74600	-3
0.74967	-3
0.75333	-3
0.75700	-3
0.76067	-2
0.76433	-2
0.76800	-1
0.77167	-1
0.77533	-1
0.77900	-0
0.78267	-0
0.78633	-0
0.79000	-0
0.79367	-0
0.79733	-0
0.80100	-0
0.80467	-0
0.80833	-1
0.81200	-1
0.81567	-1
0.81933	-1
0.82300	-2
0.82667	-2
0.83033	-2
0.83400	-3
0.83767	-3
0.84133	-3
0.84500	-3
0.84867	-4
0.85233	-4
0.85600	-4
0.85967	-5
0.86333	-5
0.86700	-5
0.87067	-6
0.87433	-7
0.87800	-7
0.88167	-8
0.88533	-8
0.88900	-9
0.89267	-9
0.89633	-9
0.90000	-8
0.90367	-8
0.90733	-8
0.91100	-7
0.91467	-7
0.91833	-6
0.92200	-6
0.92567	-6
0.92933	-5
0.93300	-5
0.93667	-4
0.94033	-4
0.94400	-4
0.94767	-3
0.95133	-3
0.95500	-3
0.95867	-2
0.96233	-2
0.96600	-2
0.96967	-2
0.97333	-2
0.97700	-2
0.98067	-3
0.98433	-3
0.98800	-3
0.99167	-3
0.99533	-4
0.99900	-4
1.00267	-4
1.00633	-4
1.01000	-4
1.01367	-4
1.01733	-4
1.02100	-4
1.02467	-4
1.02833	-4
1.03200	-4
1.03567	-4
1.03933	-4
1.04300	-4
1.04667	-4
1.05033	-4
1.05400	-3
1.05767	-3
1.06133	-3
1.06500	-2
1.06867	-2
1.07233	-2
1.07600	-2
1.07967	-2
1.08333	-2
1.08700	-3
1.09067	-3
1.09433	-3
1.09800	-3
1.10167	-3
1.10533	-3
1.10900	-3
1.11267	-3
1.11633	-3
1.12000	-3
1.12367	-3
1.12733	-3
1.13100	-4
1.13467	-4
1.13833	-4
1.14200	-4
1.14567	-5
1.14933	-5
1.15300	-6
1.15667	-6
1.16033	-6
1.16400	-6
1.16767	-7
1.17133	-7
1.17500	-7
1.17867	-7
1.18233	-6
1.18600	-6
1.18967	-6
1.19333	-5
1.19700	-5
1.20067	-5
1.20433	-5
1.20800	-5
1.21167	-5
1.21533	-4
1.21900	-4
1.22267	-4
1.22633	-4
1.23000	-4
1.23367	-4
1.23733	-4
1.24100	-4
1.24467	-4
1.24833	-4
1.25200	-4
1.25567	-4
1.25933	-4
1.26300	-4
1.26667	-4
1.27033	-4
1.27400	-4
1.27767	-4
1.28133	-4
1.28500	-4
1.28867	-4
1.29233	-4
1.29600	-4
1.29967	-4
1.30333	-4
1.30700	-4
1.31067	-4
1.31433	-5
1.31800	-5
1.32167	-5
1.32533	-4
1.32900	-4
1.33267	-4
1.33633	-3
1.34000	-3
1.34367	-3
1.34733	-3
1.35100	-3
1.35467	-3
1.35833	-3
1.36200	-3
1.36567	-4
1.36933	-4
1.37300	-4
1.37667	-4
1.38033	-4
1.38400	-4
1.38767	-4
1.39133	-4
1.39500	-4
1.39867	-4
1.40233	-3
1.40600	-3
1.40967	-3
1.41333	-2
1.41700	-2
1.42067	-2
1.42433	-2
1.42800	-2
1.43167	-2
1.43533	-2
1.43900	-1
1.44267	-1
1.44633	-1
1.45000	-1
1.45367	-1
1.45733	-0
1.46100	-1
1.46467	-1
1.46833	-1
1.47200	-1
1.47567	-1
1.47933	-2
1.48300	-2
1.48667	-2
1.49033	-2
1.49400	-2
1.49767	-2
1.50133	-2
1.50500	-2
1.50867	-2
1.51233	-2
1.51600	-2
1.51967	-2
1.52333	-2
1.52700	-2
1.53067	-2
1.53433	-2
1.53800	-2
1.54167	-3
1.54533	-3
1.54900	-3
1.55267	-4
1.55633	-4
1.56000	-5
1.56367	-5
1.56733	-5
1.57100	-5
1.57467	-5
1.57833	-5
1.58200	-5
1.58567	-5
1.58933	-4
1.59300	-5
1.59667	-5
1.60033	-6
1.60400	-7
1.60767	-8
1.61133	-10
1.61500	-13
1.61867	-16
1.62233	-19
1.62600	-23
1.62967	-26
1.63333	-30
1.63700	-33
1.64067	-37
1.64433	-41
1.64800	-44
1.65167	-48
1.65533	-52
1.65900	-55
1.66267	-59
1.66633	-63
1.67000	-67
1.67367	-72
1.67733	-76
1.68100	-80
1.68467	-85
1.68833	-89
1.69200	-93
1.69567	-97
1.69933	-99
1.70300	-102
1.70667	-104
1.71033	-105
1.71400	-106
1.71767	-107
1.72133	-108
1.72500	-109
1.72867	-111
1.73233	-111
1.73600	-112
1.73967	-113
1.74333	-113
1.74700	-114
1.75067	-114
1.75433	-114
1.75800	-114
1.76167	-114
1.76533	-113
1.76900	-113
1.77267	-112
1.77633	-112
1.78000	-112
1.78367	-112
1.78733	-112
1.79100	-113
1.79467	-114
1.79833	-116
1.80200	-117
1.80567	-118
1.80933	-118
1.81300	-118
1.81667	-118
1.82033	-118
1.82400	-118
1.82767	-118
1.83133	-118
1.83500	-118
1.83867	-118
1.84233	-117
1.84600	-117
1.84967	-117
1.85333	-117
1.85700	-118
1.86067	-118
1.86433	-119
1.86800	-119
1.87167	-119
1.87533	-119
1.87900	-119
1.88267	-118
1.88633	-118
1.89000	-117
1.89367	-116
1.89733	-116
1.90100	-116
1.90467	-116
1.90833	-116
1.91200	-116
1.91567	-116
1.91933	-116
1.92300	-116
1.92667	-116
1.93033	-116
1.93400	-116
1.93767	-116
1.94133	-115
1.94500	-115
1.94867	-115
1.95233	-115
1.95600	-114
1.95967	-114
1.96333	-114
1.96700	-114
1.97067	-113
1.97433	-113
1.97800	-113
1.98167	-113
1.98533	-113
1.98900	-113
1.99267	-113
1.99633	-113
2.00000	-113
2.00367	-113
2.00733	-112
2.01100	-111
2.01467	-111
2.01833	-110
2.02200	-109
2.02567	-109
2.02933	-108
2.03300	-108
2.03667	-108
2.04033	-108
2.04400	-107
2.04767	-107
2.05133	-106
2.05500	-105
2.05867	-104
2.06233	-104
2.06600	-103
2.06967	-102
2.07333	-102
2.07700	-102
2.08067	-102
2.08433	-102
2.08800	-102
2.09167	-102
2.09533	-102
2.09900	-102
2.10267	-101
2.10633	-101
2.11000	-102
2.11367	-102
2.11733	-102
2.12100	-102
2.12467	-101
2.12833	-101
2.13200	-100
2.13567	-99
2.13933	-99
2.14300	-98
2.14667	-98
2.15033	-98
2.15400	-98
2.15767	-98
2.16133	-98
2.16500	-98
2.16867	-98
2.17233	-98
2.17600	-98
2.17967	-98
2.18333	-97
2.18700	-97
2.19067	-96
2.19433	-96
2.19800	-95
2.20167	-95
2.20533	-95
2.20900	-95
2.21267	-94
2.21633	-94
2.22000	-94
2.22367	-94
2.22733	-93
2.23100	-92
2.23467	-92
2.23833	-91
2.24200	-90
2.24567	-90
2.24933	-90
2.25300	-89
2.25667	-89
2.26033	-88
2.26400	-88
2.26767	-88
2.27133	-88
2.27500	-88
2.27867	-88
2.28233	-88
2.28600	-88
2.28967	-87
2.29333	-87
2.29700	-86
2.30067	-86
2.30433	-86
2.30800	-86
2.31167	-86
2.31533	-86
2.31900	-86
2.32267	-85
2.32633	-84
2.33000	-83
2.33367	-82
2.33733	-82
2.34100	-81
2.34467	-80
2.34833	-79
2.35200	-79
2.35567	-77
2.35933	-76
2.36300	-75
2.36667	-73
2.37033	-70
2.37400	-68
2.37767	-64
2.38133	-61
2.38500	-57
2.38867	-53
2.39233	-49
2.39600	-45
2.39967	-40
2.40333	-36
2.40700	-32
2.41067	-29
2.41433	-27
2.41800	-25
2.42167	-23
2.42533	-22
2.42900	-20
2.43267	-19
2.43633	-17
2.44000	-16
2.44367	-14
2.44733	-13
2.45100	-12
2.45467	-11
2.45833	-10
2.46200	-9
2.46567	-8
2.46933	-6
2.47300	-5
2.47667	-3
2.48033	-1
2.48400	0
2.48767	2
2.49133	3
2.49500	4
2.49867	5
2.50233	6
2.50600	7
2.50967	8
2.51333	9
2.51700	10
2.52067	10
2.52433	11
2.52800	11
2.53167	11
2.53533	12
2.53900	12
2.54267	12
2.54633	13
2.55000	13
2.55367	13
2.55733	13
2.56100	13
2.56467	14
2.56833	14
2.57200	14
2.57567	13
2.57933	13
2.58300	13
2.58667	13
2.59033	13
2.59400	13
2.59767	13
2.60133	13
2.60500	14
2.60867	14
2.61233	14
2.61600	13
2.61967	13
2.62333	13
2.62700	13
2.63067	13
2.63433	13
2.63800	13
2.64167	14
2.64533	14
2.64900	15
2.65267	16
2.65633	16
2.66000	17
2.66367	18
2.66733	19
2.67100	19
2.67467	19
2.67833	20
2.68200	20
2.68567	20
2.68933	21
2.69300	21
2.69667	21
2.70033	22
2.70400	22
2.70767	22
2.71133	22
2.71500	21
2.71867	21
2.72233	21
2.72600	21
2.72967	21
2.73333	21
2.73700	21
2.74067	21
2.74433	21
2.74800	21
2.75167	22
2.75533	22
2.75900	22
2.76267	22
2.76633	23
2.77000	23
2.77367	23
2.77733	24
2.78100	24
2.78467	25
2.78833	25
2.79200	26
2.79567	26
2.79933	26
2.80300	26
2.80667	26
2.81033	26
2.81400	25
2.81767	25
2.82133	25
2.82500	24
2.82867	24
2.83233	23
2.83600	22
2.83967	20
2.84333	17
2.84700	13
2.85067	6
2.85433	-4
2.85800	-17
2.86167	-35
2.86533	-56
2.86900	-81
2.87267	-111
2.87633	-145
2.88000	-183
2.88367	-225
2.88733	-269
2.89100	-317
2.89467	-366
2.89833	-417
2.90200	-470
2.90567	-523
2.90933	-577
2.91300	-631
2.91667	-684
2.92033	-737
2.92400	-789
2.92767	-839
2.93133	-891
2.93500	-948
2.93867	-1007
2.94233	-1061
2.94600	-1098
2.94967	-1110
2.95333	-1096
2.95700	-1059
2.96067	-1002
2.96433	-932
2.96800	-855
2.97167	-774
2.97533	-693
2.97900	-616
2.98267	-543
2.98633	-475
2.99000	-414
2.99367	-359
2.99733	-310
3.00100	-266
3.00467	-228
3.00833	-194
3.01200	-165
3.01567	-140
3.01933	-119
3.02300	-100
3.02667	-84
3.03033	-70
3.03400	-59
3.03767	-49
3.04133	-40
3.04500	-33
3.04867	-27
3.05233	-21
3.05600	-17
3.05967	-13
3.06333	-10
3.06700	-7
3.07067	-4
3.07433	-2
3.07800	0
3.08167	2
3.08533	4
3.08900	5
3.09267	6
3.09633	8
3.10000	9
3.10367	10
3.10733	10
3.11100	11
3.11467	12
3.11833	12
3.12200	12
3.12567	13
3.12933	13
3.13300	13
3.13667	14
3.14033	14
3.14400	15
3.14767	15
3.15133	15
3.15500	15
3.15867	15
3.16233	15
3.16600	15
3.16967	16
3.17333	16
3.17700	16
3.18067	17
3.18433	17
3.18800	17
3.19167	18
3.19533	18
3.19900	18
3.20267	19
3.20633	19
3.21000	19
3.21367	19
3.21733	19
3.22100	19
3.22467	20
3.22833	20
3.23200	20
3.23567	21
3.23933	21
3.24300	21
3.24667	21
3.25033	21
3.25400	21
3.25767	21
3.26133	21
3.26500	21
3.26867	21
3.27233	22
3.27600	22
3.27967	22
3.28333	22
3.28700	23
3.29067	23
3.29433	23
3.29800	23
3.30167	24
3.30533	24
3.30900	24
3.31267	24
3.31633	25
3.32000	25
3.32367	25
3.32733	25
3.33100	25
3.33467	25
3.33833	26
3.34200	26
3.34567	26
3.34933	26
3.35300	26
3.35667	26
3.36033	26
3.36400	26
3.36767	26
3.37133	25
3.37500	25
3.37867	25
3.38233	25
3.38600	25
3.38967	25
3.39333	25
3.39700	25
3.40067	25
3.40433	24
3.40800	24
3.41167	24
3.41533	25
3.41900	25
3.42267	25
3.42633	25
3.43000	25
3.43367	25
3.43733	25
3.44100	25
3.44467	25
3.44833	24
3.45200	24
3.45567	24
3.45933	24
3.46300	24
3.46667	24
3.47033	24
3.47400	24
3.47767	24
3.48133	24
3.48500	24
3.48867	24
3.49233	24
3.49600	25
3.49967	25
3.50333	25
3.50700	25
3.51067	25
3.51433	25
3.51800	25
3.52167	25
3.52533	25
3.52900	25
3.53267	25
3.53633	25
3.54000	25
3.54367	25
3.54733	24
3.55100	24
3.55467	24
3.55833	24
3.56200	24
3.56567	24
3.56933	25
3.57300	25
3.57667	25
3.58033	25
3.58400	25
3.58767	24
3.59133	24
3.59500	24
3.59867	24
3.60233	24
3.60600	24
3.60967	25
3.61333	25
3.61700	25
3.62067	25
3.62433	25
3.62800	25
3.63167	25
3.63533	25
3.63900	25
3.64267	25
3.64633	25
3.65000	25
3.65367	25
3.65733	25
3.66100	25
3.66467	25
3.66833	25
3.67200	25
3.67567	24
3.67933	24
3.68300	24
3.68667	24
3.69033	24
3.69400	24
3.69767	24
3.70133	24
3.70500	24
3.70867	24
3.71233	24
3.71600	24
3.71967	24
3.72333	24
3.72700	24
3.73067	24
3.73433	24
3.73800	24
3.74167	24
3.74533	24
3.74900	24
3.75267	24
3.75633	24
3.76000	24
3.76367	24
3.76733	24
3.77100	25
3.77467	25
3.77833	25
3.78200	26
3.78567	26
3.78933	26
3.79300	26
3.79667	26
3.80033	26
3.80400	26
3.80767	26
3.81133	26
3.81500	25
3.81867	25
3.82233	25
3.82600	25
3.82967	25
3.83333	25
3.83700	24
3.84067	24
3.84433	24
3.84800	24
3.85167	24
3.85533	24
3.85900	24
3.86267	24
3.86633	24
3.87000	23
3.87367	23
3.87733	24
3.88100	24
3.88467	24
3.88833	24
3.89200	24
3.89567	24
3.89933	24
3.90300	24
3.90667	24
3.91033	24
3.91400	24
3.91767	23
3.92133	23
3.92500	23
3.92867	23
3.93233	23
3.93600	23
3.93967	23
3.94333	23
3.94700	23
3.95067	24
3.95433	24
3.95800	24
3.96167	25
3.96533	25
3.96900	25
3.97267	26
3.97633	26
3.98000	26
3.98367	26
3.98733	26
3.99100	27
3.99467	27
3.99833	27

[Chromatogram (Ch3)]
Interval(msec)	220
# of Points	1091
Start Time(min)	0.002
End Time(min)	3.998
R.Time (min)	Intensity
0.00167	-1
0.00533	-2
0.00900	-4
0.01267	-4
0.01633	-4
0.02000	-3
0.02367	-1
0.02733	-0
0.03100	-1
0.03467	-0
0.03833	0
0.04200	1
0.04567	3
0.04933	2
0.05300	0
0.05667	-0
0.06033	-2
0.06400	-4
0.06767	-5
0.07133	-1
0.07500	2
0.07867	4
0.08233	5
0.08600	4
0.08967	4
0.09333	4
0.09700	4
0.10067	3
0.10433	1
0.10800	0
0.11167	2
0.11533	2
0.11900	3
0.12267	5
0.12633	7
0.13000	5
0.13367	2
0.13733	0
0.14100	1
0.14467	3
0.14833	4
0.15200	3
0.15567	3
0.15933	2
0.16300	-0
0.16667	-2
0.17033	-3
0.17400	-3
0.17767	-4
0.18133	-2
0.18500	-1
0.18867	1
0.19233	2
0.19600	2
0.19967	2
0.20333	3
0.20700	1
0.21067	0
0.21433	-0
0.21800	2
0.22167	4
0.22533	4
0.22900	4
0.23267	3
0.23633	3
0.24000	3
0.24367	4
0.24733	6
0.25100	5
0.25467	3
0.25833	1
0.26200	1
0.26567	1
0.26933	1
0.27300	1
0.27667	2
0.28033	3
0.28400	2
0.28767	3
0.29133	4
0.29500	5
0.29867	5
0.30233	4
0.30600	4
0.30967	3
0.31333	3
0.31700	2
0.32067	0
0.32433	-2
0.32800	-4
0.33167	-4
0.33533	-2
0.33900	-1
0.34267	0
0.34633	0
0.35000	-0
0.35367	1
0.35733	1
0.36100	-0
0.36467	-1
0.36833	-1
0.37200	-2
0.37567	-0
0.37933	3
0.38300	4
0.38667	4
0.39033	5
0.39400	6
0.39767	4
0.40133	2
0.40500	1
0.40867	1
0.41233	2
0.41600	3
0.41967	3
0.42333	3
0.42700	4
0.43067	3
0.43433	5
0.43800	7
0.44167	7
0.44533	8
0.44900	7
0.45267	7
0.45633	7
0.46000	5
0.46367	5
0.46733	5
0.47100	7
0.47467	8
0.47833	8
0.48200	8
0.48567	6
0.48933	3
0.49300	3
0.49667	3
0.50033	1
0.50400	0
0.50767	3
0.51133	5
0.51500	4
0.51867	4
0.52233	6
0.52600	6
0.52967	8
0.53333	7
0.53700	4
0.54067	1
0.54433	3
0.54800	4
0.55167	5
0.55533	4
0.55900	3
0.56267	3
0.56633	5
0.57000	5
0.57367	7
0.57733	7
0.58100	7
0.58467	7
0.58833	7
0.59200	8
0.59567	8
0.59933	9
0.60300	10
0.60667	11
0.61033	10
0.61400	9
0.61767	8
0.62133	7
0.62500	7
0.62867	8
0.63233	7
0.63600	6
0.63967	5
0.64333	5
0.64700	7
0.65067	8
0.65433	6
0.65800	4
0.66167	4
0.66533	6
0.66900	9
0.67267	10
0.67633	10
0.68000	9
0.68367	8
0.68733	6
0.69100	6
0.69467	6
0.69833	6
0.70200	7
0.70567	7
0.70933	10
0.71300	11
0.71667	12
0.72033	10
0.72400	8
0.72767	9
0.73133	10
0.73500	11
0.73867	10
0.74233	12
0.74600	15
0.74967	15
0.75333	14
0.75700	13
0.76067	13
0.76433	11
0.76800	11
0.77167	11
0.77533	9
0.77900	9
0.78267	9
0.78633	9
0.79000	10
0.79367	9
0.79733	9
0.80100	9
0.80467	10
0.80833	12
0.81200	13
0.81567	12
0.81933	12
0.82300	13
0.82667	12
0.83033	10
0.83400	9
0.83767	9
0.84133	11
0.84500	11
0.84867	14
0.85233	16
0.85600	17
0.85967	17
0.86333	16
0.86700	16
0.87067	16
0.87433	16
0.87800	14
0.88167	14
0.88533	13
0.88900	12
0.89267	12
0.89633	15
0.90000	16
0.90367	15
0.90733	15
0.91100	16
0.91467	17
0.91833	16
0.92200	15
0.92567	13
0.92933	12
0.93300	12
0.93667	14
0.94033	15
0.94400	17
0.94767	18
0.95133	16
0.95500	15
0.95867	16
0.96233	16
0.96600	16
0.96967	18
0.97333	20
0.97700	19
0.98067	19
0.98433	20
0.98800	22
0.99167	24
0.99533	26
0.99900	26
1.00267	26
1.00633	26
1.01000	25
1.01367	23
1.01733	21
1.02100	21
1.02467	21
1.02833	19
1.03200	19
1.03567	21
1.03933	21
1.04300	22
1.04667	24
1.05033	26
1.05400	26
1.05767	25
1.06133	24
1.06500	26
1.06867	28
1.07233	26
1.07600	24
1.07967	24
1.08333	25
1.08700	25
1.09067	23
1.09433	21
1.09800	21
1.10167	24
1.10533	26
1.10900	25
1.11267	24
1.11633	24
1.12000	22
1.12367	24
1.12733	26
1.13100	27
1.13467	27
1.13833	28
1.14200	30
1.14567	30
1.14933	28
1.15300	27
1.15667	27
1.16033	27
1.16400	26
1.16767	26
1.17133	26
1.17500	25
1.17867	26
1.18233	28
1.18600	28
1.18967	27
1.19333	26
1.19700	25
1.20067	25
1.20433	25
1.20800	25
1.21167	23
1.21533	22
1.21900	20
1.22267	21
1.22633	23
1.23000	24
1.23367	23
1.23733	23
1.24100	25
1.24467	26
1.24833	27
1.25200	27
1.25567	28
1.25933	27
1.26300	26
1.26667	26
1.27033	27
1.27400	27
1.27767	26
1.28133	26
1.28500	26
1.28867	27
1.29233	25
1.29600	24
1.29967	26
1.30333	28
1.30700	28
1.31067	29
1.31433	30
1.31800	31
1.32167	31
1.32533	31
1.32900	29
1.33267	29
1.33633	26
1.34000	26
1.34367	27
1.34733	28
1.35100	28
1.35467	27
1.35833	28
1.36200	30
1.36567	30
1.36933	32
1.37300	32
1.37667	32
1.38033	31
1.38400	29
1.38767	28
1.39133	28
1.39500	30
1.39867	30
1.40233	29
1.40600	28
1.40967	29
1.41333	31
1.41700	32
1.42067	32
1.42433	33
1.42800	33
1.43167	33
1.43533	33
1.43900	33
1.44267	32
1.44633	31
1.45000	33
1.45367	33
1.45733	37
1.46100	39
1.46467	39
1.46833	40
1.47200	40
1.47567	40
1.47933	39
1.48300	37
1.48667	36
1.49033	35
1.49400	33
1.49767	31
1.50133	32
1.50500	33
1.50867	33
1.51233	34
1.51600	35
1.51967	36
1.52333	36
1.52700	35
1.53067	33
1.53433	34
1.53800	38
1.54167	39
1.54533	39
1.54900	38
1.55267	39
1.55633	39
1.56000	38
1.56367	38
1.56733	37
1.57100	36
1.57467	35
1.57833	34
1.58200	32
1.58567	33
1.58933	34
1.59300	36
1.59667	37
1.60033	39
1.60400	38
1.60767	37
1.61133	37
1.61500	39
1.61867	40
1.62233	40
1.62600	41
1.62967	42
1.63333	43
1.63700	46
1.64067	48
1.64433	49
1.64800	48
1.65167	46
1.65533	44
1.65900	44
1.66267	44
1.66633	44
1.67000	46
1.67367	45
1.67733	45
1.68100	46
1.68467	47
1.68833	49
1.69200	49
1.69567	51
1.69933	53
1.70300	55
1.70667	55
1.71033	53
1.71400	51
1.71767	51
1.72133	51
1.72500	50
1.72867	51
1.73233	54
1.73600	54
1.73967	52
1.74333	52
1.74700	53
1.75067	55
1.75433	56
1.75800	57
1.76167	56
1.76533	56
1.76900	56
1.77267	57
1.77633	57
1.78000	57
1.78367	59
1.78733	58
1.79100	59
1.79467	61
1.79833	60
1.80200	61
1.80567	65
1.80933	67
1.81300	69
1.81667	70
1.82033	72
1.82400	71
1.82767	67
1.83133	64
1.83500	60
1.83867	60
1.84233	61
1.84600	62
1.84967	63
1.85333	64
1.85700	65
1.86067	66
1.86433	67
1.86800	66
1.87167	66
1.87533	67
1.87900	67
1.88267	68
1.88633	69
1.89000	70
1.89367	71
1.89733	72
1.90100	71
1.90467	71
1.90833	72
1.91200	73
1.91567	75
1.91933	76
1.92300	76
1.92667	77
1.93033	81
1.93400	85
1.93767	85
1.94133	84
1.94500	82
1.94867	80
1.95233	78
1.95600	79
1.95967	80
1.96333	81
1.96700	82
1.97067	85
1.97433	86
1.97800	87
1.98167	87
1.98533	88
1.98900	88
1.99267	89
1.99633	90
2.00000	90
2.00367	90
2.00733	92
2.01100	95
2.01467	97
2.01833	98
2.02200	97
2.02567	96
2.02933	95
2.03300	95
2.03667	96
2.04033	98
2.04400	103
2.04767	106
2.05133	106
2.05500	105
2.05867	105
2.06233	105
2.06600	105
2.06967	108
2.07333	107
2.07700	108
2.08067	111
2.08433	113
2.08800	114
2.09167	113
2.09533	114
2.09900	117
2.10267	119
2.10633	120
2.11000	119
2.11367	119
2.11733	119
2.12100	119
2.12467	119
2.12833	121
2.13200	122
2.13567	122
2.13933	124
2.14300	126
2.14667	129
2.15033	133
2.15400	134
2.15767	134
2.16133	132
2.16500	132
2.16867	133
2.17233	134
2.17600	136
2.17967	137
2.18333	137
2.18700	139
2.19067	139
2.19433	138
2.19800	140
2.20167	142
2.20533	144
2.20900	145
2.21267	146
2.21633	147
2.22000	149
2.22367	151
2.22733	154
2.23100	156
2.23467	155
2.23833	157
2.24200	159
2.24567	160
2.24933	161
2.25300	163
2.25667	163
2.26033	165
2.26400	167
2.26767	170
2.27133	171
2.27500	173
2.27867	173
2.28233	174
2.28600	175
2.28967	175
2.29333	176
2.29700	178
2.30067	181
2.30433	183
2.30800	184
2.31167	184
2.31533	185
2.31900	187
2.32267	188
2.32633	191
2.33000	192
2.33367	194
2.33733	197
2.34100	201
2.34467	207
2.34833	211
2.35200	210
2.35567	210
2.35933	211
2.36300	213
2.36667	215
2.37033	216
2.37400	218
2.37767	220
2.38133	222
2.38500	222
2.38867	221
2.39233	220
2.39600	223
2.39967	225
2.40333	228
2.40700	233
2.41067	238
2.41433	241
2.41800	245
2.42167	248
2.42533	251
2.42900	254
2.43267	255
2.43633	256
2.44000	258
2.44367	295
2.44733	394
2.45100	502
2.45467	593
2.45833	650
2.46200	660
2.46567	640
2.46933	609
2.47300	586
2.47667	572
2.48033	565
2.48400	553
2.48767	532
2.49133	506
2.49500	479
2.49867	455
2.50233	433
2.50600	415
2.50967	403
2.51333	398
2.51700	398
2.52067	403
2.52433	413
2.52800	425
2.53167	436
2.53533	448
2.53900	456
2.54267	456
2.54633	449
2.55000	436
2.55367	421
2.55733	406
2.56100	391
2.56467	376
2.56833	363
2.57200	351
2.57567	343
2.57933	336
2.58300	334
2.58667	333
2.59033	330
2.59400	329
2.59767	326
2.60133	319
2.60500	307
2.60867	292
2.61233	275
2.61600	258
2.61967	244
2.62333	230
2.62700	217
2.63067	209
2.63433	206
2.63800	207
2.64167	210
2.64533	216
2.64900	224
2.65267	233
2.65633	243
2.66000	251
2.66367	259
2.66733	265
2.67100	269
2.67467	272
2.67833	274
2.68200	272
2.68567	270
2.68933	266
2.69300	263
2.69667	258
2.70033	256
2.70400	255
2.70767	253
2.71133	250
2.71500	247
2.71867	246
2.72233	243
2.72600	241
2.72967	238
2.73333	240
2.73700	242
2.74067	242
2.74433	243
2.74800	241
2.75167	240
2.75533	241
2.75900	245
2.76267	247
2.76633	248
2.77000	248
2.77367	248
2.77733	247
2.78100	248
2.78467	250
2.78833	249
2.79200	249
2.79567	248
2.79933	247
2.80300	248
2.80667	249
2.81033	250
2.81400	253
2.81767	260
2.82133	276
2.82500	309
2.82867	380
2.83233	510
2.83600	723
2.83967	1037
2.84333	1456
2.84700	1970
2.85067	2555
2.85433	3169
2.85800	3765
2.86167	4292
2.86533	4711
2.86900	4993
2.87267	5128
2.87633	5121
2.88000	4986
2.88367	4753
2.88733	4454
2.89100	4117
2.89467	3761
2.89833	3405
2.90200	3065
2.90567	2747
2.90933	2455
2.91300	2187
2.91667	1943
2.92033	1726
2.92400	1534
2.92767	1364
2.93133	1217
2.93500	1091
2.93867	982
2.94233	887
2.94600	803
2.94967	730
2.95333	666
2.95700	611
2.96067	565
2.96433	527
2.96800	494
2.97167	464
2.97533	438
2.97900	414
2.98267	390
2.98633	369
2.99000	353
2.99367	340
2.99733	326
3.00100	314
3.00467	304
3.00833	299
3.01200	294
3.01567	288
3.01933	282
3.02300	275
3.02667	268
3.03033	261
3.03400	255
3.03767	252
3.04133	247
3.04500	241
3.04867	238
3.05233	234
3.05600	232
3.05967	230
3.06333	226
3.06700	222
3.07067	220
3.07433	218
3.07800	218
3.08167	215
3.08533	212
3.08900	211
3.09267	208
3.09633	205
3.10000	204
3.10367	203
3.10733	202
3.11100	202
3.11467	202
3.11833	200
3.12200	198
3.12567	196
3.12933	195
3.13300	196
3.13667	199
3.14033	199
3.14400	199
3.14767	200
3.15133	200
3.15500	200
3.15867	200
3.16233	199
3.16600	198
3.16967	198
3.17333	197
3.17700	197
3.18067	198
3.18433	199
3.18800	198
3.19167	197
3.19533	195
3.19900	194
3.20267	196
3.20633	197
3.21000	198
3.21367	198
3.21733	197
3.22100	196
3.22467	196
3.22833	199
3.23200	200
3.23567	202
3.23933	202
3.24300	202
3.24667	200
3.25033	199
3.25400	199
3.25767	200
3.26133	200
3.26500	202
3.26867	204
3.27233	204
3.27600	203
3.27967	204
3.28333	204
3.28700	204
3.29067	205
3.29433	206
3.29800	206
3.30167	207
3.30533	206
3.30900	203
3.31267	201
3.31633	201
3.32000	202
3.32367	202
3.32733	202
3.33100	202
3.33467	202
3.33833	202
3.34200	201
3.34567	202
3.34933	204
3.35300	207
3.35667	206
3.36033	206
3.36400	205
3.36767	204
3.37133	201
3.37500	200
3.37867	200
3.38233	201
3.38600	201
3.38967	202
3.39333	202
3.39700	201
3.40067	202
3.40433	204
3.40800	204
3.41167	202
3.41533	203
3.41900	206
3.42267	209
3.42633	212
3.43000	214
3.43367	215
3.43733	215
3.44100	214
3.44467	214
3.44833	216
3.45200	218
3.45567	217
3.45933	219
3.46300	221
3.46667	221
3.47033	221
3.47400	221
3.47767	221
3.48133	221
3.48500	223
3.48867	226
3.49233	227
3.49600	226
3.49967	222
3.50333	219
3.50700	217
3.51067	218
3.51433	218
3.51800	216
3.52167	218
3.52533	222
3.52900	223
3.53267	224
3.53633	227
3.54000	228
3.54367	229
3.54733	231
3.55100	232
3.55467	232
3.55833	233
3.56200	234
3.56567	232
3.56933	229
3.57300	227
3.57667	227
3.58033	229
3.58400	231
3.58767	232
3.59133	231
3.59500	229
3.59867	228
3.60233	230
3.60600	230
3.60967	229
3.61333	229
3.61700	230
3.62067	229
3.62433	229
3.62800	231
3.63167	231
3.63533	231
3.63900	232
3.64267	231
3.64633	230
3.65000	230
3.65367	230
3.65733	229
3.66100	230
3.66467	231
3.66833	230
3.67200	231
3.67567	232
3.67933	232
3.68300	231
3.68667	230
3.69033	232
3.69400	234
3.69767	235
3.70133	234
3.70500	234
3.70867	233
3.71233	232
3.71600	232
3.71967	230
3.72333	229
3.72700	228
3.73067	225
3.73433	214
3.73800	196
3.74167	175
3.74533	158
3.74900	148
3.75267	146
3.75633	150
3.76000	157
3.76367	164
3.76733	172
3.77100	184
3.77467	199
3.77833	216
3.78200	235
3.78567	252
3.78933	270
3.79300	288
3.79667	303
3.80033	319
3.80400	335
3.80767	348
3.81133	361
3.81500	375
3.81867	388
3.82233	399
3.82600	407
3.82967	415
3.83333	423
3.83700	429
3.84067	433
3.84433	438
3.84800	443
3.85167	448
3.85533	451
3.85900	455
3.86267	456
3.86633	458
3.87000	459
3.87367	462
3.87733	465
3.88100	464
3.88467	464
3.88833	466
3.89200	468
3.89567	468
3.89933	470
3.90300	470
3.90667	471
3.91033	473
3.91400	476
3.91767	477
3.92133	476
3.92500	474
3.92867	472
3.93233	472
3.93600	474
3.93967	476
3.94333	477
3.94700	477
3.95067	476
3.95433	475
3.95800	474
3.96167	473
3.96533	475
3.96900	477
3.97267	478
3.97633	478
3.98000	476
3.98367	476
3.98733	473
3.99100	473
3.99467	474
3.99833	472

[Status Trace (Column Oven Temperature)]
Interval(msec)	1000
# of Points	240
Start Time(min)	0.006
End Time(min)	3.989
Intensity Units	
Intensity Multiplier	1
R.Time (min)	Intensity
0.00578	35.02
0.02245	35.02
0.03912	35.02
0.05578	35.03
0.07245	35.02
0.08912	35.02
0.10578	35.03
0.12245	35.03
0.13912	35.04
0.15578	35.04
0.17245	35.04
0.18912	35.05
0.20578	35.04
0.22245	35.03
0.23912	35.03
0.25578	35.03
0.27245	35.03
0.28912	35.04
0.30578	35.03
0.32245	35.02
0.33912	35.00
0.35578	35.02
0.37245	35.03
0.38912	35.03
0.40578	35.03
0.42245	35.03
0.43912	35.04
0.45578	35.04
0.47245	35.03
0.48912	35.02
0.50578	35.01
0.52245	35.02
0.53912	35.01
0.55578	35.02
0.57245	35.02
0.58912	35.01
0.60578	35.00
0.62245	35.00
0.63912	34.99
0.65578	34.99
0.67245	34.98
0.68912	34.98
0.70578	34.98
0.72245	34.97
0.73912	34.97
0.75578	34.97
0.77245	34.96
0.78912	34.95
0.80578	34.95
0.82245	34.96
0.83912	34.97
0.85578	34.98
0.87245	34.99
0.88912	35.01
0.90578	35.01
0.92245	34.99
0.93912	34.99
0.95578	34.99
0.97245	34.99
0.98912	34.99
1.00578	34.99
1.02245	34.99
1.03912	35.00
1.05578	35.00
1.07245	34.99
1.08912	34.99
1.10578	34.99
1.12245	34.99
1.13912	35.00
1.15578	35.01
1.17245	35.01
1.18912	35.00
1.20578	35.00
1.22245	35.00
1.23912	35.00
1.25578	35.01
1.27245	35.01
1.28912	35.01
1.30578	35.02
1.32245	35.02
1.33912	35.01
1.35578	35.01
1.37245	35.01
1.38912	35.00
1.40578	34.99
1.42245	34.99
1.43912	34.98
1.45578	34.98
1.47245	34.98
1.48912	34.97
1.50578	34.96
1.52245	34.96
1.53912	34.96
1.55578	34.97
1.57245	34.97
1.58912	34.98
1.60578	35.04
1.62245	35.17
1.63912	35.36
1.65578	35.61
1.67245	35.92
1.68912	36.29
1.70578	36.63
1.72245	36.98
1.73912	37.33
1.75578	37.65
1.77245	37.95
1.78912	38.29
1.80578	38.61
1.82245	38.95
1.83912	39.27
1.85578	39.60
1.87245	39.94
1.88912	40.25
1.90578	40.59
1.92245	40.92
1.93912	41.26
1.95578	41.60
1.97245	41.92
1.98912	42.25
2.00578	42.57
2.02245	42.89
2.03912	43.22
2.05578	43.53
2.07245	43.85
2.08912	44.17
2.10578	44.50
2.12245	44.84
2.13912	45.17
2.15578	45.50
2.17245	45.82
2.18912	46.14
2.20578	46.49
2.22245	46.82
2.23912	47.14
2.25578	47.46
2.27245	47.81
2.28912	48.12
2.30578	48.46
2.32245	48.80
2.33912	49.12
2.35578	49.37
2.37245	49.56
2.38912	49.64
2.40578	49.64
2.42245	49.66
2.43912	49.66
2.45578	49.69
2.47245	49.69
2.48912	49.69
2.50578	49.70
2.52245	49.72
2.53912	49.74
2.55578	49.75
2.57245	49.77
2.58912	49.78
2.60578	49.79
2.62245	49.81
2.63912	49.81
2.65578	49.81
2.67245	49.83
2.68912	49.83
2.70578	49.84
2.72245	49.86
2.73912	49.86
2.75578	49.86
2.77245	49.86
2.78912	49.85
2.80578	49.85
2.82245	49.88
2.83912	49.90
2.85578	49.91
2.87245	49.90
2.88912	49.89
2.90578	49.89
2.92245	49.89
2.93912	49.90
2.95578	49.91
2.97245	49.92
2.98912	49.95
3.00578	49.97
3.02245	49.98
3.03912	50.00
3.05578	50.01
3.07245	50.02
3.08912	50.04
3.10578	50.04
3.12245	50.06
3.13912	50.07
3.15578	50.07
3.17245	50.09
3.18912	50.10
3.20578	50.10
3.22245	50.10
3.23912	50.10
3.25578	50.11
3.27245	50.11
3.28912	50.09
3.30578	50.08
3.32245	50.06
3.33912	50.04
3.35578	50.04
3.37245	50.03
3.38912	50.03
3.40578	50.03
3.42245	50.03
3.43912	50.03
3.45578	50.03
3.47245	50.04
3.48912	50.04
3.50578	50.04
3.52245	50.04
3.53912	50.04
3.55578	50.04
3.57245	50.05
3.58912	50.05
3.60578	50.05
3.62245	50.04
3.63912	50.04
3.65578	50.05
3.67245	50.05
3.68912	50.06
3.70578	50.06
3.72245	50.07
3.73912	50.08
3.75578	50.08
3.77245	50.07
3.78912	50.07
3.80578	50.07
3.82245	50.08
3.83912	50.08
3.85578	50.08
3.87245	50.08
3.88912	50.08
3.90578	50.09
3.92245	50.10
3.93912	50.10
3.95578	50.10
3.97245	50.09
3.98912	50.08

[Status Trace (Injection Unit Temperature)]
Interval(msec)	1000
# of Points	240
Start Time(min)	0.006
End Time(min)	3.989
Intensity Units	
Intensity Multiplier	1
R.Time (min)	Intensity
0.00578	99.98
0.02245	99.98
0.03912	99.98
0.05578	99.97
0.07245	99.98
0.08912	99.98
0.10578	99.98
0.12245	99.98
0.13912	99.98
0.15578	99.98
0.17245	99.98
0.18912	99.98
0.20578	99.98
0.22245	99.98
0.23912	99.98
0.25578	99.98
0.27245	99.98
0.28912	99.98
0.30578	99.98
0.32245	99.98
0.33912	99.98
0.35578	99.98
0.37245	99.98
0.38912	99.98
0.40578	99.99
0.42245	99.98
0.43912	99.98
0.45578	99.98
0.47245	99.98
0.48912	99.98
0.50578	99.99
0.52245	99.99
0.53912	99.99
0.55578	99.99
0.57245	99.99
0.58912	99.99
0.60578	99.99
0.62245	99.99
0.63912	99.98
0.65578	99.98
0.67245	99.99
0.68912	99.98
0.70578	99.98
0.72245	99.98
0.73912	99.98
0.75578	99.98
0.77245	99.98
0.78912	99.98
0.80578	99.98
0.82245	99.98
0.83912	99.98
0.85578	99.98
0.87245	99.98
0.88912	99.98
0.90578	99.99
0.92245	99.98
0.93912	99.99
0.95578	99.98
0.97245	99.98
0.98912	99.98
1.00578	99.98
1.02245	99.98
1.03912	99.98
1.05578	99.98
1.07245	99.98
1.08912	99.98
1.10578	99.97
1.12245	99.98
1.13912	99.98
1.15578	99.98
1.17245	99.98
1.18912	99.98
1.20578	99.98
1.22245	99.98
1.23912	99.98
1.25578	99.98
1.27245	99.98
1.28912	99.98
1.30578	99.98
1.32245	99.98
1.33912	99.98
1.35578	99.98
1.37245	99.99
1.38912	99.98
1.40578	99.99
1.42245	99.99
1.43912	99.98
1.45578	99.98
1.47245	99.98
1.48912	99.98
1.50578	99.98
1.52245	99.99
1.53912	99.98
1.55578	99.98
1.57245	99.98
1.58912	99.99
1.60578	99.98
1.62245	99.98
1.63912	99.98
1.65578	99.98
1.67245	99.98
1.68912	99.99
1.70578	99.98
1.72245	99.99
1.73912	99.98
1.75578	99.99
1.77245	99.99
1.78912	99.98
1.80578	99.98
1.82245	99.98
1.83912	99.98
1.85578	99.98
1.87245	99.98
1.88912	99.98
1.90578	99.97
1.92245	99.97
1.93912	99.98
1.95578	99.98
1.97245	99.98
1.98912	99.97
2.00578	99.98
2.02245	99.97
2.03912	99.98
2.05578	99.97
2.07245	99.97
2.08912	99.97
2.10578	99.97
2.12245	99.97
2.13912	99.96
2.15578	99.97
2.17245	99.97
2.18912	99.97
2.20578	99.97
2.22245	99.97
2.23912	99.97
2.25578	99.97
2.27245	99.97
2.28912	99.97
2.30578	99.97
2.32245	99.97
2.33912	99.97
2.35578	99.97
2.37245	99.97
2.38912	99.97
2.40578	99.97
2.42245	99.97
2.43912	99.97
2.45578	99.97
2.47245	99.97
2.48912	99.97
2.50578	99.97
2.52245	99.97
2.53912	99.97
2.55578	99.98
2.57245	99.97
2.58912	99.98
2.60578	99.98
2.62245	99.98
2.63912	99.98
2.65578	99.98
2.67245	99.98
2.68912	99.98
2.70578	99.98
2.72245	99.98
2.73912	99.98
2.75578	99.98
2.77245	99.99
2.78912	99.99
2.80578	99.99
2.82245	99.99
2.83912	99.99
2.85578	100.00
2.87245	99.99
2.88912	99.99
2.90578	99.99
2.92245	100.00
2.93912	100.01
2.95578	100.00
2.97245	100.00
2.98912	100.01
3.00578	100.01
3.02245	100.01
3.03912	100.01
3.05578	100.01
3.07245	100.01
3.08912	100.02
3.10578	100.02
3.12245	100.02
3.13912	100.02
3.15578	100.02
3.17245	100.02
3.18912	100.02
3.20578	100.02
3.22245	100.02
3.23912	100.02
3.25578	100.02
3.27245	100.02
3.28912	100.02
3.30578	100.02
3.32245	100.03
3.33912	100.03
3.35578	100.03
3.37245	100.03
3.38912	100.03
3.40578	100.03
3.42245	100.03
3.43912	100.03
3.45578	100.03
3.47245	100.03
3.48912	100.03
3.50578	100.03
3.52245	100.04
3.53912	100.04
3.55578	100.04
3.57245	100.04
3.58912	100.04
3.60578	100.04
3.62245	100.04
3.63912	100.04
3.65578	100.03
3.67245	100.05
3.68912	100.05
3.70578	100.04
3.72245	100.04
3.73912	100.04
3.75578	100.04
3.77245	100.04
3.78912	100.05
3.80578	100.05
3.82245	100.05
3.83912	100.05
3.85578	100.05
3.87245	100.05
3.88912	100.04
3.90578	100.05
3.92245	100.05
3.93912	100.05
3.95578	100.05
3.97245	100.05
3.98912	100.05

[Status Trace (Carrier Gas Pressure)]
Interval(msec)	1000
# of Points	240
Start Time(min)	0.006
End Time(min)	3.989
Intensity Units	
Intensity Multiplier	1
R.Time (min)	Intensity
0.00578	58.00
0.02245	55.64
0.03912	56.77
0.05578	58.99
0.07245	59.61
0.08912	58.14
0.10578	57.98
0.12245	58.01
0.13912	58.01
0.15578	58.01
0.17245	58.00
0.18912	58.00
0.20578	58.00
0.22245	58.00
0.23912	58.00
0.25578	58.00
0.27245	58.00
0.28912	58.00
0.30578	58.00
0.32245	58.00
0.33912	58.00
0.35578	58.00
0.37245	58.00
0.38912	58.00
0.40578	58.00
0.42245	58.00
0.43912	58.00
0.45578	58.00
0.47245	58.00
0.48912	58.00
0.50578	58.00
0.52245	58.00
0.53912	58.00
0.55578	58.00
0.57245	58.00
0.58912	58.00
0.60578	58.00
0.62245	58.00
0.63912	58.00
0.65578	58.00
0.67245	58.00
0.68912	58.00
0.70578	58.00
0.72245	58.00
0.73912	58.00
0.75578	58.00
0.77245	58.00
0.78912	58.00
0.80578	58.00
0.82245	58.00
0.83912	58.00
0.85578	58.00
0.87245	58.00
0.88912	58.00
0.90578	58.00
0.92245	58.00
0.93912	58.00
0.95578	58.00
0.97245	58.00
0.98912	58.00
1.00578	58.00
1.02245	58.00
1.03912	58.00
1.05578	58.00
1.07245	58.00
1.08912	58.00
1.10578	58.00
1.12245	58.00
1.13912	58.00
1.15578	58.00
1.17245	58.00
1.18912	58.00
1.20578	58.00
1.22245	58.00
1.23912	58.00
1.25578	58.00
1.27245	58.00
1.28912	58.00
1.30578	58.00
1.32245	58.00
1.33912	58.00
1.35578	58.00
1.37245	58.00
1.38912	58.00
1.40578	58.00
1.42245	58.00
1.43912	58.00
1.45578	58.00
1.47245	58.00
1.48912	58.00
1.50578	58.00
1.52245	58.00
1.53912	58.00
1.55578	58.00
1.57245	58.00
1.58912	58.00
1.60578	58.00
1.62245	58.01
1.63912	58.00
1.65578	58.00
1.67245	58.01
1.68912	58.01
1.70578	58.00
1.72245	58.00
1.73912	58.00
1.75578	58.00
1.77245	58.00
1.78912	58.00
1.80578	58.00
1.82245	58.00
1.83912	58.00
1.85578	58.00
1.87245	58.00
1.88912	58.00
1.90578	58.00
1.92245	58.00
1.93912	58.00
1.95578	58.00
1.97245	58.00
1.98912	58.00
2.00578	58.00
2.02245	58.00
2.03912	58.00
2.05578	58.00
2.07245	58.00
2.08912	58.00
2.10578	58.00
2.12245	58.00
2.13912	58.00
2.15578	58.00
2.17245	58.00
2.18912	58.00
2.20578	58.00
2.22245	58.00
2.23912	58.00
2.25578	58.00
2.27245	58.00
2.28912	58.00
2.30578	58.00
2.32245	58.00
2.33912	58.00
2.35578	58.00
2.37245	58.00
2.38912	57.99
2.40578	57.99
2.42245	58.00
2.43912	58.00
2.45578	58.00
2.47245	58.00
2.48912	58.00
2.50578	57.99
2.52245	57.99
2.53912	58.00
2.55578	58.00
2.57245	58.00
2.58912	58.00
2.60578	58.00
2.62245	58.00
2.63912	58.00
2.65578	58.00
2.67245	58.00
2.68912	58.00
2.70578	58.00
2.72245	58.00
2.73912	58.00
2.75578	58.00
2.77245	58.00
2.78912	58.00
2.80578	58.00
2.82245	58.00
2.83912	58.00
2.85578	58.00
2.87245	58.00
2.88912	58.00
2.90578	58.00
2.92245	58.00
2.93912	58.00
2.95578	58.00
2.97245	58.00
2.98912	58.00
3.00578	58.00
3.02245	58.00
3.03912	58.00
3.05578	58.00
3.07245	58.00
3.08912	58.00
3.10578	58.00
3.12245	58.00
3.13912	58.00
3.15578	58.00
3.17245	58.00
3.18912	58.00
3.20578	58.00
3.22245	58.00
3.23912	58.00
3.25578	58.00
3.27245	58.00
3.28912	58.00
3.30578	58.00
3.32245	58.00
3.33912	58.00
3.35578	58.00
3.37245	58.00
3.38912	58.00
3.40578	58.00
3.42245	58.00
3.43912	58.00
3.45578	58.00
3.47245	58.00
3.48912	58.00
3.50578	58.00
3.52245	58.00
3.53912	58.00
3.55578	58.00
3.57245	58.00
3.58912	58.00
3.60578	58.00
3.62245	58.00
3.63912	58.00
3.65578	58.00
3.67245	58.00
3.68912	58.00
3.70578	58.00
3.72245	58.00
3.73912	58.00
3.75578	58.00
3.77245	58.00
3.78912	58.00
3.80578	58.00
3.82245	58.00
3.83912	58.00
3.85578	58.00
3.87245	58.00
3.88912	58.00
3.90578	58.00
3.92245	58.00
3.93912	58.00
3.95578	58.00
3.97245	58.00
3.98912	58.00

[Status Trace (Carrier Gas Flow)]
Interval(msec)	1000
# of Points	240
Start Time(min)	0.006
End Time(min)	3.989
Intensity Units	
Intensity Multiplier	1
R.Time (min)	Intensity
0.00578	34.52
0.02245	34.54
0.03912	34.55
0.05578	34.55
0.07245	34.50
0.08912	34.51
0.10578	34.52
0.12245	34.52
0.13912	34.52
0.15578	34.52
0.17245	34.52
0.18912	34.52
0.20578	34.52
0.22245	34.53
0.23912	34.52
0.25578	34.52
0.27245	34.52
0.28912	34.51
0.30578	34.52
0.32245	34.52
0.33912	34.52
0.35578	34.52
0.37245	34.52
0.38912	34.52
0.40578	34.52
0.42245	34.52
0.43912	34.52
0.45578	34.52
0.47245	34.51
0.48912	34.52
0.50578	34.52
0.52245	34.52
0.53912	34.52
0.55578	34.52
0.57245	34.52
0.58912	34.52
0.60578	34.52
0.62245	34.52
0.63912	34.52
0.65578	34.52
0.67245	34.52
0.68912	34.52
0.70578	34.52
0.72245	34.52
0.73912	34.52
0.75578	34.52
0.77245	34.52
0.78912	34.52
0.80578	34.52
0.82245	34.52
0.83912	34.51
0.85578	34.52
0.87245	34.52
0.88912	34.52
0.90578	34.52
0.92245	34.52
0.93912	34.52
0.95578	34.52
0.97245	34.52
0.98912	34.52
1.00578	34.52
1.02245	34.52
1.03912	34.52
1.05578	34.52
1.07245	34.52
1.08912	34.52
1.10578	34.52
1.12245	34.52
1.13912	34.52
1.15578	34.52
1.17245	34.52
1.18912	34.52
1.20578	34.52
1.22245	34.52
1.23912	34.52
1.25578	34.52
1.27245	34.52
1.28912	34.52
1.30578	34.52
1.32245	34.52
1.33912	34.52
1.35578	34.52
1.37245	34.52
1.38912	34.51
1.40578	34.52
1.42245	34.52
1.43912	34.52
1.45578	34.52
1.47245	34.52
1.48912	34.52
1.50578	34.52
1.52245	34.52
1.53912	34.52
1.55578	34.52
1.57245	34.52
1.58912	34.52
1.60578	34.52
1.62245	34.52
1.63912	34.52
1.65578	34.52
1.67245	34.52
1.68912	34.52
1.70578	34.52
1.72245	34.52
1.73912	34.52
1.75578	34.52
1.77245	34.52
1.78912	34.51
1.80578	34.52
1.82245	34.52
1.83912	34.52
1.85578	34.52
1.87245	34.52
1.88912	34.52
1.90578	34.52
1.92245	34.52
1.93912	34.52
1.95578	34.52
1.97245	34.52
1.98912	34.52
2.00578	34.52
2.02245	34.52
2.03912	34.52
2.05578	34.52
2.07245	34.52
2.08912	34.52
2.10578	34.52
2.12245	34.51
2.13912	34.52
2.15578	34.52
2.17245	34.51
2.18912	34.52
2.20578	34.53
2.22245	34.52
2.23912	34.52
2.25578	34.52
2.27245	34.51
2.28912	34.52
2.30578	34.52
2.32245	34.52
2.33912	34.52
2.35578	34.52
2.37245	34.52
2.38912	34.52
2.40578	34.53
2.42245	34.52
2.43912	34.52
2.45578	34.51
2.47245	34.52
2.48912	34.52
2.50578	34.50
2.52245	34.52
2.53912	34.51
2.55578	34.52
2.57245	34.52
2.58912	34.51
2.60578	34.52
2.62245	34.52
2.63912	34.52
2.65578	34.52
2.67245	34.52
2.68912	34.52
2.70578	34.52
2.72245	34.52
2.73912	34.52
2.75578	34.52
2.77245	34.52
2.78912	34.52
2.80578	34.52
2.82245	34.51
2.83912	34.51
2.85578	34.52
2.87245	34.52
2.88912	34.52
2.90578	34.52
2.92245	34.52
2.93912	34.52
2.95578	34.52
2.97245	34.51
2.98912	34.52
3.00578	34.52
3.02245	34.51
3.03912	34.52
3.05578	34.52
3.07245	34.52
3.08912	34.52
3.10578	34.52
3.12245	34.52
3.13912	34.52
3.15578	34.51
3.17245	34.52
3.18912	34.52
3.20578	34.52
3.22245	34.52
3.23912	34.52
3.25578	34.52
3.27245	34.52
3.28912	34.51
3.30578	34.52
3.32245	34.52
3.33912	34.52
3.35578	34.52
3.37245	34.52
3.38912	34.52
3.40578	34.52
3.42245	34.51
3.43912	34.52
3.45578	34.52
3.47245	34.52
3.48912	34.52
3.50578	34.52
3.52245	34.52
3.53912	34.52
3.55578	34.52
3.57245	34.52
3.58912	34.52
3.60578	34.52
3.62245	34.52
3.63912	34.52
3.65578	34.51
3.67245	34.52
3.68912	34.52
3.70578	34.52
3.72245	34.52
3.73912	34.51
3.75578	34.52
3.77245	34.52
3.78912	34.52
3.80578	34.52
3.82245	34.52
3.83912	34.53
3.85578	34.52
3.87245	34.52
3.88912	34.52
3.90578	34.52
3.92245	34.52
3.93912	34.52
3.95578	34.52
3.97245	34.51
3.98912	34.52

[Status Trace (Column Flow)]
Interval(msec)	1000
# of Points	240
Start Time(min)	0.006
End Time(min)	3.989
Intensity Units	
Intensity Multiplier	1
R.Time (min)	Intensity
0.00578	5.57
0.02245	5.29
0.03912	5.42
0.05578	5.68
0.07245	5.76
0.08912	5.58
0.10578	5.56
0.12245	5.57
0.13912	5.57
0.15578	5.57
0.17245	5.57
0.18912	5.57
0.20578	5.57
0.22245	5.57
0.23912	5.57
0.25578	5.57
0.27245	5.57
0.28912	5.57
0.30578	5.57
0.32245	5.57
0.33912	5.57
0.35578	5.57
0.37245	5.57
0.38912	5.57
0.40578	5.57
0.42245	5.57
0.43912	5.57
0.45578	5.57
0.47245	5.57
0.48912	5.57
0.50578	5.57
0.52245	5.57
0.53912	5.57
0.55578	5.57
0.57245	5.57
0.58912	5.57
0.60578	5.57
0.62245	5.57
0.63912	5.57
0.65578	5.57
0.67245	5.57
0.68912	5.57
0.70578	5.57
0.72245	5.57
0.73912	5.57
0.75578	5.57
0.77245	5.57
0.78912	5.57
0.80578	5.57
0.82245	5.57
0.83912	5.57
0.85578	5.57
0.87245	5.57
0.88912	5.57
0.90578	5.57
0.92245	5.57
0.93912	5.57
0.95578	5.57
0.97245	5.57
0.98912	5.57
1.00578	5.57
1.02245	5.57
1.03912	5.57
1.05578	5.57
1.07245	5.57
1.08912	5.57
1.10578	5.57
1.12245	5.57
1.13912	5.57
1.15578	5.57
1.17245	5.57
1.18912	5.57
1.20578	5.57
1.22245	5.57
1.23912	5.57
1.25578	5.57
1.27245	5.57
1.28912	5.57
1.30578	5.57
1.32245	5.57
1.33912	5.57
1.35578	5.57
1.37245	5.57
1.38912	5.57
1.40578	5.57
1.42245	5.57
1.43912	5.57
1.45578	5.57
1.47245	5.57
1.48912	5.57
1.50578	5.57
1.52245	5.57
1.53912	5.57
1.55578	5.57
1.57245	5.57
1.58912	5.57
1.60578	5.57
1.62245	5.56
1.63912	5.56
1.65578	5.55
1.67245	5.54
1.68912	5.53
1.70578	5.52
1.72245	5.50
1.73912	5.49
1.75578	5.48
1.77245	5.47
1.78912	5.47
1.80578	5.45
1.82245	5.44
1.83912	5.43
1.85578	5.42
1.87245	5.41
1.88912	5.40
1.90578	5.39
1.92245	5.38
1.93912	5.37
1.95578	5.36
1.97245	5.35
1.98912	5.34
2.00578	5.33
2.02245	5.32
2.03912	5.32
2.05578	5.31
2.07245	5.30
2.08912	5.29
2.10578	5.28
2.12245	5.27
2.13912	5.26
2.15578	5.25
2.17245	5.24
2.18912	5.23
2.20578	5.22
2.22245	5.21
2.23912	5.20
2.25578	5.19
2.27245	5.18
2.28912	5.17
2.30578	5.16
2.32245	5.15
2.33912	5.15
2.35578	5.14
2.37245	5.13
2.38912	5.13
2.40578	5.13
2.42245	5.13
2.43912	5.13
2.45578	5.13
2.47245	5.13
2.48912	5.13
2.50578	5.13
2.52245	5.13
2.53912	5.13
2.55578	5.13
2.57245	5.13
2.58912	5.13
2.60578	5.13
2.62245	5.13
2.63912	5.13
2.65578	5.13
2.67245	5.13
2.68912	5.12
2.70578	5.12
2.72245	5.12
2.73912	5.12
2.75578	5.12
2.77245	5.12
2.78912	5.12
2.80578	5.12
2.82245	5.12
2.83912	5.12
2.85578	5.12
2.87245	5.12
2.88912	5.12
2.90578	5.12
2.92245	5.12
2.93912	5.12
2.95578	5.12
2.97245	5.12
2.98912	5.12
3.00578	5.12
3.02245	5.12
3.03912	5.12
3.05578	5.12
3.07245	5.12
3.08912	5.12
3.10578	5.12
3.12245	5.12
3.13912	5.12
3.15578	5.12
3.17245	5.12
3.18912	5.12
3.20578	5.12
3.22245	5.12
3.23912	5.12
3.25578	5.12
3.27245	5.12
3.28912	5.12
3.30578	5.12
3.32245	5.12
3.33912	5.12
3.35578	5.12
3.37245	5.12
3.38912	5.12
3.40578	5.12
3.42245	5.12
3.43912	5.12
3.45578	5.12
3.47245	5.12
3.48912	5.12
3.50578	5.12
3.52245	5.12
3.53912	5.12
3.55578	5.12
3.57245	5.12
3.58912	5.12
3.60578	5.12
3.62245	5.12
3.63912	5.12
3.65578	5.12
3.67245	5.12
3.68912	5.12
3.70578	5.12
3.72245	5.12
3.73912	5.12
3.75578	5.12
3.77245	5.12
3.78912	5.12
3.80578	5.12
3.82245	5.12
3.83912	5.12
3.85578	5.12
3.87245	5.12
3.88912	5.12
3.90578	5.12
3.92245	5.12
3.93912	5.12
3.95578	5.12
3.97245	5.12
3.98912	5.12

[Status Trace (Linear Velocity)]
Interval(msec)	1000
# of Points	240
Start Time(min)	0.006
End Time(min)	3.989
Intensity Units	
Intensity Multiplier	1
R.Time (min)	Intensity
0.00578	39.03
0.02245	37.48
0.03912	38.22
0.05578	39.68
0.07245	40.08
0.08912	39.12
0.10578	39.01
0.12245	39.03
0.13912	39.03
0.15578	39.03
0.17245	39.03
0.18912	39.02
0.20578	39.02
0.22245	39.03
0.23912	39.03
0.25578	39.02
0.27245	39.03
0.28912	39.02
0.30578	39.03
0.32245	39.03
0.33912	39.03
0.35578	39.03
0.37245	39.02
0.38912	39.02
0.40578	39.02
0.42245	39.02
0.43912	39.02
0.45578	39.02
0.47245	39.02
0.48912	39.03
0.50578	39.03
0.52245	39.03
0.53912	39.03
0.55578	39.03
0.57245	39.03
0.58912	39.03
0.60578	39.03
0.62245	39.03
0.63912	39.03
0.65578	39.03
0.67245	39.03
0.68912	39.03
0.70578	39.03
0.72245	39.03
0.73912	39.03
0.75578	39.03
0.77245	39.03
0.78912	39.03
0.80578	39.03
0.82245	39.03
0.83912	39.03
0.85578	39.03
0.87245	39.03
0.88912	39.03
0.90578	39.03
0.92245	39.03
0.93912	39.03
0.95578	39.03
0.97245	39.03
0.98912	39.03
1.00578	39.03
1.02245	39.03
1.03912	39.03
1.05578	39.03
1.07245	39.03
1.08912	39.03
1.10578	39.03
1.12245	39.03
1.13912	39.03
1.15578	39.03
1.17245	39.03
1.18912	39.03
1.20578	39.03
1.22245	39.03
1.23912	39.03
1.25578	39.03
1.27245	39.03
1.28912	39.03
1.30578	39.03
1.32245	39.03
1.33912	39.03
1.35578	39.03
1.37245	39.03
1.38912	39.03
1.40578	39.03
1.42245	39.03
1.43912	39.03
1.45578	39.03
1.47245	39.03
1.48912	39.03
1.50578	39.03
1.52245	39.03
1.53912	39.03
1.55578	39.03
1.57245	39.03
1.58912	39.03
1.60578	39.03
1.62245	39.01
1.63912	39.00
1.65578	38.97
1.67245	38.94
1.68912	38.91
1.70578	38.87
1.72245	38.84
1.73912	38.81
1.75578	38.77
1.77245	38.75
1.78912	38.72
1.80578	38.68
1.82245	38.65
1.83912	38.62
1.85578	38.59
1.87245	38.56
1.88912	38.53
1.90578	38.50
1.92245	38.47
1.93912	38.44
1.95578	38.40
1.97245	38.37
1.98912	38.35
2.00578	38.31
2.02245	38.28
2.03912	38.26
2.05578	38.22
2.07245	38.20
2.08912	38.17
2.10578	38.14
2.12245	38.11
2.13912	38.08
2.15578	38.05
2.17245	38.02
2.18912	37.99
2.20578	37.96
2.22245	37.93
2.23912	37.90
2.25578	37.87
2.27245	37.84
2.28912	37.81
2.30578	37.78
2.32245	37.75
2.33912	37.72
2.35578	37.70
2.37245	37.68
2.38912	37.67
2.40578	37.67
2.42245	37.67
2.43912	37.67
2.45578	37.67
2.47245	37.67
2.48912	37.67
2.50578	37.66
2.52245	37.66
2.53912	37.66
2.55578	37.67
2.57245	37.66
2.58912	37.66
2.60578	37.66
2.62245	37.66
2.63912	37.66
2.65578	37.66
2.67245	37.66
2.68912	37.66
2.70578	37.66
2.72245	37.66
2.73912	37.65
2.75578	37.66
2.77245	37.66
2.78912	37.66
2.80578	37.66
2.82245	37.65
2.83912	37.65
2.85578	37.65
2.87245	37.65
2.88912	37.65
2.90578	37.65
2.92245	37.65
2.93912	37.65
2.95578	37.65
2.97245	37.65
2.98912	37.65
3.00578	37.65
3.02245	37.64
3.03912	37.64
3.05578	37.64
3.07245	37.64
3.08912	37.64
3.10578	37.64
3.12245	37.64
3.13912	37.64
3.15578	37.64
3.17245	37.64
3.18912	37.63
3.20578	37.63
3.22245	37.63
3.23912	37.63
3.25578	37.63
3.27245	37.63
3.28912	37.63
3.30578	37.64
3.32245	37.64
3.33912	37.64
3.35578	37.64
3.37245	37.64
3.38912	37.64
3.40578	37.64
3.42245	37.64
3.43912	37.64
3.45578	37.64
3.47245	37.64
3.48912	37.64
3.50578	37.64
3.52245	37.64
3.53912	37.64
3.55578	37.64
3.57245	37.64
3.58912	37.64
3.60578	37.64
3.62245	37.64
3.63912	37.64
3.65578	37.64
3.67245	37.64
3.68912	37.64
3.70578	37.64
3.72245	37.64
3.73912	37.64
3.75578	37.64
3.77245	37.64
3.78912	37.64
3.80578	37.64
3.82245	37.64
3.83912	37.64
3.85578	37.64
3.87245	37.64
3.88912	37.64
3.90578	37.64
3.92245	37.63
3.93912	37.63
3.95578	37.63
3.97245	37.63
3.98912	37.64

