[Header]
Application Name	LabSolutions
Version	5.110
Data File Name	C:\Users\User\Desktop\GC Analyses\Jack\Nachusa Grasslands Sampling\T4 Timepoint July 12th\T4_07122022_091.gcd
Output Date	3/17/2023
Output Time	12:04:56 PM

[File Information]
Type	Data File
Generated	3/15/2023 1:37:33 AM
Generated by	System Administrator
Modified	3/15/2023 1:44:13 AM
Modified by	System Administrator

[Sample Information]
Operator Name	System Administrator
Acquired	3/15/2023 1:40:12 AM
Sample Type	0:Unknown
Level	0
Sample Name	091
Sample ID	091
ISTD Amount1	1
ISTD Amount2	1
ISTD Amount3	1
ISTD Amount4	1
ISTD Amount5	1
ISTD Amount6	1
ISTD Amount7	1
ISTD Amount8	1
ISTD Amount9	1
ISTD Amount10	1
ISTD Amount11	1
ISTD Amount12	1
ISTD Amount13	1
ISTD Amount14	1
ISTD Amount15	1
ISTD Amount16	1
ISTD Amount17	1
ISTD Amount18	1
ISTD Amount19	1
ISTD Amount20	1
ISTD Amount21	1
ISTD Amount22	1
ISTD Amount23	1
ISTD Amount24	1
ISTD Amount25	1
ISTD Amount26	1
ISTD Amount27	1
ISTD Amount28	1
ISTD Amount29	1
ISTD Amount30	1
ISTD Amount31	1
ISTD Amount32	1
Sample Amount	1
Dilution Factor	1
Vial#	90
Injection Volume	1
Injection Count	1
Bar Code	

[Original Files]
Data File	C:\Users\User\Desktop\GC Analyses\Jack\Nachusa Grasslands Sampling\T4 Timepoint July 12th\T4_07122022_091.gcd
Method File	C:\LabSolutions\Data\GHG_4min_2022\ghg3_togas_w_acet_4 min_new_int.gcm
Batch File	C:\LabSolutions\Data\AutoSamplerTesting\T4_07122022.gcb
Report Format File	c:\LabSolutions\System\DEFAULT.lsr

[File Description]


[Configuration]
Instrument Name	C0B7VH3-Instrument1
Instrument #	1
Line #	1
# of Detectors	3
Detector ID	DET#1	DET#2	DET#3
Detector Name	FID	PTCD	ECD
# of Channels	1	1	1

[Peak Table(Ch1)]
# of Peaks	3
Peak#	R.Time	I.Time	F.Time	Area	Height	A/H	Conc.	Mark	ID#	Name	k'	Plate #	Plate Ht.	Tailing	Resolution	Sep.Factor	Area Ratio	Height Ratio	Conc. %	Norm Conc.
1	1.476	1.432	1.542	53110	26110	2.034	374.958	   	1	CO	0.000	9776	15.344	1.339	0.000	0.000	0	0	31.511	31.511
2	1.571	1.542	1.630	3987	1965	2.029	77.087	 V 	2	CH4	0.065	11376	13.185	0.000	1.607	0.000	0	0	6.478	6.478
3	1.996	1.949	2.477	2940129	1401816	2.097	737.893	   	3	CO2	0.353	17392	8.624	1.352	7.121	5.462	0	0	62.011	62.011

[Peak Table(Ch2)]
# of Peaks	0

[Peak Table(Ch3)]
# of Peaks	5
Peak#	R.Time	I.Time	F.Time	Area	Height	A/H	Conc.	Mark	ID#	Name	k'	Plate #	Plate Ht.	Tailing	Resolution	Sep.Factor	Area Ratio	Height Ratio	Conc. %	Norm Conc.
1	2.462	2.330	2.510	2331	737	3.162	0.000	   			0.000	10505	14.279	0.000	0.000	0.000	0	0	0.000	0.000
2	2.532	2.510	2.587	1133	369	3.069	0.000	 V 			0.028	6026	24.891	0.000	0.615	0.000	0	0	0.000	0.000
3	2.605	2.587	2.686	584	157	3.716	0.000	 V 			0.058	1770	84.763	0.000	0.388	2.053	0	0	0.000	0.000
4	2.880	2.807	3.038	18605	4959	3.752	0.475	   	1	N2O	0.170	13258	11.314	1.510	1.582	2.923	0	0	100.000	100.000
5	3.342	3.162	3.995	17830	644	27.681	0.000	   	2	SF6	0.357	193	779.169	2.252	0.869	2.105	0	0	0.000	0.000

[Compound Results(Ch1)]
# of IDs	6
ID#	Name	R.Time	Area	Height	Conc.	Curve	3rd	2nd	1st	Constant	Area Ratio	Height Ratio	Conc. %	Norm Conc.
1	CO	1.476	53110	26110	374.958	Linear	0.000000e+00	0.000000e+00	1.416423e+002	0.000000e+00	0	0	31.511	31.511
2	CH4	1.571	3987	1965	77.087	Linear	0.000000e+00	0.000000e+00	5.171738e+001	0.000000e+00	0	0	6.478	6.478
3	CO2	1.996	2940129	1401816	737.893	Linear	0.000000e+00	0.000000e+00	3.984494e+003	0.000000e+00	0	0	62.011	62.011
4	Ethylene	0.000	0	0	0.000	Linear	0.000000e+00	0.000000e+00	0.000000e+00	0.000000e+00	0	0	0.000	0.000
5	Acetylene	0.000	0	0	0.000	Linear	0.000000e+00	0.000000e+00	0.000000e+00	0.000000e+00	0	0	0.000	0.000
6	Ethane	0.000	0	0	0.000	Linear	0.000000e+00	0.000000e+00	0.000000e+00	0.000000e+00	0	0	0.000	0.000

[Compound Results(Ch2)]
# of IDs	5
ID#	Name	R.Time	Area	Height	Conc.	Curve	3rd	2nd	1st	Constant	Area Ratio	Height Ratio	Conc. %	Norm Conc.
1	Hydrogen	0.000	0	0	0.000	Linear	0.000000e+00	0.000000e+00	0.000000e+00	0.000000e+00	0	0	0.000	0.000
2	Oxygen	0.000	0	0	0.000	Linear	0.000000e+00	0.000000e+00	0.000000e+00	0.000000e+00	0	0	0.000	0.000
3	Nitrogen	0.000	0	0	0.000	Linear	0.000000e+00	0.000000e+00	0.000000e+00	0.000000e+00	0	0	0.000	0.000
4	Methane	0.000	0	0	0.000	Linear	0.000000e+00	0.000000e+00	0.000000e+00	0.000000e+00	0	0	0.000	0.000
5	Carbon Monoxide	0.000	0	0	0.000	Linear	0.000000e+00	0.000000e+00	0.000000e+00	0.000000e+00	0	0	0.000	0.000

[Compound Results(Ch3)]
# of IDs	2
ID#	Name	R.Time	Area	Height	Conc.	Curve	3rd	2nd	1st	Constant	Area Ratio	Height Ratio	Conc. %	Norm Conc.
1	N2O	2.880	18605	4959	0.475	Linear	0.000000e+00	0.000000e+00	3.915173e+004	0.000000e+00	0	0	100.000	100.000
2	SF6	3.342	17830	644	0.000	Linear	0.000000e+00	0.000000e+00	0.000000e+00	0.000000e+00	0	0	0.000	0.000

[Group Results(Ch1)]
# of Groups	0

[Group Results(Ch2)]
# of Groups	0

[Group Results(Ch3)]
# of Groups	0

[Chromatogram (Ch1)]
Interval(msec)	220
# of Points	1091
Start Time(min)	0.002
End Time(min)	3.998
R.Time (min)	Intensity
0.00167	-40
0.00533	-31
0.00900	-22
0.01267	-11
0.01633	1
0.02000	2
0.02367	8
0.02733	13
0.03100	8
0.03467	0
0.03833	-3
0.04200	1
0.04567	8
0.04933	10
0.05300	6
0.05667	1
0.06033	-0
0.06400	3
0.06767	8
0.07133	11
0.07500	15
0.07867	11
0.08233	12
0.08600	13
0.08967	16
0.09333	22
0.09700	31
0.10067	37
0.10433	35
0.10800	25
0.11167	14
0.11533	4
0.11900	-3
0.12267	-4
0.12633	-3
0.13000	-2
0.13367	0
0.13733	7
0.14100	14
0.14467	15
0.14833	11
0.15200	9
0.15567	14
0.15933	22
0.16300	24
0.16667	23
0.17033	17
0.17400	10
0.17767	6
0.18133	8
0.18500	14
0.18867	20
0.19233	25
0.19600	28
0.19967	34
0.20333	41
0.20700	38
0.21067	30
0.21433	21
0.21800	18
0.22167	18
0.22533	22
0.22900	30
0.23267	44
0.23633	55
0.24000	58
0.24367	56
0.24733	51
0.25100	48
0.25467	47
0.25833	43
0.26200	39
0.26567	35
0.26933	34
0.27300	39
0.27667	44
0.28033	43
0.28400	52
0.28767	62
0.29133	74
0.29500	86
0.29867	93
0.30233	94
0.30600	91
0.30967	86
0.31333	82
0.31700	76
0.32067	71
0.32433	66
0.32800	61
0.33167	58
0.33533	56
0.33900	56
0.34267	59
0.34633	62
0.35000	61
0.35367	61
0.35733	61
0.36100	54
0.36467	40
0.36833	29
0.37200	26
0.37567	27
0.37933	19
0.38300	11
0.38667	5
0.39033	6
0.39400	11
0.39767	16
0.40133	13
0.40500	7
0.40867	4
0.41233	2
0.41600	6
0.41967	9
0.42333	6
0.42700	2
0.43067	5
0.43433	9
0.43800	8
0.44167	6
0.44533	2
0.44900	-1
0.45267	2
0.45633	2
0.46000	-3
0.46367	-9
0.46733	-11
0.47100	-8
0.47467	0
0.47833	13
0.48200	24
0.48567	24
0.48933	13
0.49300	1
0.49667	-20
0.50033	-15
0.50400	-6
0.50767	-6
0.51133	-16
0.51500	-23
0.51867	-22
0.52233	-21
0.52600	-18
0.52967	-14
0.53333	-14
0.53700	-13
0.54067	-9
0.54433	-5
0.54800	-3
0.55167	-1
0.55533	2
0.55900	0
0.56267	1
0.56633	-0
0.57000	-1
0.57367	-2
0.57733	-4
0.58100	-10
0.58467	-14
0.58833	-19
0.59200	-24
0.59567	-29
0.59933	-34
0.60300	-33
0.60667	-29
0.61033	-30
0.61400	-35
0.61767	-41
0.62133	-36
0.62500	-30
0.62867	-27
0.63233	-29
0.63600	-28
0.63967	-25
0.64333	-24
0.64700	-30
0.65067	-39
0.65433	-45
0.65800	-49
0.66167	-51
0.66533	-56
0.66900	-60
0.67267	-58
0.67633	-53
0.68000	-49
0.68367	-48
0.68733	-42
0.69100	-34
0.69467	-26
0.69833	-22
0.70200	-22
0.70567	-25
0.70933	-30
0.71300	-30
0.71667	-28
0.72033	-21
0.72400	-15
0.72767	-10
0.73133	-8
0.73500	-8
0.73867	-16
0.74233	-26
0.74600	-36
0.74967	-42
0.75333	-42
0.75700	-61
0.76067	-65
0.76433	-39
0.76800	-31
0.77167	-35
0.77533	-40
0.77900	-43
0.78267	-46
0.78633	-42
0.79000	-37
0.79367	-40
0.79733	-42
0.80100	-45
0.80467	-35
0.80833	-18
0.81200	-4
0.81567	2
0.81933	-0
0.82300	-7
0.82667	-13
0.83033	-24
0.83400	-38
0.83767	-52
0.84133	-63
0.84500	-71
0.84867	-77
0.85233	-83
0.85600	-86
0.85967	-80
0.86333	-70
0.86700	-63
0.87067	-63
0.87433	-66
0.87800	-71
0.88167	-70
0.88533	-63
0.88900	-57
0.89267	-53
0.89633	-53
0.90000	-55
0.90367	-47
0.90733	-41
0.91100	-40
0.91467	-47
0.91833	-63
0.92200	-75
0.92567	-82
0.92933	-86
0.93300	-88
0.93667	-82
0.94033	-74
0.94400	-66
0.94767	-61
0.95133	-61
0.95500	-61
0.95867	-60
0.96233	-57
0.96600	-52
0.96967	-48
0.97333	-48
0.97700	-56
0.98067	-61
0.98433	-63
0.98800	-69
0.99167	-75
0.99533	-77
0.99900	-79
1.00267	-80
1.00633	-77
1.01000	-65
1.01367	-50
1.01733	-43
1.02100	-42
1.02467	-43
1.02833	-49
1.03200	-57
1.03567	-66
1.03933	-75
1.04300	-84
1.04667	-89
1.05033	-86
1.05400	-76
1.05767	-68
1.06133	-65
1.06500	-62
1.06867	-62
1.07233	-64
1.07600	-59
1.07967	-59
1.08333	-63
1.08700	-73
1.09067	-85
1.09433	-91
1.09800	-92
1.10167	-90
1.10533	-85
1.10900	-73
1.11267	-60
1.11633	-47
1.12000	-37
1.12367	-35
1.12733	-42
1.13100	-51
1.13467	-62
1.13833	-74
1.14200	-86
1.14567	-95
1.14933	-101
1.15300	-98
1.15667	-91
1.16033	-87
1.16400	-87
1.16767	-86
1.17133	-80
1.17500	-74
1.17867	-73
1.18233	-73
1.18600	-78
1.18967	-89
1.19333	-97
1.19700	-97
1.20067	-91
1.20433	-81
1.20800	-73
1.21167	-67
1.21533	-62
1.21900	-62
1.22267	-62
1.22633	-64
1.23000	-71
1.23367	-81
1.23733	-99
1.24100	-115
1.24467	-121
1.24833	-118
1.25200	-111
1.25567	-102
1.25933	-88
1.26300	-80
1.26667	-74
1.27033	-73
1.27400	-77
1.27767	-83
1.28133	-89
1.28500	-89
1.28867	-87
1.29233	-87
1.29600	-85
1.29967	-75
1.30333	-67
1.30700	-67
1.31067	-75
1.31433	-85
1.31800	-93
1.32167	-99
1.32533	-100
1.32900	-102
1.33267	-101
1.33633	-96
1.34000	-91
1.34367	-87
1.34733	-92
1.35100	-96
1.35467	-93
1.35833	-86
1.36200	-83
1.36567	-82
1.36933	-82
1.37300	-78
1.37667	-70
1.38033	-59
1.38400	-56
1.38767	-58
1.39133	-66
1.39500	-83
1.39867	-98
1.40233	-106
1.40600	-108
1.40967	-107
1.41333	-107
1.41700	-106
1.42067	-105
1.42433	-101
1.42800	-95
1.43167	-92
1.43533	-89
1.43900	-74
1.44267	-39
1.44633	104
1.45000	708
1.45367	2633
1.45733	6464
1.46100	11589
1.46467	16801
1.46833	21203
1.47200	24361
1.47567	26010
1.47933	25905
1.48300	24004
1.48667	20680
1.49033	16652
1.49400	12666
1.49767	9221
1.50133	6503
1.50500	4482
1.50867	3039
1.51233	2031
1.51600	1341
1.51967	874
1.52333	559
1.52700	348
1.53067	208
1.53433	121
1.53800	73
1.54167	69
1.54533	159
1.54900	386
1.55267	725
1.55633	1095
1.56000	1423
1.56367	1672
1.56733	1825
1.57100	1850
1.57467	1735
1.57833	1495
1.58200	1184
1.58567	869
1.58933	596
1.59300	383
1.59667	228
1.60033	117
1.60400	39
1.60767	-14
1.61133	-52
1.61500	-78
1.61867	-95
1.62233	-107
1.62600	-118
1.62967	-125
1.63333	-133
1.63700	-137
1.64067	-132
1.64433	-132
1.64800	-128
1.65167	-120
1.65533	-116
1.65900	-118
1.66267	-120
1.66633	-118
1.67000	-109
1.67367	-101
1.67733	-102
1.68100	-112
1.68467	-120
1.68833	-126
1.69200	-127
1.69567	-125
1.69933	-119
1.70300	-113
1.70667	-110
1.71033	-106
1.71400	-99
1.71767	-97
1.72133	-101
1.72500	-107
1.72867	-117
1.73233	-126
1.73600	-133
1.73967	-139
1.74333	-141
1.74700	-136
1.75067	-132
1.75433	-134
1.75800	-135
1.76167	-136
1.76533	-133
1.76900	-132
1.77267	-126
1.77633	-119
1.78000	-108
1.78367	-98
1.78733	-102
1.79100	-105
1.79467	-109
1.79833	-115
1.80200	-120
1.80567	-120
1.80933	-115
1.81300	-114
1.81667	-113
1.82033	-106
1.82400	-100
1.82767	-93
1.83133	-88
1.83500	-84
1.83867	-84
1.84233	-91
1.84600	-100
1.84967	-107
1.85333	-111
1.85700	-113
1.86067	-112
1.86433	-107
1.86800	-108
1.87167	-110
1.87533	-109
1.87900	-108
1.88267	-105
1.88633	-101
1.89000	-97
1.89367	-98
1.89733	-103
1.90100	-108
1.90467	-105
1.90833	-106
1.91200	-114
1.91567	-121
1.91933	-125
1.92300	-132
1.92667	-132
1.93033	-124
1.93400	-111
1.93767	-101
1.94133	-99
1.94500	-100
1.94867	-99
1.95233	-74
1.95600	53
1.95967	790
1.96333	4573
1.96700	19419
1.97067	63769
1.97433	165292
1.97800	344256
1.98167	591145
1.98533	865675
1.98900	1117381
1.99267	1304565
1.99633	1401745
2.00000	1399298
2.00367	1304232
2.00733	1139150
2.01100	936872
2.01467	730617
2.01833	545171
2.02200	393274
2.02567	277150
2.02933	192677
2.03300	133305
2.03667	92511
2.04033	64851
2.04400	46205
2.04767	33626
2.05133	25077
2.05500	19200
2.05867	15103
2.06233	12185
2.06600	10060
2.06967	8472
2.07333	7264
2.07700	6319
2.08067	5563
2.08433	4951
2.08800	4449
2.09167	4031
2.09533	3681
2.09900	3384
2.10267	3128
2.10633	2905
2.11000	2703
2.11367	2514
2.11733	2340
2.12100	2186
2.12467	2048
2.12833	1924
2.13200	1826
2.13567	1734
2.13933	1651
2.14300	1579
2.14667	1521
2.15033	1466
2.15400	1406
2.15767	1343
2.16133	1281
2.16500	1220
2.16867	1160
2.17233	1106
2.17600	1058
2.17967	1019
2.18333	988
2.18700	961
2.19067	932
2.19433	901
2.19800	870
2.20167	835
2.20533	804
2.20900	780
2.21267	757
2.21633	733
2.22000	712
2.22367	696
2.22733	685
2.23100	674
2.23467	663
2.23833	652
2.24200	638
2.24567	621
2.24933	607
2.25300	600
2.25667	593
2.26033	580
2.26400	566
2.26767	558
2.27133	548
2.27500	537
2.27867	527
2.28233	511
2.28600	494
2.28967	475
2.29333	451
2.29700	431
2.30067	422
2.30433	421
2.30800	419
2.31167	412
2.31533	398
2.31900	385
2.32267	378
2.32633	373
2.33000	374
2.33367	377
2.33733	376
2.34100	372
2.34467	365
2.34833	359
2.35200	353
2.35567	346
2.35933	342
2.36300	341
2.36667	335
2.37033	324
2.37400	311
2.37767	302
2.38133	294
2.38500	286
2.38867	268
2.39233	273
2.39600	281
2.39967	285
2.40333	287
2.40700	286
2.41067	284
2.41433	280
2.41800	274
2.42167	271
2.42533	271
2.42900	270
2.43267	268
2.43633	266
2.44000	262
2.44367	257
2.44733	254
2.45100	254
2.45467	253
2.45833	245
2.46200	232
2.46567	222
2.46933	217
2.47300	218
2.47667	218
2.48033	215
2.48400	216
2.48767	217
2.49133	210
2.49500	206
2.49867	207
2.50233	208
2.50600	205
2.50967	202
2.51333	200
2.51700	204
2.52067	206
2.52433	210
2.52800	215
2.53167	215
2.53533	212
2.53900	211
2.54267	214
2.54633	221
2.55000	224
2.55367	222
2.55733	216
2.56100	203
2.56467	190
2.56833	176
2.57200	174
2.57567	168
2.57933	158
2.58300	144
2.58667	135
2.59033	132
2.59400	129
2.59767	124
2.60133	123
2.60500	127
2.60867	135
2.61233	143
2.61600	145
2.61967	145
2.62333	145
2.62700	148
2.63067	151
2.63433	153
2.63800	154
2.64167	154
2.64533	155
2.64900	157
2.65267	157
2.65633	150
2.66000	140
2.66367	121
2.66733	108
2.67100	106
2.67467	113
2.67833	113
2.68200	109
2.68567	110
2.68933	113
2.69300	116
2.69667	117
2.70033	116
2.70400	113
2.70767	116
2.71133	118
2.71500	125
2.71867	129
2.72233	126
2.72600	121
2.72967	113
2.73333	116
2.73700	121
2.74067	117
2.74433	119
2.74800	125
2.75167	127
2.75533	133
2.75900	137
2.76267	136
2.76633	127
2.77000	115
2.77367	103
2.77733	94
2.78100	90
2.78467	94
2.78833	103
2.79200	108
2.79567	111
2.79933	114
2.80300	117
2.80667	118
2.81033	117
2.81400	116
2.81767	118
2.82133	114
2.82500	107
2.82867	101
2.83233	94
2.83600	88
2.83967	82
2.84333	77
2.84700	75
2.85067	79
2.85433	93
2.85800	104
2.86167	105
2.86533	101
2.86900	92
2.87267	87
2.87633	87
2.88000	93
2.88367	101
2.88733	105
2.89100	104
2.89467	96
2.89833	89
2.90200	87
2.90567	94
2.90933	102
2.91300	108
2.91667	109
2.92033	104
2.92400	95
2.92767	89
2.93133	84
2.93500	81
2.93867	82
2.94233	79
2.94600	72
2.94967	67
2.95333	69
2.95700	73
2.96067	76
2.96433	76
2.96800	74
2.97167	73
2.97533	73
2.97900	79
2.98267	82
2.98633	77
2.99000	71
2.99367	70
2.99733	74
3.00100	81
3.00467	90
3.00833	97
3.01200	101
3.01567	105
3.01933	104
3.02300	99
3.02667	98
3.03033	98
3.03400	94
3.03767	90
3.04133	85
3.04500	76
3.04867	73
3.05233	73
3.05600	75
3.05967	74
3.06333	72
3.06700	64
3.07067	55
3.07433	51
3.07800	55
3.08167	63
3.08533	66
3.08900	61
3.09267	54
3.09633	51
3.10000	55
3.10367	64
3.10733	74
3.11100	76
3.11467	72
3.11833	65
3.12200	57
3.12567	50
3.12933	44
3.13300	43
3.13667	46
3.14033	52
3.14400	59
3.14767	63
3.15133	64
3.15500	66
3.15867	69
3.16233	70
3.16600	71
3.16967	66
3.17333	60
3.17700	55
3.18067	54
3.18433	58
3.18800	59
3.19167	51
3.19533	53
3.19900	55
3.20267	51
3.20633	58
3.21000	66
3.21367	63
3.21733	56
3.22100	54
3.22467	51
3.22833	48
3.23200	46
3.23567	45
3.23933	42
3.24300	37
3.24667	34
3.25033	36
3.25400	40
3.25767	39
3.26133	41
3.26500	52
3.26867	61
3.27233	60
3.27600	54
3.27967	50
3.28333	48
3.28700	46
3.29067	40
3.29433	34
3.29800	36
3.30167	37
3.30533	37
3.30900	37
3.31267	36
3.31633	40
3.32000	45
3.32367	47
3.32733	46
3.33100	44
3.33467	43
3.33833	46
3.34200	50
3.34567	46
3.34933	38
3.35300	37
3.35667	41
3.36033	45
3.36400	49
3.36767	56
3.37133	60
3.37500	54
3.37867	43
3.38233	34
3.38600	25
3.38967	22
3.39333	24
3.39700	30
3.40067	41
3.40433	51
3.40800	55
3.41167	57
3.41533	55
3.41900	50
3.42267	39
3.42633	25
3.43000	12
3.43367	7
3.43733	10
3.44100	16
3.44467	25
3.44833	29
3.45200	29
3.45567	30
3.45933	31
3.46300	31
3.46667	29
3.47033	27
3.47400	24
3.47767	23
3.48133	25
3.48500	25
3.48867	23
3.49233	20
3.49600	16
3.49967	12
3.50333	12
3.50700	14
3.51067	25
3.51433	29
3.51800	25
3.52167	20
3.52533	15
3.52900	5
3.53267	-3
3.53633	-5
3.54000	-6
3.54367	-7
3.54733	-4
3.55100	-1
3.55467	1
3.55833	3
3.56200	8
3.56567	10
3.56933	11
3.57300	14
3.57667	19
3.58033	22
3.58400	22
3.58767	17
3.59133	16
3.59500	21
3.59867	24
3.60233	27
3.60600	29
3.60967	29
3.61333	32
3.61700	33
3.62067	33
3.62433	29
3.62800	20
3.63167	11
3.63533	4
3.63900	-0
3.64267	-11
3.64633	-35
3.65000	-54
3.65367	-58
3.65733	-53
3.66100	-33
3.66467	-19
3.66833	-10
3.67200	-13
3.67567	-23
3.67933	-27
3.68300	-23
3.68667	-20
3.69033	-9
3.69400	3
3.69767	20
3.70133	22
3.70500	18
3.70867	14
3.71233	2
3.71600	-5
3.71967	-1
3.72333	-4
3.72700	-4
3.73067	-9
3.73433	-17
3.73800	-23
3.74167	-24
3.74533	-21
3.74900	-12
3.75267	0
3.75633	10
3.76000	14
3.76367	14
3.76733	13
3.77100	8
3.77467	-0
3.77833	-15
3.78200	-32
3.78567	-38
3.78933	-37
3.79300	-38
3.79667	-38
3.80033	-37
3.80400	-35
3.80767	-30
3.81133	-20
3.81500	-13
3.81867	-8
3.82233	-4
3.82600	-5
3.82967	-14
3.83333	-22
3.83700	-29
3.84067	-34
3.84433	-33
3.84800	-26
3.85167	-16
3.85533	-11
3.85900	-9
3.86267	-10
3.86633	-17
3.87000	-21
3.87367	-19
3.87733	-16
3.88100	-17
3.88467	-20
3.88833	-19
3.89200	-15
3.89567	-17
3.89933	-21
3.90300	-21
3.90667	-16
3.91033	-21
3.91400	-37
3.91767	-46
3.92133	-32
3.92500	-7
3.92867	0
3.93233	-1
3.93600	-3
3.93967	-14
3.94333	-26
3.94700	-32
3.95067	-30
3.95433	-23
3.95800	-19
3.96167	-22
3.96533	-27
3.96900	-33
3.97267	-45
3.97633	-55
3.98000	-61
3.98367	-63
3.98733	-58
3.99100	-48
3.99467	-41
3.99833	-38

[Chromatogram (Ch2)]
Interval(msec)	220
# of Points	1091
Start Time(min)	0.002
End Time(min)	3.998
R.Time (min)	Intensity
0.00167	-1
0.00533	-1
0.00900	-1
0.01267	-0
0.01633	0
0.02000	0
0.02367	1
0.02733	1
0.03100	2
0.03467	2
0.03833	3
0.04200	3
0.04567	4
0.04933	4
0.05300	4
0.05667	5
0.06033	4
0.06400	4
0.06767	4
0.07133	3
0.07500	3
0.07867	3
0.08233	3
0.08600	2
0.08967	2
0.09333	2
0.09700	1
0.10067	1
0.10433	1
0.10800	0
0.11167	-0
0.11533	-1
0.11900	-1
0.12267	-1
0.12633	-1
0.13000	-1
0.13367	-2
0.13733	-2
0.14100	-2
0.14467	-2
0.14833	-2
0.15200	-2
0.15567	-2
0.15933	-2
0.16300	-2
0.16667	-2
0.17033	-2
0.17400	-2
0.17767	-1
0.18133	-1
0.18500	-1
0.18867	-1
0.19233	-1
0.19600	-1
0.19967	-1
0.20333	-1
0.20700	-1
0.21067	-1
0.21433	-1
0.21800	-0
0.22167	-0
0.22533	0
0.22900	0
0.23267	0
0.23633	0
0.24000	0
0.24367	0
0.24733	0
0.25100	0
0.25467	0
0.25833	0
0.26200	0
0.26567	-0
0.26933	-0
0.27300	-0
0.27667	-1
0.28033	-1
0.28400	-1
0.28767	-1
0.29133	-1
0.29500	-1
0.29867	-1
0.30233	-1
0.30600	-1
0.30967	-1
0.31333	-1
0.31700	-1
0.32067	-1
0.32433	-1
0.32800	-1
0.33167	-1
0.33533	-1
0.33900	-2
0.34267	-2
0.34633	-2
0.35000	-2
0.35367	-2
0.35733	-2
0.36100	-2
0.36467	-2
0.36833	-1
0.37200	-1
0.37567	-1
0.37933	-1
0.38300	-1
0.38667	-0
0.39033	-0
0.39400	0
0.39767	0
0.40133	0
0.40500	0
0.40867	0
0.41233	-0
0.41600	-0
0.41967	-0
0.42333	-1
0.42700	-1
0.43067	-1
0.43433	-1
0.43800	-1
0.44167	-2
0.44533	-2
0.44900	-3
0.45267	-3
0.45633	-4
0.46000	-4
0.46367	-4
0.46733	-5
0.47100	-5
0.47467	-5
0.47833	-5
0.48200	-5
0.48567	-5
0.48933	-5
0.49300	-4
0.49667	-4
0.50033	-4
0.50400	-3
0.50767	-3
0.51133	-3
0.51500	-3
0.51867	-2
0.52233	-2
0.52600	-2
0.52967	-2
0.53333	-2
0.53700	-2
0.54067	-2
0.54433	-2
0.54800	-1
0.55167	-1
0.55533	-1
0.55900	-1
0.56267	-1
0.56633	-0
0.57000	-0
0.57367	0
0.57733	0
0.58100	0
0.58467	0
0.58833	0
0.59200	-0
0.59567	-1
0.59933	-1
0.60300	-2
0.60667	-2
0.61033	-2
0.61400	-3
0.61767	-3
0.62133	-3
0.62500	-3
0.62867	-2
0.63233	-2
0.63600	-2
0.63967	-1
0.64333	-1
0.64700	-1
0.65067	-1
0.65433	-1
0.65800	-1
0.66167	-1
0.66533	-1
0.66900	-1
0.67267	-1
0.67633	-1
0.68000	-2
0.68367	-2
0.68733	-2
0.69100	-2
0.69467	-2
0.69833	-2
0.70200	-2
0.70567	-2
0.70933	-2
0.71300	-2
0.71667	-2
0.72033	-2
0.72400	-2
0.72767	-2
0.73133	-2
0.73500	-2
0.73867	-3
0.74233	-3
0.74600	-3
0.74967	-3
0.75333	-3
0.75700	-3
0.76067	-3
0.76433	-3
0.76800	-3
0.77167	-3
0.77533	-3
0.77900	-3
0.78267	-2
0.78633	-2
0.79000	-2
0.79367	-1
0.79733	-1
0.80100	-1
0.80467	-1
0.80833	-1
0.81200	-0
0.81567	-0
0.81933	0
0.82300	0
0.82667	1
0.83033	1
0.83400	0
0.83767	0
0.84133	0
0.84500	-0
0.84867	-0
0.85233	-1
0.85600	-1
0.85967	-1
0.86333	-1
0.86700	-1
0.87067	-1
0.87433	-1
0.87800	-1
0.88167	-1
0.88533	-0
0.88900	-0
0.89267	-0
0.89633	-1
0.90000	-1
0.90367	-1
0.90733	-1
0.91100	-2
0.91467	-2
0.91833	-2
0.92200	-3
0.92567	-3
0.92933	-3
0.93300	-4
0.93667	-4
0.94033	-4
0.94400	-4
0.94767	-4
0.95133	-4
0.95500	-4
0.95867	-4
0.96233	-4
0.96600	-4
0.96967	-4
0.97333	-4
0.97700	-4
0.98067	-3
0.98433	-3
0.98800	-3
0.99167	-3
0.99533	-2
0.99900	-1
1.00267	-1
1.00633	-0
1.01000	-0
1.01367	0
1.01733	0
1.02100	0
1.02467	0
1.02833	-0
1.03200	-0
1.03567	-0
1.03933	-1
1.04300	-1
1.04667	-1
1.05033	-2
1.05400	-2
1.05767	-2
1.06133	-2
1.06500	-2
1.06867	-2
1.07233	-2
1.07600	-1
1.07967	-1
1.08333	-1
1.08700	-1
1.09067	-1
1.09433	-1
1.09800	-0
1.10167	-0
1.10533	-0
1.10900	-0
1.11267	-0
1.11633	-0
1.12000	-0
1.12367	0
1.12733	0
1.13100	1
1.13467	1
1.13833	1
1.14200	2
1.14567	2
1.14933	2
1.15300	2
1.15667	2
1.16033	2
1.16400	2
1.16767	2
1.17133	3
1.17500	2
1.17867	2
1.18233	2
1.18600	2
1.18967	2
1.19333	2
1.19700	2
1.20067	1
1.20433	1
1.20800	1
1.21167	1
1.21533	0
1.21900	0
1.22267	0
1.22633	0
1.23000	-0
1.23367	-0
1.23733	-0
1.24100	-0
1.24467	-0
1.24833	-0
1.25200	-0
1.25567	-0
1.25933	-0
1.26300	-0
1.26667	-1
1.27033	-1
1.27400	-1
1.27767	-1
1.28133	-2
1.28500	-2
1.28867	-2
1.29233	-3
1.29600	-3
1.29967	-3
1.30333	-4
1.30700	-4
1.31067	-5
1.31433	-5
1.31800	-5
1.32167	-5
1.32533	-5
1.32900	-5
1.33267	-5
1.33633	-5
1.34000	-5
1.34367	-5
1.34733	-5
1.35100	-5
1.35467	-5
1.35833	-5
1.36200	-5
1.36567	-5
1.36933	-5
1.37300	-5
1.37667	-5
1.38033	-4
1.38400	-4
1.38767	-3
1.39133	-3
1.39500	-2
1.39867	-2
1.40233	-1
1.40600	-0
1.40967	0
1.41333	1
1.41700	1
1.42067	2
1.42433	2
1.42800	2
1.43167	2
1.43533	2
1.43900	2
1.44267	2
1.44633	2
1.45000	1
1.45367	1
1.45733	0
1.46100	-0
1.46467	-1
1.46833	-1
1.47200	-1
1.47567	-1
1.47933	-1
1.48300	-1
1.48667	-1
1.49033	-1
1.49400	-1
1.49767	-2
1.50133	-2
1.50500	-3
1.50867	-3
1.51233	-3
1.51600	-4
1.51967	-4
1.52333	-5
1.52700	-5
1.53067	-5
1.53433	-6
1.53800	-6
1.54167	-6
1.54533	-7
1.54900	-6
1.55267	-6
1.55633	-5
1.56000	-5
1.56367	-4
1.56733	-4
1.57100	-3
1.57467	-3
1.57833	-3
1.58200	-3
1.58567	-3
1.58933	-3
1.59300	-4
1.59667	-4
1.60033	-5
1.60400	-6
1.60767	-7
1.61133	-9
1.61500	-11
1.61867	-13
1.62233	-16
1.62600	-18
1.62967	-22
1.63333	-25
1.63700	-28
1.64067	-32
1.64433	-35
1.64800	-39
1.65167	-43
1.65533	-47
1.65900	-50
1.66267	-54
1.66633	-57
1.67000	-61
1.67367	-65
1.67733	-69
1.68100	-74
1.68467	-79
1.68833	-83
1.69200	-87
1.69567	-91
1.69933	-95
1.70300	-97
1.70667	-100
1.71033	-102
1.71400	-104
1.71767	-105
1.72133	-106
1.72500	-106
1.72867	-107
1.73233	-107
1.73600	-106
1.73967	-106
1.74333	-105
1.74700	-105
1.75067	-104
1.75433	-104
1.75800	-104
1.76167	-105
1.76533	-106
1.76900	-108
1.77267	-109
1.77633	-110
1.78000	-112
1.78367	-112
1.78733	-113
1.79100	-113
1.79467	-113
1.79833	-113
1.80200	-113
1.80567	-113
1.80933	-113
1.81300	-113
1.81667	-113
1.82033	-114
1.82400	-114
1.82767	-115
1.83133	-115
1.83500	-116
1.83867	-116
1.84233	-116
1.84600	-116
1.84967	-116
1.85333	-116
1.85700	-116
1.86067	-115
1.86433	-115
1.86800	-115
1.87167	-114
1.87533	-114
1.87900	-114
1.88267	-115
1.88633	-115
1.89000	-115
1.89367	-115
1.89733	-114
1.90100	-114
1.90467	-113
1.90833	-113
1.91200	-112
1.91567	-112
1.91933	-111
1.92300	-111
1.92667	-110
1.93033	-110
1.93400	-110
1.93767	-110
1.94133	-110
1.94500	-110
1.94867	-110
1.95233	-110
1.95600	-110
1.95967	-110
1.96333	-110
1.96700	-110
1.97067	-110
1.97433	-109
1.97800	-109
1.98167	-109
1.98533	-109
1.98900	-110
1.99267	-110
1.99633	-110
2.00000	-109
2.00367	-109
2.00733	-108
2.01100	-107
2.01467	-107
2.01833	-106
2.02200	-106
2.02567	-106
2.02933	-106
2.03300	-105
2.03667	-105
2.04033	-104
2.04400	-104
2.04767	-104
2.05133	-103
2.05500	-103
2.05867	-103
2.06233	-102
2.06600	-102
2.06967	-101
2.07333	-100
2.07700	-100
2.08067	-100
2.08433	-99
2.08800	-99
2.09167	-99
2.09533	-99
2.09900	-99
2.10267	-98
2.10633	-98
2.11000	-97
2.11367	-97
2.11733	-96
2.12100	-96
2.12467	-95
2.12833	-95
2.13200	-95
2.13567	-95
2.13933	-94
2.14300	-94
2.14667	-94
2.15033	-93
2.15400	-93
2.15767	-92
2.16133	-92
2.16500	-92
2.16867	-92
2.17233	-93
2.17600	-93
2.17967	-93
2.18333	-93
2.18700	-93
2.19067	-93
2.19433	-94
2.19800	-94
2.20167	-93
2.20533	-92
2.20900	-91
2.21267	-90
2.21633	-89
2.22000	-88
2.22367	-87
2.22733	-87
2.23100	-87
2.23467	-88
2.23833	-88
2.24200	-88
2.24567	-87
2.24933	-87
2.25300	-86
2.25667	-85
2.26033	-84
2.26400	-83
2.26767	-83
2.27133	-82
2.27500	-82
2.27867	-81
2.28233	-81
2.28600	-81
2.28967	-81
2.29333	-81
2.29700	-81
2.30067	-81
2.30433	-81
2.30800	-81
2.31167	-81
2.31533	-81
2.31900	-80
2.32267	-80
2.32633	-80
2.33000	-79
2.33367	-79
2.33733	-78
2.34100	-77
2.34467	-77
2.34833	-76
2.35200	-75
2.35567	-74
2.35933	-73
2.36300	-72
2.36667	-70
2.37033	-68
2.37400	-66
2.37767	-63
2.38133	-60
2.38500	-57
2.38867	-53
2.39233	-49
2.39600	-44
2.39967	-39
2.40333	-35
2.40700	-31
2.41067	-27
2.41433	-23
2.41800	-21
2.42167	-18
2.42533	-16
2.42900	-14
2.43267	-13
2.43633	-11
2.44000	-9
2.44367	-8
2.44733	-7
2.45100	-7
2.45467	-7
2.45833	-7
2.46200	-6
2.46567	-5
2.46933	-4
2.47300	-4
2.47667	-2
2.48033	-1
2.48400	0
2.48767	2
2.49133	3
2.49500	4
2.49867	5
2.50233	6
2.50600	7
2.50967	8
2.51333	8
2.51700	9
2.52067	10
2.52433	10
2.52800	11
2.53167	11
2.53533	11
2.53900	12
2.54267	13
2.54633	13
2.55000	14
2.55367	14
2.55733	15
2.56100	15
2.56467	15
2.56833	15
2.57200	14
2.57567	14
2.57933	13
2.58300	13
2.58667	13
2.59033	13
2.59400	13
2.59767	13
2.60133	14
2.60500	14
2.60867	15
2.61233	15
2.61600	16
2.61967	16
2.62333	16
2.62700	16
2.63067	16
2.63433	16
2.63800	15
2.64167	15
2.64533	15
2.64900	15
2.65267	15
2.65633	16
2.66000	16
2.66367	17
2.66733	17
2.67100	18
2.67467	18
2.67833	19
2.68200	19
2.68567	20
2.68933	21
2.69300	21
2.69667	22
2.70033	22
2.70400	22
2.70767	22
2.71133	22
2.71500	22
2.71867	22
2.72233	23
2.72600	23
2.72967	23
2.73333	24
2.73700	24
2.74067	24
2.74433	24
2.74800	24
2.75167	25
2.75533	25
2.75900	25
2.76267	26
2.76633	26
2.77000	27
2.77367	27
2.77733	27
2.78100	27
2.78467	27
2.78833	26
2.79200	25
2.79567	25
2.79933	24
2.80300	24
2.80667	24
2.81033	24
2.81400	24
2.81767	25
2.82133	25
2.82500	25
2.82867	25
2.83233	26
2.83600	26
2.83967	26
2.84333	25
2.84700	23
2.85067	20
2.85433	14
2.85800	6
2.86167	-6
2.86533	-21
2.86900	-40
2.87267	-64
2.87633	-92
2.88000	-125
2.88367	-162
2.88733	-203
2.89100	-247
2.89467	-295
2.89833	-345
2.90200	-397
2.90567	-451
2.90933	-505
2.91300	-561
2.91667	-616
2.92033	-671
2.92400	-725
2.92767	-777
2.93133	-828
2.93500	-879
2.93867	-934
2.94233	-993
2.94600	-1047
2.94967	-1087
2.95333	-1104
2.95700	-1095
2.96067	-1061
2.96433	-1008
2.96800	-940
2.97167	-864
2.97533	-784
2.97900	-703
2.98267	-625
2.98633	-551
2.99000	-482
2.99367	-420
2.99733	-364
3.00100	-314
3.00467	-270
3.00833	-231
3.01200	-197
3.01567	-167
3.01933	-141
3.02300	-119
3.02667	-100
3.03033	-83
3.03400	-69
3.03767	-57
3.04133	-47
3.04500	-38
3.04867	-30
3.05233	-24
3.05600	-18
3.05967	-14
3.06333	-10
3.06700	-6
3.07067	-3
3.07433	-1
3.07800	1
3.08167	3
3.08533	5
3.08900	6
3.09267	8
3.09633	9
3.10000	10
3.10367	11
3.10733	12
3.11100	12
3.11467	13
3.11833	13
3.12200	13
3.12567	14
3.12933	14
3.13300	15
3.13667	15
3.14033	15
3.14400	16
3.14767	16
3.15133	16
3.15500	17
3.15867	17
3.16233	17
3.16600	18
3.16967	18
3.17333	18
3.17700	18
3.18067	18
3.18433	19
3.18800	19
3.19167	19
3.19533	19
3.19900	20
3.20267	20
3.20633	21
3.21000	21
3.21367	22
3.21733	22
3.22100	22
3.22467	22
3.22833	23
3.23200	23
3.23567	23
3.23933	23
3.24300	23
3.24667	23
3.25033	23
3.25400	23
3.25767	23
3.26133	23
3.26500	23
3.26867	23
3.27233	23
3.27600	23
3.27967	23
3.28333	23
3.28700	23
3.29067	23
3.29433	23
3.29800	24
3.30167	24
3.30533	24
3.30900	24
3.31267	24
3.31633	24
3.32000	24
3.32367	24
3.32733	24
3.33100	24
3.33467	25
3.33833	25
3.34200	25
3.34567	25
3.34933	26
3.35300	26
3.35667	26
3.36033	26
3.36400	26
3.36767	27
3.37133	27
3.37500	27
3.37867	27
3.38233	27
3.38600	27
3.38967	27
3.39333	27
3.39700	26
3.40067	26
3.40433	26
3.40800	26
3.41167	26
3.41533	25
3.41900	25
3.42267	25
3.42633	25
3.43000	25
3.43367	24
3.43733	24
3.44100	24
3.44467	25
3.44833	25
3.45200	25
3.45567	25
3.45933	25
3.46300	26
3.46667	26
3.47033	25
3.47400	25
3.47767	25
3.48133	25
3.48500	25
3.48867	25
3.49233	25
3.49600	25
3.49967	25
3.50333	25
3.50700	25
3.51067	25
3.51433	25
3.51800	25
3.52167	25
3.52533	25
3.52900	25
3.53267	25
3.53633	26
3.54000	26
3.54367	26
3.54733	27
3.55100	27
3.55467	28
3.55833	28
3.56200	28
3.56567	28
3.56933	28
3.57300	28
3.57667	28
3.58033	28
3.58400	28
3.58767	28
3.59133	28
3.59500	28
3.59867	28
3.60233	28
3.60600	28
3.60967	28
3.61333	29
3.61700	29
3.62067	29
3.62433	29
3.62800	29
3.63167	29
3.63533	29
3.63900	29
3.64267	29
3.64633	29
3.65000	29
3.65367	29
3.65733	29
3.66100	29
3.66467	28
3.66833	28
3.67200	28
3.67567	28
3.67933	27
3.68300	27
3.68667	27
3.69033	27
3.69400	27
3.69767	26
3.70133	26
3.70500	26
3.70867	26
3.71233	26
3.71600	26
3.71967	26
3.72333	26
3.72700	26
3.73067	26
3.73433	26
3.73800	25
3.74167	25
3.74533	25
3.74900	25
3.75267	25
3.75633	25
3.76000	25
3.76367	25
3.76733	25
3.77100	25
3.77467	25
3.77833	25
3.78200	26
3.78567	26
3.78933	26
3.79300	26
3.79667	27
3.80033	27
3.80400	26
3.80767	26
3.81133	26
3.81500	26
3.81867	26
3.82233	26
3.82600	26
3.82967	26
3.83333	26
3.83700	26
3.84067	26
3.84433	26
3.84800	27
3.85167	27
3.85533	27
3.85900	27
3.86267	27
3.86633	27
3.87000	27
3.87367	27
3.87733	27
3.88100	27
3.88467	27
3.88833	27
3.89200	27
3.89567	27
3.89933	27
3.90300	27
3.90667	27
3.91033	27
3.91400	27
3.91767	28
3.92133	28
3.92500	28
3.92867	27
3.93233	27
3.93600	27
3.93967	27
3.94333	27
3.94700	27
3.95067	27
3.95433	27
3.95800	27
3.96167	27
3.96533	26
3.96900	26
3.97267	26
3.97633	26
3.98000	26
3.98367	26
3.98733	26
3.99100	26
3.99467	26
3.99833	26

[Chromatogram (Ch3)]
Interval(msec)	220
# of Points	1091
Start Time(min)	0.002
End Time(min)	3.998
R.Time (min)	Intensity
0.00167	1
0.00533	2
0.00900	1
0.01267	0
0.01633	0
0.02000	0
0.02367	0
0.02733	-0
0.03100	-0
0.03467	-1
0.03833	-1
0.04200	-1
0.04567	1
0.04933	3
0.05300	4
0.05667	4
0.06033	4
0.06400	4
0.06767	4
0.07133	3
0.07500	2
0.07867	1
0.08233	-0
0.08600	0
0.08967	-1
0.09333	-2
0.09700	-3
0.10067	-4
0.10433	-5
0.10800	-4
0.11167	-2
0.11533	-1
0.11900	1
0.12267	3
0.12633	3
0.13000	2
0.13367	2
0.13733	4
0.14100	6
0.14467	7
0.14833	7
0.15200	7
0.15567	5
0.15933	4
0.16300	3
0.16667	2
0.17033	1
0.17400	1
0.17767	2
0.18133	2
0.18500	-1
0.18867	-2
0.19233	-1
0.19600	-0
0.19967	-1
0.20333	-1
0.20700	-0
0.21067	1
0.21433	1
0.21800	0
0.22167	-1
0.22533	-1
0.22900	0
0.23267	1
0.23633	2
0.24000	3
0.24367	3
0.24733	4
0.25100	3
0.25467	1
0.25833	-3
0.26200	-6
0.26567	-5
0.26933	-5
0.27300	-5
0.27667	-4
0.28033	-2
0.28400	-1
0.28767	-1
0.29133	-1
0.29500	-3
0.29867	-6
0.30233	-8
0.30600	-8
0.30967	-6
0.31333	-3
0.31700	-3
0.32067	-5
0.32433	-6
0.32800	-6
0.33167	-6
0.33533	-5
0.33900	-3
0.34267	-1
0.34633	-0
0.35000	-1
0.35367	-1
0.35733	-2
0.36100	-1
0.36467	-0
0.36833	1
0.37200	1
0.37567	-1
0.37933	-1
0.38300	-1
0.38667	-1
0.39033	-2
0.39400	-4
0.39767	-5
0.40133	-5
0.40500	-3
0.40867	-2
0.41233	1
0.41600	3
0.41967	4
0.42333	5
0.42700	4
0.43067	2
0.43433	1
0.43800	0
0.44167	-2
0.44533	-4
0.44900	-5
0.45267	-5
0.45633	-5
0.46000	-4
0.46367	-4
0.46733	-3
0.47100	-3
0.47467	-2
0.47833	-1
0.48200	-2
0.48567	-3
0.48933	-2
0.49300	-1
0.49667	2
0.50033	2
0.50400	1
0.50767	-2
0.51133	-3
0.51500	1
0.51867	5
0.52233	6
0.52600	4
0.52967	3
0.53333	3
0.53700	2
0.54067	2
0.54433	1
0.54800	-0
0.55167	-2
0.55533	-2
0.55900	-1
0.56267	-2
0.56633	-2
0.57000	-1
0.57367	-2
0.57733	-3
0.58100	-4
0.58467	-4
0.58833	-4
0.59200	-6
0.59567	-7
0.59933	-5
0.60300	-2
0.60667	-0
0.61033	-0
0.61400	0
0.61767	1
0.62133	3
0.62500	4
0.62867	2
0.63233	0
0.63600	-0
0.63967	1
0.64333	0
0.64700	1
0.65067	0
0.65433	-1
0.65800	-0
0.66167	-0
0.66533	-1
0.66900	-0
0.67267	-1
0.67633	-2
0.68000	-2
0.68367	-0
0.68733	-1
0.69100	-2
0.69467	-1
0.69833	-2
0.70200	-1
0.70567	0
0.70933	2
0.71300	4
0.71667	3
0.72033	2
0.72400	2
0.72767	4
0.73133	5
0.73500	5
0.73867	4
0.74233	3
0.74600	1
0.74967	-0
0.75333	1
0.75700	1
0.76067	2
0.76433	5
0.76800	5
0.77167	4
0.77533	4
0.77900	2
0.78267	-1
0.78633	-2
0.79000	-1
0.79367	1
0.79733	1
0.80100	1
0.80467	2
0.80833	3
0.81200	3
0.81567	5
0.81933	6
0.82300	6
0.82667	6
0.83033	6
0.83400	6
0.83767	5
0.84133	4
0.84500	3
0.84867	4
0.85233	5
0.85600	5
0.85967	5
0.86333	3
0.86700	4
0.87067	7
0.87433	8
0.87800	6
0.88167	6
0.88533	7
0.88900	8
0.89267	7
0.89633	6
0.90000	5
0.90367	4
0.90733	3
0.91100	4
0.91467	5
0.91833	6
0.92200	7
0.92567	7
0.92933	7
0.93300	7
0.93667	5
0.94033	3
0.94400	4
0.94767	6
0.95133	8
0.95500	10
0.95867	9
0.96233	8
0.96600	7
0.96967	6
0.97333	8
0.97700	8
0.98067	7
0.98433	8
0.98800	8
0.99167	7
0.99533	5
0.99900	5
1.00267	5
1.00633	5
1.01000	4
1.01367	5
1.01733	6
1.02100	9
1.02467	9
1.02833	8
1.03200	7
1.03567	6
1.03933	2
1.04300	-1
1.04667	-1
1.05033	3
1.05400	6
1.05767	5
1.06133	5
1.06500	5
1.06867	3
1.07233	2
1.07600	3
1.07967	4
1.08333	6
1.08700	7
1.09067	9
1.09433	9
1.09800	8
1.10167	7
1.10533	8
1.10900	9
1.11267	9
1.11633	7
1.12000	7
1.12367	6
1.12733	5
1.13100	5
1.13467	6
1.13833	6
1.14200	7
1.14567	7
1.14933	7
1.15300	7
1.15667	7
1.16033	8
1.16400	9
1.16767	8
1.17133	9
1.17500	9
1.17867	9
1.18233	9
1.18600	8
1.18967	7
1.19333	7
1.19700	7
1.20067	7
1.20433	5
1.20800	4
1.21167	3
1.21533	4
1.21900	6
1.22267	9
1.22633	9
1.23000	8
1.23367	7
1.23733	7
1.24100	7
1.24467	8
1.24833	7
1.25200	6
1.25567	7
1.25933	9
1.26300	10
1.26667	10
1.27033	10
1.27400	10
1.27767	10
1.28133	10
1.28500	9
1.28867	8
1.29233	7
1.29600	7
1.29967	9
1.30333	8
1.30700	8
1.31067	9
1.31433	10
1.31800	11
1.32167	11
1.32533	8
1.32900	7
1.33267	6
1.33633	5
1.34000	7
1.34367	8
1.34733	9
1.35100	9
1.35467	10
1.35833	10
1.36200	10
1.36567	9
1.36933	7
1.37300	5
1.37667	5
1.38033	4
1.38400	4
1.38767	4
1.39133	4
1.39500	5
1.39867	6
1.40233	7
1.40600	8
1.40967	7
1.41333	8
1.41700	8
1.42067	8
1.42433	8
1.42800	8
1.43167	8
1.43533	6
1.43900	7
1.44267	7
1.44633	7
1.45000	7
1.45367	6
1.45733	4
1.46100	4
1.46467	5
1.46833	7
1.47200	6
1.47567	5
1.47933	4
1.48300	2
1.48667	2
1.49033	1
1.49400	2
1.49767	3
1.50133	4
1.50500	4
1.50867	6
1.51233	6
1.51600	5
1.51967	6
1.52333	7
1.52700	10
1.53067	11
1.53433	12
1.53800	13
1.54167	13
1.54533	12
1.54900	10
1.55267	9
1.55633	8
1.56000	9
1.56367	10
1.56733	10
1.57100	10
1.57467	10
1.57833	9
1.58200	10
1.58567	11
1.58933	12
1.59300	11
1.59667	11
1.60033	10
1.60400	9
1.60767	10
1.61133	10
1.61500	11
1.61867	13
1.62233	16
1.62600	18
1.62967	19
1.63333	19
1.63700	17
1.64067	15
1.64433	13
1.64800	11
1.65167	10
1.65533	12
1.65900	15
1.66267	16
1.66633	17
1.67000	17
1.67367	16
1.67733	16
1.68100	16
1.68467	17
1.68833	19
1.69200	19
1.69567	19
1.69933	19
1.70300	20
1.70667	21
1.71033	23
1.71400	23
1.71767	23
1.72133	23
1.72500	24
1.72867	22
1.73233	21
1.73600	23
1.73967	25
1.74333	24
1.74700	25
1.75067	27
1.75433	27
1.75800	26
1.76167	27
1.76533	30
1.76900	33
1.77267	33
1.77633	33
1.78000	33
1.78367	35
1.78733	36
1.79100	37
1.79467	37
1.79833	36
1.80200	34
1.80567	33
1.80933	32
1.81300	34
1.81667	35
1.82033	35
1.82400	35
1.82767	36
1.83133	39
1.83500	41
1.83867	42
1.84233	42
1.84600	41
1.84967	42
1.85333	43
1.85700	45
1.86067	46
1.86433	46
1.86800	46
1.87167	45
1.87533	46
1.87900	48
1.88267	50
1.88633	51
1.89000	52
1.89367	52
1.89733	51
1.90100	51
1.90467	52
1.90833	53
1.91200	55
1.91567	58
1.91933	60
1.92300	61
1.92667	63
1.93033	64
1.93400	63
1.93767	61
1.94133	59
1.94500	58
1.94867	59
1.95233	62
1.95600	64
1.95967	65
1.96333	66
1.96700	65
1.97067	67
1.97433	68
1.97800	70
1.98167	71
1.98533	71
1.98900	70
1.99267	71
1.99633	73
2.00000	74
2.00367	74
2.00733	76
2.01100	78
2.01467	80
2.01833	83
2.02200	85
2.02567	86
2.02933	87
2.03300	88
2.03667	90
2.04033	91
2.04400	92
2.04767	94
2.05133	94
2.05500	94
2.05867	95
2.06233	97
2.06600	99
2.06967	100
2.07333	101
2.07700	102
2.08067	102
2.08433	102
2.08800	103
2.09167	104
2.09533	107
2.09900	110
2.10267	112
2.10633	114
2.11000	116
2.11367	118
2.11733	120
2.12100	120
2.12467	120
2.12833	119
2.13200	121
2.13567	122
2.13933	121
2.14300	123
2.14667	125
2.15033	128
2.15400	131
2.15767	135
2.16133	137
2.16500	139
2.16867	141
2.17233	143
2.17600	143
2.17967	144
2.18333	146
2.18700	147
2.19067	147
2.19433	145
2.19800	145
2.20167	146
2.20533	146
2.20900	148
2.21267	152
2.21633	154
2.22000	156
2.22367	158
2.22733	161
2.23100	163
2.23467	165
2.23833	167
2.24200	170
2.24567	172
2.24933	173
2.25300	174
2.25667	174
2.26033	174
2.26400	175
2.26767	178
2.27133	180
2.27500	181
2.27867	184
2.28233	186
2.28600	187
2.28967	188
2.29333	189
2.29700	193
2.30067	196
2.30433	199
2.30800	202
2.31167	204
2.31533	206
2.31900	207
2.32267	207
2.32633	206
2.33000	206
2.33367	208
2.33733	211
2.34100	214
2.34467	217
2.34833	221
2.35200	222
2.35567	224
2.35933	226
2.36300	228
2.36667	229
2.37033	228
2.37400	230
2.37767	234
2.38133	235
2.38500	234
2.38867	233
2.39233	231
2.39600	232
2.39967	235
2.40333	239
2.40700	243
2.41067	246
2.41433	247
2.41800	249
2.42167	252
2.42533	253
2.42900	254
2.43267	256
2.43633	255
2.44000	258
2.44367	322
2.44733	485
2.45100	658
2.45467	800
2.45833	880
2.46200	886
2.46567	845
2.46933	791
2.47300	742
2.47667	709
2.48033	682
2.48400	648
2.48767	603
2.49133	551
2.49500	502
2.49867	463
2.50233	433
2.50600	414
2.50967	407
2.51333	409
2.51700	423
2.52067	445
2.52433	469
2.52800	485
2.53167	487
2.53533	474
2.53900	449
2.54267	418
2.54633	383
2.55000	349
2.55367	319
2.55733	293
2.56100	274
2.56467	260
2.56833	253
2.57200	247
2.57567	243
2.57933	238
2.58300	236
2.58667	235
2.59033	237
2.59400	239
2.59767	240
2.60133	242
2.60500	243
2.60867	240
2.61233	234
2.61600	227
2.61967	220
2.62333	211
2.62700	204
2.63067	198
2.63433	191
2.63800	183
2.64167	174
2.64533	164
2.64900	153
2.65267	142
2.65633	130
2.66000	118
2.66367	107
2.66733	94
2.67100	82
2.67467	72
2.67833	63
2.68200	55
2.68567	51
2.68933	48
2.69300	45
2.69667	44
2.70033	45
2.70400	45
2.70767	46
2.71133	46
2.71500	49
2.71867	53
2.72233	57
2.72600	60
2.72967	64
2.73333	68
2.73700	71
2.74067	73
2.74433	73
2.74800	75
2.75167	78
2.75533	79
2.75900	80
2.76267	82
2.76633	83
2.77000	87
2.77367	91
2.77733	94
2.78100	98
2.78467	102
2.78833	106
2.79200	111
2.79567	116
2.79933	121
2.80300	126
2.80667	129
2.81033	133
2.81400	138
2.81767	146
2.82133	158
2.82500	178
2.82867	215
2.83233	285
2.83600	408
2.83967	606
2.84333	897
2.84700	1293
2.85067	1786
2.85433	2357
2.85800	2963
2.86167	3565
2.86533	4115
2.86900	4564
2.87267	4882
2.87633	5056
2.88000	5088
2.88367	4988
2.88733	4784
2.89100	4500
2.89467	4168
2.89833	3815
2.90200	3457
2.90567	3108
2.90933	2776
2.91300	2469
2.91667	2188
2.92033	1934
2.92400	1707
2.92767	1503
2.93133	1324
2.93500	1167
2.93867	1030
2.94233	909
2.94600	804
2.94967	713
2.95333	632
2.95700	563
2.96067	502
2.96433	450
2.96800	405
2.97167	366
2.97533	332
2.97900	304
2.98267	278
2.98633	257
2.99000	237
2.99367	219
2.99733	203
3.00100	192
3.00467	183
3.00833	175
3.01200	166
3.01567	159
3.01933	153
3.02300	148
3.02667	142
3.03033	136
3.03400	133
3.03767	127
3.04133	124
3.04500	120
3.04867	119
3.05233	120
3.05600	122
3.05967	121
3.06333	119
3.06700	117
3.07067	115
3.07433	112
3.07800	112
3.08167	113
3.08533	113
3.08900	113
3.09267	112
3.09633	111
3.10000	110
3.10367	111
3.10733	112
3.11100	112
3.11467	113
3.11833	115
3.12200	115
3.12567	115
3.12933	114
3.13300	111
3.13667	111
3.14033	111
3.14400	112
3.14767	104
3.15133	80
3.15500	57
3.15867	53
3.16233	70
3.16600	104
3.16967	144
3.17333	190
3.17700	241
3.18067	294
3.18433	341
3.18800	386
3.19167	424
3.19533	460
3.19900	492
3.20267	520
3.20633	544
3.21000	565
3.21367	580
3.21733	594
3.22100	608
3.22467	620
3.22833	630
3.23200	637
3.23567	643
3.23933	650
3.24300	657
3.24667	665
3.25033	673
3.25400	680
3.25767	687
3.26133	692
3.26500	696
3.26867	702
3.27233	709
3.27600	715
3.27967	723
3.28333	729
3.28700	735
3.29067	741
3.29433	749
3.29800	757
3.30167	764
3.30533	769
3.30900	775
3.31267	780
3.31633	784
3.32000	790
3.32367	797
3.32733	804
3.33100	810
3.33467	817
3.33833	822
3.34200	825
3.34567	827
3.34933	828
3.35300	828
3.35667	829
3.36033	830
3.36400	830
3.36767	828
3.37133	827
3.37500	827
3.37867	825
3.38233	824
3.38600	823
3.38967	823
3.39333	822
3.39700	822
3.40067	821
3.40433	819
3.40800	814
3.41167	808
3.41533	804
3.41900	800
3.42267	798
3.42633	794
3.43000	790
3.43367	785
3.43733	781
3.44100	778
3.44467	776
3.44833	773
3.45200	768
3.45567	763
3.45933	760
3.46300	757
3.46667	754
3.47033	753
3.47400	752
3.47767	750
3.48133	747
3.48500	742
3.48867	738
3.49233	736
3.49600	735
3.49967	736
3.50333	738
3.50700	738
3.51067	738
3.51433	735
3.51800	733
3.52167	730
3.52533	728
3.52900	729
3.53267	728
3.53633	730
3.54000	733
3.54367	734
3.54733	732
3.55100	730
3.55467	726
3.55833	722
3.56200	721
3.56567	721
3.56933	722
3.57300	722
3.57667	720
3.58033	719
3.58400	719
3.58767	720
3.59133	721
3.59500	722
3.59867	721
3.60233	718
3.60600	718
3.60967	718
3.61333	718
3.61700	719
3.62067	720
3.62433	720
3.62800	719
3.63167	719
3.63533	718
3.63900	716
3.64267	715
3.64633	713
3.65000	714
3.65367	715
3.65733	714
3.66100	713
3.66467	713
3.66833	712
3.67200	708
3.67567	704
3.67933	705
3.68300	707
3.68667	706
3.69033	702
3.69400	699
3.69767	697
3.70133	697
3.70500	696
3.70867	696
3.71233	696
3.71600	698
3.71967	698
3.72333	696
3.72700	693
3.73067	691
3.73433	687
3.73800	686
3.74167	689
3.74533	690
3.74900	688
3.75267	688
3.75633	687
3.76000	686
3.76367	686
3.76733	685
3.77100	684
3.77467	682
3.77833	681
3.78200	679
3.78567	677
3.78933	673
3.79300	672
3.79667	672
3.80033	669
3.80400	667
3.80767	665
3.81133	665
3.81500	663
3.81867	663
3.82233	662
3.82600	660
3.82967	657
3.83333	654
3.83700	654
3.84067	653
3.84433	651
3.84800	649
3.85167	646
3.85533	643
3.85900	640
3.86267	639
3.86633	637
3.87000	637
3.87367	636
3.87733	635
3.88100	634
3.88467	632
3.88833	630
3.89200	628
3.89567	624
3.89933	619
3.90300	615
3.90667	612
3.91033	612
3.91400	611
3.91767	610
3.92133	607
3.92500	605
3.92867	605
3.93233	605
3.93600	605
3.93967	604
3.94333	603
3.94700	603
3.95067	600
3.95433	596
3.95800	595
3.96167	594
3.96533	591
3.96900	588
3.97267	587
3.97633	587
3.98000	587
3.98367	588
3.98733	589
3.99100	589
3.99467	585
3.99833	580

[Status Trace (Column Oven Temperature)]
Interval(msec)	1000
# of Points	240
Start Time(min)	0.001
End Time(min)	3.985
Intensity Units	
Intensity Multiplier	1
R.Time (min)	Intensity
0.00122	35.03
0.01788	35.02
0.03455	35.01
0.05122	34.98
0.06788	34.96
0.08455	34.97
0.10122	34.98
0.11788	34.98
0.13455	34.99
0.15122	35.00
0.16788	35.01
0.18455	35.02
0.20122	35.00
0.21788	34.99
0.23455	34.98
0.25122	34.97
0.26788	34.97
0.28455	34.97
0.30122	34.97
0.31788	34.96
0.33455	34.97
0.35122	34.97
0.36788	34.97
0.38455	34.97
0.40122	34.96
0.41788	34.96
0.43455	34.97
0.45122	34.98
0.46788	34.99
0.48455	35.00
0.50122	34.99
0.51788	34.99
0.53455	35.00
0.55122	34.99
0.56788	34.97
0.58455	34.97
0.60122	34.98
0.61788	34.98
0.63455	34.97
0.65122	34.98
0.66788	34.98
0.68455	34.98
0.70122	34.99
0.71788	35.00
0.73455	35.00
0.75122	35.02
0.76788	35.02
0.78455	35.02
0.80122	35.01
0.81788	35.00
0.83455	34.99
0.85122	35.00
0.86788	35.00
0.88455	35.00
0.90122	35.00
0.91788	35.02
0.93455	35.04
0.95122	35.05
0.96788	35.04
0.98455	35.03
1.00122	35.03
1.01788	35.03
1.03455	35.03
1.05122	35.03
1.06788	35.03
1.08455	35.02
1.10122	35.02
1.11788	35.03
1.13455	35.02
1.15122	35.01
1.16788	34.98
1.18455	34.97
1.20122	34.95
1.21788	34.95
1.23455	34.95
1.25122	34.95
1.26788	34.95
1.28455	34.97
1.30122	35.00
1.31788	35.02
1.33455	35.03
1.35122	35.03
1.36788	35.04
1.38455	35.02
1.40122	35.01
1.41788	34.99
1.43455	34.98
1.45122	34.97
1.46788	34.97
1.48455	34.97
1.50122	34.98
1.51788	34.99
1.53455	35.00
1.55122	35.01
1.56788	35.01
1.58455	35.01
1.60122	35.04
1.61788	35.14
1.63455	35.30
1.65122	35.53
1.66788	35.81
1.68455	36.18
1.70122	36.54
1.71788	36.89
1.73455	37.21
1.75122	37.52
1.76788	37.86
1.78455	38.20
1.80122	38.54
1.81788	38.87
1.83455	39.20
1.85122	39.54
1.86788	39.86
1.88455	40.20
1.90122	40.52
1.91788	40.85
1.93455	41.18
1.95122	41.51
1.96788	41.83
1.98455	42.17
2.00122	42.49
2.01788	42.82
2.03455	43.14
2.05122	43.47
2.06788	43.80
2.08455	44.11
2.10122	44.44
2.11788	44.78
2.13455	45.12
2.15122	45.42
2.16788	45.74
2.18455	46.08
2.20122	46.42
2.21788	46.72
2.23455	47.07
2.25122	47.36
2.26788	47.69
2.28455	48.03
2.30122	48.36
2.31788	48.69
2.33455	49.01
2.35122	49.31
2.36788	49.55
2.38455	49.68
2.40122	49.67
2.41788	49.70
2.43455	49.70
2.45122	49.72
2.46788	49.74
2.48455	49.73
2.50122	49.75
2.51788	49.75
2.53455	49.77
2.55122	49.78
2.56788	49.81
2.58455	49.84
2.60122	49.84
2.61788	49.84
2.63455	49.84
2.65122	49.84
2.66788	49.85
2.68455	49.85
2.70122	49.86
2.71788	49.87
2.73455	49.86
2.75122	49.86
2.76788	49.84
2.78455	49.86
2.80122	49.87
2.81788	49.88
2.83455	49.88
2.85122	49.89
2.86788	49.89
2.88455	49.89
2.90122	49.90
2.91788	49.90
2.93455	49.90
2.95122	49.92
2.96788	49.94
2.98455	49.97
3.00122	49.99
3.01788	49.99
3.03455	50.01
3.05122	50.02
3.06788	50.03
3.08455	50.03
3.10122	50.03
3.11788	50.05
3.13455	50.05
3.15122	50.07
3.16788	50.07
3.18455	50.08
3.20122	50.08
3.21788	50.08
3.23455	50.07
3.25122	50.07
3.26788	50.08
3.28455	50.08
3.30122	50.08
3.31788	50.08
3.33455	50.09
3.35122	50.07
3.36788	50.07
3.38455	50.06
3.40122	50.07
3.41788	50.08
3.43455	50.08
3.45122	50.08
3.46788	50.09
3.48455	50.09
3.50122	50.11
3.51788	50.11
3.53455	50.10
3.55122	50.08
3.56788	50.07
3.58455	50.06
3.60122	50.05
3.61788	50.04
3.63455	50.03
3.65122	50.03
3.66788	50.03
3.68455	50.03
3.70122	50.04
3.71788	50.05
3.73455	50.07
3.75122	50.07
3.76788	50.07
3.78455	50.07
3.80122	50.06
3.81788	50.07
3.83455	50.07
3.85122	50.06
3.86788	50.06
3.88455	50.06
3.90122	50.06
3.91788	50.05
3.93455	50.05
3.95122	50.04
3.96788	50.04
3.98455	50.05

[Status Trace (Injection Unit Temperature)]
Interval(msec)	1000
# of Points	240
Start Time(min)	0.001
End Time(min)	3.985
Intensity Units	
Intensity Multiplier	1
R.Time (min)	Intensity
0.00122	99.97
0.01788	99.98
0.03455	99.98
0.05122	99.98
0.06788	99.98
0.08455	99.98
0.10122	99.98
0.11788	99.98
0.13455	99.98
0.15122	99.98
0.16788	99.98
0.18455	99.98
0.20122	99.98
0.21788	99.98
0.23455	99.97
0.25122	99.98
0.26788	99.98
0.28455	99.97
0.30122	99.97
0.31788	99.97
0.33455	99.98
0.35122	99.98
0.36788	99.98
0.38455	99.98
0.40122	99.98
0.41788	99.98
0.43455	99.98
0.45122	99.97
0.46788	99.97
0.48455	99.98
0.50122	99.98
0.51788	99.98
0.53455	99.98
0.55122	99.98
0.56788	99.98
0.58455	99.97
0.60122	99.98
0.61788	99.98
0.63455	99.98
0.65122	99.98
0.66788	99.98
0.68455	99.97
0.70122	99.98
0.71788	99.98
0.73455	99.98
0.75122	99.97
0.76788	99.98
0.78455	99.98
0.80122	99.98
0.81788	99.98
0.83455	99.98
0.85122	99.98
0.86788	99.98
0.88455	99.98
0.90122	99.98
0.91788	99.99
0.93455	99.98
0.95122	99.98
0.96788	99.98
0.98455	99.98
1.00122	99.98
1.01788	99.98
1.03455	99.99
1.05122	99.98
1.06788	99.99
1.08455	99.98
1.10122	99.98
1.11788	99.98
1.13455	99.98
1.15122	99.99
1.16788	99.98
1.18455	99.99
1.20122	99.98
1.21788	99.98
1.23455	99.98
1.25122	99.99
1.26788	99.99
1.28455	99.98
1.30122	99.98
1.31788	99.99
1.33455	99.98
1.35122	99.98
1.36788	99.99
1.38455	99.99
1.40122	99.98
1.41788	99.98
1.43455	99.99
1.45122	99.99
1.46788	99.98
1.48455	99.98
1.50122	99.98
1.51788	99.99
1.53455	99.98
1.55122	99.98
1.56788	99.99
1.58455	99.98
1.60122	99.99
1.61788	99.99
1.63455	99.99
1.65122	99.98
1.66788	99.99
1.68455	99.98
1.70122	99.99
1.71788	99.98
1.73455	99.98
1.75122	99.99
1.76788	99.99
1.78455	99.98
1.80122	99.98
1.81788	99.99
1.83455	99.98
1.85122	99.98
1.86788	99.98
1.88455	99.98
1.90122	99.98
1.91788	99.98
1.93455	99.98
1.95122	99.98
1.96788	99.97
1.98455	99.98
2.00122	99.98
2.01788	99.98
2.03455	99.98
2.05122	99.98
2.06788	99.98
2.08455	99.98
2.10122	99.98
2.11788	99.98
2.13455	99.98
2.15122	99.98
2.16788	99.97
2.18455	99.97
2.20122	99.98
2.21788	99.98
2.23455	99.98
2.25122	99.97
2.26788	99.97
2.28455	99.97
2.30122	99.97
2.31788	99.97
2.33455	99.97
2.35122	99.97
2.36788	99.97
2.38455	99.97
2.40122	99.97
2.41788	99.97
2.43455	99.97
2.45122	99.97
2.46788	99.97
2.48455	99.97
2.50122	99.97
2.51788	99.97
2.53455	99.97
2.55122	99.98
2.56788	99.97
2.58455	99.98
2.60122	99.98
2.61788	99.98
2.63455	99.98
2.65122	99.98
2.66788	99.98
2.68455	99.98
2.70122	99.98
2.71788	99.98
2.73455	99.99
2.75122	99.98
2.76788	99.99
2.78455	99.99
2.80122	100.00
2.81788	100.00
2.83455	99.99
2.85122	100.00
2.86788	100.00
2.88455	100.00
2.90122	100.00
2.91788	100.00
2.93455	100.01
2.95122	100.01
2.96788	100.01
2.98455	100.00
3.00122	100.01
3.01788	100.01
3.03455	100.01
3.05122	100.02
3.06788	100.02
3.08455	100.02
3.10122	100.02
3.11788	100.02
3.13455	100.02
3.15122	100.03
3.16788	100.02
3.18455	100.02
3.20122	100.03
3.21788	100.02
3.23455	100.03
3.25122	100.03
3.26788	100.03
3.28455	100.03
3.30122	100.04
3.31788	100.03
3.33455	100.03
3.35122	100.03
3.36788	100.03
3.38455	100.03
3.40122	100.03
3.41788	100.03
3.43455	100.03
3.45122	100.04
3.46788	100.04
3.48455	100.04
3.50122	100.04
3.51788	100.04
3.53455	100.04
3.55122	100.04
3.56788	100.04
3.58455	100.03
3.60122	100.04
3.61788	100.04
3.63455	100.04
3.65122	100.04
3.66788	100.04
3.68455	100.04
3.70122	100.03
3.71788	100.04
3.73455	100.04
3.75122	100.04
3.76788	100.04
3.78455	100.04
3.80122	100.04
3.81788	100.04
3.83455	100.04
3.85122	100.04
3.86788	100.04
3.88455	100.04
3.90122	100.04
3.91788	100.04
3.93455	100.04
3.95122	100.04
3.96788	100.04
3.98455	100.05

[Status Trace (Carrier Gas Pressure)]
Interval(msec)	1000
# of Points	240
Start Time(min)	0.001
End Time(min)	3.985
Intensity Units	
Intensity Multiplier	1
R.Time (min)	Intensity
0.00122	58.00
0.01788	56.59
0.03455	56.12
0.05122	58.44
0.06788	59.91
0.08455	58.39
0.10122	57.97
0.11788	58.00
0.13455	58.01
0.15122	58.01
0.16788	58.00
0.18455	58.00
0.20122	58.00
0.21788	58.00
0.23455	58.00
0.25122	58.00
0.26788	58.00
0.28455	58.00
0.30122	58.00
0.31788	58.00
0.33455	58.00
0.35122	58.00
0.36788	58.00
0.38455	58.00
0.40122	58.00
0.41788	58.00
0.43455	58.00
0.45122	58.00
0.46788	58.00
0.48455	58.00
0.50122	58.00
0.51788	58.00
0.53455	58.00
0.55122	58.00
0.56788	58.00
0.58455	58.00
0.60122	58.00
0.61788	58.00
0.63455	58.00
0.65122	58.00
0.66788	58.00
0.68455	58.00
0.70122	58.00
0.71788	58.00
0.73455	58.00
0.75122	58.00
0.76788	58.00
0.78455	58.00
0.80122	58.00
0.81788	58.00
0.83455	58.00
0.85122	58.00
0.86788	58.00
0.88455	58.00
0.90122	58.00
0.91788	58.00
0.93455	58.00
0.95122	58.00
0.96788	58.00
0.98455	58.00
1.00122	58.00
1.01788	58.00
1.03455	58.00
1.05122	58.00
1.06788	58.00
1.08455	58.00
1.10122	58.00
1.11788	58.00
1.13455	58.00
1.15122	58.00
1.16788	58.00
1.18455	58.00
1.20122	58.00
1.21788	58.00
1.23455	58.00
1.25122	58.00
1.26788	58.00
1.28455	58.00
1.30122	58.00
1.31788	58.00
1.33455	58.00
1.35122	58.00
1.36788	58.00
1.38455	58.00
1.40122	58.00
1.41788	58.00
1.43455	58.00
1.45122	58.00
1.46788	58.00
1.48455	58.00
1.50122	58.00
1.51788	58.00
1.53455	58.00
1.55122	58.00
1.56788	58.00
1.58455	58.00
1.60122	58.00
1.61788	58.00
1.63455	58.00
1.65122	58.00
1.66788	58.00
1.68455	58.01
1.70122	58.00
1.71788	58.00
1.73455	58.00
1.75122	58.00
1.76788	58.00
1.78455	58.00
1.80122	58.00
1.81788	58.00
1.83455	58.00
1.85122	58.00
1.86788	58.00
1.88455	58.00
1.90122	58.00
1.91788	58.00
1.93455	58.00
1.95122	58.00
1.96788	58.00
1.98455	58.00
2.00122	58.00
2.01788	58.00
2.03455	58.00
2.05122	58.00
2.06788	58.00
2.08455	58.00
2.10122	58.00
2.11788	58.00
2.13455	58.00
2.15122	58.00
2.16788	58.00
2.18455	58.00
2.20122	58.00
2.21788	58.00
2.23455	58.00
2.25122	58.00
2.26788	58.00
2.28455	58.00
2.30122	58.00
2.31788	58.00
2.33455	58.00
2.35122	58.00
2.36788	58.00
2.38455	57.99
2.40122	57.99
2.41788	58.00
2.43455	58.00
2.45122	58.00
2.46788	58.00
2.48455	58.00
2.50122	58.00
2.51788	57.99
2.53455	57.99
2.55122	58.00
2.56788	58.00
2.58455	58.00
2.60122	58.00
2.61788	58.00
2.63455	58.00
2.65122	58.00
2.66788	58.00
2.68455	58.00
2.70122	58.00
2.71788	58.00
2.73455	58.00
2.75122	58.00
2.76788	58.00
2.78455	58.00
2.80122	58.00
2.81788	58.00
2.83455	58.00
2.85122	58.00
2.86788	58.00
2.88455	58.00
2.90122	58.00
2.91788	58.00
2.93455	58.00
2.95122	58.00
2.96788	58.00
2.98455	58.00
3.00122	58.00
3.01788	58.00
3.03455	58.00
3.05122	58.00
3.06788	58.00
3.08455	58.00
3.10122	58.00
3.11788	58.00
3.13455	58.00
3.15122	58.00
3.16788	58.00
3.18455	58.00
3.20122	58.00
3.21788	58.00
3.23455	58.00
3.25122	58.00
3.26788	58.00
3.28455	58.00
3.30122	58.00
3.31788	58.00
3.33455	58.00
3.35122	58.00
3.36788	58.00
3.38455	58.00
3.40122	58.00
3.41788	58.00
3.43455	58.00
3.45122	58.00
3.46788	58.00
3.48455	58.00
3.50122	58.00
3.51788	58.00
3.53455	58.00
3.55122	58.00
3.56788	58.00
3.58455	58.00
3.60122	58.00
3.61788	58.00
3.63455	58.00
3.65122	58.00
3.66788	58.00
3.68455	58.00
3.70122	58.00
3.71788	58.00
3.73455	58.00
3.75122	58.00
3.76788	58.00
3.78455	58.00
3.80122	58.00
3.81788	58.00
3.83455	58.00
3.85122	58.00
3.86788	58.00
3.88455	58.00
3.90122	58.00
3.91788	58.00
3.93455	58.00
3.95122	58.00
3.96788	58.00
3.98455	58.00

[Status Trace (Carrier Gas Flow)]
Interval(msec)	1000
# of Points	240
Start Time(min)	0.001
End Time(min)	3.985
Intensity Units	
Intensity Multiplier	1
R.Time (min)	Intensity
0.00122	34.52
0.01788	33.94
0.03455	34.54
0.05122	34.55
0.06788	34.50
0.08455	34.51
0.10122	34.52
0.11788	34.52
0.13455	34.52
0.15122	34.52
0.16788	34.52
0.18455	34.52
0.20122	34.52
0.21788	34.52
0.23455	34.52
0.25122	34.52
0.26788	34.52
0.28455	34.52
0.30122	34.52
0.31788	34.52
0.33455	34.52
0.35122	34.52
0.36788	34.52
0.38455	34.52
0.40122	34.52
0.41788	34.52
0.43455	34.52
0.45122	34.51
0.46788	34.52
0.48455	34.52
0.50122	34.52
0.51788	34.51
0.53455	34.52
0.55122	34.52
0.56788	34.52
0.58455	34.52
0.60122	34.52
0.61788	34.52
0.63455	34.52
0.65122	34.52
0.66788	34.52
0.68455	34.52
0.70122	34.52
0.71788	34.52
0.73455	34.52
0.75122	34.52
0.76788	34.52
0.78455	34.52
0.80122	34.52
0.81788	34.52
0.83455	34.52
0.85122	34.52
0.86788	34.52
0.88455	34.52
0.90122	34.52
0.91788	34.52
0.93455	34.52
0.95122	34.52
0.96788	34.52
0.98455	34.52
1.00122	34.52
1.01788	34.52
1.03455	34.52
1.05122	34.52
1.06788	34.52
1.08455	34.52
1.10122	34.53
1.11788	34.52
1.13455	34.51
1.15122	34.52
1.16788	34.52
1.18455	34.52
1.20122	34.52
1.21788	34.52
1.23455	34.52
1.25122	34.52
1.26788	34.52
1.28455	34.52
1.30122	34.52
1.31788	34.52
1.33455	34.51
1.35122	34.52
1.36788	34.52
1.38455	34.52
1.40122	34.52
1.41788	34.52
1.43455	34.52
1.45122	34.52
1.46788	34.52
1.48455	34.52
1.50122	34.52
1.51788	34.52
1.53455	34.52
1.55122	34.52
1.56788	34.52
1.58455	34.52
1.60122	34.52
1.61788	34.52
1.63455	34.52
1.65122	34.52
1.66788	34.52
1.68455	34.52
1.70122	34.52
1.71788	34.52
1.73455	34.52
1.75122	34.52
1.76788	34.52
1.78455	34.52
1.80122	34.52
1.81788	34.52
1.83455	34.52
1.85122	34.52
1.86788	34.52
1.88455	34.52
1.90122	34.52
1.91788	34.52
1.93455	34.53
1.95122	34.52
1.96788	34.52
1.98455	34.52
2.00122	34.52
2.01788	34.52
2.03455	34.52
2.05122	34.52
2.06788	34.52
2.08455	34.52
2.10122	34.52
2.11788	34.52
2.13455	34.52
2.15122	34.52
2.16788	34.52
2.18455	34.52
2.20122	34.52
2.21788	34.52
2.23455	34.51
2.25122	34.52
2.26788	34.51
2.28455	34.52
2.30122	34.52
2.31788	34.52
2.33455	34.52
2.35122	34.52
2.36788	34.51
2.38455	34.52
2.40122	34.52
2.41788	34.52
2.43455	34.52
2.45122	34.52
2.46788	34.52
2.48455	34.52
2.50122	34.52
2.51788	34.52
2.53455	34.52
2.55122	34.52
2.56788	34.52
2.58455	34.52
2.60122	34.52
2.61788	34.51
2.63455	34.52
2.65122	34.52
2.66788	34.52
2.68455	34.52
2.70122	34.52
2.71788	34.52
2.73455	34.52
2.75122	34.51
2.76788	34.52
2.78455	34.52
2.80122	34.52
2.81788	34.52
2.83455	34.52
2.85122	34.52
2.86788	34.52
2.88455	34.51
2.90122	34.52
2.91788	34.52
2.93455	34.52
2.95122	34.52
2.96788	34.52
2.98455	34.52
3.00122	34.52
3.01788	34.52
3.03455	34.51
3.05122	34.52
3.06788	34.52
3.08455	34.52
3.10122	34.52
3.11788	34.52
3.13455	34.52
3.15122	34.52
3.16788	34.52
3.18455	34.52
3.20122	34.52
3.21788	34.51
3.23455	34.52
3.25122	34.52
3.26788	34.52
3.28455	34.52
3.30122	34.52
3.31788	34.52
3.33455	34.52
3.35122	34.52
3.36788	34.52
3.38455	34.52
3.40122	34.52
3.41788	34.52
3.43455	34.52
3.45122	34.52
3.46788	34.52
3.48455	34.52
3.50122	34.52
3.51788	34.52
3.53455	34.52
3.55122	34.52
3.56788	34.52
3.58455	34.52
3.60122	34.52
3.61788	34.52
3.63455	34.52
3.65122	34.52
3.66788	34.52
3.68455	34.52
3.70122	34.52
3.71788	34.52
3.73455	34.52
3.75122	34.52
3.76788	34.52
3.78455	34.52
3.80122	34.52
3.81788	34.52
3.83455	34.52
3.85122	34.52
3.86788	34.52
3.88455	34.52
3.90122	34.53
3.91788	34.52
3.93455	34.52
3.95122	34.52
3.96788	34.52
3.98455	34.52

[Status Trace (Column Flow)]
Interval(msec)	1000
# of Points	240
Start Time(min)	0.001
End Time(min)	3.985
Intensity Units	
Intensity Multiplier	1
R.Time (min)	Intensity
0.00122	5.55
0.01788	5.38
0.03455	5.33
0.05122	5.60
0.06788	5.77
0.08455	5.60
0.10122	5.55
0.11788	5.55
0.13455	5.55
0.15122	5.55
0.16788	5.55
0.18455	5.55
0.20122	5.55
0.21788	5.55
0.23455	5.55
0.25122	5.55
0.26788	5.55
0.28455	5.55
0.30122	5.55
0.31788	5.55
0.33455	5.55
0.35122	5.55
0.36788	5.55
0.38455	5.55
0.40122	5.55
0.41788	5.55
0.43455	5.55
0.45122	5.55
0.46788	5.55
0.48455	5.55
0.50122	5.55
0.51788	5.55
0.53455	5.55
0.55122	5.55
0.56788	5.55
0.58455	5.55
0.60122	5.55
0.61788	5.55
0.63455	5.55
0.65122	5.55
0.66788	5.55
0.68455	5.55
0.70122	5.55
0.71788	5.55
0.73455	5.55
0.75122	5.55
0.76788	5.55
0.78455	5.55
0.80122	5.55
0.81788	5.55
0.83455	5.55
0.85122	5.55
0.86788	5.55
0.88455	5.55
0.90122	5.55
0.91788	5.55
0.93455	5.55
0.95122	5.55
0.96788	5.55
0.98455	5.55
1.00122	5.55
1.01788	5.55
1.03455	5.55
1.05122	5.55
1.06788	5.55
1.08455	5.55
1.10122	5.55
1.11788	5.55
1.13455	5.55
1.15122	5.55
1.16788	5.55
1.18455	5.55
1.20122	5.55
1.21788	5.55
1.23455	5.55
1.25122	5.55
1.26788	5.55
1.28455	5.55
1.30122	5.55
1.31788	5.55
1.33455	5.55
1.35122	5.55
1.36788	5.55
1.38455	5.55
1.40122	5.55
1.41788	5.55
1.43455	5.55
1.45122	5.55
1.46788	5.55
1.48455	5.55
1.50122	5.55
1.51788	5.55
1.53455	5.55
1.55122	5.55
1.56788	5.55
1.58455	5.55
1.60122	5.55
1.61788	5.54
1.63455	5.54
1.65122	5.53
1.66788	5.52
1.68455	5.51
1.70122	5.50
1.71788	5.49
1.73455	5.48
1.75122	5.47
1.76788	5.46
1.78455	5.45
1.80122	5.44
1.81788	5.43
1.83455	5.42
1.85122	5.41
1.86788	5.40
1.88455	5.39
1.90122	5.38
1.91788	5.37
1.93455	5.36
1.95122	5.35
1.96788	5.34
1.98455	5.33
2.00122	5.32
2.01788	5.31
2.03455	5.30
2.05122	5.29
2.06788	5.28
2.08455	5.27
2.10122	5.26
2.11788	5.25
2.13455	5.24
2.15122	5.23
2.16788	5.22
2.18455	5.21
2.20122	5.20
2.21788	5.20
2.23455	5.19
2.25122	5.18
2.26788	5.17
2.28455	5.16
2.30122	5.15
2.31788	5.14
2.33455	5.13
2.35122	5.12
2.36788	5.12
2.38455	5.11
2.40122	5.11
2.41788	5.11
2.43455	5.11
2.45122	5.11
2.46788	5.11
2.48455	5.11
2.50122	5.11
2.51788	5.11
2.53455	5.11
2.55122	5.11
2.56788	5.11
2.58455	5.11
2.60122	5.11
2.61788	5.11
2.63455	5.11
2.65122	5.11
2.66788	5.11
2.68455	5.11
2.70122	5.11
2.71788	5.11
2.73455	5.11
2.75122	5.11
2.76788	5.11
2.78455	5.11
2.80122	5.11
2.81788	5.11
2.83455	5.11
2.85122	5.11
2.86788	5.11
2.88455	5.11
2.90122	5.11
2.91788	5.11
2.93455	5.11
2.95122	5.11
2.96788	5.10
2.98455	5.10
3.00122	5.10
3.01788	5.10
3.03455	5.10
3.05122	5.10
3.06788	5.10
3.08455	5.10
3.10122	5.10
3.11788	5.10
3.13455	5.10
3.15122	5.10
3.16788	5.10
3.18455	5.10
3.20122	5.10
3.21788	5.10
3.23455	5.10
3.25122	5.10
3.26788	5.10
3.28455	5.10
3.30122	5.10
3.31788	5.10
3.33455	5.10
3.35122	5.10
3.36788	5.10
3.38455	5.10
3.40122	5.10
3.41788	5.10
3.43455	5.10
3.45122	5.10
3.46788	5.10
3.48455	5.10
3.50122	5.10
3.51788	5.10
3.53455	5.10
3.55122	5.10
3.56788	5.10
3.58455	5.10
3.60122	5.10
3.61788	5.10
3.63455	5.10
3.65122	5.10
3.66788	5.10
3.68455	5.10
3.70122	5.10
3.71788	5.10
3.73455	5.10
3.75122	5.10
3.76788	5.10
3.78455	5.10
3.80122	5.10
3.81788	5.10
3.83455	5.10
3.85122	5.10
3.86788	5.10
3.88455	5.10
3.90122	5.10
3.91788	5.10
3.93455	5.10
3.95122	5.10
3.96788	5.10
3.98455	5.10

[Status Trace (Linear Velocity)]
Interval(msec)	1000
# of Points	240
Start Time(min)	0.001
End Time(min)	3.985
Intensity Units	
Intensity Multiplier	1
R.Time (min)	Intensity
0.00122	39.02
0.01788	38.10
0.03455	37.79
0.05122	39.32
0.06788	40.27
0.08455	39.28
0.10122	39.00
0.11788	39.03
0.13455	39.03
0.15122	39.03
0.16788	39.02
0.18455	39.02
0.20122	39.02
0.21788	39.02
0.23455	39.03
0.25122	39.03
0.26788	39.03
0.28455	39.03
0.30122	39.03
0.31788	39.03
0.33455	39.03
0.35122	39.03
0.36788	39.02
0.38455	39.03
0.40122	39.03
0.41788	39.03
0.43455	39.03
0.45122	39.03
0.46788	39.02
0.48455	39.02
0.50122	39.02
0.51788	39.02
0.53455	39.02
0.55122	39.02
0.56788	39.03
0.58455	39.03
0.60122	39.03
0.61788	39.02
0.63455	39.03
0.65122	39.03
0.66788	39.03
0.68455	39.03
0.70122	39.02
0.71788	39.02
0.73455	39.02
0.75122	39.02
0.76788	39.02
0.78455	39.02
0.80122	39.02
0.81788	39.02
0.83455	39.02
0.85122	39.02
0.86788	39.02
0.88455	39.02
0.90122	39.02
0.91788	39.02
0.93455	39.02
0.95122	39.02
0.96788	39.02
0.98455	39.02
1.00122	39.02
1.01788	39.02
1.03455	39.02
1.05122	39.02
1.06788	39.02
1.08455	39.02
1.10122	39.02
1.11788	39.02
1.13455	39.02
1.15122	39.02
1.16788	39.02
1.18455	39.03
1.20122	39.03
1.21788	39.03
1.23455	39.03
1.25122	39.03
1.26788	39.03
1.28455	39.03
1.30122	39.02
1.31788	39.02
1.33455	39.02
1.35122	39.02
1.36788	39.02
1.38455	39.02
1.40122	39.02
1.41788	39.02
1.43455	39.02
1.45122	39.03
1.46788	39.03
1.48455	39.03
1.50122	39.03
1.51788	39.02
1.53455	39.02
1.55122	39.02
1.56788	39.02
1.58455	39.02
1.60122	39.02
1.61788	39.01
1.63455	39.00
1.65122	38.97
1.66788	38.95
1.68455	38.91
1.70122	38.88
1.71788	38.84
1.73455	38.81
1.75122	38.78
1.76788	38.75
1.78455	38.72
1.80122	38.69
1.81788	38.65
1.83455	38.62
1.85122	38.59
1.86788	38.56
1.88455	38.53
1.90122	38.50
1.91788	38.47
1.93455	38.44
1.95122	38.41
1.96788	38.38
1.98455	38.35
2.00122	38.32
2.01788	38.29
2.03455	38.26
2.05122	38.23
2.06788	38.20
2.08455	38.17
2.10122	38.14
2.11788	38.11
2.13455	38.08
2.15122	38.05
2.16788	38.02
2.18455	37.99
2.20122	37.96
2.21788	37.93
2.23455	37.90
2.25122	37.87
2.26788	37.84
2.28455	37.81
2.30122	37.78
2.31788	37.75
2.33455	37.73
2.35122	37.70
2.36788	37.68
2.38455	37.66
2.40122	37.66
2.41788	37.66
2.43455	37.66
2.45122	37.66
2.46788	37.66
2.48455	37.66
2.50122	37.66
2.51788	37.65
2.53455	37.66
2.55122	37.66
2.56788	37.66
2.58455	37.65
2.60122	37.65
2.61788	37.65
2.63455	37.65
2.65122	37.65
2.66788	37.65
2.68455	37.65
2.70122	37.65
2.71788	37.65
2.73455	37.65
2.75122	37.65
2.76788	37.65
2.78455	37.65
2.80122	37.65
2.81788	37.65
2.83455	37.65
2.85122	37.65
2.86788	37.65
2.88455	37.65
2.90122	37.65
2.91788	37.65
2.93455	37.65
2.95122	37.65
2.96788	37.64
2.98455	37.64
3.00122	37.64
3.01788	37.64
3.03455	37.64
3.05122	37.64
3.06788	37.64
3.08455	37.64
3.10122	37.64
3.11788	37.63
3.13455	37.63
3.15122	37.63
3.16788	37.63
3.18455	37.63
3.20122	37.63
3.21788	37.63
3.23455	37.63
3.25122	37.63
3.26788	37.63
3.28455	37.63
3.30122	37.63
3.31788	37.63
3.33455	37.63
3.35122	37.63
3.36788	37.63
3.38455	37.63
3.40122	37.63
3.41788	37.63
3.43455	37.63
3.45122	37.63
3.46788	37.63
3.48455	37.63
3.50122	37.63
3.51788	37.63
3.53455	37.63
3.55122	37.63
3.56788	37.63
3.58455	37.63
3.60122	37.63
3.61788	37.64
3.63455	37.64
3.65122	37.64
3.66788	37.64
3.68455	37.64
3.70122	37.63
3.71788	37.63
3.73455	37.63
3.75122	37.63
3.76788	37.63
3.78455	37.63
3.80122	37.63
3.81788	37.63
3.83455	37.63
3.85122	37.63
3.86788	37.63
3.88455	37.63
3.90122	37.63
3.91788	37.63
3.93455	37.63
3.95122	37.63
3.96788	37.64
3.98455	37.63

