[Header]
Application Name	LabSolutions
Version	5.110
Data File Name	C:\Users\User\Desktop\GC Analyses\Jack\Nachusa Grasslands Sampling\T4 Timepoint July 12th\T4_07122022_065.gcd
Output Date	3/17/2023
Output Time	12:04:55 PM

[File Information]
Type	Data File
Generated	3/14/2023 10:39:19 PM
Generated by	System Administrator
Modified	3/14/2023 10:46:10 PM
Modified by	System Administrator

[Sample Information]
Operator Name	System Administrator
Acquired	3/14/2023 10:42:09 PM
Sample Type	0:Unknown
Level	0
Sample Name	065
Sample ID	065
ISTD Amount1	1
ISTD Amount2	1
ISTD Amount3	1
ISTD Amount4	1
ISTD Amount5	1
ISTD Amount6	1
ISTD Amount7	1
ISTD Amount8	1
ISTD Amount9	1
ISTD Amount10	1
ISTD Amount11	1
ISTD Amount12	1
ISTD Amount13	1
ISTD Amount14	1
ISTD Amount15	1
ISTD Amount16	1
ISTD Amount17	1
ISTD Amount18	1
ISTD Amount19	1
ISTD Amount20	1
ISTD Amount21	1
ISTD Amount22	1
ISTD Amount23	1
ISTD Amount24	1
ISTD Amount25	1
ISTD Amount26	1
ISTD Amount27	1
ISTD Amount28	1
ISTD Amount29	1
ISTD Amount30	1
ISTD Amount31	1
ISTD Amount32	1
Sample Amount	1
Dilution Factor	1
Vial#	64
Injection Volume	1
Injection Count	1
Bar Code	

[Original Files]
Data File	C:\Users\User\Desktop\GC Analyses\Jack\Nachusa Grasslands Sampling\T4 Timepoint July 12th\T4_07122022_065.gcd
Method File	C:\LabSolutions\Data\GHG_4min_2022\ghg3_togas_w_acet_4 min_new_int.gcm
Batch File	C:\LabSolutions\Data\AutoSamplerTesting\T4_07122022.gcb
Report Format File	c:\LabSolutions\System\DEFAULT.lsr

[File Description]


[Configuration]
Instrument Name	C0B7VH3-Instrument1
Instrument #	1
Line #	1
# of Detectors	3
Detector ID	DET#1	DET#2	DET#3
Detector Name	FID	PTCD	ECD
# of Channels	1	1	1

[Peak Table(Ch1)]
# of Peaks	3
Peak#	R.Time	I.Time	F.Time	Area	Height	A/H	Conc.	Mark	ID#	Name	k'	Plate #	Plate Ht.	Tailing	Resolution	Sep.Factor	Area Ratio	Height Ratio	Conc. %	Norm Conc.
1	1.479	1.439	1.509	1035	376	2.753	7.306	   	1	CO	0.000	8022	18.698	0.845	0.000	0.000	0	0	0.800	0.800
2	1.571	1.534	1.622	19459	9892	1.967	376.255	   	2	CH4	0.062	11605	12.926	1.106	1.474	0.000	0	0	41.183	41.183
3	1.996	1.952	2.370	2111995	1008516	2.094	530.054	   	3	CO2	0.349	17326	8.658	1.324	7.148	5.640	0	0	58.017	58.017

[Peak Table(Ch2)]
# of Peaks	0

[Peak Table(Ch3)]
# of Peaks	5
Peak#	R.Time	I.Time	F.Time	Area	Height	A/H	Conc.	Mark	ID#	Name	k'	Plate #	Plate Ht.	Tailing	Resolution	Sep.Factor	Area Ratio	Height Ratio	Conc. %	Norm Conc.
1	2.462	2.345	2.510	2005	687	2.920	0.000	   			0.000	10483	14.309	0.000	0.000	0.000	0	0	0.000	0.000
2	2.528	2.510	2.583	1083	368	2.942	0.000	 V 			0.027	7362	20.374	0.000	0.617	0.000	0	0	0.000	0.000
3	2.612	2.583	2.686	655	160	4.104	0.000	 V 			0.061	2016	74.421	0.000	0.481	2.278	0	0	0.000	0.000
4	2.880	2.799	3.030	55498	14475	3.834	1.418	   	1	N2O	0.170	12722	11.790	1.515	1.599	2.780	0	0	100.000	100.000
5	3.269	3.030	3.965	18688	561	33.295	0.000	   	2	SF6	0.328	181	827.367	1.926	0.724	1.930	0	0	0.000	0.000

[Compound Results(Ch1)]
# of IDs	6
ID#	Name	R.Time	Area	Height	Conc.	Curve	3rd	2nd	1st	Constant	Area Ratio	Height Ratio	Conc. %	Norm Conc.
1	CO	1.479	1035	376	7.306	Linear	0.000000e+00	0.000000e+00	1.416423e+002	0.000000e+00	0	0	0.800	0.800
2	CH4	1.571	19459	9892	376.255	Linear	0.000000e+00	0.000000e+00	5.171738e+001	0.000000e+00	0	0	41.183	41.183
3	CO2	1.996	2111995	1008516	530.054	Linear	0.000000e+00	0.000000e+00	3.984494e+003	0.000000e+00	0	0	58.017	58.017
4	Ethylene	0.000	0	0	0.000	Linear	0.000000e+00	0.000000e+00	0.000000e+00	0.000000e+00	0	0	0.000	0.000
5	Acetylene	0.000	0	0	0.000	Linear	0.000000e+00	0.000000e+00	0.000000e+00	0.000000e+00	0	0	0.000	0.000
6	Ethane	0.000	0	0	0.000	Linear	0.000000e+00	0.000000e+00	0.000000e+00	0.000000e+00	0	0	0.000	0.000

[Compound Results(Ch2)]
# of IDs	5
ID#	Name	R.Time	Area	Height	Conc.	Curve	3rd	2nd	1st	Constant	Area Ratio	Height Ratio	Conc. %	Norm Conc.
1	Hydrogen	0.000	0	0	0.000	Linear	0.000000e+00	0.000000e+00	0.000000e+00	0.000000e+00	0	0	0.000	0.000
2	Oxygen	0.000	0	0	0.000	Linear	0.000000e+00	0.000000e+00	0.000000e+00	0.000000e+00	0	0	0.000	0.000
3	Nitrogen	0.000	0	0	0.000	Linear	0.000000e+00	0.000000e+00	0.000000e+00	0.000000e+00	0	0	0.000	0.000
4	Methane	0.000	0	0	0.000	Linear	0.000000e+00	0.000000e+00	0.000000e+00	0.000000e+00	0	0	0.000	0.000
5	Carbon Monoxide	0.000	0	0	0.000	Linear	0.000000e+00	0.000000e+00	0.000000e+00	0.000000e+00	0	0	0.000	0.000

[Compound Results(Ch3)]
# of IDs	2
ID#	Name	R.Time	Area	Height	Conc.	Curve	3rd	2nd	1st	Constant	Area Ratio	Height Ratio	Conc. %	Norm Conc.
1	N2O	2.880	55498	14475	1.418	Linear	0.000000e+00	0.000000e+00	3.915173e+004	0.000000e+00	0	0	100.000	100.000
2	SF6	3.269	18688	561	0.000	Linear	0.000000e+00	0.000000e+00	0.000000e+00	0.000000e+00	0	0	0.000	0.000

[Group Results(Ch1)]
# of Groups	0

[Group Results(Ch2)]
# of Groups	0

[Group Results(Ch3)]
# of Groups	0

[Chromatogram (Ch1)]
Interval(msec)	220
# of Points	1091
Start Time(min)	0.002
End Time(min)	3.998
R.Time (min)	Intensity
0.00167	-9
0.00533	-9
0.00900	-1
0.01267	8
0.01633	12
0.02000	12
0.02367	11
0.02733	8
0.03100	20
0.03467	29
0.03833	34
0.04200	39
0.04567	41
0.04933	39
0.05300	36
0.05667	32
0.06033	31
0.06400	32
0.06767	33
0.07133	38
0.07500	44
0.07867	48
0.08233	50
0.08600	56
0.08967	60
0.09333	62
0.09700	66
0.10067	66
0.10433	62
0.10800	67
0.11167	74
0.11533	73
0.11900	63
0.12267	53
0.12633	47
0.13000	45
0.13367	47
0.13733	47
0.14100	44
0.14467	40
0.14833	37
0.15200	36
0.15567	34
0.15933	32
0.16300	33
0.16667	33
0.17033	25
0.17400	15
0.17767	10
0.18133	8
0.18500	11
0.18867	16
0.19233	18
0.19600	18
0.19967	18
0.20333	23
0.20700	23
0.21067	21
0.21433	17
0.21800	18
0.22167	18
0.22533	14
0.22900	11
0.23267	9
0.23633	9
0.24000	7
0.24367	2
0.24733	-2
0.25100	-3
0.25467	-3
0.25833	-5
0.26200	-11
0.26567	-21
0.26933	-28
0.27300	-27
0.27667	-20
0.28033	-14
0.28400	-14
0.28767	-13
0.29133	-13
0.29500	-17
0.29867	-22
0.30233	-18
0.30600	-11
0.30967	-8
0.31333	-13
0.31700	-14
0.32067	-9
0.32433	-6
0.32800	-3
0.33167	2
0.33533	2
0.33900	-6
0.34267	-16
0.34633	-23
0.35000	-27
0.35367	-29
0.35733	-30
0.36100	-31
0.36467	-33
0.36833	-32
0.37200	-31
0.37567	-28
0.37933	-25
0.38300	-22
0.38667	-23
0.39033	-28
0.39400	-35
0.39767	-39
0.40133	-36
0.40500	-32
0.40867	-31
0.41233	-33
0.41600	-31
0.41967	-28
0.42333	-24
0.42700	-20
0.43067	-18
0.43433	-18
0.43800	-19
0.44167	-21
0.44533	-22
0.44900	-20
0.45267	-22
0.45633	-27
0.46000	-31
0.46367	-32
0.46733	-26
0.47100	-20
0.47467	-20
0.47833	-21
0.48200	-26
0.48567	-34
0.48933	-39
0.49300	-41
0.49667	-43
0.50033	-45
0.50400	-47
0.50767	-47
0.51133	-44
0.51500	-40
0.51867	-37
0.52233	-31
0.52600	-26
0.52967	-23
0.53333	-22
0.53700	-16
0.54067	-11
0.54433	-10
0.54800	-11
0.55167	-13
0.55533	-14
0.55900	-15
0.56267	-16
0.56633	-14
0.57000	-14
0.57367	-18
0.57733	-22
0.58100	-24
0.58467	-23
0.58833	-24
0.59200	-29
0.59567	-33
0.59933	-32
0.60300	-31
0.60667	-31
0.61033	-31
0.61400	-30
0.61767	-27
0.62133	-27
0.62500	-31
0.62867	-33
0.63233	-29
0.63600	-30
0.63967	-38
0.64333	-44
0.64700	-45
0.65067	-43
0.65433	-39
0.65800	-35
0.66167	-34
0.66533	-34
0.66900	-35
0.67267	-38
0.67633	-37
0.68000	-35
0.68367	-32
0.68733	-30
0.69100	-29
0.69467	-29
0.69833	-29
0.70200	-31
0.70567	-36
0.70933	-33
0.71300	-29
0.71667	-29
0.72033	-30
0.72400	-32
0.72767	-31
0.73133	-30
0.73500	-30
0.73867	-31
0.74233	-31
0.74600	-31
0.74967	-29
0.75333	-23
0.75700	-16
0.76067	-11
0.76433	-13
0.76800	-22
0.77167	-32
0.77533	-32
0.77900	-30
0.78267	-35
0.78633	-45
0.79000	-59
0.79367	-70
0.79733	-74
0.80100	-72
0.80467	-70
0.80833	-68
0.81200	-62
0.81567	-47
0.81933	-35
0.82300	-29
0.82667	-26
0.83033	-20
0.83400	-17
0.83767	-13
0.84133	-12
0.84500	-11
0.84867	-10
0.85233	-10
0.85600	-10
0.85967	-12
0.86333	-16
0.86700	-20
0.87067	-27
0.87433	-33
0.87800	-30
0.88167	-20
0.88533	-10
0.88900	-5
0.89267	-7
0.89633	-10
0.90000	-12
0.90367	-20
0.90733	-18
0.91100	-13
0.91467	-11
0.91833	-12
0.92200	-8
0.92567	0
0.92933	12
0.93300	24
0.93667	32
0.94033	33
0.94400	29
0.94767	16
0.95133	2
0.95500	-8
0.95867	-16
0.96233	-19
0.96600	-15
0.96967	-5
0.97333	3
0.97700	-1
0.98067	-14
0.98433	-24
0.98800	-25
0.99167	-20
0.99533	-15
0.99900	-14
1.00267	-16
1.00633	-16
1.01000	-14
1.01367	-11
1.01733	-9
1.02100	-10
1.02467	-10
1.02833	-7
1.03200	-8
1.03567	-15
1.03933	-20
1.04300	-20
1.04667	-14
1.05033	-12
1.05400	-14
1.05767	-12
1.06133	-4
1.06500	5
1.06867	10
1.07233	13
1.07600	13
1.07967	8
1.08333	-0
1.08700	-10
1.09067	-19
1.09433	-26
1.09800	-38
1.10167	-47
1.10533	-46
1.10900	-40
1.11267	-30
1.11633	-27
1.12000	-29
1.12367	-31
1.12733	-29
1.13100	-25
1.13467	-22
1.13833	-23
1.14200	-27
1.14567	-30
1.14933	-27
1.15300	-20
1.15667	-8
1.16033	-5
1.16400	-8
1.16767	-10
1.17133	-12
1.17500	-14
1.17867	-16
1.18233	-23
1.18600	-31
1.18967	-36
1.19333	-38
1.19700	-40
1.20067	-41
1.20433	-39
1.20800	-34
1.21167	-27
1.21533	-22
1.21900	-16
1.22267	-8
1.22633	-5
1.23000	-8
1.23367	-9
1.23733	-12
1.24100	-11
1.24467	-10
1.24833	-14
1.25200	-19
1.25567	-23
1.25933	-24
1.26300	-34
1.26667	-45
1.27033	-50
1.27400	-46
1.27767	-43
1.28133	-42
1.28500	-41
1.28867	-34
1.29233	-21
1.29600	-17
1.29967	-18
1.30333	-21
1.30700	-25
1.31067	-27
1.31433	-26
1.31800	-29
1.32167	-34
1.32533	-39
1.32900	-42
1.33267	-42
1.33633	-39
1.34000	-36
1.34367	-30
1.34733	-26
1.35100	-24
1.35467	-24
1.35833	-24
1.36200	-20
1.36567	-19
1.36933	-17
1.37300	-16
1.37667	-23
1.38033	-39
1.38400	-53
1.38767	-55
1.39133	-49
1.39500	-45
1.39867	-45
1.40233	-41
1.40600	-39
1.40967	-47
1.41333	-55
1.41700	-56
1.42067	-58
1.42433	-63
1.42800	-66
1.43167	-65
1.43533	-62
1.43900	-51
1.44267	-8
1.44633	89
1.45000	201
1.45367	269
1.45733	296
1.46100	298
1.46467	283
1.46833	260
1.47200	249
1.47567	263
1.47933	279
1.48300	267
1.48667	219
1.49033	152
1.49400	82
1.49767	13
1.50133	-49
1.50500	-99
1.50867	-131
1.51233	-153
1.51600	-170
1.51967	-180
1.52333	-181
1.52700	-178
1.53067	-177
1.53433	-171
1.53800	-115
1.54167	154
1.54533	912
1.54900	2327
1.55267	4213
1.55633	6165
1.56000	7841
1.56367	9072
1.56733	9764
1.57100	9788
1.57467	9067
1.57833	7737
1.58200	6116
1.58567	4532
1.58933	3190
1.59300	2156
1.59667	1410
1.60033	892
1.60400	544
1.60767	316
1.61133	175
1.61500	87
1.61867	31
1.62233	-9
1.62600	-40
1.62967	-66
1.63333	-86
1.63700	-99
1.64067	-105
1.64433	-108
1.64800	-110
1.65167	-112
1.65533	-112
1.65900	-110
1.66267	-109
1.66633	-113
1.67000	-114
1.67367	-112
1.67733	-109
1.68100	-103
1.68467	-96
1.68833	-89
1.69200	-82
1.69567	-82
1.69933	-84
1.70300	-82
1.70667	-77
1.71033	-73
1.71400	-71
1.71767	-75
1.72133	-85
1.72500	-91
1.72867	-94
1.73233	-93
1.73600	-86
1.73967	-81
1.74333	-79
1.74700	-82
1.75067	-85
1.75433	-89
1.75800	-92
1.76167	-87
1.76533	-83
1.76900	-82
1.77267	-81
1.77633	-79
1.78000	-76
1.78367	-73
1.78733	-72
1.79100	-75
1.79467	-79
1.79833	-82
1.80200	-86
1.80567	-89
1.80933	-90
1.81300	-92
1.81667	-93
1.82033	-93
1.82400	-88
1.82767	-83
1.83133	-81
1.83500	-81
1.83867	-80
1.84233	-73
1.84600	-64
1.84967	-64
1.85333	-68
1.85700	-73
1.86067	-77
1.86433	-79
1.86800	-79
1.87167	-77
1.87533	-73
1.87900	-68
1.88267	-63
1.88633	-59
1.89000	-57
1.89367	-61
1.89733	-68
1.90100	-76
1.90467	-82
1.90833	-77
1.91200	-70
1.91567	-64
1.91933	-59
1.92300	-53
1.92667	-49
1.93033	-47
1.93400	-50
1.93767	-53
1.94133	-58
1.94500	-62
1.94867	-64
1.95233	-49
1.95600	73
1.95967	825
1.96333	4438
1.96700	17600
1.97067	54297
1.97433	133483
1.97800	266521
1.98167	444131
1.98533	637724
1.98900	813315
1.99267	942922
1.99633	1008495
2.00000	1002531
2.00367	929934
2.00733	807686
2.01100	660204
2.01467	511756
2.01833	379851
2.02200	272887
2.02567	191756
2.02933	133085
2.03300	92018
2.03667	63886
2.04033	44857
2.04400	32043
2.04767	23395
2.05133	17509
2.05500	13452
2.05867	10612
2.06233	8584
2.06600	7104
2.06967	6003
2.07333	5158
2.07700	4488
2.08067	3952
2.08433	3522
2.08800	3169
2.09167	2879
2.09533	2633
2.09900	2420
2.10267	2235
2.10633	2074
2.11000	1930
2.11367	1798
2.11733	1680
2.12100	1575
2.12467	1482
2.12833	1401
2.13200	1326
2.13567	1260
2.13933	1201
2.14300	1144
2.14667	1088
2.15033	1032
2.15400	980
2.15767	931
2.16133	890
2.16500	855
2.16867	826
2.17233	797
2.17600	768
2.17967	743
2.18333	721
2.18700	699
2.19067	677
2.19433	656
2.19800	639
2.20167	624
2.20533	610
2.20900	599
2.21267	588
2.21633	571
2.22000	550
2.22367	530
2.22733	508
2.23100	486
2.23467	466
2.23833	449
2.24200	436
2.24567	424
2.24933	415
2.25300	406
2.25667	402
2.26033	393
2.26400	382
2.26767	377
2.27133	371
2.27500	362
2.27867	352
2.28233	341
2.28600	338
2.28967	341
2.29333	338
2.29700	337
2.30067	334
2.30433	332
2.30800	331
2.31167	324
2.31533	312
2.31900	300
2.32267	291
2.32633	288
2.33000	290
2.33367	291
2.33733	291
2.34100	284
2.34467	275
2.34833	267
2.35200	258
2.35567	245
2.35933	237
2.36300	234
2.36667	228
2.37033	227
2.37400	230
2.37767	226
2.38133	220
2.38500	215
2.38867	215
2.39233	219
2.39600	223
2.39967	228
2.40333	233
2.40700	233
2.41067	239
2.41433	246
2.41800	247
2.42167	240
2.42533	234
2.42900	230
2.43267	220
2.43633	212
2.44000	205
2.44367	198
2.44733	196
2.45100	196
2.45467	191
2.45833	178
2.46200	166
2.46567	159
2.46933	155
2.47300	152
2.47667	153
2.48033	154
2.48400	155
2.48767	155
2.49133	152
2.49500	147
2.49867	144
2.50233	145
2.50600	148
2.50967	153
2.51333	160
2.51700	168
2.52067	169
2.52433	164
2.52800	152
2.53167	141
2.53533	137
2.53900	141
2.54267	147
2.54633	149
2.55000	153
2.55367	159
2.55733	160
2.56100	155
2.56467	147
2.56833	141
2.57200	138
2.57567	140
2.57933	143
2.58300	148
2.58667	155
2.59033	161
2.59400	164
2.59767	163
2.60133	160
2.60500	157
2.60867	153
2.61233	150
2.61600	149
2.61967	147
2.62333	143
2.62700	135
2.63067	127
2.63433	121
2.63800	116
2.64167	115
2.64533	114
2.64900	119
2.65267	126
2.65633	127
2.66000	121
2.66367	116
2.66733	116
2.67100	124
2.67467	131
2.67833	133
2.68200	131
2.68567	131
2.68933	131
2.69300	124
2.69667	114
2.70033	108
2.70400	103
2.70767	104
2.71133	103
2.71500	101
2.71867	103
2.72233	104
2.72600	108
2.72967	113
2.73333	116
2.73700	121
2.74067	127
2.74433	134
2.74800	138
2.75167	133
2.75533	122
2.75900	111
2.76267	104
2.76633	102
2.77000	104
2.77367	104
2.77733	106
2.78100	107
2.78467	105
2.78833	99
2.79200	95
2.79567	97
2.79933	102
2.80300	103
2.80667	99
2.81033	97
2.81400	98
2.81767	99
2.82133	100
2.82500	101
2.82867	105
2.83233	111
2.83600	112
2.83967	107
2.84333	104
2.84700	104
2.85067	104
2.85433	103
2.85800	103
2.86167	100
2.86533	94
2.86900	97
2.87267	101
2.87633	106
2.88000	108
2.88367	107
2.88733	105
2.89100	107
2.89467	112
2.89833	111
2.90200	107
2.90567	105
2.90933	101
2.91300	97
2.91667	91
2.92033	86
2.92400	88
2.92767	96
2.93133	105
2.93500	105
2.93867	100
2.94233	94
2.94600	90
2.94967	87
2.95333	89
2.95700	93
2.96067	94
2.96433	96
2.96800	97
2.97167	97
2.97533	93
2.97900	92
2.98267	97
2.98633	101
2.99000	105
2.99367	109
2.99733	112
3.00100	117
3.00467	117
3.00833	115
3.01200	117
3.01567	116
3.01933	114
3.02300	109
3.02667	89
3.03033	81
3.03400	82
3.03767	77
3.04133	77
3.04500	79
3.04867	76
3.05233	77
3.05600	78
3.05967	74
3.06333	71
3.06700	75
3.07067	82
3.07433	90
3.07800	97
3.08167	101
3.08533	102
3.08900	101
3.09267	104
3.09633	104
3.10000	99
3.10367	91
3.10733	82
3.11100	72
3.11467	67
3.11833	68
3.12200	68
3.12567	68
3.12933	67
3.13300	69
3.13667	72
3.14033	77
3.14400	79
3.14767	77
3.15133	73
3.15500	69
3.15867	68
3.16233	67
3.16600	64
3.16967	65
3.17333	73
3.17700	83
3.18067	85
3.18433	78
3.18800	72
3.19167	69
3.19533	71
3.19900	76
3.20267	80
3.20633	80
3.21000	76
3.21367	72
3.21733	71
3.22100	72
3.22467	77
3.22833	80
3.23200	74
3.23567	62
3.23933	50
3.24300	47
3.24667	51
3.25033	53
3.25400	53
3.25767	53
3.26133	56
3.26500	66
3.26867	79
3.27233	92
3.27600	96
3.27967	92
3.28333	85
3.28700	82
3.29067	74
3.29433	62
3.29800	51
3.30167	46
3.30533	42
3.30900	33
3.31267	27
3.31633	28
3.32000	32
3.32367	35
3.32733	43
3.33100	58
3.33467	64
3.33833	64
3.34200	63
3.34567	66
3.34933	64
3.35300	55
3.35667	48
3.36033	46
3.36400	48
3.36767	53
3.37133	54
3.37500	58
3.37867	63
3.38233	67
3.38600	68
3.38967	67
3.39333	67
3.39700	64
3.40067	69
3.40433	80
3.40800	86
3.41167	81
3.41533	68
3.41900	54
3.42267	43
3.42633	39
3.43000	39
3.43367	37
3.43733	33
3.44100	34
3.44467	43
3.44833	54
3.45200	57
3.45567	57
3.45933	53
3.46300	48
3.46667	44
3.47033	43
3.47400	43
3.47767	40
3.48133	39
3.48500	40
3.48867	41
3.49233	45
3.49600	51
3.49967	54
3.50333	54
3.50700	55
3.51067	59
3.51433	60
3.51800	57
3.52167	55
3.52533	54
3.52900	53
3.53267	46
3.53633	35
3.54000	25
3.54367	20
3.54733	20
3.55100	27
3.55467	40
3.55833	48
3.56200	49
3.56567	47
3.56933	47
3.57300	49
3.57667	49
3.58033	44
3.58400	37
3.58767	36
3.59133	34
3.59500	26
3.59867	20
3.60233	19
3.60600	18
3.60967	15
3.61333	12
3.61700	11
3.62067	15
3.62433	19
3.62800	26
3.63167	37
3.63533	37
3.63900	32
3.64267	33
3.64633	31
3.65000	28
3.65367	29
3.65733	33
3.66100	36
3.66467	39
3.66833	40
3.67200	40
3.67567	37
3.67933	31
3.68300	32
3.68667	36
3.69033	44
3.69400	47
3.69767	45
3.70133	38
3.70500	36
3.70867	35
3.71233	32
3.71600	30
3.71967	28
3.72333	26
3.72700	20
3.73067	12
3.73433	3
3.73800	-5
3.74167	-4
3.74533	3
3.74900	9
3.75267	14
3.75633	16
3.76000	16
3.76367	13
3.76733	6
3.77100	1
3.77467	0
3.77833	3
3.78200	8
3.78567	15
3.78933	15
3.79300	10
3.79667	6
3.80033	7
3.80400	8
3.80767	10
3.81133	7
3.81500	2
3.81867	2
3.82233	7
3.82600	11
3.82967	14
3.83333	16
3.83700	22
3.84067	26
3.84433	25
3.84800	25
3.85167	25
3.85533	24
3.85900	20
3.86267	12
3.86633	7
3.87000	4
3.87367	-6
3.87733	-18
3.88100	-22
3.88467	-20
3.88833	-17
3.89200	-13
3.89567	-10
3.89933	-3
3.90300	7
3.90667	11
3.91033	9
3.91400	6
3.91767	5
3.92133	7
3.92500	13
3.92867	18
3.93233	18
3.93600	12
3.93967	7
3.94333	4
3.94700	4
3.95067	4
3.95433	4
3.95800	4
3.96167	3
3.96533	2
3.96900	1
3.97267	1
3.97633	0
3.98000	-1
3.98367	-2
3.98733	-7
3.99100	-14
3.99467	-14
3.99833	-8

[Chromatogram (Ch2)]
Interval(msec)	220
# of Points	1091
Start Time(min)	0.002
End Time(min)	3.998
R.Time (min)	Intensity
0.00167	-0
0.00533	-0
0.00900	-0
0.01267	-1
0.01633	-1
0.02000	-1
0.02367	-1
0.02733	-1
0.03100	-0
0.03467	-0
0.03833	-0
0.04200	-0
0.04567	-0
0.04933	-0
0.05300	0
0.05667	0
0.06033	1
0.06400	1
0.06767	1
0.07133	1
0.07500	2
0.07867	2
0.08233	2
0.08600	2
0.08967	2
0.09333	2
0.09700	2
0.10067	3
0.10433	3
0.10800	3
0.11167	3
0.11533	3
0.11900	3
0.12267	3
0.12633	2
0.13000	2
0.13367	1
0.13733	1
0.14100	1
0.14467	0
0.14833	0
0.15200	0
0.15567	0
0.15933	-0
0.16300	-0
0.16667	-0
0.17033	-0
0.17400	0
0.17767	0
0.18133	0
0.18500	0
0.18867	0
0.19233	0
0.19600	0
0.19967	0
0.20333	1
0.20700	1
0.21067	1
0.21433	2
0.21800	2
0.22167	3
0.22533	4
0.22900	4
0.23267	4
0.23633	4
0.24000	4
0.24367	4
0.24733	3
0.25100	2
0.25467	2
0.25833	2
0.26200	2
0.26567	1
0.26933	1
0.27300	2
0.27667	2
0.28033	2
0.28400	2
0.28767	3
0.29133	3
0.29500	3
0.29867	3
0.30233	3
0.30600	3
0.30967	3
0.31333	3
0.31700	2
0.32067	2
0.32433	2
0.32800	2
0.33167	2
0.33533	2
0.33900	2
0.34267	2
0.34633	2
0.35000	1
0.35367	1
0.35733	1
0.36100	1
0.36467	1
0.36833	1
0.37200	1
0.37567	2
0.37933	2
0.38300	2
0.38667	2
0.39033	2
0.39400	2
0.39767	2
0.40133	2
0.40500	1
0.40867	1
0.41233	0
0.41600	-0
0.41967	-1
0.42333	-1
0.42700	-2
0.43067	-2
0.43433	-2
0.43800	-3
0.44167	-3
0.44533	-3
0.44900	-3
0.45267	-3
0.45633	-3
0.46000	-3
0.46367	-3
0.46733	-3
0.47100	-3
0.47467	-3
0.47833	-3
0.48200	-4
0.48567	-4
0.48933	-3
0.49300	-3
0.49667	-3
0.50033	-3
0.50400	-2
0.50767	-2
0.51133	-1
0.51500	-0
0.51867	0
0.52233	0
0.52600	0
0.52967	0
0.53333	-0
0.53700	-0
0.54067	-1
0.54433	-1
0.54800	-1
0.55167	-1
0.55533	-1
0.55900	-1
0.56267	-1
0.56633	-1
0.57000	-1
0.57367	-1
0.57733	-1
0.58100	-1
0.58467	-1
0.58833	-1
0.59200	-1
0.59567	-1
0.59933	-1
0.60300	-1
0.60667	-1
0.61033	-1
0.61400	-2
0.61767	-2
0.62133	-2
0.62500	-2
0.62867	-2
0.63233	-2
0.63600	-2
0.63967	-3
0.64333	-3
0.64700	-3
0.65067	-3
0.65433	-3
0.65800	-3
0.66167	-3
0.66533	-3
0.66900	-3
0.67267	-2
0.67633	-2
0.68000	-2
0.68367	-2
0.68733	-2
0.69100	-2
0.69467	-2
0.69833	-2
0.70200	-2
0.70567	-3
0.70933	-3
0.71300	-3
0.71667	-3
0.72033	-3
0.72400	-3
0.72767	-3
0.73133	-3
0.73500	-3
0.73867	-3
0.74233	-3
0.74600	-3
0.74967	-3
0.75333	-3
0.75700	-3
0.76067	-2
0.76433	-2
0.76800	-2
0.77167	-2
0.77533	-2
0.77900	-2
0.78267	-1
0.78633	-1
0.79000	-1
0.79367	-0
0.79733	0
0.80100	0
0.80467	1
0.80833	1
0.81200	1
0.81567	2
0.81933	2
0.82300	2
0.82667	3
0.83033	3
0.83400	3
0.83767	3
0.84133	3
0.84500	2
0.84867	2
0.85233	2
0.85600	1
0.85967	1
0.86333	0
0.86700	0
0.87067	0
0.87433	-0
0.87800	-1
0.88167	-1
0.88533	-1
0.88900	-2
0.89267	-2
0.89633	-3
0.90000	-4
0.90367	-4
0.90733	-5
0.91100	-5
0.91467	-5
0.91833	-5
0.92200	-5
0.92567	-5
0.92933	-5
0.93300	-6
0.93667	-6
0.94033	-6
0.94400	-6
0.94767	-6
0.95133	-6
0.95500	-6
0.95867	-6
0.96233	-6
0.96600	-5
0.96967	-5
0.97333	-5
0.97700	-5
0.98067	-4
0.98433	-4
0.98800	-4
0.99167	-3
0.99533	-3
0.99900	-3
1.00267	-2
1.00633	-2
1.01000	-2
1.01367	-1
1.01733	-1
1.02100	-1
1.02467	-1
1.02833	-0
1.03200	0
1.03567	0
1.03933	0
1.04300	1
1.04667	1
1.05033	1
1.05400	1
1.05767	1
1.06133	1
1.06500	1
1.06867	0
1.07233	0
1.07600	0
1.07967	0
1.08333	-0
1.08700	-0
1.09067	-0
1.09433	-1
1.09800	-1
1.10167	-2
1.10533	-2
1.10900	-2
1.11267	-2
1.11633	-2
1.12000	-2
1.12367	-2
1.12733	-2
1.13100	-2
1.13467	-3
1.13833	-3
1.14200	-3
1.14567	-3
1.14933	-4
1.15300	-4
1.15667	-4
1.16033	-4
1.16400	-4
1.16767	-4
1.17133	-4
1.17500	-4
1.17867	-3
1.18233	-3
1.18600	-3
1.18967	-3
1.19333	-4
1.19700	-4
1.20067	-4
1.20433	-4
1.20800	-4
1.21167	-3
1.21533	-3
1.21900	-3
1.22267	-3
1.22633	-3
1.23000	-3
1.23367	-2
1.23733	-2
1.24100	-2
1.24467	-2
1.24833	-2
1.25200	-2
1.25567	-1
1.25933	-1
1.26300	-1
1.26667	-1
1.27033	-1
1.27400	-1
1.27767	-1
1.28133	-1
1.28500	-1
1.28867	-1
1.29233	-1
1.29600	-1
1.29967	-1
1.30333	-0
1.30700	-0
1.31067	-0
1.31433	-0
1.31800	-1
1.32167	-1
1.32533	-1
1.32900	-1
1.33267	-1
1.33633	-1
1.34000	-2
1.34367	-2
1.34733	-2
1.35100	-2
1.35467	-2
1.35833	-2
1.36200	-2
1.36567	-3
1.36933	-3
1.37300	-3
1.37667	-3
1.38033	-3
1.38400	-3
1.38767	-2
1.39133	-2
1.39500	-2
1.39867	-2
1.40233	-3
1.40600	-3
1.40967	-3
1.41333	-3
1.41700	-3
1.42067	-3
1.42433	-2
1.42800	-2
1.43167	-2
1.43533	-2
1.43900	-3
1.44267	-3
1.44633	-3
1.45000	-3
1.45367	-2
1.45733	-2
1.46100	-2
1.46467	-2
1.46833	-2
1.47200	-2
1.47567	-2
1.47933	-2
1.48300	-2
1.48667	-2
1.49033	-2
1.49400	-2
1.49767	-2
1.50133	-2
1.50500	-3
1.50867	-3
1.51233	-3
1.51600	-3
1.51967	-4
1.52333	-4
1.52700	-4
1.53067	-4
1.53433	-4
1.53800	-4
1.54167	-4
1.54533	-3
1.54900	-3
1.55267	-3
1.55633	-3
1.56000	-3
1.56367	-3
1.56733	-3
1.57100	-3
1.57467	-3
1.57833	-3
1.58200	-3
1.58567	-3
1.58933	-3
1.59300	-4
1.59667	-4
1.60033	-5
1.60400	-6
1.60767	-7
1.61133	-9
1.61500	-10
1.61867	-13
1.62233	-15
1.62600	-18
1.62967	-21
1.63333	-24
1.63700	-27
1.64067	-31
1.64433	-35
1.64800	-38
1.65167	-42
1.65533	-46
1.65900	-50
1.66267	-54
1.66633	-58
1.67000	-63
1.67367	-69
1.67733	-74
1.68100	-80
1.68467	-85
1.68833	-89
1.69200	-93
1.69567	-97
1.69933	-100
1.70300	-102
1.70667	-103
1.71033	-105
1.71400	-105
1.71767	-106
1.72133	-106
1.72500	-106
1.72867	-106
1.73233	-107
1.73600	-108
1.73967	-108
1.74333	-110
1.74700	-111
1.75067	-112
1.75433	-112
1.75800	-113
1.76167	-113
1.76533	-113
1.76900	-113
1.77267	-113
1.77633	-112
1.78000	-111
1.78367	-110
1.78733	-109
1.79100	-108
1.79467	-108
1.79833	-108
1.80200	-108
1.80567	-109
1.80933	-111
1.81300	-112
1.81667	-113
1.82033	-113
1.82400	-114
1.82767	-114
1.83133	-115
1.83500	-115
1.83867	-115
1.84233	-115
1.84600	-115
1.84967	-115
1.85333	-115
1.85700	-115
1.86067	-115
1.86433	-114
1.86800	-114
1.87167	-114
1.87533	-114
1.87900	-114
1.88267	-114
1.88633	-114
1.89000	-114
1.89367	-114
1.89733	-114
1.90100	-114
1.90467	-114
1.90833	-114
1.91200	-113
1.91567	-112
1.91933	-112
1.92300	-111
1.92667	-111
1.93033	-112
1.93400	-112
1.93767	-113
1.94133	-113
1.94500	-113
1.94867	-113
1.95233	-113
1.95600	-112
1.95967	-112
1.96333	-111
1.96700	-111
1.97067	-111
1.97433	-111
1.97800	-111
1.98167	-110
1.98533	-109
1.98900	-109
1.99267	-108
1.99633	-108
2.00000	-107
2.00367	-107
2.00733	-107
2.01100	-108
2.01467	-108
2.01833	-107
2.02200	-107
2.02567	-107
2.02933	-107
2.03300	-107
2.03667	-107
2.04033	-107
2.04400	-107
2.04767	-107
2.05133	-106
2.05500	-106
2.05867	-105
2.06233	-105
2.06600	-104
2.06967	-103
2.07333	-102
2.07700	-102
2.08067	-101
2.08433	-101
2.08800	-101
2.09167	-100
2.09533	-100
2.09900	-99
2.10267	-99
2.10633	-99
2.11000	-99
2.11367	-99
2.11733	-99
2.12100	-99
2.12467	-99
2.12833	-99
2.13200	-100
2.13567	-100
2.13933	-99
2.14300	-99
2.14667	-98
2.15033	-97
2.15400	-97
2.15767	-96
2.16133	-96
2.16500	-95
2.16867	-95
2.17233	-94
2.17600	-94
2.17967	-93
2.18333	-93
2.18700	-92
2.19067	-92
2.19433	-91
2.19800	-90
2.20167	-90
2.20533	-90
2.20900	-90
2.21267	-90
2.21633	-90
2.22000	-90
2.22367	-90
2.22733	-90
2.23100	-89
2.23467	-89
2.23833	-89
2.24200	-89
2.24567	-88
2.24933	-88
2.25300	-88
2.25667	-87
2.26033	-87
2.26400	-86
2.26767	-86
2.27133	-85
2.27500	-85
2.27867	-85
2.28233	-85
2.28600	-84
2.28967	-84
2.29333	-83
2.29700	-83
2.30067	-82
2.30433	-81
2.30800	-81
2.31167	-81
2.31533	-81
2.31900	-81
2.32267	-81
2.32633	-81
2.33000	-81
2.33367	-81
2.33733	-82
2.34100	-82
2.34467	-82
2.34833	-81
2.35200	-80
2.35567	-78
2.35933	-77
2.36300	-75
2.36667	-73
2.37033	-71
2.37400	-68
2.37767	-65
2.38133	-61
2.38500	-57
2.38867	-54
2.39233	-50
2.39600	-45
2.39967	-41
2.40333	-36
2.40700	-32
2.41067	-27
2.41433	-23
2.41800	-19
2.42167	-16
2.42533	-14
2.42900	-12
2.43267	-11
2.43633	-9
2.44000	-8
2.44367	-7
2.44733	-6
2.45100	-5
2.45467	-5
2.45833	-5
2.46200	-5
2.46567	-5
2.46933	-5
2.47300	-4
2.47667	-2
2.48033	-1
2.48400	-0
2.48767	0
2.49133	1
2.49500	2
2.49867	3
2.50233	3
2.50600	4
2.50967	4
2.51333	5
2.51700	6
2.52067	7
2.52433	9
2.52800	9
2.53167	10
2.53533	11
2.53900	12
2.54267	12
2.54633	13
2.55000	14
2.55367	15
2.55733	15
2.56100	15
2.56467	15
2.56833	15
2.57200	15
2.57567	15
2.57933	15
2.58300	16
2.58667	16
2.59033	17
2.59400	17
2.59767	17
2.60133	17
2.60500	16
2.60867	16
2.61233	16
2.61600	16
2.61967	17
2.62333	17
2.62700	18
2.63067	18
2.63433	18
2.63800	19
2.64167	19
2.64533	19
2.64900	19
2.65267	20
2.65633	20
2.66000	20
2.66367	20
2.66733	20
2.67100	20
2.67467	20
2.67833	20
2.68200	20
2.68567	20
2.68933	21
2.69300	21
2.69667	22
2.70033	23
2.70400	23
2.70767	23
2.71133	23
2.71500	23
2.71867	22
2.72233	22
2.72600	21
2.72967	21
2.73333	21
2.73700	21
2.74067	22
2.74433	23
2.74800	23
2.75167	24
2.75533	25
2.75900	25
2.76267	25
2.76633	26
2.77000	26
2.77367	26
2.77733	25
2.78100	25
2.78467	24
2.78833	24
2.79200	23
2.79567	23
2.79933	23
2.80300	23
2.80667	23
2.81033	23
2.81400	23
2.81767	23
2.82133	24
2.82500	24
2.82867	25
2.83233	25
2.83600	25
2.83967	25
2.84333	24
2.84700	21
2.85067	17
2.85433	10
2.85800	-1
2.86167	-15
2.86533	-34
2.86900	-58
2.87267	-87
2.87633	-122
2.88000	-162
2.88367	-209
2.88733	-260
2.89100	-316
2.89467	-378
2.89833	-444
2.90200	-514
2.90567	-587
2.90933	-664
2.91300	-743
2.91667	-826
2.92033	-911
2.92400	-998
2.92767	-1086
2.93133	-1176
2.93500	-1268
2.93867	-1361
2.94233	-1447
2.94600	-1512
2.94967	-1546
2.95333	-1544
2.95700	-1506
2.96067	-1439
2.96433	-1350
2.96800	-1247
2.97167	-1136
2.97533	-1024
2.97900	-914
2.98267	-810
2.98633	-713
2.99000	-624
2.99367	-543
2.99733	-471
3.00100	-407
3.00467	-351
3.00833	-302
3.01200	-259
3.01567	-222
3.01933	-190
3.02300	-162
3.02667	-138
3.03033	-118
3.03400	-100
3.03767	-85
3.04133	-72
3.04500	-61
3.04867	-51
3.05233	-43
3.05600	-36
3.05967	-30
3.06333	-25
3.06700	-21
3.07067	-17
3.07433	-14
3.07800	-11
3.08167	-8
3.08533	-5
3.08900	-3
3.09267	-2
3.09633	0
3.10000	1
3.10367	2
3.10733	3
3.11100	4
3.11467	6
3.11833	6
3.12200	7
3.12567	8
3.12933	9
3.13300	10
3.13667	11
3.14033	11
3.14400	12
3.14767	12
3.15133	12
3.15500	13
3.15867	13
3.16233	13
3.16600	13
3.16967	14
3.17333	14
3.17700	15
3.18067	15
3.18433	15
3.18800	16
3.19167	16
3.19533	16
3.19900	17
3.20267	17
3.20633	17
3.21000	17
3.21367	17
3.21733	17
3.22100	17
3.22467	17
3.22833	17
3.23200	18
3.23567	18
3.23933	18
3.24300	18
3.24667	18
3.25033	19
3.25400	19
3.25767	19
3.26133	19
3.26500	19
3.26867	19
3.27233	19
3.27600	19
3.27967	20
3.28333	20
3.28700	21
3.29067	21
3.29433	22
3.29800	22
3.30167	23
3.30533	23
3.30900	24
3.31267	24
3.31633	24
3.32000	24
3.32367	24
3.32733	25
3.33100	25
3.33467	25
3.33833	25
3.34200	25
3.34567	25
3.34933	25
3.35300	25
3.35667	25
3.36033	25
3.36400	25
3.36767	25
3.37133	25
3.37500	25
3.37867	24
3.38233	24
3.38600	24
3.38967	24
3.39333	24
3.39700	24
3.40067	24
3.40433	24
3.40800	24
3.41167	24
3.41533	24
3.41900	24
3.42267	24
3.42633	24
3.43000	24
3.43367	23
3.43733	23
3.44100	23
3.44467	23
3.44833	24
3.45200	24
3.45567	24
3.45933	25
3.46300	25
3.46667	25
3.47033	25
3.47400	25
3.47767	25
3.48133	25
3.48500	25
3.48867	25
3.49233	25
3.49600	25
3.49967	25
3.50333	25
3.50700	25
3.51067	25
3.51433	25
3.51800	25
3.52167	25
3.52533	25
3.52900	25
3.53267	24
3.53633	24
3.54000	24
3.54367	24
3.54733	24
3.55100	24
3.55467	24
3.55833	24
3.56200	24
3.56567	24
3.56933	24
3.57300	24
3.57667	24
3.58033	24
3.58400	24
3.58767	24
3.59133	24
3.59500	24
3.59867	24
3.60233	24
3.60600	24
3.60967	24
3.61333	24
3.61700	24
3.62067	24
3.62433	24
3.62800	24
3.63167	25
3.63533	25
3.63900	25
3.64267	25
3.64633	25
3.65000	25
3.65367	25
3.65733	25
3.66100	25
3.66467	25
3.66833	25
3.67200	25
3.67567	25
3.67933	25
3.68300	25
3.68667	24
3.69033	24
3.69400	24
3.69767	24
3.70133	24
3.70500	24
3.70867	24
3.71233	24
3.71600	23
3.71967	23
3.72333	23
3.72700	23
3.73067	23
3.73433	23
3.73800	23
3.74167	23
3.74533	23
3.74900	23
3.75267	23
3.75633	23
3.76000	24
3.76367	24
3.76733	25
3.77100	25
3.77467	25
3.77833	25
3.78200	25
3.78567	26
3.78933	26
3.79300	26
3.79667	26
3.80033	25
3.80400	25
3.80767	25
3.81133	25
3.81500	25
3.81867	24
3.82233	24
3.82600	24
3.82967	23
3.83333	23
3.83700	23
3.84067	23
3.84433	23
3.84800	23
3.85167	23
3.85533	23
3.85900	23
3.86267	23
3.86633	23
3.87000	23
3.87367	23
3.87733	23
3.88100	22
3.88467	22
3.88833	22
3.89200	22
3.89567	22
3.89933	22
3.90300	22
3.90667	22
3.91033	23
3.91400	23
3.91767	23
3.92133	23
3.92500	23
3.92867	23
3.93233	23
3.93600	23
3.93967	23
3.94333	23
3.94700	24
3.95067	24
3.95433	24
3.95800	24
3.96167	24
3.96533	24
3.96900	24
3.97267	25
3.97633	25
3.98000	25
3.98367	25
3.98733	25
3.99100	24
3.99467	24
3.99833	24

[Chromatogram (Ch3)]
Interval(msec)	220
# of Points	1091
Start Time(min)	0.002
End Time(min)	3.998
R.Time (min)	Intensity
0.00167	-0
0.00533	-1
0.00900	-2
0.01267	-4
0.01633	-6
0.02000	-7
0.02367	-6
0.02733	-4
0.03100	-5
0.03467	-8
0.03833	-7
0.04200	-6
0.04567	-7
0.04933	-8
0.05300	-10
0.05667	-11
0.06033	-12
0.06400	-12
0.06767	-11
0.07133	-10
0.07500	-11
0.07867	-13
0.08233	-13
0.08600	-13
0.08967	-9
0.09333	-4
0.09700	-3
0.10067	-6
0.10433	-9
0.10800	-11
0.11167	-11
0.11533	-10
0.11900	-11
0.12267	-10
0.12633	-9
0.13000	-10
0.13367	-11
0.13733	-10
0.14100	-10
0.14467	-11
0.14833	-12
0.15200	-12
0.15567	-11
0.15933	-13
0.16300	-15
0.16667	-15
0.17033	-14
0.17400	-13
0.17767	-12
0.18133	-14
0.18500	-15
0.18867	-16
0.19233	-17
0.19600	-16
0.19967	-15
0.20333	-15
0.20700	-14
0.21067	-14
0.21433	-15
0.21800	-14
0.22167	-13
0.22533	-11
0.22900	-11
0.23267	-11
0.23633	-11
0.24000	-10
0.24367	-10
0.24733	-10
0.25100	-10
0.25467	-9
0.25833	-9
0.26200	-8
0.26567	-8
0.26933	-9
0.27300	-10
0.27667	-11
0.28033	-13
0.28400	-13
0.28767	-14
0.29133	-14
0.29500	-12
0.29867	-12
0.30233	-14
0.30600	-16
0.30967	-16
0.31333	-16
0.31700	-16
0.32067	-17
0.32433	-18
0.32800	-17
0.33167	-16
0.33533	-16
0.33900	-16
0.34267	-15
0.34633	-14
0.35000	-15
0.35367	-16
0.35733	-15
0.36100	-15
0.36467	-16
0.36833	-16
0.37200	-16
0.37567	-13
0.37933	-11
0.38300	-10
0.38667	-11
0.39033	-13
0.39400	-14
0.39767	-16
0.40133	-15
0.40500	-16
0.40867	-16
0.41233	-16
0.41600	-16
0.41967	-16
0.42333	-16
0.42700	-15
0.43067	-15
0.43433	-14
0.43800	-13
0.44167	-13
0.44533	-13
0.44900	-15
0.45267	-16
0.45633	-17
0.46000	-17
0.46367	-17
0.46733	-16
0.47100	-13
0.47467	-13
0.47833	-11
0.48200	-9
0.48567	-8
0.48933	-9
0.49300	-12
0.49667	-13
0.50033	-14
0.50400	-12
0.50767	-12
0.51133	-13
0.51500	-12
0.51867	-10
0.52233	-8
0.52600	-7
0.52967	-6
0.53333	-6
0.53700	-7
0.54067	-9
0.54433	-11
0.54800	-11
0.55167	-12
0.55533	-13
0.55900	-13
0.56267	-12
0.56633	-12
0.57000	-12
0.57367	-13
0.57733	-12
0.58100	-11
0.58467	-12
0.58833	-10
0.59200	-6
0.59567	-6
0.59933	-7
0.60300	-8
0.60667	-10
0.61033	-11
0.61400	-13
0.61767	-12
0.62133	-11
0.62500	-9
0.62867	-9
0.63233	-10
0.63600	-10
0.63967	-9
0.64333	-9
0.64700	-8
0.65067	-9
0.65433	-9
0.65800	-8
0.66167	-7
0.66533	-7
0.66900	-8
0.67267	-10
0.67633	-12
0.68000	-15
0.68367	-15
0.68733	-14
0.69100	-13
0.69467	-12
0.69833	-10
0.70200	-7
0.70567	-5
0.70933	-3
0.71300	-3
0.71667	-6
0.72033	-9
0.72400	-10
0.72767	-10
0.73133	-9
0.73500	-8
0.73867	-6
0.74233	-4
0.74600	-3
0.74967	-3
0.75333	-3
0.75700	-3
0.76067	-3
0.76433	-2
0.76800	-3
0.77167	-5
0.77533	-7
0.77900	-7
0.78267	-7
0.78633	-6
0.79000	-5
0.79367	-6
0.79733	-6
0.80100	-6
0.80467	-4
0.80833	-4
0.81200	-4
0.81567	-2
0.81933	-1
0.82300	-2
0.82667	-3
0.83033	-2
0.83400	-3
0.83767	-4
0.84133	-5
0.84500	-5
0.84867	-5
0.85233	-4
0.85600	-5
0.85967	-8
0.86333	-9
0.86700	-7
0.87067	-6
0.87433	-5
0.87800	-3
0.88167	-1
0.88533	-1
0.88900	-0
0.89267	-3
0.89633	-5
0.90000	-5
0.90367	-4
0.90733	-4
0.91100	-3
0.91467	-1
0.91833	1
0.92200	2
0.92567	1
0.92933	1
0.93300	1
0.93667	-1
0.94033	-3
0.94400	-4
0.94767	-4
0.95133	-2
0.95500	-1
0.95867	0
0.96233	2
0.96600	4
0.96967	4
0.97333	3
0.97700	2
0.98067	3
0.98433	5
0.98800	6
0.99167	7
0.99533	7
0.99900	8
1.00267	6
1.00633	4
1.01000	3
1.01367	3
1.01733	3
1.02100	2
1.02467	2
1.02833	2
1.03200	2
1.03567	1
1.03933	1
1.04300	-0
1.04667	-0
1.05033	0
1.05400	1
1.05767	4
1.06133	6
1.06500	7
1.06867	5
1.07233	3
1.07600	1
1.07967	3
1.08333	5
1.08700	6
1.09067	8
1.09433	9
1.09800	8
1.10167	7
1.10533	4
1.10900	2
1.11267	1
1.11633	2
1.12000	2
1.12367	4
1.12733	5
1.13100	5
1.13467	4
1.13833	5
1.14200	8
1.14567	9
1.14933	9
1.15300	9
1.15667	10
1.16033	11
1.16400	11
1.16767	10
1.17133	10
1.17500	8
1.17867	6
1.18233	4
1.18600	4
1.18967	2
1.19333	2
1.19700	5
1.20067	6
1.20433	5
1.20800	6
1.21167	6
1.21533	5
1.21900	6
1.22267	6
1.22633	6
1.23000	6
1.23367	6
1.23733	6
1.24100	7
1.24467	8
1.24833	9
1.25200	9
1.25567	10
1.25933	7
1.26300	5
1.26667	6
1.27033	7
1.27400	8
1.27767	9
1.28133	12
1.28500	13
1.28867	13
1.29233	13
1.29600	13
1.29967	12
1.30333	11
1.30700	11
1.31067	10
1.31433	10
1.31800	9
1.32167	8
1.32533	8
1.32900	8
1.33267	8
1.33633	7
1.34000	6
1.34367	3
1.34733	2
1.35100	4
1.35467	5
1.35833	6
1.36200	9
1.36567	10
1.36933	10
1.37300	11
1.37667	14
1.38033	17
1.38400	19
1.38767	20
1.39133	18
1.39500	13
1.39867	12
1.40233	12
1.40600	13
1.40967	12
1.41333	11
1.41700	12
1.42067	12
1.42433	10
1.42800	7
1.43167	4
1.43533	6
1.43900	6
1.44267	5
1.44633	7
1.45000	11
1.45367	13
1.45733	14
1.46100	14
1.46467	15
1.46833	14
1.47200	12
1.47567	11
1.47933	12
1.48300	12
1.48667	12
1.49033	12
1.49400	11
1.49767	10
1.50133	10
1.50500	11
1.50867	11
1.51233	11
1.51600	10
1.51967	9
1.52333	10
1.52700	12
1.53067	13
1.53433	13
1.53800	11
1.54167	10
1.54533	11
1.54900	12
1.55267	11
1.55633	10
1.56000	13
1.56367	15
1.56733	15
1.57100	14
1.57467	14
1.57833	15
1.58200	15
1.58567	15
1.58933	16
1.59300	18
1.59667	18
1.60033	17
1.60400	18
1.60767	17
1.61133	15
1.61500	16
1.61867	17
1.62233	18
1.62600	20
1.62967	22
1.63333	22
1.63700	22
1.64067	22
1.64433	22
1.64800	22
1.65167	20
1.65533	21
1.65900	23
1.66267	25
1.66633	26
1.67000	26
1.67367	27
1.67733	27
1.68100	27
1.68467	29
1.68833	30
1.69200	31
1.69567	33
1.69933	33
1.70300	31
1.70667	32
1.71033	34
1.71400	34
1.71767	33
1.72133	33
1.72500	33
1.72867	33
1.73233	35
1.73600	38
1.73967	39
1.74333	39
1.74700	38
1.75067	38
1.75433	36
1.75800	34
1.76167	36
1.76533	39
1.76900	41
1.77267	41
1.77633	39
1.78000	38
1.78367	35
1.78733	34
1.79100	35
1.79467	35
1.79833	37
1.80200	41
1.80567	42
1.80933	43
1.81300	44
1.81667	47
1.82033	48
1.82400	48
1.82767	47
1.83133	45
1.83500	46
1.83867	46
1.84233	46
1.84600	45
1.84967	45
1.85333	46
1.85700	45
1.86067	46
1.86433	48
1.86800	48
1.87167	48
1.87533	49
1.87900	49
1.88267	49
1.88633	50
1.89000	52
1.89367	54
1.89733	54
1.90100	54
1.90467	55
1.90833	57
1.91200	57
1.91567	58
1.91933	60
1.92300	62
1.92667	64
1.93033	65
1.93400	67
1.93767	66
1.94133	64
1.94500	67
1.94867	68
1.95233	68
1.95600	68
1.95967	71
1.96333	73
1.96700	73
1.97067	73
1.97433	75
1.97800	76
1.98167	78
1.98533	80
1.98900	82
1.99267	84
1.99633	85
2.00000	85
2.00367	86
2.00733	87
2.01100	87
2.01467	86
2.01833	89
2.02200	91
2.02567	94
2.02933	96
2.03300	99
2.03667	100
2.04033	99
2.04400	100
2.04767	103
2.05133	103
2.05500	103
2.05867	104
2.06233	107
2.06600	109
2.06967	110
2.07333	110
2.07700	109
2.08067	110
2.08433	111
2.08800	112
2.09167	115
2.09533	117
2.09900	118
2.10267	120
2.10633	120
2.11000	122
2.11367	124
2.11733	126
2.12100	129
2.12467	130
2.12833	130
2.13200	132
2.13567	134
2.13933	134
2.14300	133
2.14667	134
2.15033	136
2.15400	139
2.15767	139
2.16133	140
2.16500	142
2.16867	143
2.17233	145
2.17600	147
2.17967	148
2.18333	150
2.18700	150
2.19067	150
2.19433	151
2.19800	154
2.20167	158
2.20533	161
2.20900	160
2.21267	159
2.21633	157
2.22000	157
2.22367	159
2.22733	161
2.23100	164
2.23467	167
2.23833	169
2.24200	170
2.24567	171
2.24933	175
2.25300	179
2.25667	182
2.26033	184
2.26400	186
2.26767	186
2.27133	186
2.27500	185
2.27867	183
2.28233	183
2.28600	185
2.28967	187
2.29333	190
2.29700	191
2.30067	191
2.30433	192
2.30800	193
2.31167	196
2.31533	197
2.31900	198
2.32267	200
2.32633	202
2.33000	204
2.33367	206
2.33733	208
2.34100	209
2.34467	209
2.34833	209
2.35200	209
2.35567	209
2.35933	211
2.36300	211
2.36667	209
2.37033	209
2.37400	209
2.37767	211
2.38133	214
2.38500	214
2.38867	214
2.39233	214
2.39600	217
2.39967	219
2.40333	221
2.40700	221
2.41067	223
2.41433	227
2.41800	230
2.42167	232
2.42533	234
2.42900	235
2.43267	237
2.43633	236
2.44000	238
2.44367	298
2.44733	457
2.45100	630
2.45467	775
2.45833	858
2.46200	866
2.46567	829
2.46933	783
2.47300	747
2.47667	725
2.48033	707
2.48400	681
2.48767	639
2.49133	589
2.49500	541
2.49867	500
2.50233	469
2.50600	450
2.50967	441
2.51333	447
2.51700	466
2.52067	493
2.52433	517
2.52800	531
2.53167	530
2.53533	513
2.53900	484
2.54267	450
2.54633	416
2.55000	387
2.55367	362
2.55733	338
2.56100	321
2.56467	308
2.56833	298
2.57200	291
2.57567	286
2.57933	284
2.58300	283
2.58667	285
2.59033	288
2.59400	291
2.59767	293
2.60133	295
2.60500	300
2.60867	302
2.61233	301
2.61600	298
2.61967	294
2.62333	289
2.62700	285
2.63067	280
2.63433	271
2.63800	264
2.64167	256
2.64533	245
2.64900	231
2.65267	218
2.65633	204
2.66000	190
2.66367	177
2.66733	163
2.67100	151
2.67467	142
2.67833	135
2.68200	129
2.68567	123
2.68933	119
2.69300	119
2.69667	119
2.70033	117
2.70400	115
2.70767	114
2.71133	115
2.71500	119
2.71867	121
2.72233	124
2.72600	128
2.72967	132
2.73333	133
2.73700	135
2.74067	139
2.74433	144
2.74800	148
2.75167	149
2.75533	151
2.75900	153
2.76267	154
2.76633	156
2.77000	159
2.77367	162
2.77733	167
2.78100	171
2.78467	175
2.78833	178
2.79200	181
2.79567	187
2.79933	190
2.80300	196
2.80667	201
2.81033	207
2.81400	215
2.81767	228
2.82133	253
2.82500	312
2.82867	437
2.83233	677
2.83600	1091
2.83967	1747
2.84333	2691
2.84700	3929
2.85067	5429
2.85433	7117
2.85800	8882
2.86167	10597
2.86533	12129
2.86900	13357
2.87267	14206
2.87633	14641
2.88000	14672
2.88367	14349
2.88733	13740
2.89100	12929
2.89467	11989
2.89833	10985
2.90200	9967
2.90567	8975
2.90933	8034
2.91300	7157
2.91667	6352
2.92033	5619
2.92400	4958
2.92767	4367
2.93133	3842
2.93500	3377
2.93867	2966
2.94233	2604
2.94600	2286
2.94967	2007
2.95333	1763
2.95700	1554
2.96067	1371
2.96433	1209
2.96800	1070
2.97167	951
2.97533	846
2.97900	756
2.98267	679
2.98633	611
2.99000	553
2.99367	503
2.99733	461
3.00100	423
3.00467	388
3.00833	358
3.01200	333
3.01567	311
3.01933	285
3.02300	248
3.02667	217
3.03033	208
3.03400	221
3.03767	250
3.04133	290
3.04500	333
3.04867	376
3.05233	416
3.05600	453
3.05967	488
3.06333	523
3.06700	555
3.07067	581
3.07433	601
3.07800	616
3.08167	629
3.08533	642
3.08900	652
3.09267	659
3.09633	668
3.10000	677
3.10367	684
3.10733	690
3.11100	696
3.11467	701
3.11833	703
3.12200	705
3.12567	709
3.12933	711
3.13300	716
3.13667	721
3.14033	725
3.14400	728
3.14767	730
3.15133	734
3.15500	737
3.15867	741
3.16233	743
3.16600	746
3.16967	751
3.17333	754
3.17700	759
3.18067	763
3.18433	768
3.18800	772
3.19167	777
3.19533	783
3.19900	789
3.20267	795
3.20633	800
3.21000	805
3.21367	810
3.21733	815
3.22100	821
3.22467	825
3.22833	828
3.23200	833
3.23567	838
3.23933	843
3.24300	848
3.24667	851
3.25033	853
3.25400	858
3.25767	863
3.26133	866
3.26500	869
3.26867	872
3.27233	873
3.27600	872
3.27967	873
3.28333	876
3.28700	878
3.29067	880
3.29433	882
3.29800	884
3.30167	884
3.30533	882
3.30900	882
3.31267	882
3.31633	882
3.32000	883
3.32367	883
3.32733	881
3.33100	880
3.33467	879
3.33833	875
3.34200	872
3.34567	871
3.34933	870
3.35300	868
3.35667	867
3.36033	865
3.36400	863
3.36767	859
3.37133	855
3.37500	854
3.37867	855
3.38233	856
3.38600	854
3.38967	851
3.39333	848
3.39700	845
3.40067	842
3.40433	840
3.40800	836
3.41167	834
3.41533	834
3.41900	832
3.42267	831
3.42633	831
3.43000	831
3.43367	830
3.43733	829
3.44100	828
3.44467	826
3.44833	823
3.45200	820
3.45567	820
3.45933	820
3.46300	819
3.46667	820
3.47033	820
3.47400	819
3.47767	816
3.48133	816
3.48500	816
3.48867	814
3.49233	813
3.49600	810
3.49967	807
3.50333	806
3.50700	804
3.51067	803
3.51433	801
3.51800	801
3.52167	801
3.52533	802
3.52900	802
3.53267	801
3.53633	799
3.54000	797
3.54367	795
3.54733	794
3.55100	793
3.55467	793
3.55833	792
3.56200	790
3.56567	789
3.56933	788
3.57300	786
3.57667	783
3.58033	783
3.58400	784
3.58767	783
3.59133	782
3.59500	781
3.59867	782
3.60233	781
3.60600	780
3.60967	778
3.61333	776
3.61700	772
3.62067	769
3.62433	767
3.62800	767
3.63167	766
3.63533	765
3.63900	763
3.64267	761
3.64633	760
3.65000	759
3.65367	758
3.65733	758
3.66100	757
3.66467	755
3.66833	754
3.67200	752
3.67567	749
3.67933	746
3.68300	742
3.68667	740
3.69033	741
3.69400	739
3.69767	738
3.70133	736
3.70500	734
3.70867	733
3.71233	730
3.71600	728
3.71967	725
3.72333	723
3.72700	723
3.73067	722
3.73433	721
3.73800	719
3.74167	715
3.74533	710
3.74900	707
3.75267	706
3.75633	703
3.76000	699
3.76367	694
3.76733	690
3.77100	688
3.77467	688
3.77833	688
3.78200	686
3.78567	687
3.78933	688
3.79300	688
3.79667	686
3.80033	683
3.80400	679
3.80767	676
3.81133	673
3.81500	671
3.81867	668
3.82233	664
3.82600	663
3.82967	664
3.83333	663
3.83700	663
3.84067	662
3.84433	664
3.84800	664
3.85167	663
3.85533	661
3.85900	659
3.86267	655
3.86633	651
3.87000	649
3.87367	646
3.87733	643
3.88100	642
3.88467	642
3.88833	641
3.89200	640
3.89567	639
3.89933	637
3.90300	636
3.90667	634
3.91033	632
3.91400	631
3.91767	630
3.92133	629
3.92500	628
3.92867	627
3.93233	624
3.93600	623
3.93967	623
3.94333	622
3.94700	620
3.95067	617
3.95433	617
3.95800	617
3.96167	615
3.96533	611
3.96900	609
3.97267	606
3.97633	607
3.98000	606
3.98367	604
3.98733	602
3.99100	602
3.99467	601
3.99833	596

[Status Trace (Column Oven Temperature)]
Interval(msec)	1000
# of Points	240
Start Time(min)	0.012
End Time(min)	3.996
Intensity Units	
Intensity Multiplier	1
R.Time (min)	Intensity
0.01247	35.09
0.02913	35.09
0.04580	35.09
0.06247	35.09
0.07913	35.07
0.09580	35.06
0.11247	35.06
0.12913	35.06
0.14580	35.06
0.16247	35.07
0.17913	35.07
0.19580	35.06
0.21247	35.04
0.22913	35.03
0.24580	35.02
0.26247	35.02
0.27913	35.01
0.29580	35.00
0.31247	35.00
0.32913	34.99
0.34580	35.00
0.36247	34.99
0.37913	34.98
0.39580	34.98
0.41247	34.98
0.42913	34.99
0.44580	35.00
0.46247	35.00
0.47913	35.02
0.49580	35.01
0.51247	35.00
0.52913	35.00
0.54580	35.01
0.56247	35.01
0.57913	35.00
0.59580	35.00
0.61247	35.00
0.62913	35.00
0.64580	35.00
0.66247	35.01
0.67913	35.01
0.69580	35.02
0.71247	35.02
0.72913	35.02
0.74580	35.02
0.76247	35.02
0.77913	35.02
0.79580	35.00
0.81247	34.98
0.82913	34.96
0.84580	34.95
0.86247	34.95
0.87913	34.95
0.89580	34.97
0.91247	34.99
0.92913	35.01
0.94580	35.02
0.96247	35.03
0.97913	35.03
0.99580	35.03
1.01247	35.03
1.02913	35.01
1.04580	35.01
1.06247	34.99
1.07913	34.99
1.09580	35.00
1.11247	35.00
1.12913	35.01
1.14580	35.02
1.16247	35.02
1.17913	35.02
1.19580	35.03
1.21247	35.02
1.22913	35.02
1.24580	35.02
1.26247	35.01
1.27913	35.01
1.29580	35.01
1.31247	34.99
1.32913	35.00
1.34580	35.00
1.36247	35.00
1.37913	34.99
1.39580	34.99
1.41247	35.00
1.42913	35.00
1.44580	35.00
1.46247	34.99
1.47913	34.99
1.49580	34.99
1.51247	34.98
1.52913	34.98
1.54580	34.99
1.56247	34.99
1.57913	34.99
1.59580	35.01
1.61247	35.07
1.62913	35.22
1.64580	35.42
1.66247	35.69
1.67913	36.06
1.69580	36.43
1.71247	36.77
1.72913	37.10
1.74580	37.46
1.76247	37.79
1.77913	38.07
1.79580	38.39
1.81247	38.73
1.82913	39.06
1.84580	39.39
1.86247	39.72
1.87913	40.04
1.89580	40.39
1.91247	40.71
1.92913	41.04
1.94580	41.37
1.96247	41.70
1.97913	42.01
1.99580	42.33
2.01247	42.66
2.02913	42.99
2.04580	43.33
2.06247	43.64
2.07913	43.97
2.09580	44.30
2.11247	44.63
2.12913	44.98
2.14580	45.31
2.16247	45.63
2.17913	45.96
2.19580	46.28
2.21247	46.61
2.22913	46.94
2.24580	47.28
2.26247	47.59
2.27913	47.93
2.29580	48.25
2.31247	48.58
2.32913	48.91
2.34580	49.23
2.36247	49.50
2.37913	49.66
2.39580	49.69
2.41247	49.67
2.42913	49.68
2.44580	49.67
2.46247	49.71
2.47913	49.71
2.49580	49.74
2.51247	49.75
2.52913	49.76
2.54580	49.76
2.56247	49.78
2.57913	49.79
2.59580	49.82
2.61247	49.84
2.62913	49.84
2.64580	49.84
2.66247	49.85
2.67913	49.86
2.69580	49.84
2.71247	49.86
2.72913	49.87
2.74580	49.86
2.76247	49.84
2.77913	49.86
2.79580	49.88
2.81247	49.88
2.82913	49.88
2.84580	49.88
2.86247	49.88
2.87913	49.89
2.89580	49.90
2.91247	49.91
2.92913	49.91
2.94580	49.92
2.96247	49.91
2.97913	49.92
2.99580	49.94
3.01247	49.96
3.02913	49.99
3.04580	50.02
3.06247	50.03
3.07913	50.04
3.09580	50.05
3.11247	50.06
3.12913	50.07
3.14580	50.07
3.16247	50.07
3.17913	50.07
3.19580	50.08
3.21247	50.09
3.22913	50.10
3.24580	50.10
3.26247	50.11
3.27913	50.12
3.29580	50.10
3.31247	50.09
3.32913	50.07
3.34580	50.05
3.36247	50.04
3.37913	50.05
3.39580	50.04
3.41247	50.05
3.42913	50.06
3.44580	50.06
3.46247	50.05
3.47913	50.05
3.49580	50.04
3.51247	50.05
3.52913	50.06
3.54580	50.06
3.56247	50.05
3.57913	50.06
3.59580	50.06
3.61247	50.06
3.62913	50.05
3.64580	50.05
3.66247	50.04
3.67913	50.05
3.69580	50.05
3.71247	50.07
3.72913	50.07
3.74580	50.07
3.76247	50.06
3.77913	50.05
3.79580	50.05
3.81247	50.05
3.82913	50.05
3.84580	50.05
3.86247	50.05
3.87913	50.06
3.89580	50.06
3.91247	50.07
3.92913	50.07
3.94580	50.07
3.96247	50.07
3.97913	50.06
3.99580	50.07

[Status Trace (Injection Unit Temperature)]
Interval(msec)	1000
# of Points	240
Start Time(min)	0.012
End Time(min)	3.996
Intensity Units	
Intensity Multiplier	1
R.Time (min)	Intensity
0.01247	99.98
0.02913	99.98
0.04580	99.98
0.06247	99.98
0.07913	99.98
0.09580	99.98
0.11247	99.98
0.12913	99.98
0.14580	99.98
0.16247	99.99
0.17913	99.98
0.19580	99.98
0.21247	99.98
0.22913	99.98
0.24580	99.98
0.26247	99.98
0.27913	99.98
0.29580	99.99
0.31247	99.99
0.32913	99.98
0.34580	99.98
0.36247	99.99
0.37913	99.99
0.39580	99.99
0.41247	99.99
0.42913	99.98
0.44580	99.98
0.46247	99.99
0.47913	99.98
0.49580	99.98
0.51247	99.99
0.52913	99.99
0.54580	99.99
0.56247	99.99
0.57913	99.98
0.59580	99.99
0.61247	99.98
0.62913	99.98
0.64580	99.97
0.66247	99.99
0.67913	99.99
0.69580	99.99
0.71247	99.99
0.72913	99.99
0.74580	99.99
0.76247	99.99
0.77913	99.99
0.79580	99.99
0.81247	99.99
0.82913	99.99
0.84580	99.99
0.86247	99.98
0.87913	99.99
0.89580	99.99
0.91247	99.99
0.92913	99.99
0.94580	99.99
0.96247	99.99
0.97913	99.99
0.99580	99.99
1.01247	99.98
1.02913	99.98
1.04580	99.99
1.06247	99.98
1.07913	99.98
1.09580	99.98
1.11247	99.99
1.12913	99.99
1.14580	99.99
1.16247	99.98
1.17913	99.98
1.19580	99.98
1.21247	99.98
1.22913	99.99
1.24580	99.98
1.26247	99.99
1.27913	99.99
1.29580	99.99
1.31247	99.98
1.32913	99.98
1.34580	99.98
1.36247	99.99
1.37913	99.99
1.39580	99.99
1.41247	99.99
1.42913	99.99
1.44580	99.99
1.46247	99.99
1.47913	99.99
1.49580	99.99
1.51247	99.99
1.52913	99.98
1.54580	99.99
1.56247	99.99
1.57913	99.99
1.59580	99.98
1.61247	99.99
1.62913	99.99
1.64580	99.99
1.66247	99.99
1.67913	99.99
1.69580	99.98
1.71247	99.99
1.72913	99.99
1.74580	99.98
1.76247	99.98
1.77913	99.98
1.79580	99.98
1.81247	99.99
1.82913	99.98
1.84580	99.98
1.86247	99.98
1.87913	99.98
1.89580	99.98
1.91247	99.98
1.92913	99.98
1.94580	99.98
1.96247	99.98
1.97913	99.98
1.99580	99.98
2.01247	99.97
2.02913	99.98
2.04580	99.98
2.06247	99.98
2.07913	99.97
2.09580	99.97
2.11247	99.97
2.12913	99.97
2.14580	99.97
2.16247	99.97
2.17913	99.97
2.19580	99.97
2.21247	99.97
2.22913	99.97
2.24580	99.97
2.26247	99.97
2.27913	99.97
2.29580	99.97
2.31247	99.97
2.32913	99.97
2.34580	99.97
2.36247	99.97
2.37913	99.96
2.39580	99.97
2.41247	99.96
2.42913	99.97
2.44580	99.97
2.46247	99.97
2.47913	99.97
2.49580	99.97
2.51247	99.97
2.52913	99.97
2.54580	99.97
2.56247	99.97
2.57913	99.98
2.59580	99.98
2.61247	99.98
2.62913	99.98
2.64580	99.98
2.66247	99.98
2.67913	99.98
2.69580	99.98
2.71247	99.99
2.72913	99.98
2.74580	99.99
2.76247	99.99
2.77913	99.99
2.79580	99.99
2.81247	99.99
2.82913	99.99
2.84580	100.00
2.86247	100.00
2.87913	100.00
2.89580	100.00
2.91247	100.00
2.92913	100.00
2.94580	100.01
2.96247	100.01
2.97913	100.00
2.99580	100.01
3.01247	100.01
3.02913	100.01
3.04580	100.01
3.06247	100.01
3.07913	100.02
3.09580	100.02
3.11247	100.02
3.12913	100.02
3.14580	100.02
3.16247	100.02
3.17913	100.02
3.19580	100.02
3.21247	100.02
3.22913	100.02
3.24580	100.03
3.26247	100.03
3.27913	100.03
3.29580	100.03
3.31247	100.03
3.32913	100.03
3.34580	100.03
3.36247	100.03
3.37913	100.03
3.39580	100.04
3.41247	100.04
3.42913	100.04
3.44580	100.04
3.46247	100.04
3.47913	100.04
3.49580	100.05
3.51247	100.04
3.52913	100.04
3.54580	100.04
3.56247	100.04
3.57913	100.04
3.59580	100.04
3.61247	100.04
3.62913	100.05
3.64580	100.05
3.66247	100.05
3.67913	100.05
3.69580	100.05
3.71247	100.05
3.72913	100.05
3.74580	100.05
3.76247	100.05
3.77913	100.05
3.79580	100.05
3.81247	100.05
3.82913	100.05
3.84580	100.05
3.86247	100.05
3.87913	100.05
3.89580	100.05
3.91247	100.05
3.92913	100.05
3.94580	100.05
3.96247	100.05
3.97913	100.05
3.99580	100.05

[Status Trace (Carrier Gas Pressure)]
Interval(msec)	1000
# of Points	240
Start Time(min)	0.012
End Time(min)	3.996
Intensity Units	
Intensity Multiplier	1
R.Time (min)	Intensity
0.01247	57.99
0.02913	54.97
0.04580	57.79
0.06247	59.71
0.07913	58.84
0.09580	57.99
0.11247	57.99
0.12913	58.01
0.14580	58.01
0.16247	58.00
0.17913	58.00
0.19580	58.00
0.21247	58.00
0.22913	58.00
0.24580	58.00
0.26247	58.00
0.27913	58.00
0.29580	58.00
0.31247	58.00
0.32913	58.00
0.34580	58.00
0.36247	58.00
0.37913	58.00
0.39580	58.00
0.41247	58.00
0.42913	58.00
0.44580	58.00
0.46247	58.00
0.47913	58.00
0.49580	58.00
0.51247	58.00
0.52913	58.00
0.54580	58.00
0.56247	58.00
0.57913	58.00
0.59580	58.00
0.61247	58.00
0.62913	58.00
0.64580	58.00
0.66247	58.00
0.67913	58.00
0.69580	58.00
0.71247	58.00
0.72913	58.00
0.74580	58.00
0.76247	58.00
0.77913	58.00
0.79580	58.00
0.81247	58.00
0.82913	58.00
0.84580	58.00
0.86247	58.00
0.87913	58.00
0.89580	58.00
0.91247	58.00
0.92913	58.00
0.94580	58.00
0.96247	58.00
0.97913	58.00
0.99580	58.00
1.01247	58.00
1.02913	58.00
1.04580	58.00
1.06247	58.00
1.07913	58.00
1.09580	58.00
1.11247	58.00
1.12913	58.00
1.14580	58.00
1.16247	58.00
1.17913	58.00
1.19580	58.00
1.21247	58.00
1.22913	58.00
1.24580	58.00
1.26247	58.00
1.27913	58.00
1.29580	58.00
1.31247	58.00
1.32913	58.00
1.34580	58.00
1.36247	58.00
1.37913	58.00
1.39580	58.00
1.41247	58.00
1.42913	58.00
1.44580	58.00
1.46247	58.00
1.47913	58.00
1.49580	58.00
1.51247	58.00
1.52913	58.00
1.54580	58.00
1.56247	58.00
1.57913	58.00
1.59580	58.00
1.61247	58.00
1.62913	58.00
1.64580	58.00
1.66247	58.00
1.67913	58.01
1.69580	58.00
1.71247	58.00
1.72913	58.00
1.74580	58.00
1.76247	58.00
1.77913	58.00
1.79580	58.00
1.81247	58.00
1.82913	58.00
1.84580	58.00
1.86247	58.00
1.87913	58.00
1.89580	58.00
1.91247	58.00
1.92913	58.00
1.94580	58.00
1.96247	58.00
1.97913	58.00
1.99580	58.00
2.01247	58.00
2.02913	58.00
2.04580	58.00
2.06247	58.00
2.07913	58.00
2.09580	58.00
2.11247	58.00
2.12913	58.00
2.14580	58.00
2.16247	58.00
2.17913	58.00
2.19580	58.00
2.21247	58.00
2.22913	58.00
2.24580	58.00
2.26247	58.00
2.27913	58.00
2.29580	58.00
2.31247	58.00
2.32913	58.00
2.34580	58.00
2.36247	58.00
2.37913	58.00
2.39580	57.99
2.41247	57.99
2.42913	58.00
2.44580	58.00
2.46247	58.00
2.47913	58.00
2.49580	58.00
2.51247	57.99
2.52913	57.99
2.54580	58.00
2.56247	58.00
2.57913	58.00
2.59580	58.00
2.61247	58.00
2.62913	58.00
2.64580	58.00
2.66247	58.00
2.67913	58.00
2.69580	58.00
2.71247	58.00
2.72913	58.00
2.74580	58.00
2.76247	58.00
2.77913	58.00
2.79580	58.00
2.81247	58.00
2.82913	58.00
2.84580	58.00
2.86247	58.00
2.87913	58.00
2.89580	58.00
2.91247	58.00
2.92913	58.00
2.94580	58.00
2.96247	58.00
2.97913	58.00
2.99580	58.00
3.01247	58.00
3.02913	58.00
3.04580	58.00
3.06247	58.00
3.07913	58.00
3.09580	58.00
3.11247	58.00
3.12913	58.00
3.14580	58.00
3.16247	58.00
3.17913	58.00
3.19580	58.00
3.21247	58.00
3.22913	58.00
3.24580	58.00
3.26247	58.00
3.27913	58.00
3.29580	58.00
3.31247	58.00
3.32913	58.00
3.34580	58.00
3.36247	58.00
3.37913	58.00
3.39580	58.00
3.41247	58.00
3.42913	58.00
3.44580	58.00
3.46247	58.00
3.47913	58.00
3.49580	58.00
3.51247	58.00
3.52913	58.00
3.54580	58.00
3.56247	58.00
3.57913	58.00
3.59580	58.00
3.61247	58.00
3.62913	58.00
3.64580	58.00
3.66247	58.00
3.67913	58.00
3.69580	58.00
3.71247	58.00
3.72913	58.00
3.74580	58.00
3.76247	58.00
3.77913	58.00
3.79580	58.00
3.81247	58.00
3.82913	58.00
3.84580	58.00
3.86247	58.00
3.87913	58.00
3.89580	58.00
3.91247	58.00
3.92913	58.00
3.94580	58.00
3.96247	58.00
3.97913	58.00
3.99580	58.00

[Status Trace (Carrier Gas Flow)]
Interval(msec)	1000
# of Points	240
Start Time(min)	0.012
End Time(min)	3.996
Intensity Units	
Intensity Multiplier	1
R.Time (min)	Intensity
0.01247	34.55
0.02913	34.53
0.04580	34.55
0.06247	34.54
0.07913	34.50
0.09580	34.52
0.11247	34.53
0.12913	34.52
0.14580	34.52
0.16247	34.52
0.17913	34.51
0.19580	34.52
0.21247	34.51
0.22913	34.52
0.24580	34.51
0.26247	34.52
0.27913	34.51
0.29580	34.52
0.31247	34.52
0.32913	34.52
0.34580	34.51
0.36247	34.52
0.37913	34.52
0.39580	34.52
0.41247	34.52
0.42913	34.52
0.44580	34.52
0.46247	34.51
0.47913	34.51
0.49580	34.52
0.51247	34.51
0.52913	34.52
0.54580	34.52
0.56247	34.52
0.57913	34.52
0.59580	34.52
0.61247	34.52
0.62913	34.53
0.64580	34.52
0.66247	34.51
0.67913	34.52
0.69580	34.52
0.71247	34.51
0.72913	34.52
0.74580	34.52
0.76247	34.52
0.77913	34.52
0.79580	34.52
0.81247	34.52
0.82913	34.52
0.84580	34.52
0.86247	34.52
0.87913	34.52
0.89580	34.52
0.91247	34.52
0.92913	34.52
0.94580	34.52
0.96247	34.52
0.97913	34.52
0.99580	34.52
1.01247	34.52
1.02913	34.51
1.04580	34.52
1.06247	34.53
1.07913	34.52
1.09580	34.52
1.11247	34.52
1.12913	34.52
1.14580	34.52
1.16247	34.52
1.17913	34.52
1.19580	34.53
1.21247	34.52
1.22913	34.52
1.24580	34.52
1.26247	34.51
1.27913	34.52
1.29580	34.52
1.31247	34.52
1.32913	34.51
1.34580	34.52
1.36247	34.52
1.37913	34.53
1.39580	34.52
1.41247	34.52
1.42913	34.52
1.44580	34.52
1.46247	34.52
1.47913	34.52
1.49580	34.51
1.51247	34.52
1.52913	34.52
1.54580	34.52
1.56247	34.52
1.57913	34.52
1.59580	34.51
1.61247	34.52
1.62913	34.51
1.64580	34.52
1.66247	34.51
1.67913	34.52
1.69580	34.53
1.71247	34.51
1.72913	34.52
1.74580	34.51
1.76247	34.52
1.77913	34.52
1.79580	34.51
1.81247	34.52
1.82913	34.52
1.84580	34.52
1.86247	34.52
1.87913	34.52
1.89580	34.52
1.91247	34.52
1.92913	34.52
1.94580	34.52
1.96247	34.52
1.97913	34.52
1.99580	34.52
2.01247	34.52
2.02913	34.52
2.04580	34.52
2.06247	34.52
2.07913	34.52
2.09580	34.52
2.11247	34.51
2.12913	34.51
2.14580	34.52
2.16247	34.52
2.17913	34.51
2.19580	34.52
2.21247	34.52
2.22913	34.52
2.24580	34.52
2.26247	34.53
2.27913	34.52
2.29580	34.52
2.31247	34.52
2.32913	34.51
2.34580	34.53
2.36247	34.52
2.37913	34.53
2.39580	34.52
2.41247	34.52
2.42913	34.51
2.44580	34.52
2.46247	34.52
2.47913	34.52
2.49580	34.51
2.51247	34.52
2.52913	34.51
2.54580	34.53
2.56247	34.51
2.57913	34.51
2.59580	34.53
2.61247	34.52
2.62913	34.52
2.64580	34.52
2.66247	34.52
2.67913	34.52
2.69580	34.52
2.71247	34.53
2.72913	34.52
2.74580	34.52
2.76247	34.52
2.77913	34.52
2.79580	34.52
2.81247	34.51
2.82913	34.52
2.84580	34.52
2.86247	34.52
2.87913	34.52
2.89580	34.52
2.91247	34.52
2.92913	34.52
2.94580	34.51
2.96247	34.52
2.97913	34.52
2.99580	34.52
3.01247	34.51
3.02913	34.52
3.04580	34.52
3.06247	34.52
3.07913	34.52
3.09580	34.52
3.11247	34.51
3.12913	34.52
3.14580	34.52
3.16247	34.52
3.17913	34.52
3.19580	34.52
3.21247	34.52
3.22913	34.51
3.24580	34.52
3.26247	34.52
3.27913	34.53
3.29580	34.52
3.31247	34.52
3.32913	34.52
3.34580	34.52
3.36247	34.52
3.37913	34.52
3.39580	34.52
3.41247	34.52
3.42913	34.52
3.44580	34.52
3.46247	34.52
3.47913	34.52
3.49580	34.51
3.51247	34.52
3.52913	34.52
3.54580	34.52
3.56247	34.52
3.57913	34.52
3.59580	34.52
3.61247	34.52
3.62913	34.52
3.64580	34.52
3.66247	34.52
3.67913	34.52
3.69580	34.52
3.71247	34.52
3.72913	34.52
3.74580	34.52
3.76247	34.52
3.77913	34.51
3.79580	34.52
3.81247	34.52
3.82913	34.51
3.84580	34.52
3.86247	34.52
3.87913	34.52
3.89580	34.53
3.91247	34.52
3.92913	34.52
3.94580	34.52
3.96247	34.52
3.97913	34.51
3.99580	34.52

[Status Trace (Column Flow)]
Interval(msec)	1000
# of Points	240
Start Time(min)	0.012
End Time(min)	3.996
Intensity Units	
Intensity Multiplier	1
R.Time (min)	Intensity
0.01247	5.55
0.02913	5.20
0.04580	5.53
0.06247	5.75
0.07913	5.65
0.09580	5.55
0.11247	5.55
0.12913	5.55
0.14580	5.55
0.16247	5.55
0.17913	5.55
0.19580	5.55
0.21247	5.55
0.22913	5.55
0.24580	5.55
0.26247	5.55
0.27913	5.55
0.29580	5.55
0.31247	5.55
0.32913	5.55
0.34580	5.55
0.36247	5.55
0.37913	5.55
0.39580	5.55
0.41247	5.55
0.42913	5.55
0.44580	5.55
0.46247	5.55
0.47913	5.55
0.49580	5.55
0.51247	5.55
0.52913	5.55
0.54580	5.55
0.56247	5.55
0.57913	5.55
0.59580	5.55
0.61247	5.55
0.62913	5.55
0.64580	5.55
0.66247	5.55
0.67913	5.55
0.69580	5.55
0.71247	5.55
0.72913	5.55
0.74580	5.55
0.76247	5.55
0.77913	5.55
0.79580	5.55
0.81247	5.55
0.82913	5.55
0.84580	5.55
0.86247	5.56
0.87913	5.56
0.89580	5.55
0.91247	5.55
0.92913	5.55
0.94580	5.55
0.96247	5.55
0.97913	5.55
0.99580	5.55
1.01247	5.55
1.02913	5.55
1.04580	5.55
1.06247	5.55
1.07913	5.55
1.09580	5.55
1.11247	5.55
1.12913	5.55
1.14580	5.55
1.16247	5.55
1.17913	5.55
1.19580	5.55
1.21247	5.55
1.22913	5.55
1.24580	5.55
1.26247	5.55
1.27913	5.55
1.29580	5.55
1.31247	5.55
1.32913	5.55
1.34580	5.55
1.36247	5.55
1.37913	5.55
1.39580	5.55
1.41247	5.55
1.42913	5.55
1.44580	5.55
1.46247	5.55
1.47913	5.55
1.49580	5.55
1.51247	5.55
1.52913	5.55
1.54580	5.55
1.56247	5.55
1.57913	5.55
1.59580	5.55
1.61247	5.55
1.62913	5.55
1.64580	5.54
1.66247	5.53
1.67913	5.52
1.69580	5.51
1.71247	5.50
1.72913	5.49
1.74580	5.48
1.76247	5.47
1.77913	5.46
1.79580	5.45
1.81247	5.44
1.82913	5.43
1.84580	5.42
1.86247	5.41
1.87913	5.40
1.89580	5.39
1.91247	5.38
1.92913	5.37
1.94580	5.36
1.96247	5.35
1.97913	5.34
1.99580	5.33
2.01247	5.32
2.02913	5.31
2.04580	5.30
2.06247	5.29
2.07913	5.28
2.09580	5.27
2.11247	5.26
2.12913	5.25
2.14580	5.24
2.16247	5.23
2.17913	5.22
2.19580	5.21
2.21247	5.20
2.22913	5.19
2.24580	5.18
2.26247	5.18
2.27913	5.17
2.29580	5.16
2.31247	5.15
2.32913	5.14
2.34580	5.13
2.36247	5.12
2.37913	5.12
2.39580	5.12
2.41247	5.12
2.42913	5.12
2.44580	5.12
2.46247	5.12
2.47913	5.12
2.49580	5.11
2.51247	5.11
2.52913	5.11
2.54580	5.11
2.56247	5.11
2.57913	5.11
2.59580	5.11
2.61247	5.11
2.62913	5.11
2.64580	5.11
2.66247	5.11
2.67913	5.11
2.69580	5.11
2.71247	5.11
2.72913	5.11
2.74580	5.11
2.76247	5.11
2.77913	5.11
2.79580	5.11
2.81247	5.11
2.82913	5.11
2.84580	5.11
2.86247	5.11
2.87913	5.11
2.89580	5.11
2.91247	5.11
2.92913	5.11
2.94580	5.11
2.96247	5.11
2.97913	5.11
2.99580	5.11
3.01247	5.11
3.02913	5.11
3.04580	5.11
3.06247	5.11
3.07913	5.11
3.09580	5.11
3.11247	5.11
3.12913	5.11
3.14580	5.11
3.16247	5.11
3.17913	5.11
3.19580	5.11
3.21247	5.11
3.22913	5.10
3.24580	5.10
3.26247	5.10
3.27913	5.10
3.29580	5.10
3.31247	5.10
3.32913	5.11
3.34580	5.11
3.36247	5.11
3.37913	5.11
3.39580	5.11
3.41247	5.11
3.42913	5.11
3.44580	5.11
3.46247	5.11
3.47913	5.11
3.49580	5.11
3.51247	5.11
3.52913	5.11
3.54580	5.11
3.56247	5.11
3.57913	5.11
3.59580	5.11
3.61247	5.11
3.62913	5.11
3.64580	5.11
3.66247	5.11
3.67913	5.11
3.69580	5.11
3.71247	5.11
3.72913	5.11
3.74580	5.11
3.76247	5.11
3.77913	5.11
3.79580	5.11
3.81247	5.11
3.82913	5.11
3.84580	5.11
3.86247	5.11
3.87913	5.11
3.89580	5.11
3.91247	5.11
3.92913	5.11
3.94580	5.11
3.96247	5.11
3.97913	5.11
3.99580	5.11

[Status Trace (Linear Velocity)]
Interval(msec)	1000
# of Points	240
Start Time(min)	0.012
End Time(min)	3.996
Intensity Units	
Intensity Multiplier	1
R.Time (min)	Intensity
0.01247	39.01
0.02913	37.03
0.04580	38.88
0.06247	40.14
0.07913	39.57
0.09580	39.01
0.11247	39.01
0.12913	39.03
0.14580	39.02
0.16247	39.02
0.17913	39.02
0.19580	39.02
0.21247	39.02
0.22913	39.02
0.24580	39.02
0.26247	39.02
0.27913	39.02
0.29580	39.03
0.31247	39.03
0.32913	39.03
0.34580	39.02
0.36247	39.02
0.37913	39.03
0.39580	39.03
0.41247	39.03
0.42913	39.03
0.44580	39.02
0.46247	39.02
0.47913	39.02
0.49580	39.02
0.51247	39.02
0.52913	39.02
0.54580	39.02
0.56247	39.02
0.57913	39.02
0.59580	39.02
0.61247	39.02
0.62913	39.02
0.64580	39.02
0.66247	39.02
0.67913	39.02
0.69580	39.02
0.71247	39.02
0.72913	39.02
0.74580	39.02
0.76247	39.02
0.77913	39.02
0.79580	39.02
0.81247	39.03
0.82913	39.03
0.84580	39.03
0.86247	39.03
0.87913	39.03
0.89580	39.03
0.91247	39.03
0.92913	39.02
0.94580	39.02
0.96247	39.02
0.97913	39.02
0.99580	39.02
1.01247	39.02
1.02913	39.02
1.04580	39.02
1.06247	39.03
1.07913	39.03
1.09580	39.02
1.11247	39.02
1.12913	39.02
1.14580	39.02
1.16247	39.02
1.17913	39.02
1.19580	39.02
1.21247	39.02
1.22913	39.02
1.24580	39.02
1.26247	39.02
1.27913	39.02
1.29580	39.02
1.31247	39.02
1.32913	39.02
1.34580	39.02
1.36247	39.02
1.37913	39.02
1.39580	39.02
1.41247	39.02
1.42913	39.02
1.44580	39.02
1.46247	39.03
1.47913	39.03
1.49580	39.03
1.51247	39.03
1.52913	39.03
1.54580	39.03
1.56247	39.03
1.57913	39.03
1.59580	39.02
1.61247	39.02
1.62913	39.01
1.64580	38.99
1.66247	38.96
1.67913	38.93
1.69580	38.89
1.71247	38.85
1.72913	38.82
1.74580	38.79
1.76247	38.76
1.77913	38.73
1.79580	38.70
1.81247	38.67
1.82913	38.64
1.84580	38.61
1.86247	38.58
1.87913	38.55
1.89580	38.51
1.91247	38.48
1.92913	38.45
1.94580	38.42
1.96247	38.39
1.97913	38.36
1.99580	38.33
2.01247	38.30
2.02913	38.27
2.04580	38.24
2.06247	38.21
2.07913	38.18
2.09580	38.15
2.11247	38.12
2.12913	38.09
2.14580	38.06
2.16247	38.03
2.17913	38.00
2.19580	37.97
2.21247	37.94
2.22913	37.91
2.24580	37.88
2.26247	37.85
2.27913	37.82
2.29580	37.79
2.31247	37.77
2.32913	37.74
2.34580	37.71
2.36247	37.68
2.37913	37.67
2.39580	37.66
2.41247	37.66
2.42913	37.67
2.44580	37.67
2.46247	37.67
2.47913	37.66
2.49580	37.66
2.51247	37.66
2.52913	37.65
2.54580	37.66
2.56247	37.66
2.57913	37.66
2.59580	37.66
2.61247	37.65
2.62913	37.65
2.64580	37.65
2.66247	37.65
2.67913	37.65
2.69580	37.65
2.71247	37.65
2.72913	37.65
2.74580	37.65
2.76247	37.65
2.77913	37.65
2.79580	37.65
2.81247	37.65
2.82913	37.65
2.84580	37.65
2.86247	37.65
2.87913	37.65
2.89580	37.65
2.91247	37.65
2.92913	37.65
2.94580	37.65
2.96247	37.65
2.97913	37.65
2.99580	37.65
3.01247	37.64
3.02913	37.64
3.04580	37.64
3.06247	37.64
3.07913	37.64
3.09580	37.63
3.11247	37.63
3.12913	37.63
3.14580	37.63
3.16247	37.63
3.17913	37.63
3.19580	37.63
3.21247	37.63
3.22913	37.63
3.24580	37.63
3.26247	37.63
3.27913	37.63
3.29580	37.63
3.31247	37.63
3.32913	37.63
3.34580	37.64
3.36247	37.64
3.37913	37.64
3.39580	37.64
3.41247	37.64
3.42913	37.63
3.44580	37.63
3.46247	37.64
3.47913	37.64
3.49580	37.64
3.51247	37.64
3.52913	37.63
3.54580	37.63
3.56247	37.64
3.57913	37.63
3.59580	37.63
3.61247	37.63
3.62913	37.64
3.64580	37.64
3.66247	37.64
3.67913	37.64
3.69580	37.64
3.71247	37.63
3.72913	37.63
3.74580	37.63
3.76247	37.63
3.77913	37.64
3.79580	37.64
3.81247	37.64
3.82913	37.64
3.84580	37.64
3.86247	37.64
3.87913	37.63
3.89580	37.63
3.91247	37.63
3.92913	37.63
3.94580	37.63
3.96247	37.63
3.97913	37.63
3.99580	37.63

