[Header]
Application Name	LabSolutions
Version	5.110
Data File Name	C:\Users\User\Desktop\GC Analyses\Jack\Nachusa Grasslands Sampling\T4 Timepoint July 12th\T4_07122022_057.gcd
Output Date	3/17/2023
Output Time	12:04:54 PM

[File Information]
Type	Data File
Generated	3/14/2023 9:44:29 PM
Generated by	System Administrator
Modified	3/14/2023 9:51:13 PM
Modified by	System Administrator

[Sample Information]
Operator Name	System Administrator
Acquired	3/14/2023 9:47:12 PM
Sample Type	0:Unknown
Level	0
Sample Name	057
Sample ID	057
ISTD Amount1	1
ISTD Amount2	1
ISTD Amount3	1
ISTD Amount4	1
ISTD Amount5	1
ISTD Amount6	1
ISTD Amount7	1
ISTD Amount8	1
ISTD Amount9	1
ISTD Amount10	1
ISTD Amount11	1
ISTD Amount12	1
ISTD Amount13	1
ISTD Amount14	1
ISTD Amount15	1
ISTD Amount16	1
ISTD Amount17	1
ISTD Amount18	1
ISTD Amount19	1
ISTD Amount20	1
ISTD Amount21	1
ISTD Amount22	1
ISTD Amount23	1
ISTD Amount24	1
ISTD Amount25	1
ISTD Amount26	1
ISTD Amount27	1
ISTD Amount28	1
ISTD Amount29	1
ISTD Amount30	1
ISTD Amount31	1
ISTD Amount32	1
Sample Amount	1
Dilution Factor	1
Vial#	56
Injection Volume	1
Injection Count	1
Bar Code	

[Original Files]
Data File	C:\Users\User\Desktop\GC Analyses\Jack\Nachusa Grasslands Sampling\T4 Timepoint July 12th\T4_07122022_057.gcd
Method File	C:\LabSolutions\Data\GHG_4min_2022\ghg3_togas_w_acet_4 min_new_int.gcm
Batch File	C:\LabSolutions\Data\AutoSamplerTesting\T4_07122022.gcb
Report Format File	c:\LabSolutions\System\DEFAULT.lsr

[File Description]


[Configuration]
Instrument Name	C0B7VH3-Instrument1
Instrument #	1
Line #	1
# of Detectors	3
Detector ID	DET#1	DET#2	DET#3
Detector Name	FID	PTCD	ECD
# of Channels	1	1	1

[Peak Table(Ch1)]
# of Peaks	3
Peak#	R.Time	I.Time	F.Time	Area	Height	A/H	Conc.	Mark	ID#	Name	k'	Plate #	Plate Ht.	Tailing	Resolution	Sep.Factor	Area Ratio	Height Ratio	Conc. %	Norm Conc.
1	1.476	1.439	1.534	20700	10163	2.037	146.140	   	1	CO	0.000	9614	15.602	1.278	0.000	0.000	0	0	11.674	11.674
2	1.571	1.538	1.626	3891	2007	1.939	75.242	   	2	CH4	0.065	11834	12.676	1.102	1.616	0.000	0	0	6.010	6.010
3	1.996	1.938	2.513	4106002	1968595	2.086	1030.495	   	3	CO2	0.353	17193	8.724	1.310	7.169	5.462	0	0	82.316	82.316

[Peak Table(Ch2)]
# of Peaks	0

[Peak Table(Ch3)]
# of Peaks	6
Peak#	R.Time	I.Time	F.Time	Area	Height	A/H	Conc.	Mark	ID#	Name	k'	Plate #	Plate Ht.	Tailing	Resolution	Sep.Factor	Area Ratio	Height Ratio	Conc. %	Norm Conc.
1	2.462	2.279	2.510	2498	713	3.506	0.000	   			0.000	9127	16.435	0.000	0.000	0.000	0	0	0.000	0.000
2	2.532	2.510	2.572	1168	416	2.808	0.000	 V 			0.028	5377	27.896	0.000	0.578	0.000	0	0	0.000	0.000
3	2.598	2.572	2.682	811	198	4.085	0.000	 V 			0.055	97	1550.316	0.000	0.111	1.947	0	0	0.000	0.000
4	2.880	2.792	3.126	18275	4695	3.893	0.467	S  	1	N2O	0.170	13122	11.431	1.547	0.488	3.081	0	0	100.000	100.000
5	3.115	3.060	3.126	129	60	2.140	0.000	T  	2	SF6	0.265	38494	3.897	0.599	2.861	1.561	0	0	0.000	0.000
6	3.316	3.133	3.995	19436	670	28.998	0.000	   	2	SF6	0.347	221	678.774	2.297	0.422	1.309	0	0	0.000	0.000

[Compound Results(Ch1)]
# of IDs	6
ID#	Name	R.Time	Area	Height	Conc.	Curve	3rd	2nd	1st	Constant	Area Ratio	Height Ratio	Conc. %	Norm Conc.
1	CO	1.476	20700	10163	146.140	Linear	0.000000e+00	0.000000e+00	1.416423e+002	0.000000e+00	0	0	11.674	11.674
2	CH4	1.571	3891	2007	75.242	Linear	0.000000e+00	0.000000e+00	5.171738e+001	0.000000e+00	0	0	6.010	6.010
3	CO2	1.996	4106002	1968595	1030.495	Linear	0.000000e+00	0.000000e+00	3.984494e+003	0.000000e+00	0	0	82.316	82.316
4	Ethylene	0.000	0	0	0.000	Linear	0.000000e+00	0.000000e+00	0.000000e+00	0.000000e+00	0	0	0.000	0.000
5	Acetylene	0.000	0	0	0.000	Linear	0.000000e+00	0.000000e+00	0.000000e+00	0.000000e+00	0	0	0.000	0.000
6	Ethane	0.000	0	0	0.000	Linear	0.000000e+00	0.000000e+00	0.000000e+00	0.000000e+00	0	0	0.000	0.000

[Compound Results(Ch2)]
# of IDs	5
ID#	Name	R.Time	Area	Height	Conc.	Curve	3rd	2nd	1st	Constant	Area Ratio	Height Ratio	Conc. %	Norm Conc.
1	Hydrogen	0.000	0	0	0.000	Linear	0.000000e+00	0.000000e+00	0.000000e+00	0.000000e+00	0	0	0.000	0.000
2	Oxygen	0.000	0	0	0.000	Linear	0.000000e+00	0.000000e+00	0.000000e+00	0.000000e+00	0	0	0.000	0.000
3	Nitrogen	0.000	0	0	0.000	Linear	0.000000e+00	0.000000e+00	0.000000e+00	0.000000e+00	0	0	0.000	0.000
4	Methane	0.000	0	0	0.000	Linear	0.000000e+00	0.000000e+00	0.000000e+00	0.000000e+00	0	0	0.000	0.000
5	Carbon Monoxide	0.000	0	0	0.000	Linear	0.000000e+00	0.000000e+00	0.000000e+00	0.000000e+00	0	0	0.000	0.000

[Compound Results(Ch3)]
# of IDs	2
ID#	Name	R.Time	Area	Height	Conc.	Curve	3rd	2nd	1st	Constant	Area Ratio	Height Ratio	Conc. %	Norm Conc.
1	N2O	2.880	18275	4695	0.467	Linear	0.000000e+00	0.000000e+00	3.915173e+004	0.000000e+00	0	0	100.000	100.000
2	SF6	3.316	19565	731	0.000	Linear	0.000000e+00	0.000000e+00	0.000000e+00	0.000000e+00	0	0	0.000	0.000

[Group Results(Ch1)]
# of Groups	0

[Group Results(Ch2)]
# of Groups	0

[Group Results(Ch3)]
# of Groups	0

[Chromatogram (Ch1)]
Interval(msec)	220
# of Points	1091
Start Time(min)	0.002
End Time(min)	3.998
R.Time (min)	Intensity
0.00167	20
0.00533	23
0.00900	24
0.01267	22
0.01633	17
0.02000	11
0.02367	9
0.02733	7
0.03100	7
0.03467	10
0.03833	13
0.04200	15
0.04567	19
0.04933	25
0.05300	29
0.05667	28
0.06033	20
0.06400	13
0.06767	8
0.07133	9
0.07500	10
0.07867	14
0.08233	18
0.08600	20
0.08967	21
0.09333	23
0.09700	26
0.10067	28
0.10433	30
0.10800	29
0.11167	24
0.11533	22
0.11900	24
0.12267	29
0.12633	33
0.13000	39
0.13367	45
0.13733	49
0.14100	47
0.14467	45
0.14833	44
0.15200	44
0.15567	42
0.15933	42
0.16300	47
0.16667	57
0.17033	75
0.17400	92
0.17767	101
0.18133	104
0.18500	102
0.18867	101
0.19233	97
0.19600	88
0.19967	80
0.20333	72
0.20700	70
0.21067	75
0.21433	84
0.21800	88
0.22167	86
0.22533	82
0.22900	83
0.23267	88
0.23633	94
0.24000	102
0.24367	109
0.24733	112
0.25100	111
0.25467	108
0.25833	105
0.26200	103
0.26567	99
0.26933	98
0.27300	93
0.27667	84
0.28033	78
0.28400	73
0.28767	71
0.29133	71
0.29500	76
0.29867	80
0.30233	80
0.30600	78
0.30967	74
0.31333	71
0.31700	68
0.32067	67
0.32433	66
0.32800	66
0.33167	62
0.33533	52
0.33900	42
0.34267	39
0.34633	32
0.35000	26
0.35367	21
0.35733	22
0.36100	27
0.36467	37
0.36833	51
0.37200	56
0.37567	54
0.37933	52
0.38300	46
0.38667	39
0.39033	35
0.39400	34
0.39767	36
0.40133	40
0.40500	44
0.40867	43
0.41233	38
0.41600	34
0.41967	31
0.42333	30
0.42700	31
0.43067	32
0.43433	37
0.43800	39
0.44167	41
0.44533	40
0.44900	36
0.45267	31
0.45633	30
0.46000	34
0.46367	44
0.46733	55
0.47100	60
0.47467	60
0.47833	55
0.48200	47
0.48567	38
0.48933	32
0.49300	28
0.49667	27
0.50033	26
0.50400	23
0.50767	27
0.51133	42
0.51500	56
0.51867	59
0.52233	52
0.52600	46
0.52967	46
0.53333	55
0.53700	53
0.54067	45
0.54433	36
0.54800	28
0.55167	23
0.55533	22
0.55900	25
0.56267	29
0.56633	34
0.57000	38
0.57367	42
0.57733	46
0.58100	48
0.58467	48
0.58833	45
0.59200	38
0.59567	35
0.59933	39
0.60300	42
0.60667	43
0.61033	48
0.61400	48
0.61767	44
0.62133	40
0.62500	40
0.62867	45
0.63233	52
0.63600	58
0.63967	60
0.64333	59
0.64700	58
0.65067	57
0.65433	53
0.65800	50
0.66167	48
0.66533	46
0.66900	41
0.67267	37
0.67633	39
0.68000	45
0.68367	49
0.68733	49
0.69100	50
0.69467	55
0.69833	61
0.70200	68
0.70567	70
0.70933	63
0.71300	57
0.71667	51
0.72033	46
0.72400	38
0.72767	31
0.73133	28
0.73500	28
0.73867	33
0.74233	41
0.74600	47
0.74967	48
0.75333	46
0.75700	45
0.76067	46
0.76433	48
0.76800	45
0.77167	41
0.77533	39
0.77900	38
0.78267	42
0.78633	47
0.79000	48
0.79367	39
0.79733	30
0.80100	22
0.80467	20
0.80833	24
0.81200	27
0.81567	27
0.81933	28
0.82300	30
0.82667	38
0.83033	52
0.83400	66
0.83767	72
0.84133	70
0.84500	60
0.84867	51
0.85233	39
0.85600	28
0.85967	23
0.86333	20
0.86700	19
0.87067	20
0.87433	23
0.87800	27
0.88167	28
0.88533	28
0.88900	31
0.89267	38
0.89633	43
0.90000	45
0.90367	48
0.90733	54
0.91100	52
0.91467	37
0.91833	20
0.92200	8
0.92567	3
0.92933	3
0.93300	4
0.93667	3
0.94033	-1
0.94400	-6
0.94767	-8
0.95133	-7
0.95500	-2
0.95867	6
0.96233	14
0.96600	21
0.96967	24
0.97333	27
0.97700	28
0.98067	25
0.98433	23
0.98800	25
0.99167	26
0.99533	27
0.99900	28
1.00267	26
1.00633	24
1.01000	23
1.01367	23
1.01733	25
1.02100	25
1.02467	23
1.02833	22
1.03200	24
1.03567	28
1.03933	30
1.04300	34
1.04667	39
1.05033	41
1.05400	41
1.05767	44
1.06133	51
1.06500	54
1.06867	53
1.07233	45
1.07600	36
1.07967	30
1.08333	25
1.08700	18
1.09067	12
1.09433	11
1.09800	13
1.10167	10
1.10533	8
1.10900	16
1.11267	26
1.11633	31
1.12000	30
1.12367	29
1.12733	23
1.13100	12
1.13467	6
1.13833	5
1.14200	5
1.14567	6
1.14933	8
1.15300	10
1.15667	12
1.16033	14
1.16400	16
1.16767	19
1.17133	21
1.17500	24
1.17867	25
1.18233	23
1.18600	19
1.18967	16
1.19333	13
1.19700	13
1.20067	13
1.20433	14
1.20800	15
1.21167	14
1.21533	9
1.21900	5
1.22267	2
1.22633	5
1.23000	13
1.23367	17
1.23733	17
1.24100	17
1.24467	14
1.24833	13
1.25200	16
1.25567	20
1.25933	17
1.26300	10
1.26667	3
1.27033	1
1.27400	2
1.27767	11
1.28133	25
1.28500	34
1.28867	35
1.29233	29
1.29600	21
1.29967	17
1.30333	20
1.30700	27
1.31067	32
1.31433	33
1.31800	28
1.32167	23
1.32533	27
1.32900	36
1.33267	42
1.33633	46
1.34000	41
1.34367	27
1.34733	18
1.35100	15
1.35467	10
1.35833	3
1.36200	-1
1.36567	-0
1.36933	3
1.37300	6
1.37667	10
1.38033	17
1.38400	24
1.38767	31
1.39133	36
1.39500	36
1.39867	37
1.40233	38
1.40600	38
1.40967	37
1.41333	38
1.41700	41
1.42067	40
1.42433	35
1.42800	30
1.43167	31
1.43533	31
1.43900	39
1.44267	78
1.44633	204
1.45000	541
1.45367	1376
1.45733	2902
1.46100	4869
1.46467	6826
1.46833	8449
1.47200	9599
1.47567	10183
1.47933	10101
1.48300	9335
1.48667	8023
1.49033	6441
1.49400	4877
1.49767	3528
1.50133	2466
1.50500	1682
1.50867	1126
1.51233	741
1.51600	478
1.51967	305
1.52333	185
1.52700	96
1.53067	31
1.53433	-11
1.53800	-24
1.54167	16
1.54533	150
1.54900	419
1.55267	795
1.55633	1194
1.56000	1545
1.56367	1807
1.56733	1960
1.57100	1981
1.57467	1848
1.57833	1589
1.58200	1263
1.58567	933
1.58933	650
1.59300	429
1.59667	264
1.60033	149
1.60400	76
1.60767	33
1.61133	9
1.61500	-7
1.61867	-17
1.62233	-24
1.62600	-30
1.62967	-34
1.63333	-36
1.63700	-35
1.64067	-30
1.64433	-26
1.64800	-24
1.65167	-21
1.65533	-23
1.65900	-33
1.66267	-42
1.66633	-50
1.67000	-54
1.67367	-52
1.67733	-50
1.68100	-47
1.68467	-37
1.68833	-22
1.69200	-14
1.69567	-12
1.69933	-16
1.70300	-22
1.70667	-32
1.71033	-44
1.71400	-53
1.71767	-59
1.72133	-63
1.72500	-64
1.72867	-61
1.73233	-57
1.73600	-51
1.73967	-45
1.74333	-41
1.74700	-39
1.75067	-34
1.75433	-30
1.75800	-29
1.76167	-31
1.76533	-32
1.76900	-30
1.77267	-30
1.77633	-33
1.78000	-28
1.78367	-21
1.78733	-19
1.79100	-20
1.79467	-22
1.79833	-22
1.80200	-21
1.80567	-13
1.80933	-9
1.81300	-7
1.81667	-4
1.82033	-5
1.82400	-8
1.82767	-16
1.83133	-26
1.83500	-30
1.83867	-31
1.84233	-31
1.84600	-28
1.84967	-21
1.85333	-11
1.85700	-1
1.86067	8
1.86433	18
1.86800	27
1.87167	31
1.87533	27
1.87900	15
1.88267	4
1.88633	-1
1.89000	-1
1.89367	0
1.89733	3
1.90100	2
1.90467	2
1.90833	3
1.91200	2
1.91567	1
1.91933	-3
1.92300	-11
1.92667	-20
1.93033	-28
1.93400	-30
1.93767	-26
1.94133	-15
1.94500	-0
1.94867	17
1.95233	53
1.95600	258
1.95967	1591
1.96333	8354
1.96700	34282
1.97067	109856
1.97433	276527
1.97800	556786
1.98167	923684
1.98533	1309990
1.98900	1643888
1.99267	1872895
1.99633	1968603
2.00000	1926684
2.00367	1765237
2.00733	1520124
2.01100	1236267
2.01467	955921
2.01833	708879
2.02200	509145
2.02567	357745
2.02933	248230
2.03300	171548
2.03667	118988
2.04033	83403
2.04400	59427
2.04767	43252
2.05133	32269
2.05500	24722
2.05867	19453
2.06233	15702
2.06600	12972
2.06967	10937
2.07333	9382
2.07700	8166
2.08067	7192
2.08433	6403
2.08800	5757
2.09167	5226
2.09533	4782
2.09900	4399
2.10267	4065
2.10633	3771
2.11000	3507
2.11367	3270
2.11733	3063
2.12100	2884
2.12467	2723
2.12833	2579
2.13200	2452
2.13567	2338
2.13933	2235
2.14300	2136
2.14667	2038
2.15033	1950
2.15400	1867
2.15767	1787
2.16133	1716
2.16500	1652
2.16867	1592
2.17233	1533
2.17600	1473
2.17967	1413
2.18333	1357
2.18700	1308
2.19067	1266
2.19433	1229
2.19800	1191
2.20167	1149
2.20533	1109
2.20900	1078
2.21267	1051
2.21633	1025
2.22000	997
2.22367	969
2.22733	949
2.23100	934
2.23467	912
2.23833	887
2.24200	861
2.24567	836
2.24933	814
2.25300	792
2.25667	777
2.26033	765
2.26400	753
2.26767	742
2.27133	726
2.27500	708
2.27867	695
2.28233	686
2.28600	675
2.28967	665
2.29333	656
2.29700	646
2.30067	637
2.30433	626
2.30800	614
2.31167	601
2.31533	595
2.31900	592
2.32267	585
2.32633	575
2.33000	567
2.33367	560
2.33733	551
2.34100	540
2.34467	530
2.34833	520
2.35200	512
2.35567	507
2.35933	507
2.36300	507
2.36667	501
2.37033	491
2.37400	476
2.37767	455
2.38133	436
2.38500	429
2.38867	431
2.39233	430
2.39600	420
2.39967	407
2.40333	395
2.40700	387
2.41067	384
2.41433	384
2.41800	387
2.42167	391
2.42533	395
2.42900	400
2.43267	403
2.43633	401
2.44000	397
2.44367	391
2.44733	380
2.45100	367
2.45467	358
2.45833	356
2.46200	358
2.46567	362
2.46933	364
2.47300	360
2.47667	352
2.48033	340
2.48400	328
2.48767	321
2.49133	321
2.49500	322
2.49867	319
2.50233	318
2.50600	319
2.50967	315
2.51333	309
2.51700	306
2.52067	307
2.52433	310
2.52800	311
2.53167	311
2.53533	311
2.53900	312
2.54267	312
2.54633	308
2.55000	301
2.55367	295
2.55733	292
2.56100	294
2.56467	296
2.56833	290
2.57200	280
2.57567	273
2.57933	271
2.58300	269
2.58667	266
2.59033	264
2.59400	264
2.59767	265
2.60133	265
2.60500	262
2.60867	256
2.61233	248
2.61600	239
2.61967	230
2.62333	221
2.62700	216
2.63067	216
2.63433	219
2.63800	217
2.64167	212
2.64533	209
2.64900	213
2.65267	222
2.65633	231
2.66000	234
2.66367	231
2.66733	224
2.67100	219
2.67467	212
2.67833	206
2.68200	203
2.68567	202
2.68933	205
2.69300	206
2.69667	203
2.70033	200
2.70400	198
2.70767	199
2.71133	203
2.71500	207
2.71867	208
2.72233	209
2.72600	211
2.72967	214
2.73333	219
2.73700	222
2.74067	218
2.74433	212
2.74800	204
2.75167	197
2.75533	195
2.75900	195
2.76267	198
2.76633	196
2.77000	193
2.77367	191
2.77733	191
2.78100	194
2.78467	197
2.78833	198
2.79200	198
2.79567	201
2.79933	207
2.80300	213
2.80667	216
2.81033	213
2.81400	209
2.81767	200
2.82133	184
2.82500	171
2.82867	161
2.83233	158
2.83600	160
2.83967	166
2.84333	174
2.84700	178
2.85067	183
2.85433	187
2.85800	191
2.86167	192
2.86533	187
2.86900	180
2.87267	176
2.87633	179
2.88000	179
2.88367	177
2.88733	174
2.89100	170
2.89467	169
2.89833	169
2.90200	173
2.90567	178
2.90933	181
2.91300	184
2.91667	187
2.92033	186
2.92400	183
2.92767	178
2.93133	172
2.93500	162
2.93867	152
2.94233	148
2.94600	150
2.94967	154
2.95333	157
2.95700	162
2.96067	170
2.96433	175
2.96800	175
2.97167	173
2.97533	166
2.97900	159
2.98267	152
2.98633	149
2.99000	150
2.99367	152
2.99733	153
3.00100	154
3.00467	156
3.00833	156
3.01200	157
3.01567	163
3.01933	170
3.02300	173
3.02667	173
3.03033	174
3.03400	170
3.03767	156
3.04133	145
3.04500	144
3.04867	148
3.05233	150
3.05600	150
3.05967	149
3.06333	143
3.06700	136
3.07067	132
3.07433	130
3.07800	128
3.08167	127
3.08533	129
3.08900	133
3.09267	140
3.09633	147
3.10000	150
3.10367	154
3.10733	158
3.11100	159
3.11467	161
3.11833	153
3.12200	140
3.12567	127
3.12933	114
3.13300	106
3.13667	106
3.14033	114
3.14400	126
3.14767	134
3.15133	136
3.15500	136
3.15867	134
3.16233	133
3.16600	141
3.16967	148
3.17333	150
3.17700	147
3.18067	139
3.18433	130
3.18800	119
3.19167	112
3.19533	110
3.19900	109
3.20267	109
3.20633	112
3.21000	117
3.21367	120
3.21733	125
3.22100	134
3.22467	140
3.22833	139
3.23200	135
3.23567	129
3.23933	122
3.24300	120
3.24667	119
3.25033	117
3.25400	116
3.25767	116
3.26133	115
3.26500	113
3.26867	113
3.27233	116
3.27600	126
3.27967	132
3.28333	131
3.28700	127
3.29067	120
3.29433	114
3.29800	111
3.30167	111
3.30533	115
3.30900	119
3.31267	118
3.31633	116
3.32000	120
3.32367	130
3.32733	138
3.33100	139
3.33467	135
3.33833	126
3.34200	116
3.34567	104
3.34933	92
3.35300	82
3.35667	76
3.36033	76
3.36400	78
3.36767	78
3.37133	79
3.37500	77
3.37867	76
3.38233	76
3.38600	80
3.38967	89
3.39333	96
3.39700	96
3.40067	98
3.40433	104
3.40800	108
3.41167	111
3.41533	110
3.41900	107
3.42267	105
3.42633	105
3.43000	106
3.43367	105
3.43733	97
3.44100	88
3.44467	83
3.44833	87
3.45200	92
3.45567	96
3.45933	96
3.46300	92
3.46667	86
3.47033	83
3.47400	86
3.47767	91
3.48133	94
3.48500	90
3.48867	83
3.49233	78
3.49600	78
3.49967	83
3.50333	93
3.50700	99
3.51067	99
3.51433	92
3.51800	85
3.52167	78
3.52533	71
3.52900	69
3.53267	66
3.53633	64
3.54000	66
3.54367	72
3.54733	78
3.55100	84
3.55467	90
3.55833	95
3.56200	94
3.56567	88
3.56933	82
3.57300	79
3.57667	77
3.58033	75
3.58400	71
3.58767	65
3.59133	64
3.59500	68
3.59867	72
3.60233	79
3.60600	85
3.60967	89
3.61333	85
3.61700	81
3.62067	73
3.62433	65
3.62800	59
3.63167	52
3.63533	47
3.63900	40
3.64267	35
3.64633	30
3.65000	25
3.65367	26
3.65733	31
3.66100	34
3.66467	36
3.66833	38
3.67200	40
3.67567	41
3.67933	44
3.68300	51
3.68667	55
3.69033	54
3.69400	50
3.69767	48
3.70133	49
3.70500	52
3.70867	51
3.71233	47
3.71600	48
3.71967	52
3.72333	56
3.72700	58
3.73067	59
3.73433	63
3.73800	73
3.74167	81
3.74533	82
3.74900	81
3.75267	74
3.75633	63
3.76000	59
3.76367	61
3.76733	61
3.77100	64
3.77467	60
3.77833	47
3.78200	31
3.78567	18
3.78933	10
3.79300	8
3.79667	12
3.80033	20
3.80400	27
3.80767	30
3.81133	32
3.81500	31
3.81867	28
3.82233	24
3.82600	24
3.82967	24
3.83333	31
3.83700	42
3.84067	44
3.84433	42
3.84800	43
3.85167	42
3.85533	42
3.85900	33
3.86267	21
3.86633	14
3.87000	11
3.87367	11
3.87733	11
3.88100	13
3.88467	11
3.88833	7
3.89200	6
3.89567	9
3.89933	15
3.90300	22
3.90667	30
3.91033	34
3.91400	37
3.91767	32
3.92133	28
3.92500	28
3.92867	31
3.93233	34
3.93600	33
3.93967	28
3.94333	24
3.94700	24
3.95067	27
3.95433	26
3.95800	25
3.96167	26
3.96533	30
3.96900	31
3.97267	27
3.97633	23
3.98000	20
3.98367	20
3.98733	29
3.99100	44
3.99467	50
3.99833	45

[Chromatogram (Ch2)]
Interval(msec)	220
# of Points	1091
Start Time(min)	0.002
End Time(min)	3.998
R.Time (min)	Intensity
0.00167	-0
0.00533	-1
0.00900	-1
0.01267	-1
0.01633	-1
0.02000	-2
0.02367	-2
0.02733	-2
0.03100	-2
0.03467	-1
0.03833	-1
0.04200	-1
0.04567	-0
0.04933	-0
0.05300	0
0.05667	0
0.06033	0
0.06400	-0
0.06767	-0
0.07133	0
0.07500	0
0.07867	1
0.08233	1
0.08600	2
0.08967	2
0.09333	3
0.09700	3
0.10067	3
0.10433	4
0.10800	4
0.11167	4
0.11533	3
0.11900	3
0.12267	3
0.12633	2
0.13000	2
0.13367	2
0.13733	2
0.14100	1
0.14467	1
0.14833	1
0.15200	0
0.15567	-0
0.15933	-1
0.16300	-1
0.16667	-2
0.17033	-2
0.17400	-2
0.17767	-2
0.18133	-2
0.18500	-1
0.18867	-1
0.19233	-1
0.19600	-1
0.19967	-0
0.20333	-0
0.20700	-0
0.21067	0
0.21433	0
0.21800	0
0.22167	0
0.22533	0
0.22900	0
0.23267	0
0.23633	0
0.24000	-0
0.24367	-0
0.24733	-0
0.25100	-0
0.25467	-0
0.25833	-0
0.26200	-0
0.26567	-0
0.26933	-0
0.27300	-0
0.27667	-0
0.28033	-0
0.28400	-0
0.28767	-1
0.29133	-1
0.29500	-1
0.29867	-2
0.30233	-2
0.30600	-1
0.30967	-1
0.31333	-1
0.31700	-1
0.32067	-0
0.32433	-0
0.32800	-0
0.33167	0
0.33533	1
0.33900	1
0.34267	1
0.34633	1
0.35000	1
0.35367	1
0.35733	1
0.36100	1
0.36467	1
0.36833	1
0.37200	1
0.37567	1
0.37933	1
0.38300	2
0.38667	2
0.39033	2
0.39400	1
0.39767	1
0.40133	1
0.40500	0
0.40867	0
0.41233	0
0.41600	0
0.41967	0
0.42333	0
0.42700	0
0.43067	0
0.43433	0
0.43800	0
0.44167	-0
0.44533	-0
0.44900	0
0.45267	0
0.45633	1
0.46000	1
0.46367	1
0.46733	1
0.47100	1
0.47467	1
0.47833	1
0.48200	0
0.48567	0
0.48933	0
0.49300	0
0.49667	0
0.50033	0
0.50400	-0
0.50767	-0
0.51133	-0
0.51500	-0
0.51867	-0
0.52233	-0
0.52600	-0
0.52967	-0
0.53333	-0
0.53700	-0
0.54067	-1
0.54433	-1
0.54800	-1
0.55167	-1
0.55533	-1
0.55900	-0
0.56267	-0
0.56633	0
0.57000	0
0.57367	1
0.57733	1
0.58100	1
0.58467	1
0.58833	1
0.59200	1
0.59567	1
0.59933	1
0.60300	0
0.60667	0
0.61033	0
0.61400	-0
0.61767	-0
0.62133	-0
0.62500	-0
0.62867	-0
0.63233	-1
0.63600	-1
0.63967	-1
0.64333	-1
0.64700	-1
0.65067	-1
0.65433	-1
0.65800	-1
0.66167	-1
0.66533	-1
0.66900	-1
0.67267	-1
0.67633	-1
0.68000	-2
0.68367	-2
0.68733	-2
0.69100	-2
0.69467	-2
0.69833	-2
0.70200	-2
0.70567	-1
0.70933	-1
0.71300	-1
0.71667	-1
0.72033	-1
0.72400	-0
0.72767	0
0.73133	0
0.73500	1
0.73867	1
0.74233	1
0.74600	1
0.74967	1
0.75333	1
0.75700	1
0.76067	1
0.76433	1
0.76800	1
0.77167	1
0.77533	0
0.77900	-0
0.78267	-1
0.78633	-1
0.79000	-2
0.79367	-2
0.79733	-2
0.80100	-2
0.80467	-2
0.80833	-2
0.81200	-2
0.81567	-2
0.81933	-3
0.82300	-3
0.82667	-3
0.83033	-3
0.83400	-3
0.83767	-3
0.84133	-3
0.84500	-3
0.84867	-3
0.85233	-3
0.85600	-3
0.85967	-3
0.86333	-3
0.86700	-3
0.87067	-3
0.87433	-3
0.87800	-3
0.88167	-3
0.88533	-3
0.88900	-3
0.89267	-3
0.89633	-3
0.90000	-3
0.90367	-3
0.90733	-3
0.91100	-4
0.91467	-3
0.91833	-3
0.92200	-3
0.92567	-3
0.92933	-3
0.93300	-2
0.93667	-2
0.94033	-2
0.94400	-2
0.94767	-2
0.95133	-2
0.95500	-2
0.95867	-3
0.96233	-3
0.96600	-3
0.96967	-3
0.97333	-3
0.97700	-4
0.98067	-4
0.98433	-4
0.98800	-4
0.99167	-4
0.99533	-3
0.99900	-3
1.00267	-3
1.00633	-3
1.01000	-3
1.01367	-3
1.01733	-3
1.02100	-3
1.02467	-3
1.02833	-2
1.03200	-2
1.03567	-1
1.03933	-1
1.04300	-0
1.04667	0
1.05033	1
1.05400	1
1.05767	1
1.06133	1
1.06500	1
1.06867	1
1.07233	1
1.07600	1
1.07967	1
1.08333	1
1.08700	1
1.09067	1
1.09433	1
1.09800	1
1.10167	0
1.10533	0
1.10900	-0
1.11267	-0
1.11633	-1
1.12000	-1
1.12367	-1
1.12733	-1
1.13100	-1
1.13467	-1
1.13833	-1
1.14200	-1
1.14567	-1
1.14933	-1
1.15300	-1
1.15667	-1
1.16033	-1
1.16400	-1
1.16767	-2
1.17133	-2
1.17500	-2
1.17867	-2
1.18233	-2
1.18600	-2
1.18967	-2
1.19333	-2
1.19700	-2
1.20067	-3
1.20433	-3
1.20800	-3
1.21167	-3
1.21533	-3
1.21900	-3
1.22267	-3
1.22633	-3
1.23000	-3
1.23367	-3
1.23733	-3
1.24100	-4
1.24467	-4
1.24833	-4
1.25200	-4
1.25567	-4
1.25933	-4
1.26300	-4
1.26667	-4
1.27033	-4
1.27400	-4
1.27767	-3
1.28133	-3
1.28500	-3
1.28867	-3
1.29233	-3
1.29600	-3
1.29967	-3
1.30333	-3
1.30700	-2
1.31067	-2
1.31433	-2
1.31800	-2
1.32167	-2
1.32533	-2
1.32900	-3
1.33267	-3
1.33633	-3
1.34000	-3
1.34367	-3
1.34733	-3
1.35100	-3
1.35467	-3
1.35833	-3
1.36200	-3
1.36567	-3
1.36933	-3
1.37300	-3
1.37667	-3
1.38033	-3
1.38400	-3
1.38767	-3
1.39133	-2
1.39500	-2
1.39867	-2
1.40233	-2
1.40600	-1
1.40967	-1
1.41333	-1
1.41700	-1
1.42067	-1
1.42433	-1
1.42800	-1
1.43167	-1
1.43533	-1
1.43900	-1
1.44267	-1
1.44633	-0
1.45000	-0
1.45367	-0
1.45733	-0
1.46100	-1
1.46467	-1
1.46833	-1
1.47200	-2
1.47567	-2
1.47933	-2
1.48300	-3
1.48667	-3
1.49033	-4
1.49400	-4
1.49767	-4
1.50133	-4
1.50500	-5
1.50867	-5
1.51233	-5
1.51600	-5
1.51967	-5
1.52333	-5
1.52700	-5
1.53067	-5
1.53433	-5
1.53800	-5
1.54167	-5
1.54533	-5
1.54900	-5
1.55267	-5
1.55633	-5
1.56000	-5
1.56367	-5
1.56733	-5
1.57100	-5
1.57467	-4
1.57833	-4
1.58200	-3
1.58567	-3
1.58933	-3
1.59300	-3
1.59667	-3
1.60033	-3
1.60400	-4
1.60767	-6
1.61133	-7
1.61500	-9
1.61867	-12
1.62233	-14
1.62600	-17
1.62967	-20
1.63333	-23
1.63700	-26
1.64067	-30
1.64433	-34
1.64800	-37
1.65167	-41
1.65533	-45
1.65900	-48
1.66267	-52
1.66633	-56
1.67000	-61
1.67367	-65
1.67733	-70
1.68100	-75
1.68467	-80
1.68833	-85
1.69200	-90
1.69567	-94
1.69933	-98
1.70300	-101
1.70667	-103
1.71033	-105
1.71400	-106
1.71767	-107
1.72133	-108
1.72500	-108
1.72867	-109
1.73233	-109
1.73600	-109
1.73967	-109
1.74333	-109
1.74700	-108
1.75067	-108
1.75433	-107
1.75800	-106
1.76167	-105
1.76533	-105
1.76900	-105
1.77267	-106
1.77633	-107
1.78000	-108
1.78367	-109
1.78733	-110
1.79100	-111
1.79467	-112
1.79833	-113
1.80200	-114
1.80567	-114
1.80933	-114
1.81300	-114
1.81667	-114
1.82033	-115
1.82400	-115
1.82767	-115
1.83133	-115
1.83500	-115
1.83867	-115
1.84233	-115
1.84600	-115
1.84967	-115
1.85333	-115
1.85700	-115
1.86067	-115
1.86433	-114
1.86800	-113
1.87167	-113
1.87533	-113
1.87900	-113
1.88267	-113
1.88633	-113
1.89000	-113
1.89367	-113
1.89733	-114
1.90100	-114
1.90467	-114
1.90833	-114
1.91200	-113
1.91567	-114
1.91933	-114
1.92300	-114
1.92667	-114
1.93033	-114
1.93400	-114
1.93767	-113
1.94133	-112
1.94500	-111
1.94867	-110
1.95233	-110
1.95600	-109
1.95967	-108
1.96333	-108
1.96700	-108
1.97067	-108
1.97433	-109
1.97800	-109
1.98167	-110
1.98533	-110
1.98900	-110
1.99267	-110
1.99633	-110
2.00000	-110
2.00367	-109
2.00733	-109
2.01100	-108
2.01467	-108
2.01833	-108
2.02200	-108
2.02567	-108
2.02933	-108
2.03300	-107
2.03667	-107
2.04033	-106
2.04400	-105
2.04767	-105
2.05133	-104
2.05500	-104
2.05867	-104
2.06233	-103
2.06600	-103
2.06967	-102
2.07333	-102
2.07700	-102
2.08067	-102
2.08433	-101
2.08800	-101
2.09167	-101
2.09533	-100
2.09900	-100
2.10267	-99
2.10633	-99
2.11000	-98
2.11367	-97
2.11733	-97
2.12100	-96
2.12467	-95
2.12833	-95
2.13200	-95
2.13567	-95
2.13933	-94
2.14300	-94
2.14667	-94
2.15033	-94
2.15400	-95
2.15767	-95
2.16133	-95
2.16500	-94
2.16867	-94
2.17233	-94
2.17600	-93
2.17967	-93
2.18333	-93
2.18700	-93
2.19067	-93
2.19433	-92
2.19800	-92
2.20167	-91
2.20533	-91
2.20900	-90
2.21267	-89
2.21633	-88
2.22000	-87
2.22367	-86
2.22733	-87
2.23100	-87
2.23467	-88
2.23833	-88
2.24200	-89
2.24567	-89
2.24933	-88
2.25300	-88
2.25667	-87
2.26033	-86
2.26400	-86
2.26767	-85
2.27133	-84
2.27500	-84
2.27867	-84
2.28233	-83
2.28600	-83
2.28967	-83
2.29333	-83
2.29700	-83
2.30067	-82
2.30433	-82
2.30800	-82
2.31167	-82
2.31533	-82
2.31900	-82
2.32267	-81
2.32633	-81
2.33000	-82
2.33367	-82
2.33733	-82
2.34100	-83
2.34467	-83
2.34833	-83
2.35200	-83
2.35567	-82
2.35933	-80
2.36300	-78
2.36667	-75
2.37033	-72
2.37400	-68
2.37767	-64
2.38133	-60
2.38500	-55
2.38867	-51
2.39233	-46
2.39600	-42
2.39967	-37
2.40333	-32
2.40700	-28
2.41067	-24
2.41433	-21
2.41800	-18
2.42167	-16
2.42533	-15
2.42900	-13
2.43267	-11
2.43633	-10
2.44000	-9
2.44367	-8
2.44733	-7
2.45100	-7
2.45467	-7
2.45833	-6
2.46200	-6
2.46567	-5
2.46933	-4
2.47300	-3
2.47667	-3
2.48033	-2
2.48400	-1
2.48767	0
2.49133	1
2.49500	2
2.49867	3
2.50233	4
2.50600	4
2.50967	5
2.51333	6
2.51700	7
2.52067	8
2.52433	9
2.52800	9
2.53167	10
2.53533	10
2.53900	10
2.54267	11
2.54633	12
2.55000	13
2.55367	13
2.55733	14
2.56100	15
2.56467	15
2.56833	15
2.57200	14
2.57567	13
2.57933	13
2.58300	12
2.58667	12
2.59033	12
2.59400	12
2.59767	12
2.60133	12
2.60500	13
2.60867	13
2.61233	13
2.61600	13
2.61967	13
2.62333	13
2.62700	13
2.63067	14
2.63433	14
2.63800	15
2.64167	15
2.64533	16
2.64900	17
2.65267	17
2.65633	17
2.66000	18
2.66367	18
2.66733	19
2.67100	19
2.67467	19
2.67833	19
2.68200	19
2.68567	20
2.68933	20
2.69300	20
2.69667	20
2.70033	21
2.70400	21
2.70767	21
2.71133	21
2.71500	21
2.71867	21
2.72233	21
2.72600	21
2.72967	21
2.73333	21
2.73700	22
2.74067	22
2.74433	23
2.74800	23
2.75167	23
2.75533	23
2.75900	24
2.76267	24
2.76633	24
2.77000	24
2.77367	24
2.77733	24
2.78100	23
2.78467	23
2.78833	22
2.79200	22
2.79567	21
2.79933	21
2.80300	21
2.80667	21
2.81033	22
2.81400	22
2.81767	23
2.82133	23
2.82500	24
2.82867	24
2.83233	25
2.83600	25
2.83967	25
2.84333	24
2.84700	22
2.85067	19
2.85433	13
2.85800	5
2.86167	-6
2.86533	-22
2.86900	-42
2.87267	-66
2.87633	-94
2.88000	-127
2.88367	-165
2.88733	-206
2.89100	-250
2.89467	-298
2.89833	-348
2.90200	-401
2.90567	-455
2.90933	-510
2.91300	-566
2.91667	-621
2.92033	-677
2.92400	-731
2.92767	-784
2.93133	-835
2.93500	-887
2.93867	-944
2.94233	-1002
2.94600	-1054
2.94967	-1089
2.95333	-1100
2.95700	-1085
2.96067	-1047
2.96433	-990
2.96800	-920
2.97167	-843
2.97533	-762
2.97900	-683
2.98267	-606
2.98633	-534
2.99000	-467
2.99367	-406
2.99733	-352
3.00100	-303
3.00467	-260
3.00833	-222
3.01200	-189
3.01567	-160
3.01933	-135
3.02300	-114
3.02667	-95
3.03033	-80
3.03400	-66
3.03767	-55
3.04133	-45
3.04500	-36
3.04867	-29
3.05233	-23
3.05600	-18
3.05967	-14
3.06333	-10
3.06700	-7
3.07067	-4
3.07433	-1
3.07800	1
3.08167	3
3.08533	4
3.08900	6
3.09267	7
3.09633	7
3.10000	8
3.10367	9
3.10733	10
3.11100	11
3.11467	11
3.11833	12
3.12200	12
3.12567	13
3.12933	14
3.13300	14
3.13667	15
3.14033	15
3.14400	16
3.14767	16
3.15133	16
3.15500	17
3.15867	17
3.16233	17
3.16600	18
3.16967	18
3.17333	18
3.17700	18
3.18067	19
3.18433	19
3.18800	19
3.19167	19
3.19533	19
3.19900	19
3.20267	19
3.20633	19
3.21000	19
3.21367	19
3.21733	19
3.22100	20
3.22467	20
3.22833	20
3.23200	21
3.23567	21
3.23933	21
3.24300	21
3.24667	21
3.25033	22
3.25400	22
3.25767	22
3.26133	22
3.26500	22
3.26867	21
3.27233	21
3.27600	21
3.27967	21
3.28333	21
3.28700	21
3.29067	21
3.29433	21
3.29800	21
3.30167	21
3.30533	22
3.30900	22
3.31267	22
3.31633	22
3.32000	23
3.32367	23
3.32733	23
3.33100	23
3.33467	24
3.33833	24
3.34200	25
3.34567	25
3.34933	26
3.35300	26
3.35667	27
3.36033	27
3.36400	27
3.36767	28
3.37133	28
3.37500	28
3.37867	28
3.38233	28
3.38600	27
3.38967	27
3.39333	27
3.39700	27
3.40067	27
3.40433	27
3.40800	28
3.41167	28
3.41533	28
3.41900	28
3.42267	28
3.42633	28
3.43000	28
3.43367	28
3.43733	28
3.44100	28
3.44467	28
3.44833	28
3.45200	27
3.45567	27
3.45933	27
3.46300	27
3.46667	27
3.47033	27
3.47400	26
3.47767	26
3.48133	26
3.48500	26
3.48867	26
3.49233	26
3.49600	26
3.49967	26
3.50333	26
3.50700	26
3.51067	26
3.51433	26
3.51800	26
3.52167	26
3.52533	26
3.52900	25
3.53267	25
3.53633	25
3.54000	25
3.54367	25
3.54733	25
3.55100	25
3.55467	25
3.55833	24
3.56200	24
3.56567	24
3.56933	24
3.57300	24
3.57667	24
3.58033	24
3.58400	24
3.58767	24
3.59133	24
3.59500	24
3.59867	24
3.60233	25
3.60600	25
3.60967	25
3.61333	25
3.61700	25
3.62067	25
3.62433	25
3.62800	25
3.63167	24
3.63533	24
3.63900	24
3.64267	24
3.64633	24
3.65000	24
3.65367	24
3.65733	25
3.66100	25
3.66467	25
3.66833	25
3.67200	25
3.67567	26
3.67933	26
3.68300	26
3.68667	26
3.69033	26
3.69400	26
3.69767	26
3.70133	26
3.70500	26
3.70867	26
3.71233	26
3.71600	26
3.71967	26
3.72333	26
3.72700	26
3.73067	26
3.73433	25
3.73800	25
3.74167	25
3.74533	25
3.74900	24
3.75267	24
3.75633	24
3.76000	24
3.76367	24
3.76733	24
3.77100	24
3.77467	24
3.77833	25
3.78200	25
3.78567	25
3.78933	26
3.79300	26
3.79667	26
3.80033	26
3.80400	27
3.80767	27
3.81133	27
3.81500	26
3.81867	26
3.82233	26
3.82600	26
3.82967	26
3.83333	26
3.83700	26
3.84067	25
3.84433	25
3.84800	25
3.85167	25
3.85533	25
3.85900	25
3.86267	25
3.86633	25
3.87000	25
3.87367	25
3.87733	25
3.88100	25
3.88467	26
3.88833	26
3.89200	26
3.89567	26
3.89933	26
3.90300	26
3.90667	26
3.91033	25
3.91400	25
3.91767	25
3.92133	25
3.92500	25
3.92867	25
3.93233	25
3.93600	25
3.93967	25
3.94333	26
3.94700	26
3.95067	26
3.95433	26
3.95800	26
3.96167	26
3.96533	26
3.96900	26
3.97267	26
3.97633	26
3.98000	26
3.98367	26
3.98733	26
3.99100	26
3.99467	26
3.99833	26

[Chromatogram (Ch3)]
Interval(msec)	220
# of Points	1091
Start Time(min)	0.002
End Time(min)	3.998
R.Time (min)	Intensity
0.00167	1
0.00533	3
0.00900	4
0.01267	4
0.01633	6
0.02000	8
0.02367	9
0.02733	8
0.03100	5
0.03467	4
0.03833	4
0.04200	4
0.04567	8
0.04933	10
0.05300	11
0.05667	11
0.06033	13
0.06400	13
0.06767	11
0.07133	9
0.07500	8
0.07867	8
0.08233	9
0.08600	7
0.08967	7
0.09333	7
0.09700	7
0.10067	9
0.10433	8
0.10800	7
0.11167	6
0.11533	7
0.11900	7
0.12267	7
0.12633	5
0.13000	3
0.13367	2
0.13733	2
0.14100	4
0.14467	7
0.14833	8
0.15200	7
0.15567	6
0.15933	5
0.16300	5
0.16667	6
0.17033	6
0.17400	5
0.17767	4
0.18133	5
0.18500	4
0.18867	3
0.19233	3
0.19600	3
0.19967	2
0.20333	2
0.20700	3
0.21067	5
0.21433	5
0.21800	6
0.22167	7
0.22533	8
0.22900	7
0.23267	6
0.23633	5
0.24000	6
0.24367	7
0.24733	6
0.25100	9
0.25467	10
0.25833	10
0.26200	9
0.26567	9
0.26933	8
0.27300	9
0.27667	10
0.28033	12
0.28400	13
0.28767	12
0.29133	11
0.29500	12
0.29867	14
0.30233	14
0.30600	13
0.30967	13
0.31333	11
0.31700	10
0.32067	11
0.32433	10
0.32800	9
0.33167	9
0.33533	9
0.33900	8
0.34267	8
0.34633	8
0.35000	9
0.35367	12
0.35733	14
0.36100	14
0.36467	13
0.36833	15
0.37200	15
0.37567	15
0.37933	16
0.38300	17
0.38667	19
0.39033	19
0.39400	19
0.39767	19
0.40133	20
0.40500	21
0.40867	20
0.41233	21
0.41600	21
0.41967	22
0.42333	22
0.42700	18
0.43067	17
0.43433	16
0.43800	15
0.44167	15
0.44533	14
0.44900	13
0.45267	10
0.45633	9
0.46000	9
0.46367	9
0.46733	9
0.47100	9
0.47467	12
0.47833	15
0.48200	15
0.48567	14
0.48933	14
0.49300	13
0.49667	11
0.50033	10
0.50400	9
0.50767	8
0.51133	5
0.51500	6
0.51867	7
0.52233	7
0.52600	8
0.52967	7
0.53333	7
0.53700	6
0.54067	6
0.54433	7
0.54800	7
0.55167	6
0.55533	5
0.55900	7
0.56267	7
0.56633	6
0.57000	5
0.57367	3
0.57733	2
0.58100	2
0.58467	1
0.58833	0
0.59200	-3
0.59567	-6
0.59933	-6
0.60300	-5
0.60667	-3
0.61033	-2
0.61400	-3
0.61767	-3
0.62133	-3
0.62500	-3
0.62867	-4
0.63233	-4
0.63600	-4
0.63967	-2
0.64333	-1
0.64700	-1
0.65067	-1
0.65433	0
0.65800	1
0.66167	2
0.66533	3
0.66900	3
0.67267	2
0.67633	-0
0.68000	-1
0.68367	-2
0.68733	-2
0.69100	-1
0.69467	-1
0.69833	-2
0.70200	-3
0.70567	-1
0.70933	1
0.71300	2
0.71667	1
0.72033	2
0.72400	3
0.72767	2
0.73133	2
0.73500	2
0.73867	3
0.74233	2
0.74600	1
0.74967	1
0.75333	1
0.75700	3
0.76067	5
0.76433	4
0.76800	2
0.77167	2
0.77533	3
0.77900	5
0.78267	6
0.78633	6
0.79000	5
0.79367	5
0.79733	5
0.80100	6
0.80467	7
0.80833	8
0.81200	9
0.81567	9
0.81933	7
0.82300	6
0.82667	7
0.83033	7
0.83400	6
0.83767	6
0.84133	7
0.84500	6
0.84867	6
0.85233	7
0.85600	6
0.85967	7
0.86333	6
0.86700	4
0.87067	3
0.87433	4
0.87800	5
0.88167	5
0.88533	4
0.88900	7
0.89267	10
0.89633	9
0.90000	10
0.90367	9
0.90733	7
0.91100	5
0.91467	5
0.91833	7
0.92200	8
0.92567	7
0.92933	7
0.93300	6
0.93667	5
0.94033	4
0.94400	4
0.94767	3
0.95133	3
0.95500	6
0.95867	8
0.96233	5
0.96600	4
0.96967	4
0.97333	3
0.97700	0
0.98067	-2
0.98433	-1
0.98800	1
0.99167	4
0.99533	6
0.99900	5
1.00267	4
1.00633	4
1.01000	4
1.01367	5
1.01733	5
1.02100	4
1.02467	4
1.02833	5
1.03200	5
1.03567	7
1.03933	7
1.04300	7
1.04667	7
1.05033	6
1.05400	5
1.05767	3
1.06133	3
1.06500	3
1.06867	4
1.07233	4
1.07600	4
1.07967	3
1.08333	2
1.08700	1
1.09067	-2
1.09433	-3
1.09800	-5
1.10167	-6
1.10533	-5
1.10900	-4
1.11267	-1
1.11633	3
1.12000	5
1.12367	6
1.12733	4
1.13100	2
1.13467	1
1.13833	2
1.14200	1
1.14567	1
1.14933	2
1.15300	4
1.15667	3
1.16033	2
1.16400	2
1.16767	3
1.17133	3
1.17500	4
1.17867	3
1.18233	1
1.18600	0
1.18967	-0
1.19333	0
1.19700	1
1.20067	2
1.20433	1
1.20800	1
1.21167	1
1.21533	2
1.21900	3
1.22267	5
1.22633	5
1.23000	4
1.23367	3
1.23733	4
1.24100	6
1.24467	7
1.24833	6
1.25200	4
1.25567	3
1.25933	5
1.26300	7
1.26667	7
1.27033	5
1.27400	4
1.27767	6
1.28133	6
1.28500	6
1.28867	6
1.29233	7
1.29600	7
1.29967	8
1.30333	10
1.30700	10
1.31067	8
1.31433	6
1.31800	7
1.32167	7
1.32533	6
1.32900	7
1.33267	10
1.33633	12
1.34000	13
1.34367	12
1.34733	11
1.35100	13
1.35467	14
1.35833	14
1.36200	14
1.36567	14
1.36933	15
1.37300	15
1.37667	17
1.38033	17
1.38400	17
1.38767	16
1.39133	14
1.39500	10
1.39867	6
1.40233	6
1.40600	6
1.40967	7
1.41333	8
1.41700	10
1.42067	10
1.42433	9
1.42800	9
1.43167	10
1.43533	12
1.43900	11
1.44267	11
1.44633	10
1.45000	11
1.45367	12
1.45733	12
1.46100	10
1.46467	9
1.46833	10
1.47200	10
1.47567	11
1.47933	11
1.48300	11
1.48667	10
1.49033	9
1.49400	8
1.49767	7
1.50133	7
1.50500	9
1.50867	12
1.51233	13
1.51600	12
1.51967	12
1.52333	11
1.52700	10
1.53067	10
1.53433	10
1.53800	10
1.54167	10
1.54533	11
1.54900	10
1.55267	11
1.55633	12
1.56000	13
1.56367	15
1.56733	15
1.57100	16
1.57467	17
1.57833	17
1.58200	16
1.58567	15
1.58933	17
1.59300	20
1.59667	21
1.60033	20
1.60400	20
1.60767	20
1.61133	20
1.61500	21
1.61867	20
1.62233	19
1.62600	17
1.62967	17
1.63333	18
1.63700	19
1.64067	19
1.64433	21
1.64800	23
1.65167	22
1.65533	21
1.65900	22
1.66267	23
1.66633	24
1.67000	24
1.67367	23
1.67733	23
1.68100	21
1.68467	21
1.68833	22
1.69200	25
1.69567	26
1.69933	28
1.70300	30
1.70667	30
1.71033	31
1.71400	32
1.71767	33
1.72133	35
1.72500	36
1.72867	34
1.73233	33
1.73600	33
1.73967	32
1.74333	31
1.74700	31
1.75067	31
1.75433	32
1.75800	32
1.76167	32
1.76533	32
1.76900	32
1.77267	33
1.77633	34
1.78000	37
1.78367	37
1.78733	36
1.79100	35
1.79467	36
1.79833	36
1.80200	35
1.80567	36
1.80933	38
1.81300	40
1.81667	41
1.82033	41
1.82400	40
1.82767	40
1.83133	40
1.83500	37
1.83867	38
1.84233	41
1.84600	41
1.84967	41
1.85333	43
1.85700	45
1.86067	46
1.86433	48
1.86800	49
1.87167	49
1.87533	48
1.87900	48
1.88267	50
1.88633	51
1.89000	52
1.89367	52
1.89733	54
1.90100	55
1.90467	56
1.90833	56
1.91200	57
1.91567	56
1.91933	56
1.92300	57
1.92667	57
1.93033	58
1.93400	61
1.93767	64
1.94133	65
1.94500	65
1.94867	64
1.95233	65
1.95600	68
1.95967	69
1.96333	73
1.96700	77
1.97067	78
1.97433	78
1.97800	76
1.98167	76
1.98533	78
1.98900	77
1.99267	78
1.99633	80
2.00000	83
2.00367	82
2.00733	84
2.01100	88
2.01467	91
2.01833	91
2.02200	92
2.02567	93
2.02933	93
2.03300	94
2.03667	97
2.04033	100
2.04400	102
2.04767	103
2.05133	106
2.05500	108
2.05867	110
2.06233	112
2.06600	114
2.06967	115
2.07333	117
2.07700	118
2.08067	117
2.08433	117
2.08800	116
2.09167	117
2.09533	118
2.09900	119
2.10267	120
2.10633	120
2.11000	121
2.11367	123
2.11733	126
2.12100	130
2.12467	133
2.12833	134
2.13200	137
2.13567	139
2.13933	142
2.14300	143
2.14667	145
2.15033	146
2.15400	145
2.15767	145
2.16133	145
2.16500	145
2.16867	147
2.17233	149
2.17600	151
2.17967	153
2.18333	155
2.18700	157
2.19067	158
2.19433	158
2.19800	159
2.20167	161
2.20533	163
2.20900	164
2.21267	165
2.21633	167
2.22000	169
2.22367	170
2.22733	170
2.23100	171
2.23467	174
2.23833	176
2.24200	179
2.24567	182
2.24933	183
2.25300	185
2.25667	187
2.26033	186
2.26400	185
2.26767	186
2.27133	188
2.27500	190
2.27867	191
2.28233	191
2.28600	191
2.28967	193
2.29333	194
2.29700	194
2.30067	195
2.30433	196
2.30800	197
2.31167	199
2.31533	200
2.31900	201
2.32267	205
2.32633	206
2.33000	208
2.33367	210
2.33733	211
2.34100	213
2.34467	215
2.34833	218
2.35200	218
2.35567	219
2.35933	221
2.36300	222
2.36667	222
2.37033	223
2.37400	225
2.37767	225
2.38133	224
2.38500	224
2.38867	222
2.39233	220
2.39600	219
2.39967	223
2.40333	227
2.40700	230
2.41067	234
2.41433	237
2.41800	239
2.42167	241
2.42533	241
2.42900	241
2.43267	241
2.43633	242
2.44000	245
2.44367	300
2.44733	454
2.45100	623
2.45467	763
2.45833	844
2.46200	853
2.46567	821
2.46933	778
2.47300	744
2.47667	723
2.48033	706
2.48400	678
2.48767	637
2.49133	590
2.49500	542
2.49867	503
2.50233	475
2.50600	458
2.50967	452
2.51333	459
2.51700	476
2.52067	498
2.52433	521
2.52800	536
2.53167	537
2.53533	522
2.53900	492
2.54267	456
2.54633	420
2.55000	389
2.55367	362
2.55733	340
2.56100	325
2.56467	313
2.56833	303
2.57200	299
2.57567	301
2.57933	302
2.58300	303
2.58667	301
2.59033	301
2.59400	302
2.59767	301
2.60133	300
2.60500	296
2.60867	291
2.61233	283
2.61600	270
2.61967	257
2.62333	246
2.62700	233
2.63067	221
2.63433	209
2.63800	197
2.64167	185
2.64533	173
2.64900	163
2.65267	151
2.65633	139
2.66000	125
2.66367	114
2.66733	105
2.67100	97
2.67467	90
2.67833	84
2.68200	80
2.68567	77
2.68933	77
2.69300	78
2.69667	78
2.70033	79
2.70400	82
2.70767	87
2.71133	93
2.71500	97
2.71867	100
2.72233	105
2.72600	112
2.72967	118
2.73333	124
2.73700	129
2.74067	132
2.74433	134
2.74800	136
2.75167	140
2.75533	144
2.75900	148
2.76267	151
2.76633	154
2.77000	157
2.77367	161
2.77733	165
2.78100	167
2.78467	171
2.78833	176
2.79200	182
2.79567	186
2.79933	191
2.80300	197
2.80667	204
2.81033	211
2.81400	221
2.81767	229
2.82133	239
2.82500	257
2.82867	292
2.83233	357
2.83600	468
2.83967	650
2.84333	924
2.84700	1296
2.85067	1759
2.85433	2296
2.85800	2870
2.86167	3441
2.86533	3959
2.86900	4383
2.87267	4681
2.87633	4840
2.88000	4865
2.88367	4766
2.88733	4569
2.89100	4303
2.89467	3994
2.89833	3661
2.90200	3323
2.90567	2994
2.90933	2684
2.91300	2395
2.91667	2128
2.92033	1888
2.92400	1675
2.92767	1487
2.93133	1319
2.93500	1172
2.93867	1044
2.94233	932
2.94600	835
2.94967	749
2.95333	675
2.95700	612
2.96067	555
2.96433	505
2.96800	463
2.97167	428
2.97533	397
2.97900	371
2.98267	349
2.98633	330
2.99000	315
2.99367	302
2.99733	290
3.00100	279
3.00467	269
3.00833	260
3.01200	251
3.01567	244
3.01933	237
3.02300	230
3.02667	226
3.03033	223
3.03400	220
3.03767	219
3.04133	217
3.04500	214
3.04867	212
3.05233	212
3.05600	211
3.05967	211
3.06333	211
3.06700	210
3.07067	209
3.07433	209
3.07800	210
3.08167	213
3.08533	215
3.08900	216
3.09267	215
3.09633	215
3.10000	217
3.10367	216
3.10733	214
3.11100	213
3.11467	210
3.11833	192
3.12200	160
3.12567	137
3.12933	131
3.13300	140
3.13667	165
3.14033	202
3.14400	248
3.14767	300
3.15133	354
3.15500	403
3.15867	449
3.16233	492
3.16600	528
3.16967	559
3.17333	588
3.17700	612
3.18067	632
3.18433	651
3.18800	667
3.19167	680
3.19533	691
3.19900	702
3.20267	713
3.20633	721
3.21000	727
3.21367	734
3.21733	741
3.22100	750
3.22467	760
3.22833	767
3.23200	774
3.23567	781
3.23933	788
3.24300	795
3.24667	800
3.25033	805
3.25400	811
3.25767	818
3.26133	827
3.26500	836
3.26867	844
3.27233	852
3.27600	860
3.27967	867
3.28333	871
3.28700	877
3.29067	886
3.29433	892
3.29800	898
3.30167	903
3.30533	907
3.30900	910
3.31267	914
3.31633	919
3.32000	920
3.32367	920
3.32733	921
3.33100	921
3.33467	922
3.33833	922
3.34200	920
3.34567	919
3.34933	918
3.35300	918
3.35667	916
3.36033	913
3.36400	912
3.36767	911
3.37133	909
3.37500	908
3.37867	908
3.38233	904
3.38600	899
3.38967	897
3.39333	896
3.39700	895
3.40067	891
3.40433	888
3.40800	885
3.41167	881
3.41533	879
3.41900	876
3.42267	873
3.42633	872
3.43000	871
3.43367	871
3.43733	872
3.44100	871
3.44467	868
3.44833	866
3.45200	862
3.45567	859
3.45933	855
3.46300	852
3.46667	852
3.47033	854
3.47400	855
3.47767	854
3.48133	854
3.48500	852
3.48867	850
3.49233	847
3.49600	844
3.49967	841
3.50333	837
3.50700	835
3.51067	835
3.51433	835
3.51800	834
3.52167	834
3.52533	832
3.52900	829
3.53267	826
3.53633	827
3.54000	827
3.54367	828
3.54733	828
3.55100	829
3.55467	829
3.55833	830
3.56200	832
3.56567	831
3.56933	829
3.57300	826
3.57667	825
3.58033	824
3.58400	824
3.58767	826
3.59133	825
3.59500	822
3.59867	820
3.60233	818
3.60600	817
3.60967	817
3.61333	816
3.61700	814
3.62067	813
3.62433	812
3.62800	813
3.63167	814
3.63533	814
3.63900	817
3.64267	817
3.64633	815
3.65000	814
3.65367	812
3.65733	810
3.66100	808
3.66467	807
3.66833	804
3.67200	801
3.67567	798
3.67933	796
3.68300	794
3.68667	793
3.69033	790
3.69400	786
3.69767	781
3.70133	780
3.70500	779
3.70867	779
3.71233	778
3.71600	776
3.71967	773
3.72333	770
3.72700	767
3.73067	765
3.73433	763
3.73800	761
3.74167	761
3.74533	760
3.74900	759
3.75267	758
3.75633	758
3.76000	757
3.76367	756
3.76733	755
3.77100	755
3.77467	751
3.77833	746
3.78200	744
3.78567	742
3.78933	743
3.79300	741
3.79667	740
3.80033	737
3.80400	733
3.80767	731
3.81133	731
3.81500	729
3.81867	727
3.82233	725
3.82600	724
3.82967	721
3.83333	717
3.83700	717
3.84067	715
3.84433	712
3.84800	710
3.85167	707
3.85533	704
3.85900	703
3.86267	703
3.86633	701
3.87000	698
3.87367	696
3.87733	693
3.88100	690
3.88467	687
3.88833	686
3.89200	684
3.89567	681
3.89933	678
3.90300	676
3.90667	675
3.91033	673
3.91400	673
3.91767	672
3.92133	672
3.92500	669
3.92867	668
3.93233	667
3.93600	666
3.93967	664
3.94333	663
3.94700	664
3.95067	664
3.95433	663
3.95800	660
3.96167	659
3.96533	656
3.96900	651
3.97267	650
3.97633	649
3.98000	649
3.98367	649
3.98733	651
3.99100	651
3.99467	648
3.99833	645

[Status Trace (Column Oven Temperature)]
Interval(msec)	1000
# of Points	240
Start Time(min)	0.003
End Time(min)	3.986
Intensity Units	
Intensity Multiplier	1
R.Time (min)	Intensity
0.00287	35.04
0.01953	35.04
0.03620	35.03
0.05287	35.03
0.06953	35.03
0.08620	35.03
0.10287	35.02
0.11953	35.02
0.13620	35.02
0.15287	35.04
0.16953	35.03
0.18620	35.03
0.20287	35.03
0.21953	35.02
0.23620	35.02
0.25287	35.04
0.26953	35.04
0.28620	35.05
0.30287	35.06
0.31953	35.04
0.33620	35.03
0.35287	35.03
0.36953	35.03
0.38620	35.02
0.40287	35.02
0.41953	35.03
0.43620	35.01
0.45287	35.01
0.46953	35.01
0.48620	35.01
0.50287	35.01
0.51953	35.00
0.53620	35.00
0.55287	34.99
0.56953	34.99
0.58620	34.98
0.60287	34.98
0.61953	34.99
0.63620	34.99
0.65287	34.98
0.66953	34.99
0.68620	34.99
0.70287	35.00
0.71953	34.99
0.73620	34.99
0.75287	34.97
0.76953	34.97
0.78620	34.98
0.80287	34.99
0.81953	35.00
0.83620	35.00
0.85287	35.00
0.86953	35.00
0.88620	35.01
0.90287	35.01
0.91953	35.00
0.93620	34.99
0.95287	35.00
0.96953	35.02
0.98620	35.02
1.00287	35.02
1.01953	35.02
1.03620	35.01
1.05287	34.99
1.06953	34.98
1.08620	34.98
1.10287	34.98
1.11953	34.98
1.13620	34.99
1.15287	34.99
1.16953	34.99
1.18620	34.99
1.20287	34.99
1.21953	35.00
1.23620	35.01
1.25287	35.01
1.26953	35.02
1.28620	35.02
1.30287	35.01
1.31953	35.01
1.33620	35.01
1.35287	35.01
1.36953	35.01
1.38620	35.01
1.40287	35.00
1.41953	34.99
1.43620	34.99
1.45287	34.98
1.46953	34.99
1.48620	34.99
1.50287	35.00
1.51953	35.01
1.53620	35.02
1.55287	35.02
1.56953	35.02
1.58620	35.03
1.60287	35.06
1.61953	35.16
1.63620	35.32
1.65287	35.54
1.66953	35.83
1.68620	36.22
1.70287	36.60
1.71953	36.94
1.73620	37.27
1.75287	37.56
1.76953	37.88
1.78620	38.22
1.80287	38.56
1.81953	38.90
1.83620	39.23
1.85287	39.57
1.86953	39.88
1.88620	40.21
1.90287	40.54
1.91953	40.88
1.93620	41.22
1.95287	41.53
1.96953	41.85
1.98620	42.19
2.00287	42.51
2.01953	42.86
2.03620	43.16
2.05287	43.49
2.06953	43.82
2.08620	44.14
2.10287	44.46
2.11953	44.78
2.13620	45.11
2.15287	45.44
2.16953	45.76
2.18620	46.09
2.20287	46.42
2.21953	46.74
2.23620	47.09
2.25287	47.40
2.26953	47.72
2.28620	48.05
2.30287	48.38
2.31953	48.71
2.33620	49.07
2.35287	49.38
2.36953	49.56
2.38620	49.64
2.40287	49.62
2.41953	49.64
2.43620	49.64
2.45287	49.65
2.46953	49.67
2.48620	49.68
2.50287	49.69
2.51953	49.70
2.53620	49.72
2.55287	49.72
2.56953	49.75
2.58620	49.78
2.60287	49.79
2.61953	49.82
2.63620	49.83
2.65287	49.82
2.66953	49.83
2.68620	49.84
2.70287	49.84
2.71953	49.85
2.73620	49.86
2.75287	49.85
2.76953	49.86
2.78620	49.89
2.80287	49.91
2.81953	49.90
2.83620	49.89
2.85287	49.88
2.86953	49.89
2.88620	49.91
2.90287	49.91
2.91953	49.92
2.93620	49.94
2.95287	49.95
2.96953	49.96
2.98620	49.97
3.00287	49.98
3.01953	49.98
3.03620	49.99
3.05287	50.00
3.06953	50.01
3.08620	50.03
3.10287	50.03
3.11953	50.04
3.13620	50.05
3.15287	50.05
3.16953	50.06
3.18620	50.07
3.20287	50.07
3.21953	50.08
3.23620	50.08
3.25287	50.08
3.26953	50.09
3.28620	50.10
3.30287	50.10
3.31953	50.11
3.33620	50.09
3.35287	50.07
3.36953	50.06
3.38620	50.05
3.40287	50.04
3.41953	50.03
3.43620	50.03
3.45287	50.01
3.46953	50.02
3.48620	50.02
3.50287	50.03
3.51953	50.03
3.53620	50.04
3.55287	50.05
3.56953	50.06
3.58620	50.07
3.60287	50.06
3.61953	50.06
3.63620	50.08
3.65287	50.07
3.66953	50.06
3.68620	50.07
3.70287	50.06
3.71953	50.07
3.73620	50.07
3.75287	50.08
3.76953	50.08
3.78620	50.08
3.80287	50.07
3.81953	50.07
3.83620	50.08
3.85287	50.09
3.86953	50.09
3.88620	50.10
3.90287	50.10
3.91953	50.10
3.93620	50.09
3.95287	50.08
3.96953	50.07
3.98620	50.07

[Status Trace (Injection Unit Temperature)]
Interval(msec)	1000
# of Points	240
Start Time(min)	0.003
End Time(min)	3.986
Intensity Units	
Intensity Multiplier	1
R.Time (min)	Intensity
0.00287	99.98
0.01953	99.98
0.03620	99.98
0.05287	99.98
0.06953	99.98
0.08620	99.98
0.10287	99.98
0.11953	99.98
0.13620	99.98
0.15287	99.98
0.16953	99.98
0.18620	99.98
0.20287	99.98
0.21953	99.98
0.23620	99.98
0.25287	99.98
0.26953	99.98
0.28620	99.98
0.30287	99.98
0.31953	99.98
0.33620	99.98
0.35287	99.98
0.36953	99.98
0.38620	99.98
0.40287	99.98
0.41953	99.98
0.43620	99.97
0.45287	99.98
0.46953	99.98
0.48620	99.98
0.50287	99.98
0.51953	99.97
0.53620	99.97
0.55287	99.98
0.56953	99.98
0.58620	99.97
0.60287	99.97
0.61953	99.97
0.63620	99.97
0.65287	99.98
0.66953	99.98
0.68620	99.97
0.70287	99.98
0.71953	99.98
0.73620	99.98
0.75287	99.98
0.76953	99.98
0.78620	99.98
0.80287	99.98
0.81953	99.98
0.83620	99.98
0.85287	99.98
0.86953	99.98
0.88620	99.98
0.90287	99.98
0.91953	99.98
0.93620	99.98
0.95287	99.98
0.96953	99.98
0.98620	99.98
1.00287	99.98
1.01953	99.98
1.03620	99.98
1.05287	99.98
1.06953	99.98
1.08620	99.98
1.10287	99.98
1.11953	99.98
1.13620	99.98
1.15287	99.98
1.16953	99.98
1.18620	99.99
1.20287	99.99
1.21953	99.99
1.23620	99.99
1.25287	99.98
1.26953	99.99
1.28620	99.99
1.30287	99.99
1.31953	99.99
1.33620	99.99
1.35287	99.99
1.36953	99.99
1.38620	99.99
1.40287	99.99
1.41953	99.99
1.43620	99.99
1.45287	99.99
1.46953	99.99
1.48620	99.99
1.50287	99.99
1.51953	100.00
1.53620	99.99
1.55287	99.99
1.56953	100.00
1.58620	99.99
1.60287	99.99
1.61953	99.99
1.63620	99.99
1.65287	99.99
1.66953	99.99
1.68620	99.99
1.70287	99.99
1.71953	99.99
1.73620	99.99
1.75287	99.99
1.76953	99.99
1.78620	99.99
1.80287	99.98
1.81953	99.99
1.83620	99.99
1.85287	99.98
1.86953	99.98
1.88620	99.98
1.90287	99.97
1.91953	99.98
1.93620	99.98
1.95287	99.98
1.96953	99.98
1.98620	99.98
2.00287	99.98
2.01953	99.98
2.03620	99.97
2.05287	99.98
2.06953	99.98
2.08620	99.97
2.10287	99.97
2.11953	99.97
2.13620	99.97
2.15287	99.97
2.16953	99.96
2.18620	99.97
2.20287	99.97
2.21953	99.96
2.23620	99.97
2.25287	99.96
2.26953	99.97
2.28620	99.97
2.30287	99.97
2.31953	99.97
2.33620	99.97
2.35287	99.97
2.36953	99.96
2.38620	99.97
2.40287	99.97
2.41953	99.97
2.43620	99.97
2.45287	99.97
2.46953	99.97
2.48620	99.97
2.50287	99.97
2.51953	99.97
2.53620	99.97
2.55287	99.97
2.56953	99.97
2.58620	99.98
2.60287	99.98
2.61953	99.98
2.63620	99.98
2.65287	99.98
2.66953	99.98
2.68620	99.99
2.70287	99.99
2.71953	99.99
2.73620	99.99
2.75287	99.99
2.76953	99.99
2.78620	99.99
2.80287	100.00
2.81953	100.00
2.83620	100.00
2.85287	100.00
2.86953	100.00
2.88620	100.00
2.90287	100.00
2.91953	100.01
2.93620	100.01
2.95287	100.01
2.96953	100.01
2.98620	100.01
3.00287	100.01
3.01953	100.01
3.03620	100.02
3.05287	100.02
3.06953	100.02
3.08620	100.02
3.10287	100.02
3.11953	100.02
3.13620	100.02
3.15287	100.02
3.16953	100.03
3.18620	100.02
3.20287	100.02
3.21953	100.02
3.23620	100.03
3.25287	100.03
3.26953	100.03
3.28620	100.02
3.30287	100.02
3.31953	100.03
3.33620	100.03
3.35287	100.03
3.36953	100.03
3.38620	100.03
3.40287	100.03
3.41953	100.03
3.43620	100.03
3.45287	100.03
3.46953	100.03
3.48620	100.03
3.50287	100.03
3.51953	100.03
3.53620	100.03
3.55287	100.03
3.56953	100.04
3.58620	100.03
3.60287	100.04
3.61953	100.04
3.63620	100.03
3.65287	100.03
3.66953	100.04
3.68620	100.04
3.70287	100.04
3.71953	100.03
3.73620	100.04
3.75287	100.04
3.76953	100.04
3.78620	100.04
3.80287	100.04
3.81953	100.04
3.83620	100.04
3.85287	100.04
3.86953	100.04
3.88620	100.04
3.90287	100.04
3.91953	100.04
3.93620	100.04
3.95287	100.04
3.96953	100.05
3.98620	100.04

[Status Trace (Carrier Gas Pressure)]
Interval(msec)	1000
# of Points	240
Start Time(min)	0.003
End Time(min)	3.986
Intensity Units	
Intensity Multiplier	1
R.Time (min)	Intensity
0.00287	58.00
0.01953	56.25
0.03620	56.40
0.05287	58.68
0.06953	59.84
0.08620	58.25
0.10287	57.97
0.11953	58.01
0.13620	58.01
0.15287	58.01
0.16953	58.00
0.18620	58.00
0.20287	58.00
0.21953	58.00
0.23620	58.00
0.25287	58.00
0.26953	58.00
0.28620	58.00
0.30287	58.00
0.31953	58.00
0.33620	58.00
0.35287	58.00
0.36953	58.00
0.38620	58.00
0.40287	58.00
0.41953	58.00
0.43620	58.00
0.45287	58.00
0.46953	58.00
0.48620	58.00
0.50287	58.00
0.51953	58.00
0.53620	58.00
0.55287	58.00
0.56953	58.00
0.58620	58.00
0.60287	58.00
0.61953	58.00
0.63620	58.00
0.65287	58.00
0.66953	58.00
0.68620	58.00
0.70287	58.00
0.71953	58.00
0.73620	58.00
0.75287	58.00
0.76953	58.00
0.78620	58.00
0.80287	58.00
0.81953	58.00
0.83620	58.00
0.85287	58.00
0.86953	58.00
0.88620	58.00
0.90287	58.00
0.91953	58.00
0.93620	58.00
0.95287	58.00
0.96953	58.00
0.98620	58.00
1.00287	58.00
1.01953	58.00
1.03620	58.00
1.05287	58.00
1.06953	58.00
1.08620	58.00
1.10287	58.00
1.11953	58.00
1.13620	58.00
1.15287	58.00
1.16953	58.00
1.18620	58.00
1.20287	58.00
1.21953	58.00
1.23620	58.00
1.25287	58.00
1.26953	58.00
1.28620	58.00
1.30287	58.00
1.31953	58.00
1.33620	58.00
1.35287	58.00
1.36953	58.00
1.38620	58.00
1.40287	58.00
1.41953	58.00
1.43620	58.00
1.45287	58.00
1.46953	58.00
1.48620	58.00
1.50287	58.00
1.51953	58.00
1.53620	58.00
1.55287	58.00
1.56953	58.00
1.58620	58.00
1.60287	58.00
1.61953	58.00
1.63620	58.00
1.65287	58.00
1.66953	58.01
1.68620	58.01
1.70287	58.00
1.71953	58.00
1.73620	58.00
1.75287	58.00
1.76953	58.00
1.78620	58.00
1.80287	58.00
1.81953	58.00
1.83620	58.00
1.85287	58.00
1.86953	58.00
1.88620	58.00
1.90287	58.00
1.91953	58.00
1.93620	58.00
1.95287	58.00
1.96953	58.00
1.98620	58.00
2.00287	58.00
2.01953	58.00
2.03620	58.00
2.05287	58.00
2.06953	58.00
2.08620	58.00
2.10287	58.00
2.11953	58.00
2.13620	58.00
2.15287	58.00
2.16953	58.00
2.18620	58.00
2.20287	58.00
2.21953	58.00
2.23620	58.00
2.25287	58.00
2.26953	58.00
2.28620	58.00
2.30287	58.00
2.31953	58.00
2.33620	58.00
2.35287	58.00
2.36953	57.99
2.38620	57.99
2.40287	57.99
2.41953	58.00
2.43620	58.00
2.45287	58.00
2.46953	58.00
2.48620	58.00
2.50287	57.96
2.51953	58.02
2.53620	57.99
2.55287	58.00
2.56953	58.00
2.58620	58.00
2.60287	58.00
2.61953	58.00
2.63620	58.00
2.65287	58.00
2.66953	58.00
2.68620	58.00
2.70287	58.00
2.71953	58.00
2.73620	58.00
2.75287	58.00
2.76953	58.00
2.78620	58.00
2.80287	58.00
2.81953	58.00
2.83620	58.00
2.85287	58.00
2.86953	58.00
2.88620	58.00
2.90287	58.00
2.91953	58.00
2.93620	58.00
2.95287	58.00
2.96953	58.00
2.98620	58.00
3.00287	58.00
3.01953	58.00
3.03620	58.00
3.05287	58.00
3.06953	58.00
3.08620	58.00
3.10287	58.00
3.11953	58.00
3.13620	58.00
3.15287	58.00
3.16953	58.00
3.18620	58.00
3.20287	58.00
3.21953	58.00
3.23620	58.00
3.25287	58.00
3.26953	58.00
3.28620	58.00
3.30287	58.00
3.31953	58.00
3.33620	58.00
3.35287	58.00
3.36953	58.00
3.38620	58.00
3.40287	58.00
3.41953	58.00
3.43620	58.00
3.45287	58.00
3.46953	58.00
3.48620	58.00
3.50287	58.00
3.51953	58.00
3.53620	58.00
3.55287	58.00
3.56953	58.00
3.58620	58.00
3.60287	58.00
3.61953	58.00
3.63620	58.00
3.65287	58.00
3.66953	58.00
3.68620	58.00
3.70287	58.00
3.71953	58.00
3.73620	58.00
3.75287	58.00
3.76953	58.00
3.78620	58.00
3.80287	58.00
3.81953	58.00
3.83620	58.00
3.85287	58.00
3.86953	58.00
3.88620	58.00
3.90287	58.00
3.91953	58.00
3.93620	58.00
3.95287	58.00
3.96953	58.00
3.98620	58.00

[Status Trace (Carrier Gas Flow)]
Interval(msec)	1000
# of Points	240
Start Time(min)	0.003
End Time(min)	3.986
Intensity Units	
Intensity Multiplier	1
R.Time (min)	Intensity
0.00287	34.52
0.01953	34.58
0.03620	34.54
0.05287	34.55
0.06953	34.49
0.08620	34.51
0.10287	34.52
0.11953	34.52
0.13620	34.52
0.15287	34.52
0.16953	34.52
0.18620	34.52
0.20287	34.52
0.21953	34.51
0.23620	34.52
0.25287	34.51
0.26953	34.53
0.28620	34.52
0.30287	34.52
0.31953	34.51
0.33620	34.52
0.35287	34.52
0.36953	34.52
0.38620	34.52
0.40287	34.52
0.41953	34.52
0.43620	34.52
0.45287	34.52
0.46953	34.52
0.48620	34.52
0.50287	34.52
0.51953	34.52
0.53620	34.52
0.55287	34.52
0.56953	34.51
0.58620	34.53
0.60287	34.51
0.61953	34.52
0.63620	34.53
0.65287	34.52
0.66953	34.51
0.68620	34.51
0.70287	34.53
0.71953	34.52
0.73620	34.52
0.75287	34.52
0.76953	34.51
0.78620	34.52
0.80287	34.52
0.81953	34.52
0.83620	34.52
0.85287	34.52
0.86953	34.52
0.88620	34.52
0.90287	34.51
0.91953	34.52
0.93620	34.51
0.95287	34.51
0.96953	34.52
0.98620	34.52
1.00287	34.51
1.01953	34.52
1.03620	34.51
1.05287	34.52
1.06953	34.52
1.08620	34.52
1.10287	34.52
1.11953	34.52
1.13620	34.52
1.15287	34.52
1.16953	34.52
1.18620	34.52
1.20287	34.52
1.21953	34.52
1.23620	34.51
1.25287	34.52
1.26953	34.52
1.28620	34.52
1.30287	34.53
1.31953	34.52
1.33620	34.52
1.35287	34.51
1.36953	34.52
1.38620	34.52
1.40287	34.52
1.41953	34.52
1.43620	34.52
1.45287	34.52
1.46953	34.52
1.48620	34.52
1.50287	34.51
1.51953	34.51
1.53620	34.52
1.55287	34.53
1.56953	34.53
1.58620	34.51
1.60287	34.51
1.61953	34.52
1.63620	34.52
1.65287	34.52
1.66953	34.52
1.68620	34.52
1.70287	34.52
1.71953	34.52
1.73620	34.52
1.75287	34.52
1.76953	34.52
1.78620	34.52
1.80287	34.52
1.81953	34.52
1.83620	34.52
1.85287	34.52
1.86953	34.51
1.88620	34.52
1.90287	34.52
1.91953	34.52
1.93620	34.52
1.95287	34.52
1.96953	34.52
1.98620	34.52
2.00287	34.52
2.01953	34.52
2.03620	34.52
2.05287	34.51
2.06953	34.52
2.08620	34.52
2.10287	34.53
2.11953	34.52
2.13620	34.51
2.15287	34.51
2.16953	34.52
2.18620	34.51
2.20287	34.52
2.21953	34.52
2.23620	34.52
2.25287	34.52
2.26953	34.52
2.28620	34.52
2.30287	34.52
2.31953	34.52
2.33620	34.52
2.35287	34.52
2.36953	34.52
2.38620	34.51
2.40287	34.52
2.41953	34.52
2.43620	34.51
2.45287	34.52
2.46953	34.52
2.48620	34.52
2.50287	34.71
2.51953	34.52
2.53620	34.52
2.55287	34.52
2.56953	34.52
2.58620	34.52
2.60287	34.52
2.61953	34.52
2.63620	34.52
2.65287	34.52
2.66953	34.52
2.68620	34.52
2.70287	34.52
2.71953	34.52
2.73620	34.52
2.75287	34.52
2.76953	34.52
2.78620	34.52
2.80287	34.52
2.81953	34.52
2.83620	34.52
2.85287	34.51
2.86953	34.52
2.88620	34.52
2.90287	34.52
2.91953	34.51
2.93620	34.52
2.95287	34.52
2.96953	34.52
2.98620	34.52
3.00287	34.51
3.01953	34.52
3.03620	34.52
3.05287	34.52
3.06953	34.52
3.08620	34.51
3.10287	34.52
3.11953	34.52
3.13620	34.52
3.15287	34.51
3.16953	34.51
3.18620	34.52
3.20287	34.52
3.21953	34.52
3.23620	34.52
3.25287	34.51
3.26953	34.51
3.28620	34.52
3.30287	34.52
3.31953	34.52
3.33620	34.52
3.35287	34.52
3.36953	34.51
3.38620	34.52
3.40287	34.52
3.41953	34.52
3.43620	34.52
3.45287	34.52
3.46953	34.52
3.48620	34.52
3.50287	34.51
3.51953	34.52
3.53620	34.51
3.55287	34.52
3.56953	34.52
3.58620	34.51
3.60287	34.52
3.61953	34.51
3.63620	34.52
3.65287	34.52
3.66953	34.51
3.68620	34.53
3.70287	34.53
3.71953	34.52
3.73620	34.52
3.75287	34.52
3.76953	34.51
3.78620	34.52
3.80287	34.52
3.81953	34.52
3.83620	34.52
3.85287	34.52
3.86953	34.52
3.88620	34.52
3.90287	34.52
3.91953	34.52
3.93620	34.52
3.95287	34.52
3.96953	34.52
3.98620	34.52

[Status Trace (Column Flow)]
Interval(msec)	1000
# of Points	240
Start Time(min)	0.003
End Time(min)	3.986
Intensity Units	
Intensity Multiplier	1
R.Time (min)	Intensity
0.00287	5.55
0.01953	5.35
0.03620	5.37
0.05287	5.63
0.06953	5.77
0.08620	5.58
0.10287	5.55
0.11953	5.55
0.13620	5.55
0.15287	5.55
0.16953	5.55
0.18620	5.55
0.20287	5.55
0.21953	5.55
0.23620	5.55
0.25287	5.55
0.26953	5.55
0.28620	5.55
0.30287	5.55
0.31953	5.55
0.33620	5.55
0.35287	5.55
0.36953	5.55
0.38620	5.55
0.40287	5.55
0.41953	5.55
0.43620	5.55
0.45287	5.55
0.46953	5.55
0.48620	5.55
0.50287	5.55
0.51953	5.55
0.53620	5.55
0.55287	5.55
0.56953	5.55
0.58620	5.55
0.60287	5.55
0.61953	5.55
0.63620	5.55
0.65287	5.55
0.66953	5.55
0.68620	5.55
0.70287	5.55
0.71953	5.55
0.73620	5.55
0.75287	5.55
0.76953	5.55
0.78620	5.55
0.80287	5.55
0.81953	5.55
0.83620	5.55
0.85287	5.55
0.86953	5.55
0.88620	5.55
0.90287	5.55
0.91953	5.55
0.93620	5.55
0.95287	5.55
0.96953	5.55
0.98620	5.55
1.00287	5.55
1.01953	5.55
1.03620	5.55
1.05287	5.55
1.06953	5.55
1.08620	5.55
1.10287	5.55
1.11953	5.55
1.13620	5.55
1.15287	5.55
1.16953	5.55
1.18620	5.55
1.20287	5.55
1.21953	5.55
1.23620	5.55
1.25287	5.55
1.26953	5.55
1.28620	5.55
1.30287	5.55
1.31953	5.55
1.33620	5.55
1.35287	5.55
1.36953	5.55
1.38620	5.55
1.40287	5.55
1.41953	5.55
1.43620	5.55
1.45287	5.55
1.46953	5.55
1.48620	5.55
1.50287	5.55
1.51953	5.55
1.53620	5.55
1.55287	5.55
1.56953	5.55
1.58620	5.55
1.60287	5.55
1.61953	5.55
1.63620	5.54
1.65287	5.54
1.66953	5.53
1.68620	5.51
1.70287	5.50
1.71953	5.49
1.73620	5.48
1.75287	5.47
1.76953	5.46
1.78620	5.45
1.80287	5.44
1.81953	5.43
1.83620	5.42
1.85287	5.41
1.86953	5.40
1.88620	5.39
1.90287	5.38
1.91953	5.37
1.93620	5.36
1.95287	5.35
1.96953	5.34
1.98620	5.33
2.00287	5.32
2.01953	5.31
2.03620	5.30
2.05287	5.29
2.06953	5.28
2.08620	5.27
2.10287	5.26
2.11953	5.25
2.13620	5.25
2.15287	5.24
2.16953	5.23
2.18620	5.22
2.20287	5.21
2.21953	5.20
2.23620	5.19
2.25287	5.18
2.26953	5.17
2.28620	5.16
2.30287	5.15
2.31953	5.14
2.33620	5.13
2.35287	5.12
2.36953	5.12
2.38620	5.12
2.40287	5.12
2.41953	5.12
2.43620	5.12
2.45287	5.12
2.46953	5.12
2.48620	5.12
2.50287	5.11
2.51953	5.12
2.53620	5.11
2.55287	5.11
2.56953	5.11
2.58620	5.11
2.60287	5.11
2.61953	5.11
2.63620	5.11
2.65287	5.11
2.66953	5.11
2.68620	5.11
2.70287	5.11
2.71953	5.11
2.73620	5.11
2.75287	5.11
2.76953	5.11
2.78620	5.11
2.80287	5.11
2.81953	5.11
2.83620	5.11
2.85287	5.11
2.86953	5.11
2.88620	5.11
2.90287	5.11
2.91953	5.11
2.93620	5.11
2.95287	5.11
2.96953	5.11
2.98620	5.11
3.00287	5.11
3.01953	5.11
3.03620	5.11
3.05287	5.11
3.06953	5.11
3.08620	5.11
3.10287	5.11
3.11953	5.11
3.13620	5.11
3.15287	5.11
3.16953	5.10
3.18620	5.10
3.20287	5.10
3.21953	5.10
3.23620	5.10
3.25287	5.10
3.26953	5.10
3.28620	5.10
3.30287	5.10
3.31953	5.10
3.33620	5.10
3.35287	5.10
3.36953	5.10
3.38620	5.10
3.40287	5.11
3.41953	5.11
3.43620	5.11
3.45287	5.11
3.46953	5.11
3.48620	5.11
3.50287	5.11
3.51953	5.11
3.53620	5.11
3.55287	5.10
3.56953	5.10
3.58620	5.10
3.60287	5.10
3.61953	5.10
3.63620	5.10
3.65287	5.10
3.66953	5.10
3.68620	5.10
3.70287	5.10
3.71953	5.10
3.73620	5.10
3.75287	5.10
3.76953	5.10
3.78620	5.10
3.80287	5.10
3.81953	5.10
3.83620	5.10
3.85287	5.10
3.86953	5.10
3.88620	5.10
3.90287	5.10
3.91953	5.10
3.93620	5.10
3.95287	5.10
3.96953	5.10
3.98620	5.10

[Status Trace (Linear Velocity)]
Interval(msec)	1000
# of Points	240
Start Time(min)	0.003
End Time(min)	3.986
Intensity Units	
Intensity Multiplier	1
R.Time (min)	Intensity
0.00287	39.02
0.01953	37.87
0.03620	37.97
0.05287	39.47
0.06953	40.23
0.08620	39.19
0.10287	39.00
0.11953	39.03
0.13620	39.03
0.15287	39.02
0.16953	39.02
0.18620	39.02
0.20287	39.02
0.21953	39.02
0.23620	39.02
0.25287	39.02
0.26953	39.02
0.28620	39.02
0.30287	39.02
0.31953	39.02
0.33620	39.02
0.35287	39.02
0.36953	39.02
0.38620	39.02
0.40287	39.02
0.41953	39.02
0.43620	39.02
0.45287	39.02
0.46953	39.02
0.48620	39.02
0.50287	39.02
0.51953	39.02
0.53620	39.02
0.55287	39.02
0.56953	39.02
0.58620	39.03
0.60287	39.03
0.61953	39.03
0.63620	39.03
0.65287	39.02
0.66953	39.03
0.68620	39.02
0.70287	39.02
0.71953	39.02
0.73620	39.03
0.75287	39.03
0.76953	39.03
0.78620	39.03
0.80287	39.02
0.81953	39.02
0.83620	39.02
0.85287	39.02
0.86953	39.02
0.88620	39.02
0.90287	39.02
0.91953	39.02
0.93620	39.02
0.95287	39.02
0.96953	39.02
0.98620	39.02
1.00287	39.02
1.01953	39.02
1.03620	39.02
1.05287	39.02
1.06953	39.03
1.08620	39.03
1.10287	39.03
1.11953	39.03
1.13620	39.02
1.15287	39.02
1.16953	39.03
1.18620	39.03
1.20287	39.03
1.21953	39.02
1.23620	39.02
1.25287	39.02
1.26953	39.02
1.28620	39.02
1.30287	39.02
1.31953	39.02
1.33620	39.02
1.35287	39.02
1.36953	39.02
1.38620	39.02
1.40287	39.02
1.41953	39.02
1.43620	39.03
1.45287	39.03
1.46953	39.03
1.48620	39.02
1.50287	39.02
1.51953	39.02
1.53620	39.02
1.55287	39.02
1.56953	39.02
1.58620	39.02
1.60287	39.02
1.61953	39.01
1.63620	39.00
1.65287	38.98
1.66953	38.95
1.68620	38.91
1.70287	38.87
1.71953	38.84
1.73620	38.81
1.75287	38.78
1.76953	38.75
1.78620	38.72
1.80287	38.68
1.81953	38.65
1.83620	38.62
1.85287	38.59
1.86953	38.56
1.88620	38.53
1.90287	38.50
1.91953	38.47
1.93620	38.43
1.95287	38.41
1.96953	38.38
1.98620	38.35
2.00287	38.31
2.01953	38.28
2.03620	38.25
2.05287	38.23
2.06953	38.20
2.08620	38.17
2.10287	38.14
2.11953	38.11
2.13620	38.08
2.15287	38.05
2.16953	38.02
2.18620	37.99
2.20287	37.96
2.21953	37.93
2.23620	37.90
2.25287	37.87
2.26953	37.84
2.28620	37.81
2.30287	37.78
2.31953	37.75
2.33620	37.72
2.35287	37.69
2.36953	37.67
2.38620	37.67
2.40287	37.67
2.41953	37.67
2.43620	37.67
2.45287	37.67
2.46953	37.67
2.48620	37.67
2.50287	37.64
2.51953	37.68
2.53620	37.66
2.55287	37.67
2.56953	37.66
2.58620	37.66
2.60287	37.66
2.61953	37.66
2.63620	37.65
2.65287	37.65
2.66953	37.65
2.68620	37.65
2.70287	37.65
2.71953	37.65
2.73620	37.65
2.75287	37.65
2.76953	37.65
2.78620	37.65
2.80287	37.65
2.81953	37.65
2.83620	37.65
2.85287	37.65
2.86953	37.65
2.88620	37.65
2.90287	37.65
2.91953	37.65
2.93620	37.64
2.95287	37.64
2.96953	37.64
2.98620	37.64
3.00287	37.64
3.01953	37.64
3.03620	37.64
3.05287	37.64
3.06953	37.64
3.08620	37.64
3.10287	37.64
3.11953	37.64
3.13620	37.64
3.15287	37.63
3.16953	37.63
3.18620	37.63
3.20287	37.63
3.21953	37.63
3.23620	37.63
3.25287	37.63
3.26953	37.63
3.28620	37.63
3.30287	37.63
3.31953	37.63
3.33620	37.63
3.35287	37.63
3.36953	37.63
3.38620	37.64
3.40287	37.64
3.41953	37.64
3.43620	37.64
3.45287	37.64
3.46953	37.64
3.48620	37.64
3.50287	37.64
3.51953	37.64
3.53620	37.64
3.55287	37.64
3.56953	37.63
3.58620	37.63
3.60287	37.63
3.61953	37.63
3.63620	37.63
3.65287	37.63
3.66953	37.63
3.68620	37.63
3.70287	37.63
3.71953	37.63
3.73620	37.63
3.75287	37.63
3.76953	37.63
3.78620	37.63
3.80287	37.63
3.81953	37.63
3.83620	37.63
3.85287	37.63
3.86953	37.63
3.88620	37.63
3.90287	37.63
3.91953	37.63
3.93620	37.63
3.95287	37.63
3.96953	37.63
3.98620	37.63

