[Header]
Application Name	LabSolutions
Version	5.110
Data File Name	C:\Users\User\Desktop\GC Analyses\Jack\Nachusa Grasslands Sampling\T4 Timepoint July 12th\T4_07122022_081.gcd
Output Date	3/17/2023
Output Time	12:04:56 PM

[File Information]
Type	Data File
Generated	3/15/2023 12:28:50 AM
Generated by	System Administrator
Modified	3/15/2023 12:35:39 AM
Modified by	System Administrator

[Sample Information]
Operator Name	System Administrator
Acquired	3/15/2023 12:31:39 AM
Sample Type	0:Unknown
Level	0
Sample Name	081
Sample ID	081
ISTD Amount1	1
ISTD Amount2	1
ISTD Amount3	1
ISTD Amount4	1
ISTD Amount5	1
ISTD Amount6	1
ISTD Amount7	1
ISTD Amount8	1
ISTD Amount9	1
ISTD Amount10	1
ISTD Amount11	1
ISTD Amount12	1
ISTD Amount13	1
ISTD Amount14	1
ISTD Amount15	1
ISTD Amount16	1
ISTD Amount17	1
ISTD Amount18	1
ISTD Amount19	1
ISTD Amount20	1
ISTD Amount21	1
ISTD Amount22	1
ISTD Amount23	1
ISTD Amount24	1
ISTD Amount25	1
ISTD Amount26	1
ISTD Amount27	1
ISTD Amount28	1
ISTD Amount29	1
ISTD Amount30	1
ISTD Amount31	1
ISTD Amount32	1
Sample Amount	1
Dilution Factor	1
Vial#	80
Injection Volume	1
Injection Count	1
Bar Code	

[Original Files]
Data File	C:\Users\User\Desktop\GC Analyses\Jack\Nachusa Grasslands Sampling\T4 Timepoint July 12th\T4_07122022_081.gcd
Method File	C:\LabSolutions\Data\GHG_4min_2022\ghg3_togas_w_acet_4 min_new_int.gcm
Batch File	C:\LabSolutions\Data\AutoSamplerTesting\T4_07122022.gcb
Report Format File	c:\LabSolutions\System\DEFAULT.lsr

[File Description]


[Configuration]
Instrument Name	C0B7VH3-Instrument1
Instrument #	1
Line #	1
# of Detectors	3
Detector ID	DET#1	DET#2	DET#3
Detector Name	FID	PTCD	ECD
# of Channels	1	1	1

[Peak Table(Ch1)]
# of Peaks	3
Peak#	R.Time	I.Time	F.Time	Area	Height	A/H	Conc.	Mark	ID#	Name	k'	Plate #	Plate Ht.	Tailing	Resolution	Sep.Factor	Area Ratio	Height Ratio	Conc. %	Norm Conc.
1	1.476	1.439	1.542	57259	28260	2.026	404.252	   	1	CO	0.000	9759	15.370	1.320	0.000	0.000	0	0	31.138	31.138
2	1.571	1.542	1.622	4021	2027	1.984	77.741	 V 	2	CH4	0.065	11930	12.574	0.000	1.626	0.000	0	0	5.988	5.988
3	1.996	1.949	2.436	3252470	1560043	2.085	816.282	   	3	CO2	0.353	17306	8.667	1.319	7.195	5.462	0	0	62.874	62.874

[Peak Table(Ch2)]
# of Peaks	0

[Peak Table(Ch3)]
# of Peaks	5
Peak#	R.Time	I.Time	F.Time	Area	Height	A/H	Conc.	Mark	ID#	Name	k'	Plate #	Plate Ht.	Tailing	Resolution	Sep.Factor	Area Ratio	Height Ratio	Conc. %	Norm Conc.
1	2.462	2.440	2.510	1497	653	2.294	0.000	   			0.000	18174	8.253	0.000	0.000	0.000	0	0	0.000	0.000
2	2.528	2.510	2.561	411	214	1.919	0.000	 V 			0.027	21634	6.934	0.000	0.931	0.000	0	0	0.000	0.000
3	2.623	2.576	2.664	175	55	3.157	0.000	   			0.066	16003	9.373	0.932	1.257	2.444	0	0	0.000	0.000
4	2.880	2.708	3.023	19550	4851	4.030	0.499	   	1	N2O	0.170	12772	11.744	1.578	2.777	2.591	0	0	100.000	100.000
5	3.269	3.023	3.995	22967	693	33.128	0.000	   	2	SF6	0.328	221	679.792	1.938	0.791	1.930	0	0	0.000	0.000

[Compound Results(Ch1)]
# of IDs	6
ID#	Name	R.Time	Area	Height	Conc.	Curve	3rd	2nd	1st	Constant	Area Ratio	Height Ratio	Conc. %	Norm Conc.
1	CO	1.476	57259	28260	404.252	Linear	0.000000e+00	0.000000e+00	1.416423e+002	0.000000e+00	0	0	31.138	31.138
2	CH4	1.571	4021	2027	77.741	Linear	0.000000e+00	0.000000e+00	5.171738e+001	0.000000e+00	0	0	5.988	5.988
3	CO2	1.996	3252470	1560043	816.282	Linear	0.000000e+00	0.000000e+00	3.984494e+003	0.000000e+00	0	0	62.874	62.874
4	Ethylene	0.000	0	0	0.000	Linear	0.000000e+00	0.000000e+00	0.000000e+00	0.000000e+00	0	0	0.000	0.000
5	Acetylene	0.000	0	0	0.000	Linear	0.000000e+00	0.000000e+00	0.000000e+00	0.000000e+00	0	0	0.000	0.000
6	Ethane	0.000	0	0	0.000	Linear	0.000000e+00	0.000000e+00	0.000000e+00	0.000000e+00	0	0	0.000	0.000

[Compound Results(Ch2)]
# of IDs	5
ID#	Name	R.Time	Area	Height	Conc.	Curve	3rd	2nd	1st	Constant	Area Ratio	Height Ratio	Conc. %	Norm Conc.
1	Hydrogen	0.000	0	0	0.000	Linear	0.000000e+00	0.000000e+00	0.000000e+00	0.000000e+00	0	0	0.000	0.000
2	Oxygen	0.000	0	0	0.000	Linear	0.000000e+00	0.000000e+00	0.000000e+00	0.000000e+00	0	0	0.000	0.000
3	Nitrogen	0.000	0	0	0.000	Linear	0.000000e+00	0.000000e+00	0.000000e+00	0.000000e+00	0	0	0.000	0.000
4	Methane	0.000	0	0	0.000	Linear	0.000000e+00	0.000000e+00	0.000000e+00	0.000000e+00	0	0	0.000	0.000
5	Carbon Monoxide	0.000	0	0	0.000	Linear	0.000000e+00	0.000000e+00	0.000000e+00	0.000000e+00	0	0	0.000	0.000

[Compound Results(Ch3)]
# of IDs	2
ID#	Name	R.Time	Area	Height	Conc.	Curve	3rd	2nd	1st	Constant	Area Ratio	Height Ratio	Conc. %	Norm Conc.
1	N2O	2.880	19550	4851	0.499	Linear	0.000000e+00	0.000000e+00	3.915173e+004	0.000000e+00	0	0	100.000	100.000
2	SF6	3.269	22967	693	0.000	Linear	0.000000e+00	0.000000e+00	0.000000e+00	0.000000e+00	0	0	0.000	0.000

[Group Results(Ch1)]
# of Groups	0

[Group Results(Ch2)]
# of Groups	0

[Group Results(Ch3)]
# of Groups	0

[Chromatogram (Ch1)]
Interval(msec)	220
# of Points	1091
Start Time(min)	0.002
End Time(min)	3.998
R.Time (min)	Intensity
0.00167	2
0.00533	7
0.00900	7
0.01267	-1
0.01633	-10
0.02000	-18
0.02367	-22
0.02733	-19
0.03100	-9
0.03467	2
0.03833	13
0.04200	21
0.04567	24
0.04933	31
0.05300	39
0.05667	43
0.06033	45
0.06400	51
0.06767	52
0.07133	56
0.07500	58
0.07867	61
0.08233	62
0.08600	68
0.08967	80
0.09333	87
0.09700	90
0.10067	90
0.10433	86
0.10800	76
0.11167	69
0.11533	71
0.11900	75
0.12267	82
0.12633	91
0.13000	106
0.13367	107
0.13733	102
0.14100	94
0.14467	89
0.14833	91
0.15200	92
0.15567	92
0.15933	89
0.16300	88
0.16667	83
0.17033	76
0.17400	75
0.17767	75
0.18133	76
0.18500	83
0.18867	89
0.19233	89
0.19600	85
0.19967	73
0.20333	60
0.20700	47
0.21067	33
0.21433	26
0.21800	29
0.22167	37
0.22533	46
0.22900	49
0.23267	42
0.23633	30
0.24000	12
0.24367	-4
0.24733	-13
0.25100	-15
0.25467	-16
0.25833	-20
0.26200	-17
0.26567	-8
0.26933	3
0.27300	10
0.27667	14
0.28033	15
0.28400	14
0.28767	14
0.29133	16
0.29500	17
0.29867	14
0.30233	12
0.30600	12
0.30967	9
0.31333	5
0.31700	-1
0.32067	-4
0.32433	-4
0.32800	-2
0.33167	0
0.33533	4
0.33900	13
0.34267	21
0.34633	15
0.35000	6
0.35367	2
0.35733	5
0.36100	9
0.36467	17
0.36833	24
0.37200	23
0.37567	16
0.37933	10
0.38300	3
0.38667	-4
0.39033	-11
0.39400	-10
0.39767	-4
0.40133	-0
0.40500	-2
0.40867	5
0.41233	11
0.41600	14
0.41967	12
0.42333	13
0.42700	10
0.43067	11
0.43433	18
0.43800	17
0.44167	12
0.44533	9
0.44900	8
0.45267	8
0.45633	7
0.46000	7
0.46367	2
0.46733	-1
0.47100	7
0.47467	8
0.47833	5
0.48200	5
0.48567	6
0.48933	7
0.49300	9
0.49667	9
0.50033	14
0.50400	24
0.50767	28
0.51133	28
0.51500	22
0.51867	15
0.52233	9
0.52600	7
0.52967	5
0.53333	5
0.53700	6
0.54067	8
0.54433	12
0.54800	14
0.55167	16
0.55533	18
0.55900	17
0.56267	12
0.56633	5
0.57000	-5
0.57367	-8
0.57733	-7
0.58100	-6
0.58467	-1
0.58833	-1
0.59200	-4
0.59567	-7
0.59933	-6
0.60300	-4
0.60667	-3
0.61033	-2
0.61400	0
0.61767	5
0.62133	11
0.62500	19
0.62867	30
0.63233	41
0.63600	51
0.63967	52
0.64333	45
0.64700	36
0.65067	30
0.65433	31
0.65800	33
0.66167	34
0.66533	39
0.66900	50
0.67267	59
0.67633	61
0.68000	56
0.68367	50
0.68733	45
0.69100	45
0.69467	43
0.69833	41
0.70200	38
0.70567	35
0.70933	30
0.71300	26
0.71667	27
0.72033	32
0.72400	38
0.72767	46
0.73133	53
0.73500	60
0.73867	66
0.74233	68
0.74600	62
0.74967	55
0.75333	43
0.75700	27
0.76067	18
0.76433	13
0.76800	7
0.77167	0
0.77533	-1
0.77900	2
0.78267	8
0.78633	12
0.79000	16
0.79367	22
0.79733	28
0.80100	33
0.80467	36
0.80833	40
0.81200	42
0.81567	45
0.81933	47
0.82300	45
0.82667	46
0.83033	49
0.83400	38
0.83767	24
0.84133	23
0.84500	32
0.84867	42
0.85233	49
0.85600	49
0.85967	44
0.86333	42
0.86700	42
0.87067	39
0.87433	36
0.87800	35
0.88167	32
0.88533	25
0.88900	19
0.89267	17
0.89633	17
0.90000	21
0.90367	24
0.90733	27
0.91100	29
0.91467	31
0.91833	35
0.92200	37
0.92567	33
0.92933	33
0.93300	36
0.93667	37
0.94033	36
0.94400	33
0.94767	32
0.95133	36
0.95500	36
0.95867	30
0.96233	23
0.96600	18
0.96967	14
0.97333	12
0.97700	14
0.98067	20
0.98433	27
0.98800	34
0.99167	37
0.99533	35
0.99900	30
1.00267	24
1.00633	15
1.01000	6
1.01367	-1
1.01733	-8
1.02100	-12
1.02467	-11
1.02833	-7
1.03200	1
1.03567	10
1.03933	15
1.04300	19
1.04667	20
1.05033	21
1.05400	21
1.05767	14
1.06133	7
1.06500	5
1.06867	2
1.07233	-2
1.07600	-1
1.07967	2
1.08333	2
1.08700	-10
1.09067	-17
1.09433	-19
1.09800	-16
1.10167	-6
1.10533	3
1.10900	7
1.11267	11
1.11633	10
1.12000	7
1.12367	3
1.12733	-1
1.13100	-5
1.13467	-6
1.13833	-2
1.14200	2
1.14567	1
1.14933	-1
1.15300	-1
1.15667	2
1.16033	8
1.16400	14
1.16767	15
1.17133	13
1.17500	11
1.17867	7
1.18233	-2
1.18600	-11
1.18967	-20
1.19333	-25
1.19700	-25
1.20067	-22
1.20433	-18
1.20800	-10
1.21167	0
1.21533	6
1.21900	4
1.22267	-0
1.22633	-0
1.23000	1
1.23367	-1
1.23733	-10
1.24100	-19
1.24467	-21
1.24833	-18
1.25200	-14
1.25567	-11
1.25933	-8
1.26300	1
1.26667	10
1.27033	11
1.27400	8
1.27767	0
1.28133	-8
1.28500	-19
1.28867	-28
1.29233	-31
1.29600	-32
1.29967	-30
1.30333	-29
1.30700	-27
1.31067	-21
1.31433	-18
1.31800	-18
1.32167	-19
1.32533	-23
1.32900	-26
1.33267	-27
1.33633	-33
1.34000	-38
1.34367	-38
1.34733	-34
1.35100	-28
1.35467	-12
1.35833	5
1.36200	18
1.36567	25
1.36933	21
1.37300	10
1.37667	-8
1.38033	-27
1.38400	-42
1.38767	-52
1.39133	-58
1.39500	-57
1.39867	-56
1.40233	-55
1.40600	-47
1.40967	-39
1.41333	-36
1.41700	-33
1.42067	-30
1.42433	-30
1.42800	-35
1.43167	-38
1.43533	-36
1.43900	-24
1.44267	20
1.44633	204
1.45000	953
1.45367	3232
1.45733	7574
1.46100	13187
1.46467	18762
1.46833	23388
1.47200	26636
1.47567	28229
1.47933	27912
1.48300	25666
1.48667	21946
1.49033	17558
1.49400	13295
1.49767	9652
1.50133	6805
1.50500	4704
1.50867	3208
1.51233	2168
1.51600	1458
1.51967	977
1.52333	655
1.52700	441
1.53067	300
1.53433	204
1.53800	139
1.54167	131
1.54533	236
1.54900	483
1.55267	840
1.55633	1229
1.56000	1570
1.56367	1822
1.56733	1966
1.57100	1978
1.57467	1842
1.57833	1573
1.58200	1236
1.58567	897
1.58933	608
1.59300	391
1.59667	242
1.60033	149
1.60400	89
1.60767	41
1.61133	4
1.61500	-25
1.61867	-44
1.62233	-58
1.62600	-64
1.62967	-63
1.63333	-63
1.63700	-64
1.64067	-68
1.64433	-71
1.64800	-74
1.65167	-74
1.65533	-70
1.65900	-65
1.66267	-59
1.66633	-53
1.67000	-50
1.67367	-57
1.67733	-69
1.68100	-68
1.68467	-63
1.68833	-64
1.69200	-72
1.69567	-78
1.69933	-76
1.70300	-73
1.70667	-72
1.71033	-68
1.71400	-63
1.71767	-54
1.72133	-51
1.72500	-55
1.72867	-61
1.73233	-61
1.73600	-57
1.73967	-56
1.74333	-55
1.74700	-54
1.75067	-57
1.75433	-63
1.75800	-66
1.76167	-67
1.76533	-66
1.76900	-62
1.77267	-57
1.77633	-49
1.78000	-39
1.78367	-33
1.78733	-29
1.79100	-26
1.79467	-25
1.79833	-29
1.80200	-31
1.80567	-33
1.80933	-36
1.81300	-40
1.81667	-45
1.82033	-49
1.82400	-54
1.82767	-57
1.83133	-61
1.83500	-64
1.83867	-69
1.84233	-69
1.84600	-67
1.84967	-65
1.85333	-60
1.85700	-60
1.86067	-60
1.86433	-54
1.86800	-48
1.87167	-45
1.87533	-45
1.87900	-47
1.88267	-48
1.88633	-48
1.89000	-50
1.89367	-43
1.89733	-39
1.90100	-41
1.90467	-42
1.90833	-41
1.91200	-37
1.91567	-31
1.91933	-27
1.92300	-28
1.92667	-35
1.93033	-34
1.93400	-29
1.93767	-23
1.94133	-18
1.94500	-10
1.94867	-6
1.95233	11
1.95600	161
1.95967	1199
1.96333	6456
1.96700	26388
1.97067	83868
1.97433	210329
1.97800	424368
1.98167	708798
1.98533	1013810
1.98900	1283065
1.99267	1473387
1.99633	1560068
2.00000	1536554
2.00367	1414406
2.00733	1221573
2.01100	995076
2.01467	770006
2.01833	571182
2.02200	410299
2.02567	288341
2.02933	200136
2.03300	138396
2.03667	96090
2.04033	67449
2.04400	48153
2.04767	35131
2.05133	26277
2.05500	20182
2.05867	15921
2.06233	12882
2.06600	10665
2.06967	9013
2.07333	7745
2.07700	6744
2.08067	5954
2.08433	5317
2.08800	4788
2.09167	4345
2.09533	3967
2.09900	3649
2.10267	3382
2.10633	3148
2.11000	2936
2.11367	2741
2.11733	2568
2.12100	2418
2.12467	2280
2.12833	2154
2.13200	2036
2.13567	1928
2.13933	1838
2.14300	1754
2.14667	1674
2.15033	1600
2.15400	1529
2.15767	1462
2.16133	1398
2.16500	1338
2.16867	1283
2.17233	1232
2.17600	1187
2.17967	1143
2.18333	1104
2.18700	1067
2.19067	1031
2.19433	995
2.19800	964
2.20167	935
2.20533	910
2.20900	886
2.21267	865
2.21633	845
2.22000	828
2.22367	815
2.22733	798
2.23100	771
2.23467	748
2.23833	726
2.24200	705
2.24567	680
2.24933	654
2.25300	626
2.25667	606
2.26033	596
2.26400	596
2.26767	600
2.27133	598
2.27500	590
2.27867	573
2.28233	555
2.28600	541
2.28967	528
2.29333	520
2.29700	517
2.30067	516
2.30433	512
2.30800	500
2.31167	483
2.31533	471
2.31900	465
2.32267	454
2.32633	441
2.33000	428
2.33367	417
2.33733	413
2.34100	409
2.34467	407
2.34833	406
2.35200	410
2.35567	410
2.35933	408
2.36300	402
2.36667	395
2.37033	389
2.37400	381
2.37767	376
2.38133	375
2.38500	372
2.38867	365
2.39233	356
2.39600	344
2.39967	333
2.40333	326
2.40700	325
2.41067	330
2.41433	340
2.41800	348
2.42167	349
2.42533	341
2.42900	331
2.43267	316
2.43633	303
2.44000	294
2.44367	289
2.44733	286
2.45100	283
2.45467	279
2.45833	275
2.46200	273
2.46567	273
2.46933	282
2.47300	294
2.47667	306
2.48033	309
2.48400	304
2.48767	298
2.49133	292
2.49500	282
2.49867	266
2.50233	252
2.50600	239
2.50967	228
2.51333	225
2.51700	230
2.52067	242
2.52433	251
2.52800	251
2.53167	251
2.53533	254
2.53900	257
2.54267	256
2.54633	259
2.55000	257
2.55367	248
2.55733	241
2.56100	241
2.56467	247
2.56833	244
2.57200	240
2.57567	227
2.57933	220
2.58300	217
2.58667	207
2.59033	193
2.59400	182
2.59767	181
2.60133	186
2.60500	192
2.60867	197
2.61233	204
2.61600	214
2.61967	218
2.62333	219
2.62700	217
2.63067	211
2.63433	205
2.63800	197
2.64167	192
2.64533	183
2.64900	173
2.65267	168
2.65633	165
2.66000	165
2.66367	169
2.66733	168
2.67100	172
2.67467	177
2.67833	185
2.68200	190
2.68567	188
2.68933	178
2.69300	174
2.69667	168
2.70033	170
2.70400	179
2.70767	185
2.71133	187
2.71500	183
2.71867	175
2.72233	165
2.72600	159
2.72967	159
2.73333	163
2.73700	167
2.74067	168
2.74433	163
2.74800	156
2.75167	152
2.75533	154
2.75900	156
2.76267	161
2.76633	170
2.77000	173
2.77367	176
2.77733	176
2.78100	177
2.78467	173
2.78833	167
2.79200	158
2.79567	146
2.79933	132
2.80300	119
2.80667	117
2.81033	128
2.81400	141
2.81767	151
2.82133	148
2.82500	142
2.82867	146
2.83233	150
2.83600	153
2.83967	153
2.84333	154
2.84700	153
2.85067	151
2.85433	148
2.85800	147
2.86167	145
2.86533	147
2.86900	157
2.87267	165
2.87633	166
2.88000	158
2.88367	145
2.88733	136
2.89100	130
2.89467	126
2.89833	129
2.90200	134
2.90567	136
2.90933	133
2.91300	130
2.91667	130
2.92033	131
2.92400	132
2.92767	133
2.93133	134
2.93500	132
2.93867	129
2.94233	123
2.94600	117
2.94967	112
2.95333	116
2.95700	120
2.96067	126
2.96433	136
2.96800	140
2.97167	141
2.97533	136
2.97900	134
2.98267	137
2.98633	141
2.99000	144
2.99367	145
2.99733	142
3.00100	145
3.00467	144
3.00833	137
3.01200	125
3.01567	119
3.01933	122
3.02300	130
3.02667	136
3.03033	141
3.03400	137
3.03767	136
3.04133	141
3.04500	145
3.04867	145
3.05233	140
3.05600	134
3.05967	127
3.06333	120
3.06700	119
3.07067	115
3.07433	109
3.07800	103
3.08167	101
3.08533	102
3.08900	100
3.09267	101
3.09633	109
3.10000	118
3.10367	121
3.10733	120
3.11100	118
3.11467	121
3.11833	123
3.12200	120
3.12567	118
3.12933	114
3.13300	107
3.13667	98
3.14033	91
3.14400	91
3.14767	96
3.15133	101
3.15500	103
3.15867	101
3.16233	96
3.16600	93
3.16967	93
3.17333	94
3.17700	95
3.18067	92
3.18433	86
3.18800	88
3.19167	95
3.19533	92
3.19900	95
3.20267	93
3.20633	87
3.21000	82
3.21367	79
3.21733	81
3.22100	85
3.22467	86
3.22833	83
3.23200	81
3.23567	78
3.23933	79
3.24300	85
3.24667	83
3.25033	79
3.25400	75
3.25767	69
3.26133	69
3.26500	73
3.26867	78
3.27233	78
3.27600	77
3.27967	88
3.28333	90
3.28700	92
3.29067	89
3.29433	81
3.29800	78
3.30167	81
3.30533	84
3.30900	84
3.31267	82
3.31633	82
3.32000	86
3.32367	90
3.32733	88
3.33100	84
3.33467	83
3.33833	83
3.34200	80
3.34567	79
3.34933	80
3.35300	75
3.35667	68
3.36033	64
3.36400	64
3.36767	64
3.37133	67
3.37500	68
3.37867	68
3.38233	68
3.38600	66
3.38967	67
3.39333	75
3.39700	78
3.40067	72
3.40433	63
3.40800	56
3.41167	56
3.41533	53
3.41900	47
3.42267	44
3.42633	49
3.43000	59
3.43367	72
3.43733	88
3.44100	102
3.44467	107
3.44833	101
3.45200	89
3.45567	77
3.45933	68
3.46300	58
3.46667	49
3.47033	45
3.47400	45
3.47767	41
3.48133	43
3.48500	53
3.48867	61
3.49233	69
3.49600	71
3.49967	68
3.50333	61
3.50700	58
3.51067	58
3.51433	64
3.51800	71
3.52167	73
3.52533	70
3.52900	62
3.53267	51
3.53633	43
3.54000	47
3.54367	52
3.54733	54
3.55100	52
3.55467	53
3.55833	54
3.56200	54
3.56567	54
3.56933	53
3.57300	56
3.57667	61
3.58033	66
3.58400	69
3.58767	65
3.59133	60
3.59500	52
3.59867	46
3.60233	41
3.60600	34
3.60967	29
3.61333	28
3.61700	27
3.62067	29
3.62433	28
3.62800	32
3.63167	40
3.63533	52
3.63900	61
3.64267	61
3.64633	58
3.65000	55
3.65367	49
3.65733	44
3.66100	40
3.66467	38
3.66833	37
3.67200	34
3.67567	34
3.67933	36
3.68300	41
3.68667	47
3.69033	50
3.69400	44
3.69767	37
3.70133	27
3.70500	16
3.70867	4
3.71233	6
3.71600	20
3.71967	33
3.72333	39
3.72700	36
3.73067	28
3.73433	22
3.73800	23
3.74167	31
3.74533	30
3.74900	24
3.75267	8
3.75633	-5
3.76000	-3
3.76367	5
3.76733	14
3.77100	16
3.77467	17
3.77833	19
3.78200	25
3.78567	31
3.78933	36
3.79300	35
3.79667	36
3.80033	33
3.80400	29
3.80767	27
3.81133	29
3.81500	32
3.81867	32
3.82233	27
3.82600	27
3.82967	34
3.83333	52
3.83700	68
3.84067	79
3.84433	83
3.84800	84
3.85167	79
3.85533	63
3.85900	46
3.86267	29
3.86633	11
3.87000	-5
3.87367	-18
3.87733	-33
3.88100	-42
3.88467	-43
3.88833	-41
3.89200	-34
3.89567	-27
3.89933	-19
3.90300	-11
3.90667	-3
3.91033	2
3.91400	8
3.91767	13
3.92133	14
3.92500	16
3.92867	15
3.93233	13
3.93600	8
3.93967	-5
3.94333	-16
3.94700	-20
3.95067	-18
3.95433	-11
3.95800	0
3.96167	5
3.96533	4
3.96900	8
3.97267	10
3.97633	10
3.98000	8
3.98367	16
3.98733	19
3.99100	15
3.99467	13
3.99833	16

[Chromatogram (Ch2)]
Interval(msec)	220
# of Points	1091
Start Time(min)	0.002
End Time(min)	3.998
R.Time (min)	Intensity
0.00167	1
0.00533	1
0.00900	1
0.01267	1
0.01633	0
0.02000	0
0.02367	-0
0.02733	-0
0.03100	0
0.03467	0
0.03833	1
0.04200	1
0.04567	1
0.04933	1
0.05300	1
0.05667	1
0.06033	1
0.06400	1
0.06767	1
0.07133	1
0.07500	1
0.07867	1
0.08233	1
0.08600	1
0.08967	1
0.09333	1
0.09700	1
0.10067	2
0.10433	2
0.10800	2
0.11167	2
0.11533	2
0.11900	2
0.12267	3
0.12633	3
0.13000	3
0.13367	3
0.13733	2
0.14100	2
0.14467	1
0.14833	1
0.15200	0
0.15567	-0
0.15933	-1
0.16300	-1
0.16667	-1
0.17033	-1
0.17400	-1
0.17767	-1
0.18133	-1
0.18500	-1
0.18867	-1
0.19233	-1
0.19600	-1
0.19967	-1
0.20333	-1
0.20700	-0
0.21067	-0
0.21433	-0
0.21800	-0
0.22167	-1
0.22533	-1
0.22900	-1
0.23267	-1
0.23633	-1
0.24000	-0
0.24367	-0
0.24733	-0
0.25100	0
0.25467	0
0.25833	1
0.26200	1
0.26567	1
0.26933	2
0.27300	2
0.27667	2
0.28033	2
0.28400	2
0.28767	2
0.29133	2
0.29500	2
0.29867	2
0.30233	1
0.30600	1
0.30967	1
0.31333	1
0.31700	0
0.32067	-0
0.32433	-0
0.32800	-0
0.33167	-0
0.33533	-0
0.33900	-0
0.34267	-0
0.34633	0
0.35000	0
0.35367	0
0.35733	-0
0.36100	-0
0.36467	-0
0.36833	-1
0.37200	-1
0.37567	-1
0.37933	-1
0.38300	-0
0.38667	-0
0.39033	-0
0.39400	0
0.39767	0
0.40133	1
0.40500	1
0.40867	1
0.41233	1
0.41600	1
0.41967	2
0.42333	2
0.42700	2
0.43067	2
0.43433	1
0.43800	1
0.44167	0
0.44533	0
0.44900	-0
0.45267	-0
0.45633	-0
0.46000	-0
0.46367	-0
0.46733	-1
0.47100	-1
0.47467	-1
0.47833	-1
0.48200	-0
0.48567	-0
0.48933	0
0.49300	0
0.49667	0
0.50033	1
0.50400	1
0.50767	1
0.51133	1
0.51500	1
0.51867	1
0.52233	1
0.52600	1
0.52967	1
0.53333	1
0.53700	1
0.54067	1
0.54433	1
0.54800	1
0.55167	1
0.55533	1
0.55900	0
0.56267	1
0.56633	1
0.57000	1
0.57367	1
0.57733	2
0.58100	2
0.58467	2
0.58833	3
0.59200	3
0.59567	3
0.59933	3
0.60300	3
0.60667	3
0.61033	2
0.61400	2
0.61767	2
0.62133	1
0.62500	1
0.62867	0
0.63233	-0
0.63600	-0
0.63967	-1
0.64333	-2
0.64700	-2
0.65067	-3
0.65433	-3
0.65800	-4
0.66167	-4
0.66533	-4
0.66900	-4
0.67267	-4
0.67633	-4
0.68000	-4
0.68367	-3
0.68733	-3
0.69100	-3
0.69467	-3
0.69833	-3
0.70200	-3
0.70567	-3
0.70933	-3
0.71300	-3
0.71667	-3
0.72033	-3
0.72400	-2
0.72767	-2
0.73133	-2
0.73500	-2
0.73867	-2
0.74233	-2
0.74600	-2
0.74967	-1
0.75333	-1
0.75700	-1
0.76067	-1
0.76433	-1
0.76800	-1
0.77167	-1
0.77533	-1
0.77900	-1
0.78267	-1
0.78633	-1
0.79000	-1
0.79367	-0
0.79733	-0
0.80100	-0
0.80467	0
0.80833	0
0.81200	0
0.81567	0
0.81933	1
0.82300	1
0.82667	1
0.83033	1
0.83400	2
0.83767	2
0.84133	1
0.84500	1
0.84867	1
0.85233	1
0.85600	1
0.85967	1
0.86333	1
0.86700	0
0.87067	0
0.87433	0
0.87800	-0
0.88167	-0
0.88533	-1
0.88900	-1
0.89267	-1
0.89633	-1
0.90000	-1
0.90367	-1
0.90733	-1
0.91100	-1
0.91467	-0
0.91833	-0
0.92200	-1
0.92567	-1
0.92933	-1
0.93300	-1
0.93667	-2
0.94033	-2
0.94400	-2
0.94767	-2
0.95133	-2
0.95500	-2
0.95867	-2
0.96233	-2
0.96600	-2
0.96967	-1
0.97333	-1
0.97700	-1
0.98067	-0
0.98433	-0
0.98800	-0
0.99167	-0
0.99533	-1
0.99900	-1
1.00267	-1
1.00633	-2
1.01000	-2
1.01367	-2
1.01733	-3
1.02100	-3
1.02467	-3
1.02833	-2
1.03200	-2
1.03567	-2
1.03933	-2
1.04300	-1
1.04667	-1
1.05033	-1
1.05400	-1
1.05767	-1
1.06133	-0
1.06500	-0
1.06867	0
1.07233	0
1.07600	-0
1.07967	-0
1.08333	-1
1.08700	-1
1.09067	-2
1.09433	-2
1.09800	-2
1.10167	-2
1.10533	-2
1.10900	-2
1.11267	-2
1.11633	-2
1.12000	-2
1.12367	-2
1.12733	-2
1.13100	-2
1.13467	-2
1.13833	-2
1.14200	-2
1.14567	-2
1.14933	-2
1.15300	-3
1.15667	-3
1.16033	-3
1.16400	-3
1.16767	-3
1.17133	-3
1.17500	-3
1.17867	-3
1.18233	-3
1.18600	-3
1.18967	-3
1.19333	-3
1.19700	-2
1.20067	-2
1.20433	-2
1.20800	-2
1.21167	-2
1.21533	-2
1.21900	-2
1.22267	-2
1.22633	-2
1.23000	-2
1.23367	-2
1.23733	-2
1.24100	-2
1.24467	-2
1.24833	-2
1.25200	-2
1.25567	-1
1.25933	-1
1.26300	-1
1.26667	-1
1.27033	-1
1.27400	-1
1.27767	-1
1.28133	-1
1.28500	-1
1.28867	-0
1.29233	-0
1.29600	0
1.29967	0
1.30333	0
1.30700	0
1.31067	1
1.31433	1
1.31800	0
1.32167	0
1.32533	0
1.32900	-0
1.33267	-0
1.33633	-0
1.34000	-1
1.34367	-1
1.34733	-1
1.35100	-1
1.35467	-1
1.35833	-1
1.36200	-1
1.36567	-1
1.36933	-1
1.37300	-1
1.37667	-1
1.38033	-1
1.38400	-1
1.38767	-1
1.39133	-1
1.39500	-2
1.39867	-2
1.40233	-2
1.40600	-2
1.40967	-2
1.41333	-2
1.41700	-2
1.42067	-3
1.42433	-3
1.42800	-3
1.43167	-3
1.43533	-3
1.43900	-3
1.44267	-3
1.44633	-3
1.45000	-3
1.45367	-4
1.45733	-4
1.46100	-4
1.46467	-5
1.46833	-5
1.47200	-4
1.47567	-4
1.47933	-4
1.48300	-4
1.48667	-3
1.49033	-3
1.49400	-3
1.49767	-3
1.50133	-2
1.50500	-3
1.50867	-3
1.51233	-3
1.51600	-3
1.51967	-3
1.52333	-3
1.52700	-4
1.53067	-4
1.53433	-4
1.53800	-5
1.54167	-5
1.54533	-5
1.54900	-5
1.55267	-5
1.55633	-5
1.56000	-5
1.56367	-5
1.56733	-6
1.57100	-6
1.57467	-6
1.57833	-6
1.58200	-5
1.58567	-5
1.58933	-5
1.59300	-5
1.59667	-5
1.60033	-6
1.60400	-7
1.60767	-8
1.61133	-9
1.61500	-11
1.61867	-13
1.62233	-16
1.62600	-18
1.62967	-21
1.63333	-25
1.63700	-28
1.64067	-31
1.64433	-34
1.64800	-38
1.65167	-41
1.65533	-45
1.65900	-48
1.66267	-52
1.66633	-56
1.67000	-60
1.67367	-65
1.67733	-70
1.68100	-75
1.68467	-80
1.68833	-85
1.69200	-89
1.69567	-93
1.69933	-96
1.70300	-99
1.70667	-101
1.71033	-103
1.71400	-104
1.71767	-105
1.72133	-106
1.72500	-106
1.72867	-106
1.73233	-106
1.73600	-105
1.73967	-105
1.74333	-106
1.74700	-106
1.75067	-107
1.75433	-108
1.75800	-110
1.76167	-111
1.76533	-112
1.76900	-113
1.77267	-115
1.77633	-116
1.78000	-116
1.78367	-117
1.78733	-116
1.79100	-116
1.79467	-115
1.79833	-114
1.80200	-113
1.80567	-112
1.80933	-111
1.81300	-110
1.81667	-110
1.82033	-110
1.82400	-110
1.82767	-110
1.83133	-111
1.83500	-111
1.83867	-112
1.84233	-112
1.84600	-112
1.84967	-113
1.85333	-113
1.85700	-113
1.86067	-114
1.86433	-114
1.86800	-113
1.87167	-113
1.87533	-113
1.87900	-113
1.88267	-113
1.88633	-113
1.89000	-113
1.89367	-113
1.89733	-112
1.90100	-112
1.90467	-112
1.90833	-112
1.91200	-111
1.91567	-111
1.91933	-110
1.92300	-110
1.92667	-110
1.93033	-111
1.93400	-110
1.93767	-110
1.94133	-111
1.94500	-111
1.94867	-112
1.95233	-112
1.95600	-112
1.95967	-112
1.96333	-112
1.96700	-112
1.97067	-112
1.97433	-111
1.97800	-111
1.98167	-111
1.98533	-110
1.98900	-110
1.99267	-109
1.99633	-109
2.00000	-109
2.00367	-109
2.00733	-108
2.01100	-108
2.01467	-107
2.01833	-106
2.02200	-105
2.02567	-105
2.02933	-104
2.03300	-104
2.03667	-104
2.04033	-104
2.04400	-104
2.04767	-103
2.05133	-103
2.05500	-103
2.05867	-103
2.06233	-103
2.06600	-102
2.06967	-102
2.07333	-102
2.07700	-102
2.08067	-102
2.08433	-102
2.08800	-101
2.09167	-100
2.09533	-100
2.09900	-99
2.10267	-99
2.10633	-99
2.11000	-98
2.11367	-98
2.11733	-98
2.12100	-98
2.12467	-98
2.12833	-97
2.13200	-97
2.13567	-97
2.13933	-96
2.14300	-96
2.14667	-96
2.15033	-96
2.15400	-96
2.15767	-96
2.16133	-96
2.16500	-96
2.16867	-95
2.17233	-95
2.17600	-94
2.17967	-93
2.18333	-92
2.18700	-91
2.19067	-91
2.19433	-91
2.19800	-91
2.20167	-91
2.20533	-91
2.20900	-91
2.21267	-91
2.21633	-91
2.22000	-91
2.22367	-90
2.22733	-90
2.23100	-90
2.23467	-89
2.23833	-88
2.24200	-87
2.24567	-87
2.24933	-87
2.25300	-86
2.25667	-86
2.26033	-86
2.26400	-85
2.26767	-85
2.27133	-84
2.27500	-84
2.27867	-84
2.28233	-83
2.28600	-83
2.28967	-82
2.29333	-82
2.29700	-83
2.30067	-84
2.30433	-85
2.30800	-86
2.31167	-87
2.31533	-88
2.31900	-88
2.32267	-87
2.32633	-87
2.33000	-86
2.33367	-84
2.33733	-83
2.34100	-82
2.34467	-80
2.34833	-79
2.35200	-77
2.35567	-75
2.35933	-73
2.36300	-71
2.36667	-68
2.37033	-65
2.37400	-62
2.37767	-59
2.38133	-55
2.38500	-52
2.38867	-47
2.39233	-43
2.39600	-39
2.39967	-34
2.40333	-30
2.40700	-26
2.41067	-22
2.41433	-19
2.41800	-16
2.42167	-13
2.42533	-11
2.42900	-9
2.43267	-8
2.43633	-6
2.44000	-6
2.44367	-5
2.44733	-5
2.45100	-5
2.45467	-5
2.45833	-5
2.46200	-5
2.46567	-4
2.46933	-3
2.47300	-3
2.47667	-2
2.48033	-0
2.48400	0
2.48767	1
2.49133	2
2.49500	2
2.49867	3
2.50233	4
2.50600	4
2.50967	5
2.51333	6
2.51700	7
2.52067	7
2.52433	8
2.52800	8
2.53167	9
2.53533	9
2.53900	9
2.54267	10
2.54633	11
2.55000	11
2.55367	12
2.55733	13
2.56100	13
2.56467	14
2.56833	14
2.57200	14
2.57567	14
2.57933	15
2.58300	15
2.58667	16
2.59033	16
2.59400	16
2.59767	16
2.60133	15
2.60500	15
2.60867	14
2.61233	14
2.61600	14
2.61967	14
2.62333	13
2.62700	13
2.63067	13
2.63433	13
2.63800	14
2.64167	14
2.64533	14
2.64900	14
2.65267	15
2.65633	15
2.66000	16
2.66367	17
2.66733	17
2.67100	18
2.67467	18
2.67833	19
2.68200	19
2.68567	20
2.68933	20
2.69300	20
2.69667	21
2.70033	21
2.70400	21
2.70767	22
2.71133	22
2.71500	22
2.71867	22
2.72233	22
2.72600	22
2.72967	22
2.73333	22
2.73700	22
2.74067	23
2.74433	23
2.74800	23
2.75167	24
2.75533	24
2.75900	25
2.76267	25
2.76633	26
2.77000	26
2.77367	26
2.77733	26
2.78100	26
2.78467	25
2.78833	25
2.79200	24
2.79567	24
2.79933	23
2.80300	23
2.80667	23
2.81033	23
2.81400	23
2.81767	24
2.82133	24
2.82500	24
2.82867	24
2.83233	24
2.83600	25
2.83967	25
2.84333	24
2.84700	23
2.85067	20
2.85433	14
2.85800	6
2.86167	-5
2.86533	-21
2.86900	-40
2.87267	-64
2.87633	-92
2.88000	-124
2.88367	-161
2.88733	-202
2.89100	-246
2.89467	-293
2.89833	-343
2.90200	-394
2.90567	-448
2.90933	-502
2.91300	-557
2.91667	-613
2.92033	-668
2.92400	-722
2.92767	-775
2.93133	-826
2.93500	-878
2.93867	-934
2.94233	-993
2.94600	-1047
2.94967	-1086
2.95333	-1102
2.95700	-1091
2.96067	-1056
2.96433	-1002
2.96800	-934
2.97167	-857
2.97533	-777
2.97900	-697
2.98267	-619
2.98633	-546
2.99000	-478
2.99367	-416
2.99733	-361
3.00100	-311
3.00467	-267
3.00833	-228
3.01200	-194
3.01567	-165
3.01933	-139
3.02300	-118
3.02667	-99
3.03033	-83
3.03400	-69
3.03767	-57
3.04133	-47
3.04500	-38
3.04867	-30
3.05233	-24
3.05600	-18
3.05967	-13
3.06333	-9
3.06700	-5
3.07067	-2
3.07433	1
3.07800	3
3.08167	5
3.08533	7
3.08900	8
3.09267	9
3.09633	10
3.10000	11
3.10367	12
3.10733	12
3.11100	13
3.11467	13
3.11833	14
3.12200	14
3.12567	14
3.12933	15
3.13300	15
3.13667	15
3.14033	15
3.14400	15
3.14767	15
3.15133	16
3.15500	16
3.15867	16
3.16233	16
3.16600	16
3.16967	16
3.17333	17
3.17700	17
3.18067	17
3.18433	17
3.18800	17
3.19167	18
3.19533	18
3.19900	18
3.20267	18
3.20633	19
3.21000	19
3.21367	19
3.21733	19
3.22100	20
3.22467	20
3.22833	20
3.23200	20
3.23567	21
3.23933	21
3.24300	21
3.24667	22
3.25033	22
3.25400	22
3.25767	22
3.26133	23
3.26500	23
3.26867	23
3.27233	23
3.27600	23
3.27967	23
3.28333	23
3.28700	23
3.29067	23
3.29433	23
3.29800	23
3.30167	23
3.30533	23
3.30900	23
3.31267	23
3.31633	23
3.32000	23
3.32367	23
3.32733	23
3.33100	23
3.33467	23
3.33833	23
3.34200	23
3.34567	23
3.34933	23
3.35300	23
3.35667	23
3.36033	23
3.36400	23
3.36767	23
3.37133	23
3.37500	23
3.37867	23
3.38233	23
3.38600	24
3.38967	24
3.39333	24
3.39700	24
3.40067	24
3.40433	23
3.40800	23
3.41167	24
3.41533	24
3.41900	24
3.42267	24
3.42633	23
3.43000	24
3.43367	24
3.43733	24
3.44100	24
3.44467	24
3.44833	24
3.45200	24
3.45567	24
3.45933	24
3.46300	24
3.46667	25
3.47033	25
3.47400	25
3.47767	26
3.48133	26
3.48500	27
3.48867	27
3.49233	28
3.49600	28
3.49967	28
3.50333	28
3.50700	28
3.51067	28
3.51433	29
3.51800	29
3.52167	29
3.52533	29
3.52900	29
3.53267	29
3.53633	28
3.54000	28
3.54367	28
3.54733	28
3.55100	28
3.55467	28
3.55833	29
3.56200	29
3.56567	29
3.56933	29
3.57300	29
3.57667	29
3.58033	29
3.58400	28
3.58767	28
3.59133	27
3.59500	27
3.59867	26
3.60233	26
3.60600	25
3.60967	25
3.61333	25
3.61700	25
3.62067	25
3.62433	24
3.62800	24
3.63167	24
3.63533	24
3.63900	24
3.64267	24
3.64633	24
3.65000	24
3.65367	24
3.65733	24
3.66100	24
3.66467	24
3.66833	24
3.67200	24
3.67567	24
3.67933	24
3.68300	25
3.68667	25
3.69033	25
3.69400	26
3.69767	26
3.70133	26
3.70500	26
3.70867	26
3.71233	27
3.71600	27
3.71967	27
3.72333	27
3.72700	27
3.73067	27
3.73433	27
3.73800	27
3.74167	27
3.74533	27
3.74900	27
3.75267	27
3.75633	26
3.76000	27
3.76367	27
3.76733	27
3.77100	27
3.77467	26
3.77833	26
3.78200	26
3.78567	26
3.78933	26
3.79300	26
3.79667	26
3.80033	25
3.80400	25
3.80767	25
3.81133	26
3.81500	26
3.81867	26
3.82233	26
3.82600	26
3.82967	26
3.83333	26
3.83700	26
3.84067	26
3.84433	26
3.84800	26
3.85167	26
3.85533	27
3.85900	27
3.86267	27
3.86633	27
3.87000	27
3.87367	26
3.87733	26
3.88100	26
3.88467	26
3.88833	26
3.89200	26
3.89567	26
3.89933	26
3.90300	26
3.90667	27
3.91033	27
3.91400	27
3.91767	27
3.92133	26
3.92500	27
3.92867	27
3.93233	26
3.93600	26
3.93967	26
3.94333	26
3.94700	26
3.95067	26
3.95433	26
3.95800	26
3.96167	26
3.96533	26
3.96900	26
3.97267	26
3.97633	26
3.98000	26
3.98367	26
3.98733	26
3.99100	26
3.99467	26
3.99833	26

[Chromatogram (Ch3)]
Interval(msec)	220
# of Points	1091
Start Time(min)	0.002
End Time(min)	3.998
R.Time (min)	Intensity
0.00167	-0
0.00533	-1
0.00900	-2
0.01267	-1
0.01633	-1
0.02000	1
0.02367	3
0.02733	4
0.03100	3
0.03467	1
0.03833	2
0.04200	3
0.04567	4
0.04933	2
0.05300	0
0.05667	-1
0.06033	-2
0.06400	-2
0.06767	-0
0.07133	1
0.07500	-0
0.07867	-0
0.08233	-1
0.08600	-1
0.08967	-1
0.09333	-0
0.09700	0
0.10067	-1
0.10433	-2
0.10800	-2
0.11167	-2
0.11533	-1
0.11900	1
0.12267	2
0.12633	3
0.13000	2
0.13367	3
0.13733	4
0.14100	3
0.14467	1
0.14833	2
0.15200	2
0.15567	1
0.15933	-0
0.16300	-1
0.16667	-4
0.17033	-4
0.17400	-4
0.17767	-4
0.18133	-6
0.18500	-7
0.18867	-8
0.19233	-8
0.19600	-7
0.19967	-5
0.20333	-4
0.20700	-4
0.21067	-4
0.21433	-5
0.21800	-5
0.22167	-5
0.22533	-5
0.22900	-5
0.23267	-7
0.23633	-9
0.24000	-9
0.24367	-8
0.24733	-6
0.25100	-7
0.25467	-6
0.25833	-5
0.26200	-6
0.26567	-6
0.26933	-5
0.27300	-5
0.27667	-5
0.28033	-3
0.28400	-2
0.28767	-2
0.29133	-1
0.29500	-1
0.29867	-1
0.30233	-1
0.30600	-1
0.30967	-4
0.31333	-7
0.31700	-8
0.32067	-6
0.32433	-3
0.32800	-1
0.33167	-0
0.33533	0
0.33900	1
0.34267	0
0.34633	1
0.35000	0
0.35367	-0
0.35733	-2
0.36100	-3
0.36467	-1
0.36833	-1
0.37200	-4
0.37567	-3
0.37933	-2
0.38300	-1
0.38667	0
0.39033	2
0.39400	3
0.39767	3
0.40133	4
0.40500	5
0.40867	6
0.41233	8
0.41600	7
0.41967	4
0.42333	4
0.42700	3
0.43067	3
0.43433	1
0.43800	-1
0.44167	-2
0.44533	-4
0.44900	-5
0.45267	-4
0.45633	-3
0.46000	-2
0.46367	-0
0.46733	-0
0.47100	-1
0.47467	-0
0.47833	-2
0.48200	-1
0.48567	1
0.48933	3
0.49300	5
0.49667	4
0.50033	4
0.50400	3
0.50767	3
0.51133	3
0.51500	1
0.51867	-1
0.52233	-1
0.52600	0
0.52967	1
0.53333	-0
0.53700	-0
0.54067	0
0.54433	4
0.54800	6
0.55167	4
0.55533	1
0.55900	0
0.56267	-2
0.56633	-1
0.57000	1
0.57367	1
0.57733	2
0.58100	3
0.58467	1
0.58833	-2
0.59200	-1
0.59567	1
0.59933	2
0.60300	1
0.60667	1
0.61033	2
0.61400	2
0.61767	3
0.62133	3
0.62500	2
0.62867	2
0.63233	3
0.63600	5
0.63967	5
0.64333	5
0.64700	3
0.65067	1
0.65433	1
0.65800	2
0.66167	4
0.66533	6
0.66900	5
0.67267	6
0.67633	6
0.68000	8
0.68367	10
0.68733	10
0.69100	8
0.69467	8
0.69833	8
0.70200	8
0.70567	6
0.70933	3
0.71300	3
0.71667	2
0.72033	2
0.72400	2
0.72767	3
0.73133	5
0.73500	6
0.73867	7
0.74233	6
0.74600	6
0.74967	7
0.75333	8
0.75700	10
0.76067	9
0.76433	8
0.76800	8
0.77167	8
0.77533	7
0.77900	6
0.78267	7
0.78633	7
0.79000	8
0.79367	9
0.79733	11
0.80100	12
0.80467	11
0.80833	8
0.81200	8
0.81567	9
0.81933	9
0.82300	8
0.82667	8
0.83033	7
0.83400	5
0.83767	5
0.84133	7
0.84500	9
0.84867	9
0.85233	7
0.85600	7
0.85967	8
0.86333	9
0.86700	8
0.87067	8
0.87433	8
0.87800	8
0.88167	8
0.88533	7
0.88900	5
0.89267	5
0.89633	6
0.90000	8
0.90367	8
0.90733	8
0.91100	7
0.91467	5
0.91833	4
0.92200	6
0.92567	9
0.92933	10
0.93300	9
0.93667	10
0.94033	12
0.94400	13
0.94767	13
0.95133	12
0.95500	13
0.95867	14
0.96233	13
0.96600	12
0.96967	11
0.97333	11
0.97700	10
0.98067	11
0.98433	14
0.98800	15
0.99167	16
0.99533	16
0.99900	16
1.00267	14
1.00633	11
1.01000	10
1.01367	10
1.01733	11
1.02100	11
1.02467	10
1.02833	9
1.03200	10
1.03567	12
1.03933	11
1.04300	12
1.04667	13
1.05033	13
1.05400	13
1.05767	12
1.06133	13
1.06500	13
1.06867	11
1.07233	8
1.07600	7
1.07967	8
1.08333	10
1.08700	11
1.09067	14
1.09433	17
1.09800	19
1.10167	17
1.10533	14
1.10900	12
1.11267	13
1.11633	15
1.12000	16
1.12367	16
1.12733	14
1.13100	12
1.13467	13
1.13833	14
1.14200	15
1.14567	15
1.14933	14
1.15300	15
1.15667	16
1.16033	14
1.16400	14
1.16767	15
1.17133	16
1.17500	16
1.17867	17
1.18233	19
1.18600	20
1.18967	20
1.19333	17
1.19700	17
1.20067	19
1.20433	18
1.20800	21
1.21167	24
1.21533	21
1.21900	19
1.22267	18
1.22633	19
1.23000	18
1.23367	19
1.23733	19
1.24100	19
1.24467	18
1.24833	16
1.25200	15
1.25567	13
1.25933	13
1.26300	15
1.26667	15
1.27033	15
1.27400	15
1.27767	15
1.28133	14
1.28500	14
1.28867	16
1.29233	18
1.29600	19
1.29967	20
1.30333	20
1.30700	21
1.31067	22
1.31433	21
1.31800	20
1.32167	18
1.32533	16
1.32900	16
1.33267	18
1.33633	20
1.34000	21
1.34367	21
1.34733	21
1.35100	21
1.35467	19
1.35833	18
1.36200	19
1.36567	21
1.36933	22
1.37300	21
1.37667	19
1.38033	20
1.38400	20
1.38767	20
1.39133	20
1.39500	20
1.39867	20
1.40233	19
1.40600	19
1.40967	21
1.41333	23
1.41700	25
1.42067	26
1.42433	26
1.42800	26
1.43167	25
1.43533	26
1.43900	25
1.44267	26
1.44633	28
1.45000	27
1.45367	23
1.45733	21
1.46100	23
1.46467	24
1.46833	25
1.47200	24
1.47567	25
1.47933	25
1.48300	24
1.48667	24
1.49033	23
1.49400	21
1.49767	20
1.50133	21
1.50500	21
1.50867	22
1.51233	22
1.51600	23
1.51967	22
1.52333	23
1.52700	23
1.53067	24
1.53433	24
1.53800	25
1.54167	24
1.54533	23
1.54900	22
1.55267	21
1.55633	21
1.56000	19
1.56367	18
1.56733	18
1.57100	17
1.57467	19
1.57833	23
1.58200	25
1.58567	26
1.58933	27
1.59300	27
1.59667	29
1.60033	29
1.60400	26
1.60767	25
1.61133	26
1.61500	28
1.61867	27
1.62233	26
1.62600	27
1.62967	28
1.63333	29
1.63700	31
1.64067	32
1.64433	33
1.64800	34
1.65167	34
1.65533	33
1.65900	34
1.66267	32
1.66633	33
1.67000	34
1.67367	35
1.67733	37
1.68100	41
1.68467	42
1.68833	42
1.69200	40
1.69567	38
1.69933	36
1.70300	37
1.70667	38
1.71033	40
1.71400	41
1.71767	42
1.72133	45
1.72500	45
1.72867	44
1.73233	44
1.73600	43
1.73967	43
1.74333	43
1.74700	44
1.75067	46
1.75433	48
1.75800	48
1.76167	49
1.76533	49
1.76900	50
1.77267	50
1.77633	50
1.78000	52
1.78367	54
1.78733	55
1.79100	55
1.79467	54
1.79833	54
1.80200	57
1.80567	58
1.80933	57
1.81300	57
1.81667	57
1.82033	57
1.82400	55
1.82767	55
1.83133	57
1.83500	61
1.83867	62
1.84233	60
1.84600	60
1.84967	63
1.85333	65
1.85700	64
1.86067	62
1.86433	61
1.86800	64
1.87167	68
1.87533	71
1.87900	72
1.88267	72
1.88633	71
1.89000	69
1.89367	67
1.89733	65
1.90100	65
1.90467	67
1.90833	68
1.91200	70
1.91567	71
1.91933	71
1.92300	72
1.92667	73
1.93033	76
1.93400	78
1.93767	80
1.94133	81
1.94500	83
1.94867	85
1.95233	85
1.95600	88
1.95967	90
1.96333	91
1.96700	92
1.97067	93
1.97433	93
1.97800	93
1.98167	92
1.98533	93
1.98900	94
1.99267	95
1.99633	96
2.00000	96
2.00367	97
2.00733	100
2.01100	101
2.01467	102
2.01833	104
2.02200	106
2.02567	107
2.02933	110
2.03300	111
2.03667	110
2.04033	110
2.04400	111
2.04767	112
2.05133	113
2.05500	114
2.05867	116
2.06233	118
2.06600	119
2.06967	119
2.07333	122
2.07700	124
2.08067	126
2.08433	127
2.08800	128
2.09167	130
2.09533	130
2.09900	129
2.10267	130
2.10633	133
2.11000	136
2.11367	137
2.11733	140
2.12100	142
2.12467	145
2.12833	146
2.13200	148
2.13567	150
2.13933	150
2.14300	151
2.14667	151
2.15033	151
2.15400	153
2.15767	157
2.16133	161
2.16500	163
2.16867	163
2.17233	163
2.17600	162
2.17967	160
2.18333	161
2.18700	164
2.19067	166
2.19433	168
2.19800	169
2.20167	170
2.20533	171
2.20900	171
2.21267	173
2.21633	175
2.22000	178
2.22367	182
2.22733	184
2.23100	184
2.23467	184
2.23833	187
2.24200	190
2.24567	192
2.24933	194
2.25300	196
2.25667	198
2.26033	199
2.26400	197
2.26767	194
2.27133	193
2.27500	194
2.27867	198
2.28233	200
2.28600	203
2.28967	204
2.29333	206
2.29700	207
2.30067	206
2.30433	206
2.30800	208
2.31167	210
2.31533	213
2.31900	216
2.32267	217
2.32633	217
2.33000	218
2.33367	218
2.33733	217
2.34100	218
2.34467	221
2.34833	224
2.35200	226
2.35567	227
2.35933	228
2.36300	230
2.36667	230
2.37033	230
2.37400	231
2.37767	229
2.38133	230
2.38500	230
2.38867	228
2.39233	227
2.39600	229
2.39967	231
2.40333	235
2.40700	240
2.41067	244
2.41433	246
2.41800	246
2.42167	245
2.42533	245
2.42900	246
2.43267	247
2.43633	247
2.44000	253
2.44367	315
2.44733	480
2.45100	660
2.45467	808
2.45833	895
2.46200	901
2.46567	858
2.46933	797
2.47300	740
2.47667	696
2.48033	662
2.48400	626
2.48767	577
2.49133	519
2.49500	465
2.49867	422
2.50233	390
2.50600	368
2.50967	360
2.51333	366
2.51700	385
2.52067	410
2.52433	436
2.52800	450
2.53167	447
2.53533	432
2.53900	406
2.54267	370
2.54633	335
2.55000	300
2.55367	270
2.55733	248
2.56100	230
2.56467	215
2.56833	205
2.57200	201
2.57567	199
2.57933	197
2.58300	195
2.58667	194
2.59033	194
2.59400	199
2.59767	203
2.60133	205
2.60500	203
2.60867	199
2.61233	195
2.61600	189
2.61967	185
2.62333	182
2.62700	175
2.63067	167
2.63433	157
2.63800	148
2.64167	137
2.64533	125
2.64900	113
2.65267	100
2.65633	89
2.66000	77
2.66367	65
2.66733	54
2.67100	46
2.67467	37
2.67833	29
2.68200	24
2.68567	17
2.68933	13
2.69300	12
2.69667	11
2.70033	10
2.70400	10
2.70767	13
2.71133	16
2.71500	19
2.71867	24
2.72233	32
2.72600	37
2.72967	42
2.73333	47
2.73700	50
2.74067	52
2.74433	56
2.74800	60
2.75167	65
2.75533	69
2.75900	72
2.76267	75
2.76633	77
2.77000	82
2.77367	86
2.77733	90
2.78100	95
2.78467	99
2.78833	104
2.79200	108
2.79567	113
2.79933	118
2.80300	124
2.80667	131
2.81033	139
2.81400	146
2.81767	155
2.82133	168
2.82500	189
2.82867	224
2.83233	291
2.83600	409
2.83967	599
2.84333	882
2.84700	1269
2.85067	1750
2.85433	2300
2.85800	2883
2.86167	3457
2.86533	3979
2.86900	4404
2.87267	4697
2.87633	4850
2.88000	4864
2.88367	4756
2.88733	4549
2.89100	4272
2.89467	3951
2.89833	3609
2.90200	3267
2.90567	2936
2.90933	2622
2.91300	2331
2.91667	2065
2.92033	1826
2.92400	1613
2.92767	1425
2.93133	1258
2.93500	1110
2.93867	981
2.94233	869
2.94600	769
2.94967	680
2.95333	605
2.95700	541
2.96067	485
2.96433	437
2.96800	396
2.97167	360
2.97533	330
2.97900	303
2.98267	279
2.98633	259
2.99000	240
2.99367	224
2.99733	209
3.00100	194
3.00467	184
3.00833	172
3.01200	133
3.01567	74
3.01933	25
3.02300	13
3.02667	29
3.03033	65
3.03400	116
3.03767	175
3.04133	237
3.04500	298
3.04867	355
3.05233	405
3.05600	447
3.05967	482
3.06333	510
3.06700	533
3.07067	553
3.07433	572
3.07800	587
3.08167	599
3.08533	609
3.08900	616
3.09267	622
3.09633	629
3.10000	634
3.10367	638
3.10733	641
3.11100	645
3.11467	647
3.11833	649
3.12200	656
3.12567	662
3.12933	666
3.13300	670
3.13667	673
3.14033	675
3.14400	676
3.14767	679
3.15133	683
3.15500	686
3.15867	690
3.16233	695
3.16600	697
3.16967	700
3.17333	706
3.17700	712
3.18067	715
3.18433	720
3.18800	726
3.19167	732
3.19533	737
3.19900	742
3.20267	748
3.20633	756
3.21000	763
3.21367	769
3.21733	776
3.22100	785
3.22467	791
3.22833	796
3.23200	803
3.23567	808
3.23933	812
3.24300	816
3.24667	821
3.25033	826
3.25400	830
3.25767	834
3.26133	839
3.26500	844
3.26867	847
3.27233	849
3.27600	849
3.27967	847
3.28333	848
3.28700	850
3.29067	851
3.29433	848
3.29800	848
3.30167	847
3.30533	844
3.30900	840
3.31267	839
3.31633	839
3.32000	835
3.32367	833
3.32733	830
3.33100	828
3.33467	826
3.33833	824
3.34200	821
3.34567	818
3.34933	816
3.35300	811
3.35667	808
3.36033	806
3.36400	803
3.36767	801
3.37133	798
3.37500	796
3.37867	794
3.38233	791
3.38600	788
3.38967	787
3.39333	785
3.39700	782
3.40067	780
3.40433	779
3.40800	778
3.41167	778
3.41533	777
3.41900	775
3.42267	774
3.42633	771
3.43000	767
3.43367	765
3.43733	763
3.44100	760
3.44467	756
3.44833	756
3.45200	755
3.45567	753
3.45933	752
3.46300	751
3.46667	752
3.47033	752
3.47400	752
3.47767	749
3.48133	747
3.48500	745
3.48867	743
3.49233	741
3.49600	741
3.49967	742
3.50333	739
3.50700	736
3.51067	735
3.51433	733
3.51800	731
3.52167	729
3.52533	727
3.52900	725
3.53267	726
3.53633	725
3.54000	724
3.54367	725
3.54733	727
3.55100	730
3.55467	730
3.55833	731
3.56200	729
3.56567	727
3.56933	723
3.57300	720
3.57667	719
3.58033	718
3.58400	718
3.58767	718
3.59133	719
3.59500	720
3.59867	720
3.60233	721
3.60600	722
3.60967	721
3.61333	719
3.61700	717
3.62067	717
3.62433	718
3.62800	718
3.63167	718
3.63533	719
3.63900	718
3.64267	716
3.64633	713
3.65000	710
3.65367	707
3.65733	704
3.66100	701
3.66467	698
3.66833	696
3.67200	695
3.67567	695
3.67933	695
3.68300	695
3.68667	695
3.69033	693
3.69400	692
3.69767	689
3.70133	687
3.70500	684
3.70867	680
3.71233	678
3.71600	675
3.71967	673
3.72333	670
3.72700	668
3.73067	666
3.73433	664
3.73800	663
3.74167	661
3.74533	658
3.74900	656
3.75267	655
3.75633	653
3.76000	653
3.76367	653
3.76733	654
3.77100	654
3.77467	652
3.77833	647
3.78200	645
3.78567	642
3.78933	640
3.79300	637
3.79667	636
3.80033	636
3.80400	636
3.80767	637
3.81133	636
3.81500	634
3.81867	632
3.82233	629
3.82600	627
3.82967	626
3.83333	627
3.83700	627
3.84067	627
3.84433	627
3.84800	627
3.85167	625
3.85533	623
3.85900	621
3.86267	619
3.86633	617
3.87000	615
3.87367	614
3.87733	611
3.88100	609
3.88467	606
3.88833	601
3.89200	599
3.89567	598
3.89933	600
3.90300	602
3.90667	603
3.91033	604
3.91400	603
3.91767	601
3.92133	599
3.92500	598
3.92867	595
3.93233	593
3.93600	591
3.93967	591
3.94333	589
3.94700	588
3.95067	587
3.95433	586
3.95800	585
3.96167	586
3.96533	584
3.96900	580
3.97267	577
3.97633	575
3.98000	574
3.98367	574
3.98733	574
3.99100	574
3.99467	571
3.99833	569

[Status Trace (Column Oven Temperature)]
Interval(msec)	1000
# of Points	240
Start Time(min)	0.008
End Time(min)	3.991
Intensity Units	
Intensity Multiplier	1
R.Time (min)	Intensity
0.00770	35.04
0.02437	35.03
0.04103	35.03
0.05770	35.03
0.07437	35.03
0.09103	35.04
0.10770	35.03
0.12437	35.03
0.14103	35.04
0.15770	35.04
0.17437	35.04
0.19103	35.04
0.20770	35.04
0.22437	35.04
0.24103	35.03
0.25770	35.02
0.27437	35.03
0.29103	35.03
0.30770	35.03
0.32437	35.03
0.34103	35.03
0.35770	35.03
0.37437	35.03
0.39103	35.03
0.40770	35.02
0.42437	35.02
0.44103	35.01
0.45770	35.02
0.47437	35.02
0.49103	35.01
0.50770	35.01
0.52437	35.01
0.54103	35.01
0.55770	35.00
0.57437	34.99
0.59103	34.97
0.60770	34.96
0.62437	34.97
0.64103	34.99
0.65770	35.01
0.67437	35.01
0.69103	35.02
0.70770	35.03
0.72437	35.02
0.74103	35.03
0.75770	35.02
0.77437	35.02
0.79103	35.02
0.80770	35.00
0.82437	35.00
0.84103	35.00
0.85770	34.99
0.87437	34.99
0.89103	35.00
0.90770	34.99
0.92437	34.99
0.94103	34.99
0.95770	35.00
0.97437	34.99
0.99103	35.00
1.00770	35.00
1.02437	35.01
1.04103	35.01
1.05770	35.00
1.07437	34.99
1.09103	35.00
1.10770	35.00
1.12437	35.01
1.14103	35.01
1.15770	35.02
1.17437	35.02
1.19103	35.02
1.20770	35.02
1.22437	35.01
1.24103	35.01
1.25770	35.01
1.27437	35.00
1.29103	34.97
1.30770	34.97
1.32437	34.96
1.34103	34.97
1.35770	34.96
1.37437	34.96
1.39103	34.95
1.40770	34.95
1.42437	34.96
1.44103	34.96
1.45770	34.98
1.47437	34.98
1.49103	34.97
1.50770	34.97
1.52437	34.99
1.54103	34.99
1.55770	35.00
1.57437	35.01
1.59103	35.03
1.60770	35.08
1.62437	35.21
1.64103	35.39
1.65770	35.63
1.67437	35.96
1.69103	36.33
1.70770	36.69
1.72437	37.00
1.74103	37.32
1.75770	37.67
1.77437	38.02
1.79103	38.35
1.80770	38.64
1.82437	38.96
1.84103	39.29
1.85770	39.64
1.87437	39.96
1.89103	40.28
1.90770	40.61
1.92437	40.94
1.94103	41.27
1.95770	41.60
1.97437	41.93
1.99103	42.26
2.00770	42.59
2.02437	42.92
2.04103	43.23
2.05770	43.57
2.07437	43.90
2.09103	44.22
2.10770	44.56
2.12437	44.88
2.14103	45.21
2.15770	45.55
2.17437	45.86
2.19103	46.20
2.20770	46.52
2.22437	46.85
2.24103	47.17
2.25770	47.49
2.27437	47.81
2.29103	48.13
2.30770	48.54
2.32437	48.88
2.34103	49.19
2.35770	49.43
2.37437	49.59
2.39103	49.65
2.40770	49.63
2.42437	49.65
2.44103	49.64
2.45770	49.66
2.47437	49.66
2.49103	49.69
2.50770	49.68
2.52437	49.70
2.54103	49.73
2.55770	49.75
2.57437	49.76
2.59103	49.76
2.60770	49.79
2.62437	49.81
2.64103	49.81
2.65770	49.82
2.67437	49.83
2.69103	49.83
2.70770	49.84
2.72437	49.86
2.74103	49.87
2.75770	49.85
2.77437	49.85
2.79103	49.88
2.80770	49.88
2.82437	49.89
2.84103	49.88
2.85770	49.88
2.87437	49.87
2.89103	49.86
2.90770	49.87
2.92437	49.89
2.94103	49.92
2.95770	49.95
2.97437	49.97
2.99103	49.99
3.00770	49.99
3.02437	50.00
3.04103	50.00
3.05770	49.98
3.07437	49.98
3.09103	49.99
3.10770	49.99
3.12437	50.00
3.14103	50.01
3.15770	50.02
3.17437	50.03
3.19103	50.04
3.20770	50.05
3.22437	50.05
3.24103	50.05
3.25770	50.05
3.27437	50.05
3.29103	50.06
3.30770	50.07
3.32437	50.08
3.34103	50.09
3.35770	50.09
3.37437	50.10
3.39103	50.11
3.40770	50.11
3.42437	50.12
3.44103	50.12
3.45770	50.11
3.47437	50.09
3.49103	50.07
3.50770	50.05
3.52437	50.04
3.54103	50.03
3.55770	50.01
3.57437	50.01
3.59103	50.02
3.60770	50.02
3.62437	50.03
3.64103	50.04
3.65770	50.05
3.67437	50.05
3.69103	50.05
3.70770	50.04
3.72437	50.04
3.74103	50.05
3.75770	50.04
3.77437	50.04
3.79103	50.04
3.80770	50.05
3.82437	50.04
3.84103	50.03
3.85770	50.02
3.87437	50.03
3.89103	50.03
3.90770	50.03
3.92437	50.04
3.94103	50.05
3.95770	50.04
3.97437	50.04
3.99103	50.04

[Status Trace (Injection Unit Temperature)]
Interval(msec)	1000
# of Points	240
Start Time(min)	0.008
End Time(min)	3.991
Intensity Units	
Intensity Multiplier	1
R.Time (min)	Intensity
0.00770	99.98
0.02437	99.97
0.04103	99.98
0.05770	99.98
0.07437	99.98
0.09103	99.98
0.10770	99.98
0.12437	99.98
0.14103	99.98
0.15770	99.98
0.17437	99.98
0.19103	99.98
0.20770	99.98
0.22437	99.98
0.24103	99.98
0.25770	99.98
0.27437	99.98
0.29103	99.98
0.30770	99.98
0.32437	99.98
0.34103	99.98
0.35770	99.98
0.37437	99.98
0.39103	99.98
0.40770	99.98
0.42437	99.98
0.44103	99.98
0.45770	99.98
0.47437	99.98
0.49103	99.98
0.50770	99.98
0.52437	99.98
0.54103	99.98
0.55770	99.98
0.57437	99.98
0.59103	99.98
0.60770	99.98
0.62437	99.98
0.64103	99.98
0.65770	99.99
0.67437	99.98
0.69103	99.98
0.70770	99.98
0.72437	99.98
0.74103	99.98
0.75770	99.98
0.77437	99.99
0.79103	99.98
0.80770	99.99
0.82437	99.98
0.84103	99.99
0.85770	99.99
0.87437	99.99
0.89103	99.98
0.90770	99.98
0.92437	99.99
0.94103	99.99
0.95770	99.99
0.97437	99.99
0.99103	99.98
1.00770	99.99
1.02437	99.99
1.04103	99.99
1.05770	99.99
1.07437	99.99
1.09103	99.99
1.10770	99.99
1.12437	99.99
1.14103	99.99
1.15770	99.99
1.17437	99.99
1.19103	99.99
1.20770	99.99
1.22437	99.99
1.24103	99.99
1.25770	99.99
1.27437	99.99
1.29103	99.99
1.30770	99.99
1.32437	99.98
1.34103	99.98
1.35770	99.98
1.37437	99.98
1.39103	99.98
1.40770	99.98
1.42437	99.99
1.44103	99.98
1.45770	99.98
1.47437	99.98
1.49103	99.99
1.50770	99.98
1.52437	99.98
1.54103	99.99
1.55770	99.98
1.57437	99.98
1.59103	99.98
1.60770	99.99
1.62437	99.98
1.64103	99.98
1.65770	99.99
1.67437	99.98
1.69103	99.98
1.70770	99.98
1.72437	99.98
1.74103	99.98
1.75770	99.98
1.77437	99.98
1.79103	99.98
1.80770	99.98
1.82437	99.99
1.84103	99.99
1.85770	99.98
1.87437	99.98
1.89103	99.98
1.90770	99.99
1.92437	99.98
1.94103	99.98
1.95770	99.98
1.97437	99.98
1.99103	99.98
2.00770	99.98
2.02437	99.98
2.04103	99.98
2.05770	99.98
2.07437	99.98
2.09103	99.98
2.10770	99.97
2.12437	99.98
2.14103	99.97
2.15770	99.97
2.17437	99.97
2.19103	99.97
2.20770	99.97
2.22437	99.97
2.24103	99.97
2.25770	99.97
2.27437	99.97
2.29103	99.97
2.30770	99.97
2.32437	99.97
2.34103	99.97
2.35770	99.96
2.37437	99.96
2.39103	99.97
2.40770	99.97
2.42437	99.97
2.44103	99.96
2.45770	99.97
2.47437	99.97
2.49103	99.97
2.50770	99.97
2.52437	99.97
2.54103	99.97
2.55770	99.97
2.57437	99.97
2.59103	99.97
2.60770	99.97
2.62437	99.97
2.64103	99.97
2.65770	99.98
2.67437	99.98
2.69103	99.97
2.70770	99.98
2.72437	99.98
2.74103	99.98
2.75770	99.98
2.77437	99.99
2.79103	99.99
2.80770	99.99
2.82437	99.99
2.84103	99.99
2.85770	99.99
2.87437	100.00
2.89103	100.00
2.90770	100.00
2.92437	100.00
2.94103	100.00
2.95770	100.01
2.97437	100.01
2.99103	100.01
3.00770	100.01
3.02437	100.01
3.04103	100.01
3.05770	100.01
3.07437	100.02
3.09103	100.01
3.10770	100.02
3.12437	100.02
3.14103	100.02
3.15770	100.02
3.17437	100.02
3.19103	100.02
3.20770	100.02
3.22437	100.02
3.24103	100.03
3.25770	100.02
3.27437	100.03
3.29103	100.03
3.30770	100.03
3.32437	100.03
3.34103	100.03
3.35770	100.03
3.37437	100.03
3.39103	100.03
3.40770	100.03
3.42437	100.03
3.44103	100.03
3.45770	100.03
3.47437	100.03
3.49103	100.03
3.50770	100.03
3.52437	100.03
3.54103	100.03
3.55770	100.03
3.57437	100.04
3.59103	100.04
3.60770	100.04
3.62437	100.04
3.64103	100.03
3.65770	100.04
3.67437	100.04
3.69103	100.04
3.70770	100.04
3.72437	100.05
3.74103	100.04
3.75770	100.05
3.77437	100.04
3.79103	100.05
3.80770	100.04
3.82437	100.04
3.84103	100.05
3.85770	100.05
3.87437	100.05
3.89103	100.05
3.90770	100.05
3.92437	100.05
3.94103	100.05
3.95770	100.05
3.97437	100.05
3.99103	100.05

[Status Trace (Carrier Gas Pressure)]
Interval(msec)	1000
# of Points	240
Start Time(min)	0.008
End Time(min)	3.991
Intensity Units	
Intensity Multiplier	1
R.Time (min)	Intensity
0.00770	58.00
0.02437	55.47
0.04103	57.09
0.05770	59.27
0.07437	59.47
0.09103	58.07
0.10770	57.98
0.12437	58.01
0.14103	58.01
0.15770	58.01
0.17437	58.00
0.19103	58.00
0.20770	58.00
0.22437	58.00
0.24103	58.00
0.25770	58.00
0.27437	58.00
0.29103	58.00
0.30770	58.00
0.32437	58.00
0.34103	58.00
0.35770	58.00
0.37437	58.00
0.39103	58.00
0.40770	58.00
0.42437	58.00
0.44103	58.00
0.45770	58.00
0.47437	58.00
0.49103	58.00
0.50770	58.00
0.52437	58.00
0.54103	58.00
0.55770	58.00
0.57437	58.00
0.59103	58.00
0.60770	58.00
0.62437	58.00
0.64103	58.00
0.65770	58.00
0.67437	58.00
0.69103	58.00
0.70770	58.00
0.72437	58.00
0.74103	58.00
0.75770	58.00
0.77437	58.00
0.79103	58.00
0.80770	58.00
0.82437	58.00
0.84103	58.00
0.85770	58.00
0.87437	58.00
0.89103	58.00
0.90770	58.00
0.92437	58.00
0.94103	58.00
0.95770	58.00
0.97437	58.00
0.99103	58.00
1.00770	58.00
1.02437	58.00
1.04103	58.00
1.05770	58.00
1.07437	58.00
1.09103	58.00
1.10770	58.00
1.12437	58.00
1.14103	58.00
1.15770	58.00
1.17437	58.00
1.19103	58.00
1.20770	58.00
1.22437	58.00
1.24103	58.00
1.25770	58.00
1.27437	58.00
1.29103	58.00
1.30770	58.00
1.32437	58.00
1.34103	58.00
1.35770	58.00
1.37437	58.00
1.39103	58.00
1.40770	58.00
1.42437	58.00
1.44103	58.00
1.45770	58.00
1.47437	58.00
1.49103	58.00
1.50770	58.00
1.52437	58.00
1.54103	58.00
1.55770	58.00
1.57437	58.00
1.59103	58.00
1.60770	58.00
1.62437	58.00
1.64103	58.00
1.65770	58.01
1.67437	58.01
1.69103	58.00
1.70770	58.00
1.72437	58.00
1.74103	58.00
1.75770	58.00
1.77437	58.00
1.79103	58.00
1.80770	58.00
1.82437	58.00
1.84103	58.00
1.85770	58.00
1.87437	58.00
1.89103	58.00
1.90770	58.00
1.92437	58.00
1.94103	58.00
1.95770	58.00
1.97437	58.00
1.99103	58.00
2.00770	58.00
2.02437	58.00
2.04103	58.00
2.05770	58.00
2.07437	58.00
2.09103	58.00
2.10770	58.00
2.12437	58.00
2.14103	58.00
2.15770	58.00
2.17437	58.00
2.19103	58.00
2.20770	58.00
2.22437	58.00
2.24103	58.00
2.25770	58.00
2.27437	58.00
2.29103	58.00
2.30770	58.00
2.32437	58.00
2.34103	58.00
2.35770	58.00
2.37437	58.00
2.39103	57.99
2.40770	57.99
2.42437	58.00
2.44103	58.00
2.45770	58.00
2.47437	58.00
2.49103	58.00
2.50770	58.00
2.52437	57.99
2.54103	58.00
2.55770	58.00
2.57437	58.00
2.59103	58.00
2.60770	58.00
2.62437	58.00
2.64103	58.00
2.65770	58.00
2.67437	58.00
2.69103	58.00
2.70770	58.00
2.72437	58.00
2.74103	58.00
2.75770	58.00
2.77437	58.00
2.79103	58.00
2.80770	58.00
2.82437	58.00
2.84103	58.00
2.85770	58.00
2.87437	58.00
2.89103	58.00
2.90770	58.00
2.92437	58.00
2.94103	58.00
2.95770	58.00
2.97437	58.00
2.99103	58.00
3.00770	58.00
3.02437	58.00
3.04103	58.00
3.05770	58.00
3.07437	58.00
3.09103	58.00
3.10770	58.00
3.12437	58.00
3.14103	58.00
3.15770	58.00
3.17437	58.00
3.19103	58.00
3.20770	58.00
3.22437	58.00
3.24103	58.00
3.25770	58.00
3.27437	58.00
3.29103	58.00
3.30770	58.00
3.32437	58.00
3.34103	58.00
3.35770	58.00
3.37437	58.00
3.39103	58.00
3.40770	58.00
3.42437	58.00
3.44103	58.00
3.45770	58.00
3.47437	58.00
3.49103	58.00
3.50770	58.00
3.52437	58.00
3.54103	58.00
3.55770	58.00
3.57437	58.00
3.59103	58.00
3.60770	58.00
3.62437	58.00
3.64103	58.00
3.65770	58.00
3.67437	58.00
3.69103	58.00
3.70770	58.00
3.72437	58.00
3.74103	58.00
3.75770	58.00
3.77437	58.00
3.79103	58.00
3.80770	58.00
3.82437	58.00
3.84103	58.00
3.85770	58.00
3.87437	58.00
3.89103	58.00
3.90770	58.00
3.92437	58.00
3.94103	58.00
3.95770	58.00
3.97437	58.00
3.99103	58.00

[Status Trace (Carrier Gas Flow)]
Interval(msec)	1000
# of Points	240
Start Time(min)	0.008
End Time(min)	3.991
Intensity Units	
Intensity Multiplier	1
R.Time (min)	Intensity
0.00770	34.52
0.02437	34.54
0.04103	34.55
0.05770	34.55
0.07437	34.50
0.09103	34.52
0.10770	34.52
0.12437	34.52
0.14103	34.52
0.15770	34.52
0.17437	34.52
0.19103	34.52
0.20770	34.52
0.22437	34.52
0.24103	34.52
0.25770	34.52
0.27437	34.52
0.29103	34.52
0.30770	34.52
0.32437	34.52
0.34103	34.52
0.35770	34.52
0.37437	34.52
0.39103	34.52
0.40770	34.52
0.42437	34.52
0.44103	34.52
0.45770	34.52
0.47437	34.52
0.49103	34.52
0.50770	34.52
0.52437	34.52
0.54103	34.52
0.55770	34.52
0.57437	34.52
0.59103	34.52
0.60770	34.52
0.62437	34.52
0.64103	34.52
0.65770	34.52
0.67437	34.52
0.69103	34.52
0.70770	34.52
0.72437	34.52
0.74103	34.52
0.75770	34.52
0.77437	34.52
0.79103	34.52
0.80770	34.52
0.82437	34.52
0.84103	34.52
0.85770	34.52
0.87437	34.52
0.89103	34.52
0.90770	34.52
0.92437	34.52
0.94103	34.52
0.95770	34.52
0.97437	34.52
0.99103	34.52
1.00770	34.51
1.02437	34.52
1.04103	34.52
1.05770	34.52
1.07437	34.52
1.09103	34.52
1.10770	34.52
1.12437	34.52
1.14103	34.52
1.15770	34.52
1.17437	34.52
1.19103	34.52
1.20770	34.51
1.22437	34.52
1.24103	34.52
1.25770	34.52
1.27437	34.52
1.29103	34.52
1.30770	34.52
1.32437	34.51
1.34103	34.52
1.35770	34.52
1.37437	34.52
1.39103	34.52
1.40770	34.52
1.42437	34.52
1.44103	34.52
1.45770	34.51
1.47437	34.52
1.49103	34.52
1.50770	34.52
1.52437	34.52
1.54103	34.52
1.55770	34.52
1.57437	34.52
1.59103	34.52
1.60770	34.52
1.62437	34.52
1.64103	34.52
1.65770	34.52
1.67437	34.52
1.69103	34.52
1.70770	34.51
1.72437	34.51
1.74103	34.52
1.75770	34.52
1.77437	34.52
1.79103	34.51
1.80770	34.52
1.82437	34.52
1.84103	34.52
1.85770	34.52
1.87437	34.52
1.89103	34.52
1.90770	34.52
1.92437	34.52
1.94103	34.52
1.95770	34.52
1.97437	34.52
1.99103	34.52
2.00770	34.52
2.02437	34.52
2.04103	34.52
2.05770	34.52
2.07437	34.52
2.09103	34.52
2.10770	34.52
2.12437	34.52
2.14103	34.52
2.15770	34.52
2.17437	34.52
2.19103	34.52
2.20770	34.52
2.22437	34.52
2.24103	34.51
2.25770	34.51
2.27437	34.52
2.29103	34.52
2.30770	34.52
2.32437	34.52
2.34103	34.52
2.35770	34.52
2.37437	34.52
2.39103	34.52
2.40770	34.52
2.42437	34.52
2.44103	34.52
2.45770	34.52
2.47437	34.52
2.49103	34.52
2.50770	34.40
2.52437	34.52
2.54103	34.52
2.55770	34.52
2.57437	34.52
2.59103	34.52
2.60770	34.52
2.62437	34.52
2.64103	34.52
2.65770	34.52
2.67437	34.52
2.69103	34.52
2.70770	34.52
2.72437	34.52
2.74103	34.52
2.75770	34.52
2.77437	34.52
2.79103	34.52
2.80770	34.52
2.82437	34.51
2.84103	34.52
2.85770	34.52
2.87437	34.52
2.89103	34.52
2.90770	34.52
2.92437	34.52
2.94103	34.52
2.95770	34.52
2.97437	34.52
2.99103	34.52
3.00770	34.52
3.02437	34.52
3.04103	34.52
3.05770	34.52
3.07437	34.52
3.09103	34.52
3.10770	34.52
3.12437	34.52
3.14103	34.52
3.15770	34.52
3.17437	34.52
3.19103	34.52
3.20770	34.52
3.22437	34.51
3.24103	34.52
3.25770	34.52
3.27437	34.52
3.29103	34.51
3.30770	34.52
3.32437	34.52
3.34103	34.52
3.35770	34.52
3.37437	34.52
3.39103	34.52
3.40770	34.52
3.42437	34.52
3.44103	34.52
3.45770	34.52
3.47437	34.52
3.49103	34.52
3.50770	34.52
3.52437	34.52
3.54103	34.52
3.55770	34.52
3.57437	34.52
3.59103	34.52
3.60770	34.52
3.62437	34.52
3.64103	34.52
3.65770	34.52
3.67437	34.52
3.69103	34.52
3.70770	34.52
3.72437	34.52
3.74103	34.52
3.75770	34.51
3.77437	34.52
3.79103	34.52
3.80770	34.52
3.82437	34.52
3.84103	34.52
3.85770	34.52
3.87437	34.52
3.89103	34.52
3.90770	34.52
3.92437	34.52
3.94103	34.52
3.95770	34.52
3.97437	34.52
3.99103	34.52

[Status Trace (Column Flow)]
Interval(msec)	1000
# of Points	240
Start Time(min)	0.008
End Time(min)	3.991
Intensity Units	
Intensity Multiplier	1
R.Time (min)	Intensity
0.00770	5.55
0.02437	5.26
0.04103	5.44
0.05770	5.70
0.07437	5.72
0.09103	5.56
0.10770	5.55
0.12437	5.55
0.14103	5.55
0.15770	5.55
0.17437	5.55
0.19103	5.55
0.20770	5.55
0.22437	5.55
0.24103	5.55
0.25770	5.55
0.27437	5.55
0.29103	5.55
0.30770	5.55
0.32437	5.55
0.34103	5.55
0.35770	5.55
0.37437	5.55
0.39103	5.55
0.40770	5.55
0.42437	5.55
0.44103	5.55
0.45770	5.55
0.47437	5.55
0.49103	5.55
0.50770	5.55
0.52437	5.55
0.54103	5.55
0.55770	5.55
0.57437	5.55
0.59103	5.55
0.60770	5.55
0.62437	5.55
0.64103	5.55
0.65770	5.55
0.67437	5.55
0.69103	5.55
0.70770	5.55
0.72437	5.55
0.74103	5.55
0.75770	5.55
0.77437	5.55
0.79103	5.55
0.80770	5.55
0.82437	5.55
0.84103	5.55
0.85770	5.55
0.87437	5.55
0.89103	5.55
0.90770	5.55
0.92437	5.55
0.94103	5.55
0.95770	5.55
0.97437	5.55
0.99103	5.55
1.00770	5.55
1.02437	5.55
1.04103	5.55
1.05770	5.55
1.07437	5.55
1.09103	5.55
1.10770	5.55
1.12437	5.55
1.14103	5.55
1.15770	5.55
1.17437	5.55
1.19103	5.55
1.20770	5.55
1.22437	5.55
1.24103	5.55
1.25770	5.55
1.27437	5.55
1.29103	5.55
1.30770	5.55
1.32437	5.55
1.34103	5.55
1.35770	5.55
1.37437	5.55
1.39103	5.55
1.40770	5.55
1.42437	5.55
1.44103	5.55
1.45770	5.55
1.47437	5.55
1.49103	5.55
1.50770	5.55
1.52437	5.55
1.54103	5.55
1.55770	5.55
1.57437	5.55
1.59103	5.55
1.60770	5.55
1.62437	5.54
1.64103	5.54
1.65770	5.53
1.67437	5.52
1.69103	5.51
1.70770	5.50
1.72437	5.49
1.74103	5.48
1.75770	5.47
1.77437	5.46
1.79103	5.45
1.80770	5.44
1.82437	5.43
1.84103	5.42
1.85770	5.41
1.87437	5.40
1.89103	5.39
1.90770	5.38
1.92437	5.37
1.94103	5.36
1.95770	5.35
1.97437	5.34
1.99103	5.33
2.00770	5.32
2.02437	5.31
2.04103	5.30
2.05770	5.29
2.07437	5.28
2.09103	5.27
2.10770	5.26
2.12437	5.25
2.14103	5.24
2.15770	5.23
2.17437	5.22
2.19103	5.21
2.20770	5.20
2.22437	5.19
2.24103	5.18
2.25770	5.18
2.27437	5.17
2.29103	5.16
2.30770	5.15
2.32437	5.14
2.34103	5.13
2.35770	5.12
2.37437	5.12
2.39103	5.11
2.40770	5.11
2.42437	5.11
2.44103	5.11
2.45770	5.11
2.47437	5.11
2.49103	5.11
2.50770	5.11
2.52437	5.11
2.54103	5.11
2.55770	5.11
2.57437	5.11
2.59103	5.11
2.60770	5.11
2.62437	5.11
2.64103	5.11
2.65770	5.11
2.67437	5.11
2.69103	5.11
2.70770	5.11
2.72437	5.11
2.74103	5.11
2.75770	5.11
2.77437	5.11
2.79103	5.11
2.80770	5.11
2.82437	5.11
2.84103	5.11
2.85770	5.11
2.87437	5.11
2.89103	5.11
2.90770	5.11
2.92437	5.11
2.94103	5.11
2.95770	5.11
2.97437	5.11
2.99103	5.10
3.00770	5.10
3.02437	5.10
3.04103	5.10
3.05770	5.11
3.07437	5.11
3.09103	5.10
3.10770	5.11
3.12437	5.10
3.14103	5.10
3.15770	5.10
3.17437	5.10
3.19103	5.10
3.20770	5.10
3.22437	5.10
3.24103	5.10
3.25770	5.10
3.27437	5.10
3.29103	5.10
3.30770	5.10
3.32437	5.10
3.34103	5.10
3.35770	5.10
3.37437	5.10
3.39103	5.10
3.40770	5.10
3.42437	5.10
3.44103	5.10
3.45770	5.10
3.47437	5.10
3.49103	5.10
3.50770	5.10
3.52437	5.10
3.54103	5.10
3.55770	5.10
3.57437	5.10
3.59103	5.10
3.60770	5.10
3.62437	5.10
3.64103	5.10
3.65770	5.10
3.67437	5.10
3.69103	5.10
3.70770	5.10
3.72437	5.10
3.74103	5.10
3.75770	5.10
3.77437	5.10
3.79103	5.10
3.80770	5.10
3.82437	5.10
3.84103	5.10
3.85770	5.10
3.87437	5.10
3.89103	5.10
3.90770	5.10
3.92437	5.10
3.94103	5.10
3.95770	5.10
3.97437	5.10
3.99103	5.10

[Status Trace (Linear Velocity)]
Interval(msec)	1000
# of Points	240
Start Time(min)	0.008
End Time(min)	3.991
Intensity Units	
Intensity Multiplier	1
R.Time (min)	Intensity
0.00770	39.02
0.02437	37.36
0.04103	38.42
0.05770	39.85
0.07437	39.99
0.09103	39.06
0.10770	39.01
0.12437	39.03
0.14103	39.03
0.15770	39.02
0.17437	39.02
0.19103	39.02
0.20770	39.02
0.22437	39.02
0.24103	39.02
0.25770	39.02
0.27437	39.02
0.29103	39.02
0.30770	39.02
0.32437	39.02
0.34103	39.02
0.35770	39.02
0.37437	39.02
0.39103	39.02
0.40770	39.02
0.42437	39.02
0.44103	39.02
0.45770	39.02
0.47437	39.02
0.49103	39.02
0.50770	39.02
0.52437	39.02
0.54103	39.02
0.55770	39.02
0.57437	39.02
0.59103	39.03
0.60770	39.03
0.62437	39.03
0.64103	39.03
0.65770	39.02
0.67437	39.02
0.69103	39.02
0.70770	39.02
0.72437	39.02
0.74103	39.02
0.75770	39.02
0.77437	39.02
0.79103	39.02
0.80770	39.02
0.82437	39.02
0.84103	39.02
0.85770	39.02
0.87437	39.02
0.89103	39.02
0.90770	39.02
0.92437	39.03
0.94103	39.02
0.95770	39.02
0.97437	39.02
0.99103	39.02
1.00770	39.02
1.02437	39.02
1.04103	39.02
1.05770	39.02
1.07437	39.02
1.09103	39.02
1.10770	39.02
1.12437	39.02
1.14103	39.02
1.15770	39.02
1.17437	39.02
1.19103	39.02
1.20770	39.02
1.22437	39.02
1.24103	39.02
1.25770	39.02
1.27437	39.02
1.29103	39.03
1.30770	39.03
1.32437	39.03
1.34103	39.03
1.35770	39.03
1.37437	39.03
1.39103	39.03
1.40770	39.03
1.42437	39.03
1.44103	39.03
1.45770	39.03
1.47437	39.03
1.49103	39.03
1.50770	39.03
1.52437	39.02
1.54103	39.02
1.55770	39.02
1.57437	39.02
1.59103	39.02
1.60770	39.02
1.62437	39.01
1.64103	38.99
1.65770	38.97
1.67437	38.93
1.69103	38.90
1.70770	38.86
1.72437	38.83
1.74103	38.80
1.75770	38.77
1.77437	38.74
1.79103	38.70
1.80770	38.68
1.82437	38.65
1.84103	38.62
1.85770	38.58
1.87437	38.55
1.89103	38.52
1.90770	38.49
1.92437	38.46
1.94103	38.43
1.95770	38.40
1.97437	38.37
1.99103	38.34
2.00770	38.31
2.02437	38.28
2.04103	38.25
2.05770	38.22
2.07437	38.19
2.09103	38.16
2.10770	38.13
2.12437	38.10
2.14103	38.07
2.15770	38.04
2.17437	38.01
2.19103	37.98
2.20770	37.95
2.22437	37.92
2.24103	37.89
2.25770	37.86
2.27437	37.83
2.29103	37.81
2.30770	37.77
2.32437	37.74
2.34103	37.71
2.35770	37.69
2.37437	37.67
2.39103	37.67
2.40770	37.67
2.42437	37.67
2.44103	37.67
2.45770	37.67
2.47437	37.67
2.49103	37.67
2.50770	37.66
2.52437	37.66
2.54103	37.66
2.55770	37.66
2.57437	37.66
2.59103	37.66
2.60770	37.66
2.62437	37.66
2.64103	37.66
2.65770	37.66
2.67437	37.65
2.69103	37.65
2.70770	37.65
2.72437	37.65
2.74103	37.65
2.75770	37.65
2.77437	37.65
2.79103	37.65
2.80770	37.65
2.82437	37.65
2.84103	37.65
2.85770	37.65
2.87437	37.65
2.89103	37.65
2.90770	37.65
2.92437	37.65
2.94103	37.65
2.95770	37.64
2.97437	37.64
2.99103	37.64
3.00770	37.64
3.02437	37.64
3.04103	37.64
3.05770	37.64
3.07437	37.64
3.09103	37.64
3.10770	37.64
3.12437	37.64
3.14103	37.64
3.15770	37.64
3.17437	37.64
3.19103	37.64
3.20770	37.63
3.22437	37.63
3.24103	37.63
3.25770	37.63
3.27437	37.63
3.29103	37.63
3.30770	37.63
3.32437	37.63
3.34103	37.63
3.35770	37.63
3.37437	37.63
3.39103	37.63
3.40770	37.63
3.42437	37.63
3.44103	37.63
3.45770	37.63
3.47437	37.63
3.49103	37.63
3.50770	37.63
3.52437	37.64
3.54103	37.64
3.55770	37.64
3.57437	37.64
3.59103	37.64
3.60770	37.64
3.62437	37.64
3.64103	37.64
3.65770	37.63
3.67437	37.63
3.69103	37.63
3.70770	37.64
3.72437	37.64
3.74103	37.64
3.75770	37.64
3.77437	37.64
3.79103	37.64
3.80770	37.64
3.82437	37.64
3.84103	37.64
3.85770	37.64
3.87437	37.64
3.89103	37.64
3.90770	37.64
3.92437	37.64
3.94103	37.64
3.95770	37.63
3.97437	37.64
3.99103	37.64

