[Header]
Application Name	LabSolutions
Version	5.110
Data File Name	C:\Users\User\Desktop\GC Analyses\Jack\Nachusa Grasslands Sampling\T4 Timepoint July 12th\T4_07122022_014.gcd
Output Date	3/17/2023
Output Time	12:04:51 PM

[File Information]
Type	Data File
Generated	3/14/2023 4:51:11 PM
Generated by	System Administrator
Modified	3/14/2023 4:58:01 PM
Modified by	System Administrator

[Sample Information]
Operator Name	System Administrator
Acquired	3/14/2023 4:54:01 PM
Sample Type	0:Unknown
Level	0
Sample Name	014
Sample ID	014
ISTD Amount1	1
ISTD Amount2	1
ISTD Amount3	1
ISTD Amount4	1
ISTD Amount5	1
ISTD Amount6	1
ISTD Amount7	1
ISTD Amount8	1
ISTD Amount9	1
ISTD Amount10	1
ISTD Amount11	1
ISTD Amount12	1
ISTD Amount13	1
ISTD Amount14	1
ISTD Amount15	1
ISTD Amount16	1
ISTD Amount17	1
ISTD Amount18	1
ISTD Amount19	1
ISTD Amount20	1
ISTD Amount21	1
ISTD Amount22	1
ISTD Amount23	1
ISTD Amount24	1
ISTD Amount25	1
ISTD Amount26	1
ISTD Amount27	1
ISTD Amount28	1
ISTD Amount29	1
ISTD Amount30	1
ISTD Amount31	1
ISTD Amount32	1
Sample Amount	1
Dilution Factor	1
Vial#	13
Injection Volume	1
Injection Count	1
Bar Code	

[Original Files]
Data File	C:\Users\User\Desktop\GC Analyses\Jack\Nachusa Grasslands Sampling\T4 Timepoint July 12th\T4_07122022_014.gcd
Method File	C:\LabSolutions\Data\GHG_4min_2022\ghg3_togas_w_acet_4 min_new_int.gcm
Batch File	C:\LabSolutions\Data\AutoSamplerTesting\T4_07122022.gcb
Report Format File	c:\LabSolutions\System\DEFAULT.lsr

[File Description]


[Configuration]
Instrument Name	C0B7VH3-Instrument1
Instrument #	1
Line #	1
# of Detectors	3
Detector ID	DET#1	DET#2	DET#3
Detector Name	FID	PTCD	ECD
# of Channels	1	1	1

[Peak Table(Ch1)]
# of Peaks	3
Peak#	R.Time	I.Time	F.Time	Area	Height	A/H	Conc.	Mark	ID#	Name	k'	Plate #	Plate Ht.	Tailing	Resolution	Sep.Factor	Area Ratio	Height Ratio	Conc. %	Norm Conc.
1	1.476	1.435	1.534	21391	10551	2.027	151.024	   	1	CO	0.000	9641	15.559	1.256	0.000	0.000	0	0	20.330	20.330
2	1.571	1.538	1.622	3786	1939	1.953	73.202	   	2	CH4	0.065	11665	12.859	1.126	1.612	0.000	0	0	9.854	9.854
3	1.996	1.952	2.330	2066544	989147	2.089	518.647	   	3	CO2	0.353	17450	8.596	1.340	7.171	5.462	0	0	69.816	69.816

[Peak Table(Ch2)]
# of Peaks	0

[Peak Table(Ch3)]
# of Peaks	5
Peak#	R.Time	I.Time	F.Time	Area	Height	A/H	Conc.	Mark	ID#	Name	k'	Plate #	Plate Ht.	Tailing	Resolution	Sep.Factor	Area Ratio	Height Ratio	Conc. %	Norm Conc.
1	2.462	2.330	2.510	1875	595	3.151	0.000	   			0.000	10013	14.981	0.000	0.000	0.000	0	0	0.000	0.000
2	2.528	2.510	2.579	1027	344	2.982	0.000	 V 			0.027	5328	28.153	0.000	0.557	0.000	0	0	0.000	0.000
3	2.605	2.579	2.682	627	166	3.775	0.000	 V 			0.058	1439	104.275	0.000	0.373	2.167	0	0	0.000	0.000
4	2.880	2.700	3.067	19388	4845	4.002	0.495	   	1	N2O	0.170	12971	11.564	1.532	1.463	2.923	0	0	100.000	100.000
5	3.269	3.071	3.995	20228	630	32.112	0.000	   	2	SF6	0.328	185	812.467	2.279	0.731	1.930	0	0	0.000	0.000

[Compound Results(Ch1)]
# of IDs	6
ID#	Name	R.Time	Area	Height	Conc.	Curve	3rd	2nd	1st	Constant	Area Ratio	Height Ratio	Conc. %	Norm Conc.
1	CO	1.476	21391	10551	151.024	Linear	0.000000e+00	0.000000e+00	1.416423e+002	0.000000e+00	0	0	20.330	20.330
2	CH4	1.571	3786	1939	73.202	Linear	0.000000e+00	0.000000e+00	5.171738e+001	0.000000e+00	0	0	9.854	9.854
3	CO2	1.996	2066544	989147	518.647	Linear	0.000000e+00	0.000000e+00	3.984494e+003	0.000000e+00	0	0	69.816	69.816
4	Ethylene	0.000	0	0	0.000	Linear	0.000000e+00	0.000000e+00	0.000000e+00	0.000000e+00	0	0	0.000	0.000
5	Acetylene	0.000	0	0	0.000	Linear	0.000000e+00	0.000000e+00	0.000000e+00	0.000000e+00	0	0	0.000	0.000
6	Ethane	0.000	0	0	0.000	Linear	0.000000e+00	0.000000e+00	0.000000e+00	0.000000e+00	0	0	0.000	0.000

[Compound Results(Ch2)]
# of IDs	5
ID#	Name	R.Time	Area	Height	Conc.	Curve	3rd	2nd	1st	Constant	Area Ratio	Height Ratio	Conc. %	Norm Conc.
1	Hydrogen	0.000	0	0	0.000	Linear	0.000000e+00	0.000000e+00	0.000000e+00	0.000000e+00	0	0	0.000	0.000
2	Oxygen	0.000	0	0	0.000	Linear	0.000000e+00	0.000000e+00	0.000000e+00	0.000000e+00	0	0	0.000	0.000
3	Nitrogen	0.000	0	0	0.000	Linear	0.000000e+00	0.000000e+00	0.000000e+00	0.000000e+00	0	0	0.000	0.000
4	Methane	0.000	0	0	0.000	Linear	0.000000e+00	0.000000e+00	0.000000e+00	0.000000e+00	0	0	0.000	0.000
5	Carbon Monoxide	0.000	0	0	0.000	Linear	0.000000e+00	0.000000e+00	0.000000e+00	0.000000e+00	0	0	0.000	0.000

[Compound Results(Ch3)]
# of IDs	2
ID#	Name	R.Time	Area	Height	Conc.	Curve	3rd	2nd	1st	Constant	Area Ratio	Height Ratio	Conc. %	Norm Conc.
1	N2O	2.880	19388	4845	0.495	Linear	0.000000e+00	0.000000e+00	3.915173e+004	0.000000e+00	0	0	100.000	100.000
2	SF6	3.269	20228	630	0.000	Linear	0.000000e+00	0.000000e+00	0.000000e+00	0.000000e+00	0	0	0.000	0.000

[Group Results(Ch1)]
# of Groups	0

[Group Results(Ch2)]
# of Groups	0

[Group Results(Ch3)]
# of Groups	0

[Chromatogram (Ch1)]
Interval(msec)	220
# of Points	1091
Start Time(min)	0.002
End Time(min)	3.998
R.Time (min)	Intensity
0.00167	8
0.00533	10
0.00900	15
0.01267	17
0.01633	18
0.02000	23
0.02367	24
0.02733	23
0.03100	19
0.03467	14
0.03833	13
0.04200	14
0.04567	14
0.04933	13
0.05300	9
0.05667	7
0.06033	7
0.06400	8
0.06767	10
0.07133	14
0.07500	20
0.07867	25
0.08233	29
0.08600	32
0.08967	36
0.09333	41
0.09700	44
0.10067	50
0.10433	58
0.10800	67
0.11167	75
0.11533	81
0.11900	87
0.12267	86
0.12633	81
0.13000	77
0.13367	74
0.13733	70
0.14100	67
0.14467	68
0.14833	70
0.15200	73
0.15567	73
0.15933	70
0.16300	65
0.16667	59
0.17033	55
0.17400	52
0.17767	48
0.18133	44
0.18500	42
0.18867	40
0.19233	40
0.19600	40
0.19967	35
0.20333	32
0.20700	33
0.21067	32
0.21433	28
0.21800	18
0.22167	7
0.22533	0
0.22900	-3
0.23267	-7
0.23633	-11
0.24000	-6
0.24367	0
0.24733	1
0.25100	-3
0.25467	-9
0.25833	-13
0.26200	-12
0.26567	-2
0.26933	7
0.27300	8
0.27667	5
0.28033	5
0.28400	3
0.28767	-3
0.29133	-7
0.29500	-12
0.29867	-14
0.30233	-10
0.30600	-3
0.30967	4
0.31333	8
0.31700	10
0.32067	12
0.32433	12
0.32800	8
0.33167	0
0.33533	-5
0.33900	-10
0.34267	-13
0.34633	-15
0.35000	-14
0.35367	-10
0.35733	-3
0.36100	5
0.36467	7
0.36833	7
0.37200	8
0.37567	10
0.37933	9
0.38300	5
0.38667	1
0.39033	-4
0.39400	-10
0.39767	-16
0.40133	-20
0.40500	-23
0.40867	-26
0.41233	-25
0.41600	-15
0.41967	-11
0.42333	-9
0.42700	-9
0.43067	-9
0.43433	-10
0.43800	-11
0.44167	-9
0.44533	-4
0.44900	1
0.45267	2
0.45633	-1
0.46000	-7
0.46367	-11
0.46733	-11
0.47100	-8
0.47467	-7
0.47833	-5
0.48200	1
0.48567	9
0.48933	15
0.49300	17
0.49667	13
0.50033	9
0.50400	12
0.50767	14
0.51133	13
0.51500	14
0.51867	18
0.52233	21
0.52600	16
0.52967	7
0.53333	2
0.53700	6
0.54067	8
0.54433	1
0.54800	-7
0.55167	-11
0.55533	-10
0.55900	-10
0.56267	-8
0.56633	-12
0.57000	-16
0.57367	-17
0.57733	-16
0.58100	-14
0.58467	-17
0.58833	-19
0.59200	-20
0.59567	-21
0.59933	-23
0.60300	-26
0.60667	-27
0.61033	-26
0.61400	-22
0.61767	-18
0.62133	-15
0.62500	-12
0.62867	-11
0.63233	-7
0.63600	-3
0.63967	4
0.64333	14
0.64700	19
0.65067	17
0.65433	9
0.65800	5
0.66167	3
0.66533	-2
0.66900	-13
0.67267	-26
0.67633	-30
0.68000	-27
0.68367	-21
0.68733	-15
0.69100	-8
0.69467	-2
0.69833	5
0.70200	15
0.70567	22
0.70933	23
0.71300	20
0.71667	19
0.72033	19
0.72400	16
0.72767	14
0.73133	16
0.73500	14
0.73867	5
0.74233	-9
0.74600	-15
0.74967	-10
0.75333	-1
0.75700	5
0.76067	7
0.76433	3
0.76800	-6
0.77167	-14
0.77533	-20
0.77900	-23
0.78267	-26
0.78633	-30
0.79000	-33
0.79367	-33
0.79733	-25
0.80100	-13
0.80467	-3
0.80833	-1
0.81200	-2
0.81567	2
0.81933	11
0.82300	24
0.82667	32
0.83033	31
0.83400	28
0.83767	14
0.84133	-6
0.84500	-24
0.84867	-35
0.85233	-39
0.85600	-39
0.85967	-36
0.86333	-31
0.86700	-24
0.87067	-15
0.87433	-10
0.87800	-10
0.88167	-8
0.88533	-8
0.88900	-10
0.89267	-5
0.89633	0
0.90000	1
0.90367	1
0.90733	0
0.91100	2
0.91467	2
0.91833	-1
0.92200	-2
0.92567	4
0.92933	11
0.93300	16
0.93667	16
0.94033	12
0.94400	8
0.94767	7
0.95133	7
0.95500	8
0.95867	7
0.96233	6
0.96600	8
0.96967	7
0.97333	2
0.97700	-1
0.98067	5
0.98433	15
0.98800	21
0.99167	17
0.99533	14
0.99900	16
1.00267	16
1.00633	14
1.01000	14
1.01367	17
1.01733	18
1.02100	21
1.02467	23
1.02833	18
1.03200	13
1.03567	6
1.03933	2
1.04300	7
1.04667	15
1.05033	20
1.05400	20
1.05767	19
1.06133	17
1.06500	16
1.06867	14
1.07233	9
1.07600	5
1.07967	1
1.08333	1
1.08700	5
1.09067	5
1.09433	6
1.09800	9
1.10167	12
1.10533	14
1.10900	18
1.11267	23
1.11633	24
1.12000	18
1.12367	11
1.12733	7
1.13100	5
1.13467	11
1.13833	19
1.14200	21
1.14567	16
1.14933	11
1.15300	6
1.15667	5
1.16033	7
1.16400	8
1.16767	6
1.17133	3
1.17500	4
1.17867	9
1.18233	20
1.18600	28
1.18967	26
1.19333	22
1.19700	21
1.20067	20
1.20433	19
1.20800	16
1.21167	19
1.21533	27
1.21900	34
1.22267	31
1.22633	23
1.23000	15
1.23367	7
1.23733	1
1.24100	-5
1.24467	-8
1.24833	-6
1.25200	-3
1.25567	1
1.25933	3
1.26300	4
1.26667	8
1.27033	10
1.27400	14
1.27767	20
1.28133	19
1.28500	16
1.28867	11
1.29233	1
1.29600	-10
1.29967	-19
1.30333	-24
1.30700	-24
1.31067	-16
1.31433	-8
1.31800	-7
1.32167	-11
1.32533	-12
1.32900	-10
1.33267	-8
1.33633	-9
1.34000	-10
1.34367	-11
1.34733	-11
1.35100	-5
1.35467	3
1.35833	11
1.36200	14
1.36567	9
1.36933	1
1.37300	-2
1.37667	-2
1.38033	2
1.38400	3
1.38767	-5
1.39133	-14
1.39500	-19
1.39867	-19
1.40233	-15
1.40600	-13
1.40967	-12
1.41333	-11
1.41700	-6
1.42067	-5
1.42433	-7
1.42800	-10
1.43167	-12
1.43533	-10
1.43900	-2
1.44267	35
1.44633	170
1.45000	531
1.45367	1400
1.45733	2977
1.46100	5012
1.46467	7039
1.46833	8725
1.47200	9916
1.47567	10517
1.47933	10418
1.48300	9605
1.48667	8233
1.49033	6589
1.49400	4971
1.49767	3574
1.50133	2471
1.50500	1652
1.50867	1065
1.51233	658
1.51600	383
1.51967	204
1.52333	88
1.52700	11
1.53067	-39
1.53433	-70
1.53800	-75
1.54167	-36
1.54533	92
1.54900	350
1.55267	707
1.55633	1089
1.56000	1425
1.56367	1677
1.56733	1830
1.57100	1861
1.57467	1748
1.57833	1506
1.58200	1193
1.58567	877
1.58933	601
1.59300	377
1.59667	212
1.60033	103
1.60400	35
1.60767	-6
1.61133	-33
1.61500	-54
1.61867	-72
1.62233	-82
1.62600	-85
1.62967	-86
1.63333	-87
1.63700	-88
1.64067	-90
1.64433	-91
1.64800	-86
1.65167	-82
1.65533	-80
1.65900	-82
1.66267	-84
1.66633	-85
1.67000	-87
1.67367	-86
1.67733	-87
1.68100	-88
1.68467	-86
1.68833	-83
1.69200	-79
1.69567	-73
1.69933	-69
1.70300	-68
1.70667	-71
1.71033	-74
1.71400	-76
1.71767	-75
1.72133	-75
1.72500	-74
1.72867	-73
1.73233	-68
1.73600	-63
1.73967	-63
1.74333	-64
1.74700	-66
1.75067	-69
1.75433	-69
1.75800	-66
1.76167	-63
1.76533	-64
1.76900	-66
1.77267	-61
1.77633	-51
1.78000	-41
1.78367	-40
1.78733	-48
1.79100	-62
1.79467	-73
1.79833	-75
1.80200	-73
1.80567	-73
1.80933	-72
1.81300	-72
1.81667	-73
1.82033	-79
1.82400	-88
1.82767	-96
1.83133	-98
1.83500	-97
1.83867	-94
1.84233	-91
1.84600	-89
1.84967	-84
1.85333	-74
1.85700	-60
1.86067	-50
1.86433	-48
1.86800	-54
1.87167	-64
1.87533	-68
1.87900	-70
1.88267	-67
1.88633	-63
1.89000	-57
1.89367	-53
1.89733	-55
1.90100	-59
1.90467	-60
1.90833	-58
1.91200	-58
1.91567	-57
1.91933	-55
1.92300	-62
1.92667	-69
1.93033	-69
1.93400	-63
1.93767	-56
1.94133	-54
1.94500	-54
1.94867	-54
1.95233	-42
1.95600	55
1.95967	666
1.96333	3715
1.96700	15189
1.97067	48192
1.97433	121342
1.97800	247447
1.98167	419480
1.98533	610420
1.98900	786369
1.99267	918945
1.99633	989139
2.00000	988778
2.00367	921645
2.00733	803802
2.01100	659115
2.01467	511959
2.01833	380373
2.02200	273251
2.02567	191818
2.02933	132859
2.03300	91586
2.03667	63323
2.04033	44220
2.04400	31376
2.04767	22733
2.05133	16875
2.05500	12857
2.05867	10063
2.06233	8085
2.06600	6652
2.06967	5586
2.07333	4774
2.07700	4140
2.08067	3631
2.08433	3218
2.08800	2884
2.09167	2609
2.09533	2376
2.09900	2176
2.10267	2001
2.10633	1846
2.11000	1710
2.11367	1592
2.11733	1490
2.12100	1405
2.12467	1329
2.12833	1253
2.13200	1182
2.13567	1119
2.13933	1058
2.14300	1000
2.14667	952
2.15033	913
2.15400	881
2.15767	849
2.16133	811
2.16500	767
2.16867	724
2.17233	687
2.17600	662
2.17967	640
2.18333	620
2.18700	604
2.19067	587
2.19433	570
2.19800	551
2.20167	532
2.20533	514
2.20900	498
2.21267	486
2.21633	478
2.22000	468
2.22367	456
2.22733	441
2.23100	426
2.23467	413
2.23833	401
2.24200	388
2.24567	375
2.24933	363
2.25300	353
2.25667	347
2.26033	342
2.26400	338
2.26767	331
2.27133	323
2.27500	316
2.27867	316
2.28233	318
2.28600	322
2.28967	318
2.29333	309
2.29700	300
2.30067	291
2.30433	283
2.30800	274
2.31167	266
2.31533	263
2.31900	263
2.32267	263
2.32633	261
2.33000	253
2.33367	248
2.33733	246
2.34100	243
2.34467	242
2.34833	243
2.35200	242
2.35567	246
2.35933	255
2.36300	264
2.36667	270
2.37033	265
2.37400	248
2.37767	228
2.38133	212
2.38500	202
2.38867	191
2.39233	177
2.39600	176
2.39967	178
2.40333	177
2.40700	178
2.41067	180
2.41433	180
2.41800	177
2.42167	176
2.42533	181
2.42900	182
2.43267	175
2.43633	171
2.44000	172
2.44367	172
2.44733	171
2.45100	168
2.45467	167
2.45833	167
2.46200	166
2.46567	165
2.46933	165
2.47300	164
2.47667	157
2.48033	153
2.48400	151
2.48767	150
2.49133	149
2.49500	149
2.49867	150
2.50233	155
2.50600	159
2.50967	163
2.51333	168
2.51700	168
2.52067	168
2.52433	173
2.52800	179
2.53167	176
2.53533	164
2.53900	154
2.54267	144
2.54633	132
2.55000	124
2.55367	120
2.55733	120
2.56100	121
2.56467	124
2.56833	131
2.57200	146
2.57567	159
2.57933	162
2.58300	157
2.58667	150
2.59033	145
2.59400	142
2.59767	141
2.60133	144
2.60500	149
2.60867	153
2.61233	155
2.61600	150
2.61967	143
2.62333	138
2.62700	130
2.63067	124
2.63433	123
2.63800	124
2.64167	128
2.64533	136
2.64900	145
2.65267	150
2.65633	148
2.66000	146
2.66367	146
2.66733	146
2.67100	148
2.67467	149
2.67833	145
2.68200	137
2.68567	132
2.68933	130
2.69300	132
2.69667	138
2.70033	138
2.70400	137
2.70767	135
2.71133	134
2.71500	136
2.71867	139
2.72233	142
2.72600	140
2.72967	136
2.73333	136
2.73700	142
2.74067	148
2.74433	151
2.74800	152
2.75167	155
2.75533	160
2.75900	162
2.76267	160
2.76633	156
2.77000	153
2.77367	149
2.77733	151
2.78100	148
2.78467	142
2.78833	137
2.79200	130
2.79567	128
2.79933	129
2.80300	132
2.80667	134
2.81033	139
2.81400	148
2.81767	151
2.82133	152
2.82500	151
2.82867	150
2.83233	145
2.83600	138
2.83967	136
2.84333	134
2.84700	133
2.85067	134
2.85433	135
2.85800	138
2.86167	143
2.86533	150
2.86900	159
2.87267	170
2.87633	175
2.88000	174
2.88367	170
2.88733	162
2.89100	156
2.89467	152
2.89833	149
2.90200	151
2.90567	157
2.90933	164
2.91300	163
2.91667	160
2.92033	157
2.92400	159
2.92767	163
2.93133	166
2.93500	166
2.93867	166
2.94233	169
2.94600	171
2.94967	173
2.95333	171
2.95700	161
2.96067	152
2.96433	147
2.96800	145
2.97167	145
2.97533	150
2.97900	157
2.98267	168
2.98633	176
2.99000	175
2.99367	171
2.99733	168
3.00100	168
3.00467	170
3.00833	174
3.01200	177
3.01567	177
3.01933	180
3.02300	188
3.02667	191
3.03033	184
3.03400	170
3.03767	157
3.04133	149
3.04500	147
3.04867	151
3.05233	156
3.05600	163
3.05967	168
3.06333	171
3.06700	178
3.07067	181
3.07433	178
3.07800	174
3.08167	169
3.08533	165
3.08900	167
3.09267	169
3.09633	169
3.10000	163
3.10367	160
3.10733	162
3.11100	174
3.11467	180
3.11833	180
3.12200	179
3.12567	180
3.12933	181
3.13300	184
3.13667	195
3.14033	209
3.14400	218
3.14767	217
3.15133	209
3.15500	196
3.15867	188
3.16233	183
3.16600	181
3.16967	179
3.17333	178
3.17700	173
3.18067	163
3.18433	157
3.18800	156
3.19167	155
3.19533	150
3.19900	145
3.20267	144
3.20633	150
3.21000	162
3.21367	167
3.21733	163
3.22100	159
3.22467	157
3.22833	160
3.23200	169
3.23567	175
3.23933	177
3.24300	174
3.24667	169
3.25033	163
3.25400	165
3.25767	171
3.26133	172
3.26500	174
3.26867	179
3.27233	180
3.27600	178
3.27967	177
3.28333	179
3.28700	180
3.29067	181
3.29433	182
3.29800	180
3.30167	177
3.30533	176
3.30900	179
3.31267	180
3.31633	178
3.32000	173
3.32367	167
3.32733	167
3.33100	170
3.33467	175
3.33833	175
3.34200	171
3.34567	170
3.34933	169
3.35300	174
3.35667	182
3.36033	189
3.36400	188
3.36767	185
3.37133	176
3.37500	161
3.37867	150
3.38233	147
3.38600	147
3.38967	147
3.39333	148
3.39700	149
3.40067	153
3.40433	159
3.40800	160
3.41167	159
3.41533	160
3.41900	161
3.42267	160
3.42633	156
3.43000	151
3.43367	151
3.43733	157
3.44100	170
3.44467	187
3.44833	200
3.45200	203
3.45567	198
3.45933	191
3.46300	182
3.46667	175
3.47033	171
3.47400	169
3.47767	167
3.48133	166
3.48500	166
3.48867	173
3.49233	186
3.49600	197
3.49967	198
3.50333	190
3.50700	177
3.51067	164
3.51433	160
3.51800	158
3.52167	155
3.52533	156
3.52900	162
3.53267	165
3.53633	167
3.54000	167
3.54367	168
3.54733	173
3.55100	176
3.55467	178
3.55833	175
3.56200	174
3.56567	179
3.56933	185
3.57300	191
3.57667	184
3.58033	169
3.58400	164
3.58767	167
3.59133	171
3.59500	173
3.59867	171
3.60233	172
3.60600	172
3.60967	168
3.61333	166
3.61700	172
3.62067	171
3.62433	170
3.62800	172
3.63167	167
3.63533	163
3.63900	157
3.64267	150
3.64633	145
3.65000	142
3.65367	142
3.65733	149
3.66100	156
3.66467	159
3.66833	160
3.67200	163
3.67567	164
3.67933	163
3.68300	166
3.68667	174
3.69033	180
3.69400	182
3.69767	183
3.70133	182
3.70500	177
3.70867	175
3.71233	169
3.71600	164
3.71967	164
3.72333	164
3.72700	163
3.73067	162
3.73433	160
3.73800	156
3.74167	153
3.74533	160
3.74900	166
3.75267	166
3.75633	161
3.76000	158
3.76367	155
3.76733	153
3.77100	147
3.77467	141
3.77833	146
3.78200	159
3.78567	167
3.78933	169
3.79300	159
3.79667	144
3.80033	134
3.80400	129
3.80767	124
3.81133	118
3.81500	122
3.81867	137
3.82233	150
3.82600	155
3.82967	152
3.83333	148
3.83700	147
3.84067	148
3.84433	146
3.84800	144
3.85167	139
3.85533	133
3.85900	129
3.86267	130
3.86633	131
3.87000	137
3.87367	146
3.87733	150
3.88100	150
3.88467	146
3.88833	143
3.89200	145
3.89567	141
3.89933	138
3.90300	136
3.90667	137
3.91033	132
3.91400	134
3.91767	145
3.92133	153
3.92500	156
3.92867	159
3.93233	158
3.93600	154
3.93967	148
3.94333	142
3.94700	136
3.95067	134
3.95433	140
3.95800	147
3.96167	148
3.96533	141
3.96900	132
3.97267	128
3.97633	125
3.98000	121
3.98367	120
3.98733	116
3.99100	111
3.99467	110
3.99833	114

[Chromatogram (Ch2)]
Interval(msec)	220
# of Points	1091
Start Time(min)	0.002
End Time(min)	3.998
R.Time (min)	Intensity
0.00167	-0
0.00533	-0
0.00900	-0
0.01267	-0
0.01633	-0
0.02000	-0
0.02367	-0
0.02733	-1
0.03100	-1
0.03467	-1
0.03833	-2
0.04200	-2
0.04567	-3
0.04933	-3
0.05300	-3
0.05667	-3
0.06033	-3
0.06400	-3
0.06767	-3
0.07133	-3
0.07500	-4
0.07867	-4
0.08233	-4
0.08600	-4
0.08967	-4
0.09333	-4
0.09700	-4
0.10067	-4
0.10433	-4
0.10800	-4
0.11167	-4
0.11533	-4
0.11900	-4
0.12267	-4
0.12633	-4
0.13000	-4
0.13367	-4
0.13733	-4
0.14100	-4
0.14467	-4
0.14833	-4
0.15200	-4
0.15567	-4
0.15933	-4
0.16300	-4
0.16667	-3
0.17033	-3
0.17400	-3
0.17767	-3
0.18133	-3
0.18500	-3
0.18867	-3
0.19233	-3
0.19600	-3
0.19967	-3
0.20333	-3
0.20700	-3
0.21067	-3
0.21433	-3
0.21800	-3
0.22167	-3
0.22533	-4
0.22900	-4
0.23267	-4
0.23633	-4
0.24000	-3
0.24367	-3
0.24733	-3
0.25100	-3
0.25467	-3
0.25833	-3
0.26200	-3
0.26567	-3
0.26933	-3
0.27300	-3
0.27667	-3
0.28033	-3
0.28400	-3
0.28767	-3
0.29133	-3
0.29500	-3
0.29867	-3
0.30233	-3
0.30600	-3
0.30967	-4
0.31333	-4
0.31700	-5
0.32067	-6
0.32433	-6
0.32800	-6
0.33167	-6
0.33533	-6
0.33900	-6
0.34267	-6
0.34633	-6
0.35000	-6
0.35367	-5
0.35733	-5
0.36100	-5
0.36467	-5
0.36833	-5
0.37200	-4
0.37567	-4
0.37933	-4
0.38300	-4
0.38667	-4
0.39033	-4
0.39400	-4
0.39767	-3
0.40133	-3
0.40500	-3
0.40867	-3
0.41233	-3
0.41600	-3
0.41967	-2
0.42333	-2
0.42700	-2
0.43067	-2
0.43433	-2
0.43800	-2
0.44167	-2
0.44533	-2
0.44900	-3
0.45267	-3
0.45633	-3
0.46000	-3
0.46367	-4
0.46733	-4
0.47100	-4
0.47467	-5
0.47833	-5
0.48200	-5
0.48567	-5
0.48933	-6
0.49300	-6
0.49667	-6
0.50033	-6
0.50400	-6
0.50767	-6
0.51133	-6
0.51500	-6
0.51867	-6
0.52233	-5
0.52600	-5
0.52967	-5
0.53333	-4
0.53700	-4
0.54067	-4
0.54433	-4
0.54800	-3
0.55167	-3
0.55533	-3
0.55900	-3
0.56267	-3
0.56633	-3
0.57000	-3
0.57367	-4
0.57733	-4
0.58100	-4
0.58467	-4
0.58833	-4
0.59200	-4
0.59567	-4
0.59933	-3
0.60300	-3
0.60667	-3
0.61033	-3
0.61400	-3
0.61767	-3
0.62133	-3
0.62500	-3
0.62867	-3
0.63233	-4
0.63600	-4
0.63967	-4
0.64333	-4
0.64700	-4
0.65067	-4
0.65433	-3
0.65800	-3
0.66167	-2
0.66533	-2
0.66900	-2
0.67267	-2
0.67633	-2
0.68000	-2
0.68367	-2
0.68733	-2
0.69100	-2
0.69467	-2
0.69833	-2
0.70200	-3
0.70567	-3
0.70933	-3
0.71300	-4
0.71667	-5
0.72033	-5
0.72400	-6
0.72767	-6
0.73133	-7
0.73500	-7
0.73867	-7
0.74233	-7
0.74600	-7
0.74967	-7
0.75333	-7
0.75700	-7
0.76067	-7
0.76433	-7
0.76800	-8
0.77167	-8
0.77533	-8
0.77900	-7
0.78267	-7
0.78633	-7
0.79000	-7
0.79367	-7
0.79733	-6
0.80100	-6
0.80467	-6
0.80833	-6
0.81200	-6
0.81567	-5
0.81933	-5
0.82300	-5
0.82667	-4
0.83033	-4
0.83400	-4
0.83767	-4
0.84133	-4
0.84500	-4
0.84867	-5
0.85233	-5
0.85600	-5
0.85967	-6
0.86333	-6
0.86700	-6
0.87067	-6
0.87433	-6
0.87800	-6
0.88167	-7
0.88533	-7
0.88900	-7
0.89267	-8
0.89633	-8
0.90000	-8
0.90367	-8
0.90733	-8
0.91100	-8
0.91467	-8
0.91833	-7
0.92200	-7
0.92567	-7
0.92933	-6
0.93300	-6
0.93667	-6
0.94033	-5
0.94400	-5
0.94767	-5
0.95133	-5
0.95500	-5
0.95867	-5
0.96233	-5
0.96600	-5
0.96967	-4
0.97333	-4
0.97700	-3
0.98067	-3
0.98433	-2
0.98800	-2
0.99167	-2
0.99533	-2
0.99900	-1
1.00267	-1
1.00633	-1
1.01000	-2
1.01367	-2
1.01733	-2
1.02100	-3
1.02467	-4
1.02833	-4
1.03200	-5
1.03567	-5
1.03933	-6
1.04300	-6
1.04667	-7
1.05033	-7
1.05400	-7
1.05767	-7
1.06133	-8
1.06500	-7
1.06867	-7
1.07233	-7
1.07600	-7
1.07967	-7
1.08333	-7
1.08700	-7
1.09067	-7
1.09433	-7
1.09800	-7
1.10167	-7
1.10533	-7
1.10900	-7
1.11267	-7
1.11633	-6
1.12000	-6
1.12367	-6
1.12733	-6
1.13100	-5
1.13467	-5
1.13833	-5
1.14200	-5
1.14567	-5
1.14933	-5
1.15300	-5
1.15667	-4
1.16033	-4
1.16400	-4
1.16767	-4
1.17133	-4
1.17500	-3
1.17867	-3
1.18233	-4
1.18600	-4
1.18967	-4
1.19333	-4
1.19700	-4
1.20067	-4
1.20433	-4
1.20800	-5
1.21167	-5
1.21533	-5
1.21900	-6
1.22267	-6
1.22633	-6
1.23000	-6
1.23367	-7
1.23733	-7
1.24100	-6
1.24467	-6
1.24833	-6
1.25200	-6
1.25567	-6
1.25933	-6
1.26300	-6
1.26667	-6
1.27033	-6
1.27400	-5
1.27767	-5
1.28133	-5
1.28500	-5
1.28867	-4
1.29233	-4
1.29600	-4
1.29967	-4
1.30333	-4
1.30700	-4
1.31067	-4
1.31433	-5
1.31800	-5
1.32167	-5
1.32533	-5
1.32900	-5
1.33267	-6
1.33633	-6
1.34000	-6
1.34367	-6
1.34733	-7
1.35100	-7
1.35467	-7
1.35833	-7
1.36200	-6
1.36567	-6
1.36933	-6
1.37300	-6
1.37667	-6
1.38033	-6
1.38400	-7
1.38767	-7
1.39133	-7
1.39500	-7
1.39867	-6
1.40233	-6
1.40600	-6
1.40967	-6
1.41333	-5
1.41700	-5
1.42067	-5
1.42433	-5
1.42800	-5
1.43167	-5
1.43533	-5
1.43900	-6
1.44267	-6
1.44633	-6
1.45000	-6
1.45367	-6
1.45733	-7
1.46100	-7
1.46467	-6
1.46833	-6
1.47200	-6
1.47567	-6
1.47933	-6
1.48300	-6
1.48667	-6
1.49033	-6
1.49400	-6
1.49767	-6
1.50133	-6
1.50500	-6
1.50867	-6
1.51233	-5
1.51600	-5
1.51967	-5
1.52333	-5
1.52700	-6
1.53067	-6
1.53433	-6
1.53800	-7
1.54167	-7
1.54533	-7
1.54900	-7
1.55267	-7
1.55633	-7
1.56000	-7
1.56367	-7
1.56733	-7
1.57100	-7
1.57467	-7
1.57833	-7
1.58200	-7
1.58567	-7
1.58933	-7
1.59300	-8
1.59667	-8
1.60033	-9
1.60400	-10
1.60767	-11
1.61133	-12
1.61500	-14
1.61867	-16
1.62233	-18
1.62600	-21
1.62967	-24
1.63333	-27
1.63700	-31
1.64067	-34
1.64433	-38
1.64800	-41
1.65167	-45
1.65533	-49
1.65900	-53
1.66267	-57
1.66633	-61
1.67000	-65
1.67367	-70
1.67733	-75
1.68100	-80
1.68467	-85
1.68833	-90
1.69200	-94
1.69567	-98
1.69933	-101
1.70300	-104
1.70667	-106
1.71033	-108
1.71400	-109
1.71767	-110
1.72133	-110
1.72500	-110
1.72867	-110
1.73233	-110
1.73600	-110
1.73967	-109
1.74333	-109
1.74700	-109
1.75067	-108
1.75433	-108
1.75800	-108
1.76167	-108
1.76533	-109
1.76900	-110
1.77267	-111
1.77633	-112
1.78000	-114
1.78367	-115
1.78733	-116
1.79100	-117
1.79467	-117
1.79833	-118
1.80200	-118
1.80567	-117
1.80933	-117
1.81300	-117
1.81667	-117
1.82033	-116
1.82400	-116
1.82767	-116
1.83133	-116
1.83500	-116
1.83867	-117
1.84233	-117
1.84600	-117
1.84967	-117
1.85333	-117
1.85700	-117
1.86067	-117
1.86433	-117
1.86800	-117
1.87167	-117
1.87533	-117
1.87900	-117
1.88267	-117
1.88633	-117
1.89000	-117
1.89367	-116
1.89733	-116
1.90100	-116
1.90467	-116
1.90833	-115
1.91200	-115
1.91567	-115
1.91933	-115
1.92300	-115
1.92667	-114
1.93033	-114
1.93400	-114
1.93767	-113
1.94133	-113
1.94500	-113
1.94867	-113
1.95233	-112
1.95600	-112
1.95967	-112
1.96333	-113
1.96700	-113
1.97067	-113
1.97433	-113
1.97800	-113
1.98167	-113
1.98533	-113
1.98900	-112
1.99267	-112
1.99633	-112
2.00000	-111
2.00367	-111
2.00733	-111
2.01100	-111
2.01467	-110
2.01833	-110
2.02200	-109
2.02567	-109
2.02933	-108
2.03300	-108
2.03667	-108
2.04033	-108
2.04400	-107
2.04767	-107
2.05133	-106
2.05500	-106
2.05867	-106
2.06233	-106
2.06600	-106
2.06967	-105
2.07333	-105
2.07700	-105
2.08067	-105
2.08433	-104
2.08800	-104
2.09167	-104
2.09533	-103
2.09900	-103
2.10267	-103
2.10633	-104
2.11000	-103
2.11367	-103
2.11733	-103
2.12100	-102
2.12467	-102
2.12833	-101
2.13200	-101
2.13567	-101
2.13933	-101
2.14300	-100
2.14667	-100
2.15033	-100
2.15400	-100
2.15767	-99
2.16133	-99
2.16500	-98
2.16867	-97
2.17233	-95
2.17600	-95
2.17967	-94
2.18333	-94
2.18700	-94
2.19067	-94
2.19433	-94
2.19800	-94
2.20167	-94
2.20533	-93
2.20900	-93
2.21267	-93
2.21633	-93
2.22000	-93
2.22367	-93
2.22733	-93
2.23100	-93
2.23467	-92
2.23833	-92
2.24200	-92
2.24567	-91
2.24933	-91
2.25300	-90
2.25667	-90
2.26033	-89
2.26400	-89
2.26767	-88
2.27133	-88
2.27500	-89
2.27867	-89
2.28233	-90
2.28600	-90
2.28967	-89
2.29333	-89
2.29700	-88
2.30067	-87
2.30433	-86
2.30800	-86
2.31167	-86
2.31533	-86
2.31900	-86
2.32267	-86
2.32633	-85
2.33000	-85
2.33367	-84
2.33733	-84
2.34100	-83
2.34467	-82
2.34833	-80
2.35200	-79
2.35567	-78
2.35933	-77
2.36300	-75
2.36667	-73
2.37033	-70
2.37400	-68
2.37767	-65
2.38133	-61
2.38500	-57
2.38867	-53
2.39233	-49
2.39600	-45
2.39967	-40
2.40333	-36
2.40700	-31
2.41067	-28
2.41433	-24
2.41800	-21
2.42167	-19
2.42533	-17
2.42900	-16
2.43267	-16
2.43633	-15
2.44000	-15
2.44367	-14
2.44733	-13
2.45100	-12
2.45467	-11
2.45833	-10
2.46200	-10
2.46567	-9
2.46933	-8
2.47300	-7
2.47667	-6
2.48033	-6
2.48400	-4
2.48767	-3
2.49133	-2
2.49500	-1
2.49867	-0
2.50233	1
2.50600	2
2.50967	3
2.51333	4
2.51700	5
2.52067	5
2.52433	6
2.52800	6
2.53167	7
2.53533	8
2.53900	8
2.54267	9
2.54633	9
2.55000	10
2.55367	10
2.55733	10
2.56100	10
2.56467	10
2.56833	10
2.57200	11
2.57567	11
2.57933	11
2.58300	11
2.58667	10
2.59033	10
2.59400	10
2.59767	10
2.60133	11
2.60500	11
2.60867	11
2.61233	12
2.61600	12
2.61967	12
2.62333	12
2.62700	12
2.63067	12
2.63433	12
2.63800	13
2.64167	13
2.64533	13
2.64900	13
2.65267	14
2.65633	14
2.66000	15
2.66367	15
2.66733	15
2.67100	16
2.67467	17
2.67833	18
2.68200	18
2.68567	19
2.68933	19
2.69300	19
2.69667	19
2.70033	19
2.70400	19
2.70767	19
2.71133	18
2.71500	19
2.71867	19
2.72233	19
2.72600	20
2.72967	21
2.73333	21
2.73700	22
2.74067	22
2.74433	22
2.74800	22
2.75167	22
2.75533	21
2.75900	21
2.76267	20
2.76633	20
2.77000	19
2.77367	19
2.77733	19
2.78100	19
2.78467	20
2.78833	20
2.79200	20
2.79567	21
2.79933	21
2.80300	21
2.80667	21
2.81033	22
2.81400	22
2.81767	22
2.82133	23
2.82500	23
2.82867	23
2.83233	24
2.83600	24
2.83967	24
2.84333	23
2.84700	21
2.85067	18
2.85433	12
2.85800	4
2.86167	-7
2.86533	-23
2.86900	-42
2.87267	-65
2.87633	-93
2.88000	-126
2.88367	-162
2.88733	-203
2.89100	-247
2.89467	-294
2.89833	-344
2.90200	-396
2.90567	-450
2.90933	-505
2.91300	-560
2.91667	-616
2.92033	-672
2.92400	-726
2.92767	-780
2.93133	-831
2.93500	-883
2.93867	-937
2.94233	-996
2.94600	-1051
2.94967	-1092
2.95333	-1110
2.95700	-1102
2.96067	-1069
2.96433	-1016
2.96800	-949
2.97167	-873
2.97533	-792
2.97900	-712
2.98267	-633
2.98633	-559
2.99000	-490
2.99367	-428
2.99733	-371
3.00100	-321
3.00467	-276
3.00833	-237
3.01200	-202
3.01567	-173
3.01933	-147
3.02300	-124
3.02667	-105
3.03033	-88
3.03400	-73
3.03767	-61
3.04133	-50
3.04500	-41
3.04867	-33
3.05233	-27
3.05600	-21
3.05967	-16
3.06333	-12
3.06700	-9
3.07067	-6
3.07433	-4
3.07800	-2
3.08167	-0
3.08533	1
3.08900	3
3.09267	4
3.09633	5
3.10000	6
3.10367	7
3.10733	8
3.11100	9
3.11467	9
3.11833	10
3.12200	10
3.12567	11
3.12933	11
3.13300	12
3.13667	12
3.14033	12
3.14400	12
3.14767	12
3.15133	13
3.15500	13
3.15867	13
3.16233	13
3.16600	13
3.16967	14
3.17333	14
3.17700	15
3.18067	15
3.18433	16
3.18800	16
3.19167	16
3.19533	16
3.19900	16
3.20267	17
3.20633	17
3.21000	17
3.21367	17
3.21733	17
3.22100	17
3.22467	17
3.22833	17
3.23200	17
3.23567	17
3.23933	18
3.24300	18
3.24667	18
3.25033	18
3.25400	18
3.25767	18
3.26133	18
3.26500	18
3.26867	19
3.27233	19
3.27600	19
3.27967	18
3.28333	18
3.28700	18
3.29067	18
3.29433	18
3.29800	18
3.30167	18
3.30533	19
3.30900	19
3.31267	19
3.31633	20
3.32000	20
3.32367	20
3.32733	21
3.33100	21
3.33467	21
3.33833	21
3.34200	22
3.34567	22
3.34933	22
3.35300	23
3.35667	22
3.36033	22
3.36400	22
3.36767	22
3.37133	22
3.37500	22
3.37867	22
3.38233	22
3.38600	22
3.38967	22
3.39333	22
3.39700	22
3.40067	22
3.40433	22
3.40800	22
3.41167	22
3.41533	22
3.41900	22
3.42267	22
3.42633	22
3.43000	22
3.43367	22
3.43733	22
3.44100	22
3.44467	23
3.44833	23
3.45200	23
3.45567	23
3.45933	23
3.46300	23
3.46667	23
3.47033	23
3.47400	23
3.47767	23
3.48133	23
3.48500	23
3.48867	23
3.49233	23
3.49600	23
3.49967	23
3.50333	23
3.50700	23
3.51067	23
3.51433	23
3.51800	23
3.52167	24
3.52533	24
3.52900	24
3.53267	24
3.53633	23
3.54000	23
3.54367	23
3.54733	23
3.55100	23
3.55467	23
3.55833	22
3.56200	22
3.56567	22
3.56933	22
3.57300	22
3.57667	22
3.58033	22
3.58400	22
3.58767	22
3.59133	22
3.59500	22
3.59867	22
3.60233	22
3.60600	22
3.60967	22
3.61333	22
3.61700	21
3.62067	21
3.62433	21
3.62800	22
3.63167	22
3.63533	21
3.63900	21
3.64267	22
3.64633	22
3.65000	22
3.65367	22
3.65733	22
3.66100	22
3.66467	22
3.66833	22
3.67200	22
3.67567	22
3.67933	23
3.68300	23
3.68667	23
3.69033	23
3.69400	23
3.69767	23
3.70133	23
3.70500	23
3.70867	22
3.71233	22
3.71600	22
3.71967	22
3.72333	21
3.72700	21
3.73067	21
3.73433	21
3.73800	21
3.74167	21
3.74533	21
3.74900	21
3.75267	21
3.75633	21
3.76000	22
3.76367	22
3.76733	22
3.77100	22
3.77467	22
3.77833	22
3.78200	23
3.78567	23
3.78933	23
3.79300	23
3.79667	23
3.80033	23
3.80400	23
3.80767	23
3.81133	23
3.81500	23
3.81867	23
3.82233	23
3.82600	23
3.82967	23
3.83333	23
3.83700	23
3.84067	23
3.84433	23
3.84800	23
3.85167	22
3.85533	22
3.85900	22
3.86267	21
3.86633	21
3.87000	21
3.87367	21
3.87733	21
3.88100	21
3.88467	22
3.88833	22
3.89200	22
3.89567	22
3.89933	23
3.90300	23
3.90667	23
3.91033	22
3.91400	22
3.91767	22
3.92133	22
3.92500	22
3.92867	22
3.93233	22
3.93600	22
3.93967	22
3.94333	22
3.94700	21
3.95067	21
3.95433	21
3.95800	21
3.96167	21
3.96533	21
3.96900	21
3.97267	21
3.97633	21
3.98000	21
3.98367	21
3.98733	21
3.99100	22
3.99467	22
3.99833	22

[Chromatogram (Ch3)]
Interval(msec)	220
# of Points	1091
Start Time(min)	0.002
End Time(min)	3.998
R.Time (min)	Intensity
0.00167	-1
0.00533	-1
0.00900	0
0.01267	-1
0.01633	-4
0.02000	-6
0.02367	-5
0.02733	-1
0.03100	2
0.03467	2
0.03833	3
0.04200	3
0.04567	3
0.04933	4
0.05300	6
0.05667	7
0.06033	7
0.06400	7
0.06767	6
0.07133	5
0.07500	4
0.07867	3
0.08233	3
0.08600	4
0.08967	6
0.09333	8
0.09700	8
0.10067	9
0.10433	10
0.10800	10
0.11167	9
0.11533	8
0.11900	7
0.12267	4
0.12633	2
0.13000	1
0.13367	2
0.13733	4
0.14100	4
0.14467	3
0.14833	3
0.15200	5
0.15567	5
0.15933	4
0.16300	3
0.16667	1
0.17033	-2
0.17400	-3
0.17767	-2
0.18133	-3
0.18500	-2
0.18867	0
0.19233	4
0.19600	6
0.19967	4
0.20333	2
0.20700	2
0.21067	2
0.21433	3
0.21800	5
0.22167	6
0.22533	9
0.22900	8
0.23267	7
0.23633	5
0.24000	4
0.24367	4
0.24733	5
0.25100	5
0.25467	3
0.25833	3
0.26200	4
0.26567	4
0.26933	2
0.27300	0
0.27667	0
0.28033	2
0.28400	2
0.28767	3
0.29133	1
0.29500	-0
0.29867	2
0.30233	3
0.30600	3
0.30967	4
0.31333	5
0.31700	6
0.32067	6
0.32433	8
0.32800	9
0.33167	8
0.33533	9
0.33900	7
0.34267	5
0.34633	5
0.35000	4
0.35367	4
0.35733	5
0.36100	5
0.36467	6
0.36833	7
0.37200	7
0.37567	7
0.37933	9
0.38300	8
0.38667	6
0.39033	4
0.39400	3
0.39767	4
0.40133	3
0.40500	2
0.40867	5
0.41233	7
0.41600	8
0.41967	8
0.42333	7
0.42700	7
0.43067	7
0.43433	5
0.43800	4
0.44167	5
0.44533	6
0.44900	5
0.45267	4
0.45633	5
0.46000	4
0.46367	2
0.46733	2
0.47100	4
0.47467	4
0.47833	1
0.48200	1
0.48567	2
0.48933	1
0.49300	-0
0.49667	0
0.50033	1
0.50400	2
0.50767	4
0.51133	4
0.51500	4
0.51867	4
0.52233	4
0.52600	5
0.52967	4
0.53333	3
0.53700	2
0.54067	4
0.54433	5
0.54800	5
0.55167	7
0.55533	6
0.55900	5
0.56267	4
0.56633	2
0.57000	0
0.57367	0
0.57733	1
0.58100	1
0.58467	2
0.58833	4
0.59200	3
0.59567	2
0.59933	3
0.60300	5
0.60667	6
0.61033	7
0.61400	9
0.61767	9
0.62133	10
0.62500	8
0.62867	8
0.63233	8
0.63600	8
0.63967	9
0.64333	8
0.64700	7
0.65067	8
0.65433	8
0.65800	6
0.66167	5
0.66533	5
0.66900	5
0.67267	5
0.67633	4
0.68000	4
0.68367	5
0.68733	7
0.69100	10
0.69467	11
0.69833	11
0.70200	11
0.70567	11
0.70933	11
0.71300	10
0.71667	7
0.72033	6
0.72400	6
0.72767	6
0.73133	9
0.73500	12
0.73867	14
0.74233	14
0.74600	14
0.74967	14
0.75333	13
0.75700	11
0.76067	11
0.76433	13
0.76800	13
0.77167	14
0.77533	15
0.77900	15
0.78267	15
0.78633	14
0.79000	15
0.79367	16
0.79733	15
0.80100	14
0.80467	14
0.80833	15
0.81200	12
0.81567	10
0.81933	9
0.82300	11
0.82667	13
0.83033	15
0.83400	14
0.83767	16
0.84133	19
0.84500	20
0.84867	18
0.85233	17
0.85600	17
0.85967	15
0.86333	13
0.86700	13
0.87067	13
0.87433	13
0.87800	14
0.88167	14
0.88533	14
0.88900	14
0.89267	15
0.89633	15
0.90000	14
0.90367	14
0.90733	13
0.91100	14
0.91467	15
0.91833	16
0.92200	16
0.92567	17
0.92933	17
0.93300	17
0.93667	18
0.94033	20
0.94400	20
0.94767	18
0.95133	16
0.95500	17
0.95867	16
0.96233	14
0.96600	15
0.96967	17
0.97333	19
0.97700	19
0.98067	18
0.98433	16
0.98800	15
0.99167	14
0.99533	15
0.99900	15
1.00267	16
1.00633	17
1.01000	17
1.01367	19
1.01733	18
1.02100	17
1.02467	17
1.02833	15
1.03200	15
1.03567	16
1.03933	17
1.04300	16
1.04667	16
1.05033	16
1.05400	16
1.05767	17
1.06133	17
1.06500	17
1.06867	18
1.07233	19
1.07600	20
1.07967	19
1.08333	19
1.08700	20
1.09067	19
1.09433	20
1.09800	19
1.10167	17
1.10533	17
1.10900	20
1.11267	21
1.11633	21
1.12000	18
1.12367	17
1.12733	16
1.13100	17
1.13467	19
1.13833	21
1.14200	22
1.14567	22
1.14933	19
1.15300	19
1.15667	20
1.16033	20
1.16400	19
1.16767	17
1.17133	17
1.17500	16
1.17867	16
1.18233	16
1.18600	17
1.18967	19
1.19333	23
1.19700	22
1.20067	20
1.20433	19
1.20800	20
1.21167	20
1.21533	20
1.21900	20
1.22267	21
1.22633	20
1.23000	20
1.23367	21
1.23733	24
1.24100	25
1.24467	24
1.24833	25
1.25200	26
1.25567	25
1.25933	22
1.26300	20
1.26667	20
1.27033	18
1.27400	19
1.27767	20
1.28133	22
1.28500	23
1.28867	24
1.29233	25
1.29600	25
1.29967	23
1.30333	19
1.30700	17
1.31067	18
1.31433	18
1.31800	17
1.32167	17
1.32533	19
1.32900	19
1.33267	18
1.33633	18
1.34000	19
1.34367	21
1.34733	21
1.35100	20
1.35467	19
1.35833	17
1.36200	17
1.36567	20
1.36933	22
1.37300	25
1.37667	26
1.38033	25
1.38400	23
1.38767	22
1.39133	21
1.39500	20
1.39867	20
1.40233	24
1.40600	27
1.40967	26
1.41333	24
1.41700	20
1.42067	18
1.42433	20
1.42800	22
1.43167	22
1.43533	22
1.43900	21
1.44267	20
1.44633	21
1.45000	23
1.45367	23
1.45733	21
1.46100	20
1.46467	19
1.46833	19
1.47200	19
1.47567	22
1.47933	25
1.48300	27
1.48667	28
1.49033	27
1.49400	25
1.49767	23
1.50133	24
1.50500	26
1.50867	27
1.51233	27
1.51600	28
1.51967	28
1.52333	25
1.52700	23
1.53067	21
1.53433	21
1.53800	23
1.54167	27
1.54533	30
1.54900	30
1.55267	28
1.55633	25
1.56000	23
1.56367	20
1.56733	20
1.57100	23
1.57467	24
1.57833	24
1.58200	25
1.58567	24
1.58933	23
1.59300	23
1.59667	25
1.60033	28
1.60400	30
1.60767	29
1.61133	28
1.61500	27
1.61867	26
1.62233	26
1.62600	26
1.62967	28
1.63333	30
1.63700	30
1.64067	30
1.64433	32
1.64800	34
1.65167	33
1.65533	31
1.65900	31
1.66267	32
1.66633	32
1.67000	32
1.67367	35
1.67733	37
1.68100	38
1.68467	37
1.68833	35
1.69200	35
1.69567	37
1.69933	38
1.70300	39
1.70667	41
1.71033	43
1.71400	46
1.71767	47
1.72133	46
1.72500	47
1.72867	46
1.73233	45
1.73600	45
1.73967	45
1.74333	46
1.74700	47
1.75067	47
1.75433	48
1.75800	51
1.76167	53
1.76533	52
1.76900	53
1.77267	56
1.77633	58
1.78000	57
1.78367	58
1.78733	59
1.79100	60
1.79467	60
1.79833	61
1.80200	59
1.80567	59
1.80933	61
1.81300	63
1.81667	64
1.82033	64
1.82400	65
1.82767	66
1.83133	67
1.83500	67
1.83867	68
1.84233	66
1.84600	65
1.84967	68
1.85333	70
1.85700	70
1.86067	71
1.86433	73
1.86800	74
1.87167	74
1.87533	74
1.87900	74
1.88267	75
1.88633	75
1.89000	74
1.89367	75
1.89733	77
1.90100	79
1.90467	79
1.90833	78
1.91200	78
1.91567	80
1.91933	80
1.92300	80
1.92667	82
1.93033	84
1.93400	86
1.93767	85
1.94133	86
1.94500	88
1.94867	89
1.95233	90
1.95600	92
1.95967	94
1.96333	96
1.96700	98
1.97067	97
1.97433	97
1.97800	100
1.98167	103
1.98533	103
1.98900	101
1.99267	98
1.99633	98
2.00000	101
2.00367	101
2.00733	101
2.01100	102
2.01467	104
2.01833	106
2.02200	107
2.02567	108
2.02933	112
2.03300	114
2.03667	115
2.04033	117
2.04400	117
2.04767	118
2.05133	120
2.05500	122
2.05867	123
2.06233	124
2.06600	125
2.06967	126
2.07333	128
2.07700	127
2.08067	126
2.08433	129
2.08800	132
2.09167	134
2.09533	135
2.09900	135
2.10267	138
2.10633	141
2.11000	145
2.11367	146
2.11733	146
2.12100	145
2.12467	145
2.12833	147
2.13200	150
2.13567	151
2.13933	152
2.14300	153
2.14667	155
2.15033	158
2.15400	159
2.15767	161
2.16133	161
2.16500	161
2.16867	160
2.17233	161
2.17600	164
2.17967	163
2.18333	164
2.18700	164
2.19067	166
2.19433	167
2.19800	168
2.20167	168
2.20533	168
2.20900	170
2.21267	170
2.21633	171
2.22000	172
2.22367	174
2.22733	176
2.23100	177
2.23467	175
2.23833	174
2.24200	176
2.24567	177
2.24933	178
2.25300	178
2.25667	177
2.26033	176
2.26400	175
2.26767	177
2.27133	179
2.27500	182
2.27867	184
2.28233	183
2.28600	183
2.28967	184
2.29333	186
2.29700	189
2.30067	191
2.30433	192
2.30800	193
2.31167	193
2.31533	196
2.31900	196
2.32267	193
2.32633	194
2.33000	195
2.33367	197
2.33733	198
2.34100	199
2.34467	201
2.34833	202
2.35200	203
2.35567	204
2.35933	204
2.36300	204
2.36667	205
2.37033	207
2.37400	210
2.37767	210
2.38133	209
2.38500	208
2.38867	205
2.39233	204
2.39600	205
2.39967	207
2.40333	210
2.40700	213
2.41067	214
2.41433	217
2.41800	219
2.42167	219
2.42533	221
2.42900	224
2.43267	225
2.43633	226
2.44000	229
2.44367	280
2.44733	416
2.45100	563
2.45467	684
2.45833	753
2.46200	760
2.46567	732
2.46933	700
2.47300	677
2.47667	665
2.48033	651
2.48400	624
2.48767	583
2.49133	538
2.49500	496
2.49867	462
2.50233	441
2.50600	431
2.50967	430
2.51333	439
2.51700	458
2.52067	475
2.52433	488
2.52800	494
2.53167	487
2.53533	469
2.53900	445
2.54267	417
2.54633	388
2.55000	362
2.55367	340
2.55733	324
2.56100	312
2.56467	302
2.56833	296
2.57200	291
2.57567	289
2.57933	288
2.58300	288
2.58667	287
2.59033	289
2.59400	292
2.59767	296
2.60133	298
2.60500	298
2.60867	297
2.61233	295
2.61600	288
2.61967	280
2.62333	270
2.62700	257
2.63067	243
2.63433	232
2.63800	221
2.64167	210
2.64533	200
2.64900	188
2.65267	174
2.65633	162
2.66000	153
2.66367	146
2.66733	138
2.67100	131
2.67467	124
2.67833	119
2.68200	114
2.68567	112
2.68933	111
2.69300	111
2.69667	112
2.70033	113
2.70400	114
2.70767	116
2.71133	118
2.71500	121
2.71867	125
2.72233	131
2.72600	136
2.72967	139
2.73333	140
2.73700	142
2.74067	146
2.74433	150
2.74800	155
2.75167	159
2.75533	161
2.75900	161
2.76267	164
2.76633	168
2.77000	174
2.77367	181
2.77733	187
2.78100	191
2.78467	193
2.78833	194
2.79200	196
2.79567	199
2.79933	202
2.80300	206
2.80667	212
2.81033	219
2.81400	226
2.81767	232
2.82133	242
2.82500	260
2.82867	295
2.83233	363
2.83600	484
2.83967	677
2.84333	960
2.84700	1345
2.85067	1824
2.85433	2374
2.85800	2962
2.86167	3544
2.86533	4070
2.86900	4496
2.87267	4795
2.87633	4950
2.88000	4964
2.88367	4855
2.88733	4648
2.89100	4368
2.89467	4047
2.89833	3706
2.90200	3360
2.90567	3024
2.90933	2706
2.91300	2412
2.91667	2144
2.92033	1905
2.92400	1690
2.92767	1496
2.93133	1326
2.93500	1178
2.93867	1049
2.94233	937
2.94600	837
2.94967	752
2.95333	678
2.95700	614
2.96067	558
2.96433	506
2.96800	461
2.97167	422
2.97533	390
2.97900	363
2.98267	341
2.98633	323
2.99000	308
2.99367	293
2.99733	280
3.00100	270
3.00467	258
3.00833	250
3.01200	244
3.01567	238
3.01933	234
3.02300	231
3.02667	227
3.03033	223
3.03400	220
3.03767	216
3.04133	213
3.04500	212
3.04867	211
3.05233	210
3.05600	207
3.05967	189
3.06333	151
3.06700	126
3.07067	128
3.07433	152
3.07800	192
3.08167	237
3.08533	283
3.08900	330
3.09267	374
3.09633	415
3.10000	452
3.10367	485
3.10733	516
3.11100	541
3.11467	562
3.11833	579
3.12200	593
3.12567	605
3.12933	617
3.13300	628
3.13667	639
3.14033	649
3.14400	659
3.14767	667
3.15133	677
3.15500	684
3.15867	691
3.16233	699
3.16600	706
3.16967	712
3.17333	718
3.17700	725
3.18067	732
3.18433	739
3.18800	744
3.19167	748
3.19533	753
3.19900	760
3.20267	767
3.20633	773
3.21000	778
3.21367	783
3.21733	786
3.22100	790
3.22467	795
3.22833	802
3.23200	806
3.23567	811
3.23933	817
3.24300	822
3.24667	827
3.25033	833
3.25400	837
3.25767	844
3.26133	848
3.26500	852
3.26867	854
3.27233	854
3.27600	852
3.27967	854
3.28333	856
3.28700	859
3.29067	862
3.29433	863
3.29800	863
3.30167	863
3.30533	862
3.30900	861
3.31267	860
3.31633	859
3.32000	858
3.32367	858
3.32733	856
3.33100	853
3.33467	853
3.33833	854
3.34200	854
3.34567	853
3.34933	850
3.35300	848
3.35667	846
3.36033	843
3.36400	839
3.36767	838
3.37133	838
3.37500	837
3.37867	836
3.38233	833
3.38600	830
3.38967	828
3.39333	825
3.39700	824
3.40067	823
3.40433	819
3.40800	818
3.41167	816
3.41533	814
3.41900	814
3.42267	812
3.42633	811
3.43000	810
3.43367	809
3.43733	808
3.44100	806
3.44467	806
3.44833	805
3.45200	806
3.45567	806
3.45933	803
3.46300	801
3.46667	801
3.47033	801
3.47400	799
3.47767	797
3.48133	797
3.48500	795
3.48867	794
3.49233	792
3.49600	791
3.49967	790
3.50333	788
3.50700	788
3.51067	790
3.51433	789
3.51800	787
3.52167	786
3.52533	784
3.52900	782
3.53267	781
3.53633	780
3.54000	781
3.54367	780
3.54733	779
3.55100	777
3.55467	775
3.55833	772
3.56200	770
3.56567	770
3.56933	773
3.57300	773
3.57667	773
3.58033	771
3.58400	771
3.58767	770
3.59133	768
3.59500	766
3.59867	763
3.60233	762
3.60600	763
3.60967	762
3.61333	759
3.61700	755
3.62067	753
3.62433	752
3.62800	750
3.63167	751
3.63533	751
3.63900	751
3.64267	749
3.64633	744
3.65000	743
3.65367	743
3.65733	742
3.66100	739
3.66467	735
3.66833	734
3.67200	734
3.67567	733
3.67933	730
3.68300	727
3.68667	726
3.69033	726
3.69400	724
3.69767	720
3.70133	716
3.70500	714
3.70867	714
3.71233	714
3.71600	714
3.71967	713
3.72333	710
3.72700	708
3.73067	706
3.73433	703
3.73800	701
3.74167	698
3.74533	695
3.74900	693
3.75267	688
3.75633	683
3.76000	680
3.76367	680
3.76733	678
3.77100	677
3.77467	676
3.77833	674
3.78200	674
3.78567	673
3.78933	670
3.79300	668
3.79667	666
3.80033	664
3.80400	662
3.80767	660
3.81133	659
3.81500	657
3.81867	653
3.82233	650
3.82600	649
3.82967	646
3.83333	644
3.83700	642
3.84067	641
3.84433	638
3.84800	635
3.85167	633
3.85533	630
3.85900	629
3.86267	629
3.86633	629
3.87000	628
3.87367	628
3.87733	626
3.88100	626
3.88467	623
3.88833	620
3.89200	617
3.89567	613
3.89933	610
3.90300	609
3.90667	610
3.91033	607
3.91400	604
3.91767	602
3.92133	602
3.92500	600
3.92867	596
3.93233	594
3.93600	592
3.93967	594
3.94333	595
3.94700	594
3.95067	592
3.95433	592
3.95800	590
3.96167	590
3.96533	590
3.96900	589
3.97267	586
3.97633	585
3.98000	583
3.98367	582
3.98733	582
3.99100	579
3.99467	577
3.99833	573

[Status Trace (Column Oven Temperature)]
Interval(msec)	1000
# of Points	240
Start Time(min)	0.016
End Time(min)	3.999
Intensity Units	
Intensity Multiplier	1
R.Time (min)	Intensity
0.01613	35.00
0.03280	35.01
0.04947	35.01
0.06613	35.01
0.08280	35.03
0.09947	35.03
0.11613	35.03
0.13280	35.03
0.14947	35.04
0.16613	35.04
0.18280	35.03
0.19947	35.02
0.21613	35.02
0.23280	35.02
0.24947	35.01
0.26613	35.00
0.28280	35.01
0.29947	35.01
0.31613	35.02
0.33280	35.03
0.34947	35.01
0.36613	35.02
0.38280	35.02
0.39947	35.01
0.41613	35.00
0.43280	35.00
0.44947	34.99
0.46613	35.00
0.48280	35.01
0.49947	35.01
0.51613	35.00
0.53280	35.00
0.54947	34.98
0.56613	35.00
0.58280	34.99
0.59947	34.98
0.61613	34.98
0.63280	34.99
0.64947	34.98
0.66613	34.98
0.68280	34.97
0.69947	34.97
0.71613	34.97
0.73280	34.98
0.74947	34.99
0.76613	35.00
0.78280	35.01
0.79947	35.00
0.81613	34.99
0.83280	34.99
0.84947	35.00
0.86613	35.01
0.88280	35.01
0.89947	35.02
0.91613	35.02
0.93280	35.03
0.94947	35.03
0.96613	35.01
0.98280	35.00
0.99947	34.98
1.01613	34.98
1.03280	34.98
1.04947	34.99
1.06613	35.01
1.08280	35.01
1.09947	35.01
1.11613	35.01
1.13280	35.02
1.14947	35.03
1.16613	35.01
1.18280	35.00
1.19947	35.01
1.21613	35.01
1.23280	35.01
1.24947	34.99
1.26613	35.00
1.28280	34.99
1.29947	34.99
1.31613	34.99
1.33280	35.00
1.34947	35.00
1.36613	35.01
1.38280	35.01
1.39947	35.00
1.41613	34.99
1.43280	34.99
1.44947	35.00
1.46613	35.00
1.48280	35.00
1.49947	35.00
1.51613	35.00
1.53280	35.01
1.54947	35.01
1.56613	35.02
1.58280	35.02
1.59947	35.05
1.61613	35.12
1.63280	35.27
1.64947	35.48
1.66613	35.78
1.68280	36.15
1.69947	36.53
1.71613	36.88
1.73280	37.19
1.74947	37.49
1.76613	37.82
1.78280	38.17
1.79947	38.50
1.81613	38.83
1.83280	39.17
1.84947	39.51
1.86613	39.84
1.88280	40.16
1.89947	40.49
1.91613	40.81
1.93280	41.13
1.94947	41.44
1.96613	41.78
1.98280	42.11
1.99947	42.44
2.01613	42.77
2.03280	43.09
2.04947	43.41
2.06613	43.74
2.08280	44.07
2.09947	44.40
2.11613	44.72
2.13280	45.05
2.14947	45.39
2.16613	45.70
2.18280	46.01
2.19947	46.34
2.21613	46.69
2.23280	47.01
2.24947	47.35
2.26613	47.66
2.28280	48.01
2.29947	48.34
2.31613	48.66
2.33280	49.00
2.34947	49.30
2.36613	49.53
2.38280	49.64
2.39947	49.65
2.41613	49.64
2.43280	49.69
2.44947	49.67
2.46613	49.70
2.48280	49.72
2.49947	49.72
2.51613	49.72
2.53280	49.73
2.54947	49.75
2.56613	49.76
2.58280	49.78
2.59947	49.79
2.61613	49.82
2.63280	49.82
2.64947	49.82
2.66613	49.84
2.68280	49.83
2.69947	49.86
2.71613	49.86
2.73280	49.84
2.74947	49.85
2.76613	49.87
2.78280	49.88
2.79947	49.87
2.81613	49.87
2.83280	49.86
2.84947	49.86
2.86613	49.87
2.88280	49.89
2.89947	49.90
2.91613	49.91
2.93280	49.92
2.94947	49.93
2.96613	49.94
2.98280	49.95
2.99947	49.97
3.01613	49.97
3.03280	49.98
3.04947	49.98
3.06613	49.99
3.08280	50.00
3.09947	50.00
3.11613	50.01
3.13280	50.02
3.14947	50.03
3.16613	50.04
3.18280	50.04
3.19947	50.05
3.21613	50.06
3.23280	50.07
3.24947	50.07
3.26613	50.09
3.28280	50.10
3.29947	50.10
3.31613	50.10
3.33280	50.09
3.34947	50.09
3.36613	50.10
3.38280	50.09
3.39947	50.08
3.41613	50.08
3.43280	50.08
3.44947	50.08
3.46613	50.08
3.48280	50.07
3.49947	50.08
3.51613	50.07
3.53280	50.06
3.54947	50.07
3.56613	50.08
3.58280	50.08
3.59947	50.08
3.61613	50.08
3.63280	50.09
3.64947	50.09
3.66613	50.09
3.68280	50.08
3.69947	50.08
3.71613	50.09
3.73280	50.10
3.74947	50.09
3.76613	50.09
3.78280	50.08
3.79947	50.07
3.81613	50.05
3.83280	50.05
3.84947	50.06
3.86613	50.07
3.88280	50.07
3.89947	50.06
3.91613	50.06
3.93280	50.06
3.94947	50.07
3.96613	50.07
3.98280	50.08
3.99947	50.07

[Status Trace (Injection Unit Temperature)]
Interval(msec)	1000
# of Points	240
Start Time(min)	0.016
End Time(min)	3.999
Intensity Units	
Intensity Multiplier	1
R.Time (min)	Intensity
0.01613	99.98
0.03280	99.98
0.04947	99.98
0.06613	99.98
0.08280	99.98
0.09947	99.98
0.11613	99.99
0.13280	99.99
0.14947	99.99
0.16613	99.99
0.18280	99.99
0.19947	99.99
0.21613	99.99
0.23280	99.98
0.24947	99.98
0.26613	99.98
0.28280	99.98
0.29947	99.99
0.31613	99.98
0.33280	99.98
0.34947	99.99
0.36613	99.99
0.38280	99.99
0.39947	99.98
0.41613	99.98
0.43280	99.99
0.44947	99.99
0.46613	99.98
0.48280	99.98
0.49947	99.99
0.51613	99.98
0.53280	99.98
0.54947	99.99
0.56613	99.99
0.58280	99.99
0.59947	99.98
0.61613	99.98
0.63280	99.99
0.64947	99.98
0.66613	99.98
0.68280	99.98
0.69947	99.98
0.71613	99.98
0.73280	99.98
0.74947	99.98
0.76613	99.98
0.78280	99.98
0.79947	99.98
0.81613	99.98
0.83280	99.99
0.84947	99.98
0.86613	99.99
0.88280	99.98
0.89947	99.98
0.91613	99.98
0.93280	99.98
0.94947	99.98
0.96613	99.98
0.98280	99.98
0.99947	99.98
1.01613	99.98
1.03280	99.98
1.04947	99.98
1.06613	99.98
1.08280	99.98
1.09947	99.98
1.11613	99.99
1.13280	99.98
1.14947	99.98
1.16613	99.98
1.18280	99.98
1.19947	99.99
1.21613	99.99
1.23280	99.98
1.24947	99.98
1.26613	99.98
1.28280	99.99
1.29947	99.98
1.31613	99.99
1.33280	99.98
1.34947	99.99
1.36613	99.98
1.38280	99.98
1.39947	99.99
1.41613	99.99
1.43280	99.99
1.44947	99.99
1.46613	99.98
1.48280	99.99
1.49947	99.99
1.51613	99.99
1.53280	99.99
1.54947	99.99
1.56613	99.99
1.58280	99.98
1.59947	99.99
1.61613	99.99
1.63280	99.99
1.64947	99.99
1.66613	99.98
1.68280	99.99
1.69947	99.99
1.71613	99.99
1.73280	99.99
1.74947	99.99
1.76613	99.99
1.78280	99.99
1.79947	99.99
1.81613	99.99
1.83280	99.99
1.84947	99.99
1.86613	99.99
1.88280	99.99
1.89947	99.99
1.91613	99.99
1.93280	99.99
1.94947	99.99
1.96613	99.98
1.98280	99.98
1.99947	99.98
2.01613	99.98
2.03280	99.98
2.04947	99.98
2.06613	99.98
2.08280	99.98
2.09947	99.98
2.11613	99.98
2.13280	99.97
2.14947	99.97
2.16613	99.97
2.18280	99.97
2.19947	99.97
2.21613	99.97
2.23280	99.97
2.24947	99.97
2.26613	99.97
2.28280	99.97
2.29947	99.97
2.31613	99.96
2.33280	99.97
2.34947	99.97
2.36613	99.96
2.38280	99.97
2.39947	99.96
2.41613	99.96
2.43280	99.96
2.44947	99.97
2.46613	99.97
2.48280	99.96
2.49947	99.96
2.51613	99.97
2.53280	99.97
2.54947	99.96
2.56613	99.97
2.58280	99.97
2.59947	99.97
2.61613	99.97
2.63280	99.97
2.64947	99.97
2.66613	99.98
2.68280	99.98
2.69947	99.98
2.71613	99.98
2.73280	99.98
2.74947	99.98
2.76613	99.99
2.78280	99.99
2.79947	99.99
2.81613	99.99
2.83280	99.99
2.84947	99.99
2.86613	100.00
2.88280	100.00
2.89947	100.00
2.91613	100.01
2.93280	100.00
2.94947	100.01
2.96613	100.01
2.98280	100.01
2.99947	100.02
3.01613	100.02
3.03280	100.02
3.04947	100.02
3.06613	100.02
3.08280	100.02
3.09947	100.02
3.11613	100.02
3.13280	100.02
3.14947	100.02
3.16613	100.03
3.18280	100.03
3.19947	100.03
3.21613	100.03
3.23280	100.02
3.24947	100.03
3.26613	100.03
3.28280	100.03
3.29947	100.03
3.31613	100.04
3.33280	100.03
3.34947	100.04
3.36613	100.03
3.38280	100.04
3.39947	100.04
3.41613	100.04
3.43280	100.04
3.44947	100.04
3.46613	100.04
3.48280	100.04
3.49947	100.04
3.51613	100.04
3.53280	100.04
3.54947	100.04
3.56613	100.04
3.58280	100.04
3.59947	100.04
3.61613	100.04
3.63280	100.05
3.64947	100.04
3.66613	100.05
3.68280	100.05
3.69947	100.04
3.71613	100.05
3.73280	100.04
3.74947	100.04
3.76613	100.04
3.78280	100.05
3.79947	100.04
3.81613	100.04
3.83280	100.04
3.84947	100.04
3.86613	100.05
3.88280	100.04
3.89947	100.04
3.91613	100.04
3.93280	100.04
3.94947	100.05
3.96613	100.04
3.98280	100.04
3.99947	100.05

[Status Trace (Carrier Gas Pressure)]
Interval(msec)	1000
# of Points	240
Start Time(min)	0.016
End Time(min)	3.999
Intensity Units	
Intensity Multiplier	1
R.Time (min)	Intensity
0.01613	56.98
0.03280	55.87
0.04947	58.26
0.06613	59.89
0.08280	58.49
0.09947	57.97
0.11613	58.00
0.13280	58.01
0.14947	58.01
0.16613	58.00
0.18280	58.00
0.19947	58.00
0.21613	58.00
0.23280	58.00
0.24947	58.00
0.26613	58.00
0.28280	58.00
0.29947	58.00
0.31613	58.00
0.33280	58.00
0.34947	58.00
0.36613	58.00
0.38280	58.00
0.39947	58.00
0.41613	58.00
0.43280	58.00
0.44947	58.00
0.46613	58.00
0.48280	58.00
0.49947	58.00
0.51613	58.00
0.53280	58.00
0.54947	58.00
0.56613	58.00
0.58280	58.00
0.59947	58.00
0.61613	58.00
0.63280	58.00
0.64947	58.00
0.66613	58.00
0.68280	58.00
0.69947	58.00
0.71613	58.00
0.73280	58.00
0.74947	58.00
0.76613	58.00
0.78280	58.00
0.79947	58.00
0.81613	58.00
0.83280	58.00
0.84947	58.00
0.86613	58.00
0.88280	58.00
0.89947	58.00
0.91613	58.00
0.93280	58.00
0.94947	58.00
0.96613	58.00
0.98280	58.00
0.99947	58.00
1.01613	58.00
1.03280	58.00
1.04947	58.00
1.06613	58.00
1.08280	58.00
1.09947	58.00
1.11613	58.00
1.13280	58.00
1.14947	58.00
1.16613	58.00
1.18280	58.00
1.19947	58.00
1.21613	58.00
1.23280	58.00
1.24947	58.00
1.26613	58.00
1.28280	58.00
1.29947	58.00
1.31613	58.00
1.33280	58.00
1.34947	58.00
1.36613	58.00
1.38280	58.00
1.39947	58.00
1.41613	58.00
1.43280	58.00
1.44947	58.00
1.46613	58.00
1.48280	58.00
1.49947	58.00
1.51613	58.00
1.53280	58.00
1.54947	58.00
1.56613	58.00
1.58280	58.00
1.59947	58.00
1.61613	58.00
1.63280	58.00
1.64947	58.00
1.66613	58.01
1.68280	58.01
1.69947	58.00
1.71613	58.00
1.73280	58.00
1.74947	58.00
1.76613	58.00
1.78280	58.00
1.79947	58.00
1.81613	58.00
1.83280	58.00
1.84947	58.00
1.86613	58.00
1.88280	58.00
1.89947	58.00
1.91613	58.00
1.93280	58.00
1.94947	58.00
1.96613	58.00
1.98280	58.00
1.99947	58.00
2.01613	58.00
2.03280	58.00
2.04947	58.00
2.06613	58.00
2.08280	58.00
2.09947	58.00
2.11613	58.00
2.13280	58.00
2.14947	58.00
2.16613	58.00
2.18280	58.00
2.19947	58.00
2.21613	58.00
2.23280	58.00
2.24947	58.00
2.26613	58.00
2.28280	58.00
2.29947	58.00
2.31613	58.00
2.33280	58.00
2.34947	58.00
2.36613	58.00
2.38280	57.99
2.39947	57.99
2.41613	58.00
2.43280	58.00
2.44947	58.00
2.46613	58.00
2.48280	58.00
2.49947	58.00
2.51613	57.99
2.53280	57.99
2.54947	58.00
2.56613	58.00
2.58280	58.00
2.59947	58.00
2.61613	58.00
2.63280	58.00
2.64947	58.00
2.66613	58.00
2.68280	58.00
2.69947	58.00
2.71613	58.00
2.73280	58.00
2.74947	58.00
2.76613	58.00
2.78280	58.00
2.79947	58.00
2.81613	58.00
2.83280	58.00
2.84947	58.00
2.86613	58.00
2.88280	58.00
2.89947	58.00
2.91613	58.00
2.93280	58.00
2.94947	58.00
2.96613	58.00
2.98280	58.00
2.99947	58.00
3.01613	58.00
3.03280	58.00
3.04947	58.00
3.06613	58.00
3.08280	58.00
3.09947	58.00
3.11613	58.00
3.13280	58.00
3.14947	58.00
3.16613	58.00
3.18280	58.00
3.19947	58.00
3.21613	58.00
3.23280	58.00
3.24947	58.00
3.26613	58.00
3.28280	58.00
3.29947	58.00
3.31613	58.00
3.33280	58.00
3.34947	58.00
3.36613	58.00
3.38280	58.00
3.39947	58.00
3.41613	58.00
3.43280	58.00
3.44947	58.00
3.46613	58.00
3.48280	58.00
3.49947	58.00
3.51613	58.00
3.53280	58.00
3.54947	58.00
3.56613	58.00
3.58280	58.00
3.59947	58.00
3.61613	58.00
3.63280	58.00
3.64947	58.00
3.66613	58.00
3.68280	58.00
3.69947	58.00
3.71613	58.00
3.73280	58.00
3.74947	58.00
3.76613	58.00
3.78280	58.00
3.79947	58.00
3.81613	58.00
3.83280	58.00
3.84947	58.00
3.86613	58.00
3.88280	58.00
3.89947	58.00
3.91613	58.00
3.93280	58.00
3.94947	58.00
3.96613	58.00
3.98280	58.00
3.99947	58.00

[Status Trace (Carrier Gas Flow)]
Interval(msec)	1000
# of Points	240
Start Time(min)	0.016
End Time(min)	3.999
Intensity Units	
Intensity Multiplier	1
R.Time (min)	Intensity
0.01613	33.85
0.03280	34.54
0.04947	34.55
0.06613	34.50
0.08280	34.52
0.09947	34.52
0.11613	34.52
0.13280	34.51
0.14947	34.52
0.16613	34.51
0.18280	34.52
0.19947	34.51
0.21613	34.52
0.23280	34.51
0.24947	34.51
0.26613	34.51
0.28280	34.52
0.29947	34.52
0.31613	34.52
0.33280	34.52
0.34947	34.52
0.36613	34.52
0.38280	34.51
0.39947	34.52
0.41613	34.52
0.43280	34.52
0.44947	34.52
0.46613	34.52
0.48280	34.52
0.49947	34.52
0.51613	34.51
0.53280	34.52
0.54947	34.52
0.56613	34.52
0.58280	34.51
0.59947	34.52
0.61613	34.52
0.63280	34.52
0.64947	34.52
0.66613	34.52
0.68280	34.52
0.69947	34.51
0.71613	34.52
0.73280	34.52
0.74947	34.52
0.76613	34.52
0.78280	34.52
0.79947	34.51
0.81613	34.52
0.83280	34.52
0.84947	34.52
0.86613	34.51
0.88280	34.51
0.89947	34.52
0.91613	34.52
0.93280	34.52
0.94947	34.52
0.96613	34.52
0.98280	34.51
0.99947	34.52
1.01613	34.52
1.03280	34.51
1.04947	34.53
1.06613	34.51
1.08280	34.51
1.09947	34.52
1.11613	34.52
1.13280	34.52
1.14947	34.52
1.16613	34.52
1.18280	34.52
1.19947	34.52
1.21613	34.52
1.23280	34.52
1.24947	34.52
1.26613	34.52
1.28280	34.52
1.29947	34.52
1.31613	34.51
1.33280	34.52
1.34947	34.51
1.36613	34.52
1.38280	34.52
1.39947	34.52
1.41613	34.52
1.43280	34.52
1.44947	34.52
1.46613	34.52
1.48280	34.51
1.49947	34.52
1.51613	34.52
1.53280	34.52
1.54947	34.52
1.56613	34.51
1.58280	34.52
1.59947	34.51
1.61613	34.52
1.63280	34.51
1.64947	34.52
1.66613	34.52
1.68280	34.51
1.69947	34.52
1.71613	34.52
1.73280	34.52
1.74947	34.52
1.76613	34.53
1.78280	34.51
1.79947	34.52
1.81613	34.52
1.83280	34.52
1.84947	34.52
1.86613	34.52
1.88280	34.52
1.89947	34.52
1.91613	34.52
1.93280	34.51
1.94947	34.52
1.96613	34.52
1.98280	34.52
1.99947	34.52
2.01613	34.52
2.03280	34.53
2.04947	34.52
2.06613	34.51
2.08280	34.52
2.09947	34.52
2.11613	34.52
2.13280	34.52
2.14947	34.51
2.16613	34.52
2.18280	34.52
2.19947	34.53
2.21613	34.53
2.23280	34.52
2.24947	34.51
2.26613	34.52
2.28280	34.52
2.29947	34.52
2.31613	34.52
2.33280	34.51
2.34947	34.52
2.36613	34.51
2.38280	34.53
2.39947	34.52
2.41613	34.52
2.43280	34.52
2.44947	34.53
2.46613	34.52
2.48280	34.52
2.49947	34.51
2.51613	34.51
2.53280	34.52
2.54947	34.52
2.56613	34.52
2.58280	34.53
2.59947	34.52
2.61613	34.52
2.63280	34.52
2.64947	34.51
2.66613	34.52
2.68280	34.52
2.69947	34.52
2.71613	34.52
2.73280	34.52
2.74947	34.53
2.76613	34.52
2.78280	34.52
2.79947	34.51
2.81613	34.52
2.83280	34.52
2.84947	34.52
2.86613	34.52
2.88280	34.52
2.89947	34.52
2.91613	34.51
2.93280	34.52
2.94947	34.52
2.96613	34.52
2.98280	34.51
2.99947	34.52
3.01613	34.52
3.03280	34.51
3.04947	34.51
3.06613	34.52
3.08280	34.52
3.09947	34.52
3.11613	34.52
3.13280	34.52
3.14947	34.52
3.16613	34.52
3.18280	34.52
3.19947	34.52
3.21613	34.52
3.23280	34.52
3.24947	34.52
3.26613	34.52
3.28280	34.52
3.29947	34.52
3.31613	34.51
3.33280	34.52
3.34947	34.52
3.36613	34.52
3.38280	34.52
3.39947	34.52
3.41613	34.52
3.43280	34.51
3.44947	34.52
3.46613	34.52
3.48280	34.53
3.49947	34.52
3.51613	34.52
3.53280	34.52
3.54947	34.52
3.56613	34.51
3.58280	34.52
3.59947	34.52
3.61613	34.51
3.63280	34.52
3.64947	34.52
3.66613	34.52
3.68280	34.52
3.69947	34.52
3.71613	34.52
3.73280	34.52
3.74947	34.52
3.76613	34.52
3.78280	34.52
3.79947	34.52
3.81613	34.52
3.83280	34.52
3.84947	34.52
3.86613	34.52
3.88280	34.53
3.89947	34.51
3.91613	34.52
3.93280	34.51
3.94947	34.52
3.96613	34.52
3.98280	34.52
3.99947	34.51

[Status Trace (Column Flow)]
Interval(msec)	1000
# of Points	240
Start Time(min)	0.016
End Time(min)	3.999
Intensity Units	
Intensity Multiplier	1
R.Time (min)	Intensity
0.01613	5.44
0.03280	5.31
0.04947	5.59
0.06613	5.78
0.08280	5.61
0.09947	5.55
0.11613	5.55
0.13280	5.56
0.14947	5.56
0.16613	5.55
0.18280	5.56
0.19947	5.56
0.21613	5.56
0.23280	5.56
0.24947	5.56
0.26613	5.56
0.28280	5.56
0.29947	5.56
0.31613	5.56
0.33280	5.55
0.34947	5.56
0.36613	5.55
0.38280	5.55
0.39947	5.56
0.41613	5.56
0.43280	5.56
0.44947	5.56
0.46613	5.56
0.48280	5.56
0.49947	5.56
0.51613	5.56
0.53280	5.56
0.54947	5.56
0.56613	5.56
0.58280	5.56
0.59947	5.56
0.61613	5.56
0.63280	5.56
0.64947	5.56
0.66613	5.56
0.68280	5.56
0.69947	5.56
0.71613	5.56
0.73280	5.56
0.74947	5.56
0.76613	5.56
0.78280	5.56
0.79947	5.56
0.81613	5.56
0.83280	5.56
0.84947	5.56
0.86613	5.56
0.88280	5.55
0.89947	5.55
0.91613	5.55
0.93280	5.55
0.94947	5.55
0.96613	5.55
0.98280	5.56
0.99947	5.56
1.01613	5.56
1.03280	5.56
1.04947	5.56
1.06613	5.55
1.08280	5.55
1.09947	5.55
1.11613	5.55
1.13280	5.55
1.14947	5.55
1.16613	5.56
1.18280	5.56
1.19947	5.56
1.21613	5.56
1.23280	5.56
1.24947	5.56
1.26613	5.56
1.28280	5.56
1.29947	5.56
1.31613	5.56
1.33280	5.56
1.34947	5.56
1.36613	5.56
1.38280	5.56
1.39947	5.56
1.41613	5.56
1.43280	5.56
1.44947	5.56
1.46613	5.56
1.48280	5.56
1.49947	5.56
1.51613	5.56
1.53280	5.56
1.54947	5.56
1.56613	5.55
1.58280	5.55
1.59947	5.55
1.61613	5.55
1.63280	5.55
1.64947	5.54
1.66613	5.53
1.68280	5.52
1.69947	5.51
1.71613	5.50
1.73280	5.49
1.74947	5.48
1.76613	5.47
1.78280	5.46
1.79947	5.45
1.81613	5.44
1.83280	5.43
1.84947	5.42
1.86613	5.41
1.88280	5.40
1.89947	5.39
1.91613	5.38
1.93280	5.37
1.94947	5.36
1.96613	5.35
1.98280	5.34
1.99947	5.33
2.01613	5.32
2.03280	5.31
2.04947	5.30
2.06613	5.29
2.08280	5.28
2.09947	5.27
2.11613	5.26
2.13280	5.25
2.14947	5.24
2.16613	5.23
2.18280	5.22
2.19947	5.21
2.21613	5.20
2.23280	5.19
2.24947	5.18
2.26613	5.18
2.28280	5.17
2.29947	5.16
2.31613	5.15
2.33280	5.14
2.34947	5.13
2.36613	5.12
2.38280	5.12
2.39947	5.12
2.41613	5.12
2.43280	5.12
2.44947	5.12
2.46613	5.12
2.48280	5.12
2.49947	5.12
2.51613	5.12
2.53280	5.12
2.54947	5.12
2.56613	5.12
2.58280	5.12
2.59947	5.12
2.61613	5.11
2.63280	5.11
2.64947	5.11
2.66613	5.11
2.68280	5.11
2.69947	5.11
2.71613	5.11
2.73280	5.11
2.74947	5.11
2.76613	5.11
2.78280	5.11
2.79947	5.11
2.81613	5.11
2.83280	5.11
2.84947	5.11
2.86613	5.11
2.88280	5.11
2.89947	5.11
2.91613	5.11
2.93280	5.11
2.94947	5.11
2.96613	5.11
2.98280	5.11
2.99947	5.11
3.01613	5.11
3.03280	5.11
3.04947	5.11
3.06613	5.11
3.08280	5.11
3.09947	5.11
3.11613	5.11
3.13280	5.11
3.14947	5.11
3.16613	5.11
3.18280	5.11
3.19947	5.11
3.21613	5.11
3.23280	5.11
3.24947	5.11
3.26613	5.11
3.28280	5.11
3.29947	5.11
3.31613	5.11
3.33280	5.11
3.34947	5.11
3.36613	5.11
3.38280	5.11
3.39947	5.11
3.41613	5.11
3.43280	5.11
3.44947	5.11
3.46613	5.11
3.48280	5.11
3.49947	5.11
3.51613	5.11
3.53280	5.11
3.54947	5.11
3.56613	5.11
3.58280	5.11
3.59947	5.11
3.61613	5.11
3.63280	5.11
3.64947	5.11
3.66613	5.11
3.68280	5.11
3.69947	5.11
3.71613	5.11
3.73280	5.11
3.74947	5.11
3.76613	5.11
3.78280	5.11
3.79947	5.11
3.81613	5.11
3.83280	5.11
3.84947	5.11
3.86613	5.11
3.88280	5.11
3.89947	5.11
3.91613	5.11
3.93280	5.11
3.94947	5.11
3.96613	5.11
3.98280	5.11
3.99947	5.11

[Status Trace (Linear Velocity)]
Interval(msec)	1000
# of Points	240
Start Time(min)	0.016
End Time(min)	3.999
Intensity Units	
Intensity Multiplier	1
R.Time (min)	Intensity
0.01613	38.36
0.03280	37.63
0.04947	39.19
0.06613	40.26
0.08280	39.34
0.09947	39.00
0.11613	39.02
0.13280	39.03
0.14947	39.03
0.16613	39.02
0.18280	39.02
0.19947	39.02
0.21613	39.02
0.23280	39.02
0.24947	39.02
0.26613	39.03
0.28280	39.02
0.29947	39.02
0.31613	39.02
0.33280	39.02
0.34947	39.02
0.36613	39.02
0.38280	39.02
0.39947	39.02
0.41613	39.02
0.43280	39.03
0.44947	39.03
0.46613	39.03
0.48280	39.02
0.49947	39.02
0.51613	39.02
0.53280	39.02
0.54947	39.03
0.56613	39.03
0.58280	39.03
0.59947	39.03
0.61613	39.03
0.63280	39.03
0.64947	39.03
0.66613	39.03
0.68280	39.03
0.69947	39.03
0.71613	39.03
0.73280	39.03
0.74947	39.03
0.76613	39.02
0.78280	39.02
0.79947	39.02
0.81613	39.03
0.83280	39.03
0.84947	39.03
0.86613	39.02
0.88280	39.02
0.89947	39.02
0.91613	39.02
0.93280	39.02
0.94947	39.02
0.96613	39.02
0.98280	39.02
0.99947	39.03
1.01613	39.03
1.03280	39.03
1.04947	39.03
1.06613	39.02
1.08280	39.02
1.09947	39.02
1.11613	39.02
1.13280	39.02
1.14947	39.02
1.16613	39.02
1.18280	39.02
1.19947	39.02
1.21613	39.02
1.23280	39.02
1.24947	39.03
1.26613	39.03
1.28280	39.03
1.29947	39.03
1.31613	39.03
1.33280	39.02
1.34947	39.02
1.36613	39.02
1.38280	39.02
1.39947	39.02
1.41613	39.03
1.43280	39.03
1.44947	39.03
1.46613	39.02
1.48280	39.02
1.49947	39.02
1.51613	39.02
1.53280	39.02
1.54947	39.02
1.56613	39.02
1.58280	39.02
1.59947	39.02
1.61613	39.01
1.63280	39.00
1.64947	38.98
1.66613	38.95
1.68280	38.92
1.69947	38.88
1.71613	38.85
1.73280	38.81
1.74947	38.79
1.76613	38.76
1.78280	38.72
1.79947	38.69
1.81613	38.66
1.83280	38.63
1.84947	38.60
1.86613	38.57
1.88280	38.53
1.89947	38.50
1.91613	38.47
1.93280	38.44
1.94947	38.42
1.96613	38.38
1.98280	38.35
1.99947	38.32
2.01613	38.29
2.03280	38.26
2.04947	38.23
2.06613	38.20
2.08280	38.17
2.09947	38.14
2.11613	38.11
2.13280	38.08
2.14947	38.05
2.16613	38.02
2.18280	38.00
2.19947	37.97
2.21613	37.94
2.23280	37.91
2.24947	37.88
2.26613	37.85
2.28280	37.82
2.29947	37.79
2.31613	37.76
2.33280	37.73
2.34947	37.70
2.36613	37.68
2.38280	37.67
2.39947	37.67
2.41613	37.67
2.43280	37.67
2.44947	37.67
2.46613	37.67
2.48280	37.66
2.49947	37.66
2.51613	37.66
2.53280	37.66
2.54947	37.66
2.56613	37.66
2.58280	37.66
2.59947	37.66
2.61613	37.66
2.63280	37.66
2.64947	37.66
2.66613	37.65
2.68280	37.65
2.69947	37.65
2.71613	37.65
2.73280	37.65
2.74947	37.65
2.76613	37.65
2.78280	37.65
2.79947	37.65
2.81613	37.65
2.83280	37.65
2.84947	37.65
2.86613	37.65
2.88280	37.65
2.89947	37.65
2.91613	37.65
2.93280	37.65
2.94947	37.65
2.96613	37.65
2.98280	37.64
2.99947	37.64
3.01613	37.64
3.03280	37.64
3.04947	37.64
3.06613	37.64
3.08280	37.64
3.09947	37.64
3.11613	37.64
3.13280	37.64
3.14947	37.64
3.16613	37.64
3.18280	37.64
3.19947	37.64
3.21613	37.63
3.23280	37.63
3.24947	37.63
3.26613	37.63
3.28280	37.63
3.29947	37.63
3.31613	37.63
3.33280	37.63
3.34947	37.63
3.36613	37.63
3.38280	37.63
3.39947	37.63
3.41613	37.63
3.43280	37.63
3.44947	37.63
3.46613	37.63
3.48280	37.63
3.49947	37.63
3.51613	37.63
3.53280	37.63
3.54947	37.63
3.56613	37.63
3.58280	37.63
3.59947	37.63
3.61613	37.63
3.63280	37.63
3.64947	37.63
3.66613	37.63
3.68280	37.63
3.69947	37.63
3.71613	37.63
3.73280	37.63
3.74947	37.63
3.76613	37.63
3.78280	37.63
3.79947	37.63
3.81613	37.64
3.83280	37.64
3.84947	37.63
3.86613	37.63
3.88280	37.63
3.89947	37.64
3.91613	37.63
3.93280	37.63
3.94947	37.63
3.96613	37.63
3.98280	37.63
3.99947	37.64

