[Header]
Application Name	LabSolutions
Version	5.110
Data File Name	C:\Users\User\Desktop\GC Analyses\Jack\Nachusa Grasslands Sampling\T4 Timepoint July 12th\T4_07122022_064.gcd
Output Date	3/17/2023
Output Time	12:04:55 PM

[File Information]
Type	Data File
Generated	3/14/2023 10:32:32 PM
Generated by	System Administrator
Modified	3/14/2023 10:39:13 PM
Modified by	System Administrator

[Sample Information]
Operator Name	System Administrator
Acquired	3/14/2023 10:35:12 PM
Sample Type	0:Unknown
Level	0
Sample Name	064
Sample ID	064
ISTD Amount1	1
ISTD Amount2	1
ISTD Amount3	1
ISTD Amount4	1
ISTD Amount5	1
ISTD Amount6	1
ISTD Amount7	1
ISTD Amount8	1
ISTD Amount9	1
ISTD Amount10	1
ISTD Amount11	1
ISTD Amount12	1
ISTD Amount13	1
ISTD Amount14	1
ISTD Amount15	1
ISTD Amount16	1
ISTD Amount17	1
ISTD Amount18	1
ISTD Amount19	1
ISTD Amount20	1
ISTD Amount21	1
ISTD Amount22	1
ISTD Amount23	1
ISTD Amount24	1
ISTD Amount25	1
ISTD Amount26	1
ISTD Amount27	1
ISTD Amount28	1
ISTD Amount29	1
ISTD Amount30	1
ISTD Amount31	1
ISTD Amount32	1
Sample Amount	1
Dilution Factor	1
Vial#	63
Injection Volume	1
Injection Count	1
Bar Code	

[Original Files]
Data File	C:\Users\User\Desktop\GC Analyses\Jack\Nachusa Grasslands Sampling\T4 Timepoint July 12th\T4_07122022_064.gcd
Method File	C:\LabSolutions\Data\GHG_4min_2022\ghg3_togas_w_acet_4 min_new_int.gcm
Batch File	C:\LabSolutions\Data\AutoSamplerTesting\T4_07122022.gcb
Report Format File	c:\LabSolutions\System\DEFAULT.lsr

[File Description]


[Configuration]
Instrument Name	C0B7VH3-Instrument1
Instrument #	1
Line #	1
# of Detectors	3
Detector ID	DET#1	DET#2	DET#3
Detector Name	FID	PTCD	ECD
# of Channels	1	1	1

[Peak Table(Ch1)]
# of Peaks	3
Peak#	R.Time	I.Time	F.Time	Area	Height	A/H	Conc.	Mark	ID#	Name	k'	Plate #	Plate Ht.	Tailing	Resolution	Sep.Factor	Area Ratio	Height Ratio	Conc. %	Norm Conc.
1	1.476	1.417	1.538	38932	19084	2.040	274.861	   	1	CO	0.000	9630	15.576	1.303	0.000	0.000	0	0	21.592	21.592
2	1.571	1.538	1.630	4417	2224	1.986	85.413	 V 	2	CH4	0.065	11585	12.948	1.161	1.609	0.000	0	0	6.710	6.710
3	1.996	1.952	2.462	3636584	1740029	2.090	912.684	   	3	CO2	0.353	17202	8.720	1.316	7.132	5.462	0	0	71.698	71.698

[Peak Table(Ch2)]
# of Peaks	0

[Peak Table(Ch3)]
# of Peaks	5
Peak#	R.Time	I.Time	F.Time	Area	Height	A/H	Conc.	Mark	ID#	Name	k'	Plate #	Plate Ht.	Tailing	Resolution	Sep.Factor	Area Ratio	Height Ratio	Conc. %	Norm Conc.
1	2.462	2.312	2.510	2358	709	3.324	0.000	   			0.000	9554	15.699	0.000	0.000	0.000	0	0	0.000	0.000
2	2.528	2.510	2.587	1298	405	3.204	0.000	 V 			0.027	5942	25.245	0.000	0.569	0.000	0	0	0.000	0.000
3	2.601	2.587	2.682	648	192	3.379	0.000	 V 			0.057	2178	68.864	0.000	0.414	2.111	0	0	0.000	0.000
4	2.880	2.799	3.030	18002	4813	3.740	0.460	   	1	N2O	0.170	13360	11.228	1.483	1.728	3.000	0	0	100.000	100.000
5	3.335	3.126	3.995	19327	648	29.845	0.000	   	2	SF6	0.354	287	522.595	2.028	1.025	2.088	0	0	0.000	0.000

[Compound Results(Ch1)]
# of IDs	6
ID#	Name	R.Time	Area	Height	Conc.	Curve	3rd	2nd	1st	Constant	Area Ratio	Height Ratio	Conc. %	Norm Conc.
1	CO	1.476	38932	19084	274.861	Linear	0.000000e+00	0.000000e+00	1.416423e+002	0.000000e+00	0	0	21.592	21.592
2	CH4	1.571	4417	2224	85.413	Linear	0.000000e+00	0.000000e+00	5.171738e+001	0.000000e+00	0	0	6.710	6.710
3	CO2	1.996	3636584	1740029	912.684	Linear	0.000000e+00	0.000000e+00	3.984494e+003	0.000000e+00	0	0	71.698	71.698
4	Ethylene	0.000	0	0	0.000	Linear	0.000000e+00	0.000000e+00	0.000000e+00	0.000000e+00	0	0	0.000	0.000
5	Acetylene	0.000	0	0	0.000	Linear	0.000000e+00	0.000000e+00	0.000000e+00	0.000000e+00	0	0	0.000	0.000
6	Ethane	0.000	0	0	0.000	Linear	0.000000e+00	0.000000e+00	0.000000e+00	0.000000e+00	0	0	0.000	0.000

[Compound Results(Ch2)]
# of IDs	5
ID#	Name	R.Time	Area	Height	Conc.	Curve	3rd	2nd	1st	Constant	Area Ratio	Height Ratio	Conc. %	Norm Conc.
1	Hydrogen	0.000	0	0	0.000	Linear	0.000000e+00	0.000000e+00	0.000000e+00	0.000000e+00	0	0	0.000	0.000
2	Oxygen	0.000	0	0	0.000	Linear	0.000000e+00	0.000000e+00	0.000000e+00	0.000000e+00	0	0	0.000	0.000
3	Nitrogen	0.000	0	0	0.000	Linear	0.000000e+00	0.000000e+00	0.000000e+00	0.000000e+00	0	0	0.000	0.000
4	Methane	0.000	0	0	0.000	Linear	0.000000e+00	0.000000e+00	0.000000e+00	0.000000e+00	0	0	0.000	0.000
5	Carbon Monoxide	0.000	0	0	0.000	Linear	0.000000e+00	0.000000e+00	0.000000e+00	0.000000e+00	0	0	0.000	0.000

[Compound Results(Ch3)]
# of IDs	2
ID#	Name	R.Time	Area	Height	Conc.	Curve	3rd	2nd	1st	Constant	Area Ratio	Height Ratio	Conc. %	Norm Conc.
1	N2O	2.880	18002	4813	0.460	Linear	0.000000e+00	0.000000e+00	3.915173e+004	0.000000e+00	0	0	100.000	100.000
2	SF6	3.335	19327	648	0.000	Linear	0.000000e+00	0.000000e+00	0.000000e+00	0.000000e+00	0	0	0.000	0.000

[Group Results(Ch1)]
# of Groups	0

[Group Results(Ch2)]
# of Groups	0

[Group Results(Ch3)]
# of Groups	0

[Chromatogram (Ch1)]
Interval(msec)	220
# of Points	1091
Start Time(min)	0.002
End Time(min)	3.998
R.Time (min)	Intensity
0.00167	-11
0.00533	-9
0.00900	-9
0.01267	-4
0.01633	5
0.02000	4
0.02367	-1
0.02733	4
0.03100	13
0.03467	15
0.03833	15
0.04200	13
0.04567	15
0.04933	15
0.05300	8
0.05667	-3
0.06033	-12
0.06400	-16
0.06767	-14
0.07133	-7
0.07500	-3
0.07867	-5
0.08233	-13
0.08600	-21
0.08967	-28
0.09333	-31
0.09700	-28
0.10067	-19
0.10433	-9
0.10800	3
0.11167	11
0.11533	11
0.11900	6
0.12267	1
0.12633	0
0.13000	3
0.13367	10
0.13733	13
0.14100	12
0.14467	10
0.14833	6
0.15200	-3
0.15567	-11
0.15933	-15
0.16300	-17
0.16667	-19
0.17033	-24
0.17400	-32
0.17767	-37
0.18133	-39
0.18500	-37
0.18867	-31
0.19233	-22
0.19600	-16
0.19967	-9
0.20333	1
0.20700	12
0.21067	18
0.21433	22
0.21800	25
0.22167	29
0.22533	34
0.22900	41
0.23267	48
0.23633	51
0.24000	45
0.24367	38
0.24733	34
0.25100	31
0.25467	32
0.25833	34
0.26200	35
0.26567	36
0.26933	38
0.27300	40
0.27667	40
0.28033	40
0.28400	37
0.28767	37
0.29133	37
0.29500	33
0.29867	32
0.30233	32
0.30600	34
0.30967	40
0.31333	37
0.31700	32
0.32067	26
0.32433	18
0.32800	9
0.33167	6
0.33533	3
0.33900	-2
0.34267	-3
0.34633	0
0.35000	6
0.35367	10
0.35733	13
0.36100	14
0.36467	11
0.36833	5
0.37200	4
0.37567	9
0.37933	11
0.38300	13
0.38667	8
0.39033	-4
0.39400	-13
0.39767	-16
0.40133	-14
0.40500	-13
0.40867	-19
0.41233	-25
0.41600	-29
0.41967	-36
0.42333	-38
0.42700	-37
0.43067	-32
0.43433	-24
0.43800	-19
0.44167	-17
0.44533	-20
0.44900	-23
0.45267	-24
0.45633	-22
0.46000	-22
0.46367	-20
0.46733	-16
0.47100	-9
0.47467	-4
0.47833	-6
0.48200	-15
0.48567	-23
0.48933	-29
0.49300	-29
0.49667	-22
0.50033	-9
0.50400	2
0.50767	-2
0.51133	-16
0.51500	-32
0.51867	-42
0.52233	-50
0.52600	-55
0.52967	-54
0.53333	-51
0.53700	-49
0.54067	-46
0.54433	-43
0.54800	-38
0.55167	-36
0.55533	-32
0.55900	-26
0.56267	-20
0.56633	-19
0.57000	-24
0.57367	-30
0.57733	-31
0.58100	-32
0.58467	-36
0.58833	-41
0.59200	-40
0.59567	-36
0.59933	-30
0.60300	-22
0.60667	-16
0.61033	-17
0.61400	-18
0.61767	-19
0.62133	-20
0.62500	-22
0.62867	-25
0.63233	-29
0.63600	-29
0.63967	-29
0.64333	-32
0.64700	-35
0.65067	-35
0.65433	-36
0.65800	-39
0.66167	-42
0.66533	-43
0.66900	-41
0.67267	-37
0.67633	-32
0.68000	-26
0.68367	-20
0.68733	-18
0.69100	-23
0.69467	-28
0.69833	-32
0.70200	-36
0.70567	-38
0.70933	-40
0.71300	-43
0.71667	-45
0.72033	-44
0.72400	-45
0.72767	-46
0.73133	-45
0.73500	-43
0.73867	-43
0.74233	-45
0.74600	-48
0.74967	-51
0.75333	-50
0.75700	-49
0.76067	-52
0.76433	-56
0.76800	-58
0.77167	-53
0.77533	-41
0.77900	-30
0.78267	-23
0.78633	-22
0.79000	-26
0.79367	-37
0.79733	-48
0.80100	-55
0.80467	-59
0.80833	-61
0.81200	-61
0.81567	-59
0.81933	-58
0.82300	-55
0.82667	-52
0.83033	-57
0.83400	-60
0.83767	-60
0.84133	-54
0.84500	-46
0.84867	-39
0.85233	-37
0.85600	-38
0.85967	-42
0.86333	-45
0.86700	-47
0.87067	-48
0.87433	-50
0.87800	-51
0.88167	-54
0.88533	-58
0.88900	-62
0.89267	-65
0.89633	-62
0.90000	-53
0.90367	-47
0.90733	-44
0.91100	-48
0.91467	-54
0.91833	-61
0.92200	-66
0.92567	-69
0.92933	-73
0.93300	-77
0.93667	-77
0.94033	-73
0.94400	-76
0.94767	-86
0.95133	-103
0.95500	-106
0.95867	-98
0.96233	-90
0.96600	-80
0.96967	-68
0.97333	-56
0.97700	-40
0.98067	-36
0.98433	-46
0.98800	-63
0.99167	-79
0.99533	-92
0.99900	-99
1.00267	-101
1.00633	-101
1.01000	-99
1.01367	-96
1.01733	-87
1.02100	-75
1.02467	-71
1.02833	-73
1.03200	-79
1.03567	-84
1.03933	-86
1.04300	-89
1.04667	-91
1.05033	-87
1.05400	-83
1.05767	-79
1.06133	-73
1.06500	-66
1.06867	-60
1.07233	-55
1.07600	-52
1.07967	-49
1.08333	-46
1.08700	-41
1.09067	-35
1.09433	-35
1.09800	-43
1.10167	-52
1.10533	-60
1.10900	-63
1.11267	-59
1.11633	-54
1.12000	-52
1.12367	-50
1.12733	-48
1.13100	-46
1.13467	-44
1.13833	-39
1.14200	-40
1.14567	-42
1.14933	-36
1.15300	-29
1.15667	-27
1.16033	-31
1.16400	-35
1.16767	-37
1.17133	-38
1.17500	-40
1.17867	-42
1.18233	-47
1.18600	-52
1.18967	-52
1.19333	-51
1.19700	-47
1.20067	-41
1.20433	-38
1.20800	-38
1.21167	-40
1.21533	-44
1.21900	-47
1.22267	-49
1.22633	-48
1.23000	-47
1.23367	-49
1.23733	-53
1.24100	-57
1.24467	-61
1.24833	-63
1.25200	-65
1.25567	-67
1.25933	-65
1.26300	-58
1.26667	-54
1.27033	-55
1.27400	-50
1.27767	-45
1.28133	-45
1.28500	-50
1.28867	-51
1.29233	-51
1.29600	-48
1.29967	-47
1.30333	-47
1.30700	-51
1.31067	-57
1.31433	-59
1.31800	-61
1.32167	-63
1.32533	-67
1.32900	-72
1.33267	-74
1.33633	-74
1.34000	-70
1.34367	-66
1.34733	-67
1.35100	-68
1.35467	-68
1.35833	-65
1.36200	-62
1.36567	-64
1.36933	-72
1.37300	-78
1.37667	-81
1.38033	-79
1.38400	-77
1.38767	-78
1.39133	-79
1.39500	-84
1.39867	-92
1.40233	-94
1.40600	-93
1.40967	-96
1.41333	-99
1.41700	-100
1.42067	-93
1.42433	-83
1.42800	-73
1.43167	-64
1.43533	-55
1.43900	-38
1.44267	9
1.44633	162
1.45000	703
1.45367	2255
1.45733	5168
1.46100	8920
1.46467	12638
1.46833	15724
1.47200	17897
1.47567	18973
1.47933	18781
1.48300	17298
1.48667	14824
1.49033	11879
1.49400	8994
1.49767	6514
1.50133	4563
1.50500	3120
1.50867	2092
1.51233	1369
1.51600	867
1.51967	528
1.52333	298
1.52700	147
1.53067	50
1.53433	-17
1.53800	-55
1.54167	-36
1.54533	98
1.54900	384
1.55267	792
1.55633	1232
1.56000	1614
1.56367	1901
1.56733	2069
1.57100	2093
1.57467	1944
1.57833	1649
1.58200	1281
1.58567	920
1.58933	619
1.59300	392
1.59667	227
1.60033	113
1.60400	38
1.60767	-14
1.61133	-52
1.61500	-83
1.61867	-99
1.62233	-111
1.62600	-127
1.62967	-143
1.63333	-151
1.63700	-150
1.64067	-144
1.64433	-134
1.64800	-128
1.65167	-128
1.65533	-131
1.65900	-134
1.66267	-139
1.66633	-144
1.67000	-148
1.67367	-149
1.67733	-143
1.68100	-136
1.68467	-132
1.68833	-131
1.69200	-136
1.69567	-142
1.69933	-143
1.70300	-138
1.70667	-132
1.71033	-129
1.71400	-127
1.71767	-128
1.72133	-133
1.72500	-135
1.72867	-136
1.73233	-139
1.73600	-141
1.73967	-137
1.74333	-133
1.74700	-131
1.75067	-126
1.75433	-123
1.75800	-121
1.76167	-120
1.76533	-124
1.76900	-127
1.77267	-124
1.77633	-120
1.78000	-114
1.78367	-110
1.78733	-111
1.79100	-114
1.79467	-122
1.79833	-126
1.80200	-125
1.80567	-129
1.80933	-131
1.81300	-132
1.81667	-136
1.82033	-143
1.82400	-146
1.82767	-148
1.83133	-147
1.83500	-143
1.83867	-139
1.84233	-135
1.84600	-127
1.84967	-122
1.85333	-122
1.85700	-125
1.86067	-129
1.86433	-132
1.86800	-134
1.87167	-137
1.87533	-140
1.87900	-144
1.88267	-145
1.88633	-146
1.89000	-144
1.89367	-143
1.89733	-141
1.90100	-135
1.90467	-131
1.90833	-130
1.91200	-132
1.91567	-137
1.91933	-141
1.92300	-141
1.92667	-135
1.93033	-133
1.93400	-131
1.93767	-124
1.94133	-122
1.94500	-125
1.94867	-126
1.95233	-107
1.95600	75
1.95967	1262
1.96333	7206
1.96700	29772
1.97067	95079
1.97433	239000
1.97800	481380
1.98167	800861
1.98533	1141006
1.98900	1439206
1.99267	1647692
1.99633	1739948
2.00000	1710541
2.00367	1573637
2.00733	1359804
2.01100	1108842
2.01467	859039
2.01833	637881
2.02200	458555
2.02567	322368
2.02933	223735
2.03300	154621
2.03667	107227
2.04033	75134
2.04400	53516
2.04767	38941
2.05133	29043
2.05500	22229
2.05867	17465
2.06233	14072
2.06600	11604
2.06967	9764
2.07333	8366
2.07700	7283
2.08067	6415
2.08433	5703
2.08800	5115
2.09167	4622
2.09533	4199
2.09900	3840
2.10267	3539
2.10633	3278
2.11000	3050
2.11367	2849
2.11733	2671
2.12100	2508
2.12467	2357
2.12833	2214
2.13200	2084
2.13567	1967
2.13933	1858
2.14300	1761
2.14667	1676
2.15033	1602
2.15400	1531
2.15767	1465
2.16133	1403
2.16500	1345
2.16867	1289
2.17233	1236
2.17600	1190
2.17967	1147
2.18333	1106
2.18700	1068
2.19067	1035
2.19433	1004
2.19800	970
2.20167	936
2.20533	901
2.20900	866
2.21267	837
2.21633	816
2.22000	801
2.22367	779
2.22733	746
2.23100	709
2.23467	679
2.23833	656
2.24200	640
2.24567	623
2.24933	603
2.25300	583
2.25667	569
2.26033	560
2.26400	550
2.26767	538
2.27133	525
2.27500	516
2.27867	506
2.28233	494
2.28600	476
2.28967	455
2.29333	439
2.29700	428
2.30067	420
2.30433	416
2.30800	415
2.31167	407
2.31533	395
2.31900	387
2.32267	381
2.32633	376
2.33000	373
2.33367	370
2.33733	362
2.34100	351
2.34467	341
2.34833	335
2.35200	328
2.35567	319
2.35933	309
2.36300	300
2.36667	292
2.37033	289
2.37400	288
2.37767	284
2.38133	279
2.38500	273
2.38867	267
2.39233	264
2.39600	264
2.39967	268
2.40333	270
2.40700	268
2.41067	264
2.41433	259
2.41800	249
2.42167	238
2.42533	233
2.42900	229
2.43267	226
2.43633	229
2.44000	233
2.44367	234
2.44733	231
2.45100	223
2.45467	212
2.45833	200
2.46200	190
2.46567	183
2.46933	181
2.47300	180
2.47667	180
2.48033	185
2.48400	194
2.48767	199
2.49133	201
2.49500	201
2.49867	198
2.50233	193
2.50600	182
2.50967	175
2.51333	165
2.51700	152
2.52067	143
2.52433	134
2.52800	129
2.53167	125
2.53533	124
2.53900	126
2.54267	129
2.54633	134
2.55000	137
2.55367	138
2.55733	137
2.56100	138
2.56467	145
2.56833	151
2.57200	148
2.57567	141
2.57933	132
2.58300	123
2.58667	114
2.59033	102
2.59400	95
2.59767	95
2.60133	104
2.60500	116
2.60867	126
2.61233	129
2.61600	119
2.61967	106
2.62333	98
2.62700	96
2.63067	99
2.63433	105
2.63800	108
2.64167	104
2.64533	102
2.64900	98
2.65267	89
2.65633	80
2.66000	73
2.66367	75
2.66733	79
2.67100	83
2.67467	86
2.67833	90
2.68200	96
2.68567	102
2.68933	106
2.69300	108
2.69667	108
2.70033	107
2.70400	103
2.70767	99
2.71133	98
2.71500	99
2.71867	96
2.72233	95
2.72600	101
2.72967	112
2.73333	119
2.73700	122
2.74067	120
2.74433	113
2.74800	103
2.75167	92
2.75533	81
2.75900	70
2.76267	64
2.76633	61
2.77000	59
2.77367	58
2.77733	57
2.78100	59
2.78467	62
2.78833	63
2.79200	63
2.79567	61
2.79933	60
2.80300	56
2.80667	53
2.81033	53
2.81400	57
2.81767	65
2.82133	74
2.82500	75
2.82867	69
2.83233	64
2.83600	62
2.83967	62
2.84333	64
2.84700	63
2.85067	58
2.85433	53
2.85800	49
2.86167	51
2.86533	56
2.86900	67
2.87267	83
2.87633	93
2.88000	97
2.88367	94
2.88733	88
2.89100	82
2.89467	74
2.89833	62
2.90200	48
2.90567	40
2.90933	39
2.91300	39
2.91667	36
2.92033	34
2.92400	32
2.92767	34
2.93133	39
2.93500	44
2.93867	51
2.94233	59
2.94600	69
2.94967	76
2.95333	76
2.95700	69
2.96067	59
2.96433	50
2.96800	49
2.97167	55
2.97533	59
2.97900	59
2.98267	58
2.98633	58
2.99000	59
2.99367	61
2.99733	63
3.00100	68
3.00467	74
3.00833	76
3.01200	76
3.01567	73
3.01933	67
3.02300	60
3.02667	57
3.03033	56
3.03400	54
3.03767	49
3.04133	44
3.04500	46
3.04867	57
3.05233	64
3.05600	68
3.05967	73
3.06333	72
3.06700	66
3.07067	64
3.07433	65
3.07800	62
3.08167	55
3.08533	45
3.08900	34
3.09267	30
3.09633	29
3.10000	30
3.10367	31
3.10733	32
3.11100	30
3.11467	33
3.11833	39
3.12200	46
3.12567	57
3.12933	68
3.13300	76
3.13667	77
3.14033	69
3.14400	58
3.14767	48
3.15133	42
3.15500	41
3.15867	41
3.16233	37
3.16600	34
3.16967	39
3.17333	44
3.17700	44
3.18067	40
3.18433	39
3.18800	42
3.19167	45
3.19533	50
3.19900	52
3.20267	54
3.20633	58
3.21000	57
3.21367	54
3.21733	53
3.22100	54
3.22467	56
3.22833	56
3.23200	53
3.23567	45
3.23933	38
3.24300	32
3.24667	28
3.25033	28
3.25400	28
3.25767	30
3.26133	33
3.26500	42
3.26867	49
3.27233	55
3.27600	59
3.27967	61
3.28333	62
3.28700	61
3.29067	61
3.29433	58
3.29800	52
3.30167	46
3.30533	38
3.30900	29
3.31267	20
3.31633	15
3.32000	12
3.32367	13
3.32733	14
3.33100	16
3.33467	19
3.33833	23
3.34200	27
3.34567	30
3.34933	32
3.35300	28
3.35667	23
3.36033	22
3.36400	24
3.36767	28
3.37133	32
3.37500	36
3.37867	32
3.38233	24
3.38600	18
3.38967	11
3.39333	3
3.39700	7
3.40067	14
3.40433	19
3.40800	21
3.41167	22
3.41533	24
3.41900	30
3.42267	34
3.42633	35
3.43000	40
3.43367	49
3.43733	52
3.44100	48
3.44467	44
3.44833	39
3.45200	36
3.45567	32
3.45933	21
3.46300	10
3.46667	3
3.47033	-1
3.47400	-0
3.47767	6
3.48133	17
3.48500	33
3.48867	50
3.49233	57
3.49600	50
3.49967	35
3.50333	18
3.50700	2
3.51067	-4
3.51433	-4
3.51800	-5
3.52167	-10
3.52533	-15
3.52900	-20
3.53267	-22
3.53633	-17
3.54000	-9
3.54367	2
3.54733	15
3.55100	25
3.55467	29
3.55833	29
3.56200	26
3.56567	18
3.56933	11
3.57300	7
3.57667	1
3.58033	-5
3.58400	-3
3.58767	3
3.59133	10
3.59500	15
3.59867	22
3.60233	27
3.60600	26
3.60967	21
3.61333	15
3.61700	10
3.62067	2
3.62433	-7
3.62800	-14
3.63167	-16
3.63533	-11
3.63900	-3
3.64267	2
3.64633	8
3.65000	17
3.65367	24
3.65733	23
3.66100	21
3.66467	16
3.66833	12
3.67200	8
3.67567	8
3.67933	12
3.68300	12
3.68667	13
3.69033	16
3.69400	21
3.69767	19
3.70133	15
3.70500	11
3.70867	6
3.71233	4
3.71600	-2
3.71967	-9
3.72333	-13
3.72700	-13
3.73067	-8
3.73433	3
3.73800	16
3.74167	23
3.74533	28
3.74900	35
3.75267	34
3.75633	16
3.76000	-1
3.76367	-6
3.76733	-5
3.77100	-6
3.77467	-8
3.77833	-8
3.78200	-2
3.78567	6
3.78933	10
3.79300	8
3.79667	5
3.80033	4
3.80400	4
3.80767	3
3.81133	4
3.81500	5
3.81867	7
3.82233	11
3.82600	11
3.82967	6
3.83333	0
3.83700	-8
3.84067	-13
3.84433	-15
3.84800	-16
3.85167	-12
3.85533	-8
3.85900	-8
3.86267	-14
3.86633	-20
3.87000	-21
3.87367	-20
3.87733	-17
3.88100	-15
3.88467	-15
3.88833	-15
3.89200	-16
3.89567	-12
3.89933	-2
3.90300	9
3.90667	10
3.91033	7
3.91400	7
3.91767	11
3.92133	14
3.92500	13
3.92867	8
3.93233	1
3.93600	-7
3.93967	-20
3.94333	-24
3.94700	-17
3.95067	-9
3.95433	-9
3.95800	-16
3.96167	-24
3.96533	-30
3.96900	-33
3.97267	-33
3.97633	-32
3.98000	-30
3.98367	-27
3.98733	-21
3.99100	-14
3.99467	-6
3.99833	-2

[Chromatogram (Ch2)]
Interval(msec)	220
# of Points	1091
Start Time(min)	0.002
End Time(min)	3.998
R.Time (min)	Intensity
0.00167	-0
0.00533	-1
0.00900	-1
0.01267	-1
0.01633	-1
0.02000	-0
0.02367	-0
0.02733	-0
0.03100	-0
0.03467	-0
0.03833	-1
0.04200	-1
0.04567	-1
0.04933	-1
0.05300	-1
0.05667	-1
0.06033	-0
0.06400	-0
0.06767	-0
0.07133	-0
0.07500	0
0.07867	1
0.08233	1
0.08600	2
0.08967	3
0.09333	4
0.09700	4
0.10067	5
0.10433	5
0.10800	5
0.11167	6
0.11533	6
0.11900	6
0.12267	5
0.12633	5
0.13000	5
0.13367	4
0.13733	4
0.14100	4
0.14467	3
0.14833	3
0.15200	3
0.15567	3
0.15933	3
0.16300	3
0.16667	2
0.17033	2
0.17400	2
0.17767	2
0.18133	2
0.18500	2
0.18867	2
0.19233	2
0.19600	2
0.19967	2
0.20333	2
0.20700	2
0.21067	2
0.21433	2
0.21800	2
0.22167	2
0.22533	2
0.22900	2
0.23267	2
0.23633	2
0.24000	2
0.24367	3
0.24733	3
0.25100	3
0.25467	2
0.25833	2
0.26200	2
0.26567	2
0.26933	2
0.27300	2
0.27667	2
0.28033	2
0.28400	2
0.28767	2
0.29133	2
0.29500	2
0.29867	2
0.30233	2
0.30600	1
0.30967	1
0.31333	1
0.31700	1
0.32067	1
0.32433	1
0.32800	1
0.33167	1
0.33533	1
0.33900	1
0.34267	1
0.34633	1
0.35000	1
0.35367	1
0.35733	2
0.36100	2
0.36467	2
0.36833	2
0.37200	2
0.37567	2
0.37933	2
0.38300	2
0.38667	2
0.39033	2
0.39400	2
0.39767	2
0.40133	2
0.40500	2
0.40867	2
0.41233	3
0.41600	3
0.41967	3
0.42333	3
0.42700	3
0.43067	3
0.43433	3
0.43800	3
0.44167	3
0.44533	3
0.44900	3
0.45267	3
0.45633	2
0.46000	2
0.46367	1
0.46733	1
0.47100	1
0.47467	0
0.47833	0
0.48200	1
0.48567	1
0.48933	1
0.49300	1
0.49667	1
0.50033	1
0.50400	1
0.50767	1
0.51133	1
0.51500	2
0.51867	2
0.52233	3
0.52600	3
0.52967	3
0.53333	3
0.53700	3
0.54067	3
0.54433	2
0.54800	2
0.55167	1
0.55533	1
0.55900	1
0.56267	0
0.56633	0
0.57000	0
0.57367	-0
0.57733	-0
0.58100	-0
0.58467	0
0.58833	0
0.59200	0
0.59567	0
0.59933	0
0.60300	0
0.60667	0
0.61033	1
0.61400	1
0.61767	1
0.62133	1
0.62500	1
0.62867	1
0.63233	1
0.63600	1
0.63967	1
0.64333	1
0.64700	1
0.65067	1
0.65433	0
0.65800	0
0.66167	0
0.66533	0
0.66900	0
0.67267	0
0.67633	0
0.68000	1
0.68367	1
0.68733	1
0.69100	1
0.69467	1
0.69833	0
0.70200	0
0.70567	0
0.70933	-0
0.71300	-0
0.71667	-0
0.72033	-0
0.72400	-0
0.72767	-0
0.73133	0
0.73500	0
0.73867	0
0.74233	1
0.74600	1
0.74967	1
0.75333	1
0.75700	2
0.76067	2
0.76433	2
0.76800	2
0.77167	2
0.77533	2
0.77900	2
0.78267	3
0.78633	3
0.79000	3
0.79367	3
0.79733	3
0.80100	3
0.80467	3
0.80833	3
0.81200	3
0.81567	3
0.81933	3
0.82300	3
0.82667	3
0.83033	3
0.83400	3
0.83767	4
0.84133	4
0.84500	3
0.84867	3
0.85233	3
0.85600	2
0.85967	2
0.86333	2
0.86700	1
0.87067	1
0.87433	1
0.87800	1
0.88167	1
0.88533	1
0.88900	1
0.89267	0
0.89633	0
0.90000	-0
0.90367	-0
0.90733	-1
0.91100	-1
0.91467	-1
0.91833	-2
0.92200	-2
0.92567	-2
0.92933	-2
0.93300	-2
0.93667	-2
0.94033	-2
0.94400	-2
0.94767	-2
0.95133	-2
0.95500	-2
0.95867	-2
0.96233	-2
0.96600	-2
0.96967	-2
0.97333	-1
0.97700	-1
0.98067	-1
0.98433	-1
0.98800	-1
0.99167	-0
0.99533	-0
0.99900	-0
1.00267	0
1.00633	1
1.01000	1
1.01367	1
1.01733	1
1.02100	1
1.02467	1
1.02833	1
1.03200	1
1.03567	1
1.03933	1
1.04300	1
1.04667	1
1.05033	1
1.05400	1
1.05767	1
1.06133	1
1.06500	1
1.06867	1
1.07233	0
1.07600	-0
1.07967	-0
1.08333	-1
1.08700	-1
1.09067	-1
1.09433	-1
1.09800	-1
1.10167	-2
1.10533	-2
1.10900	-2
1.11267	-2
1.11633	-2
1.12000	-1
1.12367	-1
1.12733	-1
1.13100	-1
1.13467	-1
1.13833	-0
1.14200	0
1.14567	0
1.14933	1
1.15300	1
1.15667	2
1.16033	2
1.16400	2
1.16767	2
1.17133	2
1.17500	2
1.17867	2
1.18233	2
1.18600	1
1.18967	1
1.19333	1
1.19700	1
1.20067	1
1.20433	0
1.20800	0
1.21167	0
1.21533	0
1.21900	0
1.22267	0
1.22633	-0
1.23000	-0
1.23367	-0
1.23733	-0
1.24100	-0
1.24467	-0
1.24833	-0
1.25200	-0
1.25567	-1
1.25933	-1
1.26300	-1
1.26667	-1
1.27033	-1
1.27400	-1
1.27767	-2
1.28133	-2
1.28500	-2
1.28867	-2
1.29233	-2
1.29600	-2
1.29967	-2
1.30333	-2
1.30700	-2
1.31067	-2
1.31433	-2
1.31800	-2
1.32167	-1
1.32533	-1
1.32900	-1
1.33267	-1
1.33633	-1
1.34000	-0
1.34367	-0
1.34733	-0
1.35100	-0
1.35467	-0
1.35833	-0
1.36200	-0
1.36567	-1
1.36933	-1
1.37300	-1
1.37667	-1
1.38033	-2
1.38400	-2
1.38767	-2
1.39133	-2
1.39500	-2
1.39867	-2
1.40233	-2
1.40600	-1
1.40967	-1
1.41333	-1
1.41700	-1
1.42067	-1
1.42433	-1
1.42800	-1
1.43167	-1
1.43533	-1
1.43900	-0
1.44267	-0
1.44633	0
1.45000	0
1.45367	0
1.45733	0
1.46100	0
1.46467	0
1.46833	-0
1.47200	-0
1.47567	-0
1.47933	-0
1.48300	-0
1.48667	0
1.49033	0
1.49400	0
1.49767	-0
1.50133	-0
1.50500	-0
1.50867	-0
1.51233	-0
1.51600	-0
1.51967	-0
1.52333	-0
1.52700	-0
1.53067	-1
1.53433	-1
1.53800	-1
1.54167	-1
1.54533	-2
1.54900	-2
1.55267	-2
1.55633	-2
1.56000	-2
1.56367	-2
1.56733	-2
1.57100	-2
1.57467	-2
1.57833	-2
1.58200	-2
1.58567	-2
1.58933	-2
1.59300	-2
1.59667	-3
1.60033	-3
1.60400	-4
1.60767	-5
1.61133	-6
1.61500	-8
1.61867	-10
1.62233	-13
1.62600	-15
1.62967	-18
1.63333	-21
1.63700	-25
1.64067	-28
1.64433	-32
1.64800	-36
1.65167	-40
1.65533	-43
1.65900	-47
1.66267	-51
1.66633	-55
1.67000	-59
1.67367	-63
1.67733	-68
1.68100	-73
1.68467	-77
1.68833	-82
1.69200	-86
1.69567	-89
1.69933	-92
1.70300	-95
1.70667	-97
1.71033	-98
1.71400	-99
1.71767	-100
1.72133	-101
1.72500	-102
1.72867	-103
1.73233	-105
1.73600	-106
1.73967	-107
1.74333	-107
1.74700	-107
1.75067	-107
1.75433	-107
1.75800	-107
1.76167	-107
1.76533	-107
1.76900	-107
1.77267	-108
1.77633	-108
1.78000	-108
1.78367	-109
1.78733	-110
1.79100	-110
1.79467	-111
1.79833	-111
1.80200	-111
1.80567	-110
1.80933	-109
1.81300	-109
1.81667	-108
1.82033	-108
1.82400	-109
1.82767	-109
1.83133	-110
1.83500	-111
1.83867	-111
1.84233	-112
1.84600	-112
1.84967	-113
1.85333	-113
1.85700	-113
1.86067	-113
1.86433	-113
1.86800	-113
1.87167	-113
1.87533	-113
1.87900	-113
1.88267	-113
1.88633	-112
1.89000	-112
1.89367	-112
1.89733	-111
1.90100	-111
1.90467	-110
1.90833	-110
1.91200	-110
1.91567	-110
1.91933	-110
1.92300	-110
1.92667	-111
1.93033	-111
1.93400	-111
1.93767	-110
1.94133	-110
1.94500	-109
1.94867	-108
1.95233	-107
1.95600	-106
1.95967	-106
1.96333	-105
1.96700	-105
1.97067	-105
1.97433	-105
1.97800	-105
1.98167	-105
1.98533	-105
1.98900	-105
1.99267	-104
1.99633	-103
2.00000	-103
2.00367	-102
2.00733	-102
2.01100	-102
2.01467	-103
2.01833	-103
2.02200	-104
2.02567	-104
2.02933	-104
2.03300	-104
2.03667	-104
2.04033	-104
2.04400	-104
2.04767	-103
2.05133	-103
2.05500	-103
2.05867	-103
2.06233	-103
2.06600	-103
2.06967	-103
2.07333	-102
2.07700	-101
2.08067	-101
2.08433	-100
2.08800	-99
2.09167	-98
2.09533	-98
2.09900	-97
2.10267	-97
2.10633	-97
2.11000	-97
2.11367	-97
2.11733	-97
2.12100	-97
2.12467	-96
2.12833	-95
2.13200	-94
2.13567	-93
2.13933	-93
2.14300	-93
2.14667	-92
2.15033	-92
2.15400	-91
2.15767	-91
2.16133	-91
2.16500	-91
2.16867	-91
2.17233	-91
2.17600	-91
2.17967	-91
2.18333	-91
2.18700	-91
2.19067	-90
2.19433	-90
2.19800	-90
2.20167	-89
2.20533	-88
2.20900	-87
2.21267	-86
2.21633	-86
2.22000	-86
2.22367	-86
2.22733	-86
2.23100	-86
2.23467	-86
2.23833	-86
2.24200	-86
2.24567	-85
2.24933	-85
2.25300	-85
2.25667	-84
2.26033	-84
2.26400	-83
2.26767	-83
2.27133	-83
2.27500	-83
2.27867	-83
2.28233	-83
2.28600	-83
2.28967	-82
2.29333	-82
2.29700	-81
2.30067	-81
2.30433	-81
2.30800	-80
2.31167	-80
2.31533	-79
2.31900	-79
2.32267	-78
2.32633	-78
2.33000	-78
2.33367	-77
2.33733	-77
2.34100	-76
2.34467	-76
2.34833	-75
2.35200	-74
2.35567	-74
2.35933	-73
2.36300	-73
2.36667	-71
2.37033	-70
2.37400	-67
2.37767	-64
2.38133	-61
2.38500	-57
2.38867	-52
2.39233	-48
2.39600	-43
2.39967	-38
2.40333	-33
2.40700	-29
2.41067	-25
2.41433	-21
2.41800	-17
2.42167	-14
2.42533	-11
2.42900	-9
2.43267	-8
2.43633	-7
2.44000	-6
2.44367	-5
2.44733	-5
2.45100	-5
2.45467	-4
2.45833	-4
2.46200	-3
2.46567	-3
2.46933	-2
2.47300	-0
2.47667	0
2.48033	1
2.48400	2
2.48767	4
2.49133	5
2.49500	6
2.49867	7
2.50233	7
2.50600	8
2.50967	8
2.51333	9
2.51700	10
2.52067	10
2.52433	11
2.52800	11
2.53167	11
2.53533	12
2.53900	12
2.54267	13
2.54633	14
2.55000	14
2.55367	15
2.55733	15
2.56100	15
2.56467	16
2.56833	16
2.57200	16
2.57567	16
2.57933	16
2.58300	16
2.58667	16
2.59033	16
2.59400	15
2.59767	15
2.60133	15
2.60500	15
2.60867	14
2.61233	14
2.61600	14
2.61967	13
2.62333	13
2.62700	13
2.63067	14
2.63433	14
2.63800	14
2.64167	15
2.64533	16
2.64900	17
2.65267	18
2.65633	19
2.66000	20
2.66367	20
2.66733	21
2.67100	21
2.67467	21
2.67833	21
2.68200	21
2.68567	22
2.68933	22
2.69300	23
2.69667	24
2.70033	24
2.70400	25
2.70767	25
2.71133	25
2.71500	25
2.71867	25
2.72233	25
2.72600	25
2.72967	25
2.73333	24
2.73700	24
2.74067	24
2.74433	24
2.74800	24
2.75167	24
2.75533	24
2.75900	25
2.76267	25
2.76633	26
2.77000	26
2.77367	26
2.77733	27
2.78100	27
2.78467	28
2.78833	28
2.79200	28
2.79567	28
2.79933	28
2.80300	29
2.80667	29
2.81033	29
2.81400	29
2.81767	29
2.82133	29
2.82500	30
2.82867	30
2.83233	29
2.83600	29
2.83967	28
2.84333	26
2.84700	24
2.85067	20
2.85433	14
2.85800	5
2.86167	-8
2.86533	-23
2.86900	-43
2.87267	-68
2.87633	-97
2.88000	-130
2.88367	-168
2.88733	-210
2.89100	-255
2.89467	-303
2.89833	-353
2.90200	-406
2.90567	-460
2.90933	-515
2.91300	-570
2.91667	-626
2.92033	-681
2.92400	-735
2.92767	-787
2.93133	-838
2.93500	-889
2.93867	-945
2.94233	-1003
2.94600	-1054
2.94967	-1088
2.95333	-1097
2.95700	-1081
2.96067	-1042
2.96433	-984
2.96800	-914
2.97167	-837
2.97533	-756
2.97900	-676
2.98267	-600
2.98633	-528
2.99000	-461
2.99367	-401
2.99733	-347
3.00100	-299
3.00467	-257
3.00833	-219
3.01200	-186
3.01567	-158
3.01933	-133
3.02300	-112
3.02667	-94
3.03033	-78
3.03400	-65
3.03767	-54
3.04133	-44
3.04500	-35
3.04867	-28
3.05233	-22
3.05600	-17
3.05967	-12
3.06333	-8
3.06700	-5
3.07067	-2
3.07433	1
3.07800	3
3.08167	5
3.08533	7
3.08900	8
3.09267	9
3.09633	10
3.10000	11
3.10367	12
3.10733	13
3.11100	14
3.11467	14
3.11833	14
3.12200	15
3.12567	15
3.12933	16
3.13300	16
3.13667	17
3.14033	17
3.14400	18
3.14767	18
3.15133	19
3.15500	20
3.15867	20
3.16233	20
3.16600	20
3.16967	20
3.17333	21
3.17700	21
3.18067	21
3.18433	21
3.18800	21
3.19167	21
3.19533	21
3.19900	21
3.20267	21
3.20633	22
3.21000	22
3.21367	22
3.21733	22
3.22100	22
3.22467	22
3.22833	22
3.23200	22
3.23567	22
3.23933	22
3.24300	22
3.24667	23
3.25033	23
3.25400	23
3.25767	24
3.26133	24
3.26500	24
3.26867	25
3.27233	25
3.27600	25
3.27967	25
3.28333	25
3.28700	26
3.29067	26
3.29433	26
3.29800	26
3.30167	26
3.30533	26
3.30900	26
3.31267	25
3.31633	25
3.32000	25
3.32367	25
3.32733	25
3.33100	25
3.33467	25
3.33833	25
3.34200	25
3.34567	25
3.34933	26
3.35300	26
3.35667	26
3.36033	26
3.36400	27
3.36767	27
3.37133	27
3.37500	28
3.37867	28
3.38233	28
3.38600	28
3.38967	28
3.39333	28
3.39700	29
3.40067	28
3.40433	28
3.40800	28
3.41167	28
3.41533	28
3.41900	28
3.42267	28
3.42633	28
3.43000	28
3.43367	28
3.43733	28
3.44100	28
3.44467	28
3.44833	28
3.45200	28
3.45567	28
3.45933	28
3.46300	28
3.46667	28
3.47033	28
3.47400	28
3.47767	28
3.48133	29
3.48500	29
3.48867	29
3.49233	29
3.49600	29
3.49967	29
3.50333	29
3.50700	29
3.51067	28
3.51433	28
3.51800	28
3.52167	28
3.52533	28
3.52900	28
3.53267	28
3.53633	28
3.54000	28
3.54367	28
3.54733	28
3.55100	28
3.55467	28
3.55833	27
3.56200	27
3.56567	27
3.56933	27
3.57300	27
3.57667	28
3.58033	28
3.58400	28
3.58767	28
3.59133	28
3.59500	28
3.59867	28
3.60233	28
3.60600	28
3.60967	28
3.61333	28
3.61700	28
3.62067	28
3.62433	28
3.62800	28
3.63167	28
3.63533	29
3.63900	29
3.64267	29
3.64633	29
3.65000	29
3.65367	30
3.65733	30
3.66100	30
3.66467	30
3.66833	30
3.67200	30
3.67567	30
3.67933	30
3.68300	30
3.68667	30
3.69033	29
3.69400	29
3.69767	29
3.70133	29
3.70500	29
3.70867	29
3.71233	28
3.71600	28
3.71967	28
3.72333	28
3.72700	29
3.73067	29
3.73433	29
3.73800	29
3.74167	29
3.74533	28
3.74900	28
3.75267	28
3.75633	28
3.76000	28
3.76367	27
3.76733	27
3.77100	27
3.77467	27
3.77833	26
3.78200	26
3.78567	26
3.78933	27
3.79300	27
3.79667	27
3.80033	27
3.80400	26
3.80767	26
3.81133	26
3.81500	26
3.81867	26
3.82233	26
3.82600	27
3.82967	27
3.83333	27
3.83700	27
3.84067	27
3.84433	27
3.84800	28
3.85167	28
3.85533	28
3.85900	27
3.86267	27
3.86633	28
3.87000	28
3.87367	28
3.87733	28
3.88100	28
3.88467	28
3.88833	28
3.89200	29
3.89567	29
3.89933	29
3.90300	29
3.90667	29
3.91033	29
3.91400	29
3.91767	29
3.92133	29
3.92500	29
3.92867	29
3.93233	29
3.93600	28
3.93967	28
3.94333	28
3.94700	28
3.95067	28
3.95433	28
3.95800	28
3.96167	27
3.96533	27
3.96900	27
3.97267	27
3.97633	27
3.98000	26
3.98367	26
3.98733	26
3.99100	26
3.99467	26
3.99833	26

[Chromatogram (Ch3)]
Interval(msec)	220
# of Points	1091
Start Time(min)	0.002
End Time(min)	3.998
R.Time (min)	Intensity
0.00167	1
0.00533	3
0.00900	5
0.01267	6
0.01633	7
0.02000	7
0.02367	4
0.02733	3
0.03100	3
0.03467	3
0.03833	4
0.04200	4
0.04567	3
0.04933	2
0.05300	4
0.05667	5
0.06033	4
0.06400	3
0.06767	2
0.07133	2
0.07500	3
0.07867	6
0.08233	8
0.08600	7
0.08967	6
0.09333	4
0.09700	1
0.10067	3
0.10433	5
0.10800	5
0.11167	4
0.11533	4
0.11900	4
0.12267	4
0.12633	6
0.13000	7
0.13367	8
0.13733	9
0.14100	6
0.14467	4
0.14833	1
0.15200	0
0.15567	2
0.15933	3
0.16300	2
0.16667	3
0.17033	3
0.17400	2
0.17767	0
0.18133	-1
0.18500	-4
0.18867	-6
0.19233	-5
0.19600	-2
0.19967	1
0.20333	3
0.20700	3
0.21067	4
0.21433	4
0.21800	4
0.22167	4
0.22533	5
0.22900	5
0.23267	6
0.23633	6
0.24000	5
0.24367	4
0.24733	4
0.25100	3
0.25467	2
0.25833	2
0.26200	1
0.26567	3
0.26933	4
0.27300	5
0.27667	5
0.28033	4
0.28400	4
0.28767	4
0.29133	4
0.29500	5
0.29867	5
0.30233	4
0.30600	3
0.30967	2
0.31333	2
0.31700	2
0.32067	2
0.32433	2
0.32800	1
0.33167	1
0.33533	4
0.33900	6
0.34267	6
0.34633	8
0.35000	7
0.35367	6
0.35733	7
0.36100	8
0.36467	6
0.36833	6
0.37200	7
0.37567	8
0.37933	8
0.38300	7
0.38667	6
0.39033	6
0.39400	7
0.39767	8
0.40133	8
0.40500	8
0.40867	5
0.41233	4
0.41600	5
0.41967	5
0.42333	4
0.42700	4
0.43067	5
0.43433	4
0.43800	3
0.44167	2
0.44533	2
0.44900	2
0.45267	2
0.45633	2
0.46000	3
0.46367	4
0.46733	3
0.47100	2
0.47467	2
0.47833	3
0.48200	4
0.48567	5
0.48933	4
0.49300	6
0.49667	6
0.50033	4
0.50400	2
0.50767	1
0.51133	2
0.51500	6
0.51867	9
0.52233	12
0.52600	13
0.52967	11
0.53333	7
0.53700	3
0.54067	1
0.54433	-1
0.54800	1
0.55167	4
0.55533	6
0.55900	7
0.56267	8
0.56633	6
0.57000	5
0.57367	5
0.57733	5
0.58100	5
0.58467	3
0.58833	2
0.59200	4
0.59567	6
0.59933	7
0.60300	6
0.60667	6
0.61033	6
0.61400	7
0.61767	8
0.62133	7
0.62500	6
0.62867	6
0.63233	5
0.63600	4
0.63967	5
0.64333	6
0.64700	7
0.65067	7
0.65433	7
0.65800	8
0.66167	9
0.66533	9
0.66900	9
0.67267	7
0.67633	6
0.68000	6
0.68367	5
0.68733	6
0.69100	6
0.69467	6
0.69833	4
0.70200	3
0.70567	4
0.70933	6
0.71300	10
0.71667	10
0.72033	10
0.72400	11
0.72767	12
0.73133	12
0.73500	13
0.73867	12
0.74233	10
0.74600	9
0.74967	8
0.75333	7
0.75700	6
0.76067	6
0.76433	8
0.76800	10
0.77167	11
0.77533	11
0.77900	10
0.78267	9
0.78633	9
0.79000	9
0.79367	9
0.79733	9
0.80100	8
0.80467	8
0.80833	7
0.81200	8
0.81567	9
0.81933	9
0.82300	10
0.82667	12
0.83033	12
0.83400	11
0.83767	8
0.84133	8
0.84500	9
0.84867	11
0.85233	10
0.85600	9
0.85967	8
0.86333	9
0.86700	11
0.87067	11
0.87433	10
0.87800	9
0.88167	9
0.88533	9
0.88900	9
0.89267	10
0.89633	8
0.90000	8
0.90367	9
0.90733	10
0.91100	10
0.91467	11
0.91833	13
0.92200	14
0.92567	15
0.92933	14
0.93300	14
0.93667	13
0.94033	12
0.94400	11
0.94767	13
0.95133	12
0.95500	13
0.95867	14
0.96233	14
0.96600	14
0.96967	14
0.97333	15
0.97700	15
0.98067	14
0.98433	12
0.98800	12
0.99167	13
0.99533	13
0.99900	12
1.00267	12
1.00633	13
1.01000	12
1.01367	13
1.01733	14
1.02100	13
1.02467	12
1.02833	10
1.03200	10
1.03567	11
1.03933	11
1.04300	11
1.04667	11
1.05033	10
1.05400	9
1.05767	10
1.06133	9
1.06500	8
1.06867	9
1.07233	11
1.07600	11
1.07967	12
1.08333	13
1.08700	14
1.09067	13
1.09433	12
1.09800	11
1.10167	11
1.10533	13
1.10900	12
1.11267	12
1.11633	11
1.12000	11
1.12367	12
1.12733	12
1.13100	11
1.13467	10
1.13833	10
1.14200	12
1.14567	12
1.14933	11
1.15300	12
1.15667	13
1.16033	15
1.16400	17
1.16767	16
1.17133	15
1.17500	13
1.17867	16
1.18233	18
1.18600	17
1.18967	15
1.19333	15
1.19700	16
1.20067	15
1.20433	15
1.20800	16
1.21167	16
1.21533	17
1.21900	17
1.22267	17
1.22633	18
1.23000	19
1.23367	19
1.23733	19
1.24100	18
1.24467	18
1.24833	16
1.25200	15
1.25567	14
1.25933	14
1.26300	13
1.26667	13
1.27033	15
1.27400	17
1.27767	17
1.28133	17
1.28500	17
1.28867	16
1.29233	16
1.29600	18
1.29967	18
1.30333	19
1.30700	20
1.31067	21
1.31433	22
1.31800	21
1.32167	21
1.32533	19
1.32900	17
1.33267	17
1.33633	16
1.34000	15
1.34367	16
1.34733	16
1.35100	18
1.35467	18
1.35833	17
1.36200	17
1.36567	18
1.36933	18
1.37300	16
1.37667	15
1.38033	15
1.38400	14
1.38767	15
1.39133	18
1.39500	19
1.39867	20
1.40233	19
1.40600	18
1.40967	20
1.41333	21
1.41700	19
1.42067	17
1.42433	15
1.42800	13
1.43167	15
1.43533	17
1.43900	19
1.44267	19
1.44633	18
1.45000	17
1.45367	17
1.45733	17
1.46100	18
1.46467	17
1.46833	18
1.47200	16
1.47567	14
1.47933	15
1.48300	16
1.48667	17
1.49033	17
1.49400	20
1.49767	20
1.50133	19
1.50500	17
1.50867	16
1.51233	18
1.51600	19
1.51967	20
1.52333	21
1.52700	22
1.53067	24
1.53433	25
1.53800	25
1.54167	25
1.54533	25
1.54900	25
1.55267	24
1.55633	23
1.56000	23
1.56367	22
1.56733	22
1.57100	21
1.57467	20
1.57833	22
1.58200	23
1.58567	24
1.58933	26
1.59300	26
1.59667	25
1.60033	24
1.60400	23
1.60767	22
1.61133	25
1.61500	28
1.61867	29
1.62233	28
1.62600	29
1.62967	31
1.63333	32
1.63700	32
1.64067	30
1.64433	29
1.64800	29
1.65167	28
1.65533	30
1.65900	33
1.66267	34
1.66633	35
1.67000	36
1.67367	37
1.67733	35
1.68100	33
1.68467	33
1.68833	36
1.69200	38
1.69567	39
1.69933	41
1.70300	40
1.70667	39
1.71033	39
1.71400	39
1.71767	39
1.72133	38
1.72500	39
1.72867	41
1.73233	42
1.73600	44
1.73967	45
1.74333	44
1.74700	43
1.75067	44
1.75433	44
1.75800	42
1.76167	44
1.76533	46
1.76900	47
1.77267	48
1.77633	51
1.78000	50
1.78367	49
1.78733	48
1.79100	48
1.79467	48
1.79833	47
1.80200	47
1.80567	46
1.80933	46
1.81300	47
1.81667	50
1.82033	49
1.82400	46
1.82767	46
1.83133	47
1.83500	49
1.83867	51
1.84233	54
1.84600	57
1.84967	59
1.85333	59
1.85700	59
1.86067	58
1.86433	59
1.86800	59
1.87167	59
1.87533	60
1.87900	63
1.88267	66
1.88633	67
1.89000	67
1.89367	65
1.89733	65
1.90100	65
1.90467	66
1.90833	65
1.91200	65
1.91567	65
1.91933	65
1.92300	68
1.92667	71
1.93033	75
1.93400	78
1.93767	80
1.94133	81
1.94500	80
1.94867	80
1.95233	78
1.95600	77
1.95967	77
1.96333	80
1.96700	82
1.97067	82
1.97433	82
1.97800	83
1.98167	84
1.98533	87
1.98900	90
1.99267	90
1.99633	89
2.00000	90
2.00367	91
2.00733	90
2.01100	87
2.01467	88
2.01833	90
2.02200	95
2.02567	98
2.02933	101
2.03300	104
2.03667	106
2.04033	107
2.04400	108
2.04767	110
2.05133	109
2.05500	109
2.05867	110
2.06233	111
2.06600	113
2.06967	114
2.07333	116
2.07700	118
2.08067	120
2.08433	121
2.08800	120
2.09167	121
2.09533	123
2.09900	125
2.10267	127
2.10633	129
2.11000	130
2.11367	132
2.11733	135
2.12100	136
2.12467	138
2.12833	137
2.13200	137
2.13567	137
2.13933	137
2.14300	137
2.14667	141
2.15033	143
2.15400	144
2.15767	146
2.16133	149
2.16500	150
2.16867	151
2.17233	153
2.17600	154
2.17967	156
2.18333	158
2.18700	159
2.19067	159
2.19433	161
2.19800	161
2.20167	162
2.20533	165
2.20900	168
2.21267	169
2.21633	171
2.22000	172
2.22367	175
2.22733	177
2.23100	179
2.23467	181
2.23833	181
2.24200	183
2.24567	185
2.24933	186
2.25300	185
2.25667	184
2.26033	185
2.26400	190
2.26767	193
2.27133	196
2.27500	196
2.27867	195
2.28233	195
2.28600	197
2.28967	198
2.29333	199
2.29700	201
2.30067	205
2.30433	207
2.30800	206
2.31167	204
2.31533	204
2.31900	207
2.32267	211
2.32633	213
2.33000	213
2.33367	214
2.33733	215
2.34100	215
2.34467	216
2.34833	219
2.35200	222
2.35567	224
2.35933	224
2.36300	225
2.36667	226
2.37033	229
2.37400	230
2.37767	231
2.38133	231
2.38500	229
2.38867	227
2.39233	226
2.39600	228
2.39967	230
2.40333	233
2.40700	238
2.41067	242
2.41433	247
2.41800	249
2.42167	251
2.42533	252
2.42900	253
2.43267	253
2.43633	253
2.44000	256
2.44367	317
2.44733	475
2.45100	644
2.45467	783
2.45833	861
2.46200	864
2.46567	826
2.46933	782
2.47300	748
2.47667	728
2.48033	710
2.48400	683
2.48767	640
2.49133	590
2.49500	541
2.49867	501
2.50233	473
2.50600	455
2.50967	450
2.51333	458
2.51700	478
2.52067	503
2.52433	525
2.52800	538
2.53167	536
2.53533	520
2.53900	493
2.54267	461
2.54633	427
2.55000	395
2.55367	367
2.55733	344
2.56100	328
2.56467	316
2.56833	308
2.57200	301
2.57567	297
2.57933	294
2.58300	292
2.58667	291
2.59033	291
2.59400	293
2.59767	297
2.60133	300
2.60500	299
2.60867	296
2.61233	289
2.61600	280
2.61967	268
2.62333	256
2.62700	247
2.63067	237
2.63433	226
2.63800	213
2.64167	199
2.64533	185
2.64900	173
2.65267	160
2.65633	147
2.66000	132
2.66367	120
2.66733	109
2.67100	101
2.67467	95
2.67833	88
2.68200	82
2.68567	81
2.68933	80
2.69300	78
2.69667	78
2.70033	80
2.70400	82
2.70767	85
2.71133	87
2.71500	89
2.71867	93
2.72233	98
2.72600	103
2.72967	108
2.73333	112
2.73700	116
2.74067	119
2.74433	122
2.74800	124
2.75167	127
2.75533	130
2.75900	133
2.76267	138
2.76633	142
2.77000	146
2.77367	149
2.77733	150
2.78100	154
2.78467	159
2.78833	163
2.79200	167
2.79567	171
2.79933	173
2.80300	177
2.80667	184
2.81033	192
2.81400	201
2.81767	211
2.82133	224
2.82500	243
2.82867	279
2.83233	347
2.83600	467
2.83967	658
2.84333	944
2.84700	1333
2.85067	1816
2.85433	2373
2.85800	2965
2.86167	3552
2.86533	4083
2.86900	4515
2.87267	4816
2.87633	4975
2.88000	4993
2.88367	4886
2.88733	4682
2.89100	4406
2.89467	4081
2.89833	3733
2.90200	3382
2.90567	3041
2.90933	2720
2.91300	2423
2.91667	2154
2.92033	1910
2.92400	1691
2.92767	1496
2.93133	1324
2.93500	1174
2.93867	1041
2.94233	925
2.94600	825
2.94967	736
2.95333	659
2.95700	592
2.96067	533
2.96433	485
2.96800	444
2.97167	407
2.97533	375
2.97900	347
2.98267	324
2.98633	305
2.99000	287
2.99367	270
2.99733	255
3.00100	243
3.00467	231
3.00833	223
3.01200	216
3.01567	209
3.01933	202
3.02300	200
3.02667	197
3.03033	193
3.03400	190
3.03767	186
3.04133	184
3.04500	183
3.04867	181
3.05233	180
3.05600	181
3.05967	181
3.06333	179
3.06700	179
3.07067	178
3.07433	177
3.07800	177
3.08167	176
3.08533	176
3.08900	176
3.09267	176
3.09633	176
3.10000	178
3.10367	180
3.10733	179
3.11100	177
3.11467	172
3.11833	154
3.12200	135
3.12567	134
3.12933	151
3.13300	183
3.13667	224
3.14033	272
3.14400	325
3.14767	376
3.15133	422
3.15500	463
3.15867	499
3.16233	531
3.16600	557
3.16967	582
3.17333	605
3.17700	624
3.18067	641
3.18433	654
3.18800	666
3.19167	677
3.19533	686
3.19900	694
3.20267	704
3.20633	713
3.21000	722
3.21367	729
3.21733	733
3.22100	738
3.22467	745
3.22833	751
3.23200	755
3.23567	761
3.23933	769
3.24300	775
3.24667	781
3.25033	786
3.25400	792
3.25767	798
3.26133	805
3.26500	811
3.26867	817
3.27233	824
3.27600	830
3.27967	838
3.28333	843
3.28700	846
3.29067	850
3.29433	856
3.29800	861
3.30167	864
3.30533	868
3.30900	872
3.31267	877
3.31633	882
3.32000	887
3.32367	890
3.32733	893
3.33100	895
3.33467	899
3.33833	901
3.34200	902
3.34567	900
3.34933	897
3.35300	897
3.35667	895
3.36033	892
3.36400	891
3.36767	890
3.37133	890
3.37500	889
3.37867	890
3.38233	890
3.38600	887
3.38967	884
3.39333	880
3.39700	878
3.40067	877
3.40433	875
3.40800	872
3.41167	869
3.41533	868
3.41900	864
3.42267	863
3.42633	861
3.43000	861
3.43367	859
3.43733	856
3.44100	853
3.44467	850
3.44833	847
3.45200	846
3.45567	843
3.45933	840
3.46300	839
3.46667	838
3.47033	837
3.47400	836
3.47767	833
3.48133	830
3.48500	826
3.48867	824
3.49233	823
3.49600	823
3.49967	824
3.50333	824
3.50700	821
3.51067	820
3.51433	819
3.51800	821
3.52167	821
3.52533	819
3.52900	819
3.53267	817
3.53633	814
3.54000	815
3.54367	813
3.54733	813
3.55100	813
3.55467	812
3.55833	810
3.56200	810
3.56567	812
3.56933	812
3.57300	814
3.57667	814
3.58033	813
3.58400	811
3.58767	809
3.59133	809
3.59500	810
3.59867	809
3.60233	809
3.60600	811
3.60967	810
3.61333	807
3.61700	804
3.62067	800
3.62433	796
3.62800	794
3.63167	793
3.63533	791
3.63900	792
3.64267	789
3.64633	790
3.65000	790
3.65367	789
3.65733	786
3.66100	783
3.66467	781
3.66833	780
3.67200	779
3.67567	776
3.67933	775
3.68300	774
3.68667	772
3.69033	770
3.69400	768
3.69767	767
3.70133	766
3.70500	764
3.70867	761
3.71233	758
3.71600	756
3.71967	754
3.72333	754
3.72700	752
3.73067	749
3.73433	748
3.73800	745
3.74167	741
3.74533	738
3.74900	736
3.75267	734
3.75633	736
3.76000	737
3.76367	736
3.76733	733
3.77100	732
3.77467	730
3.77833	728
3.78200	726
3.78567	723
3.78933	720
3.79300	717
3.79667	715
3.80033	713
3.80400	711
3.80767	709
3.81133	709
3.81500	706
3.81867	702
3.82233	699
3.82600	700
3.82967	699
3.83333	699
3.83700	698
3.84067	696
3.84433	692
3.84800	688
3.85167	685
3.85533	683
3.85900	682
3.86267	682
3.86633	679
3.87000	677
3.87367	675
3.87733	673
3.88100	671
3.88467	667
3.88833	665
3.89200	661
3.89567	658
3.89933	657
3.90300	655
3.90667	653
3.91033	651
3.91400	647
3.91767	645
3.92133	644
3.92500	644
3.92867	645
3.93233	645
3.93600	643
3.93967	641
3.94333	640
3.94700	638
3.95067	636
3.95433	635
3.95800	633
3.96167	629
3.96533	628
3.96900	628
3.97267	629
3.97633	631
3.98000	632
3.98367	631
3.98733	629
3.99100	626
3.99467	624
3.99833	619

[Status Trace (Column Oven Temperature)]
Interval(msec)	1000
# of Points	240
Start Time(min)	0.001
End Time(min)	3.984
Intensity Units	
Intensity Multiplier	1
R.Time (min)	Intensity
0.00105	35.05
0.01772	35.06
0.03438	35.07
0.05105	35.07
0.06772	35.08
0.08438	35.06
0.10105	35.04
0.11772	35.03
0.13438	35.04
0.15105	35.04
0.16772	35.03
0.18438	35.03
0.20105	35.02
0.21772	35.02
0.23438	35.01
0.25105	35.00
0.26772	35.00
0.28438	35.00
0.30105	35.01
0.31772	35.01
0.33438	35.01
0.35105	35.01
0.36772	35.01
0.38438	35.01
0.40105	35.01
0.41772	35.00
0.43438	34.99
0.45105	35.00
0.46772	35.01
0.48438	35.01
0.50105	35.00
0.51772	35.00
0.53438	35.00
0.55105	35.00
0.56772	35.00
0.58438	35.00
0.60105	35.00
0.61772	35.00
0.63438	35.01
0.65105	35.01
0.66772	35.01
0.68438	35.02
0.70105	35.02
0.71772	35.02
0.73438	35.02
0.75105	35.01
0.76772	35.01
0.78438	35.01
0.80105	35.00
0.81772	34.99
0.83438	34.98
0.85105	34.98
0.86772	34.98
0.88438	34.98
0.90105	34.98
0.91772	34.99
0.93438	34.99
0.95105	35.01
0.96772	35.01
0.98438	35.01
1.00105	35.01
1.01772	35.00
1.03438	35.00
1.05105	35.00
1.06772	35.00
1.08438	35.01
1.10105	35.01
1.11772	35.00
1.13438	34.99
1.15105	34.99
1.16772	34.98
1.18438	34.98
1.20105	34.98
1.21772	34.98
1.23438	34.98
1.25105	34.98
1.26772	34.99
1.28438	34.99
1.30105	34.99
1.31772	34.99
1.33438	34.99
1.35105	34.99
1.36772	35.00
1.38438	35.01
1.40105	35.00
1.41772	35.01
1.43438	35.01
1.45105	35.00
1.46772	35.00
1.48438	35.00
1.50105	35.00
1.51772	35.01
1.53438	35.01
1.55105	35.02
1.56772	35.03
1.58438	35.03
1.60105	35.07
1.61772	35.16
1.63438	35.33
1.65105	35.54
1.66772	35.82
1.68438	36.18
1.70105	36.53
1.71772	36.87
1.73438	37.21
1.75105	37.54
1.76772	37.86
1.78438	38.21
1.80105	38.52
1.81772	38.85
1.83438	39.19
1.85105	39.53
1.86772	39.85
1.88438	40.19
1.90105	40.51
1.91772	40.83
1.93438	41.17
1.95105	41.49
1.96772	41.81
1.98438	42.15
2.00105	42.46
2.01772	42.80
2.03438	43.12
2.05105	43.46
2.06772	43.79
2.08438	44.10
2.10105	44.44
2.11772	44.77
2.13438	45.09
2.15105	45.41
2.16772	45.74
2.18438	46.06
2.20105	46.39
2.21772	46.71
2.23438	47.05
2.25105	47.35
2.26772	47.70
2.28438	48.02
2.30105	48.35
2.31772	48.69
2.33438	49.01
2.35105	49.33
2.36772	49.59
2.38438	49.69
2.40105	49.69
2.41772	49.66
2.43438	49.66
2.45105	49.68
2.46772	49.69
2.48438	49.69
2.50105	49.70
2.51772	49.72
2.53438	49.75
2.55105	49.76
2.56772	49.78
2.58438	49.78
2.60105	49.81
2.61772	49.84
2.63438	49.85
2.65105	49.84
2.66772	49.85
2.68438	49.86
2.70105	49.84
2.71772	49.85
2.73438	49.87
2.75105	49.89
2.76772	49.88
2.78438	49.87
2.80105	49.86
2.81772	49.84
2.83438	49.87
2.85105	49.90
2.86772	49.92
2.88438	49.93
2.90105	49.94
2.91772	49.94
2.93438	49.93
2.95105	49.92
2.96772	49.92
2.98438	49.93
3.00105	49.96
3.01772	49.98
3.03438	50.00
3.05105	50.01
3.06772	50.02
3.08438	50.03
3.10105	50.02
3.11772	50.04
3.13438	50.05
3.15105	50.05
3.16772	50.06
3.18438	50.07
3.20105	50.07
3.21772	50.08
3.23438	50.09
3.25105	50.08
3.26772	50.08
3.28438	50.09
3.30105	50.10
3.31772	50.11
3.33438	50.11
3.35105	50.11
3.36772	50.09
3.38438	50.09
3.40105	50.08
3.41772	50.07
3.43438	50.06
3.45105	50.06
3.46772	50.06
3.48438	50.05
3.50105	50.04
3.51772	50.04
3.53438	50.04
3.55105	50.04
3.56772	50.04
3.58438	50.04
3.60105	50.05
3.61772	50.04
3.63438	50.03
3.65105	50.02
3.66772	50.02
3.68438	50.01
3.70105	50.02
3.71772	50.02
3.73438	50.02
3.75105	50.03
3.76772	50.03
3.78438	50.05
3.80105	50.06
3.81772	50.06
3.83438	50.06
3.85105	50.07
3.86772	50.06
3.88438	50.06
3.90105	50.05
3.91772	50.05
3.93438	50.06
3.95105	50.07
3.96772	50.09
3.98438	50.09

[Status Trace (Injection Unit Temperature)]
Interval(msec)	1000
# of Points	240
Start Time(min)	0.001
End Time(min)	3.984
Intensity Units	
Intensity Multiplier	1
R.Time (min)	Intensity
0.00105	99.98
0.01772	99.98
0.03438	99.99
0.05105	99.98
0.06772	99.99
0.08438	99.99
0.10105	99.99
0.11772	99.99
0.13438	99.99
0.15105	99.99
0.16772	99.99
0.18438	99.99
0.20105	99.99
0.21772	99.99
0.23438	99.98
0.25105	99.99
0.26772	99.99
0.28438	99.99
0.30105	99.99
0.31772	99.99
0.33438	99.99
0.35105	99.99
0.36772	99.98
0.38438	99.99
0.40105	99.99
0.41772	99.99
0.43438	99.98
0.45105	99.99
0.46772	99.99
0.48438	99.98
0.50105	99.98
0.51772	99.98
0.53438	99.98
0.55105	99.99
0.56772	99.98
0.58438	99.98
0.60105	99.98
0.61772	99.98
0.63438	99.98
0.65105	99.98
0.66772	99.98
0.68438	99.98
0.70105	99.98
0.71772	99.98
0.73438	99.98
0.75105	99.98
0.76772	99.98
0.78438	99.98
0.80105	99.98
0.81772	99.97
0.83438	99.98
0.85105	99.98
0.86772	99.97
0.88438	99.97
0.90105	99.98
0.91772	99.98
0.93438	99.98
0.95105	99.97
0.96772	99.98
0.98438	99.98
1.00105	99.98
1.01772	99.98
1.03438	99.98
1.05105	99.98
1.06772	99.98
1.08438	99.98
1.10105	99.98
1.11772	99.99
1.13438	99.98
1.15105	99.98
1.16772	99.98
1.18438	99.98
1.20105	99.98
1.21772	99.98
1.23438	99.98
1.25105	99.98
1.26772	99.99
1.28438	99.99
1.30105	99.99
1.31772	99.99
1.33438	99.98
1.35105	99.99
1.36772	99.99
1.38438	99.99
1.40105	99.99
1.41772	99.99
1.43438	99.99
1.45105	99.99
1.46772	99.99
1.48438	99.99
1.50105	99.99
1.51772	99.99
1.53438	99.99
1.55105	99.99
1.56772	99.99
1.58438	99.99
1.60105	99.99
1.61772	99.99
1.63438	99.99
1.65105	99.99
1.66772	99.99
1.68438	99.99
1.70105	100.00
1.71772	99.99
1.73438	99.99
1.75105	99.99
1.76772	99.99
1.78438	99.99
1.80105	99.98
1.81772	99.99
1.83438	99.99
1.85105	99.99
1.86772	99.99
1.88438	99.99
1.90105	99.99
1.91772	99.99
1.93438	99.99
1.95105	99.98
1.96772	99.99
1.98438	99.98
2.00105	99.98
2.01772	99.98
2.03438	99.98
2.05105	99.98
2.06772	99.98
2.08438	99.98
2.10105	99.98
2.11772	99.98
2.13438	99.97
2.15105	99.97
2.16772	99.97
2.18438	99.98
2.20105	99.98
2.21772	99.97
2.23438	99.98
2.25105	99.98
2.26772	99.98
2.28438	99.97
2.30105	99.97
2.31772	99.97
2.33438	99.97
2.35105	99.97
2.36772	99.97
2.38438	99.96
2.40105	99.97
2.41772	99.97
2.43438	99.97
2.45105	99.97
2.46772	99.97
2.48438	99.97
2.50105	99.97
2.51772	99.97
2.53438	99.97
2.55105	99.97
2.56772	99.97
2.58438	99.97
2.60105	99.97
2.61772	99.97
2.63438	99.97
2.65105	99.98
2.66772	99.98
2.68438	99.98
2.70105	99.98
2.71772	99.99
2.73438	99.99
2.75105	99.99
2.76772	99.99
2.78438	99.99
2.80105	99.99
2.81772	99.99
2.83438	99.99
2.85105	100.00
2.86772	100.00
2.88438	100.00
2.90105	100.00
2.91772	100.00
2.93438	100.00
2.95105	100.00
2.96772	100.01
2.98438	100.01
3.00105	100.01
3.01772	100.01
3.03438	100.01
3.05105	100.01
3.06772	100.01
3.08438	100.01
3.10105	100.01
3.11772	100.01
3.13438	100.01
3.15105	100.02
3.16772	100.02
3.18438	100.01
3.20105	100.02
3.21772	100.02
3.23438	100.02
3.25105	100.02
3.26772	100.02
3.28438	100.03
3.30105	100.02
3.31772	100.02
3.33438	100.03
3.35105	100.03
3.36772	100.03
3.38438	100.03
3.40105	100.03
3.41772	100.03
3.43438	100.03
3.45105	100.03
3.46772	100.03
3.48438	100.04
3.50105	100.03
3.51772	100.03
3.53438	100.04
3.55105	100.04
3.56772	100.04
3.58438	100.04
3.60105	100.04
3.61772	100.04
3.63438	100.04
3.65105	100.04
3.66772	100.04
3.68438	100.04
3.70105	100.04
3.71772	100.04
3.73438	100.04
3.75105	100.04
3.76772	100.05
3.78438	100.04
3.80105	100.05
3.81772	100.04
3.83438	100.04
3.85105	100.05
3.86772	100.04
3.88438	100.05
3.90105	100.04
3.91772	100.04
3.93438	100.05
3.95105	100.05
3.96772	100.05
3.98438	100.05

[Status Trace (Carrier Gas Pressure)]
Interval(msec)	1000
# of Points	240
Start Time(min)	0.001
End Time(min)	3.984
Intensity Units	
Intensity Multiplier	1
R.Time (min)	Intensity
0.00105	58.00
0.01772	56.64
0.03438	56.12
0.05105	58.46
0.06772	59.89
0.08438	58.37
0.10105	57.97
0.11772	58.00
0.13438	58.01
0.15105	58.01
0.16772	58.00
0.18438	58.00
0.20105	58.00
0.21772	58.00
0.23438	58.00
0.25105	58.00
0.26772	58.00
0.28438	58.00
0.30105	58.00
0.31772	58.00
0.33438	58.00
0.35105	58.00
0.36772	58.00
0.38438	58.00
0.40105	58.00
0.41772	58.00
0.43438	58.00
0.45105	58.00
0.46772	58.00
0.48438	58.00
0.50105	58.00
0.51772	58.00
0.53438	58.00
0.55105	58.00
0.56772	58.00
0.58438	58.00
0.60105	58.00
0.61772	58.00
0.63438	58.00
0.65105	58.00
0.66772	58.00
0.68438	58.00
0.70105	58.00
0.71772	58.00
0.73438	58.00
0.75105	58.00
0.76772	58.00
0.78438	58.00
0.80105	58.00
0.81772	58.00
0.83438	58.00
0.85105	58.00
0.86772	58.00
0.88438	58.00
0.90105	58.00
0.91772	58.00
0.93438	58.00
0.95105	58.00
0.96772	58.00
0.98438	58.00
1.00105	58.00
1.01772	58.00
1.03438	58.00
1.05105	58.00
1.06772	58.00
1.08438	58.00
1.10105	58.00
1.11772	58.00
1.13438	58.00
1.15105	58.00
1.16772	58.00
1.18438	58.00
1.20105	58.00
1.21772	58.00
1.23438	58.00
1.25105	58.00
1.26772	58.00
1.28438	58.00
1.30105	58.00
1.31772	58.00
1.33438	58.00
1.35105	58.00
1.36772	58.00
1.38438	58.00
1.40105	58.00
1.41772	58.00
1.43438	58.00
1.45105	58.00
1.46772	58.00
1.48438	58.00
1.50105	58.00
1.51772	58.00
1.53438	58.00
1.55105	58.00
1.56772	58.00
1.58438	58.00
1.60105	58.00
1.61772	58.00
1.63438	58.00
1.65105	58.00
1.66772	58.00
1.68438	58.01
1.70105	58.00
1.71772	58.00
1.73438	58.00
1.75105	58.00
1.76772	58.00
1.78438	58.00
1.80105	58.00
1.81772	58.00
1.83438	58.00
1.85105	58.00
1.86772	58.00
1.88438	58.00
1.90105	58.00
1.91772	58.00
1.93438	58.00
1.95105	58.00
1.96772	58.00
1.98438	58.00
2.00105	58.00
2.01772	58.00
2.03438	58.00
2.05105	58.00
2.06772	58.00
2.08438	58.00
2.10105	58.00
2.11772	58.00
2.13438	58.00
2.15105	58.00
2.16772	58.00
2.18438	58.00
2.20105	58.00
2.21772	58.00
2.23438	58.00
2.25105	58.00
2.26772	58.00
2.28438	58.00
2.30105	58.00
2.31772	58.00
2.33438	58.00
2.35105	58.00
2.36772	58.00
2.38438	57.99
2.40105	57.99
2.41772	58.00
2.43438	58.00
2.45105	58.00
2.46772	58.00
2.48438	58.00
2.50105	58.00
2.51772	57.99
2.53438	57.99
2.55105	58.00
2.56772	58.00
2.58438	58.00
2.60105	58.00
2.61772	58.00
2.63438	58.00
2.65105	58.00
2.66772	58.00
2.68438	58.00
2.70105	58.00
2.71772	58.00
2.73438	58.00
2.75105	58.00
2.76772	58.00
2.78438	58.00
2.80105	58.00
2.81772	58.00
2.83438	58.00
2.85105	58.00
2.86772	58.00
2.88438	58.00
2.90105	58.00
2.91772	58.00
2.93438	58.00
2.95105	58.00
2.96772	58.00
2.98438	58.00
3.00105	58.00
3.01772	58.00
3.03438	58.00
3.05105	58.00
3.06772	58.00
3.08438	58.00
3.10105	58.00
3.11772	58.00
3.13438	58.00
3.15105	58.00
3.16772	58.00
3.18438	58.00
3.20105	58.00
3.21772	58.00
3.23438	58.00
3.25105	58.00
3.26772	58.00
3.28438	58.00
3.30105	58.00
3.31772	58.00
3.33438	58.00
3.35105	58.00
3.36772	58.00
3.38438	58.00
3.40105	58.00
3.41772	58.00
3.43438	58.00
3.45105	58.00
3.46772	58.00
3.48438	58.00
3.50105	58.00
3.51772	58.00
3.53438	58.00
3.55105	58.00
3.56772	58.00
3.58438	58.00
3.60105	58.00
3.61772	58.00
3.63438	58.00
3.65105	58.00
3.66772	58.00
3.68438	58.00
3.70105	58.00
3.71772	58.00
3.73438	58.00
3.75105	58.00
3.76772	58.00
3.78438	58.00
3.80105	58.00
3.81772	58.00
3.83438	58.00
3.85105	58.00
3.86772	58.00
3.88438	58.00
3.90105	58.00
3.91772	58.00
3.93438	58.00
3.95105	58.00
3.96772	58.00
3.98438	58.00

[Status Trace (Carrier Gas Flow)]
Interval(msec)	1000
# of Points	240
Start Time(min)	0.001
End Time(min)	3.984
Intensity Units	
Intensity Multiplier	1
R.Time (min)	Intensity
0.00105	34.51
0.01772	33.81
0.03438	34.54
0.05105	34.55
0.06772	34.50
0.08438	34.52
0.10105	34.52
0.11772	34.52
0.13438	34.52
0.15105	34.53
0.16772	34.52
0.18438	34.52
0.20105	34.52
0.21772	34.52
0.23438	34.52
0.25105	34.52
0.26772	34.52
0.28438	34.52
0.30105	34.52
0.31772	34.51
0.33438	34.52
0.35105	34.52
0.36772	34.51
0.38438	34.52
0.40105	34.52
0.41772	34.52
0.43438	34.52
0.45105	34.52
0.46772	34.52
0.48438	34.51
0.50105	34.52
0.51772	34.52
0.53438	34.52
0.55105	34.52
0.56772	34.52
0.58438	34.51
0.60105	34.52
0.61772	34.51
0.63438	34.51
0.65105	34.52
0.66772	34.52
0.68438	34.51
0.70105	34.52
0.71772	34.52
0.73438	34.52
0.75105	34.51
0.76772	34.52
0.78438	34.52
0.80105	34.52
0.81772	34.52
0.83438	34.52
0.85105	34.53
0.86772	34.52
0.88438	34.52
0.90105	34.52
0.91772	34.51
0.93438	34.51
0.95105	34.52
0.96772	34.52
0.98438	34.52
1.00105	34.52
1.01772	34.51
1.03438	34.52
1.05105	34.53
1.06772	34.52
1.08438	34.52
1.10105	34.51
1.11772	34.51
1.13438	34.51
1.15105	34.51
1.16772	34.52
1.18438	34.52
1.20105	34.52
1.21772	34.52
1.23438	34.52
1.25105	34.53
1.26772	34.52
1.28438	34.51
1.30105	34.52
1.31772	34.52
1.33438	34.51
1.35105	34.52
1.36772	34.52
1.38438	34.52
1.40105	34.51
1.41772	34.52
1.43438	34.52
1.45105	34.52
1.46772	34.52
1.48438	34.52
1.50105	34.52
1.51772	34.52
1.53438	34.52
1.55105	34.52
1.56772	34.53
1.58438	34.52
1.60105	34.52
1.61772	34.51
1.63438	34.52
1.65105	34.52
1.66772	34.52
1.68438	34.52
1.70105	34.52
1.71772	34.51
1.73438	34.52
1.75105	34.52
1.76772	34.52
1.78438	34.52
1.80105	34.52
1.81772	34.52
1.83438	34.52
1.85105	34.52
1.86772	34.52
1.88438	34.51
1.90105	34.51
1.91772	34.52
1.93438	34.52
1.95105	34.51
1.96772	34.52
1.98438	34.52
2.00105	34.52
2.01772	34.53
2.03438	34.52
2.05105	34.52
2.06772	34.51
2.08438	34.51
2.10105	34.52
2.11772	34.52
2.13438	34.52
2.15105	34.51
2.16772	34.52
2.18438	34.52
2.20105	34.51
2.21772	34.52
2.23438	34.52
2.25105	34.52
2.26772	34.51
2.28438	34.52
2.30105	34.52
2.31772	34.52
2.33438	34.51
2.35105	34.52
2.36772	34.52
2.38438	34.52
2.40105	34.52
2.41772	34.52
2.43438	34.52
2.45105	34.51
2.46772	34.52
2.48438	34.52
2.50105	34.52
2.51772	34.51
2.53438	34.52
2.55105	34.52
2.56772	34.52
2.58438	34.51
2.60105	34.52
2.61772	34.52
2.63438	34.51
2.65105	34.52
2.66772	34.52
2.68438	34.52
2.70105	34.52
2.71772	34.52
2.73438	34.52
2.75105	34.52
2.76772	34.52
2.78438	34.52
2.80105	34.52
2.81772	34.51
2.83438	34.51
2.85105	34.52
2.86772	34.52
2.88438	34.51
2.90105	34.52
2.91772	34.52
2.93438	34.52
2.95105	34.51
2.96772	34.53
2.98438	34.53
3.00105	34.52
3.01772	34.51
3.03438	34.52
3.05105	34.52
3.06772	34.52
3.08438	34.52
3.10105	34.52
3.11772	34.52
3.13438	34.52
3.15105	34.52
3.16772	34.53
3.18438	34.52
3.20105	34.51
3.21772	34.52
3.23438	34.52
3.25105	34.52
3.26772	34.52
3.28438	34.52
3.30105	34.52
3.31772	34.52
3.33438	34.52
3.35105	34.52
3.36772	34.51
3.38438	34.52
3.40105	34.52
3.41772	34.52
3.43438	34.52
3.45105	34.52
3.46772	34.52
3.48438	34.52
3.50105	34.52
3.51772	34.51
3.53438	34.52
3.55105	34.52
3.56772	34.52
3.58438	34.52
3.60105	34.52
3.61772	34.52
3.63438	34.52
3.65105	34.51
3.66772	34.52
3.68438	34.52
3.70105	34.52
3.71772	34.52
3.73438	34.52
3.75105	34.52
3.76772	34.52
3.78438	34.52
3.80105	34.52
3.81772	34.52
3.83438	34.51
3.85105	34.52
3.86772	34.52
3.88438	34.52
3.90105	34.52
3.91772	34.52
3.93438	34.52
3.95105	34.52
3.96772	34.52
3.98438	34.52

[Status Trace (Column Flow)]
Interval(msec)	1000
# of Points	240
Start Time(min)	0.001
End Time(min)	3.984
Intensity Units	
Intensity Multiplier	1
R.Time (min)	Intensity
0.00105	5.55
0.01772	5.39
0.03438	5.33
0.05105	5.61
0.06772	5.77
0.08438	5.60
0.10105	5.55
0.11772	5.55
0.13438	5.55
0.15105	5.55
0.16772	5.55
0.18438	5.55
0.20105	5.55
0.21772	5.55
0.23438	5.55
0.25105	5.55
0.26772	5.55
0.28438	5.55
0.30105	5.55
0.31772	5.55
0.33438	5.55
0.35105	5.55
0.36772	5.55
0.38438	5.55
0.40105	5.55
0.41772	5.55
0.43438	5.55
0.45105	5.55
0.46772	5.55
0.48438	5.55
0.50105	5.55
0.51772	5.55
0.53438	5.55
0.55105	5.55
0.56772	5.55
0.58438	5.55
0.60105	5.55
0.61772	5.55
0.63438	5.55
0.65105	5.55
0.66772	5.55
0.68438	5.55
0.70105	5.55
0.71772	5.55
0.73438	5.55
0.75105	5.55
0.76772	5.55
0.78438	5.55
0.80105	5.55
0.81772	5.55
0.83438	5.55
0.85105	5.55
0.86772	5.55
0.88438	5.55
0.90105	5.55
0.91772	5.55
0.93438	5.55
0.95105	5.55
0.96772	5.55
0.98438	5.55
1.00105	5.55
1.01772	5.55
1.03438	5.55
1.05105	5.55
1.06772	5.55
1.08438	5.55
1.10105	5.55
1.11772	5.55
1.13438	5.55
1.15105	5.55
1.16772	5.55
1.18438	5.55
1.20105	5.55
1.21772	5.55
1.23438	5.55
1.25105	5.55
1.26772	5.55
1.28438	5.55
1.30105	5.55
1.31772	5.55
1.33438	5.55
1.35105	5.55
1.36772	5.55
1.38438	5.55
1.40105	5.55
1.41772	5.55
1.43438	5.55
1.45105	5.55
1.46772	5.55
1.48438	5.55
1.50105	5.55
1.51772	5.55
1.53438	5.55
1.55105	5.55
1.56772	5.55
1.58438	5.55
1.60105	5.55
1.61772	5.55
1.63438	5.54
1.65105	5.54
1.66772	5.53
1.68438	5.52
1.70105	5.51
1.71772	5.50
1.73438	5.48
1.75105	5.47
1.76772	5.46
1.78438	5.45
1.80105	5.44
1.81772	5.43
1.83438	5.42
1.85105	5.41
1.86772	5.40
1.88438	5.39
1.90105	5.38
1.91772	5.37
1.93438	5.36
1.95105	5.35
1.96772	5.34
1.98438	5.33
2.00105	5.32
2.01772	5.32
2.03438	5.31
2.05105	5.30
2.06772	5.29
2.08438	5.28
2.10105	5.27
2.11772	5.26
2.13438	5.25
2.15105	5.24
2.16772	5.23
2.18438	5.22
2.20105	5.21
2.21772	5.20
2.23438	5.19
2.25105	5.18
2.26772	5.17
2.28438	5.16
2.30105	5.15
2.31772	5.14
2.33438	5.14
2.35105	5.13
2.36772	5.12
2.38438	5.12
2.40105	5.12
2.41772	5.12
2.43438	5.12
2.45105	5.12
2.46772	5.12
2.48438	5.12
2.50105	5.12
2.51772	5.11
2.53438	5.11
2.55105	5.11
2.56772	5.11
2.58438	5.11
2.60105	5.11
2.61772	5.11
2.63438	5.11
2.65105	5.11
2.66772	5.11
2.68438	5.11
2.70105	5.11
2.71772	5.11
2.73438	5.11
2.75105	5.11
2.76772	5.11
2.78438	5.11
2.80105	5.11
2.81772	5.11
2.83438	5.11
2.85105	5.11
2.86772	5.11
2.88438	5.11
2.90105	5.11
2.91772	5.11
2.93438	5.11
2.95105	5.11
2.96772	5.11
2.98438	5.11
3.00105	5.11
3.01772	5.11
3.03438	5.11
3.05105	5.11
3.06772	5.11
3.08438	5.11
3.10105	5.11
3.11772	5.11
3.13438	5.11
3.15105	5.11
3.16772	5.11
3.18438	5.11
3.20105	5.11
3.21772	5.11
3.23438	5.11
3.25105	5.11
3.26772	5.11
3.28438	5.11
3.30105	5.11
3.31772	5.11
3.33438	5.11
3.35105	5.11
3.36772	5.11
3.38438	5.11
3.40105	5.11
3.41772	5.11
3.43438	5.11
3.45105	5.11
3.46772	5.11
3.48438	5.11
3.50105	5.11
3.51772	5.11
3.53438	5.11
3.55105	5.11
3.56772	5.11
3.58438	5.11
3.60105	5.11
3.61772	5.11
3.63438	5.11
3.65105	5.11
3.66772	5.11
3.68438	5.11
3.70105	5.11
3.71772	5.11
3.73438	5.11
3.75105	5.11
3.76772	5.11
3.78438	5.11
3.80105	5.11
3.81772	5.11
3.83438	5.11
3.85105	5.11
3.86772	5.11
3.88438	5.11
3.90105	5.11
3.91772	5.11
3.93438	5.11
3.95105	5.11
3.96772	5.11
3.98438	5.11

[Status Trace (Linear Velocity)]
Interval(msec)	1000
# of Points	240
Start Time(min)	0.001
End Time(min)	3.984
Intensity Units	
Intensity Multiplier	1
R.Time (min)	Intensity
0.00105	39.02
0.01772	38.12
0.03438	37.78
0.05105	39.32
0.06772	40.26
0.08438	39.26
0.10105	39.00
0.11772	39.02
0.13438	39.03
0.15105	39.03
0.16772	39.02
0.18438	39.02
0.20105	39.02
0.21772	39.02
0.23438	39.02
0.25105	39.02
0.26772	39.03
0.28438	39.02
0.30105	39.02
0.31772	39.02
0.33438	39.02
0.35105	39.02
0.36772	39.02
0.38438	39.02
0.40105	39.02
0.41772	39.02
0.43438	39.03
0.45105	39.03
0.46772	39.02
0.48438	39.02
0.50105	39.02
0.51772	39.02
0.53438	39.02
0.55105	39.02
0.56772	39.02
0.58438	39.02
0.60105	39.02
0.61772	39.02
0.63438	39.02
0.65105	39.02
0.66772	39.02
0.68438	39.02
0.70105	39.02
0.71772	39.02
0.73438	39.02
0.75105	39.02
0.76772	39.02
0.78438	39.02
0.80105	39.02
0.81772	39.03
0.83438	39.03
0.85105	39.03
0.86772	39.03
0.88438	39.03
0.90105	39.03
0.91772	39.02
0.93438	39.02
0.95105	39.02
0.96772	39.02
0.98438	39.02
1.00105	39.02
1.01772	39.02
1.03438	39.02
1.05105	39.02
1.06772	39.02
1.08438	39.02
1.10105	39.02
1.11772	39.02
1.13438	39.02
1.15105	39.02
1.16772	39.03
1.18438	39.03
1.20105	39.03
1.21772	39.03
1.23438	39.03
1.25105	39.03
1.26772	39.03
1.28438	39.03
1.30105	39.03
1.31772	39.02
1.33438	39.03
1.35105	39.03
1.36772	39.02
1.38438	39.02
1.40105	39.02
1.41772	39.02
1.43438	39.02
1.45105	39.02
1.46772	39.02
1.48438	39.02
1.50105	39.02
1.51772	39.02
1.53438	39.02
1.55105	39.02
1.56772	39.02
1.58438	39.02
1.60105	39.02
1.61772	39.01
1.63438	39.00
1.65105	38.98
1.66772	38.95
1.68438	38.91
1.70105	38.88
1.71772	38.85
1.73438	38.81
1.75105	38.78
1.76772	38.75
1.78438	38.72
1.80105	38.69
1.81772	38.66
1.83438	38.63
1.85105	38.59
1.86772	38.56
1.88438	38.53
1.90105	38.50
1.91772	38.47
1.93438	38.44
1.95105	38.41
1.96772	38.38
1.98438	38.35
2.00105	38.32
2.01772	38.29
2.03438	38.26
2.05105	38.23
2.06772	38.20
2.08438	38.17
2.10105	38.14
2.11772	38.11
2.13438	38.08
2.15105	38.05
2.16772	38.02
2.18438	37.99
2.20105	37.96
2.21772	37.93
2.23438	37.90
2.25105	37.88
2.26772	37.84
2.28438	37.82
2.30105	37.79
2.31772	37.76
2.33438	37.73
2.35105	37.70
2.36772	37.67
2.38438	37.66
2.40105	37.66
2.41772	37.67
2.43438	37.67
2.45105	37.67
2.46772	37.67
2.48438	37.67
2.50105	37.67
2.51772	37.66
2.53438	37.66
2.55105	37.66
2.56772	37.66
2.58438	37.66
2.60105	37.66
2.61772	37.65
2.63438	37.65
2.65105	37.65
2.66772	37.65
2.68438	37.65
2.70105	37.65
2.71772	37.65
2.73438	37.65
2.75105	37.65
2.76772	37.65
2.78438	37.65
2.80105	37.65
2.81772	37.65
2.83438	37.65
2.85105	37.65
2.86772	37.65
2.88438	37.65
2.90105	37.65
2.91772	37.64
2.93438	37.65
2.95105	37.65
2.96772	37.65
2.98438	37.65
3.00105	37.64
3.01772	37.64
3.03438	37.64
3.05105	37.64
3.06772	37.64
3.08438	37.64
3.10105	37.64
3.11772	37.64
3.13438	37.64
3.15105	37.64
3.16772	37.64
3.18438	37.63
3.20105	37.63
3.21772	37.63
3.23438	37.63
3.25105	37.63
3.26772	37.63
3.28438	37.63
3.30105	37.63
3.31772	37.63
3.33438	37.63
3.35105	37.63
3.36772	37.63
3.38438	37.63
3.40105	37.63
3.41772	37.63
3.43438	37.63
3.45105	37.63
3.46772	37.63
3.48438	37.64
3.50105	37.64
3.51772	37.64
3.53438	37.64
3.55105	37.64
3.56772	37.64
3.58438	37.64
3.60105	37.64
3.61772	37.64
3.63438	37.64
3.65105	37.64
3.66772	37.64
3.68438	37.64
3.70105	37.64
3.71772	37.64
3.73438	37.64
3.75105	37.64
3.76772	37.64
3.78438	37.64
3.80105	37.63
3.81772	37.63
3.83438	37.63
3.85105	37.63
3.86772	37.63
3.88438	37.63
3.90105	37.64
3.91772	37.64
3.93438	37.63
3.95105	37.63
3.96772	37.63
3.98438	37.63

