[Header]
Application Name	LabSolutions
Version	5.110
Data File Name	C:\Users\User\Desktop\GC Analyses\Jack\Nachusa Grasslands Sampling\T4 Timepoint July 12th\T4_07122022_070.gcd
Output Date	3/17/2023
Output Time	12:04:55 PM

[File Information]
Type	Data File
Generated	3/14/2023 11:13:48 PM
Generated by	System Administrator
Modified	3/14/2023 11:20:25 PM
Modified by	System Administrator

[Sample Information]
Operator Name	System Administrator
Acquired	3/14/2023 11:16:23 PM
Sample Type	0:Unknown
Level	0
Sample Name	070
Sample ID	070
ISTD Amount1	1
ISTD Amount2	1
ISTD Amount3	1
ISTD Amount4	1
ISTD Amount5	1
ISTD Amount6	1
ISTD Amount7	1
ISTD Amount8	1
ISTD Amount9	1
ISTD Amount10	1
ISTD Amount11	1
ISTD Amount12	1
ISTD Amount13	1
ISTD Amount14	1
ISTD Amount15	1
ISTD Amount16	1
ISTD Amount17	1
ISTD Amount18	1
ISTD Amount19	1
ISTD Amount20	1
ISTD Amount21	1
ISTD Amount22	1
ISTD Amount23	1
ISTD Amount24	1
ISTD Amount25	1
ISTD Amount26	1
ISTD Amount27	1
ISTD Amount28	1
ISTD Amount29	1
ISTD Amount30	1
ISTD Amount31	1
ISTD Amount32	1
Sample Amount	1
Dilution Factor	1
Vial#	69
Injection Volume	1
Injection Count	1
Bar Code	

[Original Files]
Data File	C:\Users\User\Desktop\GC Analyses\Jack\Nachusa Grasslands Sampling\T4 Timepoint July 12th\T4_07122022_070.gcd
Method File	C:\LabSolutions\Data\GHG_4min_2022\ghg3_togas_w_acet_4 min_new_int.gcm
Batch File	C:\LabSolutions\Data\AutoSamplerTesting\T4_07122022.gcb
Report Format File	c:\LabSolutions\System\DEFAULT.lsr

[File Description]


[Configuration]
Instrument Name	C0B7VH3-Instrument1
Instrument #	1
Line #	1
# of Detectors	3
Detector ID	DET#1	DET#2	DET#3
Detector Name	FID	PTCD	ECD
# of Channels	1	1	1

[Peak Table(Ch1)]
# of Peaks	3
Peak#	R.Time	I.Time	F.Time	Area	Height	A/H	Conc.	Mark	ID#	Name	k'	Plate #	Plate Ht.	Tailing	Resolution	Sep.Factor	Area Ratio	Height Ratio	Conc. %	Norm Conc.
1	1.476	1.439	1.538	23210	11313	2.052	163.863	   	1	CO	0.000	9609	15.611	1.304	0.000	0.000	0	0	12.527	12.527
2	1.571	1.538	1.637	4131	2080	1.986	79.876	 V 	2	CH4	0.065	11532	13.007	1.189	1.606	0.000	0	0	6.106	6.106
3	1.996	1.952	2.484	4241034	2023343	2.096	1064.385	   	3	CO2	0.353	17137	8.753	1.334	7.118	5.462	0	0	81.367	81.367

[Peak Table(Ch2)]
# of Peaks	0

[Peak Table(Ch3)]
# of Peaks	5
Peak#	R.Time	I.Time	F.Time	Area	Height	A/H	Conc.	Mark	ID#	Name	k'	Plate #	Plate Ht.	Tailing	Resolution	Sep.Factor	Area Ratio	Height Ratio	Conc. %	Norm Conc.
1	2.462	2.253	2.510	3103	814	3.814	0.000	   			0.000	9676	15.503	0.000	0.000	0.000	0	0	0.000	0.000
2	2.528	2.510	2.583	1273	412	3.088	0.000	 V 			0.027	5978	25.091	0.000	0.572	0.000	0	0	0.000	0.000
3	2.601	2.583	2.678	695	201	3.465	0.000	 V 			0.057	1928	77.784	0.000	0.399	2.111	0	0	0.000	0.000
4	2.880	2.799	3.030	18156	4847	3.746	0.464	   	1	N2O	0.170	13302	11.276	1.481	1.655	3.000	0	0	100.000	100.000
5	3.360	3.177	3.995	19396	695	27.926	0.000	   	2	SF6	0.365	232	647.504	2.177	0.977	2.149	0	0	0.000	0.000

[Compound Results(Ch1)]
# of IDs	6
ID#	Name	R.Time	Area	Height	Conc.	Curve	3rd	2nd	1st	Constant	Area Ratio	Height Ratio	Conc. %	Norm Conc.
1	CO	1.476	23210	11313	163.863	Linear	0.000000e+00	0.000000e+00	1.416423e+002	0.000000e+00	0	0	12.527	12.527
2	CH4	1.571	4131	2080	79.876	Linear	0.000000e+00	0.000000e+00	5.171738e+001	0.000000e+00	0	0	6.106	6.106
3	CO2	1.996	4241034	2023343	1064.385	Linear	0.000000e+00	0.000000e+00	3.984494e+003	0.000000e+00	0	0	81.367	81.367
4	Ethylene	0.000	0	0	0.000	Linear	0.000000e+00	0.000000e+00	0.000000e+00	0.000000e+00	0	0	0.000	0.000
5	Acetylene	0.000	0	0	0.000	Linear	0.000000e+00	0.000000e+00	0.000000e+00	0.000000e+00	0	0	0.000	0.000
6	Ethane	0.000	0	0	0.000	Linear	0.000000e+00	0.000000e+00	0.000000e+00	0.000000e+00	0	0	0.000	0.000

[Compound Results(Ch2)]
# of IDs	5
ID#	Name	R.Time	Area	Height	Conc.	Curve	3rd	2nd	1st	Constant	Area Ratio	Height Ratio	Conc. %	Norm Conc.
1	Hydrogen	0.000	0	0	0.000	Linear	0.000000e+00	0.000000e+00	0.000000e+00	0.000000e+00	0	0	0.000	0.000
2	Oxygen	0.000	0	0	0.000	Linear	0.000000e+00	0.000000e+00	0.000000e+00	0.000000e+00	0	0	0.000	0.000
3	Nitrogen	0.000	0	0	0.000	Linear	0.000000e+00	0.000000e+00	0.000000e+00	0.000000e+00	0	0	0.000	0.000
4	Methane	0.000	0	0	0.000	Linear	0.000000e+00	0.000000e+00	0.000000e+00	0.000000e+00	0	0	0.000	0.000
5	Carbon Monoxide	0.000	0	0	0.000	Linear	0.000000e+00	0.000000e+00	0.000000e+00	0.000000e+00	0	0	0.000	0.000

[Compound Results(Ch3)]
# of IDs	2
ID#	Name	R.Time	Area	Height	Conc.	Curve	3rd	2nd	1st	Constant	Area Ratio	Height Ratio	Conc. %	Norm Conc.
1	N2O	2.880	18156	4847	0.464	Linear	0.000000e+00	0.000000e+00	3.915173e+004	0.000000e+00	0	0	100.000	100.000
2	SF6	3.360	19396	695	0.000	Linear	0.000000e+00	0.000000e+00	0.000000e+00	0.000000e+00	0	0	0.000	0.000

[Group Results(Ch1)]
# of Groups	0

[Group Results(Ch2)]
# of Groups	0

[Group Results(Ch3)]
# of Groups	0

[Chromatogram (Ch1)]
Interval(msec)	220
# of Points	1091
Start Time(min)	0.002
End Time(min)	3.998
R.Time (min)	Intensity
0.00167	-17
0.00533	-23
0.00900	-28
0.01267	-32
0.01633	-32
0.02000	-35
0.02367	-36
0.02733	-33
0.03100	-26
0.03467	-20
0.03833	-14
0.04200	-12
0.04567	-15
0.04933	-18
0.05300	-19
0.05667	-16
0.06033	-10
0.06400	-8
0.06767	-13
0.07133	-14
0.07500	-15
0.07867	-18
0.08233	-22
0.08600	-25
0.08967	-28
0.09333	-25
0.09700	-23
0.10067	-22
0.10433	-21
0.10800	-19
0.11167	-20
0.11533	-22
0.11900	-23
0.12267	-19
0.12633	-18
0.13000	-23
0.13367	-24
0.13733	-17
0.14100	-7
0.14467	-2
0.14833	-1
0.15200	-4
0.15567	-11
0.15933	-21
0.16300	-28
0.16667	-35
0.17033	-43
0.17400	-49
0.17767	-47
0.18133	-40
0.18500	-31
0.18867	-21
0.19233	-16
0.19600	-23
0.19967	-31
0.20333	-34
0.20700	-33
0.21067	-31
0.21433	-31
0.21800	-33
0.22167	-35
0.22533	-32
0.22900	-25
0.23267	-15
0.23633	-5
0.24000	-4
0.24367	-8
0.24733	-12
0.25100	-13
0.25467	-12
0.25833	-9
0.26200	-5
0.26567	1
0.26933	5
0.27300	2
0.27667	-5
0.28033	-11
0.28400	-15
0.28767	-14
0.29133	-6
0.29500	4
0.29867	14
0.30233	21
0.30600	20
0.30967	10
0.31333	2
0.31700	-1
0.32067	1
0.32433	7
0.32800	13
0.33167	18
0.33533	23
0.33900	22
0.34267	20
0.34633	22
0.35000	27
0.35367	32
0.35733	32
0.36100	29
0.36467	27
0.36833	27
0.37200	32
0.37567	30
0.37933	28
0.38300	33
0.38667	38
0.39033	38
0.39400	38
0.39767	42
0.40133	46
0.40500	48
0.40867	48
0.41233	44
0.41600	36
0.41967	24
0.42333	20
0.42700	14
0.43067	10
0.43433	11
0.43800	14
0.44167	23
0.44533	33
0.44900	35
0.45267	25
0.45633	9
0.46000	-5
0.46367	-14
0.46733	-20
0.47100	-24
0.47467	-24
0.47833	-22
0.48200	-24
0.48567	-28
0.48933	-33
0.49300	-38
0.49667	-36
0.50033	-33
0.50400	-31
0.50767	-31
0.51133	-32
0.51500	-34
0.51867	-36
0.52233	-39
0.52600	-42
0.52967	-43
0.53333	-42
0.53700	-34
0.54067	-25
0.54433	-23
0.54800	-28
0.55167	-34
0.55533	-40
0.55900	-44
0.56267	-44
0.56633	-44
0.57000	-43
0.57367	-39
0.57733	-35
0.58100	-33
0.58467	-32
0.58833	-34
0.59200	-39
0.59567	-40
0.59933	-39
0.60300	-34
0.60667	-30
0.61033	-28
0.61400	-31
0.61767	-38
0.62133	-39
0.62500	-35
0.62867	-33
0.63233	-34
0.63600	-37
0.63967	-38
0.64333	-39
0.64700	-40
0.65067	-46
0.65433	-56
0.65800	-66
0.66167	-73
0.66533	-75
0.66900	-74
0.67267	-66
0.67633	-57
0.68000	-53
0.68367	-52
0.68733	-52
0.69100	-51
0.69467	-47
0.69833	-41
0.70200	-29
0.70567	-19
0.70933	-20
0.71300	-30
0.71667	-41
0.72033	-52
0.72400	-62
0.72767	-68
0.73133	-72
0.73500	-72
0.73867	-69
0.74233	-65
0.74600	-59
0.74967	-53
0.75333	-48
0.75700	-43
0.76067	-42
0.76433	-49
0.76800	-55
0.77167	-59
0.77533	-61
0.77900	-58
0.78267	-51
0.78633	-44
0.79000	-43
0.79367	-44
0.79733	-46
0.80100	-50
0.80467	-52
0.80833	-50
0.81200	-47
0.81567	-44
0.81933	-46
0.82300	-50
0.82667	-54
0.83033	-58
0.83400	-62
0.83767	-61
0.84133	-55
0.84500	-52
0.84867	-53
0.85233	-53
0.85600	-52
0.85967	-51
0.86333	-49
0.86700	-50
0.87067	-52
0.87433	-57
0.87800	-67
0.88167	-74
0.88533	-84
0.88900	-92
0.89267	-98
0.89633	-102
0.90000	-99
0.90367	-89
0.90733	-78
0.91100	-74
0.91467	-80
0.91833	-87
0.92200	-88
0.92567	-85
0.92933	-82
0.93300	-78
0.93667	-77
0.94033	-76
0.94400	-75
0.94767	-76
0.95133	-79
0.95500	-83
0.95867	-85
0.96233	-82
0.96600	-78
0.96967	-74
0.97333	-70
0.97700	-70
0.98067	-70
0.98433	-68
0.98800	-61
0.99167	-44
0.99533	-27
0.99900	-20
1.00267	-24
1.00633	-28
1.01000	-30
1.01367	-32
1.01733	-34
1.02100	-31
1.02467	-28
1.02833	-30
1.03200	-31
1.03567	-38
1.03933	-41
1.04300	-43
1.04667	-47
1.05033	-49
1.05400	-50
1.05767	-47
1.06133	-41
1.06500	-35
1.06867	-33
1.07233	-34
1.07600	-34
1.07967	-34
1.08333	-32
1.08700	-31
1.09067	-29
1.09433	-30
1.09800	-34
1.10167	-37
1.10533	-39
1.10900	-45
1.11267	-47
1.11633	-42
1.12000	-38
1.12367	-35
1.12733	-31
1.13100	-29
1.13467	-28
1.13833	-34
1.14200	-42
1.14567	-50
1.14933	-55
1.15300	-56
1.15667	-54
1.16033	-48
1.16400	-44
1.16767	-45
1.17133	-48
1.17500	-54
1.17867	-54
1.18233	-49
1.18600	-40
1.18967	-33
1.19333	-36
1.19700	-42
1.20067	-45
1.20433	-43
1.20800	-43
1.21167	-47
1.21533	-50
1.21900	-51
1.22267	-50
1.22633	-52
1.23000	-53
1.23367	-56
1.23733	-59
1.24100	-60
1.24467	-59
1.24833	-54
1.25200	-49
1.25567	-46
1.25933	-45
1.26300	-40
1.26667	-41
1.27033	-49
1.27400	-57
1.27767	-63
1.28133	-69
1.28500	-69
1.28867	-69
1.29233	-65
1.29600	-63
1.29967	-68
1.30333	-76
1.30700	-80
1.31067	-77
1.31433	-71
1.31800	-64
1.32167	-62
1.32533	-61
1.32900	-60
1.33267	-60
1.33633	-59
1.34000	-59
1.34367	-60
1.34733	-64
1.35100	-68
1.35467	-69
1.35833	-65
1.36200	-61
1.36567	-67
1.36933	-72
1.37300	-73
1.37667	-75
1.38033	-77
1.38400	-80
1.38767	-81
1.39133	-82
1.39500	-74
1.39867	-64
1.40233	-59
1.40600	-56
1.40967	-59
1.41333	-64
1.41700	-69
1.42067	-74
1.42433	-77
1.42800	-74
1.43167	-75
1.43533	-81
1.43900	-77
1.44267	-42
1.44633	77
1.45000	408
1.45367	1273
1.45733	2920
1.46100	5100
1.46467	7305
1.46833	9163
1.47200	10502
1.47567	11223
1.47933	11212
1.48300	10427
1.48667	9010
1.49033	7265
1.49400	5522
1.49767	3999
1.50133	2788
1.50500	1881
1.50867	1233
1.51233	785
1.51600	483
1.51967	284
1.52333	156
1.52700	73
1.53067	13
1.53433	-36
1.53800	-70
1.54167	-56
1.54533	58
1.54900	316
1.55267	690
1.55633	1096
1.56000	1459
1.56367	1739
1.56733	1913
1.57100	1956
1.57467	1839
1.57833	1580
1.58200	1248
1.58567	909
1.58933	617
1.59300	390
1.59667	222
1.60033	107
1.60400	30
1.60767	-17
1.61133	-52
1.61500	-80
1.61867	-97
1.62233	-103
1.62600	-112
1.62967	-125
1.63333	-137
1.63700	-147
1.64067	-154
1.64433	-153
1.64800	-145
1.65167	-137
1.65533	-132
1.65900	-136
1.66267	-143
1.66633	-143
1.67000	-138
1.67367	-133
1.67733	-127
1.68100	-124
1.68467	-125
1.68833	-127
1.69200	-129
1.69567	-130
1.69933	-128
1.70300	-127
1.70667	-129
1.71033	-133
1.71400	-136
1.71767	-137
1.72133	-136
1.72500	-129
1.72867	-123
1.73233	-118
1.73600	-110
1.73967	-105
1.74333	-109
1.74700	-116
1.75067	-123
1.75433	-132
1.75800	-141
1.76167	-150
1.76533	-154
1.76900	-151
1.77267	-145
1.77633	-139
1.78000	-134
1.78367	-136
1.78733	-139
1.79100	-138
1.79467	-131
1.79833	-127
1.80200	-129
1.80567	-132
1.80933	-134
1.81300	-133
1.81667	-129
1.82033	-122
1.82400	-108
1.82767	-95
1.83133	-92
1.83500	-100
1.83867	-114
1.84233	-130
1.84600	-150
1.84967	-159
1.85333	-155
1.85700	-146
1.86067	-138
1.86433	-131
1.86800	-126
1.87167	-122
1.87533	-120
1.87900	-122
1.88267	-122
1.88633	-118
1.89000	-116
1.89367	-118
1.89733	-124
1.90100	-127
1.90467	-131
1.90833	-137
1.91200	-139
1.91567	-135
1.91933	-127
1.92300	-119
1.92667	-112
1.93033	-111
1.93400	-115
1.93767	-116
1.94133	-115
1.94500	-117
1.94867	-122
1.95233	-104
1.95600	73
1.95967	1251
1.96333	7327
1.96700	31186
1.97067	102771
1.97433	265590
1.97800	546421
1.98167	921033
1.98533	1320661
1.98900	1669868
1.99267	1914042
1.99633	2023267
2.00000	1991882
2.00367	1836664
2.00733	1592453
2.01100	1304050
2.01467	1014837
2.01833	756756
2.02200	545945
2.02567	384864
2.02933	267622
2.03300	185151
2.03667	128436
2.04033	89950
2.04400	63990
2.04767	46471
2.05133	34573
2.05500	26405
2.05867	20707
2.06233	16661
2.06600	13720
2.06967	11531
2.07333	9864
2.07700	8563
2.08067	7525
2.08433	6686
2.08800	5993
2.09167	5412
2.09533	4926
2.09900	4516
2.10267	4161
2.10633	3846
2.11000	3566
2.11367	3317
2.11733	3104
2.12100	2916
2.12467	2750
2.12833	2601
2.13200	2461
2.13567	2332
2.13933	2218
2.14300	2109
2.14667	2003
2.15033	1904
2.15400	1815
2.15767	1740
2.16133	1671
2.16500	1604
2.16867	1537
2.17233	1474
2.17600	1414
2.17967	1360
2.18333	1309
2.18700	1261
2.19067	1215
2.19433	1169
2.19800	1129
2.20167	1093
2.20533	1061
2.20900	1034
2.21267	1005
2.21633	971
2.22000	938
2.22367	910
2.22733	883
2.23100	861
2.23467	842
2.23833	824
2.24200	804
2.24567	781
2.24933	755
2.25300	725
2.25667	696
2.26033	670
2.26400	650
2.26767	639
2.27133	631
2.27500	626
2.27867	621
2.28233	608
2.28600	587
2.28967	564
2.29333	548
2.29700	536
2.30067	524
2.30433	507
2.30800	487
2.31167	468
2.31533	452
2.31900	441
2.32267	437
2.32633	436
2.33000	436
2.33367	431
2.33733	421
2.34100	406
2.34467	393
2.34833	387
2.35200	386
2.35567	385
2.35933	384
2.36300	382
2.36667	387
2.37033	388
2.37400	381
2.37767	372
2.38133	365
2.38500	358
2.38867	348
2.39233	337
2.39600	327
2.39967	321
2.40333	323
2.40700	333
2.41067	342
2.41433	345
2.41800	341
2.42167	330
2.42533	314
2.42900	302
2.43267	297
2.43633	297
2.44000	298
2.44367	297
2.44733	295
2.45100	292
2.45467	290
2.45833	284
2.46200	276
2.46567	274
2.46933	272
2.47300	269
2.47667	263
2.48033	247
2.48400	229
2.48767	228
2.49133	226
2.49500	227
2.49867	228
2.50233	229
2.50600	232
2.50967	234
2.51333	230
2.51700	225
2.52067	222
2.52433	222
2.52800	230
2.53167	243
2.53533	248
2.53900	243
2.54267	230
2.54633	216
2.55000	208
2.55367	205
2.55733	201
2.56100	197
2.56467	191
2.56833	183
2.57200	181
2.57567	184
2.57933	187
2.58300	193
2.58667	200
2.59033	200
2.59400	191
2.59767	177
2.60133	165
2.60500	164
2.60867	166
2.61233	163
2.61600	162
2.61967	169
2.62333	180
2.62700	188
2.63067	189
2.63433	182
2.63800	169
2.64167	155
2.64533	145
2.64900	141
2.65267	141
2.65633	143
2.66000	139
2.66367	133
2.66733	127
2.67100	122
2.67467	122
2.67833	127
2.68200	136
2.68567	147
2.68933	160
2.69300	169
2.69667	173
2.70033	164
2.70400	145
2.70767	128
2.71133	114
2.71500	107
2.71867	107
2.72233	111
2.72600	113
2.72967	110
2.73333	106
2.73700	104
2.74067	103
2.74433	106
2.74800	111
2.75167	117
2.75533	122
2.75900	124
2.76267	129
2.76633	134
2.77000	138
2.77367	136
2.77733	133
2.78100	127
2.78467	113
2.78833	104
2.79200	101
2.79567	99
2.79933	101
2.80300	106
2.80667	111
2.81033	110
2.81400	109
2.81767	110
2.82133	111
2.82500	111
2.82867	113
2.83233	117
2.83600	116
2.83967	113
2.84333	109
2.84700	111
2.85067	120
2.85433	127
2.85800	133
2.86167	136
2.86533	136
2.86900	131
2.87267	117
2.87633	101
2.88000	93
2.88367	98
2.88733	103
2.89100	103
2.89467	99
2.89833	95
2.90200	94
2.90567	95
2.90933	101
2.91300	105
2.91667	106
2.92033	111
2.92400	109
2.92767	101
2.93133	94
2.93500	89
2.93867	88
2.94233	92
2.94600	93
2.94967	88
2.95333	82
2.95700	80
2.96067	86
2.96433	95
2.96800	106
2.97167	112
2.97533	112
2.97900	107
2.98267	101
2.98633	98
2.99000	99
2.99367	103
2.99733	105
3.00100	97
3.00467	94
3.00833	97
3.01200	101
3.01567	102
3.01933	103
3.02300	109
3.02667	114
3.03033	118
3.03400	117
3.03767	110
3.04133	107
3.04500	109
3.04867	116
3.05233	122
3.05600	119
3.05967	111
3.06333	101
3.06700	96
3.07067	93
3.07433	94
3.07800	97
3.08167	97
3.08533	88
3.08900	82
3.09267	84
3.09633	93
3.10000	100
3.10367	97
3.10733	90
3.11100	88
3.11467	90
3.11833	91
3.12200	88
3.12567	81
3.12933	69
3.13300	61
3.13667	58
3.14033	64
3.14400	73
3.14767	76
3.15133	74
3.15500	75
3.15867	76
3.16233	74
3.16600	69
3.16967	65
3.17333	66
3.17700	71
3.18067	77
3.18433	86
3.18800	94
3.19167	97
3.19533	97
3.19900	94
3.20267	91
3.20633	89
3.21000	85
3.21367	80
3.21733	73
3.22100	64
3.22467	58
3.22833	57
3.23200	58
3.23567	61
3.23933	69
3.24300	81
3.24667	92
3.25033	96
3.25400	98
3.25767	96
3.26133	96
3.26500	91
3.26867	81
3.27233	72
3.27600	73
3.27967	80
3.28333	86
3.28700	89
3.29067	92
3.29433	92
3.29800	89
3.30167	84
3.30533	76
3.30900	68
3.31267	59
3.31633	52
3.32000	54
3.32367	57
3.32733	54
3.33100	51
3.33467	52
3.33833	55
3.34200	54
3.34567	51
3.34933	46
3.35300	43
3.35667	44
3.36033	43
3.36400	41
3.36767	36
3.37133	37
3.37500	43
3.37867	51
3.38233	59
3.38600	61
3.38967	59
3.39333	57
3.39700	57
3.40067	59
3.40433	58
3.40800	53
3.41167	52
3.41533	54
3.41900	58
3.42267	60
3.42633	58
3.43000	57
3.43367	56
3.43733	56
3.44100	55
3.44467	56
3.44833	56
3.45200	47
3.45567	48
3.45933	46
3.46300	39
3.46667	34
3.47033	28
3.47400	29
3.47767	39
3.48133	50
3.48500	58
3.48867	62
3.49233	64
3.49600	65
3.49967	60
3.50333	53
3.50700	46
3.51067	37
3.51433	28
3.51800	23
3.52167	22
3.52533	20
3.52900	18
3.53267	15
3.53633	15
3.54000	22
3.54367	31
3.54733	37
3.55100	41
3.55467	47
3.55833	50
3.56200	48
3.56567	43
3.56933	43
3.57300	46
3.57667	42
3.58033	38
3.58400	35
3.58767	36
3.59133	44
3.59500	49
3.59867	52
3.60233	53
3.60600	49
3.60967	45
3.61333	41
3.61700	37
3.62067	34
3.62433	33
3.62800	34
3.63167	36
3.63533	36
3.63900	37
3.64267	44
3.64633	46
3.65000	40
3.65367	34
3.65733	30
3.66100	28
3.66467	29
3.66833	30
3.67200	31
3.67567	33
3.67933	31
3.68300	30
3.68667	30
3.69033	32
3.69400	30
3.69767	24
3.70133	19
3.70500	14
3.70867	8
3.71233	4
3.71600	5
3.71967	9
3.72333	16
3.72700	18
3.73067	18
3.73433	21
3.73800	26
3.74167	32
3.74533	33
3.74900	33
3.75267	41
3.75633	57
3.76000	71
3.76367	72
3.76733	63
3.77100	52
3.77467	45
3.77833	44
3.78200	44
3.78567	43
3.78933	34
3.79300	20
3.79667	6
3.80033	-2
3.80400	2
3.80767	9
3.81133	13
3.81500	16
3.81867	14
3.82233	5
3.82600	-3
3.82967	-4
3.83333	-1
3.83700	1
3.84067	-0
3.84433	-0
3.84800	3
3.85167	9
3.85533	16
3.85900	24
3.86267	32
3.86633	36
3.87000	37
3.87367	36
3.87733	31
3.88100	27
3.88467	21
3.88833	14
3.89200	9
3.89567	7
3.89933	10
3.90300	16
3.90667	16
3.91033	13
3.91400	14
3.91767	14
3.92133	16
3.92500	20
3.92867	26
3.93233	34
3.93600	40
3.93967	38
3.94333	30
3.94700	26
3.95067	26
3.95433	31
3.95800	28
3.96167	22
3.96533	17
3.96900	10
3.97267	2
3.97633	1
3.98000	6
3.98367	14
3.98733	20
3.99100	21
3.99467	19
3.99833	16

[Chromatogram (Ch2)]
Interval(msec)	220
# of Points	1091
Start Time(min)	0.002
End Time(min)	3.998
R.Time (min)	Intensity
0.00167	1
0.00533	1
0.00900	1
0.01267	2
0.01633	2
0.02000	2
0.02367	2
0.02733	2
0.03100	2
0.03467	1
0.03833	1
0.04200	1
0.04567	1
0.04933	0
0.05300	-0
0.05667	-0
0.06033	-0
0.06400	-0
0.06767	-0
0.07133	0
0.07500	1
0.07867	2
0.08233	2
0.08600	3
0.08967	3
0.09333	3
0.09700	3
0.10067	3
0.10433	4
0.10800	4
0.11167	4
0.11533	4
0.11900	3
0.12267	3
0.12633	3
0.13000	2
0.13367	2
0.13733	1
0.14100	1
0.14467	1
0.14833	1
0.15200	1
0.15567	0
0.15933	0
0.16300	-0
0.16667	-0
0.17033	-0
0.17400	-0
0.17767	-0
0.18133	-0
0.18500	0
0.18867	0
0.19233	0
0.19600	0
0.19967	1
0.20333	1
0.20700	1
0.21067	1
0.21433	1
0.21800	1
0.22167	1
0.22533	1
0.22900	1
0.23267	1
0.23633	0
0.24000	0
0.24367	-0
0.24733	-0
0.25100	-0
0.25467	-0
0.25833	-1
0.26200	-1
0.26567	-1
0.26933	-1
0.27300	-1
0.27667	-1
0.28033	-2
0.28400	-2
0.28767	-2
0.29133	-2
0.29500	-2
0.29867	-1
0.30233	-1
0.30600	-1
0.30967	-0
0.31333	-0
0.31700	-1
0.32067	-1
0.32433	-1
0.32800	-2
0.33167	-2
0.33533	-2
0.33900	-2
0.34267	-2
0.34633	-2
0.35000	-2
0.35367	-2
0.35733	-2
0.36100	-2
0.36467	-2
0.36833	-2
0.37200	-2
0.37567	-2
0.37933	-2
0.38300	-3
0.38667	-3
0.39033	-3
0.39400	-3
0.39767	-3
0.40133	-3
0.40500	-2
0.40867	-2
0.41233	-2
0.41600	-2
0.41967	-2
0.42333	-2
0.42700	-2
0.43067	-1
0.43433	-1
0.43800	-1
0.44167	-1
0.44533	-1
0.44900	-1
0.45267	-1
0.45633	-1
0.46000	-1
0.46367	-1
0.46733	-2
0.47100	-2
0.47467	-2
0.47833	-3
0.48200	-3
0.48567	-3
0.48933	-3
0.49300	-4
0.49667	-4
0.50033	-4
0.50400	-4
0.50767	-3
0.51133	-3
0.51500	-3
0.51867	-2
0.52233	-2
0.52600	-2
0.52967	-2
0.53333	-1
0.53700	-1
0.54067	-1
0.54433	-0
0.54800	0
0.55167	1
0.55533	1
0.55900	1
0.56267	2
0.56633	2
0.57000	2
0.57367	2
0.57733	2
0.58100	2
0.58467	2
0.58833	2
0.59200	2
0.59567	1
0.59933	1
0.60300	1
0.60667	1
0.61033	1
0.61400	1
0.61767	2
0.62133	2
0.62500	2
0.62867	2
0.63233	1
0.63600	1
0.63967	1
0.64333	1
0.64700	1
0.65067	1
0.65433	1
0.65800	0
0.66167	0
0.66533	0
0.66900	-0
0.67267	-0
0.67633	-1
0.68000	-1
0.68367	-1
0.68733	-1
0.69100	-1
0.69467	-1
0.69833	-2
0.70200	-2
0.70567	-2
0.70933	-2
0.71300	-1
0.71667	-1
0.72033	-1
0.72400	-1
0.72767	-1
0.73133	-1
0.73500	-1
0.73867	-2
0.74233	-2
0.74600	-2
0.74967	-3
0.75333	-3
0.75700	-3
0.76067	-3
0.76433	-3
0.76800	-3
0.77167	-3
0.77533	-3
0.77900	-3
0.78267	-3
0.78633	-3
0.79000	-4
0.79367	-3
0.79733	-3
0.80100	-3
0.80467	-3
0.80833	-2
0.81200	-2
0.81567	-1
0.81933	-1
0.82300	-1
0.82667	-1
0.83033	-1
0.83400	-1
0.83767	-1
0.84133	-1
0.84500	-1
0.84867	-1
0.85233	-1
0.85600	-1
0.85967	-2
0.86333	-2
0.86700	-2
0.87067	-1
0.87433	-1
0.87800	-1
0.88167	-0
0.88533	0
0.88900	1
0.89267	1
0.89633	1
0.90000	1
0.90367	1
0.90733	1
0.91100	1
0.91467	1
0.91833	1
0.92200	1
0.92567	1
0.92933	1
0.93300	1
0.93667	1
0.94033	1
0.94400	1
0.94767	0
0.95133	0
0.95500	0
0.95867	0
0.96233	1
0.96600	1
0.96967	1
0.97333	1
0.97700	1
0.98067	1
0.98433	1
0.98800	1
0.99167	0
0.99533	0
0.99900	0
1.00267	0
1.00633	0
1.01000	0
1.01367	-0
1.01733	-0
1.02100	-1
1.02467	-1
1.02833	-1
1.03200	-2
1.03567	-2
1.03933	-3
1.04300	-3
1.04667	-4
1.05033	-4
1.05400	-4
1.05767	-4
1.06133	-5
1.06500	-5
1.06867	-4
1.07233	-4
1.07600	-4
1.07967	-4
1.08333	-3
1.08700	-3
1.09067	-3
1.09433	-2
1.09800	-2
1.10167	-1
1.10533	-1
1.10900	-0
1.11267	0
1.11633	1
1.12000	1
1.12367	2
1.12733	2
1.13100	2
1.13467	2
1.13833	1
1.14200	1
1.14567	0
1.14933	-0
1.15300	-0
1.15667	-1
1.16033	-1
1.16400	-1
1.16767	-1
1.17133	-1
1.17500	-1
1.17867	-1
1.18233	-1
1.18600	-1
1.18967	-1
1.19333	-1
1.19700	-1
1.20067	-2
1.20433	-2
1.20800	-2
1.21167	-1
1.21533	-1
1.21900	-0
1.22267	0
1.22633	1
1.23000	1
1.23367	1
1.23733	1
1.24100	1
1.24467	1
1.24833	1
1.25200	1
1.25567	0
1.25933	-0
1.26300	-0
1.26667	-1
1.27033	-1
1.27400	-1
1.27767	-1
1.28133	-1
1.28500	-1
1.28867	-1
1.29233	-2
1.29600	-2
1.29967	-2
1.30333	-2
1.30700	-2
1.31067	-2
1.31433	-2
1.31800	-3
1.32167	-3
1.32533	-3
1.32900	-3
1.33267	-3
1.33633	-3
1.34000	-3
1.34367	-2
1.34733	-2
1.35100	-2
1.35467	-2
1.35833	-2
1.36200	-2
1.36567	-2
1.36933	-1
1.37300	-1
1.37667	-0
1.38033	0
1.38400	1
1.38767	1
1.39133	2
1.39500	2
1.39867	3
1.40233	3
1.40600	3
1.40967	3
1.41333	3
1.41700	3
1.42067	3
1.42433	2
1.42800	2
1.43167	2
1.43533	1
1.43900	1
1.44267	1
1.44633	0
1.45000	0
1.45367	-0
1.45733	-1
1.46100	-1
1.46467	-1
1.46833	-2
1.47200	-2
1.47567	-2
1.47933	-3
1.48300	-3
1.48667	-3
1.49033	-3
1.49400	-3
1.49767	-3
1.50133	-3
1.50500	-3
1.50867	-3
1.51233	-3
1.51600	-3
1.51967	-3
1.52333	-4
1.52700	-4
1.53067	-4
1.53433	-4
1.53800	-5
1.54167	-5
1.54533	-5
1.54900	-4
1.55267	-4
1.55633	-4
1.56000	-4
1.56367	-3
1.56733	-3
1.57100	-3
1.57467	-3
1.57833	-3
1.58200	-3
1.58567	-3
1.58933	-3
1.59300	-3
1.59667	-4
1.60033	-4
1.60400	-5
1.60767	-6
1.61133	-7
1.61500	-9
1.61867	-11
1.62233	-13
1.62600	-16
1.62967	-19
1.63333	-22
1.63700	-25
1.64067	-29
1.64433	-32
1.64800	-36
1.65167	-40
1.65533	-43
1.65900	-47
1.66267	-51
1.66633	-55
1.67000	-59
1.67367	-63
1.67733	-68
1.68100	-73
1.68467	-78
1.68833	-83
1.69200	-88
1.69567	-91
1.69933	-95
1.70300	-97
1.70667	-100
1.71033	-101
1.71400	-103
1.71767	-104
1.72133	-104
1.72500	-105
1.72867	-105
1.73233	-105
1.73600	-106
1.73967	-106
1.74333	-106
1.74700	-107
1.75067	-108
1.75433	-109
1.75800	-109
1.76167	-110
1.76533	-110
1.76900	-110
1.77267	-110
1.77633	-110
1.78000	-109
1.78367	-109
1.78733	-109
1.79100	-109
1.79467	-109
1.79833	-110
1.80200	-110
1.80567	-111
1.80933	-112
1.81300	-112
1.81667	-112
1.82033	-111
1.82400	-112
1.82767	-112
1.83133	-113
1.83500	-113
1.83867	-114
1.84233	-114
1.84600	-114
1.84967	-114
1.85333	-114
1.85700	-114
1.86067	-115
1.86433	-115
1.86800	-116
1.87167	-116
1.87533	-115
1.87900	-114
1.88267	-112
1.88633	-110
1.89000	-109
1.89367	-108
1.89733	-107
1.90100	-107
1.90467	-107
1.90833	-108
1.91200	-108
1.91567	-109
1.91933	-109
1.92300	-110
1.92667	-110
1.93033	-110
1.93400	-110
1.93767	-110
1.94133	-110
1.94500	-110
1.94867	-110
1.95233	-110
1.95600	-110
1.95967	-109
1.96333	-109
1.96700	-109
1.97067	-108
1.97433	-108
1.97800	-108
1.98167	-107
1.98533	-107
1.98900	-107
1.99267	-107
1.99633	-106
2.00000	-106
2.00367	-105
2.00733	-105
2.01100	-104
2.01467	-103
2.01833	-103
2.02200	-103
2.02567	-104
2.02933	-104
2.03300	-104
2.03667	-104
2.04033	-104
2.04400	-104
2.04767	-104
2.05133	-103
2.05500	-103
2.05867	-103
2.06233	-102
2.06600	-102
2.06967	-101
2.07333	-101
2.07700	-101
2.08067	-100
2.08433	-100
2.08800	-99
2.09167	-99
2.09533	-98
2.09900	-98
2.10267	-97
2.10633	-97
2.11000	-96
2.11367	-96
2.11733	-95
2.12100	-95
2.12467	-95
2.12833	-94
2.13200	-94
2.13567	-94
2.13933	-94
2.14300	-94
2.14667	-94
2.15033	-94
2.15400	-93
2.15767	-92
2.16133	-91
2.16500	-90
2.16867	-90
2.17233	-89
2.17600	-88
2.17967	-88
2.18333	-87
2.18700	-87
2.19067	-87
2.19433	-87
2.19800	-87
2.20167	-88
2.20533	-88
2.20900	-88
2.21267	-88
2.21633	-88
2.22000	-88
2.22367	-88
2.22733	-87
2.23100	-88
2.23467	-88
2.23833	-88
2.24200	-88
2.24567	-88
2.24933	-87
2.25300	-87
2.25667	-87
2.26033	-87
2.26400	-87
2.26767	-87
2.27133	-86
2.27500	-86
2.27867	-85
2.28233	-84
2.28600	-83
2.28967	-82
2.29333	-81
2.29700	-81
2.30067	-80
2.30433	-80
2.30800	-80
2.31167	-80
2.31533	-80
2.31900	-80
2.32267	-80
2.32633	-80
2.33000	-80
2.33367	-79
2.33733	-79
2.34100	-78
2.34467	-77
2.34833	-76
2.35200	-75
2.35567	-74
2.35933	-73
2.36300	-72
2.36667	-70
2.37033	-69
2.37400	-66
2.37767	-64
2.38133	-60
2.38500	-56
2.38867	-52
2.39233	-48
2.39600	-43
2.39967	-39
2.40333	-34
2.40700	-30
2.41067	-25
2.41433	-22
2.41800	-18
2.42167	-16
2.42533	-13
2.42900	-11
2.43267	-10
2.43633	-8
2.44000	-7
2.44367	-5
2.44733	-5
2.45100	-4
2.45467	-4
2.45833	-3
2.46200	-2
2.46567	-2
2.46933	-1
2.47300	-1
2.47667	1
2.48033	2
2.48400	3
2.48767	3
2.49133	4
2.49500	5
2.49867	6
2.50233	7
2.50600	7
2.50967	8
2.51333	9
2.51700	9
2.52067	10
2.52433	11
2.52800	12
2.53167	12
2.53533	13
2.53900	13
2.54267	13
2.54633	14
2.55000	14
2.55367	14
2.55733	14
2.56100	14
2.56467	14
2.56833	13
2.57200	13
2.57567	13
2.57933	13
2.58300	13
2.58667	13
2.59033	14
2.59400	14
2.59767	15
2.60133	16
2.60500	17
2.60867	17
2.61233	17
2.61600	18
2.61967	18
2.62333	18
2.62700	19
2.63067	19
2.63433	19
2.63800	20
2.64167	20
2.64533	20
2.64900	20
2.65267	20
2.65633	20
2.66000	20
2.66367	20
2.66733	21
2.67100	21
2.67467	21
2.67833	21
2.68200	21
2.68567	22
2.68933	22
2.69300	22
2.69667	22
2.70033	22
2.70400	22
2.70767	22
2.71133	22
2.71500	22
2.71867	23
2.72233	23
2.72600	24
2.72967	24
2.73333	25
2.73700	25
2.74067	25
2.74433	26
2.74800	26
2.75167	26
2.75533	27
2.75900	27
2.76267	28
2.76633	28
2.77000	28
2.77367	29
2.77733	29
2.78100	29
2.78467	29
2.78833	29
2.79200	28
2.79567	28
2.79933	27
2.80300	26
2.80667	26
2.81033	25
2.81400	25
2.81767	25
2.82133	25
2.82500	25
2.82867	25
2.83233	26
2.83600	26
2.83967	26
2.84333	25
2.84700	23
2.85067	19
2.85433	13
2.85800	4
2.86167	-8
2.86533	-24
2.86900	-44
2.87267	-68
2.87633	-97
2.88000	-131
2.88367	-169
2.88733	-211
2.89100	-256
2.89467	-304
2.89833	-355
2.90200	-407
2.90567	-462
2.90933	-517
2.91300	-572
2.91667	-628
2.92033	-683
2.92400	-737
2.92767	-789
2.93133	-841
2.93500	-892
2.93867	-948
2.94233	-1006
2.94600	-1058
2.94967	-1093
2.95333	-1104
2.95700	-1088
2.96067	-1049
2.96433	-991
2.96800	-921
2.97167	-843
2.97533	-762
2.97900	-682
2.98267	-604
2.98633	-531
2.99000	-465
2.99367	-404
2.99733	-349
3.00100	-301
3.00467	-258
3.00833	-220
3.01200	-187
3.01567	-158
3.01933	-133
3.02300	-112
3.02667	-93
3.03033	-78
3.03400	-64
3.03767	-52
3.04133	-42
3.04500	-34
3.04867	-27
3.05233	-21
3.05600	-16
3.05967	-12
3.06333	-8
3.06700	-5
3.07067	-2
3.07433	0
3.07800	3
3.08167	4
3.08533	6
3.08900	7
3.09267	8
3.09633	9
3.10000	10
3.10367	11
3.10733	11
3.11100	12
3.11467	12
3.11833	13
3.12200	14
3.12567	14
3.12933	14
3.13300	15
3.13667	16
3.14033	17
3.14400	17
3.14767	18
3.15133	18
3.15500	19
3.15867	19
3.16233	20
3.16600	20
3.16967	20
3.17333	20
3.17700	21
3.18067	21
3.18433	21
3.18800	22
3.19167	22
3.19533	22
3.19900	22
3.20267	23
3.20633	23
3.21000	23
3.21367	24
3.21733	24
3.22100	24
3.22467	24
3.22833	24
3.23200	24
3.23567	24
3.23933	24
3.24300	25
3.24667	25
3.25033	25
3.25400	26
3.25767	26
3.26133	26
3.26500	26
3.26867	26
3.27233	25
3.27600	25
3.27967	25
3.28333	26
3.28700	26
3.29067	26
3.29433	26
3.29800	26
3.30167	27
3.30533	27
3.30900	27
3.31267	27
3.31633	28
3.32000	28
3.32367	28
3.32733	28
3.33100	28
3.33467	27
3.33833	27
3.34200	27
3.34567	27
3.34933	27
3.35300	27
3.35667	27
3.36033	28
3.36400	28
3.36767	28
3.37133	28
3.37500	28
3.37867	28
3.38233	29
3.38600	29
3.38967	29
3.39333	29
3.39700	29
3.40067	29
3.40433	29
3.40800	28
3.41167	28
3.41533	29
3.41900	29
3.42267	29
3.42633	29
3.43000	29
3.43367	29
3.43733	29
3.44100	29
3.44467	29
3.44833	29
3.45200	29
3.45567	30
3.45933	30
3.46300	30
3.46667	30
3.47033	30
3.47400	30
3.47767	29
3.48133	29
3.48500	29
3.48867	28
3.49233	28
3.49600	28
3.49967	28
3.50333	28
3.50700	29
3.51067	29
3.51433	29
3.51800	28
3.52167	28
3.52533	28
3.52900	28
3.53267	28
3.53633	28
3.54000	28
3.54367	27
3.54733	28
3.55100	28
3.55467	28
3.55833	28
3.56200	28
3.56567	28
3.56933	28
3.57300	28
3.57667	28
3.58033	28
3.58400	28
3.58767	28
3.59133	28
3.59500	28
3.59867	28
3.60233	28
3.60600	28
3.60967	28
3.61333	27
3.61700	27
3.62067	27
3.62433	27
3.62800	27
3.63167	27
3.63533	27
3.63900	27
3.64267	27
3.64633	27
3.65000	27
3.65367	27
3.65733	28
3.66100	28
3.66467	28
3.66833	28
3.67200	28
3.67567	28
3.67933	28
3.68300	28
3.68667	28
3.69033	28
3.69400	28
3.69767	28
3.70133	28
3.70500	29
3.70867	29
3.71233	29
3.71600	29
3.71967	29
3.72333	29
3.72700	29
3.73067	29
3.73433	29
3.73800	28
3.74167	28
3.74533	27
3.74900	27
3.75267	27
3.75633	27
3.76000	27
3.76367	27
3.76733	27
3.77100	27
3.77467	27
3.77833	27
3.78200	28
3.78567	28
3.78933	28
3.79300	28
3.79667	28
3.80033	28
3.80400	29
3.80767	29
3.81133	29
3.81500	28
3.81867	28
3.82233	28
3.82600	28
3.82967	28
3.83333	27
3.83700	27
3.84067	27
3.84433	27
3.84800	27
3.85167	27
3.85533	27
3.85900	27
3.86267	27
3.86633	27
3.87000	27
3.87367	27
3.87733	27
3.88100	28
3.88467	28
3.88833	28
3.89200	28
3.89567	28
3.89933	28
3.90300	28
3.90667	28
3.91033	28
3.91400	28
3.91767	29
3.92133	29
3.92500	29
3.92867	29
3.93233	29
3.93600	28
3.93967	28
3.94333	28
3.94700	28
3.95067	27
3.95433	27
3.95800	27
3.96167	27
3.96533	27
3.96900	27
3.97267	27
3.97633	27
3.98000	27
3.98367	27
3.98733	27
3.99100	27
3.99467	27
3.99833	27

[Chromatogram (Ch3)]
Interval(msec)	220
# of Points	1091
Start Time(min)	0.002
End Time(min)	3.998
R.Time (min)	Intensity
0.00167	1
0.00533	1
0.00900	1
0.01267	2
0.01633	3
0.02000	3
0.02367	4
0.02733	4
0.03100	4
0.03467	4
0.03833	5
0.04200	5
0.04567	2
0.04933	-0
0.05300	-1
0.05667	-0
0.06033	2
0.06400	4
0.06767	3
0.07133	3
0.07500	3
0.07867	2
0.08233	2
0.08600	1
0.08967	-1
0.09333	-0
0.09700	1
0.10067	2
0.10433	3
0.10800	3
0.11167	3
0.11533	2
0.11900	1
0.12267	0
0.12633	-0
0.13000	0
0.13367	1
0.13733	1
0.14100	1
0.14467	-2
0.14833	-3
0.15200	-2
0.15567	-1
0.15933	-1
0.16300	-0
0.16667	-1
0.17033	1
0.17400	2
0.17767	1
0.18133	-1
0.18500	-0
0.18867	1
0.19233	2
0.19600	3
0.19967	2
0.20333	2
0.20700	-0
0.21067	-0
0.21433	1
0.21800	3
0.22167	3
0.22533	4
0.22900	4
0.23267	6
0.23633	6
0.24000	6
0.24367	5
0.24733	5
0.25100	7
0.25467	8
0.25833	8
0.26200	7
0.26567	6
0.26933	7
0.27300	6
0.27667	5
0.28033	4
0.28400	2
0.28767	3
0.29133	3
0.29500	4
0.29867	4
0.30233	3
0.30600	1
0.30967	-2
0.31333	-3
0.31700	-1
0.32067	-1
0.32433	0
0.32800	0
0.33167	-1
0.33533	-0
0.33900	1
0.34267	3
0.34633	1
0.35000	2
0.35367	2
0.35733	3
0.36100	5
0.36467	6
0.36833	5
0.37200	3
0.37567	2
0.37933	4
0.38300	5
0.38667	3
0.39033	3
0.39400	2
0.39767	1
0.40133	1
0.40500	5
0.40867	8
0.41233	7
0.41600	5
0.41967	1
0.42333	-1
0.42700	-3
0.43067	-3
0.43433	-1
0.43800	1
0.44167	4
0.44533	6
0.44900	6
0.45267	5
0.45633	5
0.46000	6
0.46367	7
0.46733	6
0.47100	4
0.47467	3
0.47833	1
0.48200	-1
0.48567	-1
0.48933	-1
0.49300	-0
0.49667	-1
0.50033	-1
0.50400	2
0.50767	5
0.51133	6
0.51500	5
0.51867	3
0.52233	-0
0.52600	-3
0.52967	-4
0.53333	-2
0.53700	-1
0.54067	3
0.54433	7
0.54800	8
0.55167	6
0.55533	4
0.55900	2
0.56267	1
0.56633	-0
0.57000	0
0.57367	-0
0.57733	0
0.58100	-0
0.58467	-0
0.58833	2
0.59200	3
0.59567	4
0.59933	6
0.60300	6
0.60667	5
0.61033	5
0.61400	5
0.61767	6
0.62133	6
0.62500	5
0.62867	4
0.63233	3
0.63600	3
0.63967	4
0.64333	7
0.64700	8
0.65067	7
0.65433	8
0.65800	8
0.66167	7
0.66533	8
0.66900	7
0.67267	7
0.67633	6
0.68000	5
0.68367	4
0.68733	5
0.69100	5
0.69467	4
0.69833	4
0.70200	5
0.70567	7
0.70933	7
0.71300	5
0.71667	3
0.72033	1
0.72400	2
0.72767	1
0.73133	1
0.73500	3
0.73867	6
0.74233	6
0.74600	6
0.74967	5
0.75333	5
0.75700	4
0.76067	4
0.76433	5
0.76800	7
0.77167	7
0.77533	6
0.77900	5
0.78267	6
0.78633	7
0.79000	5
0.79367	4
0.79733	4
0.80100	3
0.80467	2
0.80833	2
0.81200	2
0.81567	2
0.81933	2
0.82300	2
0.82667	4
0.83033	4
0.83400	6
0.83767	8
0.84133	9
0.84500	9
0.84867	10
0.85233	9
0.85600	8
0.85967	10
0.86333	12
0.86700	14
0.87067	15
0.87433	13
0.87800	10
0.88167	9
0.88533	7
0.88900	7
0.89267	7
0.89633	6
0.90000	6
0.90367	6
0.90733	7
0.91100	8
0.91467	8
0.91833	8
0.92200	9
0.92567	8
0.92933	8
0.93300	7
0.93667	7
0.94033	6
0.94400	6
0.94767	6
0.95133	7
0.95500	6
0.95867	6
0.96233	6
0.96600	6
0.96967	7
0.97333	8
0.97700	9
0.98067	10
0.98433	11
0.98800	11
0.99167	10
0.99533	9
0.99900	11
1.00267	11
1.00633	8
1.01000	7
1.01367	8
1.01733	7
1.02100	8
1.02467	11
1.02833	12
1.03200	11
1.03567	9
1.03933	9
1.04300	11
1.04667	14
1.05033	16
1.05400	17
1.05767	16
1.06133	14
1.06500	15
1.06867	13
1.07233	11
1.07600	11
1.07967	11
1.08333	10
1.08700	12
1.09067	15
1.09433	16
1.09800	16
1.10167	15
1.10533	14
1.10900	12
1.11267	8
1.11633	5
1.12000	5
1.12367	6
1.12733	6
1.13100	5
1.13467	8
1.13833	10
1.14200	10
1.14567	11
1.14933	12
1.15300	12
1.15667	13
1.16033	13
1.16400	13
1.16767	11
1.17133	10
1.17500	9
1.17867	10
1.18233	12
1.18600	12
1.18967	12
1.19333	12
1.19700	12
1.20067	9
1.20433	6
1.20800	5
1.21167	4
1.21533	5
1.21900	6
1.22267	8
1.22633	8
1.23000	9
1.23367	11
1.23733	14
1.24100	14
1.24467	13
1.24833	10
1.25200	10
1.25567	10
1.25933	10
1.26300	11
1.26667	11
1.27033	10
1.27400	10
1.27767	9
1.28133	9
1.28500	9
1.28867	10
1.29233	10
1.29600	12
1.29967	12
1.30333	11
1.30700	12
1.31067	15
1.31433	16
1.31800	15
1.32167	15
1.32533	16
1.32900	17
1.33267	17
1.33633	16
1.34000	16
1.34367	16
1.34733	15
1.35100	15
1.35467	13
1.35833	13
1.36200	13
1.36567	12
1.36933	13
1.37300	13
1.37667	13
1.38033	11
1.38400	9
1.38767	6
1.39133	7
1.39500	10
1.39867	13
1.40233	14
1.40600	14
1.40967	13
1.41333	13
1.41700	15
1.42067	17
1.42433	17
1.42800	17
1.43167	17
1.43533	17
1.43900	17
1.44267	17
1.44633	18
1.45000	21
1.45367	21
1.45733	20
1.46100	18
1.46467	17
1.46833	17
1.47200	17
1.47567	18
1.47933	17
1.48300	16
1.48667	16
1.49033	16
1.49400	15
1.49767	18
1.50133	21
1.50500	21
1.50867	22
1.51233	22
1.51600	21
1.51967	22
1.52333	23
1.52700	24
1.53067	22
1.53433	22
1.53800	22
1.54167	21
1.54533	19
1.54900	17
1.55267	16
1.55633	15
1.56000	15
1.56367	16
1.56733	18
1.57100	20
1.57467	22
1.57833	22
1.58200	23
1.58567	23
1.58933	22
1.59300	23
1.59667	23
1.60033	23
1.60400	22
1.60767	20
1.61133	20
1.61500	20
1.61867	20
1.62233	22
1.62600	23
1.62967	23
1.63333	23
1.63700	24
1.64067	25
1.64433	26
1.64800	26
1.65167	27
1.65533	27
1.65900	26
1.66267	25
1.66633	26
1.67000	27
1.67367	28
1.67733	29
1.68100	29
1.68467	31
1.68833	33
1.69200	34
1.69567	33
1.69933	34
1.70300	35
1.70667	36
1.71033	35
1.71400	35
1.71767	37
1.72133	37
1.72500	36
1.72867	37
1.73233	35
1.73600	35
1.73967	36
1.74333	39
1.74700	42
1.75067	44
1.75433	42
1.75800	41
1.76167	41
1.76533	42
1.76900	42
1.77267	41
1.77633	40
1.78000	39
1.78367	41
1.78733	41
1.79100	40
1.79467	41
1.79833	42
1.80200	43
1.80567	45
1.80933	48
1.81300	48
1.81667	46
1.82033	47
1.82400	48
1.82767	49
1.83133	49
1.83500	48
1.83867	48
1.84233	49
1.84600	50
1.84967	50
1.85333	51
1.85700	53
1.86067	57
1.86433	60
1.86800	59
1.87167	57
1.87533	58
1.87900	59
1.88267	58
1.88633	57
1.89000	57
1.89367	57
1.89733	58
1.90100	60
1.90467	61
1.90833	63
1.91200	67
1.91567	69
1.91933	70
1.92300	69
1.92667	71
1.93033	71
1.93400	71
1.93767	71
1.94133	73
1.94500	75
1.94867	76
1.95233	77
1.95600	78
1.95967	79
1.96333	79
1.96700	78
1.97067	78
1.97433	78
1.97800	79
1.98167	80
1.98533	82
1.98900	83
1.99267	84
1.99633	86
2.00000	88
2.00367	91
2.00733	94
2.01100	95
2.01467	96
2.01833	97
2.02200	96
2.02567	95
2.02933	95
2.03300	97
2.03667	100
2.04033	100
2.04400	101
2.04767	103
2.05133	104
2.05500	106
2.05867	107
2.06233	108
2.06600	109
2.06967	111
2.07333	111
2.07700	112
2.08067	114
2.08433	117
2.08800	119
2.09167	119
2.09533	120
2.09900	122
2.10267	125
2.10633	129
2.11000	131
2.11367	132
2.11733	133
2.12100	133
2.12467	134
2.12833	135
2.13200	135
2.13567	136
2.13933	139
2.14300	140
2.14667	141
2.15033	142
2.15400	144
2.15767	144
2.16133	144
2.16500	145
2.16867	148
2.17233	150
2.17600	151
2.17967	153
2.18333	156
2.18700	159
2.19067	163
2.19433	165
2.19800	163
2.20167	163
2.20533	164
2.20900	165
2.21267	167
2.21633	170
2.22000	172
2.22367	175
2.22733	175
2.23100	176
2.23467	178
2.23833	178
2.24200	179
2.24567	180
2.24933	182
2.25300	185
2.25667	187
2.26033	189
2.26400	190
2.26767	190
2.27133	190
2.27500	190
2.27867	191
2.28233	193
2.28600	196
2.28967	199
2.29333	202
2.29700	204
2.30067	205
2.30433	204
2.30800	203
2.31167	205
2.31533	207
2.31900	208
2.32267	208
2.32633	211
2.33000	215
2.33367	218
2.33733	222
2.34100	225
2.34467	226
2.34833	226
2.35200	229
2.35567	231
2.35933	229
2.36300	229
2.36667	230
2.37033	232
2.37400	236
2.37767	240
2.38133	242
2.38500	240
2.38867	236
2.39233	235
2.39600	237
2.39967	240
2.40333	245
2.40700	248
2.41067	251
2.41433	254
2.41800	255
2.42167	259
2.42533	264
2.42900	267
2.43267	268
2.43633	267
2.44000	270
2.44367	335
2.44733	502
2.45100	679
2.45467	823
2.45833	907
2.46200	912
2.46567	869
2.46933	814
2.47300	760
2.47667	718
2.48033	685
2.48400	648
2.48767	601
2.49133	549
2.49500	497
2.49867	453
2.50233	422
2.50600	404
2.50967	397
2.51333	404
2.51700	423
2.52067	448
2.52433	470
2.52800	483
2.53167	481
2.53533	464
2.53900	434
2.54267	399
2.54633	363
2.55000	331
2.55367	303
2.55733	279
2.56100	262
2.56467	249
2.56833	241
2.57200	236
2.57567	232
2.57933	231
2.58300	230
2.58667	232
2.59033	235
2.59400	239
2.59767	242
2.60133	241
2.60500	236
2.60867	229
2.61233	222
2.61600	214
2.61967	203
2.62333	190
2.62700	177
2.63067	166
2.63433	154
2.63800	140
2.64167	127
2.64533	113
2.64900	97
2.65267	80
2.65633	65
2.66000	53
2.66367	43
2.66733	33
2.67100	24
2.67467	16
2.67833	8
2.68200	2
2.68567	-1
2.68933	-2
2.69300	-2
2.69667	0
2.70033	2
2.70400	4
2.70767	8
2.71133	12
2.71500	19
2.71867	25
2.72233	30
2.72600	35
2.72967	41
2.73333	47
2.73700	53
2.74067	57
2.74433	57
2.74800	58
2.75167	60
2.75533	64
2.75900	68
2.76267	72
2.76633	77
2.77000	81
2.77367	86
2.77733	89
2.78100	92
2.78467	97
2.78833	102
2.79200	109
2.79567	115
2.79933	119
2.80300	125
2.80667	132
2.81033	140
2.81400	150
2.81767	161
2.82133	174
2.82500	195
2.82867	232
2.83233	298
2.83600	417
2.83967	612
2.84333	896
2.84700	1282
2.85067	1765
2.85433	2321
2.85800	2915
2.86167	3502
2.86533	4036
2.86900	4474
2.87267	4779
2.87633	4945
2.88000	4971
2.88367	4869
2.88733	4663
2.89100	4385
2.89467	4060
2.89833	3710
2.90200	3357
2.90567	3016
2.90933	2694
2.91300	2395
2.91667	2121
2.92033	1872
2.92400	1652
2.92767	1454
2.93133	1280
2.93500	1127
2.93867	993
2.94233	876
2.94600	774
2.94967	686
2.95333	610
2.95700	545
2.96067	485
2.96433	432
2.96800	387
2.97167	350
2.97533	318
2.97900	290
2.98267	264
2.98633	244
2.99000	226
2.99367	209
2.99733	194
3.00100	184
3.00467	173
3.00833	165
3.01200	158
3.01567	153
3.01933	147
3.02300	143
3.02667	137
3.03033	133
3.03400	131
3.03767	130
3.04133	130
3.04500	127
3.04867	125
3.05233	124
3.05600	124
3.05967	124
3.06333	123
3.06700	121
3.07067	119
3.07433	118
3.07800	117
3.08167	116
3.08533	115
3.08900	115
3.09267	114
3.09633	114
3.10000	116
3.10367	116
3.10733	115
3.11100	113
3.11467	113
3.11833	114
3.12200	115
3.12567	113
3.12933	112
3.13300	112
3.13667	113
3.14033	115
3.14400	116
3.14767	115
3.15133	115
3.15500	117
3.15867	118
3.16233	101
3.16600	62
3.16967	25
3.17333	14
3.17700	33
3.18067	75
3.18433	132
3.18800	194
3.19167	255
3.19533	314
3.19900	365
3.20267	409
3.20633	450
3.21000	487
3.21367	519
3.21733	546
3.22100	568
3.22467	588
3.22833	607
3.23200	623
3.23567	637
3.23933	649
3.24300	659
3.24667	668
3.25033	678
3.25400	687
3.25767	696
3.26133	705
3.26500	711
3.26867	718
3.27233	724
3.27600	731
3.27967	738
3.28333	746
3.28700	754
3.29067	761
3.29433	766
3.29800	770
3.30167	774
3.30533	779
3.30900	785
3.31267	792
3.31633	799
3.32000	804
3.32367	810
3.32733	817
3.33100	821
3.33467	826
3.33833	830
3.34200	833
3.34567	835
3.34933	841
3.35300	847
3.35667	851
3.36033	854
3.36400	855
3.36767	856
3.37133	858
3.37500	860
3.37867	860
3.38233	859
3.38600	858
3.38967	855
3.39333	852
3.39700	851
3.40067	850
3.40433	851
3.40800	850
3.41167	851
3.41533	850
3.41900	847
3.42267	842
3.42633	835
3.43000	830
3.43367	827
3.43733	822
3.44100	818
3.44467	815
3.44833	814
3.45200	810
3.45567	806
3.45933	802
3.46300	798
3.46667	793
3.47033	791
3.47400	789
3.47767	785
3.48133	784
3.48500	784
3.48867	782
3.49233	780
3.49600	779
3.49967	777
3.50333	775
3.50700	773
3.51067	770
3.51433	767
3.51800	764
3.52167	763
3.52533	764
3.52900	765
3.53267	766
3.53633	767
3.54000	767
3.54367	767
3.54733	767
3.55100	767
3.55467	766
3.55833	764
3.56200	761
3.56567	760
3.56933	761
3.57300	763
3.57667	762
3.58033	761
3.58400	763
3.58767	765
3.59133	766
3.59500	766
3.59867	764
3.60233	761
3.60600	760
3.60967	761
3.61333	761
3.61700	759
3.62067	757
3.62433	757
3.62800	757
3.63167	758
3.63533	757
3.63900	756
3.64267	755
3.64633	755
3.65000	754
3.65367	751
3.65733	750
3.66100	748
3.66467	746
3.66833	742
3.67200	738
3.67567	737
3.67933	736
3.68300	734
3.68667	733
3.69033	731
3.69400	728
3.69767	728
3.70133	728
3.70500	727
3.70867	725
3.71233	720
3.71600	717
3.71967	717
3.72333	717
3.72700	716
3.73067	716
3.73433	716
3.73800	716
3.74167	715
3.74533	714
3.74900	711
3.75267	708
3.75633	708
3.76000	708
3.76367	706
3.76733	705
3.77100	704
3.77467	704
3.77833	702
3.78200	699
3.78567	696
3.78933	693
3.79300	689
3.79667	685
3.80033	681
3.80400	679
3.80767	678
3.81133	678
3.81500	677
3.81867	677
3.82233	677
3.82600	673
3.82967	668
3.83333	665
3.83700	664
3.84067	665
3.84433	664
3.84800	662
3.85167	660
3.85533	659
3.85900	658
3.86267	656
3.86633	655
3.87000	653
3.87367	648
3.87733	644
3.88100	642
3.88467	640
3.88833	639
3.89200	638
3.89567	637
3.89933	635
3.90300	632
3.90667	629
3.91033	629
3.91400	628
3.91767	628
3.92133	626
3.92500	624
3.92867	622
3.93233	620
3.93600	619
3.93967	618
3.94333	616
3.94700	616
3.95067	617
3.95433	617
3.95800	616
3.96167	613
3.96533	609
3.96900	606
3.97267	604
3.97633	602
3.98000	601
3.98367	601
3.98733	600
3.99100	598
3.99467	597
3.99833	595

[Status Trace (Column Oven Temperature)]
Interval(msec)	1000
# of Points	240
Start Time(min)	0.011
End Time(min)	3.995
Intensity Units	
Intensity Multiplier	1
R.Time (min)	Intensity
0.01120	35.02
0.02787	35.01
0.04453	35.01
0.06120	35.01
0.07787	35.00
0.09453	34.99
0.11120	34.98
0.12787	34.98
0.14453	34.98
0.16120	34.99
0.17787	34.98
0.19453	34.97
0.21120	34.97
0.22787	34.98
0.24453	34.98
0.26120	34.98
0.27787	34.98
0.29453	34.98
0.31120	34.99
0.32787	34.98
0.34453	34.99
0.36120	35.00
0.37787	35.00
0.39453	35.01
0.41120	35.01
0.42787	35.00
0.44453	35.01
0.46120	35.01
0.47787	35.02
0.49453	35.03
0.51120	35.02
0.52787	35.01
0.54453	35.00
0.56120	34.99
0.57787	34.99
0.59453	34.98
0.61120	34.97
0.62787	34.96
0.64453	34.96
0.66120	34.97
0.67787	34.98
0.69453	34.99
0.71120	35.00
0.72787	35.00
0.74453	35.01
0.76120	35.02
0.77787	35.04
0.79453	35.05
0.81120	35.03
0.82787	35.03
0.84453	35.03
0.86120	35.03
0.87787	35.03
0.89453	35.00
0.91120	35.00
0.92787	35.00
0.94453	34.99
0.96120	34.99
0.97787	34.99
0.99453	34.98
1.01120	34.99
1.02787	35.01
1.04453	35.02
1.06120	35.02
1.07787	35.03
1.09453	35.03
1.11120	35.01
1.12787	35.01
1.14453	35.01
1.16120	35.01
1.17787	35.01
1.19453	35.01
1.21120	35.00
1.22787	34.99
1.24453	34.98
1.26120	34.99
1.27787	34.99
1.29453	35.00
1.31120	35.01
1.32787	35.02
1.34453	35.03
1.36120	35.02
1.37787	35.01
1.39453	34.99
1.41120	34.98
1.42787	34.97
1.44453	34.97
1.46120	34.97
1.47787	34.98
1.49453	34.98
1.51120	34.99
1.52787	35.00
1.54453	35.00
1.56120	35.01
1.57787	35.02
1.59453	35.04
1.61120	35.10
1.62787	35.23
1.64453	35.43
1.66120	35.68
1.67787	36.03
1.69453	36.41
1.71120	36.75
1.72787	37.07
1.74453	37.41
1.76120	37.74
1.77787	38.06
1.79453	38.39
1.81120	38.73
1.82787	39.07
1.84453	39.40
1.86120	39.75
1.87787	40.05
1.89453	40.34
1.91120	40.67
1.92787	41.02
1.94453	41.34
1.96120	41.66
1.97787	42.00
1.99453	42.33
2.01120	42.65
2.02787	42.99
2.04453	43.32
2.06120	43.66
2.07787	43.99
2.09453	44.31
2.11120	44.64
2.12787	44.95
2.14453	45.29
2.16120	45.61
2.17787	45.93
2.19453	46.26
2.21120	46.59
2.22787	46.93
2.24453	47.26
2.26120	47.60
2.27787	47.93
2.29453	48.25
2.31120	48.58
2.32787	48.91
2.34453	49.20
2.36120	49.50
2.37787	49.68
2.39453	49.72
2.41120	49.71
2.42787	49.71
2.44453	49.71
2.46120	49.71
2.47787	49.72
2.49453	49.74
2.51120	49.75
2.52787	49.75
2.54453	49.78
2.56120	49.80
2.57787	49.82
2.59453	49.82
2.61120	49.83
2.62787	49.82
2.64453	49.83
2.66120	49.85
2.67787	49.85
2.69453	49.87
2.71120	49.88
2.72787	49.88
2.74453	49.87
2.76120	49.85
2.77787	49.84
2.79453	49.86
2.81120	49.89
2.82787	49.89
2.84453	49.91
2.86120	49.91
2.87787	49.92
2.89453	49.93
2.91120	49.94
2.92787	49.94
2.94453	49.95
2.96120	49.96
2.97787	49.97
2.99453	49.97
3.01120	49.99
3.02787	49.99
3.04453	50.00
3.06120	50.01
3.07787	50.03
3.09453	50.06
3.11120	50.07
3.12787	50.09
3.14453	50.08
3.16120	50.09
3.17787	50.09
3.19453	50.08
3.21120	50.08
3.22787	50.09
3.24453	50.09
3.26120	50.10
3.27787	50.11
3.29453	50.10
3.31120	50.09
3.32787	50.09
3.34453	50.09
3.36120	50.09
3.37787	50.07
3.39453	50.07
3.41120	50.06
3.42787	50.06
3.44453	50.05
3.46120	50.04
3.47787	50.04
3.49453	50.05
3.51120	50.05
3.52787	50.05
3.54453	50.05
3.56120	50.05
3.57787	50.05
3.59453	50.06
3.61120	50.07
3.62787	50.07
3.64453	50.07
3.66120	50.08
3.67787	50.08
3.69453	50.08
3.71120	50.06
3.72787	50.06
3.74453	50.07
3.76120	50.08
3.77787	50.08
3.79453	50.08
3.81120	50.07
3.82787	50.08
3.84453	50.08
3.86120	50.08
3.87787	50.07
3.89453	50.07
3.91120	50.06
3.92787	50.05
3.94453	50.06
3.96120	50.06
3.97787	50.07
3.99453	50.07

[Status Trace (Injection Unit Temperature)]
Interval(msec)	1000
# of Points	240
Start Time(min)	0.011
End Time(min)	3.995
Intensity Units	
Intensity Multiplier	1
R.Time (min)	Intensity
0.01120	99.98
0.02787	99.98
0.04453	99.97
0.06120	99.98
0.07787	99.98
0.09453	99.98
0.11120	99.98
0.12787	99.98
0.14453	99.98
0.16120	99.98
0.17787	99.99
0.19453	99.98
0.21120	99.98
0.22787	99.99
0.24453	99.98
0.26120	99.98
0.27787	99.98
0.29453	99.98
0.31120	99.99
0.32787	99.98
0.34453	99.98
0.36120	99.99
0.37787	99.98
0.39453	99.98
0.41120	99.98
0.42787	99.99
0.44453	99.99
0.46120	99.99
0.47787	99.98
0.49453	99.99
0.51120	99.99
0.52787	99.98
0.54453	99.98
0.56120	99.98
0.57787	99.98
0.59453	99.98
0.61120	99.98
0.62787	99.98
0.64453	99.98
0.66120	99.97
0.67787	99.98
0.69453	99.98
0.71120	99.98
0.72787	99.98
0.74453	99.98
0.76120	99.98
0.77787	99.98
0.79453	99.98
0.81120	99.98
0.82787	99.98
0.84453	99.98
0.86120	99.98
0.87787	99.98
0.89453	99.98
0.91120	99.98
0.92787	99.97
0.94453	99.98
0.96120	99.98
0.97787	99.98
0.99453	99.98
1.01120	99.98
1.02787	99.98
1.04453	99.98
1.06120	99.99
1.07787	99.99
1.09453	99.98
1.11120	99.98
1.12787	99.98
1.14453	99.98
1.16120	99.98
1.17787	99.98
1.19453	99.99
1.21120	99.99
1.22787	99.99
1.24453	99.98
1.26120	99.99
1.27787	99.99
1.29453	99.99
1.31120	99.99
1.32787	99.99
1.34453	99.98
1.36120	99.98
1.37787	99.99
1.39453	99.99
1.41120	99.98
1.42787	99.98
1.44453	99.99
1.46120	99.98
1.47787	99.98
1.49453	99.98
1.51120	99.99
1.52787	99.99
1.54453	99.99
1.56120	99.99
1.57787	99.99
1.59453	99.99
1.61120	99.98
1.62787	99.99
1.64453	99.99
1.66120	99.98
1.67787	99.98
1.69453	99.99
1.71120	99.99
1.72787	99.98
1.74453	99.99
1.76120	99.99
1.77787	99.98
1.79453	99.98
1.81120	99.98
1.82787	99.98
1.84453	99.98
1.86120	99.98
1.87787	99.98
1.89453	99.98
1.91120	99.98
1.92787	99.98
1.94453	99.98
1.96120	99.98
1.97787	99.98
1.99453	99.97
2.01120	99.97
2.02787	99.97
2.04453	99.97
2.06120	99.98
2.07787	99.98
2.09453	99.98
2.11120	99.98
2.12787	99.98
2.14453	99.97
2.16120	99.97
2.17787	99.97
2.19453	99.97
2.21120	99.97
2.22787	99.96
2.24453	99.97
2.26120	99.97
2.27787	99.97
2.29453	99.97
2.31120	99.96
2.32787	99.97
2.34453	99.97
2.36120	99.97
2.37787	99.97
2.39453	99.97
2.41120	99.97
2.42787	99.97
2.44453	99.97
2.46120	99.97
2.47787	99.97
2.49453	99.97
2.51120	99.96
2.52787	99.97
2.54453	99.97
2.56120	99.97
2.57787	99.97
2.59453	99.97
2.61120	99.97
2.62787	99.98
2.64453	99.97
2.66120	99.97
2.67787	99.98
2.69453	99.98
2.71120	99.98
2.72787	99.98
2.74453	99.98
2.76120	99.98
2.77787	99.98
2.79453	99.99
2.81120	99.99
2.82787	99.99
2.84453	99.99
2.86120	99.99
2.87787	100.00
2.89453	99.99
2.91120	100.00
2.92787	100.00
2.94453	100.00
2.96120	100.00
2.97787	100.00
2.99453	100.01
3.01120	100.01
3.02787	100.01
3.04453	100.01
3.06120	100.01
3.07787	100.01
3.09453	100.02
3.11120	100.02
3.12787	100.02
3.14453	100.02
3.16120	100.02
3.17787	100.02
3.19453	100.02
3.21120	100.02
3.22787	100.02
3.24453	100.03
3.26120	100.03
3.27787	100.03
3.29453	100.03
3.31120	100.03
3.32787	100.04
3.34453	100.03
3.36120	100.04
3.37787	100.04
3.39453	100.03
3.41120	100.04
3.42787	100.04
3.44453	100.04
3.46120	100.04
3.47787	100.04
3.49453	100.04
3.51120	100.04
3.52787	100.04
3.54453	100.04
3.56120	100.05
3.57787	100.05
3.59453	100.05
3.61120	100.05
3.62787	100.05
3.64453	100.05
3.66120	100.05
3.67787	100.05
3.69453	100.05
3.71120	100.05
3.72787	100.05
3.74453	100.05
3.76120	100.05
3.77787	100.05
3.79453	100.05
3.81120	100.05
3.82787	100.05
3.84453	100.05
3.86120	100.06
3.87787	100.05
3.89453	100.05
3.91120	100.05
3.92787	100.05
3.94453	100.05
3.96120	100.05
3.97787	100.05
3.99453	100.05

[Status Trace (Carrier Gas Pressure)]
Interval(msec)	1000
# of Points	240
Start Time(min)	0.011
End Time(min)	3.995
Intensity Units	
Intensity Multiplier	1
R.Time (min)	Intensity
0.01120	58.00
0.02787	55.04
0.04453	57.55
0.06120	59.64
0.07787	59.08
0.09453	58.01
0.11120	57.99
0.12787	58.01
0.14453	58.01
0.16120	58.00
0.17787	58.00
0.19453	58.00
0.21120	58.00
0.22787	58.00
0.24453	58.00
0.26120	58.00
0.27787	58.00
0.29453	58.00
0.31120	58.00
0.32787	58.00
0.34453	58.00
0.36120	58.00
0.37787	58.00
0.39453	58.00
0.41120	58.00
0.42787	58.00
0.44453	58.00
0.46120	58.00
0.47787	58.00
0.49453	58.00
0.51120	58.00
0.52787	58.00
0.54453	58.00
0.56120	58.00
0.57787	58.00
0.59453	58.00
0.61120	58.00
0.62787	58.00
0.64453	58.00
0.66120	58.00
0.67787	58.00
0.69453	58.00
0.71120	58.00
0.72787	58.00
0.74453	58.00
0.76120	58.00
0.77787	58.00
0.79453	58.00
0.81120	58.00
0.82787	58.00
0.84453	58.00
0.86120	58.00
0.87787	58.00
0.89453	58.00
0.91120	58.00
0.92787	58.00
0.94453	58.00
0.96120	58.00
0.97787	58.00
0.99453	58.00
1.01120	58.00
1.02787	58.00
1.04453	58.00
1.06120	58.00
1.07787	58.00
1.09453	58.00
1.11120	58.00
1.12787	58.00
1.14453	58.00
1.16120	58.00
1.17787	58.00
1.19453	58.00
1.21120	58.00
1.22787	58.00
1.24453	58.00
1.26120	58.00
1.27787	58.00
1.29453	58.00
1.31120	58.00
1.32787	58.00
1.34453	58.00
1.36120	58.00
1.37787	58.00
1.39453	58.00
1.41120	58.00
1.42787	58.00
1.44453	58.00
1.46120	58.00
1.47787	58.00
1.49453	58.00
1.51120	58.00
1.52787	58.00
1.54453	58.00
1.56120	58.00
1.57787	58.00
1.59453	58.00
1.61120	58.00
1.62787	58.00
1.64453	58.00
1.66120	58.00
1.67787	58.01
1.69453	58.00
1.71120	58.00
1.72787	58.00
1.74453	58.00
1.76120	58.00
1.77787	58.00
1.79453	58.00
1.81120	58.00
1.82787	58.00
1.84453	58.00
1.86120	58.00
1.87787	58.00
1.89453	58.00
1.91120	58.00
1.92787	58.00
1.94453	58.00
1.96120	58.00
1.97787	58.00
1.99453	58.00
2.01120	58.00
2.02787	58.00
2.04453	58.00
2.06120	58.00
2.07787	58.00
2.09453	58.00
2.11120	58.00
2.12787	58.00
2.14453	58.00
2.16120	58.00
2.17787	58.00
2.19453	58.00
2.21120	58.00
2.22787	58.00
2.24453	58.00
2.26120	58.00
2.27787	58.00
2.29453	58.00
2.31120	58.00
2.32787	58.00
2.34453	58.00
2.36120	58.00
2.37787	58.00
2.39453	57.99
2.41120	58.00
2.42787	58.00
2.44453	58.00
2.46120	58.00
2.47787	58.00
2.49453	58.00
2.51120	57.99
2.52787	57.99
2.54453	58.00
2.56120	58.00
2.57787	58.00
2.59453	58.00
2.61120	58.00
2.62787	58.00
2.64453	58.00
2.66120	58.00
2.67787	58.00
2.69453	58.00
2.71120	58.00
2.72787	58.00
2.74453	58.00
2.76120	58.00
2.77787	58.00
2.79453	58.00
2.81120	58.00
2.82787	58.00
2.84453	58.00
2.86120	58.00
2.87787	58.00
2.89453	58.00
2.91120	58.00
2.92787	58.00
2.94453	58.00
2.96120	58.00
2.97787	58.00
2.99453	58.00
3.01120	58.00
3.02787	58.00
3.04453	58.00
3.06120	58.00
3.07787	58.00
3.09453	58.00
3.11120	58.00
3.12787	58.00
3.14453	58.00
3.16120	58.00
3.17787	58.00
3.19453	58.00
3.21120	58.00
3.22787	58.00
3.24453	58.00
3.26120	58.00
3.27787	58.00
3.29453	58.00
3.31120	58.00
3.32787	58.00
3.34453	58.00
3.36120	58.00
3.37787	58.00
3.39453	58.00
3.41120	58.00
3.42787	58.00
3.44453	58.00
3.46120	58.00
3.47787	58.00
3.49453	58.00
3.51120	58.00
3.52787	58.00
3.54453	58.00
3.56120	58.00
3.57787	58.00
3.59453	58.00
3.61120	58.00
3.62787	58.00
3.64453	58.00
3.66120	58.00
3.67787	58.00
3.69453	58.00
3.71120	58.00
3.72787	58.00
3.74453	58.00
3.76120	58.00
3.77787	58.00
3.79453	58.00
3.81120	58.00
3.82787	58.00
3.84453	58.00
3.86120	58.00
3.87787	58.00
3.89453	58.00
3.91120	58.00
3.92787	58.00
3.94453	58.00
3.96120	58.00
3.97787	58.00
3.99453	58.00

[Status Trace (Carrier Gas Flow)]
Interval(msec)	1000
# of Points	240
Start Time(min)	0.011
End Time(min)	3.995
Intensity Units	
Intensity Multiplier	1
R.Time (min)	Intensity
0.01120	34.52
0.02787	34.54
0.04453	34.54
0.06120	34.54
0.07787	34.51
0.09453	34.52
0.11120	34.51
0.12787	34.51
0.14453	34.52
0.16120	34.52
0.17787	34.52
0.19453	34.52
0.21120	34.52
0.22787	34.52
0.24453	34.51
0.26120	34.52
0.27787	34.53
0.29453	34.52
0.31120	34.52
0.32787	34.52
0.34453	34.52
0.36120	34.52
0.37787	34.52
0.39453	34.52
0.41120	34.53
0.42787	34.52
0.44453	34.52
0.46120	34.52
0.47787	34.52
0.49453	34.52
0.51120	34.52
0.52787	34.52
0.54453	34.52
0.56120	34.52
0.57787	34.51
0.59453	34.52
0.61120	34.52
0.62787	34.52
0.64453	34.52
0.66120	34.51
0.67787	34.52
0.69453	34.52
0.71120	34.52
0.72787	34.52
0.74453	34.52
0.76120	34.52
0.77787	34.52
0.79453	34.52
0.81120	34.52
0.82787	34.52
0.84453	34.52
0.86120	34.51
0.87787	34.53
0.89453	34.52
0.91120	34.52
0.92787	34.52
0.94453	34.52
0.96120	34.51
0.97787	34.51
0.99453	34.52
1.01120	34.52
1.02787	34.52
1.04453	34.52
1.06120	34.51
1.07787	34.53
1.09453	34.52
1.11120	34.52
1.12787	34.52
1.14453	34.52
1.16120	34.52
1.17787	34.52
1.19453	34.51
1.21120	34.52
1.22787	34.52
1.24453	34.51
1.26120	34.51
1.27787	34.52
1.29453	34.52
1.31120	34.52
1.32787	34.52
1.34453	34.52
1.36120	34.52
1.37787	34.52
1.39453	34.51
1.41120	34.51
1.42787	34.52
1.44453	34.52
1.46120	34.52
1.47787	34.52
1.49453	34.52
1.51120	34.52
1.52787	34.52
1.54453	34.52
1.56120	34.52
1.57787	34.52
1.59453	34.52
1.61120	34.52
1.62787	34.51
1.64453	34.51
1.66120	34.52
1.67787	34.52
1.69453	34.53
1.71120	34.51
1.72787	34.52
1.74453	34.52
1.76120	34.52
1.77787	34.52
1.79453	34.52
1.81120	34.51
1.82787	34.52
1.84453	34.52
1.86120	34.52
1.87787	34.51
1.89453	34.53
1.91120	34.51
1.92787	34.51
1.94453	34.52
1.96120	34.53
1.97787	34.52
1.99453	34.51
2.01120	34.51
2.02787	34.52
2.04453	34.52
2.06120	34.51
2.07787	34.52
2.09453	34.51
2.11120	34.51
2.12787	34.52
2.14453	34.51
2.16120	34.52
2.17787	34.52
2.19453	34.52
2.21120	34.52
2.22787	34.52
2.24453	34.52
2.26120	34.52
2.27787	34.52
2.29453	34.52
2.31120	34.52
2.32787	34.51
2.34453	34.52
2.36120	34.52
2.37787	34.52
2.39453	34.52
2.41120	34.51
2.42787	34.52
2.44453	34.51
2.46120	34.52
2.47787	34.52
2.49453	34.52
2.51120	34.52
2.52787	34.52
2.54453	34.52
2.56120	34.51
2.57787	34.51
2.59453	34.52
2.61120	34.53
2.62787	34.52
2.64453	34.52
2.66120	34.52
2.67787	34.52
2.69453	34.52
2.71120	34.52
2.72787	34.52
2.74453	34.51
2.76120	34.52
2.77787	34.52
2.79453	34.51
2.81120	34.52
2.82787	34.52
2.84453	34.51
2.86120	34.52
2.87787	34.52
2.89453	34.52
2.91120	34.52
2.92787	34.52
2.94453	34.52
2.96120	34.51
2.97787	34.52
2.99453	34.52
3.01120	34.52
3.02787	34.52
3.04453	34.52
3.06120	34.52
3.07787	34.52
3.09453	34.52
3.11120	34.52
3.12787	34.52
3.14453	34.52
3.16120	34.52
3.17787	34.52
3.19453	34.52
3.21120	34.52
3.22787	34.52
3.24453	34.53
3.26120	34.52
3.27787	34.52
3.29453	34.52
3.31120	34.52
3.32787	34.52
3.34453	34.52
3.36120	34.52
3.37787	34.52
3.39453	34.52
3.41120	34.52
3.42787	34.52
3.44453	34.52
3.46120	34.52
3.47787	34.52
3.49453	34.52
3.51120	34.52
3.52787	34.51
3.54453	34.52
3.56120	34.52
3.57787	34.52
3.59453	34.52
3.61120	34.52
3.62787	34.51
3.64453	34.52
3.66120	34.52
3.67787	34.52
3.69453	34.52
3.71120	34.51
3.72787	34.52
3.74453	34.52
3.76120	34.51
3.77787	34.52
3.79453	34.52
3.81120	34.52
3.82787	34.52
3.84453	34.52
3.86120	34.52
3.87787	34.52
3.89453	34.52
3.91120	34.52
3.92787	34.52
3.94453	34.51
3.96120	34.52
3.97787	34.53
3.99453	34.55

[Status Trace (Column Flow)]
Interval(msec)	1000
# of Points	240
Start Time(min)	0.011
End Time(min)	3.995
Intensity Units	
Intensity Multiplier	1
R.Time (min)	Intensity
0.01120	5.55
0.02787	5.21
0.04453	5.50
0.06120	5.75
0.07787	5.68
0.09453	5.55
0.11120	5.55
0.12787	5.56
0.14453	5.56
0.16120	5.55
0.17787	5.55
0.19453	5.55
0.21120	5.55
0.22787	5.55
0.24453	5.55
0.26120	5.55
0.27787	5.55
0.29453	5.55
0.31120	5.55
0.32787	5.55
0.34453	5.55
0.36120	5.55
0.37787	5.55
0.39453	5.55
0.41120	5.55
0.42787	5.55
0.44453	5.55
0.46120	5.55
0.47787	5.55
0.49453	5.55
0.51120	5.55
0.52787	5.55
0.54453	5.55
0.56120	5.55
0.57787	5.55
0.59453	5.55
0.61120	5.55
0.62787	5.55
0.64453	5.55
0.66120	5.55
0.67787	5.55
0.69453	5.55
0.71120	5.55
0.72787	5.55
0.74453	5.55
0.76120	5.55
0.77787	5.55
0.79453	5.55
0.81120	5.55
0.82787	5.55
0.84453	5.55
0.86120	5.55
0.87787	5.55
0.89453	5.55
0.91120	5.55
0.92787	5.55
0.94453	5.55
0.96120	5.55
0.97787	5.55
0.99453	5.55
1.01120	5.55
1.02787	5.55
1.04453	5.55
1.06120	5.55
1.07787	5.55
1.09453	5.55
1.11120	5.55
1.12787	5.55
1.14453	5.55
1.16120	5.55
1.17787	5.55
1.19453	5.55
1.21120	5.55
1.22787	5.55
1.24453	5.55
1.26120	5.55
1.27787	5.55
1.29453	5.55
1.31120	5.55
1.32787	5.55
1.34453	5.55
1.36120	5.55
1.37787	5.55
1.39453	5.55
1.41120	5.55
1.42787	5.55
1.44453	5.55
1.46120	5.55
1.47787	5.55
1.49453	5.55
1.51120	5.55
1.52787	5.55
1.54453	5.55
1.56120	5.55
1.57787	5.55
1.59453	5.55
1.61120	5.55
1.62787	5.55
1.64453	5.54
1.66120	5.53
1.67787	5.52
1.69453	5.51
1.71120	5.50
1.72787	5.49
1.74453	5.48
1.76120	5.47
1.77787	5.46
1.79453	5.45
1.81120	5.44
1.82787	5.43
1.84453	5.42
1.86120	5.41
1.87787	5.40
1.89453	5.39
1.91120	5.38
1.92787	5.37
1.94453	5.36
1.96120	5.35
1.97787	5.34
1.99453	5.33
2.01120	5.32
2.02787	5.31
2.04453	5.30
2.06120	5.29
2.07787	5.28
2.09453	5.27
2.11120	5.26
2.12787	5.25
2.14453	5.24
2.16120	5.23
2.17787	5.22
2.19453	5.21
2.21120	5.20
2.22787	5.19
2.24453	5.19
2.26120	5.18
2.27787	5.17
2.29453	5.16
2.31120	5.15
2.32787	5.14
2.34453	5.13
2.36120	5.12
2.37787	5.12
2.39453	5.12
2.41120	5.12
2.42787	5.12
2.44453	5.12
2.46120	5.12
2.47787	5.12
2.49453	5.12
2.51120	5.11
2.52787	5.11
2.54453	5.11
2.56120	5.11
2.57787	5.11
2.59453	5.11
2.61120	5.11
2.62787	5.11
2.64453	5.11
2.66120	5.11
2.67787	5.11
2.69453	5.11
2.71120	5.11
2.72787	5.11
2.74453	5.11
2.76120	5.11
2.77787	5.11
2.79453	5.11
2.81120	5.11
2.82787	5.11
2.84453	5.11
2.86120	5.11
2.87787	5.11
2.89453	5.11
2.91120	5.11
2.92787	5.11
2.94453	5.11
2.96120	5.11
2.97787	5.11
2.99453	5.11
3.01120	5.11
3.02787	5.11
3.04453	5.11
3.06120	5.11
3.07787	5.11
3.09453	5.11
3.11120	5.11
3.12787	5.11
3.14453	5.11
3.16120	5.11
3.17787	5.11
3.19453	5.11
3.21120	5.11
3.22787	5.11
3.24453	5.11
3.26120	5.11
3.27787	5.10
3.29453	5.10
3.31120	5.11
3.32787	5.11
3.34453	5.11
3.36120	5.11
3.37787	5.11
3.39453	5.11
3.41120	5.11
3.42787	5.11
3.44453	5.11
3.46120	5.11
3.47787	5.11
3.49453	5.11
3.51120	5.11
3.52787	5.11
3.54453	5.11
3.56120	5.11
3.57787	5.11
3.59453	5.11
3.61120	5.11
3.62787	5.11
3.64453	5.11
3.66120	5.11
3.67787	5.11
3.69453	5.11
3.71120	5.11
3.72787	5.11
3.74453	5.11
3.76120	5.11
3.77787	5.11
3.79453	5.11
3.81120	5.11
3.82787	5.11
3.84453	5.11
3.86120	5.11
3.87787	5.11
3.89453	5.11
3.91120	5.11
3.92787	5.11
3.94453	5.11
3.96120	5.11
3.97787	5.11
3.99453	5.11

[Status Trace (Linear Velocity)]
Interval(msec)	1000
# of Points	240
Start Time(min)	0.011
End Time(min)	3.995
Intensity Units	
Intensity Multiplier	1
R.Time (min)	Intensity
0.01120	39.02
0.02787	37.08
0.04453	38.73
0.06120	40.10
0.07787	39.73
0.09453	39.03
0.11120	39.02
0.12787	39.03
0.14453	39.03
0.16120	39.03
0.17787	39.03
0.19453	39.03
0.21120	39.03
0.22787	39.03
0.24453	39.03
0.26120	39.03
0.27787	39.03
0.29453	39.03
0.31120	39.03
0.32787	39.03
0.34453	39.03
0.36120	39.02
0.37787	39.02
0.39453	39.02
0.41120	39.02
0.42787	39.02
0.44453	39.02
0.46120	39.02
0.47787	39.02
0.49453	39.02
0.51120	39.02
0.52787	39.02
0.54453	39.02
0.56120	39.03
0.57787	39.03
0.59453	39.03
0.61120	39.03
0.62787	39.03
0.64453	39.03
0.66120	39.03
0.67787	39.03
0.69453	39.03
0.71120	39.02
0.72787	39.02
0.74453	39.02
0.76120	39.02
0.77787	39.02
0.79453	39.02
0.81120	39.02
0.82787	39.02
0.84453	39.02
0.86120	39.02
0.87787	39.02
0.89453	39.02
0.91120	39.02
0.92787	39.02
0.94453	39.02
0.96120	39.02
0.97787	39.03
0.99453	39.03
1.01120	39.03
1.02787	39.02
1.04453	39.02
1.06120	39.02
1.07787	39.02
1.09453	39.02
1.11120	39.02
1.12787	39.02
1.14453	39.02
1.16120	39.02
1.17787	39.02
1.19453	39.02
1.21120	39.02
1.22787	39.03
1.24453	39.03
1.26120	39.03
1.27787	39.02
1.29453	39.02
1.31120	39.02
1.32787	39.02
1.34453	39.02
1.36120	39.02
1.37787	39.02
1.39453	39.03
1.41120	39.03
1.42787	39.03
1.44453	39.03
1.46120	39.03
1.47787	39.03
1.49453	39.03
1.51120	39.03
1.52787	39.02
1.54453	39.02
1.56120	39.02
1.57787	39.02
1.59453	39.02
1.61120	39.02
1.62787	39.00
1.64453	38.99
1.66120	38.96
1.67787	38.93
1.69453	38.89
1.71120	38.86
1.72787	38.83
1.74453	38.79
1.76120	38.76
1.77787	38.73
1.79453	38.70
1.81120	38.67
1.82787	38.64
1.84453	38.61
1.86120	38.57
1.87787	38.54
1.89453	38.52
1.91120	38.49
1.92787	38.45
1.94453	38.42
1.96120	38.39
1.97787	38.36
1.99453	38.33
2.01120	38.30
2.02787	38.27
2.04453	38.24
2.06120	38.21
2.07787	38.18
2.09453	38.15
2.11120	38.12
2.12787	38.09
2.14453	38.06
2.16120	38.03
2.17787	38.00
2.19453	37.97
2.21120	37.94
2.22787	37.91
2.24453	37.88
2.26120	37.85
2.27787	37.82
2.29453	37.80
2.31120	37.77
2.32787	37.74
2.34453	37.71
2.36120	37.68
2.37787	37.67
2.39453	37.66
2.41120	37.66
2.42787	37.66
2.44453	37.66
2.46120	37.66
2.47787	37.66
2.49453	37.66
2.51120	37.66
2.52787	37.65
2.54453	37.66
2.56120	37.66
2.57787	37.66
2.59453	37.65
2.61120	37.65
2.62787	37.65
2.64453	37.66
2.66120	37.65
2.67787	37.65
2.69453	37.65
2.71120	37.65
2.72787	37.65
2.74453	37.65
2.76120	37.65
2.77787	37.65
2.79453	37.65
2.81120	37.65
2.82787	37.65
2.84453	37.65
2.86120	37.65
2.87787	37.65
2.89453	37.65
2.91120	37.65
2.92787	37.65
2.94453	37.64
2.96120	37.64
2.97787	37.64
2.99453	37.64
3.01120	37.64
3.02787	37.64
3.04453	37.64
3.06120	37.64
3.07787	37.64
3.09453	37.63
3.11120	37.63
3.12787	37.63
3.14453	37.63
3.16120	37.63
3.17787	37.63
3.19453	37.63
3.21120	37.63
3.22787	37.63
3.24453	37.63
3.26120	37.63
3.27787	37.63
3.29453	37.63
3.31120	37.63
3.32787	37.63
3.34453	37.63
3.36120	37.63
3.37787	37.63
3.39453	37.63
3.41120	37.63
3.42787	37.64
3.44453	37.63
3.46120	37.64
3.47787	37.64
3.49453	37.64
3.51120	37.64
3.52787	37.64
3.54453	37.63
3.56120	37.64
3.57787	37.63
3.59453	37.63
3.61120	37.63
3.62787	37.63
3.64453	37.63
3.66120	37.63
3.67787	37.63
3.69453	37.63
3.71120	37.63
3.72787	37.63
3.74453	37.63
3.76120	37.63
3.77787	37.63
3.79453	37.63
3.81120	37.63
3.82787	37.63
3.84453	37.63
3.86120	37.63
3.87787	37.63
3.89453	37.63
3.91120	37.63
3.92787	37.64
3.94453	37.63
3.96120	37.63
3.97787	37.63
3.99453	37.63

