[Header]
Application Name	LabSolutions
Version	5.110
Data File Name	C:\Users\User\Desktop\GC Analyses\Jack\Nachusa Grasslands Sampling\T4 Timepoint July 12th\T4_07122022_030.gcd
Output Date	3/17/2023
Output Time	12:04:52 PM

[File Information]
Type	Data File
Generated	3/14/2023 6:40:21 PM
Generated by	System Administrator
Modified	3/14/2023 6:47:14 PM
Modified by	System Administrator

[Sample Information]
Operator Name	System Administrator
Acquired	3/14/2023 6:43:12 PM
Sample Type	0:Unknown
Level	0
Sample Name	030
Sample ID	030
ISTD Amount1	1
ISTD Amount2	1
ISTD Amount3	1
ISTD Amount4	1
ISTD Amount5	1
ISTD Amount6	1
ISTD Amount7	1
ISTD Amount8	1
ISTD Amount9	1
ISTD Amount10	1
ISTD Amount11	1
ISTD Amount12	1
ISTD Amount13	1
ISTD Amount14	1
ISTD Amount15	1
ISTD Amount16	1
ISTD Amount17	1
ISTD Amount18	1
ISTD Amount19	1
ISTD Amount20	1
ISTD Amount21	1
ISTD Amount22	1
ISTD Amount23	1
ISTD Amount24	1
ISTD Amount25	1
ISTD Amount26	1
ISTD Amount27	1
ISTD Amount28	1
ISTD Amount29	1
ISTD Amount30	1
ISTD Amount31	1
ISTD Amount32	1
Sample Amount	1
Dilution Factor	1
Vial#	29
Injection Volume	1
Injection Count	1
Bar Code	

[Original Files]
Data File	C:\Users\User\Desktop\GC Analyses\Jack\Nachusa Grasslands Sampling\T4 Timepoint July 12th\T4_07122022_030.gcd
Method File	C:\LabSolutions\Data\GHG_4min_2022\ghg3_togas_w_acet_4 min_new_int.gcm
Batch File	C:\LabSolutions\Data\AutoSamplerTesting\T4_07122022.gcb
Report Format File	c:\LabSolutions\System\DEFAULT.lsr

[File Description]


[Configuration]
Instrument Name	C0B7VH3-Instrument1
Instrument #	1
Line #	1
# of Detectors	3
Detector ID	DET#1	DET#2	DET#3
Detector Name	FID	PTCD	ECD
# of Channels	1	1	1

[Peak Table(Ch1)]
# of Peaks	3
Peak#	R.Time	I.Time	F.Time	Area	Height	A/H	Conc.	Mark	ID#	Name	k'	Plate #	Plate Ht.	Tailing	Resolution	Sep.Factor	Area Ratio	Height Ratio	Conc. %	Norm Conc.
1	1.476	1.424	1.534	23702	11654	2.034	167.340	   	1	CO	0.000	9614	15.602	1.257	0.000	0.000	0	0	18.863	18.863
2	1.571	1.538	1.626	4187	2160	1.939	80.963	   	2	CH4	0.065	11813	12.698	1.109	1.616	0.000	0	0	9.126	9.126
3	1.996	1.952	2.418	2545450	1220867	2.085	638.839	   	3	CO2	0.353	17469	8.587	1.338	7.195	5.462	0	0	72.011	72.011

[Peak Table(Ch2)]
# of Peaks	0

[Peak Table(Ch3)]
# of Peaks	5
Peak#	R.Time	I.Time	F.Time	Area	Height	A/H	Conc.	Mark	ID#	Name	k'	Plate #	Plate Ht.	Tailing	Resolution	Sep.Factor	Area Ratio	Height Ratio	Conc. %	Norm Conc.
1	2.462	2.323	2.510	2100	647	3.246	0.000	   			0.000	9809	15.292	0.000	0.000	0.000	0	0	0.000	0.000
2	2.528	2.510	2.583	1115	366	3.049	0.000	 V 			0.027	5830	25.728	0.000	0.569	0.000	0	0	0.000	0.000
3	2.598	2.583	2.682	590	161	3.668	0.000	 V 			0.055	1970	76.139	0.000	0.380	2.056	0	0	0.000	0.000
4	2.880	2.799	3.038	20156	5377	3.748	0.515	   	1	N2O	0.170	13347	11.239	1.499	1.692	3.081	0	0	100.000	100.000
5	3.445	3.232	3.511	588	53	11.155	0.000	   	2	SF6	0.399	605	248.112	0.656	1.711	2.351	0	0	0.000	0.000

[Compound Results(Ch1)]
# of IDs	6
ID#	Name	R.Time	Area	Height	Conc.	Curve	3rd	2nd	1st	Constant	Area Ratio	Height Ratio	Conc. %	Norm Conc.
1	CO	1.476	23702	11654	167.340	Linear	0.000000e+00	0.000000e+00	1.416423e+002	0.000000e+00	0	0	18.863	18.863
2	CH4	1.571	4187	2160	80.963	Linear	0.000000e+00	0.000000e+00	5.171738e+001	0.000000e+00	0	0	9.126	9.126
3	CO2	1.996	2545450	1220867	638.839	Linear	0.000000e+00	0.000000e+00	3.984494e+003	0.000000e+00	0	0	72.011	72.011
4	Ethylene	0.000	0	0	0.000	Linear	0.000000e+00	0.000000e+00	0.000000e+00	0.000000e+00	0	0	0.000	0.000
5	Acetylene	0.000	0	0	0.000	Linear	0.000000e+00	0.000000e+00	0.000000e+00	0.000000e+00	0	0	0.000	0.000
6	Ethane	0.000	0	0	0.000	Linear	0.000000e+00	0.000000e+00	0.000000e+00	0.000000e+00	0	0	0.000	0.000

[Compound Results(Ch2)]
# of IDs	5
ID#	Name	R.Time	Area	Height	Conc.	Curve	3rd	2nd	1st	Constant	Area Ratio	Height Ratio	Conc. %	Norm Conc.
1	Hydrogen	0.000	0	0	0.000	Linear	0.000000e+00	0.000000e+00	0.000000e+00	0.000000e+00	0	0	0.000	0.000
2	Oxygen	0.000	0	0	0.000	Linear	0.000000e+00	0.000000e+00	0.000000e+00	0.000000e+00	0	0	0.000	0.000
3	Nitrogen	0.000	0	0	0.000	Linear	0.000000e+00	0.000000e+00	0.000000e+00	0.000000e+00	0	0	0.000	0.000
4	Methane	0.000	0	0	0.000	Linear	0.000000e+00	0.000000e+00	0.000000e+00	0.000000e+00	0	0	0.000	0.000
5	Carbon Monoxide	0.000	0	0	0.000	Linear	0.000000e+00	0.000000e+00	0.000000e+00	0.000000e+00	0	0	0.000	0.000

[Compound Results(Ch3)]
# of IDs	2
ID#	Name	R.Time	Area	Height	Conc.	Curve	3rd	2nd	1st	Constant	Area Ratio	Height Ratio	Conc. %	Norm Conc.
1	N2O	2.880	20156	5377	0.515	Linear	0.000000e+00	0.000000e+00	3.915173e+004	0.000000e+00	0	0	100.000	100.000
2	SF6	3.445	588	53	0.000	Linear	0.000000e+00	0.000000e+00	0.000000e+00	0.000000e+00	0	0	0.000	0.000

[Group Results(Ch1)]
# of Groups	0

[Group Results(Ch2)]
# of Groups	0

[Group Results(Ch3)]
# of Groups	0

[Chromatogram (Ch1)]
Interval(msec)	220
# of Points	1091
Start Time(min)	0.002
End Time(min)	3.998
R.Time (min)	Intensity
0.00167	-2
0.00533	-4
0.00900	-11
0.01267	-16
0.01633	-14
0.02000	-9
0.02367	-8
0.02733	-9
0.03100	-10
0.03467	-14
0.03833	-19
0.04200	-21
0.04567	-20
0.04933	-16
0.05300	-6
0.05667	6
0.06033	11
0.06400	11
0.06767	9
0.07133	6
0.07500	7
0.07867	11
0.08233	11
0.08600	8
0.08967	4
0.09333	4
0.09700	-2
0.10067	-11
0.10433	-17
0.10800	-18
0.11167	-17
0.11533	-14
0.11900	-12
0.12267	-8
0.12633	-4
0.13000	1
0.13367	7
0.13733	9
0.14100	13
0.14467	18
0.14833	20
0.15200	11
0.15567	1
0.15933	-8
0.16300	-16
0.16667	-18
0.17033	-16
0.17400	-12
0.17767	-9
0.18133	-4
0.18500	2
0.18867	9
0.19233	13
0.19600	12
0.19967	7
0.20333	1
0.20700	-7
0.21067	-8
0.21433	-3
0.21800	4
0.22167	12
0.22533	12
0.22900	5
0.23267	1
0.23633	4
0.24000	9
0.24367	10
0.24733	7
0.25100	5
0.25467	1
0.25833	-2
0.26200	-3
0.26567	-1
0.26933	-1
0.27300	-1
0.27667	-3
0.28033	-4
0.28400	-4
0.28767	-1
0.29133	2
0.29500	5
0.29867	5
0.30233	6
0.30600	11
0.30967	7
0.31333	-2
0.31700	-10
0.32067	-8
0.32433	-3
0.32800	-2
0.33167	-4
0.33533	-4
0.33900	7
0.34267	20
0.34633	24
0.35000	21
0.35367	15
0.35733	13
0.36100	16
0.36467	15
0.36833	14
0.37200	13
0.37567	10
0.37933	3
0.38300	-1
0.38667	-7
0.39033	-12
0.39400	-11
0.39767	-1
0.40133	6
0.40500	7
0.40867	7
0.41233	7
0.41600	2
0.41967	-3
0.42333	-4
0.42700	-6
0.43067	-9
0.43433	-7
0.43800	-0
0.44167	-0
0.44533	-7
0.44900	-11
0.45267	-15
0.45633	-14
0.46000	-11
0.46367	-4
0.46733	2
0.47100	9
0.47467	13
0.47833	16
0.48200	27
0.48567	38
0.48933	40
0.49300	36
0.49667	26
0.50033	9
0.50400	-6
0.50767	-17
0.51133	-23
0.51500	-23
0.51867	-20
0.52233	-15
0.52600	-10
0.52967	-11
0.53333	-12
0.53700	-17
0.54067	-23
0.54433	-28
0.54800	-30
0.55167	-26
0.55533	-20
0.55900	-12
0.56267	-6
0.56633	1
0.57000	12
0.57367	20
0.57733	23
0.58100	22
0.58467	19
0.58833	14
0.59200	12
0.59567	12
0.59933	3
0.60300	-10
0.60667	-10
0.61033	-11
0.61400	-17
0.61767	-25
0.62133	-32
0.62500	-34
0.62867	-29
0.63233	-20
0.63600	-13
0.63967	-12
0.64333	-12
0.64700	-12
0.65067	-8
0.65433	-7
0.65800	-8
0.66167	-2
0.66533	5
0.66900	5
0.67267	-2
0.67633	-12
0.68000	-19
0.68367	-21
0.68733	-20
0.69100	-15
0.69467	-13
0.69833	-12
0.70200	-11
0.70567	-13
0.70933	-17
0.71300	-20
0.71667	-19
0.72033	-16
0.72400	-14
0.72767	-12
0.73133	-16
0.73500	-19
0.73867	-22
0.74233	-25
0.74600	-28
0.74967	-26
0.75333	-22
0.75700	-15
0.76067	-4
0.76433	3
0.76800	3
0.77167	-4
0.77533	-14
0.77900	-22
0.78267	-24
0.78633	-27
0.79000	-32
0.79367	-35
0.79733	-32
0.80100	-32
0.80467	-32
0.80833	-30
0.81200	-21
0.81567	-16
0.81933	-14
0.82300	-16
0.82667	-18
0.83033	-19
0.83400	-22
0.83767	-27
0.84133	-32
0.84500	-35
0.84867	-33
0.85233	-34
0.85600	-38
0.85967	-40
0.86333	-38
0.86700	-35
0.87067	-31
0.87433	-28
0.87800	-28
0.88167	-31
0.88533	-35
0.88900	-40
0.89267	-44
0.89633	-46
0.90000	-44
0.90367	-42
0.90733	-38
0.91100	-39
0.91467	-43
0.91833	-47
0.92200	-49
0.92567	-47
0.92933	-40
0.93300	-29
0.93667	-20
0.94033	-14
0.94400	-13
0.94767	-17
0.95133	-20
0.95500	-18
0.95867	-14
0.96233	-6
0.96600	-3
0.96967	-3
0.97333	-5
0.97700	-7
0.98067	-6
0.98433	0
0.98800	10
0.99167	11
0.99533	8
0.99900	1
1.00267	-9
1.00633	-17
1.01000	-23
1.01367	-24
1.01733	-28
1.02100	-32
1.02467	-32
1.02833	-29
1.03200	-26
1.03567	-21
1.03933	-18
1.04300	-18
1.04667	-14
1.05033	-7
1.05400	-4
1.05767	-5
1.06133	-6
1.06500	-5
1.06867	-5
1.07233	-7
1.07600	-12
1.07967	-23
1.08333	-33
1.08700	-39
1.09067	-45
1.09433	-45
1.09800	-40
1.10167	-34
1.10533	-27
1.10900	-21
1.11267	-18
1.11633	-14
1.12000	-15
1.12367	-24
1.12733	-28
1.13100	-29
1.13467	-31
1.13833	-32
1.14200	-34
1.14567	-32
1.14933	-27
1.15300	-26
1.15667	-27
1.16033	-29
1.16400	-25
1.16767	-18
1.17133	-12
1.17500	-10
1.17867	-14
1.18233	-18
1.18600	-22
1.18967	-23
1.19333	-25
1.19700	-25
1.20067	-23
1.20433	-18
1.20800	-17
1.21167	-21
1.21533	-26
1.21900	-25
1.22267	-22
1.22633	-19
1.23000	-20
1.23367	-25
1.23733	-33
1.24100	-44
1.24467	-56
1.24833	-60
1.25200	-58
1.25567	-54
1.25933	-54
1.26300	-52
1.26667	-45
1.27033	-37
1.27400	-33
1.27767	-31
1.28133	-27
1.28500	-25
1.28867	-30
1.29233	-39
1.29600	-47
1.29967	-50
1.30333	-52
1.30700	-49
1.31067	-51
1.31433	-51
1.31800	-48
1.32167	-43
1.32533	-40
1.32900	-37
1.33267	-36
1.33633	-31
1.34000	-25
1.34367	-21
1.34733	-18
1.35100	-18
1.35467	-23
1.35833	-33
1.36200	-40
1.36567	-45
1.36933	-49
1.37300	-53
1.37667	-56
1.38033	-56
1.38400	-53
1.38767	-50
1.39133	-47
1.39500	-49
1.39867	-55
1.40233	-58
1.40600	-58
1.40967	-57
1.41333	-62
1.41700	-61
1.42067	-56
1.42433	-54
1.42800	-50
1.43167	-44
1.43533	-36
1.43900	-19
1.44267	32
1.44633	176
1.45000	560
1.45367	1523
1.45733	3287
1.46100	5556
1.46467	7797
1.46833	9650
1.47200	10941
1.47567	11584
1.47933	11462
1.48300	10553
1.48667	9032
1.49033	7218
1.49400	5436
1.49767	3903
1.50133	2695
1.50500	1797
1.50867	1159
1.51233	721
1.51600	429
1.51967	236
1.52333	108
1.52700	19
1.53067	-45
1.53433	-88
1.53800	-103
1.54167	-60
1.54533	92
1.54900	387
1.55267	792
1.55633	1218
1.56000	1592
1.56367	1873
1.56733	2038
1.57100	2056
1.57467	1908
1.57833	1620
1.58200	1263
1.58567	916
1.58933	619
1.59300	385
1.59667	215
1.60033	95
1.60400	16
1.60767	-37
1.61133	-67
1.61500	-83
1.61867	-91
1.62233	-99
1.62600	-104
1.62967	-107
1.63333	-107
1.63700	-101
1.64067	-94
1.64433	-93
1.64800	-99
1.65167	-104
1.65533	-104
1.65900	-104
1.66267	-106
1.66633	-108
1.67000	-112
1.67367	-113
1.67733	-110
1.68100	-113
1.68467	-113
1.68833	-112
1.69200	-112
1.69567	-112
1.69933	-112
1.70300	-110
1.70667	-108
1.71033	-107
1.71400	-107
1.71767	-109
1.72133	-109
1.72500	-109
1.72867	-105
1.73233	-97
1.73600	-93
1.73967	-90
1.74333	-88
1.74700	-83
1.75067	-78
1.75433	-69
1.75800	-66
1.76167	-73
1.76533	-83
1.76900	-93
1.77267	-104
1.77633	-111
1.78000	-112
1.78367	-109
1.78733	-106
1.79100	-102
1.79467	-95
1.79833	-91
1.80200	-87
1.80567	-86
1.80933	-87
1.81300	-90
1.81667	-95
1.82033	-106
1.82400	-109
1.82767	-103
1.83133	-99
1.83500	-99
1.83867	-99
1.84233	-94
1.84600	-91
1.84967	-97
1.85333	-102
1.85700	-99
1.86067	-92
1.86433	-87
1.86800	-82
1.87167	-78
1.87533	-74
1.87900	-70
1.88267	-68
1.88633	-72
1.89000	-82
1.89367	-89
1.89733	-92
1.90100	-94
1.90467	-93
1.90833	-89
1.91200	-84
1.91567	-83
1.91933	-82
1.92300	-82
1.92667	-81
1.93033	-75
1.93400	-65
1.93767	-53
1.94133	-44
1.94500	-42
1.94867	-45
1.95233	-39
1.95600	70
1.95967	810
1.96333	4538
1.96700	18657
1.97067	59499
1.97433	150544
1.97800	307860
1.98167	522672
1.98533	760438
1.98900	977537
1.99267	1138517
1.99633	1220848
2.00000	1215551
2.00367	1129071
2.00733	982045
2.01100	803879
2.01467	623915
2.01833	463493
2.02200	333038
2.02567	233890
2.02933	162095
2.03300	111814
2.03667	77368
2.04033	54074
2.04400	38406
2.04767	27857
2.05133	20709
2.05500	15809
2.05867	12392
2.06233	9963
2.06600	8197
2.06967	6883
2.07333	5886
2.07700	5112
2.08067	4495
2.08433	3992
2.08800	3577
2.09167	3228
2.09533	2933
2.09900	2685
2.10267	2468
2.10633	2279
2.11000	2115
2.11367	1975
2.11733	1854
2.12100	1741
2.12467	1636
2.12833	1541
2.13200	1454
2.13567	1376
2.13933	1302
2.14300	1238
2.14667	1179
2.15033	1125
2.15400	1072
2.15767	1018
2.16133	972
2.16500	934
2.16867	901
2.17233	870
2.17600	839
2.17967	808
2.18333	784
2.18700	758
2.19067	731
2.19433	699
2.19800	669
2.20167	643
2.20533	616
2.20900	589
2.21267	569
2.21633	558
2.22000	548
2.22367	537
2.22733	529
2.23100	519
2.23467	510
2.23833	498
2.24200	483
2.24567	474
2.24933	460
2.25300	440
2.25667	418
2.26033	396
2.26400	382
2.26767	372
2.27133	361
2.27500	350
2.27867	341
2.28233	333
2.28600	329
2.28967	325
2.29333	317
2.29700	310
2.30067	305
2.30433	297
2.30800	291
2.31167	292
2.31533	292
2.31900	284
2.32267	273
2.32633	264
2.33000	261
2.33367	255
2.33733	251
2.34100	254
2.34467	257
2.34833	254
2.35200	245
2.35567	233
2.35933	220
2.36300	210
2.36667	205
2.37033	208
2.37400	210
2.37767	211
2.38133	215
2.38500	218
2.38867	217
2.39233	216
2.39600	212
2.39967	203
2.40333	193
2.40700	185
2.41067	181
2.41433	175
2.41800	170
2.42167	167
2.42533	164
2.42900	166
2.43267	167
2.43633	165
2.44000	167
2.44367	174
2.44733	179
2.45100	179
2.45467	173
2.45833	168
2.46200	164
2.46567	157
2.46933	149
2.47300	145
2.47667	145
2.48033	148
2.48400	147
2.48767	142
2.49133	140
2.49500	141
2.49867	141
2.50233	140
2.50600	142
2.50967	144
2.51333	145
2.51700	140
2.52067	134
2.52433	131
2.52800	132
2.53167	135
2.53533	137
2.53900	139
2.54267	145
2.54633	150
2.55000	149
2.55367	140
2.55733	128
2.56100	113
2.56467	103
2.56833	98
2.57200	93
2.57567	90
2.57933	85
2.58300	82
2.58667	83
2.59033	87
2.59400	98
2.59767	100
2.60133	93
2.60500	86
2.60867	80
2.61233	74
2.61600	70
2.61967	64
2.62333	64
2.62700	67
2.63067	69
2.63433	73
2.63800	77
2.64167	74
2.64533	77
2.64900	86
2.65267	85
2.65633	79
2.66000	72
2.66367	70
2.66733	68
2.67100	65
2.67467	65
2.67833	70
2.68200	74
2.68567	73
2.68933	72
2.69300	76
2.69667	80
2.70033	89
2.70400	97
2.70767	95
2.71133	89
2.71500	83
2.71867	81
2.72233	85
2.72600	89
2.72967	89
2.73333	89
2.73700	88
2.74067	82
2.74433	77
2.74800	72
2.75167	69
2.75533	73
2.75900	82
2.76267	91
2.76633	93
2.77000	90
2.77367	84
2.77733	76
2.78100	66
2.78467	65
2.78833	72
2.79200	81
2.79567	85
2.79933	83
2.80300	75
2.80667	67
2.81033	59
2.81400	51
2.81767	41
2.82133	35
2.82500	35
2.82867	42
2.83233	46
2.83600	49
2.83967	56
2.84333	64
2.84700	73
2.85067	79
2.85433	77
2.85800	79
2.86167	75
2.86533	74
2.86900	72
2.87267	72
2.87633	78
2.88000	81
2.88367	77
2.88733	67
2.89100	60
2.89467	53
2.89833	42
2.90200	37
2.90567	38
2.90933	41
2.91300	43
2.91667	51
2.92033	61
2.92400	65
2.92767	65
2.93133	62
2.93500	53
2.93867	42
2.94233	37
2.94600	40
2.94967	49
2.95333	60
2.95700	62
2.96067	57
2.96433	53
2.96800	51
2.97167	50
2.97533	53
2.97900	62
2.98267	67
2.98633	69
2.99000	73
2.99367	75
2.99733	73
3.00100	74
3.00467	81
3.00833	84
3.01200	76
3.01567	70
3.01933	66
3.02300	68
3.02667	70
3.03033	65
3.03400	65
3.03767	65
3.04133	62
3.04500	63
3.04867	62
3.05233	61
3.05600	62
3.05967	67
3.06333	70
3.06700	71
3.07067	71
3.07433	75
3.07800	72
3.08167	65
3.08533	59
3.08900	51
3.09267	42
3.09633	36
3.10000	35
3.10367	42
3.10733	54
3.11100	61
3.11467	56
3.11833	51
3.12200	48
3.12567	44
3.12933	40
3.13300	46
3.13667	53
3.14033	54
3.14400	57
3.14767	61
3.15133	61
3.15500	54
3.15867	47
3.16233	44
3.16600	41
3.16967	38
3.17333	40
3.17700	41
3.18067	38
3.18433	36
3.18800	41
3.19167	49
3.19533	57
3.19900	63
3.20267	60
3.20633	52
3.21000	46
3.21367	44
3.21733	46
3.22100	49
3.22467	45
3.22833	40
3.23200	46
3.23567	50
3.23933	49
3.24300	51
3.24667	49
3.25033	48
3.25400	47
3.25767	42
3.26133	40
3.26500	34
3.26867	26
3.27233	22
3.27600	19
3.27967	13
3.28333	12
3.28700	18
3.29067	26
3.29433	31
3.29800	35
3.30167	42
3.30533	45
3.30900	40
3.31267	35
3.31633	31
3.32000	32
3.32367	40
3.32733	51
3.33100	61
3.33467	63
3.33833	59
3.34200	46
3.34567	38
3.34933	41
3.35300	48
3.35667	54
3.36033	52
3.36400	42
3.36767	29
3.37133	23
3.37500	21
3.37867	20
3.38233	22
3.38600	23
3.38967	26
3.39333	28
3.39700	21
3.40067	16
3.40433	24
3.40800	30
3.41167	36
3.41533	41
3.41900	46
3.42267	45
3.42633	41
3.43000	38
3.43367	39
3.43733	36
3.44100	26
3.44467	15
3.44833	15
3.45200	21
3.45567	21
3.45933	17
3.46300	17
3.46667	22
3.47033	27
3.47400	29
3.47767	24
3.48133	14
3.48500	6
3.48867	0
3.49233	-3
3.49600	1
3.49967	9
3.50333	16
3.50700	17
3.51067	15
3.51433	10
3.51800	3
3.52167	6
3.52533	17
3.52900	32
3.53267	40
3.53633	36
3.54000	24
3.54367	17
3.54733	13
3.55100	11
3.55467	13
3.55833	19
3.56200	21
3.56567	23
3.56933	19
3.57300	12
3.57667	7
3.58033	7
3.58400	9
3.58767	10
3.59133	8
3.59500	4
3.59867	2
3.60233	6
3.60600	12
3.60967	18
3.61333	23
3.61700	26
3.62067	24
3.62433	17
3.62800	11
3.63167	6
3.63533	3
3.63900	1
3.64267	-1
3.64633	-6
3.65000	-12
3.65367	-8
3.65733	-5
3.66100	-5
3.66467	-8
3.66833	-13
3.67200	-14
3.67567	-14
3.67933	-12
3.68300	-9
3.68667	-5
3.69033	3
3.69400	10
3.69767	10
3.70133	13
3.70500	20
3.70867	23
3.71233	24
3.71600	24
3.71967	18
3.72333	12
3.72700	8
3.73067	5
3.73433	-4
3.73800	-11
3.74167	-12
3.74533	-10
3.74900	-5
3.75267	-5
3.75633	-9
3.76000	-10
3.76367	-2
3.76733	11
3.77100	21
3.77467	23
3.77833	17
3.78200	9
3.78567	3
3.78933	-1
3.79300	-4
3.79667	-9
3.80033	-12
3.80400	-14
3.80767	-13
3.81133	-9
3.81500	2
3.81867	9
3.82233	5
3.82600	-6
3.82967	-15
3.83333	-32
3.83700	-46
3.84067	-52
3.84433	-48
3.84800	-34
3.85167	-14
3.85533	2
3.85900	5
3.86267	-1
3.86633	-1
3.87000	-1
3.87367	-5
3.87733	-11
3.88100	-18
3.88467	-24
3.88833	-23
3.89200	-15
3.89567	-8
3.89933	-6
3.90300	-8
3.90667	-18
3.91033	-28
3.91400	-37
3.91767	-48
3.92133	-53
3.92500	-53
3.92867	-52
3.93233	-47
3.93600	-43
3.93967	-37
3.94333	-34
3.94700	-28
3.95067	-27
3.95433	-31
3.95800	-37
3.96167	-38
3.96533	-27
3.96900	-19
3.97267	-17
3.97633	-16
3.98000	-20
3.98367	-23
3.98733	-23
3.99100	-25
3.99467	-29
3.99833	-33

[Chromatogram (Ch2)]
Interval(msec)	220
# of Points	1091
Start Time(min)	0.002
End Time(min)	3.998
R.Time (min)	Intensity
0.00167	0
0.00533	0
0.00900	0
0.01267	0
0.01633	0
0.02000	-0
0.02367	-0
0.02733	-1
0.03100	-1
0.03467	-1
0.03833	-2
0.04200	-2
0.04567	-2
0.04933	-2
0.05300	-2
0.05667	-2
0.06033	-2
0.06400	-2
0.06767	-2
0.07133	-2
0.07500	-3
0.07867	-3
0.08233	-3
0.08600	-3
0.08967	-2
0.09333	-2
0.09700	-1
0.10067	-1
0.10433	-0
0.10800	-0
0.11167	0
0.11533	0
0.11900	1
0.12267	1
0.12633	1
0.13000	1
0.13367	1
0.13733	1
0.14100	1
0.14467	1
0.14833	1
0.15200	1
0.15567	1
0.15933	0
0.16300	0
0.16667	-0
0.17033	-1
0.17400	-1
0.17767	-1
0.18133	-2
0.18500	-2
0.18867	-2
0.19233	-2
0.19600	-2
0.19967	-2
0.20333	-2
0.20700	-2
0.21067	-1
0.21433	-1
0.21800	-1
0.22167	-1
0.22533	-1
0.22900	-1
0.23267	-0
0.23633	-0
0.24000	0
0.24367	0
0.24733	0
0.25100	0
0.25467	0
0.25833	0
0.26200	0
0.26567	-0
0.26933	-0
0.27300	-0
0.27667	-1
0.28033	-1
0.28400	-1
0.28767	-0
0.29133	-0
0.29500	-1
0.29867	-1
0.30233	-1
0.30600	-1
0.30967	-1
0.31333	-1
0.31700	-1
0.32067	-1
0.32433	-1
0.32800	-1
0.33167	-2
0.33533	-2
0.33900	-2
0.34267	-2
0.34633	-2
0.35000	-2
0.35367	-2
0.35733	-2
0.36100	-2
0.36467	-2
0.36833	-2
0.37200	-2
0.37567	-2
0.37933	-2
0.38300	-2
0.38667	-2
0.39033	-2
0.39400	-1
0.39767	-1
0.40133	-1
0.40500	-1
0.40867	-1
0.41233	-1
0.41600	-1
0.41967	-1
0.42333	-0
0.42700	-0
0.43067	0
0.43433	0
0.43800	1
0.44167	1
0.44533	1
0.44900	1
0.45267	1
0.45633	2
0.46000	2
0.46367	2
0.46733	2
0.47100	2
0.47467	2
0.47833	2
0.48200	2
0.48567	2
0.48933	2
0.49300	2
0.49667	2
0.50033	2
0.50400	2
0.50767	2
0.51133	2
0.51500	1
0.51867	1
0.52233	0
0.52600	0
0.52967	0
0.53333	-0
0.53700	-0
0.54067	-1
0.54433	-1
0.54800	-2
0.55167	-2
0.55533	-2
0.55900	-2
0.56267	-2
0.56633	-2
0.57000	-2
0.57367	-2
0.57733	-2
0.58100	-2
0.58467	-2
0.58833	-2
0.59200	-2
0.59567	-2
0.59933	-2
0.60300	-2
0.60667	-2
0.61033	-2
0.61400	-1
0.61767	-1
0.62133	-1
0.62500	-1
0.62867	-1
0.63233	-1
0.63600	-1
0.63967	-0
0.64333	-0
0.64700	-0
0.65067	-1
0.65433	-1
0.65800	-2
0.66167	-3
0.66533	-3
0.66900	-3
0.67267	-3
0.67633	-3
0.68000	-3
0.68367	-3
0.68733	-4
0.69100	-4
0.69467	-4
0.69833	-4
0.70200	-4
0.70567	-5
0.70933	-4
0.71300	-4
0.71667	-4
0.72033	-3
0.72400	-3
0.72767	-3
0.73133	-2
0.73500	-2
0.73867	-2
0.74233	-1
0.74600	-1
0.74967	-0
0.75333	-0
0.75700	0
0.76067	0
0.76433	0
0.76800	-0
0.77167	-0
0.77533	-0
0.77900	-1
0.78267	-1
0.78633	-1
0.79000	-0
0.79367	-0
0.79733	0
0.80100	0
0.80467	0
0.80833	1
0.81200	1
0.81567	1
0.81933	1
0.82300	1
0.82667	2
0.83033	2
0.83400	1
0.83767	1
0.84133	1
0.84500	0
0.84867	0
0.85233	-1
0.85600	-1
0.85967	-1
0.86333	-2
0.86700	-2
0.87067	-2
0.87433	-3
0.87800	-3
0.88167	-3
0.88533	-4
0.88900	-4
0.89267	-4
0.89633	-5
0.90000	-5
0.90367	-5
0.90733	-5
0.91100	-5
0.91467	-5
0.91833	-5
0.92200	-5
0.92567	-5
0.92933	-4
0.93300	-4
0.93667	-4
0.94033	-4
0.94400	-4
0.94767	-4
0.95133	-4
0.95500	-4
0.95867	-4
0.96233	-4
0.96600	-4
0.96967	-4
0.97333	-4
0.97700	-4
0.98067	-3
0.98433	-3
0.98800	-3
0.99167	-3
0.99533	-3
0.99900	-3
1.00267	-3
1.00633	-4
1.01000	-4
1.01367	-4
1.01733	-4
1.02100	-4
1.02467	-4
1.02833	-4
1.03200	-4
1.03567	-4
1.03933	-3
1.04300	-3
1.04667	-3
1.05033	-3
1.05400	-3
1.05767	-2
1.06133	-2
1.06500	-2
1.06867	-2
1.07233	-2
1.07600	-1
1.07967	-1
1.08333	-1
1.08700	-1
1.09067	-0
1.09433	-0
1.09800	-0
1.10167	0
1.10533	1
1.10900	1
1.11267	2
1.11633	2
1.12000	2
1.12367	2
1.12733	2
1.13100	2
1.13467	2
1.13833	1
1.14200	1
1.14567	1
1.14933	1
1.15300	0
1.15667	-0
1.16033	-1
1.16400	-1
1.16767	-2
1.17133	-3
1.17500	-3
1.17867	-4
1.18233	-4
1.18600	-5
1.18967	-5
1.19333	-6
1.19700	-6
1.20067	-6
1.20433	-6
1.20800	-6
1.21167	-6
1.21533	-6
1.21900	-6
1.22267	-5
1.22633	-5
1.23000	-5
1.23367	-4
1.23733	-4
1.24100	-4
1.24467	-3
1.24833	-3
1.25200	-2
1.25567	-2
1.25933	-2
1.26300	-1
1.26667	-1
1.27033	-1
1.27400	-1
1.27767	-1
1.28133	-2
1.28500	-2
1.28867	-2
1.29233	-2
1.29600	-2
1.29967	-3
1.30333	-3
1.30700	-3
1.31067	-3
1.31433	-3
1.31800	-4
1.32167	-3
1.32533	-3
1.32900	-3
1.33267	-4
1.33633	-4
1.34000	-4
1.34367	-4
1.34733	-4
1.35100	-4
1.35467	-4
1.35833	-4
1.36200	-3
1.36567	-3
1.36933	-3
1.37300	-3
1.37667	-3
1.38033	-4
1.38400	-4
1.38767	-4
1.39133	-4
1.39500	-4
1.39867	-4
1.40233	-4
1.40600	-4
1.40967	-4
1.41333	-4
1.41700	-4
1.42067	-4
1.42433	-4
1.42800	-4
1.43167	-4
1.43533	-4
1.43900	-4
1.44267	-3
1.44633	-3
1.45000	-2
1.45367	-2
1.45733	-2
1.46100	-2
1.46467	-2
1.46833	-2
1.47200	-2
1.47567	-2
1.47933	-3
1.48300	-3
1.48667	-3
1.49033	-4
1.49400	-4
1.49767	-4
1.50133	-4
1.50500	-5
1.50867	-5
1.51233	-5
1.51600	-5
1.51967	-6
1.52333	-6
1.52700	-6
1.53067	-6
1.53433	-7
1.53800	-7
1.54167	-7
1.54533	-7
1.54900	-6
1.55267	-6
1.55633	-6
1.56000	-5
1.56367	-5
1.56733	-5
1.57100	-4
1.57467	-4
1.57833	-4
1.58200	-4
1.58567	-4
1.58933	-4
1.59300	-4
1.59667	-4
1.60033	-5
1.60400	-6
1.60767	-7
1.61133	-9
1.61500	-11
1.61867	-13
1.62233	-16
1.62600	-19
1.62967	-22
1.63333	-25
1.63700	-29
1.64067	-32
1.64433	-36
1.64800	-40
1.65167	-43
1.65533	-47
1.65900	-51
1.66267	-55
1.66633	-59
1.67000	-63
1.67367	-68
1.67733	-73
1.68100	-77
1.68467	-82
1.68833	-87
1.69200	-91
1.69567	-94
1.69933	-97
1.70300	-100
1.70667	-102
1.71033	-104
1.71400	-105
1.71767	-106
1.72133	-107
1.72500	-108
1.72867	-108
1.73233	-108
1.73600	-108
1.73967	-109
1.74333	-109
1.74700	-110
1.75067	-110
1.75433	-111
1.75800	-111
1.76167	-111
1.76533	-111
1.76900	-111
1.77267	-111
1.77633	-112
1.78000	-112
1.78367	-113
1.78733	-113
1.79100	-113
1.79467	-114
1.79833	-114
1.80200	-115
1.80567	-115
1.80933	-116
1.81300	-116
1.81667	-116
1.82033	-116
1.82400	-116
1.82767	-116
1.83133	-116
1.83500	-116
1.83867	-116
1.84233	-116
1.84600	-115
1.84967	-115
1.85333	-115
1.85700	-115
1.86067	-115
1.86433	-115
1.86800	-115
1.87167	-116
1.87533	-116
1.87900	-116
1.88267	-115
1.88633	-115
1.89000	-115
1.89367	-115
1.89733	-115
1.90100	-115
1.90467	-114
1.90833	-113
1.91200	-112
1.91567	-111
1.91933	-111
1.92300	-112
1.92667	-112
1.93033	-112
1.93400	-111
1.93767	-111
1.94133	-111
1.94500	-110
1.94867	-110
1.95233	-111
1.95600	-111
1.95967	-111
1.96333	-112
1.96700	-112
1.97067	-113
1.97433	-113
1.97800	-112
1.98167	-112
1.98533	-111
1.98900	-111
1.99267	-110
1.99633	-110
2.00000	-109
2.00367	-109
2.00733	-108
2.01100	-107
2.01467	-106
2.01833	-106
2.02200	-106
2.02567	-105
2.02933	-105
2.03300	-105
2.03667	-105
2.04033	-105
2.04400	-104
2.04767	-104
2.05133	-104
2.05500	-103
2.05867	-103
2.06233	-103
2.06600	-103
2.06967	-103
2.07333	-103
2.07700	-103
2.08067	-103
2.08433	-103
2.08800	-103
2.09167	-102
2.09533	-102
2.09900	-101
2.10267	-100
2.10633	-99
2.11000	-98
2.11367	-98
2.11733	-97
2.12100	-97
2.12467	-98
2.12833	-98
2.13200	-98
2.13567	-98
2.13933	-98
2.14300	-97
2.14667	-97
2.15033	-97
2.15400	-97
2.15767	-97
2.16133	-96
2.16500	-96
2.16867	-97
2.17233	-97
2.17600	-97
2.17967	-97
2.18333	-97
2.18700	-96
2.19067	-96
2.19433	-95
2.19800	-94
2.20167	-93
2.20533	-93
2.20900	-93
2.21267	-93
2.21633	-93
2.22000	-93
2.22367	-93
2.22733	-93
2.23100	-92
2.23467	-91
2.23833	-90
2.24200	-89
2.24567	-89
2.24933	-88
2.25300	-88
2.25667	-88
2.26033	-88
2.26400	-88
2.26767	-88
2.27133	-87
2.27500	-87
2.27867	-87
2.28233	-86
2.28600	-86
2.28967	-86
2.29333	-86
2.29700	-86
2.30067	-87
2.30433	-87
2.30800	-87
2.31167	-87
2.31533	-87
2.31900	-86
2.32267	-86
2.32633	-85
2.33000	-84
2.33367	-83
2.33733	-82
2.34100	-81
2.34467	-80
2.34833	-79
2.35200	-77
2.35567	-76
2.35933	-75
2.36300	-73
2.36667	-72
2.37033	-71
2.37400	-69
2.37767	-67
2.38133	-64
2.38500	-60
2.38867	-56
2.39233	-52
2.39600	-47
2.39967	-43
2.40333	-38
2.40700	-34
2.41067	-30
2.41433	-26
2.41800	-22
2.42167	-19
2.42533	-17
2.42900	-14
2.43267	-12
2.43633	-11
2.44000	-10
2.44367	-9
2.44733	-8
2.45100	-8
2.45467	-8
2.45833	-7
2.46200	-7
2.46567	-6
2.46933	-5
2.47300	-4
2.47667	-3
2.48033	-2
2.48400	-1
2.48767	0
2.49133	1
2.49500	3
2.49867	4
2.50233	5
2.50600	6
2.50967	7
2.51333	7
2.51700	7
2.52067	7
2.52433	7
2.52800	8
2.53167	8
2.53533	9
2.53900	10
2.54267	10
2.54633	11
2.55000	12
2.55367	12
2.55733	12
2.56100	12
2.56467	13
2.56833	13
2.57200	13
2.57567	13
2.57933	13
2.58300	12
2.58667	12
2.59033	11
2.59400	11
2.59767	11
2.60133	11
2.60500	12
2.60867	12
2.61233	13
2.61600	14
2.61967	14
2.62333	15
2.62700	15
2.63067	15
2.63433	16
2.63800	16
2.64167	16
2.64533	16
2.64900	17
2.65267	17
2.65633	17
2.66000	17
2.66367	17
2.66733	18
2.67100	18
2.67467	19
2.67833	19
2.68200	19
2.68567	20
2.68933	20
2.69300	20
2.69667	20
2.70033	20
2.70400	20
2.70767	20
2.71133	21
2.71500	21
2.71867	21
2.72233	22
2.72600	22
2.72967	22
2.73333	22
2.73700	22
2.74067	23
2.74433	23
2.74800	23
2.75167	23
2.75533	23
2.75900	23
2.76267	23
2.76633	24
2.77000	24
2.77367	24
2.77733	25
2.78100	25
2.78467	25
2.78833	25
2.79200	25
2.79567	25
2.79933	24
2.80300	24
2.80667	24
2.81033	23
2.81400	23
2.81767	24
2.82133	24
2.82500	24
2.82867	24
2.83233	24
2.83600	24
2.83967	24
2.84333	24
2.84700	22
2.85067	19
2.85433	14
2.85800	6
2.86167	-5
2.86533	-20
2.86900	-39
2.87267	-62
2.87633	-91
2.88000	-123
2.88367	-160
2.88733	-200
2.89100	-244
2.89467	-291
2.89833	-342
2.90200	-394
2.90567	-448
2.90933	-503
2.91300	-559
2.91667	-615
2.92033	-671
2.92400	-726
2.92767	-779
2.93133	-831
2.93500	-884
2.93867	-940
2.94233	-999
2.94600	-1054
2.94967	-1093
2.95333	-1108
2.95700	-1097
2.96067	-1062
2.96433	-1007
2.96800	-939
2.97167	-861
2.97533	-781
2.97900	-700
2.98267	-622
2.98633	-548
2.99000	-480
2.99367	-418
2.99733	-362
3.00100	-312
3.00467	-268
3.00833	-230
3.01200	-196
3.01567	-167
3.01933	-141
3.02300	-119
3.02667	-100
3.03033	-83
3.03400	-69
3.03767	-57
3.04133	-47
3.04500	-38
3.04867	-30
3.05233	-24
3.05600	-19
3.05967	-14
3.06333	-11
3.06700	-7
3.07067	-5
3.07433	-2
3.07800	0
3.08167	2
3.08533	4
3.08900	6
3.09267	7
3.09633	8
3.10000	9
3.10367	9
3.10733	10
3.11100	11
3.11467	12
3.11833	12
3.12200	13
3.12567	13
3.12933	13
3.13300	14
3.13667	14
3.14033	14
3.14400	14
3.14767	14
3.15133	14
3.15500	15
3.15867	15
3.16233	15
3.16600	16
3.16967	16
3.17333	16
3.17700	17
3.18067	17
3.18433	17
3.18800	17
3.19167	18
3.19533	18
3.19900	18
3.20267	19
3.20633	19
3.21000	20
3.21367	20
3.21733	20
3.22100	20
3.22467	20
3.22833	20
3.23200	20
3.23567	20
3.23933	20
3.24300	21
3.24667	21
3.25033	21
3.25400	21
3.25767	21
3.26133	21
3.26500	21
3.26867	21
3.27233	22
3.27600	22
3.27967	23
3.28333	23
3.28700	24
3.29067	24
3.29433	24
3.29800	25
3.30167	25
3.30533	25
3.30900	25
3.31267	25
3.31633	25
3.32000	25
3.32367	26
3.32733	26
3.33100	26
3.33467	26
3.33833	27
3.34200	27
3.34567	27
3.34933	27
3.35300	27
3.35667	26
3.36033	26
3.36400	26
3.36767	26
3.37133	26
3.37500	26
3.37867	25
3.38233	25
3.38600	25
3.38967	25
3.39333	25
3.39700	25
3.40067	25
3.40433	25
3.40800	25
3.41167	25
3.41533	25
3.41900	25
3.42267	25
3.42633	25
3.43000	25
3.43367	25
3.43733	25
3.44100	25
3.44467	25
3.44833	25
3.45200	25
3.45567	25
3.45933	25
3.46300	25
3.46667	25
3.47033	24
3.47400	25
3.47767	25
3.48133	25
3.48500	25
3.48867	25
3.49233	25
3.49600	26
3.49967	26
3.50333	26
3.50700	26
3.51067	26
3.51433	26
3.51800	26
3.52167	26
3.52533	26
3.52900	26
3.53267	26
3.53633	26
3.54000	26
3.54367	26
3.54733	26
3.55100	26
3.55467	26
3.55833	26
3.56200	26
3.56567	26
3.56933	26
3.57300	26
3.57667	26
3.58033	26
3.58400	25
3.58767	25
3.59133	25
3.59500	25
3.59867	25
3.60233	26
3.60600	26
3.60967	26
3.61333	26
3.61700	26
3.62067	26
3.62433	25
3.62800	25
3.63167	25
3.63533	25
3.63900	25
3.64267	25
3.64633	25
3.65000	25
3.65367	25
3.65733	25
3.66100	25
3.66467	25
3.66833	25
3.67200	25
3.67567	25
3.67933	25
3.68300	24
3.68667	24
3.69033	24
3.69400	24
3.69767	24
3.70133	24
3.70500	24
3.70867	24
3.71233	24
3.71600	24
3.71967	24
3.72333	25
3.72700	25
3.73067	25
3.73433	25
3.73800	26
3.74167	26
3.74533	26
3.74900	26
3.75267	26
3.75633	27
3.76000	26
3.76367	26
3.76733	26
3.77100	26
3.77467	26
3.77833	26
3.78200	26
3.78567	26
3.78933	26
3.79300	26
3.79667	26
3.80033	26
3.80400	26
3.80767	26
3.81133	26
3.81500	26
3.81867	26
3.82233	26
3.82600	26
3.82967	26
3.83333	27
3.83700	26
3.84067	26
3.84433	26
3.84800	26
3.85167	25
3.85533	25
3.85900	25
3.86267	25
3.86633	25
3.87000	25
3.87367	25
3.87733	25
3.88100	25
3.88467	25
3.88833	26
3.89200	26
3.89567	26
3.89933	26
3.90300	26
3.90667	26
3.91033	26
3.91400	26
3.91767	27
3.92133	27
3.92500	27
3.92867	27
3.93233	26
3.93600	26
3.93967	26
3.94333	25
3.94700	25
3.95067	25
3.95433	25
3.95800	25
3.96167	25
3.96533	25
3.96900	25
3.97267	25
3.97633	25
3.98000	25
3.98367	25
3.98733	25
3.99100	25
3.99467	25
3.99833	25

[Chromatogram (Ch3)]
Interval(msec)	220
# of Points	1091
Start Time(min)	0.002
End Time(min)	3.998
R.Time (min)	Intensity
0.00167	-1
0.00533	-2
0.00900	-2
0.01267	-3
0.01633	-3
0.02000	-2
0.02367	2
0.02733	5
0.03100	5
0.03467	5
0.03833	6
0.04200	7
0.04567	6
0.04933	6
0.05300	6
0.05667	6
0.06033	7
0.06400	7
0.06767	6
0.07133	6
0.07500	5
0.07867	6
0.08233	5
0.08600	3
0.08967	3
0.09333	4
0.09700	4
0.10067	5
0.10433	2
0.10800	-3
0.11167	-4
0.11533	-5
0.11900	-3
0.12267	-1
0.12633	1
0.13000	-0
0.13367	-0
0.13733	-2
0.14100	-2
0.14467	-2
0.14833	-1
0.15200	-1
0.15567	-1
0.15933	0
0.16300	0
0.16667	-1
0.17033	-1
0.17400	-2
0.17767	-2
0.18133	-2
0.18500	-3
0.18867	-4
0.19233	-1
0.19600	1
0.19967	3
0.20333	3
0.20700	3
0.21067	3
0.21433	2
0.21800	0
0.22167	1
0.22533	1
0.22900	2
0.23267	2
0.23633	1
0.24000	-0
0.24367	-0
0.24733	-0
0.25100	-1
0.25467	-1
0.25833	-1
0.26200	-2
0.26567	-1
0.26933	-0
0.27300	0
0.27667	0
0.28033	-1
0.28400	-1
0.28767	-0
0.29133	0
0.29500	1
0.29867	1
0.30233	2
0.30600	3
0.30967	2
0.31333	-1
0.31700	-1
0.32067	-2
0.32433	-2
0.32800	-2
0.33167	-2
0.33533	-2
0.33900	-1
0.34267	-1
0.34633	0
0.35000	1
0.35367	1
0.35733	-0
0.36100	-1
0.36467	-4
0.36833	-4
0.37200	-4
0.37567	-4
0.37933	-3
0.38300	-3
0.38667	-3
0.39033	-3
0.39400	-4
0.39767	-4
0.40133	-3
0.40500	-1
0.40867	-1
0.41233	-1
0.41600	-1
0.41967	-3
0.42333	-4
0.42700	-5
0.43067	-5
0.43433	-4
0.43800	-2
0.44167	0
0.44533	2
0.44900	3
0.45267	2
0.45633	0
0.46000	-1
0.46367	-0
0.46733	1
0.47100	1
0.47467	1
0.47833	1
0.48200	0
0.48567	-0
0.48933	-0
0.49300	-1
0.49667	0
0.50033	1
0.50400	1
0.50767	-1
0.51133	-3
0.51500	-3
0.51867	-1
0.52233	1
0.52600	2
0.52967	3
0.53333	2
0.53700	-0
0.54067	-3
0.54433	-2
0.54800	-1
0.55167	-2
0.55533	-3
0.55900	-4
0.56267	-3
0.56633	-2
0.57000	-1
0.57367	-2
0.57733	-4
0.58100	-5
0.58467	-5
0.58833	-4
0.59200	-3
0.59567	-2
0.59933	-0
0.60300	0
0.60667	1
0.61033	1
0.61400	2
0.61767	4
0.62133	3
0.62500	5
0.62867	7
0.63233	7
0.63600	8
0.63967	8
0.64333	8
0.64700	7
0.65067	3
0.65433	1
0.65800	0
0.66167	0
0.66533	2
0.66900	5
0.67267	7
0.67633	7
0.68000	7
0.68367	7
0.68733	6
0.69100	7
0.69467	8
0.69833	9
0.70200	9
0.70567	8
0.70933	7
0.71300	7
0.71667	6
0.72033	5
0.72400	4
0.72767	3
0.73133	2
0.73500	2
0.73867	1
0.74233	2
0.74600	4
0.74967	6
0.75333	6
0.75700	7
0.76067	6
0.76433	7
0.76800	7
0.77167	7
0.77533	6
0.77900	2
0.78267	3
0.78633	5
0.79000	5
0.79367	6
0.79733	7
0.80100	6
0.80467	6
0.80833	5
0.81200	4
0.81567	5
0.81933	5
0.82300	5
0.82667	5
0.83033	6
0.83400	4
0.83767	3
0.84133	4
0.84500	5
0.84867	6
0.85233	6
0.85600	5
0.85967	6
0.86333	5
0.86700	3
0.87067	1
0.87433	-1
0.87800	-2
0.88167	-2
0.88533	-2
0.88900	-2
0.89267	-0
0.89633	1
0.90000	3
0.90367	5
0.90733	6
0.91100	8
0.91467	8
0.91833	9
0.92200	9
0.92567	6
0.92933	5
0.93300	6
0.93667	6
0.94033	6
0.94400	8
0.94767	8
0.95133	5
0.95500	3
0.95867	3
0.96233	3
0.96600	4
0.96967	4
0.97333	5
0.97700	6
0.98067	5
0.98433	6
0.98800	8
0.99167	9
0.99533	9
0.99900	9
1.00267	8
1.00633	7
1.01000	6
1.01367	6
1.01733	8
1.02100	10
1.02467	11
1.02833	10
1.03200	9
1.03567	7
1.03933	4
1.04300	2
1.04667	4
1.05033	7
1.05400	8
1.05767	9
1.06133	10
1.06500	12
1.06867	11
1.07233	10
1.07600	9
1.07967	8
1.08333	7
1.08700	6
1.09067	6
1.09433	7
1.09800	7
1.10167	8
1.10533	9
1.10900	10
1.11267	10
1.11633	10
1.12000	11
1.12367	11
1.12733	8
1.13100	8
1.13467	9
1.13833	11
1.14200	11
1.14567	11
1.14933	11
1.15300	11
1.15667	11
1.16033	12
1.16400	12
1.16767	12
1.17133	11
1.17500	10
1.17867	8
1.18233	8
1.18600	11
1.18967	12
1.19333	13
1.19700	13
1.20067	13
1.20433	13
1.20800	13
1.21167	13
1.21533	14
1.21900	14
1.22267	14
1.22633	14
1.23000	12
1.23367	10
1.23733	9
1.24100	8
1.24467	10
1.24833	10
1.25200	11
1.25567	13
1.25933	14
1.26300	15
1.26667	15
1.27033	15
1.27400	16
1.27767	15
1.28133	13
1.28500	12
1.28867	12
1.29233	13
1.29600	15
1.29967	16
1.30333	17
1.30700	16
1.31067	14
1.31433	13
1.31800	13
1.32167	13
1.32533	15
1.32900	19
1.33267	23
1.33633	22
1.34000	20
1.34367	20
1.34733	19
1.35100	19
1.35467	18
1.35833	16
1.36200	12
1.36567	12
1.36933	13
1.37300	15
1.37667	19
1.38033	20
1.38400	20
1.38767	23
1.39133	22
1.39500	21
1.39867	20
1.40233	19
1.40600	17
1.40967	13
1.41333	9
1.41700	7
1.42067	7
1.42433	10
1.42800	13
1.43167	14
1.43533	15
1.43900	15
1.44267	16
1.44633	18
1.45000	19
1.45367	18
1.45733	17
1.46100	17
1.46467	17
1.46833	16
1.47200	16
1.47567	17
1.47933	18
1.48300	19
1.48667	19
1.49033	20
1.49400	21
1.49767	21
1.50133	20
1.50500	20
1.50867	20
1.51233	20
1.51600	21
1.51967	22
1.52333	23
1.52700	22
1.53067	20
1.53433	21
1.53800	23
1.54167	23
1.54533	22
1.54900	20
1.55267	20
1.55633	21
1.56000	20
1.56367	20
1.56733	21
1.57100	23
1.57467	24
1.57833	24
1.58200	23
1.58567	23
1.58933	23
1.59300	23
1.59667	23
1.60033	21
1.60400	20
1.60767	20
1.61133	21
1.61500	22
1.61867	22
1.62233	24
1.62600	24
1.62967	24
1.63333	27
1.63700	28
1.64067	26
1.64433	24
1.64800	25
1.65167	24
1.65533	24
1.65900	24
1.66267	24
1.66633	26
1.67000	26
1.67367	24
1.67733	22
1.68100	22
1.68467	23
1.68833	26
1.69200	29
1.69567	32
1.69933	32
1.70300	32
1.70667	31
1.71033	31
1.71400	30
1.71767	30
1.72133	31
1.72500	31
1.72867	33
1.73233	34
1.73600	35
1.73967	38
1.74333	42
1.74700	43
1.75067	43
1.75433	43
1.75800	42
1.76167	42
1.76533	42
1.76900	43
1.77267	42
1.77633	39
1.78000	40
1.78367	41
1.78733	41
1.79100	42
1.79467	43
1.79833	45
1.80200	46
1.80567	45
1.80933	44
1.81300	44
1.81667	45
1.82033	46
1.82400	45
1.82767	45
1.83133	46
1.83500	48
1.83867	49
1.84233	49
1.84600	49
1.84967	48
1.85333	50
1.85700	53
1.86067	54
1.86433	55
1.86800	55
1.87167	56
1.87533	57
1.87900	57
1.88267	55
1.88633	55
1.89000	56
1.89367	59
1.89733	61
1.90100	64
1.90467	66
1.90833	65
1.91200	65
1.91567	64
1.91933	65
1.92300	66
1.92667	65
1.93033	64
1.93400	65
1.93767	65
1.94133	66
1.94500	67
1.94867	69
1.95233	72
1.95600	75
1.95967	77
1.96333	80
1.96700	84
1.97067	85
1.97433	85
1.97800	83
1.98167	83
1.98533	83
1.98900	82
1.99267	82
1.99633	82
2.00000	81
2.00367	81
2.00733	83
2.01100	85
2.01467	88
2.01833	91
2.02200	93
2.02567	94
2.02933	95
2.03300	97
2.03667	100
2.04033	102
2.04400	102
2.04767	103
2.05133	104
2.05500	108
2.05867	110
2.06233	110
2.06600	110
2.06967	111
2.07333	112
2.07700	113
2.08067	114
2.08433	117
2.08800	118
2.09167	119
2.09533	119
2.09900	121
2.10267	123
2.10633	124
2.11000	126
2.11367	125
2.11733	125
2.12100	126
2.12467	127
2.12833	129
2.13200	131
2.13567	132
2.13933	132
2.14300	132
2.14667	133
2.15033	135
2.15400	136
2.15767	138
2.16133	139
2.16500	139
2.16867	139
2.17233	140
2.17600	142
2.17967	144
2.18333	147
2.18700	149
2.19067	151
2.19433	152
2.19800	152
2.20167	152
2.20533	153
2.20900	155
2.21267	158
2.21633	161
2.22000	163
2.22367	166
2.22733	168
2.23100	169
2.23467	169
2.23833	167
2.24200	168
2.24567	169
2.24933	171
2.25300	172
2.25667	174
2.26033	174
2.26400	175
2.26767	176
2.27133	177
2.27500	177
2.27867	178
2.28233	180
2.28600	180
2.28967	180
2.29333	182
2.29700	185
2.30067	188
2.30433	190
2.30800	191
2.31167	192
2.31533	191
2.31900	192
2.32267	193
2.32633	196
2.33000	197
2.33367	200
2.33733	201
2.34100	202
2.34467	202
2.34833	203
2.35200	203
2.35567	205
2.35933	208
2.36300	208
2.36667	206
2.37033	205
2.37400	206
2.37767	208
2.38133	211
2.38500	213
2.38867	213
2.39233	212
2.39600	214
2.39967	219
2.40333	221
2.40700	224
2.41067	226
2.41433	228
2.41800	228
2.42167	229
2.42533	229
2.42900	229
2.43267	228
2.43633	227
2.44000	232
2.44367	289
2.44733	433
2.45100	590
2.45467	719
2.45833	789
2.46200	794
2.46567	762
2.46933	721
2.47300	687
2.47667	670
2.48033	656
2.48400	629
2.48767	590
2.49133	542
2.49500	497
2.49867	460
2.50233	433
2.50600	418
2.50967	415
2.51333	422
2.51700	438
2.52067	459
2.52433	479
2.52800	491
2.53167	488
2.53533	472
2.53900	447
2.54267	416
2.54633	384
2.55000	355
2.55367	329
2.55733	310
2.56100	293
2.56467	278
2.56833	269
2.57200	264
2.57567	260
2.57933	256
2.58300	255
2.58667	258
2.59033	260
2.59400	262
2.59767	263
2.60133	260
2.60500	260
2.60867	258
2.61233	252
2.61600	243
2.61967	234
2.62333	224
2.62700	214
2.63067	205
2.63433	196
2.63800	186
2.64167	175
2.64533	165
2.64900	157
2.65267	146
2.65633	133
2.66000	123
2.66367	113
2.66733	103
2.67100	95
2.67467	87
2.67833	80
2.68200	74
2.68567	70
2.68933	69
2.69300	68
2.69667	68
2.70033	70
2.70400	72
2.70767	73
2.71133	75
2.71500	77
2.71867	81
2.72233	85
2.72600	89
2.72967	91
2.73333	95
2.73700	98
2.74067	102
2.74433	108
2.74800	113
2.75167	117
2.75533	119
2.75900	120
2.76267	122
2.76633	123
2.77000	125
2.77367	126
2.77733	129
2.78100	134
2.78467	137
2.78833	140
2.79200	142
2.79567	147
2.79933	152
2.80300	156
2.80667	161
2.81033	167
2.81400	175
2.81767	184
2.82133	196
2.82500	217
2.82867	259
2.83233	337
2.83600	473
2.83967	693
2.84333	1017
2.84700	1459
2.85067	2006
2.85433	2633
2.85800	3300
2.86167	3956
2.86533	4543
2.86900	5019
2.87267	5353
2.87633	5524
2.88000	5536
2.88367	5410
2.88733	5173
2.89100	4857
2.89467	4494
2.89833	4108
2.90200	3719
2.90567	3340
2.90933	2984
2.91300	2655
2.91667	2354
2.92033	2084
2.92400	1842
2.92767	1625
2.93133	1433
2.93500	1265
2.93867	1121
2.94233	994
2.94600	882
2.94967	785
2.95333	702
2.95700	630
2.96067	567
2.96433	513
2.96800	464
2.97167	422
2.97533	385
2.97900	352
2.98267	323
2.98633	299
2.99000	279
2.99367	265
2.99733	253
3.00100	241
3.00467	230
3.00833	220
3.01200	211
3.01567	201
3.01933	193
3.02300	189
3.02667	184
3.03033	178
3.03400	174
3.03767	171
3.04133	170
3.04500	169
3.04867	166
3.05233	164
3.05600	163
3.05967	163
3.06333	161
3.06700	159
3.07067	157
3.07433	157
3.07800	157
3.08167	158
3.08533	159
3.08900	156
3.09267	155
3.09633	156
3.10000	157
3.10367	156
3.10733	156
3.11100	157
3.11467	157
3.11833	158
3.12200	158
3.12567	159
3.12933	159
3.13300	159
3.13667	158
3.14033	157
3.14400	157
3.14767	157
3.15133	158
3.15500	159
3.15867	160
3.16233	162
3.16600	165
3.16967	166
3.17333	167
3.17700	169
3.18067	172
3.18433	176
3.18800	178
3.19167	180
3.19533	182
3.19900	184
3.20267	187
3.20633	187
3.21000	188
3.21367	189
3.21733	190
3.22100	189
3.22467	190
3.22833	192
3.23200	195
3.23567	199
3.23933	201
3.24300	202
3.24667	204
3.25033	208
3.25400	211
3.25767	212
3.26133	212
3.26500	212
3.26867	214
3.27233	217
3.27600	221
3.27967	226
3.28333	227
3.28700	227
3.29067	227
3.29433	228
3.29800	230
3.30167	232
3.30533	231
3.30900	233
3.31267	236
3.31633	239
3.32000	241
3.32367	243
3.32733	245
3.33100	248
3.33467	249
3.33833	251
3.34200	253
3.34567	255
3.34933	258
3.35300	259
3.35667	258
3.36033	259
3.36400	261
3.36767	264
3.37133	264
3.37500	263
3.37867	264
3.38233	265
3.38600	266
3.38967	266
3.39333	267
3.39700	268
3.40067	270
3.40433	271
3.40800	272
3.41167	273
3.41533	276
3.41900	279
3.42267	279
3.42633	279
3.43000	279
3.43367	280
3.43733	282
3.44100	285
3.44467	286
3.44833	286
3.45200	286
3.45567	286
3.45933	287
3.46300	286
3.46667	286
3.47033	287
3.47400	287
3.47767	288
3.48133	289
3.48500	291
3.48867	292
3.49233	292
3.49600	291
3.49967	287
3.50333	274
3.50700	257
3.51067	245
3.51433	243
3.51800	251
3.52167	267
3.52533	285
3.52900	304
3.53267	325
3.53633	348
3.54000	372
3.54367	395
3.54733	416
3.55100	434
3.55467	449
3.55833	461
3.56200	477
3.56567	493
3.56933	506
3.57300	516
3.57667	522
3.58033	528
3.58400	534
3.58767	540
3.59133	545
3.59500	552
3.59867	561
3.60233	567
3.60600	571
3.60967	574
3.61333	577
3.61700	579
3.62067	582
3.62433	584
3.62800	585
3.63167	589
3.63533	591
3.63900	591
3.64267	589
3.64633	587
3.65000	586
3.65367	587
3.65733	589
3.66100	592
3.66467	593
3.66833	593
3.67200	590
3.67567	592
3.67933	594
3.68300	595
3.68667	595
3.69033	595
3.69400	596
3.69767	598
3.70133	600
3.70500	601
3.70867	600
3.71233	600
3.71600	600
3.71967	600
3.72333	601
3.72700	603
3.73067	604
3.73433	605
3.73800	605
3.74167	603
3.74533	600
3.74900	599
3.75267	601
3.75633	602
3.76000	603
3.76367	601
3.76733	601
3.77100	603
3.77467	603
3.77833	603
3.78200	600
3.78567	598
3.78933	597
3.79300	596
3.79667	598
3.80033	597
3.80400	596
3.80767	593
3.81133	592
3.81500	593
3.81867	594
3.82233	595
3.82600	595
3.82967	597
3.83333	596
3.83700	595
3.84067	593
3.84433	593
3.84800	592
3.85167	589
3.85533	585
3.85900	584
3.86267	586
3.86633	590
3.87000	592
3.87367	594
3.87733	594
3.88100	591
3.88467	587
3.88833	584
3.89200	583
3.89567	583
3.89933	584
3.90300	582
3.90667	578
3.91033	575
3.91400	573
3.91767	572
3.92133	573
3.92500	572
3.92867	571
3.93233	570
3.93600	567
3.93967	566
3.94333	568
3.94700	568
3.95067	568
3.95433	567
3.95800	566
3.96167	566
3.96533	567
3.96900	565
3.97267	562
3.97633	558
3.98000	553
3.98367	550
3.98733	549
3.99100	550
3.99467	550
3.99833	548

[Status Trace (Column Oven Temperature)]
Interval(msec)	1000
# of Points	240
Start Time(min)	0.011
End Time(min)	3.994
Intensity Units	
Intensity Multiplier	1
R.Time (min)	Intensity
0.01098	35.03
0.02765	35.04
0.04432	35.04
0.06098	35.05
0.07765	35.05
0.09432	35.05
0.11098	35.04
0.12765	35.04
0.14432	35.03
0.16098	35.04
0.17765	35.05
0.19432	35.05
0.21098	35.04
0.22765	35.04
0.24432	35.03
0.26098	35.03
0.27765	35.03
0.29432	35.03
0.31098	35.04
0.32765	35.05
0.34432	35.04
0.36098	35.04
0.37765	35.04
0.39432	35.03
0.41098	35.04
0.42765	35.03
0.44432	35.02
0.46098	35.01
0.47765	35.00
0.49432	34.99
0.51098	34.99
0.52765	34.99
0.54432	34.99
0.56098	35.00
0.57765	35.00
0.59432	35.01
0.61098	35.00
0.62765	35.00
0.64432	35.00
0.66098	35.00
0.67765	35.02
0.69432	35.04
0.71098	35.03
0.72765	35.02
0.74432	35.01
0.76098	35.00
0.77765	35.00
0.79432	34.99
0.81098	34.98
0.82765	34.98
0.84432	34.97
0.86098	34.97
0.87765	34.98
0.89432	35.00
0.91098	35.00
0.92765	35.01
0.94432	35.02
0.96098	35.03
0.97765	35.03
0.99432	35.03
1.01098	35.03
1.02765	35.03
1.04432	35.03
1.06098	35.02
1.07765	35.01
1.09432	34.99
1.11098	34.97
1.12765	34.95
1.14432	34.95
1.16098	34.96
1.17765	34.98
1.19432	34.99
1.21098	35.01
1.22765	35.01
1.24432	35.00
1.26098	34.99
1.27765	34.98
1.29432	34.98
1.31098	34.98
1.32765	34.99
1.34432	34.99
1.36098	34.99
1.37765	35.00
1.39432	35.00
1.41098	35.01
1.42765	35.01
1.44432	35.00
1.46098	34.98
1.47765	34.99
1.49432	34.98
1.51098	35.00
1.52765	35.02
1.54432	35.03
1.56098	35.02
1.57765	35.01
1.59432	35.02
1.61098	35.08
1.62765	35.23
1.64432	35.42
1.66098	35.67
1.67765	36.03
1.69432	36.40
1.71098	36.75
1.72765	37.07
1.74432	37.41
1.76098	37.73
1.77765	38.06
1.79432	38.40
1.81098	38.73
1.82765	39.07
1.84432	39.39
1.86098	39.72
1.87765	40.05
1.89432	40.38
1.91098	40.68
1.92765	41.02
1.94432	41.34
1.96098	41.69
1.97765	42.01
1.99432	42.34
2.01098	42.66
2.02765	42.98
2.04432	43.29
2.06098	43.61
2.07765	43.94
2.09432	44.26
2.11098	44.59
2.12765	44.92
2.14432	45.25
2.16098	45.58
2.17765	45.93
2.19432	46.24
2.21098	46.59
2.22765	46.90
2.24432	47.22
2.26098	47.54
2.27765	47.87
2.29432	48.24
2.31098	48.58
2.32765	48.90
2.34432	49.21
2.36098	49.49
2.37765	49.67
2.39432	49.72
2.41098	49.72
2.42765	49.70
2.44432	49.71
2.46098	49.73
2.47765	49.72
2.49432	49.72
2.51098	49.74
2.52765	49.76
2.54432	49.76
2.56098	49.78
2.57765	49.81
2.59432	49.84
2.61098	49.84
2.62765	49.84
2.64432	49.84
2.66098	49.85
2.67765	49.84
2.69432	49.86
2.71098	49.85
2.72765	49.85
2.74432	49.86
2.76098	49.86
2.77765	49.85
2.79432	49.86
2.81098	49.87
2.82765	49.87
2.84432	49.87
2.86098	49.87
2.87765	49.87
2.89432	49.88
2.91098	49.91
2.92765	49.92
2.94432	49.93
2.96098	49.95
2.97765	49.96
2.99432	49.97
3.01098	49.98
3.02765	49.98
3.04432	49.98
3.06098	50.00
3.07765	50.01
3.09432	50.02
3.11098	50.01
3.12765	50.03
3.14432	50.05
3.16098	50.06
3.17765	50.06
3.19432	50.07
3.21098	50.08
3.22765	50.10
3.24432	50.11
3.26098	50.11
3.27765	50.09
3.29432	50.08
3.31098	50.06
3.32765	50.05
3.34432	50.05
3.36098	50.05
3.37765	50.05
3.39432	50.05
3.41098	50.05
3.42765	50.05
3.44432	50.06
3.46098	50.06
3.47765	50.06
3.49432	50.06
3.51098	50.05
3.52765	50.05
3.54432	50.04
3.56098	50.04
3.57765	50.05
3.59432	50.05
3.61098	50.06
3.62765	50.07
3.64432	50.07
3.66098	50.07
3.67765	50.08
3.69432	50.08
3.71098	50.08
3.72765	50.08
3.74432	50.07
3.76098	50.07
3.77765	50.07
3.79432	50.07
3.81098	50.07
3.82765	50.07
3.84432	50.07
3.86098	50.08
3.87765	50.08
3.89432	50.08
3.91098	50.08
3.92765	50.08
3.94432	50.09
3.96098	50.08
3.97765	50.08
3.99432	50.08

[Status Trace (Injection Unit Temperature)]
Interval(msec)	1000
# of Points	240
Start Time(min)	0.011
End Time(min)	3.994
Intensity Units	
Intensity Multiplier	1
R.Time (min)	Intensity
0.01098	99.98
0.02765	99.97
0.04432	99.98
0.06098	99.98
0.07765	99.98
0.09432	99.98
0.11098	99.98
0.12765	99.98
0.14432	99.98
0.16098	99.98
0.17765	99.98
0.19432	99.98
0.21098	99.98
0.22765	99.98
0.24432	99.98
0.26098	99.99
0.27765	99.99
0.29432	99.98
0.31098	99.99
0.32765	99.98
0.34432	99.99
0.36098	99.99
0.37765	99.99
0.39432	99.99
0.41098	99.99
0.42765	99.99
0.44432	99.99
0.46098	99.99
0.47765	99.99
0.49432	99.99
0.51098	99.99
0.52765	99.99
0.54432	99.99
0.56098	99.99
0.57765	99.99
0.59432	99.99
0.61098	99.99
0.62765	99.99
0.64432	99.99
0.66098	99.99
0.67765	99.99
0.69432	100.00
0.71098	99.99
0.72765	99.99
0.74432	99.99
0.76098	99.99
0.77765	99.99
0.79432	99.98
0.81098	99.99
0.82765	99.99
0.84432	99.98
0.86098	99.98
0.87765	99.99
0.89432	99.98
0.91098	99.99
0.92765	99.98
0.94432	99.98
0.96098	99.98
0.97765	99.98
0.99432	99.98
1.01098	99.98
1.02765	99.98
1.04432	99.98
1.06098	99.98
1.07765	99.98
1.09432	99.98
1.11098	99.98
1.12765	99.98
1.14432	99.98
1.16098	99.97
1.17765	99.98
1.19432	99.98
1.21098	99.98
1.22765	99.98
1.24432	99.98
1.26098	99.98
1.27765	99.98
1.29432	99.98
1.31098	99.98
1.32765	99.98
1.34432	99.98
1.36098	99.98
1.37765	99.98
1.39432	99.98
1.41098	99.98
1.42765	99.98
1.44432	99.98
1.46098	99.99
1.47765	99.98
1.49432	99.99
1.51098	99.99
1.52765	99.98
1.54432	99.99
1.56098	99.99
1.57765	99.99
1.59432	99.98
1.61098	99.98
1.62765	99.98
1.64432	99.98
1.66098	99.98
1.67765	99.98
1.69432	99.98
1.71098	99.99
1.72765	99.98
1.74432	99.99
1.76098	99.99
1.77765	99.99
1.79432	99.99
1.81098	99.99
1.82765	99.99
1.84432	99.98
1.86098	99.98
1.87765	99.98
1.89432	99.98
1.91098	99.98
1.92765	99.98
1.94432	99.98
1.96098	99.98
1.97765	99.98
1.99432	99.98
2.01098	99.98
2.02765	99.98
2.04432	99.97
2.06098	99.98
2.07765	99.98
2.09432	99.97
2.11098	99.97
2.12765	99.97
2.14432	99.97
2.16098	99.97
2.17765	99.97
2.19432	99.97
2.21098	99.97
2.22765	99.97
2.24432	99.97
2.26098	99.97
2.27765	99.97
2.29432	99.96
2.31098	99.96
2.32765	99.97
2.34432	99.97
2.36098	99.97
2.37765	99.97
2.39432	99.96
2.41098	99.97
2.42765	99.97
2.44432	99.97
2.46098	99.96
2.47765	99.96
2.49432	99.97
2.51098	99.97
2.52765	99.97
2.54432	99.97
2.56098	99.97
2.57765	99.97
2.59432	99.97
2.61098	99.97
2.62765	99.97
2.64432	99.98
2.66098	99.98
2.67765	99.98
2.69432	99.98
2.71098	99.98
2.72765	99.98
2.74432	99.99
2.76098	99.99
2.77765	99.99
2.79432	99.99
2.81098	99.99
2.82765	99.99
2.84432	99.99
2.86098	99.99
2.87765	100.00
2.89432	100.00
2.91098	100.00
2.92765	100.00
2.94432	100.01
2.96098	100.01
2.97765	100.00
2.99432	100.00
3.01098	100.01
3.02765	100.01
3.04432	100.01
3.06098	100.01
3.07765	100.02
3.09432	100.01
3.11098	100.02
3.12765	100.01
3.14432	100.02
3.16098	100.02
3.17765	100.02
3.19432	100.02
3.21098	100.03
3.22765	100.02
3.24432	100.03
3.26098	100.02
3.27765	100.03
3.29432	100.02
3.31098	100.03
3.32765	100.03
3.34432	100.03
3.36098	100.03
3.37765	100.02
3.39432	100.03
3.41098	100.03
3.42765	100.03
3.44432	100.03
3.46098	100.03
3.47765	100.04
3.49432	100.04
3.51098	100.03
3.52765	100.04
3.54432	100.04
3.56098	100.03
3.57765	100.04
3.59432	100.04
3.61098	100.04
3.62765	100.04
3.64432	100.04
3.66098	100.04
3.67765	100.04
3.69432	100.04
3.71098	100.04
3.72765	100.04
3.74432	100.05
3.76098	100.05
3.77765	100.05
3.79432	100.05
3.81098	100.05
3.82765	100.04
3.84432	100.05
3.86098	100.05
3.87765	100.05
3.89432	100.05
3.91098	100.05
3.92765	100.05
3.94432	100.05
3.96098	100.05
3.97765	100.05
3.99432	100.05

[Status Trace (Carrier Gas Pressure)]
Interval(msec)	1000
# of Points	240
Start Time(min)	0.011
End Time(min)	3.994
Intensity Units	
Intensity Multiplier	1
R.Time (min)	Intensity
0.01098	58.00
0.02765	55.03
0.04432	57.58
0.06098	59.57
0.07765	59.04
0.09432	58.00
0.11098	57.99
0.12765	58.01
0.14432	58.01
0.16098	58.01
0.17765	58.00
0.19432	58.00
0.21098	58.00
0.22765	58.00
0.24432	58.00
0.26098	58.00
0.27765	58.00
0.29432	58.00
0.31098	58.00
0.32765	58.00
0.34432	58.00
0.36098	58.00
0.37765	58.00
0.39432	58.00
0.41098	58.00
0.42765	58.00
0.44432	58.00
0.46098	58.00
0.47765	58.00
0.49432	58.00
0.51098	58.00
0.52765	58.00
0.54432	58.00
0.56098	58.00
0.57765	58.00
0.59432	58.00
0.61098	58.00
0.62765	58.00
0.64432	58.00
0.66098	58.00
0.67765	58.00
0.69432	58.00
0.71098	58.00
0.72765	58.00
0.74432	58.00
0.76098	58.00
0.77765	58.00
0.79432	58.00
0.81098	58.00
0.82765	58.00
0.84432	58.00
0.86098	58.00
0.87765	58.00
0.89432	58.00
0.91098	58.00
0.92765	58.00
0.94432	58.00
0.96098	58.00
0.97765	58.00
0.99432	58.00
1.01098	58.00
1.02765	58.00
1.04432	58.00
1.06098	58.00
1.07765	58.00
1.09432	58.00
1.11098	58.00
1.12765	58.00
1.14432	58.00
1.16098	58.00
1.17765	58.00
1.19432	58.00
1.21098	58.00
1.22765	58.00
1.24432	58.00
1.26098	58.00
1.27765	58.00
1.29432	58.00
1.31098	58.00
1.32765	58.00
1.34432	58.00
1.36098	58.00
1.37765	58.00
1.39432	58.00
1.41098	58.00
1.42765	58.00
1.44432	58.00
1.46098	58.00
1.47765	58.00
1.49432	58.00
1.51098	58.00
1.52765	58.00
1.54432	58.00
1.56098	58.00
1.57765	58.00
1.59432	58.00
1.61098	58.00
1.62765	58.00
1.64432	58.00
1.66098	58.01
1.67765	58.01
1.69432	58.00
1.71098	58.00
1.72765	58.00
1.74432	58.00
1.76098	58.00
1.77765	58.00
1.79432	58.00
1.81098	58.00
1.82765	58.00
1.84432	58.00
1.86098	58.00
1.87765	58.00
1.89432	58.00
1.91098	58.00
1.92765	58.00
1.94432	58.00
1.96098	58.00
1.97765	58.00
1.99432	58.00
2.01098	58.00
2.02765	58.00
2.04432	58.00
2.06098	58.00
2.07765	58.00
2.09432	58.00
2.11098	58.00
2.12765	58.00
2.14432	58.00
2.16098	58.00
2.17765	58.00
2.19432	58.00
2.21098	58.00
2.22765	58.00
2.24432	58.00
2.26098	58.00
2.27765	58.00
2.29432	58.00
2.31098	58.00
2.32765	58.00
2.34432	58.00
2.36098	58.00
2.37765	58.00
2.39432	57.99
2.41098	57.99
2.42765	58.00
2.44432	58.00
2.46098	58.00
2.47765	58.00
2.49432	58.00
2.51098	57.99
2.52765	57.98
2.54432	58.00
2.56098	58.00
2.57765	58.00
2.59432	58.00
2.61098	58.00
2.62765	58.00
2.64432	58.00
2.66098	58.00
2.67765	58.00
2.69432	58.00
2.71098	58.00
2.72765	58.00
2.74432	58.00
2.76098	58.00
2.77765	58.00
2.79432	58.00
2.81098	58.00
2.82765	58.00
2.84432	58.00
2.86098	58.00
2.87765	58.00
2.89432	58.00
2.91098	58.00
2.92765	58.00
2.94432	58.00
2.96098	58.00
2.97765	58.00
2.99432	58.00
3.01098	58.00
3.02765	58.00
3.04432	58.00
3.06098	58.00
3.07765	58.00
3.09432	58.00
3.11098	58.00
3.12765	58.00
3.14432	58.00
3.16098	58.00
3.17765	58.00
3.19432	58.00
3.21098	58.00
3.22765	58.00
3.24432	58.00
3.26098	58.00
3.27765	58.00
3.29432	58.00
3.31098	58.00
3.32765	58.00
3.34432	58.00
3.36098	58.00
3.37765	58.00
3.39432	58.00
3.41098	58.00
3.42765	58.00
3.44432	58.00
3.46098	58.00
3.47765	58.00
3.49432	58.00
3.51098	58.00
3.52765	58.00
3.54432	58.00
3.56098	58.00
3.57765	58.00
3.59432	58.00
3.61098	58.00
3.62765	58.00
3.64432	58.00
3.66098	58.00
3.67765	58.00
3.69432	58.00
3.71098	58.00
3.72765	58.00
3.74432	58.00
3.76098	58.00
3.77765	58.00
3.79432	58.00
3.81098	58.00
3.82765	58.00
3.84432	58.00
3.86098	58.00
3.87765	58.00
3.89432	58.00
3.91098	58.00
3.92765	58.00
3.94432	58.00
3.96098	58.00
3.97765	58.00
3.99432	58.00

[Status Trace (Carrier Gas Flow)]
Interval(msec)	1000
# of Points	240
Start Time(min)	0.011
End Time(min)	3.994
Intensity Units	
Intensity Multiplier	1
R.Time (min)	Intensity
0.01098	34.52
0.02765	34.54
0.04432	34.55
0.06098	34.54
0.07765	34.51
0.09432	34.52
0.11098	34.52
0.12765	34.52
0.14432	34.52
0.16098	34.52
0.17765	34.52
0.19432	34.51
0.21098	34.52
0.22765	34.52
0.24432	34.52
0.26098	34.52
0.27765	34.52
0.29432	34.52
0.31098	34.52
0.32765	34.52
0.34432	34.52
0.36098	34.52
0.37765	34.52
0.39432	34.52
0.41098	34.52
0.42765	34.52
0.44432	34.52
0.46098	34.52
0.47765	34.52
0.49432	34.51
0.51098	34.52
0.52765	34.52
0.54432	34.52
0.56098	34.52
0.57765	34.52
0.59432	34.52
0.61098	34.52
0.62765	34.52
0.64432	34.52
0.66098	34.52
0.67765	34.52
0.69432	34.52
0.71098	34.52
0.72765	34.52
0.74432	34.52
0.76098	34.52
0.77765	34.52
0.79432	34.52
0.81098	34.52
0.82765	34.52
0.84432	34.52
0.86098	34.52
0.87765	34.52
0.89432	34.51
0.91098	34.52
0.92765	34.52
0.94432	34.52
0.96098	34.51
0.97765	34.52
0.99432	34.52
1.01098	34.52
1.02765	34.52
1.04432	34.52
1.06098	34.52
1.07765	34.52
1.09432	34.51
1.11098	34.52
1.12765	34.52
1.14432	34.52
1.16098	34.51
1.17765	34.52
1.19432	34.52
1.21098	34.51
1.22765	34.52
1.24432	34.52
1.26098	34.51
1.27765	34.52
1.29432	34.52
1.31098	34.52
1.32765	34.52
1.34432	34.52
1.36098	34.52
1.37765	34.52
1.39432	34.52
1.41098	34.52
1.42765	34.52
1.44432	34.52
1.46098	34.52
1.47765	34.52
1.49432	34.52
1.51098	34.52
1.52765	34.52
1.54432	34.52
1.56098	34.52
1.57765	34.52
1.59432	34.52
1.61098	34.52
1.62765	34.52
1.64432	34.52
1.66098	34.52
1.67765	34.52
1.69432	34.52
1.71098	34.52
1.72765	34.52
1.74432	34.52
1.76098	34.53
1.77765	34.52
1.79432	34.51
1.81098	34.52
1.82765	34.52
1.84432	34.52
1.86098	34.51
1.87765	34.51
1.89432	34.52
1.91098	34.52
1.92765	34.52
1.94432	34.51
1.96098	34.52
1.97765	34.52
1.99432	34.51
2.01098	34.52
2.02765	34.52
2.04432	34.52
2.06098	34.52
2.07765	34.51
2.09432	34.51
2.11098	34.52
2.12765	34.52
2.14432	34.52
2.16098	34.52
2.17765	34.53
2.19432	34.52
2.21098	34.52
2.22765	34.52
2.24432	34.51
2.26098	34.52
2.27765	34.51
2.29432	34.52
2.31098	34.52
2.32765	34.52
2.34432	34.52
2.36098	34.52
2.37765	34.52
2.39432	34.52
2.41098	34.52
2.42765	34.52
2.44432	34.51
2.46098	34.51
2.47765	34.52
2.49432	34.52
2.51098	34.52
2.52765	34.52
2.54432	34.52
2.56098	34.51
2.57765	34.52
2.59432	34.52
2.61098	34.52
2.62765	34.52
2.64432	34.52
2.66098	34.52
2.67765	34.52
2.69432	34.52
2.71098	34.52
2.72765	34.52
2.74432	34.52
2.76098	34.52
2.77765	34.52
2.79432	34.52
2.81098	34.52
2.82765	34.52
2.84432	34.52
2.86098	34.52
2.87765	34.52
2.89432	34.52
2.91098	34.52
2.92765	34.52
2.94432	34.52
2.96098	34.52
2.97765	34.52
2.99432	34.52
3.01098	34.52
3.02765	34.52
3.04432	34.52
3.06098	34.52
3.07765	34.52
3.09432	34.52
3.11098	34.52
3.12765	34.52
3.14432	34.52
3.16098	34.52
3.17765	34.52
3.19432	34.52
3.21098	34.52
3.22765	34.52
3.24432	34.52
3.26098	34.52
3.27765	34.52
3.29432	34.52
3.31098	34.52
3.32765	34.52
3.34432	34.52
3.36098	34.52
3.37765	34.52
3.39432	34.52
3.41098	34.52
3.42765	34.52
3.44432	34.52
3.46098	34.52
3.47765	34.52
3.49432	34.51
3.51098	34.52
3.52765	34.52
3.54432	34.52
3.56098	34.51
3.57765	34.52
3.59432	34.52
3.61098	34.52
3.62765	34.52
3.64432	34.52
3.66098	34.52
3.67765	34.52
3.69432	34.52
3.71098	34.52
3.72765	34.52
3.74432	34.52
3.76098	34.52
3.77765	34.52
3.79432	34.52
3.81098	34.52
3.82765	34.52
3.84432	34.52
3.86098	34.52
3.87765	34.52
3.89432	34.52
3.91098	34.51
3.92765	34.52
3.94432	34.52
3.96098	34.52
3.97765	34.51
3.99432	34.52

[Status Trace (Column Flow)]
Interval(msec)	1000
# of Points	240
Start Time(min)	0.011
End Time(min)	3.994
Intensity Units	
Intensity Multiplier	1
R.Time (min)	Intensity
0.01098	5.55
0.02765	5.21
0.04432	5.50
0.06098	5.74
0.07765	5.67
0.09432	5.55
0.11098	5.55
0.12765	5.55
0.14432	5.55
0.16098	5.55
0.17765	5.55
0.19432	5.55
0.21098	5.55
0.22765	5.55
0.24432	5.55
0.26098	5.55
0.27765	5.55
0.29432	5.55
0.31098	5.55
0.32765	5.55
0.34432	5.55
0.36098	5.55
0.37765	5.55
0.39432	5.55
0.41098	5.55
0.42765	5.55
0.44432	5.55
0.46098	5.55
0.47765	5.55
0.49432	5.55
0.51098	5.55
0.52765	5.55
0.54432	5.55
0.56098	5.55
0.57765	5.55
0.59432	5.55
0.61098	5.55
0.62765	5.55
0.64432	5.55
0.66098	5.55
0.67765	5.55
0.69432	5.55
0.71098	5.55
0.72765	5.55
0.74432	5.55
0.76098	5.55
0.77765	5.55
0.79432	5.55
0.81098	5.55
0.82765	5.55
0.84432	5.55
0.86098	5.55
0.87765	5.55
0.89432	5.55
0.91098	5.55
0.92765	5.55
0.94432	5.55
0.96098	5.55
0.97765	5.55
0.99432	5.55
1.01098	5.55
1.02765	5.55
1.04432	5.55
1.06098	5.55
1.07765	5.55
1.09432	5.55
1.11098	5.55
1.12765	5.56
1.14432	5.56
1.16098	5.55
1.17765	5.55
1.19432	5.55
1.21098	5.55
1.22765	5.55
1.24432	5.55
1.26098	5.55
1.27765	5.55
1.29432	5.55
1.31098	5.55
1.32765	5.55
1.34432	5.55
1.36098	5.55
1.37765	5.55
1.39432	5.55
1.41098	5.55
1.42765	5.55
1.44432	5.55
1.46098	5.55
1.47765	5.55
1.49432	5.55
1.51098	5.55
1.52765	5.55
1.54432	5.55
1.56098	5.55
1.57765	5.55
1.59432	5.55
1.61098	5.55
1.62765	5.55
1.64432	5.54
1.66098	5.53
1.67765	5.52
1.69432	5.51
1.71098	5.50
1.72765	5.49
1.74432	5.48
1.76098	5.47
1.77765	5.46
1.79432	5.45
1.81098	5.44
1.82765	5.43
1.84432	5.42
1.86098	5.41
1.87765	5.40
1.89432	5.39
1.91098	5.38
1.92765	5.37
1.94432	5.36
1.96098	5.35
1.97765	5.34
1.99432	5.33
2.01098	5.32
2.02765	5.31
2.04432	5.30
2.06098	5.29
2.07765	5.28
2.09432	5.27
2.11098	5.26
2.12765	5.25
2.14432	5.24
2.16098	5.23
2.17765	5.22
2.19432	5.21
2.21098	5.20
2.22765	5.20
2.24432	5.19
2.26098	5.18
2.27765	5.17
2.29432	5.16
2.31098	5.15
2.32765	5.14
2.34432	5.13
2.36098	5.12
2.37765	5.12
2.39432	5.11
2.41098	5.12
2.42765	5.12
2.44432	5.12
2.46098	5.12
2.47765	5.12
2.49432	5.12
2.51098	5.11
2.52765	5.11
2.54432	5.11
2.56098	5.11
2.57765	5.11
2.59432	5.11
2.61098	5.11
2.62765	5.11
2.64432	5.11
2.66098	5.11
2.67765	5.11
2.69432	5.11
2.71098	5.11
2.72765	5.11
2.74432	5.11
2.76098	5.11
2.77765	5.11
2.79432	5.11
2.81098	5.11
2.82765	5.11
2.84432	5.11
2.86098	5.11
2.87765	5.11
2.89432	5.11
2.91098	5.11
2.92765	5.11
2.94432	5.11
2.96098	5.11
2.97765	5.11
2.99432	5.11
3.01098	5.11
3.02765	5.11
3.04432	5.11
3.06098	5.11
3.07765	5.11
3.09432	5.11
3.11098	5.11
3.12765	5.11
3.14432	5.11
3.16098	5.11
3.17765	5.11
3.19432	5.11
3.21098	5.11
3.22765	5.11
3.24432	5.10
3.26098	5.10
3.27765	5.11
3.29432	5.11
3.31098	5.11
3.32765	5.11
3.34432	5.11
3.36098	5.11
3.37765	5.11
3.39432	5.11
3.41098	5.11
3.42765	5.11
3.44432	5.11
3.46098	5.11
3.47765	5.11
3.49432	5.11
3.51098	5.11
3.52765	5.11
3.54432	5.11
3.56098	5.11
3.57765	5.11
3.59432	5.11
3.61098	5.11
3.62765	5.11
3.64432	5.11
3.66098	5.11
3.67765	5.11
3.69432	5.11
3.71098	5.11
3.72765	5.11
3.74432	5.11
3.76098	5.11
3.77765	5.11
3.79432	5.11
3.81098	5.11
3.82765	5.11
3.84432	5.11
3.86098	5.11
3.87765	5.11
3.89432	5.11
3.91098	5.11
3.92765	5.11
3.94432	5.11
3.96098	5.11
3.97765	5.11
3.99432	5.11

[Status Trace (Linear Velocity)]
Interval(msec)	1000
# of Points	240
Start Time(min)	0.011
End Time(min)	3.994
Intensity Units	
Intensity Multiplier	1
R.Time (min)	Intensity
0.01098	39.02
0.02765	37.07
0.04432	38.75
0.06098	40.05
0.07765	39.70
0.09432	39.02
0.11098	39.01
0.12765	39.03
0.14432	39.03
0.16098	39.02
0.17765	39.02
0.19432	39.02
0.21098	39.02
0.22765	39.02
0.24432	39.02
0.26098	39.02
0.27765	39.02
0.29432	39.02
0.31098	39.02
0.32765	39.02
0.34432	39.02
0.36098	39.02
0.37765	39.02
0.39432	39.02
0.41098	39.02
0.42765	39.02
0.44432	39.02
0.46098	39.02
0.47765	39.02
0.49432	39.03
0.51098	39.03
0.52765	39.03
0.54432	39.03
0.56098	39.02
0.57765	39.02
0.59432	39.02
0.61098	39.02
0.62765	39.02
0.64432	39.02
0.66098	39.02
0.67765	39.02
0.69432	39.02
0.71098	39.02
0.72765	39.02
0.74432	39.02
0.76098	39.02
0.77765	39.02
0.79432	39.03
0.81098	39.03
0.82765	39.03
0.84432	39.03
0.86098	39.03
0.87765	39.03
0.89432	39.02
0.91098	39.02
0.92765	39.02
0.94432	39.02
0.96098	39.02
0.97765	39.02
0.99432	39.02
1.01098	39.02
1.02765	39.02
1.04432	39.02
1.06098	39.02
1.07765	39.02
1.09432	39.03
1.11098	39.03
1.12765	39.03
1.14432	39.03
1.16098	39.03
1.17765	39.03
1.19432	39.03
1.21098	39.02
1.22765	39.02
1.24432	39.02
1.26098	39.02
1.27765	39.03
1.29432	39.03
1.31098	39.03
1.32765	39.03
1.34432	39.03
1.36098	39.03
1.37765	39.02
1.39432	39.02
1.41098	39.02
1.42765	39.02
1.44432	39.02
1.46098	39.03
1.47765	39.03
1.49432	39.03
1.51098	39.02
1.52765	39.02
1.54432	39.02
1.56098	39.02
1.57765	39.02
1.59432	39.02
1.61098	39.02
1.62765	39.01
1.64432	38.99
1.66098	38.96
1.67765	38.93
1.69432	38.89
1.71098	38.86
1.72765	38.83
1.74432	38.79
1.76098	38.76
1.77765	38.73
1.79432	38.70
1.81098	38.67
1.82765	38.64
1.84432	38.61
1.86098	38.58
1.87765	38.54
1.89432	38.51
1.91098	38.48
1.92765	38.45
1.94432	38.42
1.96098	38.39
1.97765	38.36
1.99432	38.33
2.01098	38.30
2.02765	38.27
2.04432	38.24
2.06098	38.22
2.07765	38.18
2.09432	38.15
2.11098	38.13
2.12765	38.10
2.14432	38.07
2.16098	38.04
2.17765	38.00
2.19432	37.98
2.21098	37.94
2.22765	37.92
2.24432	37.89
2.26098	37.86
2.27765	37.83
2.29432	37.80
2.31098	37.77
2.32765	37.74
2.34432	37.71
2.36098	37.68
2.37765	37.67
2.39432	37.66
2.41098	37.66
2.42765	37.66
2.44432	37.66
2.46098	37.66
2.47765	37.66
2.49432	37.66
2.51098	37.66
2.52765	37.65
2.54432	37.66
2.56098	37.66
2.57765	37.66
2.59432	37.65
2.61098	37.65
2.62765	37.65
2.64432	37.65
2.66098	37.65
2.67765	37.65
2.69432	37.65
2.71098	37.65
2.72765	37.65
2.74432	37.65
2.76098	37.65
2.77765	37.65
2.79432	37.65
2.81098	37.65
2.82765	37.65
2.84432	37.65
2.86098	37.65
2.87765	37.65
2.89432	37.65
2.91098	37.65
2.92765	37.65
2.94432	37.65
2.96098	37.64
2.97765	37.64
2.99432	37.64
3.01098	37.64
3.02765	37.64
3.04432	37.64
3.06098	37.64
3.07765	37.64
3.09432	37.64
3.11098	37.64
3.12765	37.64
3.14432	37.64
3.16098	37.63
3.17765	37.63
3.19432	37.63
3.21098	37.63
3.22765	37.63
3.24432	37.63
3.26098	37.63
3.27765	37.63
3.29432	37.63
3.31098	37.63
3.32765	37.64
3.34432	37.64
3.36098	37.64
3.37765	37.64
3.39432	37.64
3.41098	37.64
3.42765	37.64
3.44432	37.63
3.46098	37.63
3.47765	37.63
3.49432	37.63
3.51098	37.64
3.52765	37.64
3.54432	37.64
3.56098	37.64
3.57765	37.64
3.59432	37.64
3.61098	37.63
3.62765	37.63
3.64432	37.63
3.66098	37.63
3.67765	37.63
3.69432	37.63
3.71098	37.63
3.72765	37.63
3.74432	37.63
3.76098	37.63
3.77765	37.63
3.79432	37.63
3.81098	37.63
3.82765	37.63
3.84432	37.63
3.86098	37.63
3.87765	37.63
3.89432	37.63
3.91098	37.63
3.92765	37.63
3.94432	37.63
3.96098	37.63
3.97765	37.63
3.99432	37.63

