[Header]
Application Name	LabSolutions
Version	5.110
Data File Name	C:\Users\User\Desktop\GC Analyses\Jack\Nachusa Grasslands Sampling\T4 Timepoint July 12th\T4_07122022_013.gcd
Output Date	3/17/2023
Output Time	12:04:51 PM

[File Information]
Type	Data File
Generated	3/14/2023 4:44:18 PM
Generated by	System Administrator
Modified	3/14/2023 4:51:06 PM
Modified by	System Administrator

[Sample Information]
Operator Name	System Administrator
Acquired	3/14/2023 4:47:04 PM
Sample Type	0:Unknown
Level	0
Sample Name	013
Sample ID	013
ISTD Amount1	1
ISTD Amount2	1
ISTD Amount3	1
ISTD Amount4	1
ISTD Amount5	1
ISTD Amount6	1
ISTD Amount7	1
ISTD Amount8	1
ISTD Amount9	1
ISTD Amount10	1
ISTD Amount11	1
ISTD Amount12	1
ISTD Amount13	1
ISTD Amount14	1
ISTD Amount15	1
ISTD Amount16	1
ISTD Amount17	1
ISTD Amount18	1
ISTD Amount19	1
ISTD Amount20	1
ISTD Amount21	1
ISTD Amount22	1
ISTD Amount23	1
ISTD Amount24	1
ISTD Amount25	1
ISTD Amount26	1
ISTD Amount27	1
ISTD Amount28	1
ISTD Amount29	1
ISTD Amount30	1
ISTD Amount31	1
ISTD Amount32	1
Sample Amount	1
Dilution Factor	1
Vial#	12
Injection Volume	1
Injection Count	1
Bar Code	

[Original Files]
Data File	C:\Users\User\Desktop\GC Analyses\Jack\Nachusa Grasslands Sampling\T4 Timepoint July 12th\T4_07122022_013.gcd
Method File	C:\LabSolutions\Data\GHG_4min_2022\ghg3_togas_w_acet_4 min_new_int.gcm
Batch File	C:\LabSolutions\Data\AutoSamplerTesting\T4_07122022.gcb
Report Format File	c:\LabSolutions\System\DEFAULT.lsr

[File Description]


[Configuration]
Instrument Name	C0B7VH3-Instrument1
Instrument #	1
Line #	1
# of Detectors	3
Detector ID	DET#1	DET#2	DET#3
Detector Name	FID	PTCD	ECD
# of Channels	1	1	1

[Peak Table(Ch1)]
# of Peaks	3
Peak#	R.Time	I.Time	F.Time	Area	Height	A/H	Conc.	Mark	ID#	Name	k'	Plate #	Plate Ht.	Tailing	Resolution	Sep.Factor	Area Ratio	Height Ratio	Conc. %	Norm Conc.
1	1.476	1.443	1.531	23475	11694	2.007	165.732	   	1	CO	0.000	9765	15.361	1.260	0.000	0.000	0	0	13.992	13.992
2	1.571	1.538	1.604	3260	1758	1.854	63.031	   	2	CH4	0.065	12510	11.990	1.034	1.645	0.000	0	0	5.322	5.322
3	1.996	1.949	2.429	3807924	1827387	2.084	955.686	   	3	CO2	0.353	17231	8.705	1.313	7.270	5.462	0	0	80.686	80.686

[Peak Table(Ch2)]
# of Peaks	0

[Peak Table(Ch3)]
# of Peaks	5
Peak#	R.Time	I.Time	F.Time	Area	Height	A/H	Conc.	Mark	ID#	Name	k'	Plate #	Plate Ht.	Tailing	Resolution	Sep.Factor	Area Ratio	Height Ratio	Conc. %	Norm Conc.
1	2.462	2.293	2.510	2205	627	3.518	0.000	   			0.000	8577	17.488	0.000	0.000	0.000	0	0	0.000	0.000
2	2.528	2.510	2.583	1256	388	3.239	0.000	 V 			0.027	4303	34.858	0.000	0.507	0.000	0	0	0.000	0.000
3	2.598	2.583	2.675	616	206	2.984	0.000	 V 			0.055	2335	64.252	0.000	0.377	2.056	0	0	0.000	0.000
4	2.880	2.697	3.071	18975	4853	3.910	0.485	   	1	N2O	0.170	13096	11.454	1.478	1.789	3.081	0	0	100.000	100.000
5	3.309	3.118	3.962	16051	552	29.054	0.000	   	2	SF6	0.344	216	693.269	2.179	0.858	2.026	0	0	0.000	0.000

[Compound Results(Ch1)]
# of IDs	6
ID#	Name	R.Time	Area	Height	Conc.	Curve	3rd	2nd	1st	Constant	Area Ratio	Height Ratio	Conc. %	Norm Conc.
1	CO	1.476	23475	11694	165.732	Linear	0.000000e+00	0.000000e+00	1.416423e+002	0.000000e+00	0	0	13.992	13.992
2	CH4	1.571	3260	1758	63.031	Linear	0.000000e+00	0.000000e+00	5.171738e+001	0.000000e+00	0	0	5.322	5.322
3	CO2	1.996	3807924	1827387	955.686	Linear	0.000000e+00	0.000000e+00	3.984494e+003	0.000000e+00	0	0	80.686	80.686
4	Ethylene	0.000	0	0	0.000	Linear	0.000000e+00	0.000000e+00	0.000000e+00	0.000000e+00	0	0	0.000	0.000
5	Acetylene	0.000	0	0	0.000	Linear	0.000000e+00	0.000000e+00	0.000000e+00	0.000000e+00	0	0	0.000	0.000
6	Ethane	0.000	0	0	0.000	Linear	0.000000e+00	0.000000e+00	0.000000e+00	0.000000e+00	0	0	0.000	0.000

[Compound Results(Ch2)]
# of IDs	5
ID#	Name	R.Time	Area	Height	Conc.	Curve	3rd	2nd	1st	Constant	Area Ratio	Height Ratio	Conc. %	Norm Conc.
1	Hydrogen	0.000	0	0	0.000	Linear	0.000000e+00	0.000000e+00	0.000000e+00	0.000000e+00	0	0	0.000	0.000
2	Oxygen	0.000	0	0	0.000	Linear	0.000000e+00	0.000000e+00	0.000000e+00	0.000000e+00	0	0	0.000	0.000
3	Nitrogen	0.000	0	0	0.000	Linear	0.000000e+00	0.000000e+00	0.000000e+00	0.000000e+00	0	0	0.000	0.000
4	Methane	0.000	0	0	0.000	Linear	0.000000e+00	0.000000e+00	0.000000e+00	0.000000e+00	0	0	0.000	0.000
5	Carbon Monoxide	0.000	0	0	0.000	Linear	0.000000e+00	0.000000e+00	0.000000e+00	0.000000e+00	0	0	0.000	0.000

[Compound Results(Ch3)]
# of IDs	2
ID#	Name	R.Time	Area	Height	Conc.	Curve	3rd	2nd	1st	Constant	Area Ratio	Height Ratio	Conc. %	Norm Conc.
1	N2O	2.880	18975	4853	0.485	Linear	0.000000e+00	0.000000e+00	3.915173e+004	0.000000e+00	0	0	100.000	100.000
2	SF6	3.309	16051	552	0.000	Linear	0.000000e+00	0.000000e+00	0.000000e+00	0.000000e+00	0	0	0.000	0.000

[Group Results(Ch1)]
# of Groups	0

[Group Results(Ch2)]
# of Groups	0

[Group Results(Ch3)]
# of Groups	0

[Chromatogram (Ch1)]
Interval(msec)	220
# of Points	1091
Start Time(min)	0.002
End Time(min)	3.998
R.Time (min)	Intensity
0.00167	3
0.00533	3
0.00900	3
0.01267	6
0.01633	7
0.02000	7
0.02367	6
0.02733	4
0.03100	1
0.03467	1
0.03833	-1
0.04200	-6
0.04567	-9
0.04933	-10
0.05300	-12
0.05667	-14
0.06033	-12
0.06400	-6
0.06767	2
0.07133	7
0.07500	6
0.07867	3
0.08233	1
0.08600	-0
0.08967	1
0.09333	5
0.09700	9
0.10067	15
0.10433	15
0.10800	8
0.11167	3
0.11533	3
0.11900	7
0.12267	16
0.12633	28
0.13000	41
0.13367	47
0.13733	48
0.14100	47
0.14467	44
0.14833	44
0.15200	52
0.15567	63
0.15933	71
0.16300	72
0.16667	71
0.17033	69
0.17400	59
0.17767	52
0.18133	51
0.18500	52
0.18867	53
0.19233	56
0.19600	62
0.19967	68
0.20333	72
0.20700	74
0.21067	71
0.21433	65
0.21800	55
0.22167	52
0.22533	54
0.22900	53
0.23267	46
0.23633	35
0.24000	26
0.24367	22
0.24733	19
0.25100	21
0.25467	30
0.25833	35
0.26200	36
0.26567	35
0.26933	28
0.27300	24
0.27667	24
0.28033	21
0.28400	18
0.28767	15
0.29133	15
0.29500	14
0.29867	11
0.30233	11
0.30600	12
0.30967	14
0.31333	12
0.31700	5
0.32067	4
0.32433	1
0.32800	-0
0.33167	4
0.33533	10
0.33900	14
0.34267	15
0.34633	17
0.35000	16
0.35367	12
0.35733	10
0.36100	3
0.36467	-3
0.36833	-7
0.37200	-5
0.37567	-1
0.37933	3
0.38300	8
0.38667	12
0.39033	15
0.39400	13
0.39767	9
0.40133	7
0.40500	8
0.40867	8
0.41233	7
0.41600	11
0.41967	17
0.42333	24
0.42700	29
0.43067	27
0.43433	18
0.43800	6
0.44167	-6
0.44533	-10
0.44900	-9
0.45267	-4
0.45633	3
0.46000	7
0.46367	6
0.46733	4
0.47100	5
0.47467	11
0.47833	12
0.48200	7
0.48567	3
0.48933	-3
0.49300	-8
0.49667	-11
0.50033	-7
0.50400	3
0.50767	17
0.51133	22
0.51500	16
0.51867	6
0.52233	-2
0.52600	-8
0.52967	-12
0.53333	-15
0.53700	-10
0.54067	-2
0.54433	4
0.54800	9
0.55167	8
0.55533	6
0.55900	3
0.56267	-0
0.56633	-6
0.57000	-12
0.57367	-16
0.57733	-16
0.58100	-17
0.58467	-19
0.58833	-15
0.59200	-8
0.59567	-4
0.59933	-4
0.60300	-3
0.60667	-2
0.61033	-4
0.61400	-3
0.61767	4
0.62133	11
0.62500	14
0.62867	11
0.63233	7
0.63600	3
0.63967	-0
0.64333	4
0.64700	12
0.65067	16
0.65433	17
0.65800	15
0.66167	15
0.66533	16
0.66900	12
0.67267	9
0.67633	9
0.68000	8
0.68367	6
0.68733	2
0.69100	5
0.69467	14
0.69833	16
0.70200	14
0.70567	12
0.70933	14
0.71300	20
0.71667	29
0.72033	39
0.72400	48
0.72767	49
0.73133	41
0.73500	25
0.73867	6
0.74233	-5
0.74600	-10
0.74967	-17
0.75333	-21
0.75700	-22
0.76067	-22
0.76433	-19
0.76800	-15
0.77167	-16
0.77533	-16
0.77900	-15
0.78267	-16
0.78633	-17
0.79000	-21
0.79367	-19
0.79733	-11
0.80100	-4
0.80467	1
0.80833	6
0.81200	9
0.81567	10
0.81933	10
0.82300	9
0.82667	2
0.83033	-8
0.83400	-16
0.83767	-22
0.84133	-24
0.84500	-20
0.84867	-14
0.85233	-4
0.85600	8
0.85967	14
0.86333	15
0.86700	12
0.87067	13
0.87433	14
0.87800	17
0.88167	17
0.88533	10
0.88900	3
0.89267	-2
0.89633	-4
0.90000	-2
0.90367	0
0.90733	-0
0.91100	-2
0.91467	-3
0.91833	-6
0.92200	-7
0.92567	-9
0.92933	-12
0.93300	-14
0.93667	-17
0.94033	-14
0.94400	-8
0.94767	-1
0.95133	3
0.95500	1
0.95867	0
0.96233	4
0.96600	12
0.96967	21
0.97333	20
0.97700	10
0.98067	-3
0.98433	-15
0.98800	-20
0.99167	-20
0.99533	-21
0.99900	-20
1.00267	-16
1.00633	-19
1.01000	-22
1.01367	-20
1.01733	-14
1.02100	-6
1.02467	4
1.02833	13
1.03200	19
1.03567	22
1.03933	17
1.04300	8
1.04667	3
1.05033	3
1.05400	1
1.05767	-3
1.06133	-7
1.06500	-11
1.06867	-16
1.07233	-17
1.07600	-10
1.07967	0
1.08333	8
1.08700	16
1.09067	25
1.09433	28
1.09800	21
1.10167	9
1.10533	-6
1.10900	-19
1.11267	-29
1.11633	-41
1.12000	-48
1.12367	-49
1.12733	-47
1.13100	-47
1.13467	-45
1.13833	-41
1.14200	-36
1.14567	-40
1.14933	-44
1.15300	-37
1.15667	-26
1.16033	-21
1.16400	-21
1.16767	-20
1.17133	-22
1.17500	-25
1.17867	-29
1.18233	-27
1.18600	-22
1.18967	-14
1.19333	-5
1.19700	4
1.20067	6
1.20433	-0
1.20800	-11
1.21167	-20
1.21533	-28
1.21900	-29
1.22267	-22
1.22633	-17
1.23000	-19
1.23367	-26
1.23733	-37
1.24100	-44
1.24467	-47
1.24833	-54
1.25200	-61
1.25567	-63
1.25933	-59
1.26300	-51
1.26667	-42
1.27033	-32
1.27400	-19
1.27767	-12
1.28133	-11
1.28500	-9
1.28867	-9
1.29233	-10
1.29600	-14
1.29967	-17
1.30333	-22
1.30700	-30
1.31067	-37
1.31433	-43
1.31800	-45
1.32167	-46
1.32533	-44
1.32900	-39
1.33267	-34
1.33633	-32
1.34000	-34
1.34367	-39
1.34733	-38
1.35100	-36
1.35467	-32
1.35833	-22
1.36200	-13
1.36567	-10
1.36933	-15
1.37300	-23
1.37667	-27
1.38033	-24
1.38400	-18
1.38767	-15
1.39133	-18
1.39500	-28
1.39867	-38
1.40233	-46
1.40600	-50
1.40967	-49
1.41333	-45
1.41700	-42
1.42067	-40
1.42433	-36
1.42800	-34
1.43167	-32
1.43533	-31
1.43900	-29
1.44267	-4
1.44633	119
1.45000	504
1.45367	1483
1.45733	3266
1.46100	5559
1.46467	7826
1.46833	9701
1.47200	11022
1.47567	11684
1.47933	11571
1.48300	10657
1.48667	9123
1.49033	7291
1.49400	5487
1.49767	3931
1.50133	2708
1.50500	1806
1.50867	1166
1.51233	724
1.51600	428
1.51967	233
1.52333	106
1.52700	27
1.53067	-20
1.53433	-52
1.53800	-68
1.54167	-46
1.54533	68
1.54900	310
1.55267	647
1.55633	1009
1.56000	1329
1.56367	1568
1.56733	1710
1.57100	1728
1.57467	1606
1.57833	1371
1.58200	1080
1.58567	792
1.58933	538
1.59300	333
1.59667	181
1.60033	76
1.60400	7
1.60767	-35
1.61133	-62
1.61500	-78
1.61867	-90
1.62233	-98
1.62600	-101
1.62967	-99
1.63333	-95
1.63700	-94
1.64067	-93
1.64433	-87
1.64800	-85
1.65167	-89
1.65533	-93
1.65900	-96
1.66267	-99
1.66633	-101
1.67000	-102
1.67367	-100
1.67733	-97
1.68100	-98
1.68467	-102
1.68833	-104
1.69200	-105
1.69567	-104
1.69933	-105
1.70300	-107
1.70667	-109
1.71033	-108
1.71400	-104
1.71767	-100
1.72133	-98
1.72500	-95
1.72867	-88
1.73233	-81
1.73600	-82
1.73967	-87
1.74333	-94
1.74700	-98
1.75067	-98
1.75433	-95
1.75800	-94
1.76167	-93
1.76533	-90
1.76900	-88
1.77267	-88
1.77633	-89
1.78000	-87
1.78367	-86
1.78733	-89
1.79100	-87
1.79467	-84
1.79833	-79
1.80200	-78
1.80567	-81
1.80933	-85
1.81300	-93
1.81667	-106
1.82033	-116
1.82400	-117
1.82767	-113
1.83133	-112
1.83500	-114
1.83867	-115
1.84233	-116
1.84600	-114
1.84967	-111
1.85333	-108
1.85700	-107
1.86067	-104
1.86433	-98
1.86800	-91
1.87167	-87
1.87533	-87
1.87900	-85
1.88267	-80
1.88633	-75
1.89000	-77
1.89367	-89
1.89733	-105
1.90100	-117
1.90467	-124
1.90833	-124
1.91200	-122
1.91567	-116
1.91933	-113
1.92300	-113
1.92667	-113
1.93033	-109
1.93400	-102
1.93767	-98
1.94133	-93
1.94500	-91
1.94867	-87
1.95233	-62
1.95600	118
1.95967	1305
1.96333	7376
1.96700	30770
1.97067	99134
1.97433	250724
1.97800	507497
1.98167	846113
1.98533	1204860
1.98900	1516963
1.99267	1733261
1.99633	1827329
2.00000	1793779
2.00367	1647860
2.00733	1422249
2.01100	1158520
2.01467	896480
2.01833	664776
2.02200	477137
2.02567	334805
2.02933	231832
2.03300	159757
2.03667	110401
2.04033	77032
2.04400	54601
2.04767	39507
2.05133	29276
2.05500	22263
2.05867	17384
2.06233	13925
2.06600	11417
2.06967	9559
2.07333	8147
2.07700	7048
2.08067	6177
2.08433	5474
2.08800	4905
2.09167	4432
2.09533	4035
2.09900	3696
2.10267	3399
2.10633	3140
2.11000	2912
2.11367	2710
2.11733	2532
2.12100	2369
2.12467	2230
2.12833	2107
2.13200	1992
2.13567	1882
2.13933	1782
2.14300	1693
2.14667	1611
2.15033	1532
2.15400	1463
2.15767	1407
2.16133	1357
2.16500	1305
2.16867	1251
2.17233	1195
2.17600	1141
2.17967	1090
2.18333	1048
2.18700	1010
2.19067	969
2.19433	922
2.19800	876
2.20167	838
2.20533	808
2.20900	786
2.21267	768
2.21633	750
2.22000	733
2.22367	719
2.22733	705
2.23100	691
2.23467	678
2.23833	662
2.24200	641
2.24567	616
2.24933	591
2.25300	566
2.25667	542
2.26033	519
2.26400	503
2.26767	493
2.27133	487
2.27500	481
2.27867	475
2.28233	468
2.28600	460
2.28967	453
2.29333	443
2.29700	434
2.30067	428
2.30433	419
2.30800	407
2.31167	394
2.31533	384
2.31900	373
2.32267	364
2.32633	358
2.33000	355
2.33367	350
2.33733	345
2.34100	339
2.34467	336
2.34833	329
2.35200	323
2.35567	316
2.35933	314
2.36300	313
2.36667	309
2.37033	306
2.37400	306
2.37767	307
2.38133	309
2.38500	307
2.38867	309
2.39233	308
2.39600	299
2.39967	284
2.40333	268
2.40700	252
2.41067	237
2.41433	223
2.41800	212
2.42167	205
2.42533	202
2.42900	202
2.43267	200
2.43633	199
2.44000	205
2.44367	208
2.44733	207
2.45100	202
2.45467	198
2.45833	202
2.46200	211
2.46567	217
2.46933	217
2.47300	215
2.47667	208
2.48033	201
2.48400	201
2.48767	204
2.49133	204
2.49500	198
2.49867	189
2.50233	180
2.50600	172
2.50967	169
2.51333	167
2.51700	164
2.52067	165
2.52433	175
2.52800	188
2.53167	192
2.53533	193
2.53900	191
2.54267	190
2.54633	188
2.55000	190
2.55367	191
2.55733	192
2.56100	196
2.56467	198
2.56833	197
2.57200	195
2.57567	193
2.57933	191
2.58300	191
2.58667	190
2.59033	187
2.59400	183
2.59767	183
2.60133	185
2.60500	184
2.60867	180
2.61233	172
2.61600	167
2.61967	173
2.62333	178
2.62700	175
2.63067	170
2.63433	166
2.63800	168
2.64167	177
2.64533	186
2.64900	188
2.65267	178
2.65633	164
2.66000	151
2.66367	145
2.66733	143
2.67100	146
2.67467	150
2.67833	151
2.68200	151
2.68567	155
2.68933	163
2.69300	173
2.69667	182
2.70033	185
2.70400	186
2.70767	181
2.71133	176
2.71500	176
2.71867	178
2.72233	180
2.72600	174
2.72967	167
2.73333	167
2.73700	170
2.74067	172
2.74433	174
2.74800	172
2.75167	169
2.75533	171
2.75900	169
2.76267	162
2.76633	159
2.77000	160
2.77367	162
2.77733	161
2.78100	161
2.78467	160
2.78833	159
2.79200	162
2.79567	164
2.79933	161
2.80300	155
2.80667	149
2.81033	142
2.81400	138
2.81767	138
2.82133	139
2.82500	141
2.82867	141
2.83233	141
2.83600	143
2.83967	147
2.84333	153
2.84700	157
2.85067	157
2.85433	154
2.85800	150
2.86167	151
2.86533	159
2.86900	166
2.87267	171
2.87633	178
2.88000	185
2.88367	182
2.88733	174
2.89100	160
2.89467	144
2.89833	132
2.90200	131
2.90567	138
2.90933	144
2.91300	148
2.91667	149
2.92033	146
2.92400	139
2.92767	134
2.93133	133
2.93500	130
2.93867	129
2.94233	131
2.94600	136
2.94967	140
2.95333	138
2.95700	135
2.96067	137
2.96433	143
2.96800	147
2.97167	156
2.97533	169
2.97900	183
2.98267	190
2.98633	192
2.99000	192
2.99367	189
2.99733	184
3.00100	176
3.00467	167
3.00833	158
3.01200	152
3.01567	148
3.01933	148
3.02300	148
3.02667	147
3.03033	145
3.03400	150
3.03767	153
3.04133	151
3.04500	152
3.04867	159
3.05233	169
3.05600	171
3.05967	164
3.06333	160
3.06700	154
3.07067	153
3.07433	156
3.07800	155
3.08167	155
3.08533	154
3.08900	155
3.09267	158
3.09633	158
3.10000	160
3.10367	162
3.10733	161
3.11100	154
3.11467	147
3.11833	147
3.12200	150
3.12567	156
3.12933	158
3.13300	159
3.13667	161
3.14033	157
3.14400	149
3.14767	146
3.15133	150
3.15500	158
3.15867	166
3.16233	171
3.16600	170
3.16967	163
3.17333	158
3.17700	152
3.18067	151
3.18433	147
3.18800	145
3.19167	147
3.19533	154
3.19900	162
3.20267	162
3.20633	159
3.21000	155
3.21367	156
3.21733	156
3.22100	152
3.22467	150
3.22833	148
3.23200	148
3.23567	151
3.23933	157
3.24300	169
3.24667	177
3.25033	179
3.25400	178
3.25767	171
3.26133	164
3.26500	154
3.26867	142
3.27233	132
3.27600	129
3.27967	129
3.28333	129
3.28700	129
3.29067	131
3.29433	136
3.29800	139
3.30167	144
3.30533	156
3.30900	165
3.31267	168
3.31633	172
3.32000	176
3.32367	181
3.32733	182
3.33100	176
3.33467	167
3.33833	157
3.34200	148
3.34567	145
3.34933	144
3.35300	142
3.35667	140
3.36033	139
3.36400	141
3.36767	144
3.37133	148
3.37500	155
3.37867	160
3.38233	157
3.38600	151
3.38967	150
3.39333	156
3.39700	157
3.40067	155
3.40433	152
3.40800	150
3.41167	153
3.41533	153
3.41900	145
3.42267	140
3.42633	142
3.43000	147
3.43367	153
3.43733	157
3.44100	155
3.44467	151
3.44833	149
3.45200	154
3.45567	162
3.45933	166
3.46300	166
3.46667	161
3.47033	150
3.47400	139
3.47767	133
3.48133	126
3.48500	120
3.48867	113
3.49233	99
3.49600	86
3.49967	88
3.50333	99
3.50700	109
3.51067	114
3.51433	111
3.51800	113
3.52167	118
3.52533	126
3.52900	133
3.53267	135
3.53633	132
3.54000	125
3.54367	120
3.54733	122
3.55100	130
3.55467	140
3.55833	149
3.56200	151
3.56567	150
3.56933	148
3.57300	145
3.57667	149
3.58033	150
3.58400	144
3.58767	135
3.59133	133
3.59500	136
3.59867	137
3.60233	134
3.60600	128
3.60967	124
3.61333	125
3.61700	131
3.62067	135
3.62433	131
3.62800	122
3.63167	115
3.63533	117
3.63900	125
3.64267	127
3.64633	129
3.65000	132
3.65367	136
3.65733	140
3.66100	138
3.66467	133
3.66833	130
3.67200	125
3.67567	119
3.67933	117
3.68300	119
3.68667	117
3.69033	113
3.69400	112
3.69767	114
3.70133	112
3.70500	108
3.70867	112
3.71233	115
3.71600	113
3.71967	115
3.72333	120
3.72700	121
3.73067	120
3.73433	118
3.73800	113
3.74167	111
3.74533	116
3.74900	124
3.75267	125
3.75633	118
3.76000	111
3.76367	105
3.76733	106
3.77100	114
3.77467	119
3.77833	117
3.78200	109
3.78567	100
3.78933	96
3.79300	97
3.79667	93
3.80033	90
3.80400	94
3.80767	97
3.81133	97
3.81500	99
3.81867	105
3.82233	114
3.82600	124
3.82967	131
3.83333	133
3.83700	131
3.84067	125
3.84433	116
3.84800	103
3.85167	91
3.85533	84
3.85900	79
3.86267	71
3.86633	63
3.87000	62
3.87367	66
3.87733	71
3.88100	75
3.88467	76
3.88833	77
3.89200	78
3.89567	80
3.89933	81
3.90300	83
3.90667	81
3.91033	87
3.91400	94
3.91767	94
3.92133	90
3.92500	88
3.92867	85
3.93233	81
3.93600	81
3.93967	80
3.94333	82
3.94700	83
3.95067	87
3.95433	90
3.95800	95
3.96167	98
3.96533	96
3.96900	97
3.97267	97
3.97633	91
3.98000	83
3.98367	75
3.98733	69
3.99100	66
3.99467	69
3.99833	76

[Chromatogram (Ch2)]
Interval(msec)	220
# of Points	1091
Start Time(min)	0.002
End Time(min)	3.998
R.Time (min)	Intensity
0.00167	-0
0.00533	-1
0.00900	-1
0.01267	-1
0.01633	-1
0.02000	-1
0.02367	-1
0.02733	-1
0.03100	-1
0.03467	-1
0.03833	-2
0.04200	-2
0.04567	-2
0.04933	-3
0.05300	-3
0.05667	-3
0.06033	-4
0.06400	-4
0.06767	-4
0.07133	-4
0.07500	-5
0.07867	-5
0.08233	-5
0.08600	-5
0.08967	-4
0.09333	-4
0.09700	-4
0.10067	-4
0.10433	-4
0.10800	-4
0.11167	-4
0.11533	-4
0.11900	-3
0.12267	-3
0.12633	-3
0.13000	-3
0.13367	-3
0.13733	-4
0.14100	-4
0.14467	-4
0.14833	-3
0.15200	-3
0.15567	-3
0.15933	-3
0.16300	-3
0.16667	-2
0.17033	-2
0.17400	-2
0.17767	-1
0.18133	-1
0.18500	-0
0.18867	0
0.19233	1
0.19600	1
0.19967	1
0.20333	1
0.20700	1
0.21067	1
0.21433	1
0.21800	0
0.22167	-0
0.22533	-1
0.22900	-1
0.23267	-1
0.23633	-1
0.24000	-1
0.24367	-1
0.24733	-1
0.25100	-1
0.25467	-1
0.25833	-0
0.26200	-1
0.26567	-1
0.26933	-1
0.27300	-1
0.27667	-2
0.28033	-2
0.28400	-2
0.28767	-3
0.29133	-3
0.29500	-3
0.29867	-4
0.30233	-4
0.30600	-4
0.30967	-4
0.31333	-4
0.31700	-4
0.32067	-4
0.32433	-5
0.32800	-5
0.33167	-5
0.33533	-5
0.33900	-6
0.34267	-6
0.34633	-6
0.35000	-5
0.35367	-5
0.35733	-5
0.36100	-5
0.36467	-5
0.36833	-4
0.37200	-4
0.37567	-4
0.37933	-4
0.38300	-4
0.38667	-4
0.39033	-3
0.39400	-3
0.39767	-3
0.40133	-3
0.40500	-3
0.40867	-3
0.41233	-2
0.41600	-2
0.41967	-2
0.42333	-1
0.42700	-1
0.43067	-1
0.43433	-0
0.43800	-0
0.44167	0
0.44533	0
0.44900	-0
0.45267	-0
0.45633	-1
0.46000	-1
0.46367	-1
0.46733	-2
0.47100	-2
0.47467	-3
0.47833	-3
0.48200	-3
0.48567	-4
0.48933	-4
0.49300	-4
0.49667	-4
0.50033	-5
0.50400	-5
0.50767	-5
0.51133	-5
0.51500	-5
0.51867	-5
0.52233	-6
0.52600	-6
0.52967	-6
0.53333	-6
0.53700	-7
0.54067	-7
0.54433	-7
0.54800	-7
0.55167	-6
0.55533	-6
0.55900	-6
0.56267	-5
0.56633	-5
0.57000	-4
0.57367	-4
0.57733	-3
0.58100	-3
0.58467	-2
0.58833	-2
0.59200	-1
0.59567	-1
0.59933	-1
0.60300	-1
0.60667	-1
0.61033	-1
0.61400	-1
0.61767	-2
0.62133	-2
0.62500	-2
0.62867	-3
0.63233	-3
0.63600	-3
0.63967	-3
0.64333	-2
0.64700	-2
0.65067	-2
0.65433	-2
0.65800	-3
0.66167	-3
0.66533	-3
0.66900	-3
0.67267	-3
0.67633	-3
0.68000	-3
0.68367	-3
0.68733	-3
0.69100	-3
0.69467	-3
0.69833	-3
0.70200	-3
0.70567	-4
0.70933	-4
0.71300	-4
0.71667	-4
0.72033	-5
0.72400	-5
0.72767	-5
0.73133	-5
0.73500	-5
0.73867	-6
0.74233	-6
0.74600	-6
0.74967	-6
0.75333	-6
0.75700	-6
0.76067	-6
0.76433	-6
0.76800	-5
0.77167	-5
0.77533	-5
0.77900	-5
0.78267	-5
0.78633	-5
0.79000	-5
0.79367	-5
0.79733	-5
0.80100	-5
0.80467	-5
0.80833	-5
0.81200	-4
0.81567	-4
0.81933	-4
0.82300	-4
0.82667	-4
0.83033	-4
0.83400	-4
0.83767	-4
0.84133	-4
0.84500	-3
0.84867	-3
0.85233	-4
0.85600	-4
0.85967	-4
0.86333	-4
0.86700	-4
0.87067	-4
0.87433	-4
0.87800	-4
0.88167	-4
0.88533	-4
0.88900	-4
0.89267	-4
0.89633	-4
0.90000	-4
0.90367	-4
0.90733	-4
0.91100	-4
0.91467	-4
0.91833	-4
0.92200	-4
0.92567	-4
0.92933	-4
0.93300	-3
0.93667	-3
0.94033	-3
0.94400	-3
0.94767	-3
0.95133	-3
0.95500	-3
0.95867	-3
0.96233	-3
0.96600	-3
0.96967	-3
0.97333	-4
0.97700	-4
0.98067	-5
0.98433	-6
0.98800	-6
0.99167	-7
0.99533	-7
0.99900	-7
1.00267	-7
1.00633	-7
1.01000	-7
1.01367	-7
1.01733	-6
1.02100	-6
1.02467	-6
1.02833	-6
1.03200	-6
1.03567	-6
1.03933	-6
1.04300	-6
1.04667	-6
1.05033	-6
1.05400	-6
1.05767	-6
1.06133	-6
1.06500	-5
1.06867	-5
1.07233	-5
1.07600	-5
1.07967	-4
1.08333	-4
1.08700	-4
1.09067	-4
1.09433	-4
1.09800	-4
1.10167	-4
1.10533	-4
1.10900	-4
1.11267	-4
1.11633	-4
1.12000	-5
1.12367	-5
1.12733	-5
1.13100	-5
1.13467	-5
1.13833	-5
1.14200	-5
1.14567	-5
1.14933	-5
1.15300	-5
1.15667	-4
1.16033	-4
1.16400	-3
1.16767	-3
1.17133	-3
1.17500	-3
1.17867	-3
1.18233	-3
1.18600	-3
1.18967	-3
1.19333	-3
1.19700	-3
1.20067	-4
1.20433	-4
1.20800	-4
1.21167	-4
1.21533	-4
1.21900	-5
1.22267	-5
1.22633	-5
1.23000	-5
1.23367	-6
1.23733	-6
1.24100	-6
1.24467	-6
1.24833	-6
1.25200	-6
1.25567	-7
1.25933	-7
1.26300	-7
1.26667	-8
1.27033	-8
1.27400	-8
1.27767	-8
1.28133	-9
1.28500	-9
1.28867	-9
1.29233	-10
1.29600	-9
1.29967	-9
1.30333	-9
1.30700	-8
1.31067	-8
1.31433	-8
1.31800	-7
1.32167	-7
1.32533	-7
1.32900	-7
1.33267	-7
1.33633	-7
1.34000	-7
1.34367	-7
1.34733	-6
1.35100	-6
1.35467	-6
1.35833	-5
1.36200	-5
1.36567	-5
1.36933	-5
1.37300	-4
1.37667	-4
1.38033	-4
1.38400	-3
1.38767	-3
1.39133	-4
1.39500	-4
1.39867	-4
1.40233	-4
1.40600	-4
1.40967	-4
1.41333	-4
1.41700	-4
1.42067	-4
1.42433	-4
1.42800	-4
1.43167	-4
1.43533	-4
1.43900	-4
1.44267	-4
1.44633	-5
1.45000	-5
1.45367	-5
1.45733	-5
1.46100	-5
1.46467	-5
1.46833	-5
1.47200	-5
1.47567	-5
1.47933	-6
1.48300	-6
1.48667	-6
1.49033	-6
1.49400	-6
1.49767	-6
1.50133	-6
1.50500	-6
1.50867	-6
1.51233	-6
1.51600	-5
1.51967	-5
1.52333	-5
1.52700	-5
1.53067	-5
1.53433	-5
1.53800	-5
1.54167	-5
1.54533	-5
1.54900	-6
1.55267	-6
1.55633	-6
1.56000	-7
1.56367	-7
1.56733	-7
1.57100	-7
1.57467	-7
1.57833	-7
1.58200	-7
1.58567	-7
1.58933	-8
1.59300	-8
1.59667	-8
1.60033	-9
1.60400	-10
1.60767	-11
1.61133	-13
1.61500	-14
1.61867	-17
1.62233	-19
1.62600	-22
1.62967	-25
1.63333	-28
1.63700	-32
1.64067	-35
1.64433	-39
1.64800	-43
1.65167	-46
1.65533	-50
1.65900	-54
1.66267	-58
1.66633	-62
1.67000	-66
1.67367	-71
1.67733	-76
1.68100	-80
1.68467	-85
1.68833	-89
1.69200	-93
1.69567	-97
1.69933	-100
1.70300	-102
1.70667	-105
1.71033	-106
1.71400	-107
1.71767	-108
1.72133	-109
1.72500	-109
1.72867	-109
1.73233	-109
1.73600	-109
1.73967	-110
1.74333	-110
1.74700	-110
1.75067	-111
1.75433	-112
1.75800	-113
1.76167	-114
1.76533	-115
1.76900	-116
1.77267	-116
1.77633	-117
1.78000	-117
1.78367	-117
1.78733	-116
1.79100	-116
1.79467	-115
1.79833	-115
1.80200	-115
1.80567	-116
1.80933	-116
1.81300	-116
1.81667	-117
1.82033	-118
1.82400	-118
1.82767	-118
1.83133	-119
1.83500	-119
1.83867	-118
1.84233	-118
1.84600	-117
1.84967	-116
1.85333	-115
1.85700	-114
1.86067	-114
1.86433	-113
1.86800	-113
1.87167	-113
1.87533	-114
1.87900	-114
1.88267	-115
1.88633	-116
1.89000	-117
1.89367	-118
1.89733	-118
1.90100	-119
1.90467	-119
1.90833	-119
1.91200	-118
1.91567	-118
1.91933	-117
1.92300	-116
1.92667	-116
1.93033	-116
1.93400	-115
1.93767	-115
1.94133	-114
1.94500	-113
1.94867	-112
1.95233	-112
1.95600	-111
1.95967	-111
1.96333	-110
1.96700	-111
1.97067	-111
1.97433	-112
1.97800	-112
1.98167	-112
1.98533	-113
1.98900	-113
1.99267	-113
1.99633	-113
2.00000	-112
2.00367	-111
2.00733	-111
2.01100	-110
2.01467	-110
2.01833	-110
2.02200	-110
2.02567	-110
2.02933	-110
2.03300	-110
2.03667	-110
2.04033	-109
2.04400	-109
2.04767	-109
2.05133	-109
2.05500	-108
2.05867	-108
2.06233	-107
2.06600	-107
2.06967	-106
2.07333	-105
2.07700	-105
2.08067	-105
2.08433	-105
2.08800	-105
2.09167	-104
2.09533	-104
2.09900	-104
2.10267	-103
2.10633	-103
2.11000	-102
2.11367	-102
2.11733	-102
2.12100	-102
2.12467	-103
2.12833	-103
2.13200	-102
2.13567	-102
2.13933	-101
2.14300	-100
2.14667	-99
2.15033	-98
2.15400	-97
2.15767	-97
2.16133	-96
2.16500	-96
2.16867	-96
2.17233	-96
2.17600	-96
2.17967	-95
2.18333	-95
2.18700	-95
2.19067	-95
2.19433	-95
2.19800	-95
2.20167	-95
2.20533	-95
2.20900	-95
2.21267	-94
2.21633	-94
2.22000	-93
2.22367	-92
2.22733	-92
2.23100	-91
2.23467	-90
2.23833	-89
2.24200	-89
2.24567	-89
2.24933	-89
2.25300	-89
2.25667	-88
2.26033	-88
2.26400	-88
2.26767	-88
2.27133	-88
2.27500	-88
2.27867	-89
2.28233	-90
2.28600	-91
2.28967	-92
2.29333	-92
2.29700	-92
2.30067	-92
2.30433	-91
2.30800	-90
2.31167	-89
2.31533	-88
2.31900	-87
2.32267	-87
2.32633	-87
2.33000	-87
2.33367	-87
2.33733	-86
2.34100	-86
2.34467	-84
2.34833	-83
2.35200	-81
2.35567	-79
2.35933	-77
2.36300	-75
2.36667	-73
2.37033	-70
2.37400	-67
2.37767	-64
2.38133	-60
2.38500	-55
2.38867	-51
2.39233	-47
2.39600	-42
2.39967	-38
2.40333	-34
2.40700	-30
2.41067	-26
2.41433	-22
2.41800	-19
2.42167	-17
2.42533	-15
2.42900	-14
2.43267	-13
2.43633	-12
2.44000	-11
2.44367	-11
2.44733	-10
2.45100	-10
2.45467	-9
2.45833	-8
2.46200	-7
2.46567	-6
2.46933	-4
2.47300	-3
2.47667	-2
2.48033	-2
2.48400	-1
2.48767	-0
2.49133	1
2.49500	1
2.49867	2
2.50233	2
2.50600	3
2.50967	4
2.51333	4
2.51700	5
2.52067	6
2.52433	7
2.52800	8
2.53167	9
2.53533	9
2.53900	9
2.54267	9
2.54633	8
2.55000	8
2.55367	8
2.55733	8
2.56100	8
2.56467	8
2.56833	8
2.57200	9
2.57567	9
2.57933	9
2.58300	10
2.58667	10
2.59033	11
2.59400	11
2.59767	12
2.60133	12
2.60500	11
2.60867	11
2.61233	11
2.61600	11
2.61967	11
2.62333	11
2.62700	11
2.63067	12
2.63433	12
2.63800	12
2.64167	13
2.64533	13
2.64900	13
2.65267	14
2.65633	14
2.66000	15
2.66367	15
2.66733	16
2.67100	16
2.67467	16
2.67833	16
2.68200	16
2.68567	17
2.68933	17
2.69300	17
2.69667	17
2.70033	17
2.70400	17
2.70767	17
2.71133	17
2.71500	17
2.71867	17
2.72233	18
2.72600	18
2.72967	18
2.73333	19
2.73700	19
2.74067	19
2.74433	20
2.74800	20
2.75167	20
2.75533	21
2.75900	22
2.76267	22
2.76633	23
2.77000	23
2.77367	24
2.77733	24
2.78100	25
2.78467	25
2.78833	25
2.79200	25
2.79567	24
2.79933	24
2.80300	23
2.80667	23
2.81033	22
2.81400	22
2.81767	22
2.82133	22
2.82500	22
2.82867	22
2.83233	22
2.83600	22
2.83967	21
2.84333	20
2.84700	18
2.85067	15
2.85433	10
2.85800	1
2.86167	-10
2.86533	-25
2.86900	-45
2.87267	-69
2.87633	-97
2.88000	-129
2.88367	-166
2.88733	-207
2.89100	-251
2.89467	-298
2.89833	-348
2.90200	-400
2.90567	-453
2.90933	-508
2.91300	-563
2.91667	-619
2.92033	-674
2.92400	-728
2.92767	-781
2.93133	-833
2.93500	-885
2.93867	-941
2.94233	-1000
2.94600	-1053
2.94967	-1091
2.95333	-1104
2.95700	-1092
2.96067	-1055
2.96433	-1000
2.96800	-931
2.97167	-853
2.97533	-773
2.97900	-692
2.98267	-615
2.98633	-542
2.99000	-474
2.99367	-413
2.99733	-357
3.00100	-308
3.00467	-265
3.00833	-226
3.01200	-193
3.01567	-164
3.01933	-139
3.02300	-117
3.02667	-99
3.03033	-83
3.03400	-69
3.03767	-57
3.04133	-47
3.04500	-39
3.04867	-32
3.05233	-26
3.05600	-21
3.05967	-16
3.06333	-12
3.06700	-8
3.07067	-6
3.07433	-3
3.07800	-1
3.08167	1
3.08533	2
3.08900	3
3.09267	4
3.09633	5
3.10000	6
3.10367	7
3.10733	7
3.11100	8
3.11467	9
3.11833	9
3.12200	10
3.12567	11
3.12933	11
3.13300	12
3.13667	12
3.14033	13
3.14400	13
3.14767	14
3.15133	14
3.15500	14
3.15867	15
3.16233	15
3.16600	15
3.16967	15
3.17333	15
3.17700	16
3.18067	16
3.18433	16
3.18800	16
3.19167	16
3.19533	16
3.19900	16
3.20267	16
3.20633	16
3.21000	16
3.21367	16
3.21733	16
3.22100	16
3.22467	16
3.22833	16
3.23200	17
3.23567	17
3.23933	17
3.24300	17
3.24667	18
3.25033	18
3.25400	18
3.25767	18
3.26133	18
3.26500	18
3.26867	18
3.27233	18
3.27600	18
3.27967	19
3.28333	19
3.28700	19
3.29067	19
3.29433	20
3.29800	20
3.30167	20
3.30533	20
3.30900	20
3.31267	20
3.31633	20
3.32000	20
3.32367	20
3.32733	20
3.33100	20
3.33467	20
3.33833	20
3.34200	20
3.34567	20
3.34933	20
3.35300	20
3.35667	21
3.36033	21
3.36400	21
3.36767	21
3.37133	21
3.37500	21
3.37867	21
3.38233	21
3.38600	21
3.38967	21
3.39333	22
3.39700	22
3.40067	22
3.40433	23
3.40800	23
3.41167	23
3.41533	23
3.41900	23
3.42267	23
3.42633	24
3.43000	24
3.43367	24
3.43733	24
3.44100	24
3.44467	24
3.44833	24
3.45200	24
3.45567	24
3.45933	24
3.46300	24
3.46667	24
3.47033	24
3.47400	25
3.47767	25
3.48133	25
3.48500	25
3.48867	25
3.49233	25
3.49600	25
3.49967	25
3.50333	25
3.50700	25
3.51067	24
3.51433	24
3.51800	24
3.52167	24
3.52533	23
3.52900	23
3.53267	23
3.53633	22
3.54000	22
3.54367	22
3.54733	22
3.55100	22
3.55467	22
3.55833	22
3.56200	22
3.56567	22
3.56933	22
3.57300	22
3.57667	22
3.58033	22
3.58400	22
3.58767	22
3.59133	22
3.59500	22
3.59867	22
3.60233	22
3.60600	22
3.60967	23
3.61333	23
3.61700	23
3.62067	23
3.62433	23
3.62800	23
3.63167	23
3.63533	23
3.63900	23
3.64267	23
3.64633	23
3.65000	23
3.65367	23
3.65733	23
3.66100	23
3.66467	23
3.66833	23
3.67200	23
3.67567	23
3.67933	23
3.68300	23
3.68667	23
3.69033	23
3.69400	22
3.69767	22
3.70133	22
3.70500	22
3.70867	22
3.71233	22
3.71600	22
3.71967	22
3.72333	22
3.72700	22
3.73067	22
3.73433	22
3.73800	22
3.74167	22
3.74533	22
3.74900	22
3.75267	22
3.75633	22
3.76000	22
3.76367	22
3.76733	22
3.77100	22
3.77467	22
3.77833	22
3.78200	22
3.78567	22
3.78933	22
3.79300	22
3.79667	22
3.80033	22
3.80400	22
3.80767	22
3.81133	23
3.81500	23
3.81867	23
3.82233	23
3.82600	23
3.82967	23
3.83333	24
3.83700	24
3.84067	24
3.84433	24
3.84800	24
3.85167	24
3.85533	24
3.85900	24
3.86267	24
3.86633	23
3.87000	23
3.87367	23
3.87733	23
3.88100	23
3.88467	24
3.88833	24
3.89200	24
3.89567	24
3.89933	24
3.90300	24
3.90667	23
3.91033	23
3.91400	23
3.91767	23
3.92133	23
3.92500	23
3.92867	22
3.93233	22
3.93600	22
3.93967	22
3.94333	21
3.94700	21
3.95067	21
3.95433	21
3.95800	21
3.96167	21
3.96533	21
3.96900	20
3.97267	20
3.97633	20
3.98000	20
3.98367	20
3.98733	20
3.99100	20
3.99467	20
3.99833	21

[Chromatogram (Ch3)]
Interval(msec)	220
# of Points	1091
Start Time(min)	0.002
End Time(min)	3.998
R.Time (min)	Intensity
0.00167	1
0.00533	2
0.00900	0
0.01267	-0
0.01633	-1
0.02000	-0
0.02367	-0
0.02733	-1
0.03100	-0
0.03467	2
0.03833	3
0.04200	3
0.04567	3
0.04933	3
0.05300	2
0.05667	1
0.06033	3
0.06400	4
0.06767	5
0.07133	4
0.07500	4
0.07867	4
0.08233	5
0.08600	6
0.08967	5
0.09333	6
0.09700	6
0.10067	4
0.10433	2
0.10800	1
0.11167	2
0.11533	3
0.11900	3
0.12267	3
0.12633	2
0.13000	1
0.13367	-1
0.13733	-0
0.14100	1
0.14467	1
0.14833	-0
0.15200	-0
0.15567	-1
0.15933	-0
0.16300	2
0.16667	2
0.17033	1
0.17400	1
0.17767	1
0.18133	-0
0.18500	0
0.18867	0
0.19233	-0
0.19600	2
0.19967	4
0.20333	4
0.20700	2
0.21067	1
0.21433	0
0.21800	0
0.22167	1
0.22533	1
0.22900	1
0.23267	3
0.23633	6
0.24000	7
0.24367	7
0.24733	6
0.25100	5
0.25467	6
0.25833	7
0.26200	5
0.26567	3
0.26933	-0
0.27300	-4
0.27667	-5
0.28033	-4
0.28400	-3
0.28767	-2
0.29133	1
0.29500	1
0.29867	1
0.30233	1
0.30600	2
0.30967	4
0.31333	5
0.31700	5
0.32067	5
0.32433	4
0.32800	2
0.33167	-0
0.33533	-2
0.33900	-3
0.34267	-1
0.34633	2
0.35000	1
0.35367	0
0.35733	0
0.36100	2
0.36467	4
0.36833	4
0.37200	4
0.37567	5
0.37933	4
0.38300	6
0.38667	7
0.39033	9
0.39400	11
0.39767	10
0.40133	8
0.40500	5
0.40867	6
0.41233	7
0.41600	6
0.41967	6
0.42333	5
0.42700	5
0.43067	6
0.43433	5
0.43800	5
0.44167	6
0.44533	5
0.44900	4
0.45267	4
0.45633	4
0.46000	5
0.46367	5
0.46733	4
0.47100	3
0.47467	2
0.47833	2
0.48200	1
0.48567	2
0.48933	3
0.49300	5
0.49667	5
0.50033	6
0.50400	5
0.50767	4
0.51133	4
0.51500	5
0.51867	6
0.52233	6
0.52600	8
0.52967	9
0.53333	8
0.53700	6
0.54067	6
0.54433	6
0.54800	6
0.55167	7
0.55533	6
0.55900	5
0.56267	4
0.56633	3
0.57000	2
0.57367	2
0.57733	1
0.58100	2
0.58467	2
0.58833	5
0.59200	6
0.59567	5
0.59933	3
0.60300	3
0.60667	3
0.61033	6
0.61400	8
0.61767	9
0.62133	8
0.62500	7
0.62867	5
0.63233	4
0.63600	3
0.63967	3
0.64333	4
0.64700	4
0.65067	3
0.65433	3
0.65800	3
0.66167	4
0.66533	5
0.66900	5
0.67267	7
0.67633	9
0.68000	9
0.68367	8
0.68733	7
0.69100	6
0.69467	6
0.69833	6
0.70200	4
0.70567	4
0.70933	5
0.71300	4
0.71667	3
0.72033	1
0.72400	3
0.72767	5
0.73133	6
0.73500	7
0.73867	9
0.74233	10
0.74600	12
0.74967	11
0.75333	9
0.75700	8
0.76067	8
0.76433	8
0.76800	10
0.77167	11
0.77533	13
0.77900	14
0.78267	15
0.78633	14
0.79000	12
0.79367	13
0.79733	14
0.80100	13
0.80467	11
0.80833	10
0.81200	8
0.81567	7
0.81933	9
0.82300	9
0.82667	12
0.83033	14
0.83400	15
0.83767	15
0.84133	16
0.84500	17
0.84867	19
0.85233	16
0.85600	15
0.85967	14
0.86333	15
0.86700	15
0.87067	13
0.87433	13
0.87800	13
0.88167	11
0.88533	11
0.88900	10
0.89267	10
0.89633	9
0.90000	10
0.90367	10
0.90733	11
0.91100	12
0.91467	13
0.91833	14
0.92200	15
0.92567	15
0.92933	14
0.93300	13
0.93667	14
0.94033	15
0.94400	15
0.94767	14
0.95133	12
0.95500	11
0.95867	10
0.96233	8
0.96600	7
0.96967	5
0.97333	4
0.97700	6
0.98067	6
0.98433	8
0.98800	9
0.99167	10
0.99533	10
0.99900	11
1.00267	13
1.00633	15
1.01000	16
1.01367	13
1.01733	12
1.02100	13
1.02467	14
1.02833	12
1.03200	10
1.03567	8
1.03933	7
1.04300	7
1.04667	10
1.05033	12
1.05400	12
1.05767	13
1.06133	15
1.06500	15
1.06867	16
1.07233	16
1.07600	15
1.07967	15
1.08333	14
1.08700	14
1.09067	16
1.09433	17
1.09800	14
1.10167	13
1.10533	12
1.10900	14
1.11267	14
1.11633	13
1.12000	13
1.12367	15
1.12733	14
1.13100	15
1.13467	17
1.13833	17
1.14200	17
1.14567	17
1.14933	16
1.15300	14
1.15667	12
1.16033	11
1.16400	12
1.16767	12
1.17133	12
1.17500	10
1.17867	11
1.18233	12
1.18600	12
1.18967	12
1.19333	14
1.19700	15
1.20067	16
1.20433	15
1.20800	14
1.21167	11
1.21533	10
1.21900	9
1.22267	12
1.22633	13
1.23000	15
1.23367	18
1.23733	19
1.24100	18
1.24467	15
1.24833	14
1.25200	12
1.25567	14
1.25933	15
1.26300	16
1.26667	19
1.27033	21
1.27400	21
1.27767	23
1.28133	23
1.28500	23
1.28867	20
1.29233	19
1.29600	19
1.29967	20
1.30333	22
1.30700	22
1.31067	21
1.31433	20
1.31800	19
1.32167	18
1.32533	17
1.32900	17
1.33267	17
1.33633	16
1.34000	16
1.34367	17
1.34733	16
1.35100	16
1.35467	17
1.35833	16
1.36200	14
1.36567	14
1.36933	13
1.37300	13
1.37667	14
1.38033	16
1.38400	16
1.38767	15
1.39133	17
1.39500	18
1.39867	19
1.40233	20
1.40600	20
1.40967	20
1.41333	20
1.41700	19
1.42067	17
1.42433	17
1.42800	17
1.43167	17
1.43533	18
1.43900	19
1.44267	18
1.44633	19
1.45000	21
1.45367	22
1.45733	21
1.46100	20
1.46467	20
1.46833	19
1.47200	18
1.47567	19
1.47933	20
1.48300	21
1.48667	22
1.49033	24
1.49400	24
1.49767	24
1.50133	23
1.50500	21
1.50867	21
1.51233	20
1.51600	19
1.51967	19
1.52333	20
1.52700	19
1.53067	18
1.53433	19
1.53800	19
1.54167	18
1.54533	20
1.54900	21
1.55267	23
1.55633	23
1.56000	21
1.56367	19
1.56733	16
1.57100	16
1.57467	16
1.57833	16
1.58200	17
1.58567	19
1.58933	20
1.59300	20
1.59667	21
1.60033	20
1.60400	19
1.60767	18
1.61133	20
1.61500	22
1.61867	22
1.62233	23
1.62600	24
1.62967	25
1.63333	25
1.63700	24
1.64067	23
1.64433	24
1.64800	29
1.65167	31
1.65533	29
1.65900	30
1.66267	32
1.66633	32
1.67000	32
1.67367	32
1.67733	33
1.68100	34
1.68467	35
1.68833	35
1.69200	36
1.69567	37
1.69933	37
1.70300	35
1.70667	34
1.71033	33
1.71400	34
1.71767	35
1.72133	35
1.72500	36
1.72867	37
1.73233	38
1.73600	37
1.73967	36
1.74333	37
1.74700	40
1.75067	41
1.75433	40
1.75800	40
1.76167	40
1.76533	39
1.76900	40
1.77267	41
1.77633	43
1.78000	44
1.78367	45
1.78733	44
1.79100	42
1.79467	43
1.79833	43
1.80200	42
1.80567	41
1.80933	42
1.81300	43
1.81667	45
1.82033	45
1.82400	44
1.82767	43
1.83133	44
1.83500	45
1.83867	46
1.84233	47
1.84600	47
1.84967	50
1.85333	52
1.85700	53
1.86067	55
1.86433	56
1.86800	56
1.87167	58
1.87533	60
1.87900	59
1.88267	61
1.88633	63
1.89000	62
1.89367	61
1.89733	58
1.90100	58
1.90467	59
1.90833	62
1.91200	64
1.91567	64
1.91933	62
1.92300	61
1.92667	62
1.93033	63
1.93400	65
1.93767	66
1.94133	67
1.94500	69
1.94867	71
1.95233	73
1.95600	74
1.95967	75
1.96333	74
1.96700	74
1.97067	76
1.97433	76
1.97800	77
1.98167	76
1.98533	76
1.98900	79
1.99267	82
1.99633	81
2.00000	82
2.00367	85
2.00733	86
2.01100	88
2.01467	90
2.01833	91
2.02200	94
2.02567	94
2.02933	94
2.03300	93
2.03667	93
2.04033	94
2.04400	94
2.04767	95
2.05133	96
2.05500	97
2.05867	99
2.06233	100
2.06600	101
2.06967	101
2.07333	102
2.07700	105
2.08067	106
2.08433	107
2.08800	109
2.09167	110
2.09533	113
2.09900	116
2.10267	119
2.10633	118
2.11000	118
2.11367	119
2.11733	121
2.12100	122
2.12467	123
2.12833	125
2.13200	125
2.13567	125
2.13933	125
2.14300	125
2.14667	125
2.15033	124
2.15400	126
2.15767	127
2.16133	131
2.16500	134
2.16867	135
2.17233	136
2.17600	138
2.17967	140
2.18333	141
2.18700	142
2.19067	144
2.19433	147
2.19800	149
2.20167	151
2.20533	150
2.20900	150
2.21267	154
2.21633	158
2.22000	159
2.22367	159
2.22733	161
2.23100	160
2.23467	159
2.23833	160
2.24200	162
2.24567	164
2.24933	163
2.25300	163
2.25667	166
2.26033	168
2.26400	169
2.26767	169
2.27133	170
2.27500	172
2.27867	174
2.28233	177
2.28600	181
2.28967	183
2.29333	184
2.29700	185
2.30067	184
2.30433	183
2.30800	182
2.31167	183
2.31533	184
2.31900	184
2.32267	186
2.32633	190
2.33000	191
2.33367	192
2.33733	195
2.34100	198
2.34467	200
2.34833	201
2.35200	201
2.35567	201
2.35933	202
2.36300	204
2.36667	206
2.37033	208
2.37400	209
2.37767	210
2.38133	211
2.38500	210
2.38867	206
2.39233	205
2.39600	207
2.39967	211
2.40333	215
2.40700	217
2.41067	221
2.41433	223
2.41800	224
2.42167	226
2.42533	230
2.42900	232
2.43267	232
2.43633	233
2.44000	237
2.44367	287
2.44733	420
2.45100	566
2.45467	687
2.45833	756
2.46200	764
2.46567	737
2.46933	706
2.47300	684
2.47667	671
2.48033	654
2.48400	626
2.48767	588
2.49133	545
2.49500	507
2.49867	475
2.50233	453
2.50600	441
2.50967	439
2.51333	447
2.51700	464
2.52067	482
2.52433	498
2.52800	506
2.53167	502
2.53533	487
2.53900	464
2.54267	436
2.54633	407
2.55000	381
2.55367	358
2.55733	340
2.56100	326
2.56467	313
2.56833	304
2.57200	298
2.57567	295
2.57933	294
2.58300	294
2.58667	295
2.59033	297
2.59400	301
2.59767	305
2.60133	303
2.60500	296
2.60867	286
2.61233	274
2.61600	258
2.61967	242
2.62333	226
2.62700	212
2.63067	198
2.63433	183
2.63800	168
2.64167	153
2.64533	142
2.64900	130
2.65267	119
2.65633	108
2.66000	101
2.66367	93
2.66733	86
2.67100	81
2.67467	77
2.67833	74
2.68200	72
2.68567	72
2.68933	73
2.69300	73
2.69667	77
2.70033	81
2.70400	87
2.70767	94
2.71133	99
2.71500	104
2.71867	107
2.72233	110
2.72600	116
2.72967	124
2.73333	130
2.73700	135
2.74067	141
2.74433	145
2.74800	148
2.75167	149
2.75533	152
2.75900	155
2.76267	157
2.76633	162
2.77000	164
2.77367	167
2.77733	169
2.78100	172
2.78467	177
2.78833	184
2.79200	191
2.79567	196
2.79933	200
2.80300	206
2.80667	210
2.81033	213
2.81400	217
2.81767	223
2.82133	235
2.82500	257
2.82867	296
2.83233	364
2.83600	479
2.83967	667
2.84333	951
2.84700	1340
2.85067	1823
2.85433	2378
2.85800	2972
2.86167	3558
2.86533	4087
2.86900	4519
2.87267	4823
2.87633	4979
2.88000	4993
2.88367	4885
2.88733	4678
2.89100	4400
2.89467	4078
2.89833	3733
2.90200	3385
2.90567	3050
2.90933	2733
2.91300	2436
2.91667	2163
2.92033	1918
2.92400	1699
2.92767	1506
2.93133	1337
2.93500	1189
2.93867	1058
2.94233	944
2.94600	846
2.94967	759
2.95333	682
2.95700	616
2.96067	559
2.96433	511
2.96800	468
2.97167	428
2.97533	395
2.97900	370
2.98267	346
2.98633	326
2.99000	310
2.99367	295
2.99733	284
3.00100	274
3.00467	265
3.00833	258
3.01200	250
3.01567	242
3.01933	239
3.02300	237
3.02667	233
3.03033	228
3.03400	226
3.03767	223
3.04133	220
3.04500	216
3.04867	213
3.05233	213
3.05600	211
3.05967	209
3.06333	206
3.06700	206
3.07067	206
3.07433	208
3.07800	212
3.08167	212
3.08533	210
3.08900	209
3.09267	209
3.09633	208
3.10000	208
3.10367	209
3.10733	208
3.11100	204
3.11467	200
3.11833	202
3.12200	217
3.12567	237
3.12933	263
3.13300	294
3.13667	329
3.14033	365
3.14400	400
3.14767	435
3.15133	472
3.15500	502
3.15867	526
3.16233	548
3.16600	568
3.16967	586
3.17333	602
3.17700	617
3.18067	629
3.18433	640
3.18800	651
3.19167	662
3.19533	671
3.19900	677
3.20267	685
3.20633	692
3.21000	700
3.21367	710
3.21733	718
3.22100	723
3.22467	729
3.22833	737
3.23200	746
3.23567	754
3.23933	762
3.24300	767
3.24667	771
3.25033	775
3.25400	778
3.25767	785
3.26133	792
3.26500	799
3.26867	804
3.27233	808
3.27600	811
3.27967	815
3.28333	818
3.28700	821
3.29067	824
3.29433	826
3.29800	830
3.30167	837
3.30533	842
3.30900	844
3.31267	845
3.31633	846
3.32000	848
3.32367	849
3.32733	849
3.33100	851
3.33467	852
3.33833	854
3.34200	855
3.34567	856
3.34933	857
3.35300	856
3.35667	851
3.36033	846
3.36400	843
3.36767	841
3.37133	841
3.37500	840
3.37867	838
3.38233	837
3.38600	836
3.38967	833
3.39333	829
3.39700	828
3.40067	827
3.40433	825
3.40800	823
3.41167	822
3.41533	819
3.41900	818
3.42267	816
3.42633	814
3.43000	813
3.43367	811
3.43733	808
3.44100	807
3.44467	805
3.44833	804
3.45200	803
3.45567	801
3.45933	798
3.46300	794
3.46667	793
3.47033	791
3.47400	790
3.47767	789
3.48133	790
3.48500	792
3.48867	789
3.49233	787
3.49600	785
3.49967	783
3.50333	783
3.50700	783
3.51067	783
3.51433	780
3.51800	779
3.52167	778
3.52533	776
3.52900	775
3.53267	776
3.53633	777
3.54000	777
3.54367	775
3.54733	772
3.55100	771
3.55467	769
3.55833	768
3.56200	767
3.56567	768
3.56933	769
3.57300	770
3.57667	771
3.58033	771
3.58400	771
3.58767	768
3.59133	766
3.59500	764
3.59867	764
3.60233	765
3.60600	763
3.60967	759
3.61333	758
3.61700	759
3.62067	761
3.62433	761
3.62800	759
3.63167	756
3.63533	753
3.63900	749
3.64267	747
3.64633	745
3.65000	744
3.65367	747
3.65733	747
3.66100	745
3.66467	741
3.66833	737
3.67200	735
3.67567	733
3.67933	731
3.68300	730
3.68667	729
3.69033	728
3.69400	726
3.69767	722
3.70133	718
3.70500	716
3.70867	715
3.71233	715
3.71600	714
3.71967	713
3.72333	710
3.72700	706
3.73067	703
3.73433	701
3.73800	699
3.74167	699
3.74533	695
3.74900	692
3.75267	690
3.75633	690
3.76000	688
3.76367	686
3.76733	686
3.77100	684
3.77467	682
3.77833	681
3.78200	679
3.78567	678
3.78933	675
3.79300	673
3.79667	672
3.80033	671
3.80400	671
3.80767	669
3.81133	665
3.81500	664
3.81867	662
3.82233	660
3.82600	658
3.82967	654
3.83333	650
3.83700	647
3.84067	646
3.84433	645
3.84800	643
3.85167	640
3.85533	637
3.85900	637
3.86267	636
3.86633	635
3.87000	633
3.87367	632
3.87733	629
3.88100	627
3.88467	627
3.88833	623
3.89200	620
3.89567	619
3.89933	616
3.90300	614
3.90667	615
3.91033	614
3.91400	615
3.91767	615
3.92133	613
3.92500	610
3.92867	607
3.93233	605
3.93600	603
3.93967	604
3.94333	602
3.94700	601
3.95067	600
3.95433	598
3.95800	597
3.96167	597
3.96533	594
3.96900	592
3.97267	591
3.97633	591
3.98000	591
3.98367	591
3.98733	587
3.99100	582
3.99467	577
3.99833	574

[Status Trace (Column Oven Temperature)]
Interval(msec)	1000
# of Points	240
Start Time(min)	0.003
End Time(min)	3.986
Intensity Units	
Intensity Multiplier	1
R.Time (min)	Intensity
0.00297	35.01
0.01963	35.00
0.03630	35.01
0.05297	35.03
0.06963	35.04
0.08630	35.04
0.10297	35.05
0.11963	35.06
0.13630	35.08
0.15297	35.07
0.16963	35.05
0.18630	35.04
0.20297	35.02
0.21963	35.03
0.23630	35.01
0.25297	35.01
0.26963	35.00
0.28630	35.00
0.30297	35.01
0.31963	35.03
0.33630	35.04
0.35297	35.04
0.36963	35.04
0.38630	35.03
0.40297	35.02
0.41963	35.00
0.43630	35.00
0.45297	35.00
0.46963	34.99
0.48630	34.99
0.50297	35.01
0.51963	35.02
0.53630	35.03
0.55297	35.03
0.56963	35.02
0.58630	35.00
0.60297	35.00
0.61963	35.00
0.63630	35.00
0.65297	35.00
0.66963	35.00
0.68630	34.99
0.70297	34.99
0.71963	35.01
0.73630	35.02
0.75297	35.02
0.76963	35.02
0.78630	35.02
0.80297	35.01
0.81963	35.01
0.83630	35.01
0.85297	35.01
0.86963	35.00
0.88630	35.00
0.90297	35.00
0.91963	34.99
0.93630	34.98
0.95297	34.96
0.96963	34.97
0.98630	35.00
1.00297	35.01
1.01963	35.01
1.03630	35.00
1.05297	35.00
1.06963	35.00
1.08630	35.00
1.10297	34.99
1.11963	35.00
1.13630	34.99
1.15297	34.98
1.16963	34.97
1.18630	34.97
1.20297	34.97
1.21963	34.97
1.23630	34.97
1.25297	34.98
1.26963	35.00
1.28630	35.00
1.30297	35.01
1.31963	35.01
1.33630	35.02
1.35297	35.01
1.36963	34.99
1.38630	34.98
1.40297	34.99
1.41963	34.98
1.43630	34.99
1.45297	34.99
1.46963	34.99
1.48630	34.99
1.50297	34.98
1.51963	34.98
1.53630	34.98
1.55297	34.99
1.56963	35.00
1.58630	35.00
1.60297	35.05
1.61963	35.15
1.63630	35.33
1.65297	35.56
1.66963	35.86
1.68630	36.23
1.70297	36.59
1.71963	36.92
1.73630	37.24
1.75297	37.58
1.76963	37.93
1.78630	38.24
1.80297	38.57
1.81963	38.92
1.83630	39.25
1.85297	39.54
1.86963	39.87
1.88630	40.21
1.90297	40.55
1.91963	40.87
1.93630	41.20
1.95297	41.51
1.96963	41.84
1.98630	42.19
2.00297	42.50
2.01963	42.83
2.03630	43.14
2.05297	43.48
2.06963	43.80
2.08630	44.14
2.10297	44.45
2.11963	44.79
2.13630	45.12
2.15297	45.44
2.16963	45.76
2.18630	46.08
2.20297	46.42
2.21963	46.75
2.23630	47.06
2.25297	47.39
2.26963	47.73
2.28630	48.14
2.30297	48.44
2.31963	48.77
2.33630	49.12
2.35297	49.40
2.36963	49.59
2.38630	49.65
2.40297	49.65
2.41963	49.65
2.43630	49.67
2.45297	49.68
2.46963	49.67
2.48630	49.67
2.50297	49.69
2.51963	49.70
2.53630	49.72
2.55297	49.76
2.56963	49.78
2.58630	49.78
2.60297	49.80
2.61963	49.81
2.63630	49.81
2.65297	49.82
2.66963	49.84
2.68630	49.85
2.70297	49.85
2.71963	49.86
2.73630	49.88
2.75297	49.88
2.76963	49.85
2.78630	49.84
2.80297	49.87
2.81963	49.87
2.83630	49.88
2.85297	49.88
2.86963	49.89
2.88630	49.89
2.90297	49.90
2.91963	49.92
2.93630	49.94
2.95297	49.96
2.96963	49.96
2.98630	49.96
3.00297	49.95
3.01963	49.96
3.03630	49.97
3.05297	49.98
3.06963	49.98
3.08630	49.98
3.10297	49.99
3.11963	50.00
3.13630	50.01
3.15297	50.01
3.16963	50.01
3.18630	50.02
3.20297	50.05
3.21963	50.06
3.23630	50.07
3.25297	50.08
3.26963	50.08
3.28630	50.08
3.30297	50.09
3.31963	50.09
3.33630	50.10
3.35297	50.10
3.36963	50.10
3.38630	50.10
3.40297	50.09
3.41963	50.09
3.43630	50.08
3.45297	50.07
3.46963	50.06
3.48630	50.05
3.50297	50.06
3.51963	50.07
3.53630	50.07
3.55297	50.08
3.56963	50.08
3.58630	50.08
3.60297	50.08
3.61963	50.07
3.63630	50.07
3.65297	50.06
3.66963	50.06
3.68630	50.06
3.70297	50.07
3.71963	50.07
3.73630	50.08
3.75297	50.08
3.76963	50.08
3.78630	50.08
3.80297	50.08
3.81963	50.08
3.83630	50.06
3.85297	50.06
3.86963	50.06
3.88630	50.05
3.90297	50.05
3.91963	50.05
3.93630	50.06
3.95297	50.08
3.96963	50.09
3.98630	50.10

[Status Trace (Injection Unit Temperature)]
Interval(msec)	1000
# of Points	240
Start Time(min)	0.003
End Time(min)	3.986
Intensity Units	
Intensity Multiplier	1
R.Time (min)	Intensity
0.00297	99.98
0.01963	99.98
0.03630	99.99
0.05297	99.99
0.06963	99.98
0.08630	99.99
0.10297	99.99
0.11963	99.99
0.13630	99.98
0.15297	99.99
0.16963	99.99
0.18630	99.99
0.20297	99.99
0.21963	99.99
0.23630	100.00
0.25297	99.99
0.26963	99.99
0.28630	99.98
0.30297	99.99
0.31963	99.99
0.33630	99.99
0.35297	99.99
0.36963	99.99
0.38630	99.99
0.40297	99.99
0.41963	99.99
0.43630	99.98
0.45297	99.99
0.46963	99.98
0.48630	99.99
0.50297	99.99
0.51963	99.99
0.53630	99.99
0.55297	99.98
0.56963	99.99
0.58630	99.98
0.60297	99.98
0.61963	99.98
0.63630	99.98
0.65297	99.99
0.66963	99.98
0.68630	99.98
0.70297	99.98
0.71963	99.98
0.73630	99.98
0.75297	99.98
0.76963	99.98
0.78630	99.98
0.80297	99.98
0.81963	99.98
0.83630	99.98
0.85297	99.98
0.86963	99.98
0.88630	99.98
0.90297	99.98
0.91963	99.98
0.93630	99.98
0.95297	99.98
0.96963	99.97
0.98630	99.97
1.00297	99.97
1.01963	99.98
1.03630	99.98
1.05297	99.98
1.06963	99.98
1.08630	99.98
1.10297	99.98
1.11963	99.98
1.13630	99.98
1.15297	99.98
1.16963	99.98
1.18630	99.98
1.20297	99.98
1.21963	99.98
1.23630	99.97
1.25297	99.98
1.26963	99.98
1.28630	99.97
1.30297	99.97
1.31963	99.98
1.33630	99.98
1.35297	99.98
1.36963	99.98
1.38630	99.97
1.40297	99.98
1.41963	99.98
1.43630	99.98
1.45297	99.98
1.46963	99.98
1.48630	99.98
1.50297	99.98
1.51963	99.98
1.53630	99.98
1.55297	99.98
1.56963	99.98
1.58630	99.98
1.60297	99.98
1.61963	99.98
1.63630	99.98
1.65297	99.98
1.66963	99.98
1.68630	99.98
1.70297	99.98
1.71963	99.98
1.73630	99.98
1.75297	99.98
1.76963	99.98
1.78630	99.98
1.80297	99.97
1.81963	99.98
1.83630	99.98
1.85297	99.98
1.86963	99.98
1.88630	99.98
1.90297	99.98
1.91963	99.98
1.93630	99.98
1.95297	99.98
1.96963	99.98
1.98630	99.98
2.00297	99.98
2.01963	99.98
2.03630	99.97
2.05297	99.97
2.06963	99.97
2.08630	99.97
2.10297	99.97
2.11963	99.97
2.13630	99.97
2.15297	99.96
2.16963	99.97
2.18630	99.97
2.20297	99.97
2.21963	99.97
2.23630	99.97
2.25297	99.97
2.26963	99.97
2.28630	99.97
2.30297	99.96
2.31963	99.97
2.33630	99.97
2.35297	99.97
2.36963	99.97
2.38630	99.97
2.40297	99.97
2.41963	99.96
2.43630	99.97
2.45297	99.97
2.46963	99.97
2.48630	99.97
2.50297	99.97
2.51963	99.97
2.53630	99.97
2.55297	99.97
2.56963	99.98
2.58630	99.97
2.60297	99.98
2.61963	99.98
2.63630	99.98
2.65297	99.98
2.66963	99.98
2.68630	99.98
2.70297	99.98
2.71963	99.99
2.73630	99.99
2.75297	99.99
2.76963	99.99
2.78630	99.99
2.80297	99.99
2.81963	99.99
2.83630	100.00
2.85297	100.00
2.86963	100.00
2.88630	100.00
2.90297	100.01
2.91963	100.01
2.93630	100.01
2.95297	100.01
2.96963	100.01
2.98630	100.01
3.00297	100.01
3.01963	100.02
3.03630	100.02
3.05297	100.02
3.06963	100.02
3.08630	100.02
3.10297	100.02
3.11963	100.02
3.13630	100.03
3.15297	100.03
3.16963	100.03
3.18630	100.03
3.20297	100.03
3.21963	100.03
3.23630	100.03
3.25297	100.03
3.26963	100.04
3.28630	100.04
3.30297	100.04
3.31963	100.04
3.33630	100.04
3.35297	100.04
3.36963	100.04
3.38630	100.04
3.40297	100.04
3.41963	100.04
3.43630	100.05
3.45297	100.04
3.46963	100.04
3.48630	100.05
3.50297	100.04
3.51963	100.05
3.53630	100.05
3.55297	100.05
3.56963	100.04
3.58630	100.05
3.60297	100.05
3.61963	100.05
3.63630	100.05
3.65297	100.05
3.66963	100.05
3.68630	100.05
3.70297	100.05
3.71963	100.05
3.73630	100.05
3.75297	100.05
3.76963	100.05
3.78630	100.05
3.80297	100.05
3.81963	100.05
3.83630	100.05
3.85297	100.05
3.86963	100.05
3.88630	100.05
3.90297	100.05
3.91963	100.05
3.93630	100.05
3.95297	100.05
3.96963	100.04
3.98630	100.05

[Status Trace (Carrier Gas Pressure)]
Interval(msec)	1000
# of Points	240
Start Time(min)	0.003
End Time(min)	3.986
Intensity Units	
Intensity Multiplier	1
R.Time (min)	Intensity
0.00297	58.00
0.01963	56.17
0.03630	56.46
0.05297	58.62
0.06963	59.82
0.08630	58.23
0.10297	57.97
0.11963	58.01
0.13630	58.01
0.15297	58.01
0.16963	58.00
0.18630	58.00
0.20297	58.00
0.21963	58.00
0.23630	58.00
0.25297	58.00
0.26963	58.00
0.28630	58.00
0.30297	58.00
0.31963	58.00
0.33630	58.00
0.35297	58.00
0.36963	58.00
0.38630	58.00
0.40297	58.00
0.41963	58.00
0.43630	58.00
0.45297	58.00
0.46963	58.00
0.48630	58.00
0.50297	58.00
0.51963	58.00
0.53630	58.00
0.55297	58.00
0.56963	58.00
0.58630	58.00
0.60297	58.00
0.61963	58.00
0.63630	58.00
0.65297	58.00
0.66963	58.00
0.68630	58.00
0.70297	58.00
0.71963	58.00
0.73630	58.00
0.75297	58.00
0.76963	58.00
0.78630	58.00
0.80297	58.00
0.81963	58.00
0.83630	58.00
0.85297	58.00
0.86963	58.00
0.88630	58.00
0.90297	58.00
0.91963	58.00
0.93630	58.00
0.95297	58.00
0.96963	58.00
0.98630	58.00
1.00297	58.00
1.01963	58.00
1.03630	58.00
1.05297	58.00
1.06963	58.00
1.08630	58.00
1.10297	58.00
1.11963	58.00
1.13630	58.00
1.15297	58.00
1.16963	58.00
1.18630	58.00
1.20297	58.00
1.21963	58.00
1.23630	58.00
1.25297	58.00
1.26963	58.00
1.28630	58.00
1.30297	58.00
1.31963	58.00
1.33630	58.00
1.35297	58.00
1.36963	58.00
1.38630	58.00
1.40297	58.00
1.41963	58.00
1.43630	58.00
1.45297	58.00
1.46963	58.00
1.48630	58.00
1.50297	58.00
1.51963	58.00
1.53630	58.00
1.55297	58.00
1.56963	58.00
1.58630	58.00
1.60297	58.00
1.61963	58.00
1.63630	58.00
1.65297	58.00
1.66963	58.01
1.68630	58.01
1.70297	58.00
1.71963	58.00
1.73630	58.00
1.75297	58.00
1.76963	58.00
1.78630	58.00
1.80297	58.00
1.81963	58.00
1.83630	58.00
1.85297	58.00
1.86963	58.00
1.88630	58.00
1.90297	58.00
1.91963	58.00
1.93630	58.00
1.95297	58.00
1.96963	58.00
1.98630	58.00
2.00297	58.00
2.01963	58.00
2.03630	58.00
2.05297	58.00
2.06963	58.00
2.08630	58.00
2.10297	58.00
2.11963	58.00
2.13630	58.00
2.15297	58.00
2.16963	58.00
2.18630	58.00
2.20297	58.00
2.21963	58.00
2.23630	58.00
2.25297	58.00
2.26963	58.00
2.28630	58.00
2.30297	58.00
2.31963	58.00
2.33630	58.00
2.35297	58.00
2.36963	58.00
2.38630	57.99
2.40297	57.99
2.41963	58.00
2.43630	58.00
2.45297	58.00
2.46963	58.00
2.48630	58.00
2.50297	57.97
2.51963	58.01
2.53630	58.00
2.55297	58.00
2.56963	58.00
2.58630	58.00
2.60297	58.00
2.61963	58.00
2.63630	58.00
2.65297	58.00
2.66963	58.00
2.68630	58.00
2.70297	58.00
2.71963	58.00
2.73630	58.00
2.75297	58.00
2.76963	58.00
2.78630	58.00
2.80297	58.00
2.81963	58.00
2.83630	58.00
2.85297	58.00
2.86963	58.00
2.88630	58.00
2.90297	58.00
2.91963	58.00
2.93630	58.00
2.95297	58.00
2.96963	58.00
2.98630	58.00
3.00297	58.00
3.01963	58.00
3.03630	58.00
3.05297	58.00
3.06963	58.00
3.08630	58.00
3.10297	58.00
3.11963	58.00
3.13630	58.00
3.15297	58.00
3.16963	58.00
3.18630	58.00
3.20297	58.00
3.21963	58.00
3.23630	58.00
3.25297	58.00
3.26963	58.00
3.28630	58.00
3.30297	58.00
3.31963	58.00
3.33630	58.00
3.35297	58.00
3.36963	58.00
3.38630	58.00
3.40297	58.00
3.41963	58.00
3.43630	58.00
3.45297	58.00
3.46963	58.00
3.48630	58.00
3.50297	58.00
3.51963	58.00
3.53630	58.00
3.55297	58.00
3.56963	58.00
3.58630	58.00
3.60297	58.00
3.61963	58.00
3.63630	58.00
3.65297	58.00
3.66963	58.00
3.68630	58.00
3.70297	58.00
3.71963	58.00
3.73630	58.00
3.75297	58.00
3.76963	58.00
3.78630	58.00
3.80297	58.00
3.81963	58.00
3.83630	58.00
3.85297	58.00
3.86963	58.00
3.88630	58.00
3.90297	58.00
3.91963	58.00
3.93630	58.00
3.95297	58.00
3.96963	58.00
3.98630	58.00

[Status Trace (Carrier Gas Flow)]
Interval(msec)	1000
# of Points	240
Start Time(min)	0.003
End Time(min)	3.986
Intensity Units	
Intensity Multiplier	1
R.Time (min)	Intensity
0.00297	34.52
0.01963	34.59
0.03630	34.55
0.05297	34.55
0.06963	34.49
0.08630	34.51
0.10297	34.52
0.11963	34.52
0.13630	34.52
0.15297	34.51
0.16963	34.52
0.18630	34.52
0.20297	34.52
0.21963	34.51
0.23630	34.52
0.25297	34.52
0.26963	34.52
0.28630	34.52
0.30297	34.51
0.31963	34.53
0.33630	34.51
0.35297	34.52
0.36963	34.51
0.38630	34.52
0.40297	34.52
0.41963	34.51
0.43630	34.52
0.45297	34.52
0.46963	34.52
0.48630	34.52
0.50297	34.52
0.51963	34.52
0.53630	34.52
0.55297	34.51
0.56963	34.51
0.58630	34.51
0.60297	34.52
0.61963	34.51
0.63630	34.52
0.65297	34.53
0.66963	34.52
0.68630	34.52
0.70297	34.51
0.71963	34.52
0.73630	34.52
0.75297	34.52
0.76963	34.52
0.78630	34.52
0.80297	34.51
0.81963	34.52
0.83630	34.52
0.85297	34.52
0.86963	34.52
0.88630	34.52
0.90297	34.52
0.91963	34.51
0.93630	34.52
0.95297	34.52
0.96963	34.52
0.98630	34.52
1.00297	34.52
1.01963	34.52
1.03630	34.52
1.05297	34.51
1.06963	34.52
1.08630	34.52
1.10297	34.52
1.11963	34.51
1.13630	34.52
1.15297	34.52
1.16963	34.52
1.18630	34.52
1.20297	34.52
1.21963	34.52
1.23630	34.52
1.25297	34.52
1.26963	34.52
1.28630	34.52
1.30297	34.52
1.31963	34.52
1.33630	34.52
1.35297	34.52
1.36963	34.52
1.38630	34.52
1.40297	34.52
1.41963	34.52
1.43630	34.52
1.45297	34.52
1.46963	34.52
1.48630	34.51
1.50297	34.51
1.51963	34.53
1.53630	34.51
1.55297	34.52
1.56963	34.52
1.58630	34.52
1.60297	34.52
1.61963	34.52
1.63630	34.51
1.65297	34.52
1.66963	34.52
1.68630	34.52
1.70297	34.52
1.71963	34.52
1.73630	34.52
1.75297	34.52
1.76963	34.52
1.78630	34.52
1.80297	34.52
1.81963	34.52
1.83630	34.51
1.85297	34.52
1.86963	34.52
1.88630	34.52
1.90297	34.52
1.91963	34.52
1.93630	34.52
1.95297	34.52
1.96963	34.52
1.98630	34.53
2.00297	34.52
2.01963	34.51
2.03630	34.52
2.05297	34.53
2.06963	34.52
2.08630	34.51
2.10297	34.52
2.11963	34.52
2.13630	34.52
2.15297	34.52
2.16963	34.52
2.18630	34.52
2.20297	34.51
2.21963	34.52
2.23630	34.52
2.25297	34.52
2.26963	34.52
2.28630	34.52
2.30297	34.52
2.31963	34.52
2.33630	34.52
2.35297	34.52
2.36963	34.51
2.38630	34.52
2.40297	34.52
2.41963	34.51
2.43630	34.52
2.45297	34.52
2.46963	34.52
2.48630	34.52
2.50297	34.64
2.51963	34.52
2.53630	34.52
2.55297	34.51
2.56963	34.52
2.58630	34.51
2.60297	34.52
2.61963	34.52
2.63630	34.52
2.65297	34.51
2.66963	34.52
2.68630	34.51
2.70297	34.52
2.71963	34.52
2.73630	34.52
2.75297	34.52
2.76963	34.52
2.78630	34.52
2.80297	34.52
2.81963	34.51
2.83630	34.52
2.85297	34.52
2.86963	34.52
2.88630	34.52
2.90297	34.52
2.91963	34.52
2.93630	34.52
2.95297	34.52
2.96963	34.52
2.98630	34.52
3.00297	34.52
3.01963	34.52
3.03630	34.52
3.05297	34.52
3.06963	34.52
3.08630	34.52
3.10297	34.52
3.11963	34.52
3.13630	34.51
3.15297	34.52
3.16963	34.52
3.18630	34.52
3.20297	34.52
3.21963	34.52
3.23630	34.51
3.25297	34.51
3.26963	34.52
3.28630	34.52
3.30297	34.52
3.31963	34.52
3.33630	34.52
3.35297	34.52
3.36963	34.52
3.38630	34.52
3.40297	34.52
3.41963	34.52
3.43630	34.51
3.45297	34.52
3.46963	34.51
3.48630	34.51
3.50297	34.52
3.51963	34.52
3.53630	34.52
3.55297	34.52
3.56963	34.52
3.58630	34.52
3.60297	34.53
3.61963	34.51
3.63630	34.52
3.65297	34.52
3.66963	34.51
3.68630	34.52
3.70297	34.53
3.71963	34.52
3.73630	34.51
3.75297	34.52
3.76963	34.52
3.78630	34.52
3.80297	34.52
3.81963	34.52
3.83630	34.52
3.85297	34.52
3.86963	34.52
3.88630	34.52
3.90297	34.52
3.91963	34.52
3.93630	34.52
3.95297	34.52
3.96963	34.52
3.98630	34.52

[Status Trace (Column Flow)]
Interval(msec)	1000
# of Points	240
Start Time(min)	0.003
End Time(min)	3.986
Intensity Units	
Intensity Multiplier	1
R.Time (min)	Intensity
0.00297	5.56
0.01963	5.34
0.03630	5.38
0.05297	5.63
0.06963	5.77
0.08630	5.58
0.10297	5.55
0.11963	5.55
0.13630	5.55
0.15297	5.55
0.16963	5.55
0.18630	5.55
0.20297	5.56
0.21963	5.56
0.23630	5.56
0.25297	5.56
0.26963	5.56
0.28630	5.56
0.30297	5.56
0.31963	5.55
0.33630	5.55
0.35297	5.55
0.36963	5.55
0.38630	5.55
0.40297	5.56
0.41963	5.56
0.43630	5.56
0.45297	5.56
0.46963	5.56
0.48630	5.56
0.50297	5.56
0.51963	5.56
0.53630	5.55
0.55297	5.55
0.56963	5.56
0.58630	5.56
0.60297	5.56
0.61963	5.56
0.63630	5.56
0.65297	5.56
0.66963	5.56
0.68630	5.56
0.70297	5.56
0.71963	5.56
0.73630	5.56
0.75297	5.55
0.76963	5.55
0.78630	5.56
0.80297	5.56
0.81963	5.56
0.83630	5.56
0.85297	5.56
0.86963	5.56
0.88630	5.56
0.90297	5.56
0.91963	5.56
0.93630	5.56
0.95297	5.56
0.96963	5.56
0.98630	5.56
1.00297	5.56
1.01963	5.56
1.03630	5.56
1.05297	5.56
1.06963	5.56
1.08630	5.56
1.10297	5.56
1.11963	5.56
1.13630	5.56
1.15297	5.56
1.16963	5.56
1.18630	5.56
1.20297	5.56
1.21963	5.56
1.23630	5.56
1.25297	5.56
1.26963	5.56
1.28630	5.56
1.30297	5.56
1.31963	5.56
1.33630	5.56
1.35297	5.56
1.36963	5.56
1.38630	5.56
1.40297	5.56
1.41963	5.56
1.43630	5.56
1.45297	5.56
1.46963	5.56
1.48630	5.56
1.50297	5.56
1.51963	5.56
1.53630	5.56
1.55297	5.56
1.56963	5.56
1.58630	5.56
1.60297	5.55
1.61963	5.55
1.63630	5.55
1.65297	5.54
1.66963	5.53
1.68630	5.52
1.70297	5.51
1.71963	5.50
1.73630	5.49
1.75297	5.47
1.76963	5.46
1.78630	5.45
1.80297	5.44
1.81963	5.43
1.83630	5.42
1.85297	5.41
1.86963	5.40
1.88630	5.39
1.90297	5.38
1.91963	5.37
1.93630	5.36
1.95297	5.35
1.96963	5.34
1.98630	5.33
2.00297	5.33
2.01963	5.32
2.03630	5.31
2.05297	5.30
2.06963	5.29
2.08630	5.28
2.10297	5.27
2.11963	5.26
2.13630	5.25
2.15297	5.24
2.16963	5.23
2.18630	5.22
2.20297	5.21
2.21963	5.20
2.23630	5.19
2.25297	5.18
2.26963	5.17
2.28630	5.16
2.30297	5.15
2.31963	5.14
2.33630	5.13
2.35297	5.13
2.36963	5.12
2.38630	5.12
2.40297	5.12
2.41963	5.12
2.43630	5.12
2.45297	5.12
2.46963	5.12
2.48630	5.12
2.50297	5.11
2.51963	5.12
2.53630	5.12
2.55297	5.12
2.56963	5.12
2.58630	5.12
2.60297	5.12
2.61963	5.11
2.63630	5.11
2.65297	5.11
2.66963	5.11
2.68630	5.11
2.70297	5.11
2.71963	5.11
2.73630	5.11
2.75297	5.11
2.76963	5.11
2.78630	5.11
2.80297	5.11
2.81963	5.11
2.83630	5.11
2.85297	5.11
2.86963	5.11
2.88630	5.11
2.90297	5.11
2.91963	5.11
2.93630	5.11
2.95297	5.11
2.96963	5.11
2.98630	5.11
3.00297	5.11
3.01963	5.11
3.03630	5.11
3.05297	5.11
3.06963	5.11
3.08630	5.11
3.10297	5.11
3.11963	5.11
3.13630	5.11
3.15297	5.11
3.16963	5.11
3.18630	5.11
3.20297	5.11
3.21963	5.11
3.23630	5.11
3.25297	5.11
3.26963	5.11
3.28630	5.11
3.30297	5.11
3.31963	5.11
3.33630	5.11
3.35297	5.11
3.36963	5.11
3.38630	5.11
3.40297	5.11
3.41963	5.11
3.43630	5.11
3.45297	5.11
3.46963	5.11
3.48630	5.11
3.50297	5.11
3.51963	5.11
3.53630	5.11
3.55297	5.11
3.56963	5.11
3.58630	5.11
3.60297	5.11
3.61963	5.11
3.63630	5.11
3.65297	5.11
3.66963	5.11
3.68630	5.11
3.70297	5.11
3.71963	5.11
3.73630	5.11
3.75297	5.11
3.76963	5.11
3.78630	5.11
3.80297	5.11
3.81963	5.11
3.83630	5.11
3.85297	5.11
3.86963	5.11
3.88630	5.11
3.90297	5.11
3.91963	5.11
3.93630	5.11
3.95297	5.11
3.96963	5.11
3.98630	5.11

[Status Trace (Linear Velocity)]
Interval(msec)	1000
# of Points	240
Start Time(min)	0.003
End Time(min)	3.986
Intensity Units	
Intensity Multiplier	1
R.Time (min)	Intensity
0.00297	39.02
0.01963	37.82
0.03630	38.02
0.05297	39.43
0.06963	40.21
0.08630	39.17
0.10297	39.00
0.11963	39.02
0.13630	39.02
0.15297	39.02
0.16963	39.02
0.18630	39.02
0.20297	39.02
0.21963	39.02
0.23630	39.02
0.25297	39.03
0.26963	39.02
0.28630	39.03
0.30297	39.02
0.31963	39.02
0.33630	39.02
0.35297	39.02
0.36963	39.02
0.38630	39.02
0.40297	39.02
0.41963	39.02
0.43630	39.03
0.45297	39.03
0.46963	39.03
0.48630	39.03
0.50297	39.02
0.51963	39.02
0.53630	39.02
0.55297	39.02
0.56963	39.02
0.58630	39.02
0.60297	39.03
0.61963	39.03
0.63630	39.02
0.65297	39.02
0.66963	39.02
0.68630	39.03
0.70297	39.03
0.71963	39.02
0.73630	39.02
0.75297	39.02
0.76963	39.02
0.78630	39.02
0.80297	39.02
0.81963	39.02
0.83630	39.02
0.85297	39.02
0.86963	39.02
0.88630	39.02
0.90297	39.03
0.91963	39.03
0.93630	39.03
0.95297	39.03
0.96963	39.03
0.98630	39.03
1.00297	39.02
1.01963	39.02
1.03630	39.02
1.05297	39.02
1.06963	39.02
1.08630	39.02
1.10297	39.03
1.11963	39.03
1.13630	39.03
1.15297	39.03
1.16963	39.03
1.18630	39.03
1.20297	39.03
1.21963	39.03
1.23630	39.03
1.25297	39.03
1.26963	39.03
1.28630	39.02
1.30297	39.02
1.31963	39.02
1.33630	39.02
1.35297	39.02
1.36963	39.03
1.38630	39.03
1.40297	39.03
1.41963	39.03
1.43630	39.03
1.45297	39.03
1.46963	39.03
1.48630	39.03
1.50297	39.03
1.51963	39.03
1.53630	39.03
1.55297	39.03
1.56963	39.03
1.58630	39.02
1.60297	39.02
1.61963	39.01
1.63630	39.00
1.65297	38.97
1.66963	38.95
1.68630	38.91
1.70297	38.87
1.71963	38.84
1.73630	38.81
1.75297	38.78
1.76963	38.75
1.78630	38.72
1.80297	38.68
1.81963	38.65
1.83630	38.62
1.85297	38.59
1.86963	38.56
1.88630	38.53
1.90297	38.50
1.91963	38.47
1.93630	38.44
1.95297	38.41
1.96963	38.38
1.98630	38.35
2.00297	38.32
2.01963	38.29
2.03630	38.26
2.05297	38.23
2.06963	38.20
2.08630	38.17
2.10297	38.14
2.11963	38.11
2.13630	38.08
2.15297	38.05
2.16963	38.02
2.18630	37.99
2.20297	37.96
2.21963	37.93
2.23630	37.90
2.25297	37.87
2.26963	37.84
2.28630	37.81
2.30297	37.78
2.31963	37.75
2.33630	37.72
2.35297	37.69
2.36963	37.67
2.38630	37.67
2.40297	37.67
2.41963	37.67
2.43630	37.67
2.45297	37.67
2.46963	37.67
2.48630	37.67
2.50297	37.65
2.51963	37.67
2.53630	37.66
2.55297	37.66
2.56963	37.66
2.58630	37.66
2.60297	37.66
2.61963	37.66
2.63630	37.66
2.65297	37.66
2.66963	37.65
2.68630	37.65
2.70297	37.65
2.71963	37.65
2.73630	37.65
2.75297	37.65
2.76963	37.65
2.78630	37.65
2.80297	37.65
2.81963	37.65
2.83630	37.65
2.85297	37.65
2.86963	37.65
2.88630	37.65
2.90297	37.65
2.91963	37.65
2.93630	37.65
2.95297	37.64
2.96963	37.64
2.98630	37.64
3.00297	37.64
3.01963	37.64
3.03630	37.64
3.05297	37.64
3.06963	37.64
3.08630	37.64
3.10297	37.64
3.11963	37.64
3.13630	37.64
3.15297	37.64
3.16963	37.64
3.18630	37.64
3.20297	37.64
3.21963	37.63
3.23630	37.63
3.25297	37.63
3.26963	37.63
3.28630	37.63
3.30297	37.63
3.31963	37.63
3.33630	37.63
3.35297	37.63
3.36963	37.63
3.38630	37.63
3.40297	37.63
3.41963	37.63
3.43630	37.63
3.45297	37.63
3.46963	37.63
3.48630	37.64
3.50297	37.64
3.51963	37.63
3.53630	37.63
3.55297	37.63
3.56963	37.63
3.58630	37.63
3.60297	37.63
3.61963	37.63
3.63630	37.63
3.65297	37.63
3.66963	37.63
3.68630	37.63
3.70297	37.63
3.71963	37.63
3.73630	37.63
3.75297	37.63
3.76963	37.63
3.78630	37.63
3.80297	37.63
3.81963	37.63
3.83630	37.63
3.85297	37.63
3.86963	37.64
3.88630	37.64
3.90297	37.64
3.91963	37.64
3.93630	37.64
3.95297	37.63
3.96963	37.63
3.98630	37.63

