[Header]
Application Name	LabSolutions
Version	5.110
Data File Name	C:\Users\User\Desktop\GC Analyses\Jack\Nachusa Grasslands Sampling\T4 Timepoint July 12th\T4_07122022_006.gcd
Output Date	3/17/2023
Output Time	12:04:51 PM

[File Information]
Type	Data File
Generated	3/14/2023 3:57:10 PM
Generated by	System Administrator
Modified	3/14/2023 4:03:56 PM
Modified by	System Administrator

[Sample Information]
Operator Name	System Administrator
Acquired	3/14/2023 3:59:55 PM
Sample Type	0:Unknown
Level	0
Sample Name	006
Sample ID	006
ISTD Amount1	1
ISTD Amount2	1
ISTD Amount3	1
ISTD Amount4	1
ISTD Amount5	1
ISTD Amount6	1
ISTD Amount7	1
ISTD Amount8	1
ISTD Amount9	1
ISTD Amount10	1
ISTD Amount11	1
ISTD Amount12	1
ISTD Amount13	1
ISTD Amount14	1
ISTD Amount15	1
ISTD Amount16	1
ISTD Amount17	1
ISTD Amount18	1
ISTD Amount19	1
ISTD Amount20	1
ISTD Amount21	1
ISTD Amount22	1
ISTD Amount23	1
ISTD Amount24	1
ISTD Amount25	1
ISTD Amount26	1
ISTD Amount27	1
ISTD Amount28	1
ISTD Amount29	1
ISTD Amount30	1
ISTD Amount31	1
ISTD Amount32	1
Sample Amount	1
Dilution Factor	1
Vial#	5
Injection Volume	1
Injection Count	1
Bar Code	

[Original Files]
Data File	C:\Users\User\Desktop\GC Analyses\Jack\Nachusa Grasslands Sampling\T4 Timepoint July 12th\T4_07122022_006.gcd
Method File	C:\LabSolutions\Data\GHG_4min_2022\ghg3_togas_w_acet_4 min_new_int.gcm
Batch File	C:\LabSolutions\Data\AutoSamplerTesting\T4_07122022.gcb
Report Format File	c:\LabSolutions\System\DEFAULT.lsr

[File Description]


[Configuration]
Instrument Name	C0B7VH3-Instrument1
Instrument #	1
Line #	1
# of Detectors	3
Detector ID	DET#1	DET#2	DET#3
Detector Name	FID	PTCD	ECD
# of Channels	1	1	1

[Peak Table(Ch1)]
# of Peaks	3
Peak#	R.Time	I.Time	F.Time	Area	Height	A/H	Conc.	Mark	ID#	Name	k'	Plate #	Plate Ht.	Tailing	Resolution	Sep.Factor	Area Ratio	Height Ratio	Conc. %	Norm Conc.
1	1.476	1.439	1.534	23629	11657	2.027	166.820	   	1	CO	0.000	9641	15.559	1.264	0.000	0.000	0	0	16.072	16.072
2	1.571	1.538	1.619	3682	1911	1.927	71.196	   	2	CH4	0.065	11964	12.537	1.138	1.622	0.000	0	0	6.859	6.859
3	1.996	1.945	2.480	3187254	1524968	2.090	799.914	   	3	CO2	0.353	17335	8.653	1.338	7.203	5.462	0	0	77.068	77.068

[Peak Table(Ch2)]
# of Peaks	0

[Peak Table(Ch3)]
# of Peaks	4
Peak#	R.Time	I.Time	F.Time	Area	Height	A/H	Conc.	Mark	ID#	Name	k'	Plate #	Plate Ht.	Tailing	Resolution	Sep.Factor	Area Ratio	Height Ratio	Conc. %	Norm Conc.
1	2.462	2.271	2.510	2409	645	3.733	0.000	   			0.000	8500	17.647	0.000	0.000	0.000	0	0	0.000	0.000
2	2.528	2.510	2.682	1911	397	4.811	0.000	 V 			0.027	4179	35.891	0.000	0.501	0.000	0	0	0.000	0.000
3	2.880	2.700	3.126	19015	4852	3.919	0.486	   	1	N2O	0.170	13057	11.488	1.518	2.737	6.333	0	0	100.000	100.000
4	3.467	3.203	3.613	578	44	13.069	0.000	   			0.408	1551	96.739	0.782	2.590	2.404	0	0	0.000	0.000

[Compound Results(Ch1)]
# of IDs	6
ID#	Name	R.Time	Area	Height	Conc.	Curve	3rd	2nd	1st	Constant	Area Ratio	Height Ratio	Conc. %	Norm Conc.
1	CO	1.476	23629	11657	166.820	Linear	0.000000e+00	0.000000e+00	1.416423e+002	0.000000e+00	0	0	16.072	16.072
2	CH4	1.571	3682	1911	71.196	Linear	0.000000e+00	0.000000e+00	5.171738e+001	0.000000e+00	0	0	6.859	6.859
3	CO2	1.996	3187254	1524968	799.914	Linear	0.000000e+00	0.000000e+00	3.984494e+003	0.000000e+00	0	0	77.068	77.068
4	Ethylene	0.000	0	0	0.000	Linear	0.000000e+00	0.000000e+00	0.000000e+00	0.000000e+00	0	0	0.000	0.000
5	Acetylene	0.000	0	0	0.000	Linear	0.000000e+00	0.000000e+00	0.000000e+00	0.000000e+00	0	0	0.000	0.000
6	Ethane	0.000	0	0	0.000	Linear	0.000000e+00	0.000000e+00	0.000000e+00	0.000000e+00	0	0	0.000	0.000

[Compound Results(Ch2)]
# of IDs	5
ID#	Name	R.Time	Area	Height	Conc.	Curve	3rd	2nd	1st	Constant	Area Ratio	Height Ratio	Conc. %	Norm Conc.
1	Hydrogen	0.000	0	0	0.000	Linear	0.000000e+00	0.000000e+00	0.000000e+00	0.000000e+00	0	0	0.000	0.000
2	Oxygen	0.000	0	0	0.000	Linear	0.000000e+00	0.000000e+00	0.000000e+00	0.000000e+00	0	0	0.000	0.000
3	Nitrogen	0.000	0	0	0.000	Linear	0.000000e+00	0.000000e+00	0.000000e+00	0.000000e+00	0	0	0.000	0.000
4	Methane	0.000	0	0	0.000	Linear	0.000000e+00	0.000000e+00	0.000000e+00	0.000000e+00	0	0	0.000	0.000
5	Carbon Monoxide	0.000	0	0	0.000	Linear	0.000000e+00	0.000000e+00	0.000000e+00	0.000000e+00	0	0	0.000	0.000

[Compound Results(Ch3)]
# of IDs	2
ID#	Name	R.Time	Area	Height	Conc.	Curve	3rd	2nd	1st	Constant	Area Ratio	Height Ratio	Conc. %	Norm Conc.
1	N2O	2.880	19015	4852	0.486	Linear	0.000000e+00	0.000000e+00	3.915173e+004	0.000000e+00	0	0	100.000	100.000
2	SF6	0.000	0	0	0.000	Linear	0.000000e+00	0.000000e+00	0.000000e+00	0.000000e+00	0	0	0.000	0.000

[Group Results(Ch1)]
# of Groups	0

[Group Results(Ch2)]
# of Groups	0

[Group Results(Ch3)]
# of Groups	0

[Chromatogram (Ch1)]
Interval(msec)	220
# of Points	1091
Start Time(min)	0.002
End Time(min)	3.998
R.Time (min)	Intensity
0.00167	-5
0.00533	-5
0.00900	-6
0.01267	-9
0.01633	-10
0.02000	-14
0.02367	-18
0.02733	-15
0.03100	-13
0.03467	-11
0.03833	-12
0.04200	-14
0.04567	-15
0.04933	-9
0.05300	-2
0.05667	3
0.06033	3
0.06400	3
0.06767	6
0.07133	8
0.07500	7
0.07867	2
0.08233	-3
0.08600	-6
0.08967	-4
0.09333	0
0.09700	9
0.10067	19
0.10433	27
0.10800	31
0.11167	28
0.11533	21
0.11900	13
0.12267	11
0.12633	8
0.13000	4
0.13367	1
0.13733	2
0.14100	1
0.14467	2
0.14833	5
0.15200	4
0.15567	1
0.15933	2
0.16300	5
0.16667	9
0.17033	10
0.17400	7
0.17767	2
0.18133	-1
0.18500	-1
0.18867	-1
0.19233	-4
0.19600	-5
0.19967	-5
0.20333	-6
0.20700	-7
0.21067	-4
0.21433	-1
0.21800	3
0.22167	7
0.22533	9
0.22900	11
0.23267	14
0.23633	14
0.24000	10
0.24367	7
0.24733	8
0.25100	9
0.25467	10
0.25833	12
0.26200	9
0.26567	-2
0.26933	-10
0.27300	-12
0.27667	-3
0.28033	10
0.28400	16
0.28767	10
0.29133	-1
0.29500	-11
0.29867	-18
0.30233	-23
0.30600	-23
0.30967	-23
0.31333	-23
0.31700	-18
0.32067	-13
0.32433	-8
0.32800	1
0.33167	12
0.33533	19
0.33900	22
0.34267	22
0.34633	18
0.35000	12
0.35367	7
0.35733	3
0.36100	-1
0.36467	-3
0.36833	-3
0.37200	-2
0.37567	2
0.37933	5
0.38300	2
0.38667	-4
0.39033	-10
0.39400	-14
0.39767	-16
0.40133	-18
0.40500	-24
0.40867	-30
0.41233	-30
0.41600	-27
0.41967	-20
0.42333	-11
0.42700	-6
0.43067	-4
0.43433	-7
0.43800	-9
0.44167	-9
0.44533	-11
0.44900	-10
0.45267	-1
0.45633	12
0.46000	16
0.46367	15
0.46733	19
0.47100	20
0.47467	10
0.47833	-4
0.48200	-15
0.48567	-19
0.48933	-16
0.49300	-7
0.49667	4
0.50033	14
0.50400	17
0.50767	18
0.51133	14
0.51500	8
0.51867	6
0.52233	4
0.52600	1
0.52967	-4
0.53333	-4
0.53700	-4
0.54067	-4
0.54433	-1
0.54800	5
0.55167	9
0.55533	8
0.55900	4
0.56267	0
0.56633	0
0.57000	1
0.57367	-0
0.57733	-4
0.58100	-5
0.58467	-6
0.58833	-5
0.59200	-7
0.59567	-13
0.59933	-25
0.60300	-26
0.60667	-27
0.61033	-23
0.61400	-16
0.61767	-8
0.62133	-5
0.62500	-5
0.62867	-1
0.63233	8
0.63600	17
0.63967	19
0.64333	15
0.64700	10
0.65067	3
0.65433	-7
0.65800	-12
0.66167	-14
0.66533	-14
0.66900	-10
0.67267	-3
0.67633	3
0.68000	4
0.68367	2
0.68733	0
0.69100	-6
0.69467	-15
0.69833	-21
0.70200	-22
0.70567	-27
0.70933	-32
0.71300	-21
0.71667	-15
0.72033	-17
0.72400	-18
0.72767	-20
0.73133	-20
0.73500	-19
0.73867	-17
0.74233	-13
0.74600	-11
0.74967	-5
0.75333	3
0.75700	12
0.76067	18
0.76433	17
0.76800	8
0.77167	-3
0.77533	-13
0.77900	-17
0.78267	-21
0.78633	-30
0.79000	-41
0.79367	-49
0.79733	-54
0.80100	-55
0.80467	-50
0.80833	-43
0.81200	-37
0.81567	-33
0.81933	-28
0.82300	-21
0.82667	-17
0.83033	-18
0.83400	-21
0.83767	-22
0.84133	-22
0.84500	-22
0.84867	-22
0.85233	-21
0.85600	-20
0.85967	-19
0.86333	-18
0.86700	-19
0.87067	-19
0.87433	-21
0.87800	-20
0.88167	-20
0.88533	-25
0.88900	-29
0.89267	-27
0.89633	-19
0.90000	-11
0.90367	-8
0.90733	-13
0.91100	-23
0.91467	-27
0.91833	-27
0.92200	-26
0.92567	-26
0.92933	-23
0.93300	-16
0.93667	-10
0.94033	-3
0.94400	6
0.94767	15
0.95133	16
0.95500	5
0.95867	-11
0.96233	-28
0.96600	-42
0.96967	-44
0.97333	-40
0.97700	-39
0.98067	-37
0.98433	-32
0.98800	-31
0.99167	-31
0.99533	-31
0.99900	-30
1.00267	-27
1.00633	-23
1.01000	-17
1.01367	-17
1.01733	-20
1.02100	-21
1.02467	-18
1.02833	-17
1.03200	-21
1.03567	-19
1.03933	-13
1.04300	-10
1.04667	-13
1.05033	-20
1.05400	-26
1.05767	-28
1.06133	-27
1.06500	-25
1.06867	-26
1.07233	-32
1.07600	-33
1.07967	-29
1.08333	-24
1.08700	-23
1.09067	-22
1.09433	-16
1.09800	-13
1.10167	-17
1.10533	-25
1.10900	-32
1.11267	-39
1.11633	-42
1.12000	-41
1.12367	-37
1.12733	-33
1.13100	-28
1.13467	-26
1.13833	-30
1.14200	-36
1.14567	-38
1.14933	-37
1.15300	-36
1.15667	-36
1.16033	-35
1.16400	-33
1.16767	-32
1.17133	-31
1.17500	-29
1.17867	-26
1.18233	-24
1.18600	-24
1.18967	-25
1.19333	-26
1.19700	-27
1.20067	-25
1.20433	-21
1.20800	-18
1.21167	-15
1.21533	-10
1.21900	-3
1.22267	7
1.22633	13
1.23000	12
1.23367	3
1.23733	-18
1.24100	-43
1.24467	-61
1.24833	-70
1.25200	-71
1.25567	-68
1.25933	-66
1.26300	-65
1.26667	-64
1.27033	-57
1.27400	-53
1.27767	-47
1.28133	-42
1.28500	-41
1.28867	-44
1.29233	-46
1.29600	-48
1.29967	-52
1.30333	-53
1.30700	-52
1.31067	-49
1.31433	-45
1.31800	-41
1.32167	-37
1.32533	-34
1.32900	-32
1.33267	-30
1.33633	-30
1.34000	-29
1.34367	-30
1.34733	-33
1.35100	-37
1.35467	-38
1.35833	-37
1.36200	-37
1.36567	-37
1.36933	-37
1.37300	-31
1.37667	-24
1.38033	-22
1.38400	-17
1.38767	-12
1.39133	-16
1.39500	-27
1.39867	-40
1.40233	-50
1.40600	-55
1.40967	-55
1.41333	-53
1.41700	-51
1.42067	-48
1.42433	-47
1.42800	-45
1.43167	-42
1.43533	-44
1.43900	-45
1.44267	-17
1.44633	114
1.45000	510
1.45367	1499
1.45733	3277
1.46100	5545
1.46467	7785
1.46833	9636
1.47200	10940
1.47567	11600
1.47933	11507
1.48300	10623
1.48667	9113
1.49033	7296
1.49400	5498
1.49767	3939
1.50133	2709
1.50500	1799
1.50867	1152
1.51233	708
1.51600	413
1.51967	218
1.52333	87
1.52700	2
1.53067	-48
1.53433	-75
1.53800	-90
1.54167	-64
1.54533	58
1.54900	311
1.55267	668
1.55633	1052
1.56000	1391
1.56367	1647
1.56733	1795
1.57100	1817
1.57467	1692
1.57833	1444
1.58200	1130
1.58567	814
1.58933	540
1.59300	334
1.59667	188
1.60033	87
1.60400	20
1.60767	-27
1.61133	-62
1.61500	-86
1.61867	-100
1.62233	-104
1.62600	-106
1.62967	-105
1.63333	-102
1.63700	-100
1.64067	-99
1.64433	-97
1.64800	-97
1.65167	-96
1.65533	-94
1.65900	-92
1.66267	-89
1.66633	-86
1.67000	-79
1.67367	-70
1.67733	-70
1.68100	-74
1.68467	-76
1.68833	-79
1.69200	-85
1.69567	-89
1.69933	-93
1.70300	-96
1.70667	-103
1.71033	-111
1.71400	-118
1.71767	-122
1.72133	-125
1.72500	-127
1.72867	-127
1.73233	-130
1.73600	-130
1.73967	-125
1.74333	-119
1.74700	-114
1.75067	-106
1.75433	-99
1.75800	-98
1.76167	-97
1.76533	-90
1.76900	-86
1.77267	-83
1.77633	-76
1.78000	-68
1.78367	-66
1.78733	-70
1.79100	-75
1.79467	-75
1.79833	-75
1.80200	-77
1.80567	-74
1.80933	-70
1.81300	-72
1.81667	-82
1.82033	-89
1.82400	-94
1.82767	-101
1.83133	-105
1.83500	-102
1.83867	-93
1.84233	-86
1.84600	-84
1.84967	-83
1.85333	-85
1.85700	-91
1.86067	-96
1.86433	-97
1.86800	-94
1.87167	-90
1.87533	-83
1.87900	-76
1.88267	-79
1.88633	-84
1.89000	-86
1.89367	-85
1.89733	-84
1.90100	-87
1.90467	-89
1.90833	-89
1.91200	-89
1.91567	-91
1.91933	-93
1.92300	-96
1.92667	-97
1.93033	-93
1.93400	-89
1.93767	-87
1.94133	-81
1.94500	-76
1.94867	-70
1.95233	-48
1.95600	87
1.95967	957
1.96333	5420
1.96700	22757
1.97067	74080
1.97433	190201
1.97800	391591
1.98167	664365
1.98533	962440
1.98900	1231261
1.99267	1427611
1.99633	1524918
2.00000	1514441
2.00367	1405474
2.00733	1223271
2.01100	1003053
2.01467	780150
2.01833	580678
2.02200	417796
2.02567	293548
2.02933	203342
2.03300	140071
2.03667	96692
2.04033	67351
2.04400	47628
2.04767	34368
2.05133	25398
2.05500	19258
2.05867	14989
2.06233	11964
2.06600	9772
2.06967	8149
2.07333	6925
2.07700	5976
2.08067	5228
2.08433	4628
2.08800	4141
2.09167	3738
2.09533	3395
2.09900	3100
2.10267	2850
2.10633	2639
2.11000	2452
2.11367	2282
2.11733	2131
2.12100	1997
2.12467	1877
2.12833	1767
2.13200	1666
2.13567	1576
2.13933	1492
2.14300	1416
2.14667	1353
2.15033	1298
2.15400	1246
2.15767	1194
2.16133	1143
2.16500	1090
2.16867	1037
2.17233	985
2.17600	938
2.17967	899
2.18333	868
2.18700	838
2.19067	809
2.19433	784
2.19800	761
2.20167	742
2.20533	719
2.20900	691
2.21267	669
2.21633	656
2.22000	644
2.22367	626
2.22733	605
2.23100	580
2.23467	553
2.23833	531
2.24200	513
2.24567	494
2.24933	478
2.25300	467
2.25667	458
2.26033	454
2.26400	457
2.26767	456
2.27133	448
2.27500	436
2.27867	423
2.28233	409
2.28600	396
2.28967	385
2.29333	374
2.29700	364
2.30067	356
2.30433	350
2.30800	344
2.31167	343
2.31533	340
2.31900	336
2.32267	333
2.32633	325
2.33000	317
2.33367	314
2.33733	306
2.34100	289
2.34467	275
2.34833	270
2.35200	271
2.35567	276
2.35933	283
2.36300	280
2.36667	273
2.37033	267
2.37400	265
2.37767	266
2.38133	267
2.38500	268
2.38867	268
2.39233	264
2.39600	260
2.39967	256
2.40333	252
2.40700	250
2.41067	249
2.41433	243
2.41800	234
2.42167	229
2.42533	224
2.42900	223
2.43267	228
2.43633	235
2.44000	231
2.44367	220
2.44733	211
2.45100	201
2.45467	194
2.45833	193
2.46200	194
2.46567	199
2.46933	205
2.47300	208
2.47667	204
2.48033	199
2.48400	195
2.48767	191
2.49133	184
2.49500	181
2.49867	183
2.50233	186
2.50600	188
2.50967	184
2.51333	179
2.51700	178
2.52067	179
2.52433	176
2.52800	171
2.53167	169
2.53533	170
2.53900	172
2.54267	171
2.54633	168
2.55000	169
2.55367	171
2.55733	173
2.56100	174
2.56467	174
2.56833	174
2.57200	168
2.57567	159
2.57933	152
2.58300	149
2.58667	149
2.59033	148
2.59400	146
2.59767	146
2.60133	148
2.60500	152
2.60867	158
2.61233	164
2.61600	168
2.61967	172
2.62333	177
2.62700	183
2.63067	189
2.63433	193
2.63800	193
2.64167	188
2.64533	183
2.64900	180
2.65267	185
2.65633	192
2.66000	195
2.66367	195
2.66733	196
2.67100	200
2.67467	200
2.67833	199
2.68200	203
2.68567	206
2.68933	201
2.69300	197
2.69667	192
2.70033	191
2.70400	195
2.70767	197
2.71133	191
2.71500	184
2.71867	182
2.72233	183
2.72600	189
2.72967	196
2.73333	200
2.73700	203
2.74067	205
2.74433	206
2.74800	208
2.75167	209
2.75533	212
2.75900	209
2.76267	200
2.76633	193
2.77000	189
2.77367	189
2.77733	196
2.78100	202
2.78467	205
2.78833	204
2.79200	201
2.79567	199
2.79933	200
2.80300	206
2.80667	217
2.81033	227
2.81400	230
2.81767	227
2.82133	219
2.82500	212
2.82867	206
2.83233	206
2.83600	209
2.83967	208
2.84333	209
2.84700	213
2.85067	220
2.85433	230
2.85800	239
2.86167	235
2.86533	218
2.86900	201
2.87267	192
2.87633	190
2.88000	192
2.88367	198
2.88733	205
2.89100	209
2.89467	205
2.89833	200
2.90200	198
2.90567	196
2.90933	194
2.91300	194
2.91667	195
2.92033	199
2.92400	209
2.92767	219
2.93133	228
2.93500	233
2.93867	231
2.94233	224
2.94600	214
2.94967	208
2.95333	208
2.95700	207
2.96067	210
2.96433	217
2.96800	219
2.97167	216
2.97533	215
2.97900	210
2.98267	206
2.98633	207
2.99000	209
2.99367	210
2.99733	209
3.00100	211
3.00467	216
3.00833	221
3.01200	227
3.01567	230
3.01933	230
3.02300	228
3.02667	227
3.03033	232
3.03400	234
3.03767	231
3.04133	225
3.04500	218
3.04867	214
3.05233	216
3.05600	219
3.05967	219
3.06333	217
3.06700	220
3.07067	224
3.07433	228
3.07800	230
3.08167	230
3.08533	228
3.08900	226
3.09267	224
3.09633	225
3.10000	229
3.10367	226
3.10733	222
3.11100	217
3.11467	210
3.11833	210
3.12200	220
3.12567	233
3.12933	247
3.13300	257
3.13667	251
3.14033	236
3.14400	219
3.14767	204
3.15133	198
3.15500	197
3.15867	201
3.16233	211
3.16600	222
3.16967	229
3.17333	230
3.17700	230
3.18067	226
3.18433	220
3.18800	213
3.19167	210
3.19533	217
3.19900	230
3.20267	241
3.20633	246
3.21000	242
3.21367	232
3.21733	216
3.22100	200
3.22467	191
3.22833	191
3.23200	193
3.23567	195
3.23933	195
3.24300	198
3.24667	201
3.25033	203
3.25400	208
3.25767	215
3.26133	221
3.26500	223
3.26867	222
3.27233	221
3.27600	221
3.27967	225
3.28333	230
3.28700	234
3.29067	237
3.29433	239
3.29800	236
3.30167	228
3.30533	224
3.30900	222
3.31267	219
3.31633	218
3.32000	218
3.32367	228
3.32733	245
3.33100	256
3.33467	258
3.33833	251
3.34200	239
3.34567	229
3.34933	222
3.35300	218
3.35667	217
3.36033	217
3.36400	214
3.36767	205
3.37133	195
3.37500	190
3.37867	192
3.38233	200
3.38600	210
3.38967	213
3.39333	210
3.39700	209
3.40067	209
3.40433	212
3.40800	223
3.41167	228
3.41533	222
3.41900	218
3.42267	221
3.42633	226
3.43000	224
3.43367	219
3.43733	211
3.44100	203
3.44467	197
3.44833	190
3.45200	184
3.45567	184
3.45933	194
3.46300	209
3.46667	221
3.47033	227
3.47400	221
3.47767	209
3.48133	193
3.48500	186
3.48867	194
3.49233	204
3.49600	206
3.49967	201
3.50333	200
3.50700	202
3.51067	211
3.51433	220
3.51800	222
3.52167	219
3.52533	212
3.52900	203
3.53267	196
3.53633	196
3.54000	197
3.54367	197
3.54733	195
3.55100	190
3.55467	181
3.55833	177
3.56200	178
3.56567	191
3.56933	201
3.57300	200
3.57667	194
3.58033	190
3.58400	185
3.58767	180
3.59133	176
3.59500	178
3.59867	178
3.60233	175
3.60600	171
3.60967	167
3.61333	166
3.61700	170
3.62067	168
3.62433	169
3.62800	175
3.63167	183
3.63533	188
3.63900	189
3.64267	183
3.64633	176
3.65000	173
3.65367	172
3.65733	175
3.66100	179
3.66467	179
3.66833	177
3.67200	179
3.67567	188
3.67933	199
3.68300	204
3.68667	205
3.69033	205
3.69400	199
3.69767	195
3.70133	193
3.70500	187
3.70867	180
3.71233	170
3.71600	160
3.71967	152
3.72333	150
3.72700	152
3.73067	159
3.73433	170
3.73800	177
3.74167	175
3.74533	171
3.74900	173
3.75267	177
3.75633	180
3.76000	178
3.76367	173
3.76733	169
3.77100	166
3.77467	165
3.77833	166
3.78200	170
3.78567	171
3.78933	170
3.79300	169
3.79667	168
3.80033	169
3.80400	169
3.80767	171
3.81133	176
3.81500	183
3.81867	188
3.82233	187
3.82600	184
3.82967	177
3.83333	169
3.83700	163
3.84067	158
3.84433	157
3.84800	158
3.85167	162
3.85533	166
3.85900	163
3.86267	156
3.86633	152
3.87000	156
3.87367	167
3.87733	174
3.88100	173
3.88467	166
3.88833	157
3.89200	150
3.89567	150
3.89933	152
3.90300	152
3.90667	150
3.91033	147
3.91400	143
3.91767	141
3.92133	141
3.92500	146
3.92867	151
3.93233	154
3.93600	161
3.93967	164
3.94333	162
3.94700	157
3.95067	147
3.95433	139
3.95800	134
3.96167	130
3.96533	130
3.96900	133
3.97267	138
3.97633	141
3.98000	145
3.98367	152
3.98733	160
3.99100	172
3.99467	183
3.99833	189

[Chromatogram (Ch2)]
Interval(msec)	220
# of Points	1091
Start Time(min)	0.002
End Time(min)	3.998
R.Time (min)	Intensity
0.00167	0
0.00533	1
0.00900	1
0.01267	1
0.01633	1
0.02000	1
0.02367	1
0.02733	2
0.03100	2
0.03467	2
0.03833	2
0.04200	3
0.04567	3
0.04933	3
0.05300	3
0.05667	3
0.06033	3
0.06400	3
0.06767	3
0.07133	3
0.07500	3
0.07867	3
0.08233	3
0.08600	4
0.08967	4
0.09333	4
0.09700	4
0.10067	3
0.10433	3
0.10800	3
0.11167	2
0.11533	2
0.11900	2
0.12267	2
0.12633	1
0.13000	1
0.13367	1
0.13733	1
0.14100	2
0.14467	2
0.14833	2
0.15200	2
0.15567	3
0.15933	3
0.16300	3
0.16667	3
0.17033	3
0.17400	4
0.17767	4
0.18133	4
0.18500	4
0.18867	5
0.19233	5
0.19600	5
0.19967	5
0.20333	4
0.20700	3
0.21067	3
0.21433	2
0.21800	1
0.22167	1
0.22533	0
0.22900	-0
0.23267	-1
0.23633	-1
0.24000	-1
0.24367	-0
0.24733	-0
0.25100	-0
0.25467	0
0.25833	0
0.26200	1
0.26567	1
0.26933	2
0.27300	3
0.27667	3
0.28033	4
0.28400	4
0.28767	4
0.29133	4
0.29500	4
0.29867	4
0.30233	4
0.30600	3
0.30967	3
0.31333	3
0.31700	2
0.32067	2
0.32433	2
0.32800	2
0.33167	1
0.33533	1
0.33900	1
0.34267	1
0.34633	1
0.35000	1
0.35367	1
0.35733	1
0.36100	1
0.36467	1
0.36833	1
0.37200	1
0.37567	1
0.37933	1
0.38300	1
0.38667	0
0.39033	0
0.39400	0
0.39767	0
0.40133	0
0.40500	0
0.40867	1
0.41233	1
0.41600	1
0.41967	2
0.42333	2
0.42700	2
0.43067	3
0.43433	3
0.43800	3
0.44167	3
0.44533	4
0.44900	4
0.45267	4
0.45633	5
0.46000	5
0.46367	4
0.46733	4
0.47100	4
0.47467	3
0.47833	2
0.48200	2
0.48567	1
0.48933	1
0.49300	0
0.49667	-0
0.50033	-0
0.50400	-1
0.50767	-1
0.51133	-0
0.51500	0
0.51867	0
0.52233	1
0.52600	1
0.52967	1
0.53333	1
0.53700	1
0.54067	1
0.54433	1
0.54800	1
0.55167	0
0.55533	0
0.55900	0
0.56267	0
0.56633	0
0.57000	0
0.57367	1
0.57733	1
0.58100	1
0.58467	1
0.58833	1
0.59200	1
0.59567	1
0.59933	2
0.60300	2
0.60667	2
0.61033	2
0.61400	3
0.61767	3
0.62133	3
0.62500	3
0.62867	2
0.63233	2
0.63600	2
0.63967	1
0.64333	1
0.64700	1
0.65067	0
0.65433	0
0.65800	0
0.66167	0
0.66533	1
0.66900	1
0.67267	1
0.67633	1
0.68000	1
0.68367	1
0.68733	0
0.69100	0
0.69467	0
0.69833	-0
0.70200	-0
0.70567	-0
0.70933	-0
0.71300	0
0.71667	1
0.72033	1
0.72400	2
0.72767	2
0.73133	3
0.73500	3
0.73867	3
0.74233	3
0.74600	3
0.74967	3
0.75333	4
0.75700	4
0.76067	4
0.76433	4
0.76800	4
0.77167	4
0.77533	3
0.77900	3
0.78267	3
0.78633	2
0.79000	2
0.79367	2
0.79733	2
0.80100	2
0.80467	2
0.80833	1
0.81200	1
0.81567	1
0.81933	1
0.82300	2
0.82667	2
0.83033	1
0.83400	1
0.83767	1
0.84133	1
0.84500	1
0.84867	1
0.85233	0
0.85600	0
0.85967	0
0.86333	0
0.86700	-0
0.87067	-0
0.87433	-1
0.87800	-1
0.88167	-1
0.88533	-1
0.88900	-1
0.89267	-1
0.89633	-0
0.90000	-0
0.90367	-0
0.90733	0
0.91100	0
0.91467	0
0.91833	0
0.92200	0
0.92567	0
0.92933	0
0.93300	1
0.93667	1
0.94033	1
0.94400	1
0.94767	2
0.95133	2
0.95500	3
0.95867	3
0.96233	4
0.96600	4
0.96967	4
0.97333	5
0.97700	5
0.98067	5
0.98433	5
0.98800	5
0.99167	5
0.99533	4
0.99900	4
1.00267	4
1.00633	3
1.01000	3
1.01367	2
1.01733	2
1.02100	1
1.02467	1
1.02833	0
1.03200	-0
1.03567	-1
1.03933	-1
1.04300	-1
1.04667	-1
1.05033	-1
1.05400	-0
1.05767	-0
1.06133	0
1.06500	0
1.06867	1
1.07233	1
1.07600	1
1.07967	1
1.08333	1
1.08700	2
1.09067	2
1.09433	3
1.09800	3
1.10167	4
1.10533	4
1.10900	4
1.11267	4
1.11633	4
1.12000	4
1.12367	4
1.12733	4
1.13100	4
1.13467	4
1.13833	4
1.14200	4
1.14567	4
1.14933	4
1.15300	4
1.15667	4
1.16033	5
1.16400	5
1.16767	4
1.17133	4
1.17500	4
1.17867	4
1.18233	4
1.18600	3
1.18967	3
1.19333	3
1.19700	3
1.20067	3
1.20433	3
1.20800	3
1.21167	3
1.21533	4
1.21900	3
1.22267	3
1.22633	3
1.23000	3
1.23367	3
1.23733	3
1.24100	3
1.24467	2
1.24833	2
1.25200	2
1.25567	2
1.25933	1
1.26300	0
1.26667	-0
1.27033	-1
1.27400	-1
1.27767	-1
1.28133	-1
1.28500	-2
1.28867	-2
1.29233	-2
1.29600	-2
1.29967	-2
1.30333	-2
1.30700	-1
1.31067	-1
1.31433	-1
1.31800	-0
1.32167	0
1.32533	0
1.32900	0
1.33267	0
1.33633	-0
1.34000	-0
1.34367	-1
1.34733	-1
1.35100	-1
1.35467	-2
1.35833	-2
1.36200	-2
1.36567	-2
1.36933	-2
1.37300	-2
1.37667	-2
1.38033	-2
1.38400	-3
1.38767	-2
1.39133	-2
1.39500	-2
1.39867	-3
1.40233	-3
1.40600	-3
1.40967	-3
1.41333	-3
1.41700	-2
1.42067	-2
1.42433	-2
1.42800	-1
1.43167	-1
1.43533	-1
1.43900	-0
1.44267	0
1.44633	0
1.45000	1
1.45367	1
1.45733	0
1.46100	0
1.46467	0
1.46833	0
1.47200	0
1.47567	1
1.47933	1
1.48300	1
1.48667	2
1.49033	2
1.49400	2
1.49767	3
1.50133	3
1.50500	2
1.50867	2
1.51233	2
1.51600	2
1.51967	2
1.52333	1
1.52700	1
1.53067	0
1.53433	0
1.53800	-0
1.54167	-0
1.54533	-1
1.54900	-1
1.55267	-2
1.55633	-2
1.56000	-2
1.56367	-2
1.56733	-2
1.57100	-2
1.57467	-2
1.57833	-2
1.58200	-2
1.58567	-2
1.58933	-2
1.59300	-2
1.59667	-3
1.60033	-3
1.60400	-4
1.60767	-5
1.61133	-7
1.61500	-9
1.61867	-11
1.62233	-14
1.62600	-16
1.62967	-19
1.63333	-22
1.63700	-25
1.64067	-29
1.64433	-32
1.64800	-35
1.65167	-38
1.65533	-42
1.65900	-45
1.66267	-49
1.66633	-53
1.67000	-57
1.67367	-62
1.67733	-66
1.68100	-72
1.68467	-77
1.68833	-82
1.69200	-86
1.69567	-90
1.69933	-94
1.70300	-97
1.70667	-100
1.71033	-102
1.71400	-103
1.71767	-104
1.72133	-104
1.72500	-105
1.72867	-105
1.73233	-105
1.73600	-105
1.73967	-106
1.74333	-105
1.74700	-105
1.75067	-105
1.75433	-104
1.75800	-104
1.76167	-104
1.76533	-104
1.76900	-104
1.77267	-105
1.77633	-105
1.78000	-106
1.78367	-107
1.78733	-109
1.79100	-110
1.79467	-110
1.79833	-111
1.80200	-111
1.80567	-112
1.80933	-112
1.81300	-112
1.81667	-112
1.82033	-112
1.82400	-112
1.82767	-113
1.83133	-113
1.83500	-114
1.83867	-114
1.84233	-115
1.84600	-114
1.84967	-114
1.85333	-113
1.85700	-112
1.86067	-111
1.86433	-111
1.86800	-110
1.87167	-110
1.87533	-110
1.87900	-111
1.88267	-111
1.88633	-110
1.89000	-110
1.89367	-110
1.89733	-110
1.90100	-110
1.90467	-110
1.90833	-110
1.91200	-110
1.91567	-110
1.91933	-110
1.92300	-110
1.92667	-110
1.93033	-110
1.93400	-109
1.93767	-109
1.94133	-108
1.94500	-108
1.94867	-107
1.95233	-107
1.95600	-107
1.95967	-108
1.96333	-108
1.96700	-108
1.97067	-109
1.97433	-109
1.97800	-108
1.98167	-108
1.98533	-108
1.98900	-107
1.99267	-107
1.99633	-107
2.00000	-106
2.00367	-106
2.00733	-106
2.01100	-105
2.01467	-105
2.01833	-104
2.02200	-103
2.02567	-103
2.02933	-102
2.03300	-102
2.03667	-102
2.04033	-102
2.04400	-102
2.04767	-101
2.05133	-101
2.05500	-101
2.05867	-101
2.06233	-101
2.06600	-101
2.06967	-100
2.07333	-99
2.07700	-99
2.08067	-97
2.08433	-96
2.08800	-96
2.09167	-95
2.09533	-95
2.09900	-96
2.10267	-96
2.10633	-96
2.11000	-95
2.11367	-96
2.11733	-95
2.12100	-95
2.12467	-95
2.12833	-94
2.13200	-94
2.13567	-94
2.13933	-94
2.14300	-94
2.14667	-94
2.15033	-94
2.15400	-94
2.15767	-94
2.16133	-93
2.16500	-93
2.16867	-92
2.17233	-92
2.17600	-92
2.17967	-92
2.18333	-92
2.18700	-91
2.19067	-91
2.19433	-91
2.19800	-90
2.20167	-90
2.20533	-90
2.20900	-89
2.21267	-89
2.21633	-88
2.22000	-88
2.22367	-88
2.22733	-88
2.23100	-88
2.23467	-88
2.23833	-87
2.24200	-87
2.24567	-86
2.24933	-86
2.25300	-85
2.25667	-85
2.26033	-85
2.26400	-84
2.26767	-84
2.27133	-83
2.27500	-83
2.27867	-82
2.28233	-82
2.28600	-81
2.28967	-81
2.29333	-81
2.29700	-80
2.30067	-80
2.30433	-80
2.30800	-80
2.31167	-80
2.31533	-79
2.31900	-79
2.32267	-78
2.32633	-77
2.33000	-77
2.33367	-77
2.33733	-76
2.34100	-76
2.34467	-76
2.34833	-75
2.35200	-74
2.35567	-73
2.35933	-71
2.36300	-70
2.36667	-69
2.37033	-67
2.37400	-65
2.37767	-62
2.38133	-59
2.38500	-55
2.38867	-51
2.39233	-47
2.39600	-42
2.39967	-38
2.40333	-33
2.40700	-29
2.41067	-24
2.41433	-20
2.41800	-16
2.42167	-13
2.42533	-10
2.42900	-9
2.43267	-8
2.43633	-8
2.44000	-7
2.44367	-7
2.44733	-6
2.45100	-5
2.45467	-4
2.45833	-3
2.46200	-3
2.46567	-2
2.46933	-1
2.47300	-0
2.47667	1
2.48033	2
2.48400	3
2.48767	4
2.49133	5
2.49500	6
2.49867	8
2.50233	9
2.50600	9
2.50967	10
2.51333	11
2.51700	11
2.52067	12
2.52433	12
2.52800	12
2.53167	12
2.53533	13
2.53900	13
2.54267	14
2.54633	14
2.55000	15
2.55367	15
2.55733	15
2.56100	16
2.56467	16
2.56833	16
2.57200	17
2.57567	17
2.57933	16
2.58300	16
2.58667	16
2.59033	15
2.59400	15
2.59767	16
2.60133	16
2.60500	16
2.60867	17
2.61233	17
2.61600	18
2.61967	18
2.62333	19
2.62700	19
2.63067	20
2.63433	20
2.63800	20
2.64167	20
2.64533	20
2.64900	20
2.65267	20
2.65633	20
2.66000	20
2.66367	20
2.66733	21
2.67100	21
2.67467	21
2.67833	21
2.68200	21
2.68567	21
2.68933	22
2.69300	22
2.69667	22
2.70033	22
2.70400	23
2.70767	23
2.71133	24
2.71500	24
2.71867	25
2.72233	25
2.72600	25
2.72967	25
2.73333	26
2.73700	26
2.74067	26
2.74433	27
2.74800	27
2.75167	27
2.75533	28
2.75900	28
2.76267	28
2.76633	28
2.77000	28
2.77367	29
2.77733	28
2.78100	28
2.78467	27
2.78833	27
2.79200	26
2.79567	25
2.79933	25
2.80300	24
2.80667	24
2.81033	24
2.81400	24
2.81767	25
2.82133	25
2.82500	25
2.82867	26
2.83233	26
2.83600	26
2.83967	26
2.84333	26
2.84700	24
2.85067	22
2.85433	16
2.85800	8
2.86167	-4
2.86533	-19
2.86900	-39
2.87267	-63
2.87633	-91
2.88000	-124
2.88367	-161
2.88733	-202
2.89100	-246
2.89467	-293
2.89833	-343
2.90200	-395
2.90567	-449
2.90933	-503
2.91300	-559
2.91667	-614
2.92033	-669
2.92400	-723
2.92767	-776
2.93133	-827
2.93500	-879
2.93867	-934
2.94233	-993
2.94600	-1047
2.94967	-1085
2.95333	-1100
2.95700	-1089
2.96067	-1054
2.96433	-999
2.96800	-931
2.97167	-854
2.97533	-774
2.97900	-693
2.98267	-615
2.98633	-542
2.99000	-474
2.99367	-412
2.99733	-356
3.00100	-307
3.00467	-262
3.00833	-224
3.01200	-190
3.01567	-161
3.01933	-135
3.02300	-114
3.02667	-95
3.03033	-79
3.03400	-65
3.03767	-53
3.04133	-43
3.04500	-34
3.04867	-27
3.05233	-21
3.05600	-15
3.05967	-11
3.06333	-7
3.06700	-4
3.07067	-2
3.07433	1
3.07800	3
3.08167	4
3.08533	6
3.08900	7
3.09267	8
3.09633	9
3.10000	10
3.10367	11
3.10733	11
3.11100	12
3.11467	13
3.11833	13
3.12200	14
3.12567	14
3.12933	15
3.13300	15
3.13667	16
3.14033	16
3.14400	17
3.14767	17
3.15133	18
3.15500	18
3.15867	19
3.16233	19
3.16600	19
3.16967	20
3.17333	20
3.17700	20
3.18067	20
3.18433	20
3.18800	20
3.19167	20
3.19533	20
3.19900	21
3.20267	21
3.20633	21
3.21000	21
3.21367	21
3.21733	22
3.22100	22
3.22467	22
3.22833	22
3.23200	22
3.23567	22
3.23933	22
3.24300	22
3.24667	23
3.25033	23
3.25400	23
3.25767	24
3.26133	24
3.26500	24
3.26867	25
3.27233	25
3.27600	25
3.27967	25
3.28333	26
3.28700	26
3.29067	26
3.29433	26
3.29800	26
3.30167	26
3.30533	26
3.30900	26
3.31267	26
3.31633	26
3.32000	26
3.32367	26
3.32733	26
3.33100	26
3.33467	26
3.33833	26
3.34200	27
3.34567	27
3.34933	27
3.35300	27
3.35667	27
3.36033	27
3.36400	27
3.36767	27
3.37133	27
3.37500	27
3.37867	27
3.38233	27
3.38600	27
3.38967	27
3.39333	27
3.39700	27
3.40067	27
3.40433	27
3.40800	27
3.41167	27
3.41533	27
3.41900	27
3.42267	27
3.42633	27
3.43000	28
3.43367	28
3.43733	28
3.44100	28
3.44467	29
3.44833	29
3.45200	29
3.45567	29
3.45933	29
3.46300	29
3.46667	29
3.47033	29
3.47400	29
3.47767	29
3.48133	29
3.48500	29
3.48867	29
3.49233	29
3.49600	30
3.49967	30
3.50333	30
3.50700	30
3.51067	31
3.51433	31
3.51800	31
3.52167	31
3.52533	31
3.52900	31
3.53267	31
3.53633	31
3.54000	31
3.54367	30
3.54733	30
3.55100	30
3.55467	30
3.55833	29
3.56200	29
3.56567	29
3.56933	29
3.57300	28
3.57667	28
3.58033	28
3.58400	28
3.58767	28
3.59133	29
3.59500	29
3.59867	29
3.60233	29
3.60600	29
3.60967	29
3.61333	29
3.61700	29
3.62067	29
3.62433	29
3.62800	29
3.63167	29
3.63533	29
3.63900	29
3.64267	30
3.64633	30
3.65000	29
3.65367	29
3.65733	29
3.66100	29
3.66467	29
3.66833	29
3.67200	29
3.67567	29
3.67933	29
3.68300	29
3.68667	29
3.69033	29
3.69400	29
3.69767	29
3.70133	30
3.70500	29
3.70867	29
3.71233	29
3.71600	29
3.71967	29
3.72333	29
3.72700	29
3.73067	29
3.73433	29
3.73800	29
3.74167	29
3.74533	29
3.74900	29
3.75267	29
3.75633	29
3.76000	29
3.76367	29
3.76733	29
3.77100	28
3.77467	28
3.77833	28
3.78200	28
3.78567	28
3.78933	28
3.79300	27
3.79667	27
3.80033	28
3.80400	28
3.80767	27
3.81133	27
3.81500	27
3.81867	27
3.82233	27
3.82600	27
3.82967	27
3.83333	28
3.83700	28
3.84067	28
3.84433	28
3.84800	28
3.85167	28
3.85533	28
3.85900	28
3.86267	28
3.86633	28
3.87000	28
3.87367	28
3.87733	28
3.88100	28
3.88467	28
3.88833	28
3.89200	27
3.89567	27
3.89933	27
3.90300	27
3.90667	27
3.91033	27
3.91400	27
3.91767	27
3.92133	27
3.92500	27
3.92867	27
3.93233	27
3.93600	27
3.93967	27
3.94333	27
3.94700	27
3.95067	27
3.95433	27
3.95800	28
3.96167	28
3.96533	28
3.96900	28
3.97267	28
3.97633	28
3.98000	28
3.98367	28
3.98733	28
3.99100	28
3.99467	28
3.99833	28

[Chromatogram (Ch3)]
Interval(msec)	220
# of Points	1091
Start Time(min)	0.002
End Time(min)	3.998
R.Time (min)	Intensity
0.00167	2
0.00533	4
0.00900	4
0.01267	3
0.01633	2
0.02000	1
0.02367	-1
0.02733	0
0.03100	2
0.03467	1
0.03833	0
0.04200	-1
0.04567	-0
0.04933	1
0.05300	-0
0.05667	-1
0.06033	-1
0.06400	-1
0.06767	1
0.07133	2
0.07500	3
0.07867	5
0.08233	6
0.08600	6
0.08967	7
0.09333	6
0.09700	3
0.10067	1
0.10433	1
0.10800	1
0.11167	1
0.11533	-1
0.11900	-0
0.12267	3
0.12633	5
0.13000	6
0.13367	6
0.13733	5
0.14100	3
0.14467	2
0.14833	-1
0.15200	-0
0.15567	-0
0.15933	1
0.16300	2
0.16667	3
0.17033	3
0.17400	4
0.17767	3
0.18133	3
0.18500	4
0.18867	4
0.19233	4
0.19600	3
0.19967	3
0.20333	5
0.20700	5
0.21067	5
0.21433	4
0.21800	3
0.22167	2
0.22533	0
0.22900	-1
0.23267	1
0.23633	3
0.24000	3
0.24367	2
0.24733	1
0.25100	-0
0.25467	0
0.25833	1
0.26200	2
0.26567	2
0.26933	3
0.27300	4
0.27667	6
0.28033	7
0.28400	6
0.28767	5
0.29133	3
0.29500	5
0.29867	6
0.30233	7
0.30600	8
0.30967	9
0.31333	8
0.31700	8
0.32067	7
0.32433	7
0.32800	7
0.33167	6
0.33533	5
0.33900	4
0.34267	4
0.34633	4
0.35000	4
0.35367	6
0.35733	7
0.36100	5
0.36467	3
0.36833	3
0.37200	6
0.37567	8
0.37933	8
0.38300	9
0.38667	9
0.39033	8
0.39400	8
0.39767	8
0.40133	7
0.40500	6
0.40867	3
0.41233	2
0.41600	3
0.41967	4
0.42333	5
0.42700	6
0.43067	6
0.43433	5
0.43800	6
0.44167	7
0.44533	6
0.44900	6
0.45267	5
0.45633	5
0.46000	6
0.46367	7
0.46733	6
0.47100	5
0.47467	5
0.47833	7
0.48200	9
0.48567	10
0.48933	10
0.49300	9
0.49667	7
0.50033	6
0.50400	7
0.50767	9
0.51133	9
0.51500	8
0.51867	7
0.52233	5
0.52600	6
0.52967	6
0.53333	6
0.53700	4
0.54067	3
0.54433	6
0.54800	8
0.55167	8
0.55533	6
0.55900	4
0.56267	4
0.56633	5
0.57000	7
0.57367	9
0.57733	11
0.58100	11
0.58467	10
0.58833	10
0.59200	9
0.59567	8
0.59933	8
0.60300	9
0.60667	10
0.61033	8
0.61400	7
0.61767	7
0.62133	6
0.62500	6
0.62867	5
0.63233	6
0.63600	7
0.63967	8
0.64333	9
0.64700	9
0.65067	9
0.65433	10
0.65800	10
0.66167	10
0.66533	9
0.66900	9
0.67267	7
0.67633	8
0.68000	11
0.68367	13
0.68733	15
0.69100	17
0.69467	15
0.69833	12
0.70200	11
0.70567	10
0.70933	11
0.71300	11
0.71667	9
0.72033	7
0.72400	8
0.72767	7
0.73133	8
0.73500	9
0.73867	10
0.74233	11
0.74600	12
0.74967	12
0.75333	12
0.75700	11
0.76067	9
0.76433	8
0.76800	9
0.77167	9
0.77533	9
0.77900	8
0.78267	10
0.78633	12
0.79000	11
0.79367	9
0.79733	7
0.80100	8
0.80467	9
0.80833	9
0.81200	8
0.81567	10
0.81933	11
0.82300	11
0.82667	11
0.83033	11
0.83400	12
0.83767	12
0.84133	11
0.84500	10
0.84867	10
0.85233	12
0.85600	14
0.85967	14
0.86333	14
0.86700	11
0.87067	10
0.87433	10
0.87800	10
0.88167	12
0.88533	13
0.88900	13
0.89267	15
0.89633	16
0.90000	16
0.90367	17
0.90733	17
0.91100	16
0.91467	15
0.91833	14
0.92200	13
0.92567	13
0.92933	14
0.93300	13
0.93667	13
0.94033	12
0.94400	12
0.94767	13
0.95133	13
0.95500	11
0.95867	13
0.96233	14
0.96600	14
0.96967	15
0.97333	14
0.97700	14
0.98067	15
0.98433	13
0.98800	12
0.99167	13
0.99533	14
0.99900	14
1.00267	12
1.00633	11
1.01000	10
1.01367	9
1.01733	9
1.02100	11
1.02467	12
1.02833	13
1.03200	13
1.03567	15
1.03933	16
1.04300	16
1.04667	14
1.05033	13
1.05400	12
1.05767	12
1.06133	12
1.06500	12
1.06867	14
1.07233	14
1.07600	15
1.07967	16
1.08333	14
1.08700	14
1.09067	15
1.09433	14
1.09800	14
1.10167	14
1.10533	14
1.10900	14
1.11267	15
1.11633	17
1.12000	16
1.12367	15
1.12733	15
1.13100	14
1.13467	13
1.13833	9
1.14200	8
1.14567	9
1.14933	11
1.15300	14
1.15667	16
1.16033	15
1.16400	13
1.16767	13
1.17133	14
1.17500	13
1.17867	13
1.18233	13
1.18600	12
1.18967	13
1.19333	15
1.19700	17
1.20067	19
1.20433	17
1.20800	15
1.21167	15
1.21533	16
1.21900	17
1.22267	20
1.22633	20
1.23000	18
1.23367	16
1.23733	16
1.24100	17
1.24467	15
1.24833	13
1.25200	13
1.25567	14
1.25933	17
1.26300	17
1.26667	16
1.27033	16
1.27400	17
1.27767	18
1.28133	18
1.28500	16
1.28867	15
1.29233	15
1.29600	17
1.29967	17
1.30333	18
1.30700	20
1.31067	20
1.31433	19
1.31800	18
1.32167	18
1.32533	19
1.32900	20
1.33267	20
1.33633	20
1.34000	20
1.34367	19
1.34733	17
1.35100	17
1.35467	16
1.35833	14
1.36200	14
1.36567	14
1.36933	16
1.37300	18
1.37667	18
1.38033	19
1.38400	17
1.38767	16
1.39133	17
1.39500	18
1.39867	19
1.40233	19
1.40600	18
1.40967	16
1.41333	15
1.41700	15
1.42067	15
1.42433	16
1.42800	18
1.43167	18
1.43533	18
1.43900	19
1.44267	20
1.44633	19
1.45000	17
1.45367	17
1.45733	17
1.46100	18
1.46467	21
1.46833	22
1.47200	22
1.47567	24
1.47933	25
1.48300	26
1.48667	26
1.49033	27
1.49400	26
1.49767	25
1.50133	25
1.50500	24
1.50867	23
1.51233	21
1.51600	19
1.51967	20
1.52333	22
1.52700	22
1.53067	22
1.53433	21
1.53800	22
1.54167	23
1.54533	24
1.54900	27
1.55267	26
1.55633	25
1.56000	26
1.56367	26
1.56733	25
1.57100	25
1.57467	24
1.57833	20
1.58200	19
1.58567	20
1.58933	20
1.59300	20
1.59667	20
1.60033	20
1.60400	19
1.60767	19
1.61133	20
1.61500	20
1.61867	20
1.62233	21
1.62600	21
1.62967	20
1.63333	22
1.63700	22
1.64067	22
1.64433	24
1.64800	25
1.65167	27
1.65533	26
1.65900	26
1.66267	24
1.66633	24
1.67000	26
1.67367	28
1.67733	30
1.68100	31
1.68467	32
1.68833	33
1.69200	34
1.69567	36
1.69933	39
1.70300	40
1.70667	41
1.71033	41
1.71400	41
1.71767	39
1.72133	36
1.72500	34
1.72867	33
1.73233	32
1.73600	32
1.73967	33
1.74333	33
1.74700	32
1.75067	32
1.75433	34
1.75800	36
1.76167	37
1.76533	39
1.76900	41
1.77267	42
1.77633	43
1.78000	42
1.78367	42
1.78733	41
1.79100	41
1.79467	39
1.79833	38
1.80200	38
1.80567	39
1.80933	41
1.81300	41
1.81667	42
1.82033	42
1.82400	42
1.82767	44
1.83133	46
1.83500	48
1.83867	48
1.84233	46
1.84600	47
1.84967	46
1.85333	45
1.85700	44
1.86067	43
1.86433	45
1.86800	49
1.87167	53
1.87533	55
1.87900	54
1.88267	54
1.88633	53
1.89000	54
1.89367	56
1.89733	58
1.90100	60
1.90467	58
1.90833	56
1.91200	54
1.91567	55
1.91933	57
1.92300	61
1.92667	62
1.93033	63
1.93400	64
1.93767	64
1.94133	63
1.94500	62
1.94867	62
1.95233	62
1.95600	65
1.95967	67
1.96333	69
1.96700	69
1.97067	68
1.97433	70
1.97800	74
1.98167	76
1.98533	76
1.98900	77
1.99267	77
1.99633	77
2.00000	78
2.00367	78
2.00733	77
2.01100	78
2.01467	81
2.01833	84
2.02200	86
2.02567	88
2.02933	89
2.03300	90
2.03667	91
2.04033	89
2.04400	89
2.04767	89
2.05133	88
2.05500	90
2.05867	92
2.06233	94
2.06600	95
2.06967	97
2.07333	99
2.07700	97
2.08067	99
2.08433	103
2.08800	106
2.09167	107
2.09533	107
2.09900	108
2.10267	112
2.10633	115
2.11000	117
2.11367	119
2.11733	121
2.12100	122
2.12467	122
2.12833	120
2.13200	120
2.13567	121
2.13933	123
2.14300	126
2.14667	129
2.15033	129
2.15400	130
2.15767	131
2.16133	132
2.16500	133
2.16867	134
2.17233	135
2.17600	136
2.17967	140
2.18333	142
2.18700	145
2.19067	146
2.19433	146
2.19800	148
2.20167	150
2.20533	152
2.20900	153
2.21267	153
2.21633	154
2.22000	155
2.22367	156
2.22733	156
2.23100	155
2.23467	156
2.23833	159
2.24200	162
2.24567	165
2.24933	167
2.25300	168
2.25667	168
2.26033	168
2.26400	168
2.26767	167
2.27133	169
2.27500	172
2.27867	172
2.28233	173
2.28600	174
2.28967	175
2.29333	176
2.29700	177
2.30067	179
2.30433	180
2.30800	181
2.31167	182
2.31533	183
2.31900	183
2.32267	183
2.32633	185
2.33000	188
2.33367	189
2.33733	191
2.34100	194
2.34467	195
2.34833	196
2.35200	197
2.35567	199
2.35933	202
2.36300	204
2.36667	207
2.37033	209
2.37400	211
2.37767	213
2.38133	212
2.38500	211
2.38867	209
2.39233	210
2.39600	212
2.39967	215
2.40333	219
2.40700	223
2.41067	227
2.41433	227
2.41800	227
2.42167	227
2.42533	229
2.42900	229
2.43267	229
2.43633	229
2.44000	234
2.44367	283
2.44733	417
2.45100	566
2.45467	691
2.45833	762
2.46200	771
2.46567	744
2.46933	710
2.47300	687
2.47667	674
2.48033	662
2.48400	638
2.48767	598
2.49133	554
2.49500	512
2.49867	478
2.50233	455
2.50600	442
2.50967	438
2.51333	443
2.51700	457
2.52067	476
2.52433	496
2.52800	508
2.53167	507
2.53533	492
2.53900	467
2.54267	438
2.54633	409
2.55000	381
2.55367	357
2.55733	338
2.56100	324
2.56467	313
2.56833	306
2.57200	301
2.57567	297
2.57933	294
2.58300	293
2.58667	294
2.59033	294
2.59400	294
2.59767	295
2.60133	294
2.60500	287
2.60867	274
2.61233	258
2.61600	243
2.61967	229
2.62333	214
2.62700	201
2.63067	188
2.63433	176
2.63800	165
2.64167	156
2.64533	149
2.64900	142
2.65267	133
2.65633	126
2.66000	118
2.66367	110
2.66733	103
2.67100	95
2.67467	87
2.67833	81
2.68200	75
2.68567	73
2.68933	74
2.69300	76
2.69667	77
2.70033	79
2.70400	82
2.70767	85
2.71133	90
2.71500	95
2.71867	100
2.72233	106
2.72600	111
2.72967	115
2.73333	118
2.73700	121
2.74067	122
2.74433	126
2.74800	131
2.75167	134
2.75533	136
2.75900	139
2.76267	143
2.76633	147
2.77000	149
2.77367	150
2.77733	149
2.78100	151
2.78467	152
2.78833	156
2.79200	160
2.79567	163
2.79933	166
2.80300	170
2.80667	176
2.81033	184
2.81400	192
2.81767	200
2.82133	209
2.82500	225
2.82867	257
2.83233	322
2.83600	439
2.83967	628
2.84333	909
2.84700	1293
2.85067	1773
2.85433	2326
2.85800	2918
2.86167	3502
2.86533	4035
2.86900	4474
2.87267	4781
2.87633	4944
2.88000	4968
2.88367	4866
2.88733	4663
2.89100	4388
2.89467	4068
2.89833	3726
2.90200	3379
2.90567	3041
2.90933	2722
2.91300	2426
2.91667	2154
2.92033	1909
2.92400	1689
2.92767	1495
2.93133	1324
2.93500	1173
2.93867	1040
2.94233	925
2.94600	825
2.94967	738
2.95333	664
2.95700	598
2.96067	539
2.96433	487
2.96800	445
2.97167	408
2.97533	377
2.97900	350
2.98267	325
2.98633	304
2.99000	286
2.99367	269
2.99733	254
3.00100	240
3.00467	230
3.00833	223
3.01200	218
3.01567	211
3.01933	204
3.02300	198
3.02667	196
3.03033	192
3.03400	188
3.03767	186
3.04133	183
3.04500	179
3.04867	176
3.05233	174
3.05600	173
3.05967	172
3.06333	172
3.06700	171
3.07067	171
3.07433	173
3.07800	174
3.08167	173
3.08533	172
3.08900	171
3.09267	169
3.09633	168
3.10000	167
3.10367	166
3.10733	166
3.11100	166
3.11467	166
3.11833	166
3.12200	167
3.12567	165
3.12933	164
3.13300	165
3.13667	165
3.14033	165
3.14400	166
3.14767	168
3.15133	170
3.15500	172
3.15867	174
3.16233	174
3.16600	174
3.16967	173
3.17333	173
3.17700	174
3.18067	175
3.18433	176
3.18800	175
3.19167	173
3.19533	174
3.19900	177
3.20267	181
3.20633	183
3.21000	185
3.21367	186
3.21733	188
3.22100	190
3.22467	191
3.22833	193
3.23200	195
3.23567	196
3.23933	197
3.24300	198
3.24667	201
3.25033	204
3.25400	205
3.25767	207
3.26133	207
3.26500	207
3.26867	208
3.27233	209
3.27600	211
3.27967	213
3.28333	215
3.28700	217
3.29067	217
3.29433	217
3.29800	219
3.30167	222
3.30533	222
3.30900	222
3.31267	223
3.31633	225
3.32000	226
3.32367	227
3.32733	230
3.33100	232
3.33467	231
3.33833	234
3.34200	235
3.34567	235
3.34933	236
3.35300	239
3.35667	241
3.36033	243
3.36400	244
3.36767	245
3.37133	245
3.37500	246
3.37867	246
3.38233	247
3.38600	249
3.38967	252
3.39333	256
3.39700	259
3.40067	261
3.40433	259
3.40800	258
3.41167	258
3.41533	260
3.41900	262
3.42267	264
3.42633	266
3.43000	269
3.43367	271
3.43733	272
3.44100	272
3.44467	272
3.44833	273
3.45200	274
3.45567	276
3.45933	278
3.46300	280
3.46667	281
3.47033	282
3.47400	281
3.47767	279
3.48133	277
3.48500	275
3.48867	274
3.49233	275
3.49600	277
3.49967	278
3.50333	278
3.50700	277
3.51067	276
3.51433	276
3.51800	277
3.52167	279
3.52533	280
3.52900	280
3.53267	279
3.53633	278
3.54000	275
3.54367	275
3.54733	275
3.55100	274
3.55467	272
3.55833	272
3.56200	273
3.56567	274
3.56933	274
3.57300	275
3.57667	275
3.58033	278
3.58400	279
3.58767	279
3.59133	280
3.59500	279
3.59867	278
3.60233	277
3.60600	275
3.60967	272
3.61333	268
3.61700	266
3.62067	266
3.62433	266
3.62800	270
3.63167	280
3.63533	294
3.63900	309
3.64267	323
3.64633	340
3.65000	355
3.65367	368
3.65733	383
3.66100	399
3.66467	416
3.66833	432
3.67200	446
3.67567	460
3.67933	474
3.68300	487
3.68667	499
3.69033	508
3.69400	515
3.69767	524
3.70133	532
3.70500	538
3.70867	542
3.71233	547
3.71600	550
3.71967	554
3.72333	558
3.72700	562
3.73067	563
3.73433	563
3.73800	565
3.74167	566
3.74533	567
3.74900	568
3.75267	569
3.75633	571
3.76000	574
3.76367	575
3.76733	575
3.77100	577
3.77467	578
3.77833	580
3.78200	581
3.78567	580
3.78933	580
3.79300	579
3.79667	577
3.80033	577
3.80400	580
3.80767	584
3.81133	587
3.81500	589
3.81867	590
3.82233	590
3.82600	591
3.82967	591
3.83333	592
3.83700	591
3.84067	589
3.84433	589
3.84800	589
3.85167	590
3.85533	589
3.85900	586
3.86267	585
3.86633	585
3.87000	588
3.87367	588
3.87733	588
3.88100	588
3.88467	587
3.88833	585
3.89200	582
3.89567	582
3.89933	582
3.90300	585
3.90667	587
3.91033	586
3.91400	585
3.91767	583
3.92133	581
3.92500	578
3.92867	577
3.93233	576
3.93600	573
3.93967	572
3.94333	572
3.94700	572
3.95067	571
3.95433	569
3.95800	566
3.96167	567
3.96533	567
3.96900	565
3.97267	565
3.97633	567
3.98000	567
3.98367	566
3.98733	564
3.99100	563
3.99467	562
3.99833	559

[Status Trace (Column Oven Temperature)]
Interval(msec)	1000
# of Points	240
Start Time(min)	0.013
End Time(min)	3.996
Intensity Units	
Intensity Multiplier	1
R.Time (min)	Intensity
0.01297	35.04
0.02963	35.03
0.04630	35.01
0.06297	35.01
0.07963	35.01
0.09630	35.02
0.11297	35.02
0.12963	35.03
0.14630	35.02
0.16297	35.02
0.17963	35.01
0.19630	35.00
0.21297	35.01
0.22963	35.03
0.24630	35.02
0.26297	35.01
0.27963	35.00
0.29630	35.00
0.31297	35.00
0.32963	35.00
0.34630	35.01
0.36297	35.00
0.37963	35.01
0.39630	35.02
0.41297	35.02
0.42963	35.01
0.44630	34.99
0.46297	34.99
0.47963	35.00
0.49630	35.01
0.51297	35.01
0.52963	35.02
0.54630	35.02
0.56297	35.03
0.57963	35.03
0.59630	35.01
0.61297	35.00
0.62963	35.00
0.64630	35.01
0.66297	35.02
0.67963	35.02
0.69630	35.03
0.71297	35.02
0.72963	35.00
0.74630	35.00
0.76297	34.99
0.77963	34.98
0.79630	34.99
0.81297	34.99
0.82963	35.00
0.84630	35.01
0.86297	35.01
0.87963	35.01
0.89630	35.01
0.91297	35.01
0.92963	35.01
0.94630	35.00
0.96297	34.99
0.97963	34.98
0.99630	34.99
1.01297	35.00
1.02963	35.01
1.04630	35.01
1.06297	35.02
1.07963	35.02
1.09630	35.01
1.11297	34.99
1.12963	34.99
1.14630	34.99
1.16297	34.97
1.17963	34.96
1.19630	34.95
1.21297	34.95
1.22963	34.94
1.24630	34.95
1.26297	34.97
1.27963	34.98
1.29630	34.98
1.31297	34.97
1.32963	34.97
1.34630	34.98
1.36297	35.01
1.37963	35.02
1.39630	35.02
1.41297	35.03
1.42963	35.02
1.44630	35.02
1.46297	35.01
1.47963	35.01
1.49630	35.00
1.51297	34.99
1.52963	34.99
1.54630	35.00
1.56297	35.02
1.57963	35.03
1.59630	35.06
1.61297	35.12
1.62963	35.25
1.64630	35.46
1.66297	35.71
1.67963	36.08
1.69630	36.45
1.71297	36.80
1.72963	37.14
1.74630	37.45
1.76297	37.76
1.77963	38.09
1.79630	38.44
1.81297	38.77
1.82963	39.12
1.84630	39.45
1.86297	39.77
1.87963	40.09
1.89630	40.42
1.91297	40.76
1.92963	41.08
1.94630	41.39
1.96297	41.73
1.97963	42.06
1.99630	42.41
2.01297	42.73
2.02963	43.05
2.04630	43.37
2.06297	43.70
2.07963	43.99
2.09630	44.32
2.11297	44.65
2.12963	44.98
2.14630	45.33
2.16297	45.64
2.17963	45.97
2.19630	46.31
2.21297	46.64
2.22963	46.98
2.24630	47.29
2.26297	47.63
2.27963	47.95
2.29630	48.28
2.31297	48.61
2.32963	48.93
2.34630	49.24
2.36297	49.52
2.37963	49.66
2.39630	49.70
2.41297	49.66
2.42963	49.68
2.44630	49.68
2.46297	49.69
2.47963	49.70
2.49630	49.71
2.51297	49.72
2.52963	49.73
2.54630	49.75
2.56297	49.75
2.57963	49.79
2.59630	49.80
2.61297	49.81
2.62963	49.81
2.64630	49.81
2.66297	49.82
2.67963	49.83
2.69630	49.85
2.71297	49.85
2.72963	49.86
2.74630	49.85
2.76297	49.85
2.77963	49.86
2.79630	49.89
2.81297	49.91
2.82963	49.91
2.84630	49.91
2.86297	49.90
2.87963	49.91
2.89630	49.91
2.91297	49.92
2.92963	49.93
2.94630	49.94
2.96297	49.95
2.97963	49.95
2.99630	49.95
3.01297	49.95
3.02963	49.95
3.04630	49.96
3.06297	49.97
3.07963	49.99
3.09630	50.00
3.11297	50.02
3.12963	50.03
3.14630	50.04
3.16297	50.05
3.17963	50.05
3.19630	50.07
3.21297	50.07
3.22963	50.09
3.24630	50.10
3.26297	50.10
3.27963	50.09
3.29630	50.09
3.31297	50.09
3.32963	50.09
3.34630	50.09
3.36297	50.09
3.37963	50.10
3.39630	50.10
3.41297	50.10
3.42963	50.10
3.44630	50.10
3.46297	50.09
3.47963	50.08
3.49630	50.06
3.51297	50.06
3.52963	50.04
3.54630	50.03
3.56297	50.04
3.57963	50.04
3.59630	50.04
3.61297	50.04
3.62963	50.03
3.64630	50.03
3.66297	50.03
3.67963	50.02
3.69630	50.02
3.71297	50.03
3.72963	50.03
3.74630	50.03
3.76297	50.03
3.77963	50.04
3.79630	50.04
3.81297	50.04
3.82963	50.03
3.84630	50.04
3.86297	50.03
3.87963	50.03
3.89630	50.04
3.91297	50.05
3.92963	50.06
3.94630	50.06
3.96297	50.06
3.97963	50.06
3.99630	50.06

[Status Trace (Injection Unit Temperature)]
Interval(msec)	1000
# of Points	240
Start Time(min)	0.013
End Time(min)	3.996
Intensity Units	
Intensity Multiplier	1
R.Time (min)	Intensity
0.01297	99.97
0.02963	99.97
0.04630	99.97
0.06297	99.98
0.07963	99.98
0.09630	99.98
0.11297	99.98
0.12963	99.98
0.14630	99.98
0.16297	99.98
0.17963	99.98
0.19630	99.98
0.21297	99.98
0.22963	99.98
0.24630	99.98
0.26297	99.98
0.27963	99.99
0.29630	99.98
0.31297	99.98
0.32963	99.98
0.34630	99.98
0.36297	99.98
0.37963	99.98
0.39630	99.99
0.41297	99.98
0.42963	99.99
0.44630	99.99
0.46297	99.98
0.47963	99.98
0.49630	99.99
0.51297	99.99
0.52963	99.98
0.54630	99.98
0.56297	99.98
0.57963	99.98
0.59630	99.98
0.61297	99.98
0.62963	99.98
0.64630	99.98
0.66297	99.98
0.67963	99.98
0.69630	99.98
0.71297	99.98
0.72963	99.98
0.74630	99.98
0.76297	99.98
0.77963	99.98
0.79630	99.98
0.81297	99.98
0.82963	99.98
0.84630	99.98
0.86297	99.98
0.87963	99.98
0.89630	99.98
0.91297	99.99
0.92963	99.98
0.94630	99.98
0.96297	99.98
0.97963	99.98
0.99630	99.98
1.01297	99.98
1.02963	99.98
1.04630	99.98
1.06297	99.98
1.07963	99.98
1.09630	99.98
1.11297	99.98
1.12963	99.98
1.14630	99.98
1.16297	99.98
1.17963	99.98
1.19630	99.98
1.21297	99.98
1.22963	99.98
1.24630	99.98
1.26297	99.98
1.27963	99.98
1.29630	99.98
1.31297	99.98
1.32963	99.98
1.34630	99.98
1.36297	99.98
1.37963	99.98
1.39630	99.98
1.41297	99.98
1.42963	99.98
1.44630	99.98
1.46297	99.98
1.47963	99.98
1.49630	99.98
1.51297	99.98
1.52963	99.98
1.54630	99.98
1.56297	99.98
1.57963	99.98
1.59630	99.98
1.61297	99.98
1.62963	99.98
1.64630	99.98
1.66297	99.98
1.67963	99.98
1.69630	99.98
1.71297	99.98
1.72963	99.98
1.74630	99.98
1.76297	99.98
1.77963	99.98
1.79630	99.98
1.81297	99.98
1.82963	99.98
1.84630	99.98
1.86297	99.98
1.87963	99.98
1.89630	99.98
1.91297	99.98
1.92963	99.98
1.94630	99.97
1.96297	99.98
1.97963	99.98
1.99630	99.97
2.01297	99.97
2.02963	99.98
2.04630	99.97
2.06297	99.97
2.07963	99.97
2.09630	99.98
2.11297	99.97
2.12963	99.97
2.14630	99.97
2.16297	99.97
2.17963	99.97
2.19630	99.97
2.21297	99.97
2.22963	99.97
2.24630	99.97
2.26297	99.97
2.27963	99.97
2.29630	99.97
2.31297	99.97
2.32963	99.97
2.34630	99.97
2.36297	99.97
2.37963	99.96
2.39630	99.96
2.41297	99.97
2.42963	99.96
2.44630	99.97
2.46297	99.97
2.47963	99.97
2.49630	99.97
2.51297	99.97
2.52963	99.96
2.54630	99.97
2.56297	99.97
2.57963	99.97
2.59630	99.97
2.61297	99.97
2.62963	99.97
2.64630	99.98
2.66297	99.98
2.67963	99.98
2.69630	99.98
2.71297	99.98
2.72963	99.98
2.74630	99.98
2.76297	99.98
2.77963	99.99
2.79630	99.99
2.81297	100.00
2.82963	100.00
2.84630	100.00
2.86297	100.00
2.87963	100.00
2.89630	100.00
2.91297	100.00
2.92963	100.00
2.94630	100.00
2.96297	100.01
2.97963	100.01
2.99630	100.01
3.01297	100.01
3.02963	100.01
3.04630	100.01
3.06297	100.01
3.07963	100.02
3.09630	100.02
3.11297	100.02
3.12963	100.02
3.14630	100.02
3.16297	100.02
3.17963	100.02
3.19630	100.02
3.21297	100.02
3.22963	100.02
3.24630	100.02
3.26297	100.03
3.27963	100.03
3.29630	100.03
3.31297	100.03
3.32963	100.03
3.34630	100.03
3.36297	100.03
3.37963	100.03
3.39630	100.03
3.41297	100.03
3.42963	100.03
3.44630	100.03
3.46297	100.03
3.47963	100.03
3.49630	100.03
3.51297	100.03
3.52963	100.03
3.54630	100.03
3.56297	100.03
3.57963	100.03
3.59630	100.03
3.61297	100.03
3.62963	100.03
3.64630	100.03
3.66297	100.03
3.67963	100.03
3.69630	100.03
3.71297	100.03
3.72963	100.03
3.74630	100.03
3.76297	100.03
3.77963	100.04
3.79630	100.04
3.81297	100.03
3.82963	100.03
3.84630	100.03
3.86297	100.03
3.87963	100.04
3.89630	100.04
3.91297	100.04
3.92963	100.04
3.94630	100.04
3.96297	100.04
3.97963	100.04
3.99630	100.04

[Status Trace (Carrier Gas Pressure)]
Interval(msec)	1000
# of Points	240
Start Time(min)	0.013
End Time(min)	3.996
Intensity Units	
Intensity Multiplier	1
R.Time (min)	Intensity
0.01297	57.97
0.02963	55.15
0.04630	57.85
0.06297	59.75
0.07963	58.80
0.09630	57.98
0.11297	57.99
0.12963	58.01
0.14630	58.01
0.16297	58.00
0.17963	58.00
0.19630	58.00
0.21297	58.00
0.22963	58.00
0.24630	58.00
0.26297	58.00
0.27963	58.00
0.29630	58.00
0.31297	58.00
0.32963	58.00
0.34630	58.00
0.36297	58.00
0.37963	58.00
0.39630	58.00
0.41297	58.00
0.42963	58.00
0.44630	58.00
0.46297	58.00
0.47963	58.00
0.49630	58.00
0.51297	58.00
0.52963	58.00
0.54630	58.00
0.56297	58.00
0.57963	58.00
0.59630	58.00
0.61297	58.00
0.62963	58.00
0.64630	58.00
0.66297	58.00
0.67963	58.00
0.69630	58.00
0.71297	58.00
0.72963	58.00
0.74630	58.00
0.76297	58.00
0.77963	58.00
0.79630	58.00
0.81297	58.00
0.82963	58.00
0.84630	58.00
0.86297	58.00
0.87963	58.00
0.89630	58.00
0.91297	58.00
0.92963	58.00
0.94630	58.00
0.96297	58.00
0.97963	58.00
0.99630	58.00
1.01297	58.00
1.02963	58.00
1.04630	58.00
1.06297	58.00
1.07963	58.00
1.09630	58.00
1.11297	58.00
1.12963	58.00
1.14630	58.00
1.16297	58.00
1.17963	58.00
1.19630	58.00
1.21297	58.00
1.22963	58.00
1.24630	58.00
1.26297	58.00
1.27963	58.00
1.29630	58.00
1.31297	58.00
1.32963	58.00
1.34630	58.00
1.36297	58.00
1.37963	58.00
1.39630	58.00
1.41297	58.00
1.42963	58.00
1.44630	58.00
1.46297	58.00
1.47963	58.00
1.49630	58.00
1.51297	58.00
1.52963	58.00
1.54630	58.00
1.56297	58.00
1.57963	58.00
1.59630	58.00
1.61297	58.00
1.62963	58.00
1.64630	58.00
1.66297	58.00
1.67963	58.01
1.69630	58.00
1.71297	58.00
1.72963	58.00
1.74630	58.00
1.76297	58.00
1.77963	58.00
1.79630	58.00
1.81297	58.00
1.82963	58.00
1.84630	58.00
1.86297	58.00
1.87963	58.00
1.89630	58.00
1.91297	58.00
1.92963	58.00
1.94630	58.00
1.96297	58.00
1.97963	58.00
1.99630	58.00
2.01297	58.00
2.02963	58.00
2.04630	58.00
2.06297	58.00
2.07963	58.00
2.09630	58.00
2.11297	58.00
2.12963	58.00
2.14630	58.00
2.16297	58.00
2.17963	58.00
2.19630	58.00
2.21297	58.00
2.22963	58.00
2.24630	58.00
2.26297	58.00
2.27963	58.00
2.29630	58.00
2.31297	58.00
2.32963	58.00
2.34630	58.00
2.36297	58.00
2.37963	58.00
2.39630	57.99
2.41297	57.99
2.42963	58.00
2.44630	58.00
2.46297	58.00
2.47963	58.00
2.49630	58.00
2.51297	57.99
2.52963	57.99
2.54630	58.00
2.56297	58.00
2.57963	58.00
2.59630	58.00
2.61297	58.00
2.62963	58.00
2.64630	58.00
2.66297	58.00
2.67963	58.00
2.69630	58.00
2.71297	58.00
2.72963	58.00
2.74630	58.00
2.76297	58.00
2.77963	58.00
2.79630	58.00
2.81297	58.00
2.82963	58.00
2.84630	58.00
2.86297	58.00
2.87963	58.00
2.89630	58.00
2.91297	58.00
2.92963	58.00
2.94630	58.00
2.96297	58.00
2.97963	58.00
2.99630	58.00
3.01297	58.00
3.02963	58.00
3.04630	58.00
3.06297	58.00
3.07963	58.00
3.09630	58.00
3.11297	58.00
3.12963	58.00
3.14630	58.00
3.16297	58.00
3.17963	58.00
3.19630	58.00
3.21297	58.00
3.22963	58.00
3.24630	58.00
3.26297	58.00
3.27963	58.00
3.29630	58.00
3.31297	58.00
3.32963	58.00
3.34630	58.00
3.36297	58.00
3.37963	58.00
3.39630	58.00
3.41297	58.00
3.42963	58.00
3.44630	58.00
3.46297	58.00
3.47963	58.00
3.49630	58.00
3.51297	58.00
3.52963	58.00
3.54630	58.00
3.56297	58.00
3.57963	58.00
3.59630	58.00
3.61297	58.00
3.62963	58.00
3.64630	58.00
3.66297	58.00
3.67963	58.00
3.69630	58.00
3.71297	58.00
3.72963	58.00
3.74630	58.00
3.76297	58.00
3.77963	58.00
3.79630	58.00
3.81297	58.00
3.82963	58.00
3.84630	58.00
3.86297	58.00
3.87963	58.00
3.89630	58.00
3.91297	58.00
3.92963	58.00
3.94630	58.00
3.96297	58.00
3.97963	58.00
3.99630	58.00

[Status Trace (Carrier Gas Flow)]
Interval(msec)	1000
# of Points	240
Start Time(min)	0.013
End Time(min)	3.996
Intensity Units	
Intensity Multiplier	1
R.Time (min)	Intensity
0.01297	34.62
0.02963	34.54
0.04630	34.55
0.06297	34.53
0.07963	34.51
0.09630	34.52
0.11297	34.52
0.12963	34.52
0.14630	34.52
0.16297	34.52
0.17963	34.52
0.19630	34.52
0.21297	34.52
0.22963	34.52
0.24630	34.51
0.26297	34.52
0.27963	34.53
0.29630	34.51
0.31297	34.52
0.32963	34.52
0.34630	34.52
0.36297	34.52
0.37963	34.52
0.39630	34.51
0.41297	34.52
0.42963	34.51
0.44630	34.52
0.46297	34.52
0.47963	34.51
0.49630	34.52
0.51297	34.52
0.52963	34.53
0.54630	34.52
0.56297	34.51
0.57963	34.52
0.59630	34.52
0.61297	34.51
0.62963	34.52
0.64630	34.52
0.66297	34.53
0.67963	34.52
0.69630	34.52
0.71297	34.52
0.72963	34.52
0.74630	34.52
0.76297	34.52
0.77963	34.52
0.79630	34.52
0.81297	34.52
0.82963	34.51
0.84630	34.52
0.86297	34.52
0.87963	34.52
0.89630	34.51
0.91297	34.52
0.92963	34.52
0.94630	34.51
0.96297	34.51
0.97963	34.53
0.99630	34.52
1.01297	34.52
1.02963	34.51
1.04630	34.51
1.06297	34.52
1.07963	34.51
1.09630	34.51
1.11297	34.52
1.12963	34.52
1.14630	34.51
1.16297	34.52
1.17963	34.52
1.19630	34.52
1.21297	34.52
1.22963	34.52
1.24630	34.52
1.26297	34.51
1.27963	34.52
1.29630	34.52
1.31297	34.52
1.32963	34.52
1.34630	34.52
1.36297	34.52
1.37963	34.51
1.39630	34.52
1.41297	34.53
1.42963	34.52
1.44630	34.52
1.46297	34.51
1.47963	34.52
1.49630	34.51
1.51297	34.52
1.52963	34.53
1.54630	34.52
1.56297	34.52
1.57963	34.52
1.59630	34.52
1.61297	34.52
1.62963	34.53
1.64630	34.52
1.66297	34.52
1.67963	34.52
1.69630	34.52
1.71297	34.52
1.72963	34.52
1.74630	34.52
1.76297	34.52
1.77963	34.51
1.79630	34.51
1.81297	34.52
1.82963	34.52
1.84630	34.51
1.86297	34.52
1.87963	34.52
1.89630	34.53
1.91297	34.51
1.92963	34.52
1.94630	34.52
1.96297	34.52
1.97963	34.52
1.99630	34.52
2.01297	34.52
2.02963	34.52
2.04630	34.52
2.06297	34.52
2.07963	34.52
2.09630	34.52
2.11297	34.52
2.12963	34.52
2.14630	34.52
2.16297	34.52
2.17963	34.52
2.19630	34.52
2.21297	34.52
2.22963	34.52
2.24630	34.51
2.26297	34.52
2.27963	34.52
2.29630	34.52
2.31297	34.51
2.32963	34.52
2.34630	34.53
2.36297	34.52
2.37963	34.51
2.39630	34.52
2.41297	34.52
2.42963	34.52
2.44630	34.51
2.46297	34.52
2.47963	34.51
2.49630	34.52
2.51297	34.52
2.52963	34.52
2.54630	34.52
2.56297	34.52
2.57963	34.52
2.59630	34.52
2.61297	34.52
2.62963	34.52
2.64630	34.52
2.66297	34.52
2.67963	34.52
2.69630	34.51
2.71297	34.52
2.72963	34.52
2.74630	34.52
2.76297	34.52
2.77963	34.52
2.79630	34.52
2.81297	34.52
2.82963	34.51
2.84630	34.52
2.86297	34.51
2.87963	34.52
2.89630	34.52
2.91297	34.52
2.92963	34.52
2.94630	34.52
2.96297	34.52
2.97963	34.52
2.99630	34.52
3.01297	34.52
3.02963	34.52
3.04630	34.52
3.06297	34.51
3.07963	34.52
3.09630	34.52
3.11297	34.52
3.12963	34.52
3.14630	34.52
3.16297	34.52
3.17963	34.52
3.19630	34.52
3.21297	34.52
3.22963	34.52
3.24630	34.52
3.26297	34.51
3.27963	34.52
3.29630	34.52
3.31297	34.52
3.32963	34.52
3.34630	34.52
3.36297	34.52
3.37963	34.52
3.39630	34.51
3.41297	34.53
3.42963	34.51
3.44630	34.52
3.46297	34.52
3.47963	34.52
3.49630	34.52
3.51297	34.52
3.52963	34.52
3.54630	34.52
3.56297	34.52
3.57963	34.51
3.59630	34.52
3.61297	34.52
3.62963	34.52
3.64630	34.51
3.66297	34.52
3.67963	34.52
3.69630	34.53
3.71297	34.52
3.72963	34.52
3.74630	34.52
3.76297	34.52
3.77963	34.52
3.79630	34.52
3.81297	34.52
3.82963	34.52
3.84630	34.52
3.86297	34.52
3.87963	34.52
3.89630	34.51
3.91297	34.52
3.92963	34.52
3.94630	34.51
3.96297	34.52
3.97963	34.52
3.99630	34.52

[Status Trace (Column Flow)]
Interval(msec)	1000
# of Points	240
Start Time(min)	0.013
End Time(min)	3.996
Intensity Units	
Intensity Multiplier	1
R.Time (min)	Intensity
0.01297	5.55
0.02963	5.22
0.04630	5.54
0.06297	5.76
0.07963	5.65
0.09630	5.55
0.11297	5.55
0.12963	5.56
0.14630	5.56
0.16297	5.56
0.17963	5.56
0.19630	5.56
0.21297	5.56
0.22963	5.56
0.24630	5.56
0.26297	5.56
0.27963	5.56
0.29630	5.56
0.31297	5.56
0.32963	5.56
0.34630	5.56
0.36297	5.56
0.37963	5.56
0.39630	5.56
0.41297	5.56
0.42963	5.56
0.44630	5.56
0.46297	5.56
0.47963	5.56
0.49630	5.56
0.51297	5.56
0.52963	5.56
0.54630	5.56
0.56297	5.56
0.57963	5.56
0.59630	5.56
0.61297	5.56
0.62963	5.56
0.64630	5.56
0.66297	5.56
0.67963	5.56
0.69630	5.56
0.71297	5.56
0.72963	5.56
0.74630	5.56
0.76297	5.56
0.77963	5.56
0.79630	5.56
0.81297	5.56
0.82963	5.56
0.84630	5.56
0.86297	5.56
0.87963	5.56
0.89630	5.56
0.91297	5.56
0.92963	5.56
0.94630	5.56
0.96297	5.56
0.97963	5.56
0.99630	5.56
1.01297	5.56
1.02963	5.56
1.04630	5.56
1.06297	5.56
1.07963	5.56
1.09630	5.56
1.11297	5.56
1.12963	5.56
1.14630	5.56
1.16297	5.56
1.17963	5.56
1.19630	5.56
1.21297	5.56
1.22963	5.56
1.24630	5.56
1.26297	5.56
1.27963	5.56
1.29630	5.56
1.31297	5.56
1.32963	5.56
1.34630	5.56
1.36297	5.56
1.37963	5.56
1.39630	5.56
1.41297	5.55
1.42963	5.56
1.44630	5.56
1.46297	5.56
1.47963	5.56
1.49630	5.56
1.51297	5.56
1.52963	5.56
1.54630	5.56
1.56297	5.56
1.57963	5.55
1.59630	5.55
1.61297	5.55
1.62963	5.55
1.64630	5.54
1.66297	5.53
1.67963	5.52
1.69630	5.51
1.71297	5.50
1.72963	5.49
1.74630	5.48
1.76297	5.47
1.77963	5.46
1.79630	5.45
1.81297	5.44
1.82963	5.43
1.84630	5.42
1.86297	5.41
1.87963	5.40
1.89630	5.39
1.91297	5.38
1.92963	5.37
1.94630	5.36
1.96297	5.35
1.97963	5.34
1.99630	5.33
2.01297	5.32
2.02963	5.31
2.04630	5.30
2.06297	5.29
2.07963	5.28
2.09630	5.27
2.11297	5.26
2.12963	5.25
2.14630	5.24
2.16297	5.23
2.17963	5.22
2.19630	5.21
2.21297	5.20
2.22963	5.20
2.24630	5.19
2.26297	5.18
2.27963	5.17
2.29630	5.16
2.31297	5.15
2.32963	5.14
2.34630	5.13
2.36297	5.12
2.37963	5.12
2.39630	5.12
2.41297	5.12
2.42963	5.12
2.44630	5.12
2.46297	5.12
2.47963	5.12
2.49630	5.12
2.51297	5.12
2.52963	5.12
2.54630	5.12
2.56297	5.12
2.57963	5.12
2.59630	5.12
2.61297	5.12
2.62963	5.12
2.64630	5.12
2.66297	5.11
2.67963	5.11
2.69630	5.11
2.71297	5.11
2.72963	5.11
2.74630	5.11
2.76297	5.11
2.77963	5.11
2.79630	5.11
2.81297	5.11
2.82963	5.11
2.84630	5.11
2.86297	5.11
2.87963	5.11
2.89630	5.11
2.91297	5.11
2.92963	5.11
2.94630	5.11
2.96297	5.11
2.97963	5.11
2.99630	5.11
3.01297	5.11
3.02963	5.11
3.04630	5.11
3.06297	5.11
3.07963	5.11
3.09630	5.11
3.11297	5.11
3.12963	5.11
3.14630	5.11
3.16297	5.11
3.17963	5.11
3.19630	5.11
3.21297	5.11
3.22963	5.11
3.24630	5.11
3.26297	5.11
3.27963	5.11
3.29630	5.11
3.31297	5.11
3.32963	5.11
3.34630	5.11
3.36297	5.11
3.37963	5.11
3.39630	5.11
3.41297	5.11
3.42963	5.11
3.44630	5.11
3.46297	5.11
3.47963	5.11
3.49630	5.11
3.51297	5.11
3.52963	5.11
3.54630	5.11
3.56297	5.11
3.57963	5.11
3.59630	5.11
3.61297	5.11
3.62963	5.11
3.64630	5.11
3.66297	5.11
3.67963	5.11
3.69630	5.11
3.71297	5.11
3.72963	5.11
3.74630	5.11
3.76297	5.11
3.77963	5.11
3.79630	5.11
3.81297	5.11
3.82963	5.11
3.84630	5.11
3.86297	5.11
3.87963	5.11
3.89630	5.11
3.91297	5.11
3.92963	5.11
3.94630	5.11
3.96297	5.11
3.97963	5.11
3.99630	5.11

[Status Trace (Linear Velocity)]
Interval(msec)	1000
# of Points	240
Start Time(min)	0.013
End Time(min)	3.996
Intensity Units	
Intensity Multiplier	1
R.Time (min)	Intensity
0.01297	39.00
0.02963	37.15
0.04630	38.93
0.06297	40.17
0.07963	39.55
0.09630	39.01
0.11297	39.02
0.12963	39.03
0.14630	39.03
0.16297	39.03
0.17963	39.03
0.19630	39.03
0.21297	39.03
0.22963	39.02
0.24630	39.02
0.26297	39.02
0.27963	39.02
0.29630	39.03
0.31297	39.03
0.32963	39.03
0.34630	39.02
0.36297	39.02
0.37963	39.02
0.39630	39.02
0.41297	39.02
0.42963	39.02
0.44630	39.03
0.46297	39.03
0.47963	39.03
0.49630	39.02
0.51297	39.02
0.52963	39.02
0.54630	39.02
0.56297	39.02
0.57963	39.02
0.59630	39.02
0.61297	39.02
0.62963	39.03
0.64630	39.02
0.66297	39.02
0.67963	39.02
0.69630	39.02
0.71297	39.02
0.72963	39.02
0.74630	39.02
0.76297	39.03
0.77963	39.03
0.79630	39.03
0.81297	39.03
0.82963	39.03
0.84630	39.02
0.86297	39.02
0.87963	39.02
0.89630	39.02
0.91297	39.02
0.92963	39.02
0.94630	39.02
0.96297	39.03
0.97963	39.03
0.99630	39.03
1.01297	39.03
1.02963	39.02
1.04630	39.02
1.06297	39.02
1.07963	39.02
1.09630	39.02
1.11297	39.03
1.12963	39.03
1.14630	39.03
1.16297	39.03
1.17963	39.03
1.19630	39.03
1.21297	39.03
1.22963	39.03
1.24630	39.03
1.26297	39.03
1.27963	39.03
1.29630	39.03
1.31297	39.03
1.32963	39.03
1.34630	39.03
1.36297	39.02
1.37963	39.02
1.39630	39.02
1.41297	39.02
1.42963	39.02
1.44630	39.02
1.46297	39.02
1.47963	39.02
1.49630	39.03
1.51297	39.03
1.52963	39.03
1.54630	39.02
1.56297	39.02
1.57963	39.02
1.59630	39.02
1.61297	39.02
1.62963	39.00
1.64630	38.98
1.66297	38.96
1.67963	38.93
1.69630	38.89
1.71297	38.85
1.72963	38.82
1.74630	38.79
1.76297	38.76
1.77963	38.73
1.79630	38.70
1.81297	38.67
1.82963	38.63
1.84630	38.60
1.86297	38.57
1.87963	38.54
1.89630	38.51
1.91297	38.48
1.92963	38.45
1.94630	38.42
1.96297	38.39
1.97963	38.36
1.99630	38.33
2.01297	38.30
2.02963	38.27
2.04630	38.24
2.06297	38.21
2.07963	38.18
2.09630	38.15
2.11297	38.12
2.12963	38.09
2.14630	38.06
2.16297	38.03
2.17963	38.00
2.19630	37.97
2.21297	37.94
2.22963	37.91
2.24630	37.88
2.26297	37.85
2.27963	37.82
2.29630	37.79
2.31297	37.76
2.32963	37.73
2.34630	37.71
2.36297	37.68
2.37963	37.67
2.39630	37.66
2.41297	37.67
2.42963	37.67
2.44630	37.67
2.46297	37.67
2.47963	37.67
2.49630	37.67
2.51297	37.66
2.52963	37.66
2.54630	37.66
2.56297	37.66
2.57963	37.66
2.59630	37.66
2.61297	37.66
2.62963	37.66
2.64630	37.66
2.66297	37.66
2.67963	37.66
2.69630	37.65
2.71297	37.65
2.72963	37.65
2.74630	37.65
2.76297	37.65
2.77963	37.65
2.79630	37.65
2.81297	37.65
2.82963	37.65
2.84630	37.65
2.86297	37.65
2.87963	37.65
2.89630	37.65
2.91297	37.65
2.92963	37.65
2.94630	37.65
2.96297	37.64
2.97963	37.64
2.99630	37.64
3.01297	37.65
3.02963	37.64
3.04630	37.64
3.06297	37.64
3.07963	37.64
3.09630	37.64
3.11297	37.64
3.12963	37.64
3.14630	37.64
3.16297	37.64
3.17963	37.64
3.19630	37.63
3.21297	37.63
3.22963	37.63
3.24630	37.63
3.26297	37.63
3.27963	37.63
3.29630	37.63
3.31297	37.63
3.32963	37.63
3.34630	37.63
3.36297	37.63
3.37963	37.63
3.39630	37.63
3.41297	37.63
3.42963	37.63
3.44630	37.63
3.46297	37.63
3.47963	37.63
3.49630	37.63
3.51297	37.64
3.52963	37.64
3.54630	37.64
3.56297	37.64
3.57963	37.64
3.59630	37.64
3.61297	37.64
3.62963	37.64
3.64630	37.64
3.66297	37.64
3.67963	37.64
3.69630	37.64
3.71297	37.64
3.72963	37.64
3.74630	37.64
3.76297	37.64
3.77963	37.64
3.79630	37.64
3.81297	37.64
3.82963	37.64
3.84630	37.64
3.86297	37.64
3.87963	37.64
3.89630	37.64
3.91297	37.64
3.92963	37.64
3.94630	37.63
3.96297	37.63
3.97963	37.63
3.99630	37.64

