[Header]
Application Name	LabSolutions
Version	5.110
Data File Name	C:\Users\User\Desktop\GC Analyses\Jack\Nachusa Grasslands Sampling\T4 Timepoint July 12th\T4_07122022_032.gcd
Output Date	3/17/2023
Output Time	12:04:52 PM

[File Information]
Type	Data File
Generated	3/14/2023 6:54:09 PM
Generated by	System Administrator
Modified	3/14/2023 7:00:47 PM
Modified by	System Administrator

[Sample Information]
Operator Name	System Administrator
Acquired	3/14/2023 6:56:46 PM
Sample Type	0:Unknown
Level	0
Sample Name	032
Sample ID	032
ISTD Amount1	1
ISTD Amount2	1
ISTD Amount3	1
ISTD Amount4	1
ISTD Amount5	1
ISTD Amount6	1
ISTD Amount7	1
ISTD Amount8	1
ISTD Amount9	1
ISTD Amount10	1
ISTD Amount11	1
ISTD Amount12	1
ISTD Amount13	1
ISTD Amount14	1
ISTD Amount15	1
ISTD Amount16	1
ISTD Amount17	1
ISTD Amount18	1
ISTD Amount19	1
ISTD Amount20	1
ISTD Amount21	1
ISTD Amount22	1
ISTD Amount23	1
ISTD Amount24	1
ISTD Amount25	1
ISTD Amount26	1
ISTD Amount27	1
ISTD Amount28	1
ISTD Amount29	1
ISTD Amount30	1
ISTD Amount31	1
ISTD Amount32	1
Sample Amount	1
Dilution Factor	1
Vial#	31
Injection Volume	1
Injection Count	1
Bar Code	

[Original Files]
Data File	C:\Users\User\Desktop\GC Analyses\Jack\Nachusa Grasslands Sampling\T4 Timepoint July 12th\T4_07122022_032.gcd
Method File	C:\LabSolutions\Data\GHG_4min_2022\ghg3_togas_w_acet_4 min_new_int.gcm
Batch File	C:\LabSolutions\Data\AutoSamplerTesting\T4_07122022.gcb
Report Format File	c:\LabSolutions\System\DEFAULT.lsr

[File Description]


[Configuration]
Instrument Name	C0B7VH3-Instrument1
Instrument #	1
Line #	1
# of Detectors	3
Detector ID	DET#1	DET#2	DET#3
Detector Name	FID	PTCD	ECD
# of Channels	1	1	1

[Peak Table(Ch1)]
# of Peaks	3
Peak#	R.Time	I.Time	F.Time	Area	Height	A/H	Conc.	Mark	ID#	Name	k'	Plate #	Plate Ht.	Tailing	Resolution	Sep.Factor	Area Ratio	Height Ratio	Conc. %	Norm Conc.
1	1.476	1.439	1.534	20450	10048	2.035	144.374	   	1	CO	0.000	9651	15.542	1.275	0.000	0.000	0	0	13.831	13.831
2	1.571	1.538	1.615	3917	2043	1.918	75.747	   	2	CH4	0.065	11923	12.581	1.106	1.621	0.000	0	0	7.256	7.256
3	1.996	1.949	2.418	3282181	1565567	2.096	823.739	   	3	CO2	0.353	17326	8.658	1.348	7.196	5.462	0	0	78.913	78.913

[Peak Table(Ch2)]
# of Peaks	0

[Peak Table(Ch3)]
# of Peaks	5
Peak#	R.Time	I.Time	F.Time	Area	Height	A/H	Conc.	Mark	ID#	Name	k'	Plate #	Plate Ht.	Tailing	Resolution	Sep.Factor	Area Ratio	Height Ratio	Conc. %	Norm Conc.
1	2.462	2.326	2.510	2136	636	3.359	0.000	   			0.000	9721	15.431	0.000	0.000	0.000	0	0	0.000	0.000
2	2.532	2.510	2.583	1141	360	3.169	0.000	 V 			0.028	5519	27.180	0.000	0.590	0.000	0	0	0.000	0.000
3	2.601	2.583	2.675	591	180	3.291	0.000	 V 			0.057	851	176.174	0.000	0.283	2.000	0	0	0.000	0.000
4	2.880	2.704	3.082	18334	4692	3.907	0.468	   	1	N2O	0.170	13031	11.511	1.507	1.218	3.000	0	0	100.000	100.000
5	3.368	3.181	3.995	17826	644	27.689	0.000	   	2	SF6	0.368	194	774.682	2.144	0.912	2.167	0	0	0.000	0.000

[Compound Results(Ch1)]
# of IDs	6
ID#	Name	R.Time	Area	Height	Conc.	Curve	3rd	2nd	1st	Constant	Area Ratio	Height Ratio	Conc. %	Norm Conc.
1	CO	1.476	20450	10048	144.374	Linear	0.000000e+00	0.000000e+00	1.416423e+002	0.000000e+00	0	0	13.831	13.831
2	CH4	1.571	3917	2043	75.747	Linear	0.000000e+00	0.000000e+00	5.171738e+001	0.000000e+00	0	0	7.256	7.256
3	CO2	1.996	3282181	1565567	823.739	Linear	0.000000e+00	0.000000e+00	3.984494e+003	0.000000e+00	0	0	78.913	78.913
4	Ethylene	0.000	0	0	0.000	Linear	0.000000e+00	0.000000e+00	0.000000e+00	0.000000e+00	0	0	0.000	0.000
5	Acetylene	0.000	0	0	0.000	Linear	0.000000e+00	0.000000e+00	0.000000e+00	0.000000e+00	0	0	0.000	0.000
6	Ethane	0.000	0	0	0.000	Linear	0.000000e+00	0.000000e+00	0.000000e+00	0.000000e+00	0	0	0.000	0.000

[Compound Results(Ch2)]
# of IDs	5
ID#	Name	R.Time	Area	Height	Conc.	Curve	3rd	2nd	1st	Constant	Area Ratio	Height Ratio	Conc. %	Norm Conc.
1	Hydrogen	0.000	0	0	0.000	Linear	0.000000e+00	0.000000e+00	0.000000e+00	0.000000e+00	0	0	0.000	0.000
2	Oxygen	0.000	0	0	0.000	Linear	0.000000e+00	0.000000e+00	0.000000e+00	0.000000e+00	0	0	0.000	0.000
3	Nitrogen	0.000	0	0	0.000	Linear	0.000000e+00	0.000000e+00	0.000000e+00	0.000000e+00	0	0	0.000	0.000
4	Methane	0.000	0	0	0.000	Linear	0.000000e+00	0.000000e+00	0.000000e+00	0.000000e+00	0	0	0.000	0.000
5	Carbon Monoxide	0.000	0	0	0.000	Linear	0.000000e+00	0.000000e+00	0.000000e+00	0.000000e+00	0	0	0.000	0.000

[Compound Results(Ch3)]
# of IDs	2
ID#	Name	R.Time	Area	Height	Conc.	Curve	3rd	2nd	1st	Constant	Area Ratio	Height Ratio	Conc. %	Norm Conc.
1	N2O	2.880	18334	4692	0.468	Linear	0.000000e+00	0.000000e+00	3.915173e+004	0.000000e+00	0	0	100.000	100.000
2	SF6	3.368	17826	644	0.000	Linear	0.000000e+00	0.000000e+00	0.000000e+00	0.000000e+00	0	0	0.000	0.000

[Group Results(Ch1)]
# of Groups	0

[Group Results(Ch2)]
# of Groups	0

[Group Results(Ch3)]
# of Groups	0

[Chromatogram (Ch1)]
Interval(msec)	220
# of Points	1091
Start Time(min)	0.002
End Time(min)	3.998
R.Time (min)	Intensity
0.00167	42
0.00533	45
0.00900	43
0.01267	38
0.01633	32
0.02000	24
0.02367	21
0.02733	23
0.03100	20
0.03467	18
0.03833	20
0.04200	20
0.04567	16
0.04933	18
0.05300	26
0.05667	32
0.06033	31
0.06400	24
0.06767	13
0.07133	6
0.07500	6
0.07867	6
0.08233	5
0.08600	7
0.08967	12
0.09333	16
0.09700	19
0.10067	17
0.10433	13
0.10800	14
0.11167	18
0.11533	18
0.11900	12
0.12267	6
0.12633	2
0.13000	2
0.13367	7
0.13733	15
0.14100	26
0.14467	33
0.14833	28
0.15200	14
0.15567	0
0.15933	-10
0.16300	-16
0.16667	-14
0.17033	-5
0.17400	3
0.17767	10
0.18133	21
0.18500	34
0.18867	47
0.19233	52
0.19600	44
0.19967	30
0.20333	18
0.20700	12
0.21067	13
0.21433	16
0.21800	17
0.22167	15
0.22533	14
0.22900	15
0.23267	11
0.23633	1
0.24000	-5
0.24367	-3
0.24733	5
0.25100	17
0.25467	27
0.25833	33
0.26200	38
0.26567	45
0.26933	52
0.27300	58
0.27667	65
0.28033	74
0.28400	78
0.28767	80
0.29133	83
0.29500	92
0.29867	97
0.30233	90
0.30600	86
0.30967	92
0.31333	92
0.31700	91
0.32067	93
0.32433	98
0.32800	107
0.33167	119
0.33533	125
0.33900	122
0.34267	116
0.34633	115
0.35000	117
0.35367	118
0.35733	109
0.36100	104
0.36467	102
0.36833	99
0.37200	93
0.37567	85
0.37933	78
0.38300	75
0.38667	75
0.39033	78
0.39400	84
0.39767	93
0.40133	99
0.40500	103
0.40867	101
0.41233	94
0.41600	81
0.41967	60
0.42333	50
0.42700	41
0.43067	30
0.43433	22
0.43800	20
0.44167	18
0.44533	12
0.44900	5
0.45267	-5
0.45633	-10
0.46000	-13
0.46367	-13
0.46733	-6
0.47100	3
0.47467	12
0.47833	23
0.48200	31
0.48567	34
0.48933	34
0.49300	33
0.49667	29
0.50033	25
0.50400	19
0.50767	9
0.51133	-2
0.51500	-12
0.51867	-20
0.52233	-23
0.52600	-24
0.52967	-20
0.53333	-14
0.53700	-13
0.54067	-8
0.54433	-1
0.54800	2
0.55167	6
0.55533	11
0.55900	14
0.56267	12
0.56633	9
0.57000	6
0.57367	9
0.57733	12
0.58100	15
0.58467	13
0.58833	7
0.59200	4
0.59567	3
0.59933	-1
0.60300	-3
0.60667	-2
0.61033	-3
0.61400	-4
0.61767	-3
0.62133	-1
0.62500	-2
0.62867	-1
0.63233	-1
0.63600	4
0.63967	6
0.64333	8
0.64700	14
0.65067	20
0.65433	23
0.65800	21
0.66167	14
0.66533	9
0.66900	6
0.67267	2
0.67633	0
0.68000	4
0.68367	4
0.68733	-1
0.69100	-6
0.69467	-8
0.69833	-8
0.70200	-3
0.70567	4
0.70933	4
0.71300	13
0.71667	26
0.72033	36
0.72400	41
0.72767	35
0.73133	22
0.73500	7
0.73867	-7
0.74233	-21
0.74600	-30
0.74967	-35
0.75333	-34
0.75700	-28
0.76067	-22
0.76433	-16
0.76800	-9
0.77167	-6
0.77533	-12
0.77900	-18
0.78267	-21
0.78633	-27
0.79000	-33
0.79367	-38
0.79733	-40
0.80100	-33
0.80467	-23
0.80833	-16
0.81200	-13
0.81567	-10
0.81933	-13
0.82300	-26
0.82667	-38
0.83033	-39
0.83400	-38
0.83767	-36
0.84133	-32
0.84500	-24
0.84867	-16
0.85233	-12
0.85600	-10
0.85967	-15
0.86333	-25
0.86700	-33
0.87067	-29
0.87433	-23
0.87800	-19
0.88167	-16
0.88533	-15
0.88900	-17
0.89267	-22
0.89633	-25
0.90000	-25
0.90367	-25
0.90733	-25
0.91100	-27
0.91467	-20
0.91833	-15
0.92200	-16
0.92567	-20
0.92933	-19
0.93300	-13
0.93667	-6
0.94033	-3
0.94400	-2
0.94767	-4
0.95133	-9
0.95500	-18
0.95867	-19
0.96233	-21
0.96600	-25
0.96967	-32
0.97333	-31
0.97700	-23
0.98067	-20
0.98433	-22
0.98800	-25
0.99167	-27
0.99533	-32
0.99900	-35
1.00267	-31
1.00633	-24
1.01000	-15
1.01367	-12
1.01733	-12
1.02100	-10
1.02467	-4
1.02833	-1
1.03200	-5
1.03567	-13
1.03933	-15
1.04300	-13
1.04667	-17
1.05033	-22
1.05400	-25
1.05767	-28
1.06133	-30
1.06500	-24
1.06867	-21
1.07233	-23
1.07600	-17
1.07967	-8
1.08333	-6
1.08700	-12
1.09067	-17
1.09433	-21
1.09800	-22
1.10167	-22
1.10533	-25
1.10900	-37
1.11267	-42
1.11633	-38
1.12000	-36
1.12367	-30
1.12733	-26
1.13100	-32
1.13467	-36
1.13833	-33
1.14200	-30
1.14567	-28
1.14933	-30
1.15300	-34
1.15667	-36
1.16033	-35
1.16400	-30
1.16767	-24
1.17133	-21
1.17500	-19
1.17867	-16
1.18233	-20
1.18600	-27
1.18967	-31
1.19333	-34
1.19700	-34
1.20067	-33
1.20433	-27
1.20800	-20
1.21167	-16
1.21533	-18
1.21900	-21
1.22267	-18
1.22633	-9
1.23000	-1
1.23367	-1
1.23733	-8
1.24100	-16
1.24467	-23
1.24833	-27
1.25200	-27
1.25567	-24
1.25933	-20
1.26300	-14
1.26667	-9
1.27033	-4
1.27400	2
1.27767	10
1.28133	11
1.28500	14
1.28867	19
1.29233	18
1.29600	10
1.29967	-4
1.30333	-17
1.30700	-23
1.31067	-25
1.31433	-22
1.31800	-15
1.32167	-9
1.32533	-6
1.32900	-3
1.33267	1
1.33633	1
1.34000	0
1.34367	-6
1.34733	-15
1.35100	-22
1.35467	-23
1.35833	-22
1.36200	-16
1.36567	-6
1.36933	1
1.37300	6
1.37667	6
1.38033	-2
1.38400	-8
1.38767	-10
1.39133	-10
1.39500	-10
1.39867	-8
1.40233	-4
1.40600	-1
1.40967	-0
1.41333	0
1.41700	4
1.42067	9
1.42433	9
1.42800	2
1.43167	-6
1.43533	-15
1.43900	-11
1.44267	26
1.44633	145
1.45000	462
1.45367	1243
1.45733	2702
1.46100	4627
1.46467	6571
1.46833	8206
1.47200	9385
1.47567	10018
1.47933	9997
1.48300	9281
1.48667	8005
1.49033	6441
1.49400	4881
1.49767	3526
1.50133	2453
1.50500	1649
1.50867	1074
1.51233	671
1.51600	397
1.51967	215
1.52333	94
1.52700	15
1.53067	-34
1.53433	-61
1.53800	-63
1.54167	-22
1.54533	107
1.54900	370
1.55267	744
1.55633	1148
1.56000	1509
1.56367	1785
1.56733	1953
1.57100	1986
1.57467	1861
1.57833	1600
1.58200	1269
1.58567	929
1.58933	632
1.59300	405
1.59667	249
1.60033	139
1.60400	58
1.60767	3
1.61133	-32
1.61500	-48
1.61867	-56
1.62233	-58
1.62600	-56
1.62967	-56
1.63333	-58
1.63700	-62
1.64067	-66
1.64433	-67
1.64800	-64
1.65167	-62
1.65533	-57
1.65900	-54
1.66267	-55
1.66633	-59
1.67000	-64
1.67367	-68
1.67733	-67
1.68100	-64
1.68467	-65
1.68833	-70
1.69200	-77
1.69567	-81
1.69933	-80
1.70300	-75
1.70667	-70
1.71033	-64
1.71400	-53
1.71767	-52
1.72133	-56
1.72500	-62
1.72867	-68
1.73233	-70
1.73600	-68
1.73967	-63
1.74333	-61
1.74700	-63
1.75067	-64
1.75433	-63
1.75800	-69
1.76167	-72
1.76533	-68
1.76900	-66
1.77267	-67
1.77633	-66
1.78000	-64
1.78367	-61
1.78733	-56
1.79100	-55
1.79467	-57
1.79833	-56
1.80200	-49
1.80567	-41
1.80933	-37
1.81300	-39
1.81667	-42
1.82033	-40
1.82400	-35
1.82767	-36
1.83133	-43
1.83500	-49
1.83867	-49
1.84233	-44
1.84600	-42
1.84967	-46
1.85333	-52
1.85700	-55
1.86067	-51
1.86433	-48
1.86800	-47
1.87167	-45
1.87533	-40
1.87900	-36
1.88267	-36
1.88633	-36
1.89000	-38
1.89367	-45
1.89733	-49
1.90100	-43
1.90467	-33
1.90833	-24
1.91200	-24
1.91567	-24
1.91933	-30
1.92300	-34
1.92667	-36
1.93033	-34
1.93400	-31
1.93767	-29
1.94133	-29
1.94500	-25
1.94867	-21
1.95233	-1
1.95600	130
1.95967	958
1.96333	5234
1.96700	22044
1.97067	72380
1.97433	187657
1.97800	390100
1.98167	667374
1.98533	973592
1.98900	1252609
1.99267	1459225
1.99633	1565575
2.00000	1561116
2.00367	1454235
2.00733	1270134
2.01100	1044840
2.01467	815043
2.01833	608258
2.02200	438708
2.02567	308959
2.02933	214503
2.03300	148101
2.03667	102487
2.04033	71576
2.04400	50757
2.04767	36734
2.05133	27243
2.05500	20745
2.05867	16223
2.06233	13011
2.06600	10678
2.06967	8942
2.07333	7623
2.07700	6601
2.08067	5792
2.08433	5143
2.08800	4610
2.09167	4166
2.09533	3797
2.09900	3483
2.10267	3213
2.10633	2979
2.11000	2769
2.11367	2579
2.11733	2408
2.12100	2257
2.12467	2123
2.12833	2003
2.13200	1889
2.13567	1788
2.13933	1701
2.14300	1623
2.14667	1554
2.15033	1493
2.15400	1432
2.15767	1375
2.16133	1325
2.16500	1272
2.16867	1221
2.17233	1175
2.17600	1130
2.17967	1087
2.18333	1048
2.18700	1017
2.19067	985
2.19433	952
2.19800	916
2.20167	883
2.20533	853
2.20900	824
2.21267	796
2.21633	771
2.22000	748
2.22367	729
2.22733	712
2.23100	694
2.23467	676
2.23833	658
2.24200	639
2.24567	623
2.24933	607
2.25300	594
2.25667	588
2.26033	585
2.26400	584
2.26767	578
2.27133	562
2.27500	544
2.27867	524
2.28233	502
2.28600	484
2.28967	475
2.29333	468
2.29700	463
2.30067	464
2.30433	466
2.30800	457
2.31167	443
2.31533	432
2.31900	425
2.32267	419
2.32633	413
2.33000	407
2.33367	395
2.33733	387
2.34100	383
2.34467	382
2.34833	383
2.35200	383
2.35567	379
2.35933	370
2.36300	355
2.36667	342
2.37033	331
2.37400	324
2.37767	322
2.38133	323
2.38500	323
2.38867	322
2.39233	322
2.39600	326
2.39967	327
2.40333	318
2.40700	304
2.41067	288
2.41433	276
2.41800	267
2.42167	263
2.42533	264
2.42900	268
2.43267	270
2.43633	270
2.44000	273
2.44367	278
2.44733	284
2.45100	290
2.45467	289
2.45833	279
2.46200	268
2.46567	262
2.46933	251
2.47300	237
2.47667	229
2.48033	228
2.48400	223
2.48767	221
2.49133	221
2.49500	221
2.49867	221
2.50233	226
2.50600	232
2.50967	232
2.51333	230
2.51700	231
2.52067	227
2.52433	221
2.52800	215
2.53167	209
2.53533	214
2.53900	223
2.54267	227
2.54633	222
2.55000	216
2.55367	213
2.55733	212
2.56100	209
2.56467	202
2.56833	194
2.57200	192
2.57567	191
2.57933	185
2.58300	184
2.58667	182
2.59033	177
2.59400	177
2.59767	175
2.60133	170
2.60500	166
2.60867	168
2.61233	173
2.61600	173
2.61967	171
2.62333	172
2.62700	171
2.63067	172
2.63433	168
2.63800	161
2.64167	153
2.64533	150
2.64900	157
2.65267	163
2.65633	165
2.66000	169
2.66367	170
2.66733	171
2.67100	175
2.67467	179
2.67833	176
2.68200	171
2.68567	164
2.68933	156
2.69300	145
2.69667	146
2.70033	146
2.70400	148
2.70767	149
2.71133	149
2.71500	146
2.71867	144
2.72233	143
2.72600	140
2.72967	140
2.73333	141
2.73700	150
2.74067	157
2.74433	162
2.74800	159
2.75167	150
2.75533	142
2.75900	136
2.76267	129
2.76633	123
2.77000	117
2.77367	117
2.77733	120
2.78100	124
2.78467	130
2.78833	133
2.79200	134
2.79567	134
2.79933	131
2.80300	124
2.80667	119
2.81033	116
2.81400	114
2.81767	115
2.82133	116
2.82500	113
2.82867	108
2.83233	106
2.83600	108
2.83967	112
2.84333	124
2.84700	133
2.85067	138
2.85433	142
2.85800	142
2.86167	142
2.86533	145
2.86900	151
2.87267	154
2.87633	153
2.88000	144
2.88367	136
2.88733	139
2.89100	145
2.89467	149
2.89833	145
2.90200	139
2.90567	140
2.90933	143
2.91300	144
2.91667	146
2.92033	150
2.92400	159
2.92767	160
2.93133	151
2.93500	138
2.93867	124
2.94233	115
2.94600	111
2.94967	105
2.95333	101
2.95700	100
2.96067	103
2.96433	106
2.96800	104
2.97167	101
2.97533	97
2.97900	97
2.98267	105
2.98633	123
2.99000	142
2.99367	157
2.99733	170
3.00100	174
3.00467	171
3.00833	168
3.01200	164
3.01567	153
3.01933	140
3.02300	127
3.02667	114
3.03033	114
3.03400	113
3.03767	108
3.04133	101
3.04500	99
3.04867	101
3.05233	108
3.05600	117
3.05967	124
3.06333	129
3.06700	133
3.07067	132
3.07433	122
3.07800	114
3.08167	112
3.08533	106
3.08900	103
3.09267	108
3.09633	114
3.10000	116
3.10367	115
3.10733	114
3.11100	115
3.11467	115
3.11833	121
3.12200	130
3.12567	136
3.12933	140
3.13300	141
3.13667	137
3.14033	129
3.14400	119
3.14767	106
3.15133	96
3.15500	89
3.15867	89
3.16233	92
3.16600	98
3.16967	104
3.17333	109
3.17700	115
3.18067	121
3.18433	124
3.18800	128
3.19167	133
3.19533	131
3.19900	121
3.20267	110
3.20633	107
3.21000	97
3.21367	91
3.21733	95
3.22100	102
3.22467	106
3.22833	114
3.23200	121
3.23567	121
3.23933	119
3.24300	117
3.24667	112
3.25033	104
3.25400	99
3.25767	95
3.26133	91
3.26500	91
3.26867	99
3.27233	108
3.27600	116
3.27967	116
3.28333	111
3.28700	102
3.29067	95
3.29433	92
3.29800	91
3.30167	91
3.30533	96
3.30900	101
3.31267	103
3.31633	99
3.32000	93
3.32367	90
3.32733	88
3.33100	89
3.33467	89
3.33833	89
3.34200	91
3.34567	95
3.34933	101
3.35300	101
3.35667	95
3.36033	91
3.36400	90
3.36767	90
3.37133	87
3.37500	85
3.37867	81
3.38233	77
3.38600	78
3.38967	83
3.39333	88
3.39700	92
3.40067	97
3.40433	101
3.40800	104
3.41167	102
3.41533	95
3.41900	88
3.42267	80
3.42633	75
3.43000	72
3.43367	73
3.43733	75
3.44100	80
3.44467	92
3.44833	109
3.45200	117
3.45567	115
3.45933	108
3.46300	98
3.46667	87
3.47033	80
3.47400	79
3.47767	81
3.48133	87
3.48500	93
3.48867	96
3.49233	96
3.49600	93
3.49967	89
3.50333	89
3.50700	87
3.51067	81
3.51433	76
3.51800	73
3.52167	70
3.52533	69
3.52900	70
3.53267	70
3.53633	74
3.54000	78
3.54367	80
3.54733	78
3.55100	74
3.55467	70
3.55833	69
3.56200	66
3.56567	61
3.56933	55
3.57300	53
3.57667	58
3.58033	68
3.58400	76
3.58767	77
3.59133	75
3.59500	70
3.59867	68
3.60233	68
3.60600	70
3.60967	73
3.61333	75
3.61700	73
3.62067	71
3.62433	69
3.62800	69
3.63167	69
3.63533	68
3.63900	66
3.64267	65
3.64633	70
3.65000	77
3.65367	80
3.65733	79
3.66100	73
3.66467	69
3.66833	64
3.67200	63
3.67567	65
3.67933	65
3.68300	62
3.68667	61
3.69033	59
3.69400	57
3.69767	56
3.70133	56
3.70500	56
3.70867	53
3.71233	50
3.71600	46
3.71967	43
3.72333	42
3.72700	50
3.73067	61
3.73433	68
3.73800	67
3.74167	60
3.74533	53
3.74900	49
3.75267	44
3.75633	39
3.76000	37
3.76367	44
3.76733	50
3.77100	55
3.77467	62
3.77833	68
3.78200	75
3.78567	79
3.78933	71
3.79300	61
3.79667	58
3.80033	56
3.80400	52
3.80767	48
3.81133	44
3.81500	40
3.81867	41
3.82233	40
3.82600	44
3.82967	49
3.83333	55
3.83700	64
3.84067	67
3.84433	60
3.84800	53
3.85167	47
3.85533	39
3.85900	30
3.86267	23
3.86633	21
3.87000	23
3.87367	30
3.87733	35
3.88100	36
3.88467	38
3.88833	36
3.89200	37
3.89567	43
3.89933	48
3.90300	46
3.90667	38
3.91033	32
3.91400	29
3.91767	24
3.92133	20
3.92500	17
3.92867	21
3.93233	25
3.93600	24
3.93967	21
3.94333	28
3.94700	39
3.95067	49
3.95433	52
3.95800	47
3.96167	41
3.96533	37
3.96900	34
3.97267	31
3.97633	27
3.98000	24
3.98367	23
3.98733	19
3.99100	16
3.99467	14
3.99833	13

[Chromatogram (Ch2)]
Interval(msec)	220
# of Points	1091
Start Time(min)	0.002
End Time(min)	3.998
R.Time (min)	Intensity
0.00167	-1
0.00533	-1
0.00900	-1
0.01267	-1
0.01633	-1
0.02000	-1
0.02367	-1
0.02733	-1
0.03100	-0
0.03467	0
0.03833	0
0.04200	1
0.04567	1
0.04933	2
0.05300	2
0.05667	2
0.06033	2
0.06400	3
0.06767	3
0.07133	3
0.07500	3
0.07867	3
0.08233	3
0.08600	3
0.08967	3
0.09333	2
0.09700	2
0.10067	2
0.10433	3
0.10800	3
0.11167	3
0.11533	3
0.11900	4
0.12267	4
0.12633	4
0.13000	5
0.13367	5
0.13733	5
0.14100	5
0.14467	5
0.14833	5
0.15200	5
0.15567	5
0.15933	4
0.16300	4
0.16667	4
0.17033	3
0.17400	2
0.17767	2
0.18133	1
0.18500	1
0.18867	0
0.19233	-0
0.19600	-1
0.19967	-1
0.20333	-1
0.20700	-1
0.21067	-1
0.21433	-1
0.21800	-1
0.22167	-1
0.22533	-1
0.22900	-1
0.23267	-1
0.23633	-0
0.24000	0
0.24367	0
0.24733	0
0.25100	1
0.25467	1
0.25833	1
0.26200	2
0.26567	2
0.26933	2
0.27300	2
0.27667	2
0.28033	2
0.28400	2
0.28767	1
0.29133	1
0.29500	1
0.29867	1
0.30233	1
0.30600	1
0.30967	1
0.31333	1
0.31700	1
0.32067	1
0.32433	1
0.32800	1
0.33167	1
0.33533	1
0.33900	1
0.34267	1
0.34633	0
0.35000	-0
0.35367	-0
0.35733	-1
0.36100	-1
0.36467	-1
0.36833	-2
0.37200	-2
0.37567	-2
0.37933	-2
0.38300	-2
0.38667	-2
0.39033	-1
0.39400	-1
0.39767	-0
0.40133	1
0.40500	1
0.40867	1
0.41233	2
0.41600	2
0.41967	3
0.42333	3
0.42700	3
0.43067	3
0.43433	4
0.43800	4
0.44167	4
0.44533	4
0.44900	4
0.45267	4
0.45633	4
0.46000	4
0.46367	3
0.46733	3
0.47100	3
0.47467	3
0.47833	3
0.48200	3
0.48567	2
0.48933	2
0.49300	1
0.49667	1
0.50033	0
0.50400	0
0.50767	-0
0.51133	-1
0.51500	-1
0.51867	-2
0.52233	-2
0.52600	-2
0.52967	-2
0.53333	-2
0.53700	-2
0.54067	-2
0.54433	-2
0.54800	-2
0.55167	-2
0.55533	-2
0.55900	-1
0.56267	-1
0.56633	-1
0.57000	-1
0.57367	-1
0.57733	-0
0.58100	-0
0.58467	0
0.58833	1
0.59200	1
0.59567	1
0.59933	1
0.60300	1
0.60667	1
0.61033	1
0.61400	1
0.61767	0
0.62133	-0
0.62500	-0
0.62867	-1
0.63233	-1
0.63600	-1
0.63967	-1
0.64333	-1
0.64700	-2
0.65067	-2
0.65433	-2
0.65800	-2
0.66167	-2
0.66533	-2
0.66900	-2
0.67267	-2
0.67633	-2
0.68000	-1
0.68367	-1
0.68733	-1
0.69100	-1
0.69467	-1
0.69833	-1
0.70200	-1
0.70567	-1
0.70933	-1
0.71300	-0
0.71667	0
0.72033	0
0.72400	1
0.72767	1
0.73133	1
0.73500	2
0.73867	2
0.74233	2
0.74600	2
0.74967	3
0.75333	3
0.75700	3
0.76067	3
0.76433	3
0.76800	3
0.77167	3
0.77533	3
0.77900	2
0.78267	2
0.78633	2
0.79000	1
0.79367	1
0.79733	0
0.80100	-0
0.80467	-1
0.80833	-1
0.81200	-1
0.81567	-1
0.81933	-2
0.82300	-2
0.82667	-2
0.83033	-2
0.83400	-2
0.83767	-1
0.84133	-1
0.84500	-1
0.84867	-0
0.85233	-0
0.85600	0
0.85967	0
0.86333	0
0.86700	0
0.87067	-0
0.87433	-0
0.87800	-0
0.88167	-0
0.88533	-1
0.88900	-1
0.89267	-1
0.89633	-1
0.90000	-0
0.90367	-0
0.90733	0
0.91100	1
0.91467	1
0.91833	1
0.92200	1
0.92567	1
0.92933	1
0.93300	2
0.93667	2
0.94033	2
0.94400	2
0.94767	2
0.95133	2
0.95500	3
0.95867	3
0.96233	3
0.96600	2
0.96967	2
0.97333	2
0.97700	2
0.98067	2
0.98433	2
0.98800	1
0.99167	1
0.99533	1
0.99900	1
1.00267	1
1.00633	0
1.01000	1
1.01367	1
1.01733	1
1.02100	1
1.02467	1
1.02833	1
1.03200	1
1.03567	1
1.03933	1
1.04300	1
1.04667	1
1.05033	1
1.05400	1
1.05767	1
1.06133	1
1.06500	1
1.06867	2
1.07233	2
1.07600	2
1.07967	2
1.08333	2
1.08700	2
1.09067	2
1.09433	2
1.09800	2
1.10167	2
1.10533	2
1.10900	2
1.11267	2
1.11633	2
1.12000	1
1.12367	0
1.12733	-0
1.13100	-1
1.13467	-1
1.13833	-2
1.14200	-2
1.14567	-3
1.14933	-3
1.15300	-4
1.15667	-4
1.16033	-4
1.16400	-4
1.16767	-4
1.17133	-4
1.17500	-3
1.17867	-3
1.18233	-3
1.18600	-2
1.18967	-2
1.19333	-1
1.19700	-1
1.20067	-1
1.20433	-1
1.20800	-1
1.21167	-2
1.21533	-2
1.21900	-2
1.22267	-2
1.22633	-2
1.23000	-2
1.23367	-1
1.23733	-1
1.24100	-1
1.24467	-0
1.24833	-0
1.25200	0
1.25567	1
1.25933	1
1.26300	2
1.26667	2
1.27033	2
1.27400	3
1.27767	3
1.28133	3
1.28500	3
1.28867	2
1.29233	2
1.29600	2
1.29967	2
1.30333	1
1.30700	1
1.31067	1
1.31433	1
1.31800	1
1.32167	1
1.32533	1
1.32900	1
1.33267	1
1.33633	1
1.34000	2
1.34367	2
1.34733	2
1.35100	2
1.35467	2
1.35833	2
1.36200	2
1.36567	2
1.36933	2
1.37300	1
1.37667	1
1.38033	1
1.38400	1
1.38767	1
1.39133	1
1.39500	1
1.39867	1
1.40233	1
1.40600	1
1.40967	1
1.41333	1
1.41700	1
1.42067	1
1.42433	1
1.42800	1
1.43167	1
1.43533	0
1.43900	0
1.44267	-0
1.44633	-0
1.45000	-1
1.45367	-1
1.45733	-1
1.46100	-1
1.46467	-1
1.46833	-1
1.47200	-1
1.47567	-1
1.47933	-1
1.48300	-1
1.48667	-1
1.49033	-1
1.49400	-1
1.49767	-1
1.50133	-1
1.50500	-2
1.50867	-2
1.51233	-2
1.51600	-3
1.51967	-3
1.52333	-3
1.52700	-3
1.53067	-3
1.53433	-3
1.53800	-2
1.54167	-2
1.54533	-2
1.54900	-1
1.55267	-1
1.55633	-0
1.56000	1
1.56367	1
1.56733	1
1.57100	2
1.57467	2
1.57833	2
1.58200	2
1.58567	2
1.58933	2
1.59300	1
1.59667	-0
1.60033	-1
1.60400	-3
1.60767	-5
1.61133	-7
1.61500	-9
1.61867	-11
1.62233	-14
1.62600	-17
1.62967	-20
1.63333	-23
1.63700	-27
1.64067	-30
1.64433	-34
1.64800	-37
1.65167	-41
1.65533	-45
1.65900	-49
1.66267	-53
1.66633	-58
1.67000	-62
1.67367	-67
1.67733	-72
1.68100	-76
1.68467	-81
1.68833	-85
1.69200	-89
1.69567	-93
1.69933	-95
1.70300	-98
1.70667	-100
1.71033	-101
1.71400	-103
1.71767	-103
1.72133	-104
1.72500	-104
1.72867	-105
1.73233	-105
1.73600	-104
1.73967	-104
1.74333	-104
1.74700	-104
1.75067	-104
1.75433	-104
1.75800	-105
1.76167	-105
1.76533	-107
1.76900	-108
1.77267	-109
1.77633	-110
1.78000	-111
1.78367	-112
1.78733	-112
1.79100	-112
1.79467	-113
1.79833	-113
1.80200	-113
1.80567	-113
1.80933	-113
1.81300	-113
1.81667	-112
1.82033	-112
1.82400	-112
1.82767	-112
1.83133	-113
1.83500	-113
1.83867	-114
1.84233	-115
1.84600	-115
1.84967	-115
1.85333	-115
1.85700	-114
1.86067	-114
1.86433	-113
1.86800	-113
1.87167	-113
1.87533	-112
1.87900	-112
1.88267	-111
1.88633	-111
1.89000	-111
1.89367	-111
1.89733	-111
1.90100	-112
1.90467	-112
1.90833	-112
1.91200	-112
1.91567	-111
1.91933	-111
1.92300	-110
1.92667	-110
1.93033	-110
1.93400	-109
1.93767	-109
1.94133	-109
1.94500	-108
1.94867	-108
1.95233	-108
1.95600	-108
1.95967	-108
1.96333	-108
1.96700	-107
1.97067	-107
1.97433	-106
1.97800	-106
1.98167	-106
1.98533	-106
1.98900	-106
1.99267	-106
1.99633	-106
2.00000	-106
2.00367	-106
2.00733	-105
2.01100	-105
2.01467	-104
2.01833	-104
2.02200	-104
2.02567	-104
2.02933	-104
2.03300	-103
2.03667	-103
2.04033	-103
2.04400	-102
2.04767	-102
2.05133	-101
2.05500	-101
2.05867	-100
2.06233	-100
2.06600	-100
2.06967	-99
2.07333	-99
2.07700	-99
2.08067	-98
2.08433	-98
2.08800	-97
2.09167	-97
2.09533	-97
2.09900	-97
2.10267	-97
2.10633	-97
2.11000	-97
2.11367	-98
2.11733	-98
2.12100	-98
2.12467	-97
2.12833	-96
2.13200	-95
2.13567	-94
2.13933	-93
2.14300	-92
2.14667	-92
2.15033	-91
2.15400	-90
2.15767	-90
2.16133	-90
2.16500	-90
2.16867	-90
2.17233	-90
2.17600	-91
2.17967	-91
2.18333	-91
2.18700	-91
2.19067	-91
2.19433	-90
2.19800	-89
2.20167	-89
2.20533	-89
2.20900	-89
2.21267	-89
2.21633	-90
2.22000	-90
2.22367	-90
2.22733	-90
2.23100	-90
2.23467	-89
2.23833	-87
2.24200	-86
2.24567	-85
2.24933	-84
2.25300	-83
2.25667	-82
2.26033	-82
2.26400	-82
2.26767	-82
2.27133	-82
2.27500	-83
2.27867	-83
2.28233	-82
2.28600	-82
2.28967	-81
2.29333	-80
2.29700	-79
2.30067	-79
2.30433	-79
2.30800	-79
2.31167	-80
2.31533	-80
2.31900	-80
2.32267	-80
2.32633	-80
2.33000	-79
2.33367	-79
2.33733	-78
2.34100	-77
2.34467	-76
2.34833	-75
2.35200	-74
2.35567	-73
2.35933	-72
2.36300	-72
2.36667	-71
2.37033	-70
2.37400	-68
2.37767	-65
2.38133	-62
2.38500	-58
2.38867	-54
2.39233	-50
2.39600	-45
2.39967	-40
2.40333	-35
2.40700	-31
2.41067	-27
2.41433	-23
2.41800	-20
2.42167	-17
2.42533	-14
2.42900	-12
2.43267	-10
2.43633	-9
2.44000	-7
2.44367	-6
2.44733	-4
2.45100	-3
2.45467	-3
2.45833	-2
2.46200	-2
2.46567	-2
2.46933	-1
2.47300	-1
2.47667	0
2.48033	1
2.48400	2
2.48767	4
2.49133	5
2.49500	6
2.49867	7
2.50233	8
2.50600	9
2.50967	10
2.51333	11
2.51700	11
2.52067	12
2.52433	12
2.52800	12
2.53167	13
2.53533	13
2.53900	14
2.54267	15
2.54633	15
2.55000	15
2.55367	16
2.55733	16
2.56100	16
2.56467	17
2.56833	17
2.57200	17
2.57567	18
2.57933	19
2.58300	19
2.58667	20
2.59033	20
2.59400	20
2.59767	21
2.60133	20
2.60500	20
2.60867	20
2.61233	20
2.61600	20
2.61967	20
2.62333	20
2.62700	20
2.63067	20
2.63433	20
2.63800	20
2.64167	20
2.64533	20
2.64900	20
2.65267	21
2.65633	21
2.66000	22
2.66367	22
2.66733	22
2.67100	23
2.67467	23
2.67833	23
2.68200	23
2.68567	23
2.68933	24
2.69300	24
2.69667	25
2.70033	25
2.70400	26
2.70767	26
2.71133	26
2.71500	27
2.71867	27
2.72233	27
2.72600	27
2.72967	27
2.73333	26
2.73700	26
2.74067	26
2.74433	26
2.74800	26
2.75167	26
2.75533	26
2.75900	26
2.76267	26
2.76633	26
2.77000	27
2.77367	27
2.77733	27
2.78100	28
2.78467	28
2.78833	28
2.79200	29
2.79567	29
2.79933	29
2.80300	29
2.80667	30
2.81033	29
2.81400	29
2.81767	29
2.82133	29
2.82500	29
2.82867	29
2.83233	29
2.83600	28
2.83967	28
2.84333	26
2.84700	24
2.85067	21
2.85433	15
2.85800	6
2.86167	-6
2.86533	-21
2.86900	-41
2.87267	-66
2.87633	-95
2.88000	-128
2.88367	-165
2.88733	-207
2.89100	-252
2.89467	-301
2.89833	-352
2.90200	-405
2.90567	-460
2.90933	-515
2.91300	-571
2.91667	-627
2.92033	-683
2.92400	-738
2.92767	-791
2.93133	-842
2.93500	-894
2.93867	-950
2.94233	-1009
2.94600	-1060
2.94967	-1094
2.95333	-1103
2.95700	-1086
2.96067	-1046
2.96433	-987
2.96800	-916
2.97167	-837
2.97533	-756
2.97900	-676
2.98267	-599
2.98633	-527
2.99000	-461
2.99367	-400
2.99733	-346
3.00100	-297
3.00467	-254
3.00833	-217
3.01200	-184
3.01567	-155
3.01933	-130
3.02300	-109
3.02667	-91
3.03033	-75
3.03400	-61
3.03767	-50
3.04133	-40
3.04500	-32
3.04867	-25
3.05233	-19
3.05600	-14
3.05967	-10
3.06333	-6
3.06700	-3
3.07067	-1
3.07433	2
3.07800	4
3.08167	5
3.08533	7
3.08900	9
3.09267	10
3.09633	11
3.10000	13
3.10367	14
3.10733	15
3.11100	15
3.11467	16
3.11833	16
3.12200	17
3.12567	18
3.12933	18
3.13300	19
3.13667	19
3.14033	20
3.14400	20
3.14767	20
3.15133	21
3.15500	21
3.15867	21
3.16233	21
3.16600	21
3.16967	21
3.17333	21
3.17700	21
3.18067	21
3.18433	21
3.18800	22
3.19167	22
3.19533	22
3.19900	22
3.20267	22
3.20633	22
3.21000	22
3.21367	22
3.21733	22
3.22100	22
3.22467	22
3.22833	22
3.23200	22
3.23567	22
3.23933	23
3.24300	23
3.24667	23
3.25033	23
3.25400	24
3.25767	25
3.26133	25
3.26500	26
3.26867	26
3.27233	26
3.27600	26
3.27967	27
3.28333	27
3.28700	27
3.29067	27
3.29433	28
3.29800	28
3.30167	29
3.30533	29
3.30900	29
3.31267	30
3.31633	30
3.32000	30
3.32367	30
3.32733	30
3.33100	30
3.33467	31
3.33833	31
3.34200	31
3.34567	31
3.34933	31
3.35300	31
3.35667	31
3.36033	31
3.36400	31
3.36767	30
3.37133	30
3.37500	30
3.37867	30
3.38233	29
3.38600	29
3.38967	29
3.39333	29
3.39700	29
3.40067	29
3.40433	29
3.40800	29
3.41167	29
3.41533	29
3.41900	28
3.42267	28
3.42633	28
3.43000	28
3.43367	28
3.43733	28
3.44100	27
3.44467	27
3.44833	27
3.45200	27
3.45567	26
3.45933	26
3.46300	26
3.46667	26
3.47033	26
3.47400	26
3.47767	26
3.48133	27
3.48500	27
3.48867	27
3.49233	28
3.49600	28
3.49967	28
3.50333	29
3.50700	29
3.51067	29
3.51433	29
3.51800	29
3.52167	29
3.52533	28
3.52900	28
3.53267	28
3.53633	28
3.54000	28
3.54367	28
3.54733	28
3.55100	28
3.55467	28
3.55833	28
3.56200	28
3.56567	28
3.56933	28
3.57300	29
3.57667	29
3.58033	29
3.58400	29
3.58767	29
3.59133	29
3.59500	29
3.59867	28
3.60233	28
3.60600	28
3.60967	28
3.61333	28
3.61700	28
3.62067	28
3.62433	28
3.62800	28
3.63167	28
3.63533	28
3.63900	28
3.64267	29
3.64633	29
3.65000	29
3.65367	29
3.65733	29
3.66100	29
3.66467	30
3.66833	30
3.67200	30
3.67567	30
3.67933	30
3.68300	30
3.68667	30
3.69033	30
3.69400	31
3.69767	31
3.70133	31
3.70500	30
3.70867	30
3.71233	30
3.71600	30
3.71967	30
3.72333	29
3.72700	29
3.73067	29
3.73433	29
3.73800	29
3.74167	29
3.74533	29
3.74900	29
3.75267	29
3.75633	28
3.76000	28
3.76367	28
3.76733	28
3.77100	27
3.77467	27
3.77833	27
3.78200	27
3.78567	27
3.78933	27
3.79300	27
3.79667	28
3.80033	28
3.80400	28
3.80767	28
3.81133	29
3.81500	29
3.81867	29
3.82233	29
3.82600	30
3.82967	30
3.83333	30
3.83700	30
3.84067	30
3.84433	30
3.84800	30
3.85167	30
3.85533	30
3.85900	29
3.86267	29
3.86633	29
3.87000	29
3.87367	29
3.87733	29
3.88100	29
3.88467	29
3.88833	29
3.89200	29
3.89567	30
3.89933	30
3.90300	30
3.90667	30
3.91033	30
3.91400	30
3.91767	30
3.92133	30
3.92500	30
3.92867	30
3.93233	30
3.93600	30
3.93967	29
3.94333	29
3.94700	29
3.95067	28
3.95433	28
3.95800	28
3.96167	28
3.96533	27
3.96900	27
3.97267	27
3.97633	27
3.98000	27
3.98367	27
3.98733	27
3.99100	28
3.99467	28
3.99833	29

[Chromatogram (Ch3)]
Interval(msec)	220
# of Points	1091
Start Time(min)	0.002
End Time(min)	3.998
R.Time (min)	Intensity
0.00167	0
0.00533	1
0.00900	1
0.01267	3
0.01633	2
0.02000	0
0.02367	-0
0.02733	-0
0.03100	-0
0.03467	0
0.03833	-2
0.04200	-2
0.04567	-3
0.04933	-3
0.05300	-1
0.05667	-2
0.06033	-1
0.06400	-0
0.06767	-1
0.07133	-2
0.07500	-3
0.07867	-3
0.08233	-2
0.08600	0
0.08967	2
0.09333	4
0.09700	5
0.10067	7
0.10433	6
0.10800	4
0.11167	3
0.11533	3
0.11900	5
0.12267	8
0.12633	8
0.13000	8
0.13367	6
0.13733	2
0.14100	1
0.14467	1
0.14833	-0
0.15200	-3
0.15567	-3
0.15933	-0
0.16300	-1
0.16667	-0
0.17033	-0
0.17400	-0
0.17767	2
0.18133	6
0.18500	7
0.18867	5
0.19233	3
0.19600	1
0.19967	1
0.20333	2
0.20700	2
0.21067	1
0.21433	-0
0.21800	-0
0.22167	-0
0.22533	-0
0.22900	0
0.23267	1
0.23633	1
0.24000	2
0.24367	2
0.24733	1
0.25100	0
0.25467	1
0.25833	1
0.26200	2
0.26567	4
0.26933	2
0.27300	2
0.27667	0
0.28033	-2
0.28400	-5
0.28767	-6
0.29133	-5
0.29500	-3
0.29867	0
0.30233	3
0.30600	5
0.30967	7
0.31333	8
0.31700	7
0.32067	6
0.32433	4
0.32800	4
0.33167	6
0.33533	8
0.33900	9
0.34267	10
0.34633	13
0.35000	15
0.35367	16
0.35733	17
0.36100	16
0.36467	13
0.36833	11
0.37200	10
0.37567	9
0.37933	11
0.38300	12
0.38667	11
0.39033	10
0.39400	10
0.39767	8
0.40133	8
0.40500	8
0.40867	6
0.41233	6
0.41600	6
0.41967	6
0.42333	4
0.42700	5
0.43067	6
0.43433	4
0.43800	4
0.44167	6
0.44533	7
0.44900	7
0.45267	7
0.45633	6
0.46000	5
0.46367	7
0.46733	7
0.47100	9
0.47467	10
0.47833	10
0.48200	10
0.48567	9
0.48933	8
0.49300	7
0.49667	7
0.50033	8
0.50400	6
0.50767	5
0.51133	4
0.51500	5
0.51867	6
0.52233	6
0.52600	8
0.52967	9
0.53333	11
0.53700	13
0.54067	14
0.54433	13
0.54800	11
0.55167	9
0.55533	8
0.55900	8
0.56267	9
0.56633	11
0.57000	12
0.57367	11
0.57733	9
0.58100	8
0.58467	7
0.58833	8
0.59200	7
0.59567	6
0.59933	6
0.60300	7
0.60667	7
0.61033	8
0.61400	9
0.61767	10
0.62133	11
0.62500	13
0.62867	12
0.63233	11
0.63600	10
0.63967	9
0.64333	9
0.64700	8
0.65067	8
0.65433	9
0.65800	11
0.66167	11
0.66533	11
0.66900	10
0.67267	9
0.67633	10
0.68000	12
0.68367	14
0.68733	16
0.69100	16
0.69467	14
0.69833	12
0.70200	12
0.70567	12
0.70933	11
0.71300	11
0.71667	12
0.72033	14
0.72400	14
0.72767	14
0.73133	12
0.73500	10
0.73867	8
0.74233	6
0.74600	6
0.74967	8
0.75333	9
0.75700	11
0.76067	10
0.76433	10
0.76800	9
0.77167	9
0.77533	9
0.77900	11
0.78267	10
0.78633	8
0.79000	9
0.79367	11
0.79733	11
0.80100	13
0.80467	15
0.80833	17
0.81200	19
0.81567	20
0.81933	20
0.82300	22
0.82667	22
0.83033	20
0.83400	18
0.83767	16
0.84133	15
0.84500	14
0.84867	13
0.85233	12
0.85600	14
0.85967	14
0.86333	13
0.86700	13
0.87067	14
0.87433	14
0.87800	13
0.88167	12
0.88533	11
0.88900	12
0.89267	14
0.89633	16
0.90000	17
0.90367	17
0.90733	17
0.91100	18
0.91467	19
0.91833	20
0.92200	20
0.92567	20
0.92933	19
0.93300	17
0.93667	16
0.94033	16
0.94400	18
0.94767	18
0.95133	17
0.95500	16
0.95867	16
0.96233	16
0.96600	16
0.96967	16
0.97333	17
0.97700	15
0.98067	13
0.98433	11
0.98800	10
0.99167	12
0.99533	14
0.99900	15
1.00267	15
1.00633	14
1.01000	11
1.01367	12
1.01733	13
1.02100	12
1.02467	11
1.02833	12
1.03200	13
1.03567	14
1.03933	13
1.04300	13
1.04667	14
1.05033	14
1.05400	16
1.05767	18
1.06133	18
1.06500	16
1.06867	15
1.07233	15
1.07600	15
1.07967	13
1.08333	12
1.08700	14
1.09067	17
1.09433	18
1.09800	16
1.10167	16
1.10533	16
1.10900	17
1.11267	18
1.11633	18
1.12000	18
1.12367	16
1.12733	15
1.13100	16
1.13467	16
1.13833	16
1.14200	16
1.14567	16
1.14933	15
1.15300	16
1.15667	17
1.16033	17
1.16400	17
1.16767	18
1.17133	19
1.17500	20
1.17867	20
1.18233	19
1.18600	19
1.18967	19
1.19333	19
1.19700	18
1.20067	19
1.20433	21
1.20800	24
1.21167	24
1.21533	23
1.21900	22
1.22267	23
1.22633	24
1.23000	24
1.23367	22
1.23733	21
1.24100	20
1.24467	20
1.24833	20
1.25200	20
1.25567	19
1.25933	18
1.26300	18
1.26667	19
1.27033	21
1.27400	20
1.27767	18
1.28133	16
1.28500	16
1.28867	17
1.29233	18
1.29600	19
1.29967	20
1.30333	18
1.30700	17
1.31067	18
1.31433	21
1.31800	21
1.32167	20
1.32533	21
1.32900	23
1.33267	25
1.33633	26
1.34000	26
1.34367	25
1.34733	25
1.35100	24
1.35467	22
1.35833	22
1.36200	23
1.36567	22
1.36933	22
1.37300	21
1.37667	21
1.38033	23
1.38400	24
1.38767	26
1.39133	25
1.39500	23
1.39867	23
1.40233	23
1.40600	23
1.40967	24
1.41333	21
1.41700	18
1.42067	18
1.42433	18
1.42800	18
1.43167	19
1.43533	20
1.43900	21
1.44267	21
1.44633	20
1.45000	18
1.45367	18
1.45733	19
1.46100	17
1.46467	17
1.46833	17
1.47200	19
1.47567	22
1.47933	24
1.48300	24
1.48667	23
1.49033	22
1.49400	23
1.49767	22
1.50133	21
1.50500	20
1.50867	19
1.51233	17
1.51600	16
1.51967	16
1.52333	17
1.52700	18
1.53067	18
1.53433	18
1.53800	17
1.54167	17
1.54533	17
1.54900	18
1.55267	21
1.55633	21
1.56000	17
1.56367	16
1.56733	17
1.57100	18
1.57467	18
1.57833	17
1.58200	18
1.58567	22
1.58933	24
1.59300	23
1.59667	25
1.60033	25
1.60400	23
1.60767	22
1.61133	21
1.61500	23
1.61867	23
1.62233	21
1.62600	20
1.62967	22
1.63333	22
1.63700	24
1.64067	26
1.64433	28
1.64800	27
1.65167	25
1.65533	24
1.65900	22
1.66267	23
1.66633	26
1.67000	29
1.67367	31
1.67733	32
1.68100	33
1.68467	33
1.68833	31
1.69200	30
1.69567	31
1.69933	34
1.70300	34
1.70667	32
1.71033	33
1.71400	35
1.71767	37
1.72133	37
1.72500	38
1.72867	38
1.73233	39
1.73600	38
1.73967	34
1.74333	32
1.74700	33
1.75067	35
1.75433	38
1.75800	40
1.76167	41
1.76533	41
1.76900	42
1.77267	43
1.77633	43
1.78000	43
1.78367	42
1.78733	39
1.79100	36
1.79467	35
1.79833	35
1.80200	36
1.80567	38
1.80933	38
1.81300	37
1.81667	37
1.82033	40
1.82400	43
1.82767	46
1.83133	46
1.83500	46
1.83867	46
1.84233	45
1.84600	45
1.84967	46
1.85333	47
1.85700	47
1.86067	46
1.86433	46
1.86800	47
1.87167	49
1.87533	49
1.87900	50
1.88267	51
1.88633	51
1.89000	52
1.89367	52
1.89733	53
1.90100	54
1.90467	58
1.90833	61
1.91200	60
1.91567	59
1.91933	60
1.92300	62
1.92667	63
1.93033	64
1.93400	66
1.93767	68
1.94133	67
1.94500	68
1.94867	69
1.95233	70
1.95600	71
1.95967	69
1.96333	68
1.96700	66
1.97067	67
1.97433	69
1.97800	72
1.98167	74
1.98533	76
1.98900	76
1.99267	77
1.99633	80
2.00000	83
2.00367	84
2.00733	84
2.01100	83
2.01467	82
2.01833	83
2.02200	84
2.02567	86
2.02933	88
2.03300	90
2.03667	92
2.04033	94
2.04400	96
2.04767	98
2.05133	100
2.05500	101
2.05867	104
2.06233	107
2.06600	110
2.06967	112
2.07333	112
2.07700	112
2.08067	114
2.08433	115
2.08800	114
2.09167	115
2.09533	115
2.09900	116
2.10267	119
2.10633	120
2.11000	120
2.11367	120
2.11733	121
2.12100	122
2.12467	124
2.12833	126
2.13200	127
2.13567	128
2.13933	128
2.14300	130
2.14667	132
2.15033	134
2.15400	136
2.15767	137
2.16133	138
2.16500	140
2.16867	142
2.17233	147
2.17600	148
2.17967	149
2.18333	149
2.18700	149
2.19067	148
2.19433	149
2.19800	149
2.20167	152
2.20533	154
2.20900	157
2.21267	159
2.21633	161
2.22000	164
2.22367	165
2.22733	167
2.23100	169
2.23467	170
2.23833	171
2.24200	171
2.24567	172
2.24933	174
2.25300	177
2.25667	179
2.26033	183
2.26400	188
2.26767	190
2.27133	193
2.27500	195
2.27867	195
2.28233	195
2.28600	195
2.28967	195
2.29333	194
2.29700	196
2.30067	198
2.30433	201
2.30800	203
2.31167	203
2.31533	202
2.31900	202
2.32267	206
2.32633	211
2.33000	216
2.33367	217
2.33733	218
2.34100	220
2.34467	221
2.34833	223
2.35200	224
2.35567	228
2.35933	230
2.36300	230
2.36667	229
2.37033	228
2.37400	228
2.37767	229
2.38133	230
2.38500	231
2.38867	231
2.39233	231
2.39600	233
2.39967	236
2.40333	240
2.40700	243
2.41067	245
2.41433	247
2.41800	248
2.42167	248
2.42533	248
2.42900	248
2.43267	251
2.43633	252
2.44000	255
2.44367	310
2.44733	450
2.45100	597
2.45467	717
2.45833	783
2.46200	784
2.46567	750
2.46933	710
2.47300	679
2.47667	660
2.48033	644
2.48400	618
2.48767	576
2.49133	528
2.49500	484
2.49867	447
2.50233	421
2.50600	407
2.50967	404
2.51333	413
2.51700	429
2.52067	448
2.52433	466
2.52800	477
2.53167	476
2.53533	463
2.53900	440
2.54267	413
2.54633	381
2.55000	351
2.55367	327
2.55733	307
2.56100	291
2.56467	281
2.56833	275
2.57200	270
2.57567	266
2.57933	263
2.58300	263
2.58667	263
2.59033	264
2.59400	265
2.59767	265
2.60133	263
2.60500	260
2.60867	253
2.61233	243
2.61600	231
2.61967	217
2.62333	203
2.62700	191
2.63067	179
2.63433	167
2.63800	154
2.64167	142
2.64533	130
2.64900	118
2.65267	107
2.65633	97
2.66000	87
2.66367	77
2.66733	68
2.67100	59
2.67467	50
2.67833	43
2.68200	41
2.68567	41
2.68933	40
2.69300	42
2.69667	44
2.70033	46
2.70400	47
2.70767	51
2.71133	53
2.71500	58
2.71867	63
2.72233	68
2.72600	71
2.72967	72
2.73333	75
2.73700	81
2.74067	87
2.74433	93
2.74800	98
2.75167	103
2.75533	108
2.75900	111
2.76267	113
2.76633	115
2.77000	116
2.77367	117
2.77733	119
2.78100	124
2.78467	128
2.78833	131
2.79200	137
2.79567	141
2.79933	144
2.80300	148
2.80667	151
2.81033	156
2.81400	162
2.81767	168
2.82133	178
2.82500	195
2.82867	229
2.83233	292
2.83600	403
2.83967	583
2.84333	848
2.84700	1212
2.85067	1673
2.85433	2206
2.85800	2776
2.86167	3342
2.86533	3857
2.86900	4281
2.87267	4585
2.87633	4749
2.88000	4777
2.88367	4684
2.88733	4494
2.89100	4233
2.89467	3927
2.89833	3596
2.90200	3259
2.90567	2931
2.90933	2620
2.91300	2330
2.91667	2067
2.92033	1828
2.92400	1614
2.92767	1425
2.93133	1258
2.93500	1110
2.93867	981
2.94233	867
2.94600	767
2.94967	680
2.95333	607
2.95700	544
2.96067	491
2.96433	444
2.96800	403
2.97167	368
2.97533	335
2.97900	306
2.98267	280
2.98633	259
2.99000	242
2.99367	228
2.99733	215
3.00100	202
3.00467	190
3.00833	180
3.01200	171
3.01567	164
3.01933	161
3.02300	158
3.02667	155
3.03033	152
3.03400	148
3.03767	145
3.04133	143
3.04500	141
3.04867	140
3.05233	138
3.05600	136
3.05967	135
3.06333	134
3.06700	132
3.07067	129
3.07433	127
3.07800	127
3.08167	127
3.08533	127
3.08900	126
3.09267	127
3.09633	128
3.10000	130
3.10367	134
3.10733	135
3.11100	136
3.11467	135
3.11833	134
3.12200	132
3.12567	129
3.12933	127
3.13300	127
3.13667	128
3.14033	130
3.14400	131
3.14767	129
3.15133	129
3.15500	130
3.15867	132
3.16233	133
3.16600	134
3.16967	125
3.17333	98
3.17700	83
3.18067	93
3.18433	125
3.18800	170
3.19167	220
3.19533	270
3.19900	319
3.20267	363
3.20633	404
3.21000	443
3.21367	476
3.21733	505
3.22100	533
3.22467	558
3.22833	577
3.23200	593
3.23567	606
3.23933	616
3.24300	628
3.24667	637
3.25033	645
3.25400	656
3.25767	668
3.26133	678
3.26500	687
3.26867	697
3.27233	706
3.27600	713
3.27967	720
3.28333	727
3.28700	733
3.29067	738
3.29433	744
3.29800	749
3.30167	756
3.30533	763
3.30900	769
3.31267	774
3.31633	781
3.32000	787
3.32367	795
3.32733	803
3.33100	808
3.33467	812
3.33833	817
3.34200	823
3.34567	829
3.34933	834
3.35300	838
3.35667	839
3.36033	840
3.36400	843
3.36767	847
3.37133	847
3.37500	848
3.37867	849
3.38233	850
3.38600	853
3.38967	853
3.39333	851
3.39700	849
3.40067	848
3.40433	846
3.40800	844
3.41167	842
3.41533	839
3.41900	834
3.42267	829
3.42633	825
3.43000	823
3.43367	822
3.43733	819
3.44100	814
3.44467	811
3.44833	806
3.45200	804
3.45567	802
3.45933	801
3.46300	796
3.46667	791
3.47033	788
3.47400	785
3.47767	780
3.48133	774
3.48500	768
3.48867	763
3.49233	761
3.49600	761
3.49967	760
3.50333	759
3.50700	758
3.51067	758
3.51433	757
3.51800	754
3.52167	752
3.52533	750
3.52900	751
3.53267	753
3.53633	755
3.54000	754
3.54367	752
3.54733	751
3.55100	750
3.55467	749
3.55833	748
3.56200	748
3.56567	749
3.56933	748
3.57300	747
3.57667	749
3.58033	751
3.58400	751
3.58767	751
3.59133	750
3.59500	750
3.59867	750
3.60233	749
3.60600	748
3.60967	748
3.61333	747
3.61700	746
3.62067	745
3.62433	745
3.62800	744
3.63167	745
3.63533	747
3.63900	746
3.64267	743
3.64633	740
3.65000	737
3.65367	735
3.65733	735
3.66100	736
3.66467	737
3.66833	735
3.67200	732
3.67567	729
3.67933	726
3.68300	723
3.68667	722
3.69033	720
3.69400	719
3.69767	719
3.70133	719
3.70500	719
3.70867	716
3.71233	716
3.71600	715
3.71967	713
3.72333	711
3.72700	711
3.73067	712
3.73433	710
3.73800	708
3.74167	704
3.74533	701
3.74900	700
3.75267	699
3.75633	697
3.76000	695
3.76367	692
3.76733	690
3.77100	688
3.77467	689
3.77833	690
3.78200	689
3.78567	687
3.78933	685
3.79300	683
3.79667	679
3.80033	675
3.80400	672
3.80767	671
3.81133	671
3.81500	668
3.81867	663
3.82233	659
3.82600	656
3.82967	653
3.83333	651
3.83700	650
3.84067	648
3.84433	645
3.84800	642
3.85167	639
3.85533	638
3.85900	638
3.86267	635
3.86633	634
3.87000	633
3.87367	630
3.87733	630
3.88100	629
3.88467	626
3.88833	621
3.89200	618
3.89567	617
3.89933	616
3.90300	612
3.90667	610
3.91033	609
3.91400	609
3.91767	609
3.92133	608
3.92500	607
3.92867	606
3.93233	605
3.93600	603
3.93967	600
3.94333	600
3.94700	598
3.95067	596
3.95433	595
3.95800	593
3.96167	591
3.96533	591
3.96900	591
3.97267	589
3.97633	585
3.98000	580
3.98367	577
3.98733	576
3.99100	575
3.99467	574
3.99833	569

[Status Trace (Column Oven Temperature)]
Interval(msec)	1000
# of Points	240
Start Time(min)	0.001
End Time(min)	3.985
Intensity Units	
Intensity Multiplier	1
R.Time (min)	Intensity
0.00120	35.07
0.01787	35.06
0.03453	35.06
0.05120	35.04
0.06787	35.03
0.08453	35.02
0.10120	35.01
0.11787	35.01
0.13453	35.00
0.15120	34.99
0.16787	34.99
0.18453	35.00
0.20120	35.03
0.21787	35.02
0.23453	35.02
0.25120	35.02
0.26787	35.00
0.28453	35.00
0.30120	35.00
0.31787	34.99
0.33453	34.99
0.35120	35.00
0.36787	35.01
0.38453	35.02
0.40120	35.01
0.41787	35.01
0.43453	34.99
0.45120	34.99
0.46787	34.98
0.48453	34.99
0.50120	35.00
0.51787	35.00
0.53453	35.01
0.55120	35.01
0.56787	35.01
0.58453	35.00
0.60120	34.99
0.61787	35.00
0.63453	35.01
0.65120	35.02
0.66787	35.01
0.68453	35.01
0.70120	35.02
0.71787	35.02
0.73453	35.01
0.75120	35.00
0.76787	34.99
0.78453	35.00
0.80120	35.00
0.81787	35.01
0.83453	35.01
0.85120	35.00
0.86787	35.01
0.88453	35.01
0.90120	35.01
0.91787	35.02
0.93453	35.01
0.95120	34.99
0.96787	34.99
0.98453	35.00
1.00120	35.00
1.01787	34.99
1.03453	34.98
1.05120	34.98
1.06787	34.98
1.08453	34.97
1.10120	34.97
1.11787	34.97
1.13453	34.98
1.15120	35.00
1.16787	35.01
1.18453	35.01
1.20120	35.02
1.21787	35.02
1.23453	35.02
1.25120	35.00
1.26787	34.99
1.28453	34.97
1.30120	34.98
1.31787	34.99
1.33453	34.99
1.35120	34.99
1.36787	34.98
1.38453	34.99
1.40120	34.97
1.41787	34.97
1.43453	34.97
1.45120	34.97
1.46787	34.97
1.48453	34.97
1.50120	34.98
1.51787	34.99
1.53453	35.00
1.55120	34.99
1.56787	34.98
1.58453	34.98
1.60120	35.02
1.61787	35.12
1.63453	35.29
1.65120	35.51
1.66787	35.81
1.68453	36.19
1.70120	36.56
1.71787	36.89
1.73453	37.21
1.75120	37.53
1.76787	37.87
1.78453	38.20
1.80120	38.54
1.81787	38.86
1.83453	39.21
1.85120	39.54
1.86787	39.87
1.88453	40.17
1.90120	40.52
1.91787	40.85
1.93453	41.17
1.95120	41.49
1.96787	41.81
1.98453	42.15
2.00120	42.46
2.01787	42.79
2.03453	43.13
2.05120	43.45
2.06787	43.78
2.08453	44.09
2.10120	44.42
2.11787	44.77
2.13453	45.09
2.15120	45.38
2.16787	45.72
2.18453	46.04
2.20120	46.37
2.21787	46.72
2.23453	47.04
2.25120	47.36
2.26787	47.71
2.28453	48.01
2.30120	48.37
2.31787	48.71
2.33453	49.02
2.35120	49.31
2.36787	49.58
2.38453	49.72
2.40120	49.75
2.41787	49.75
2.43453	49.76
2.45120	49.75
2.46787	49.77
2.48453	49.77
2.50120	49.77
2.51787	49.79
2.53453	49.79
2.55120	49.81
2.56787	49.81
2.58453	49.81
2.60120	49.81
2.61787	49.82
2.63453	49.83
2.65120	49.84
2.66787	49.84
2.68453	49.86
2.70120	49.85
2.71787	49.85
2.73453	49.86
2.75120	49.87
2.76787	49.88
2.78453	49.86
2.80120	49.85
2.81787	49.85
2.83453	49.88
2.85120	49.91
2.86787	49.93
2.88453	49.95
2.90120	49.98
2.91787	49.98
2.93453	49.99
2.95120	49.99
2.96787	49.98
2.98453	49.98
3.00120	49.98
3.01787	49.98
3.03453	49.98
3.05120	50.00
3.06787	50.02
3.08453	50.03
3.10120	50.04
3.11787	50.04
3.13453	50.04
3.15120	50.04
3.16787	50.05
3.18453	50.06
3.20120	50.08
3.21787	50.09
3.23453	50.11
3.25120	50.11
3.26787	50.10
3.28453	50.09
3.30120	50.07
3.31787	50.05
3.33453	50.05
3.35120	50.03
3.36787	50.03
3.38453	50.03
3.40120	50.03
3.41787	50.04
3.43453	50.05
3.45120	50.06
3.46787	50.06
3.48453	50.05
3.50120	50.06
3.51787	50.06
3.53453	50.07
3.55120	50.08
3.56787	50.07
3.58453	50.08
3.60120	50.08
3.61787	50.09
3.63453	50.09
3.65120	50.08
3.66787	50.07
3.68453	50.06
3.70120	50.05
3.71787	50.05
3.73453	50.05
3.75120	50.06
3.76787	50.06
3.78453	50.07
3.80120	50.08
3.81787	50.06
3.83453	50.06
3.85120	50.06
3.86787	50.06
3.88453	50.05
3.90120	50.05
3.91787	50.04
3.93453	50.04
3.95120	50.06
3.96787	50.06
3.98453	50.06

[Status Trace (Injection Unit Temperature)]
Interval(msec)	1000
# of Points	240
Start Time(min)	0.001
End Time(min)	3.985
Intensity Units	
Intensity Multiplier	1
R.Time (min)	Intensity
0.00120	99.98
0.01787	99.98
0.03453	99.98
0.05120	99.98
0.06787	99.98
0.08453	99.98
0.10120	99.98
0.11787	99.97
0.13453	99.98
0.15120	99.97
0.16787	99.98
0.18453	99.98
0.20120	99.98
0.21787	99.98
0.23453	99.98
0.25120	99.97
0.26787	99.98
0.28453	99.98
0.30120	99.98
0.31787	99.98
0.33453	99.98
0.35120	99.98
0.36787	99.98
0.38453	99.98
0.40120	99.97
0.41787	99.98
0.43453	99.98
0.45120	99.98
0.46787	99.98
0.48453	99.98
0.50120	99.97
0.51787	99.98
0.53453	99.98
0.55120	99.98
0.56787	99.98
0.58453	99.98
0.60120	99.98
0.61787	99.98
0.63453	99.98
0.65120	99.98
0.66787	99.97
0.68453	99.98
0.70120	99.98
0.71787	99.98
0.73453	99.98
0.75120	99.97
0.76787	99.98
0.78453	99.98
0.80120	99.98
0.81787	99.98
0.83453	99.98
0.85120	99.98
0.86787	99.98
0.88453	99.99
0.90120	99.98
0.91787	99.98
0.93453	99.98
0.95120	99.98
0.96787	99.98
0.98453	99.98
1.00120	99.98
1.01787	99.99
1.03453	99.99
1.05120	99.98
1.06787	99.98
1.08453	99.98
1.10120	99.98
1.11787	99.99
1.13453	99.99
1.15120	99.98
1.16787	99.99
1.18453	99.99
1.20120	99.98
1.21787	99.98
1.23453	99.99
1.25120	99.99
1.26787	99.98
1.28453	99.99
1.30120	99.98
1.31787	99.99
1.33453	99.98
1.35120	99.98
1.36787	99.99
1.38453	99.99
1.40120	99.98
1.41787	99.98
1.43453	99.98
1.45120	99.98
1.46787	99.99
1.48453	99.98
1.50120	99.99
1.51787	99.98
1.53453	99.98
1.55120	99.99
1.56787	99.99
1.58453	99.99
1.60120	99.98
1.61787	99.98
1.63453	99.98
1.65120	99.98
1.66787	99.98
1.68453	99.98
1.70120	99.98
1.71787	99.99
1.73453	99.98
1.75120	99.98
1.76787	99.98
1.78453	99.98
1.80120	99.98
1.81787	99.98
1.83453	99.98
1.85120	99.98
1.86787	99.98
1.88453	99.98
1.90120	99.97
1.91787	99.98
1.93453	99.97
1.95120	99.97
1.96787	99.98
1.98453	99.97
2.00120	99.97
2.01787	99.97
2.03453	99.97
2.05120	99.97
2.06787	99.97
2.08453	99.97
2.10120	99.97
2.11787	99.97
2.13453	99.97
2.15120	99.96
2.16787	99.97
2.18453	99.97
2.20120	99.96
2.21787	99.96
2.23453	99.96
2.25120	99.96
2.26787	99.96
2.28453	99.96
2.30120	99.97
2.31787	99.96
2.33453	99.96
2.35120	99.96
2.36787	99.96
2.38453	99.97
2.40120	99.96
2.41787	99.97
2.43453	99.97
2.45120	99.97
2.46787	99.97
2.48453	99.97
2.50120	99.97
2.51787	99.97
2.53453	99.97
2.55120	99.97
2.56787	99.97
2.58453	99.98
2.60120	99.98
2.61787	99.98
2.63453	99.98
2.65120	99.98
2.66787	99.98
2.68453	99.98
2.70120	99.99
2.71787	99.99
2.73453	99.99
2.75120	100.00
2.76787	99.99
2.78453	99.99
2.80120	99.99
2.81787	100.00
2.83453	100.00
2.85120	100.00
2.86787	100.00
2.88453	100.00
2.90120	100.00
2.91787	100.00
2.93453	100.01
2.95120	100.01
2.96787	100.01
2.98453	100.01
3.00120	100.00
3.01787	100.01
3.03453	100.01
3.05120	100.02
3.06787	100.01
3.08453	100.02
3.10120	100.02
3.11787	100.02
3.13453	100.02
3.15120	100.02
3.16787	100.02
3.18453	100.03
3.20120	100.02
3.21787	100.02
3.23453	100.02
3.25120	100.02
3.26787	100.03
3.28453	100.03
3.30120	100.02
3.31787	100.03
3.33453	100.03
3.35120	100.03
3.36787	100.03
3.38453	100.03
3.40120	100.03
3.41787	100.04
3.43453	100.04
3.45120	100.04
3.46787	100.03
3.48453	100.04
3.50120	100.04
3.51787	100.04
3.53453	100.03
3.55120	100.03
3.56787	100.04
3.58453	100.04
3.60120	100.04
3.61787	100.04
3.63453	100.04
3.65120	100.04
3.66787	100.04
3.68453	100.04
3.70120	100.04
3.71787	100.04
3.73453	100.04
3.75120	100.04
3.76787	100.04
3.78453	100.04
3.80120	100.05
3.81787	100.05
3.83453	100.05
3.85120	100.04
3.86787	100.05
3.88453	100.05
3.90120	100.05
3.91787	100.04
3.93453	100.04
3.95120	100.04
3.96787	100.05
3.98453	100.05

[Status Trace (Carrier Gas Pressure)]
Interval(msec)	1000
# of Points	240
Start Time(min)	0.001
End Time(min)	3.985
Intensity Units	
Intensity Multiplier	1
R.Time (min)	Intensity
0.00120	58.00
0.01787	56.59
0.03453	56.14
0.05120	58.45
0.06787	59.90
0.08453	58.37
0.10120	57.97
0.11787	58.00
0.13453	58.01
0.15120	58.01
0.16787	58.00
0.18453	58.00
0.20120	58.00
0.21787	58.00
0.23453	58.00
0.25120	58.00
0.26787	58.00
0.28453	58.00
0.30120	58.00
0.31787	58.00
0.33453	58.00
0.35120	58.00
0.36787	58.00
0.38453	58.00
0.40120	58.00
0.41787	58.00
0.43453	58.00
0.45120	58.00
0.46787	58.00
0.48453	58.00
0.50120	58.00
0.51787	58.00
0.53453	58.00
0.55120	58.00
0.56787	58.00
0.58453	58.00
0.60120	58.00
0.61787	58.00
0.63453	58.00
0.65120	58.00
0.66787	58.00
0.68453	58.00
0.70120	58.00
0.71787	58.00
0.73453	58.00
0.75120	58.00
0.76787	58.00
0.78453	58.00
0.80120	58.00
0.81787	58.00
0.83453	58.00
0.85120	58.00
0.86787	58.00
0.88453	58.00
0.90120	58.00
0.91787	58.00
0.93453	58.00
0.95120	58.00
0.96787	58.00
0.98453	58.00
1.00120	58.00
1.01787	58.00
1.03453	58.00
1.05120	58.00
1.06787	58.00
1.08453	58.00
1.10120	58.00
1.11787	58.00
1.13453	58.00
1.15120	58.00
1.16787	58.00
1.18453	58.00
1.20120	58.00
1.21787	58.00
1.23453	58.00
1.25120	58.00
1.26787	58.00
1.28453	58.00
1.30120	58.00
1.31787	58.00
1.33453	58.00
1.35120	58.00
1.36787	58.00
1.38453	58.00
1.40120	58.00
1.41787	58.00
1.43453	58.00
1.45120	58.00
1.46787	58.00
1.48453	58.00
1.50120	58.00
1.51787	58.00
1.53453	58.00
1.55120	58.00
1.56787	58.00
1.58453	58.00
1.60120	58.00
1.61787	58.00
1.63453	58.00
1.65120	58.01
1.66787	58.00
1.68453	58.01
1.70120	58.00
1.71787	58.00
1.73453	58.00
1.75120	58.00
1.76787	58.00
1.78453	58.00
1.80120	58.00
1.81787	58.00
1.83453	58.00
1.85120	58.00
1.86787	58.00
1.88453	58.00
1.90120	58.00
1.91787	58.00
1.93453	58.00
1.95120	58.00
1.96787	58.00
1.98453	58.00
2.00120	58.00
2.01787	58.00
2.03453	58.00
2.05120	58.00
2.06787	58.00
2.08453	58.00
2.10120	58.00
2.11787	58.00
2.13453	58.00
2.15120	58.00
2.16787	58.00
2.18453	58.00
2.20120	58.00
2.21787	58.00
2.23453	58.00
2.25120	58.00
2.26787	58.00
2.28453	58.00
2.30120	58.00
2.31787	58.00
2.33453	58.00
2.35120	58.00
2.36787	58.00
2.38453	57.99
2.40120	57.99
2.41787	58.00
2.43453	58.00
2.45120	58.00
2.46787	58.00
2.48453	58.00
2.50120	58.00
2.51787	57.99
2.53453	57.99
2.55120	58.00
2.56787	58.00
2.58453	58.00
2.60120	58.00
2.61787	58.00
2.63453	58.00
2.65120	58.00
2.66787	58.00
2.68453	58.00
2.70120	58.00
2.71787	58.00
2.73453	58.00
2.75120	58.00
2.76787	58.00
2.78453	58.00
2.80120	58.00
2.81787	58.00
2.83453	58.00
2.85120	58.00
2.86787	58.00
2.88453	58.00
2.90120	58.00
2.91787	58.00
2.93453	58.00
2.95120	58.00
2.96787	58.00
2.98453	58.00
3.00120	58.00
3.01787	58.00
3.03453	58.00
3.05120	58.00
3.06787	58.00
3.08453	58.00
3.10120	58.00
3.11787	58.00
3.13453	58.00
3.15120	58.00
3.16787	58.00
3.18453	58.00
3.20120	58.00
3.21787	58.00
3.23453	58.00
3.25120	58.00
3.26787	58.00
3.28453	58.00
3.30120	58.00
3.31787	58.00
3.33453	58.00
3.35120	58.00
3.36787	58.00
3.38453	58.00
3.40120	58.00
3.41787	58.00
3.43453	58.00
3.45120	58.00
3.46787	58.00
3.48453	58.00
3.50120	58.00
3.51787	58.00
3.53453	58.00
3.55120	58.00
3.56787	58.00
3.58453	58.00
3.60120	58.00
3.61787	58.00
3.63453	58.00
3.65120	58.00
3.66787	58.00
3.68453	58.00
3.70120	58.00
3.71787	58.00
3.73453	58.00
3.75120	58.00
3.76787	58.00
3.78453	58.00
3.80120	58.00
3.81787	58.00
3.83453	58.00
3.85120	58.00
3.86787	58.00
3.88453	58.00
3.90120	58.00
3.91787	58.00
3.93453	58.00
3.95120	58.00
3.96787	58.00
3.98453	58.00

[Status Trace (Carrier Gas Flow)]
Interval(msec)	1000
# of Points	240
Start Time(min)	0.001
End Time(min)	3.985
Intensity Units	
Intensity Multiplier	1
R.Time (min)	Intensity
0.00120	34.52
0.01787	33.98
0.03453	34.55
0.05120	34.55
0.06787	34.50
0.08453	34.51
0.10120	34.52
0.11787	34.51
0.13453	34.52
0.15120	34.52
0.16787	34.52
0.18453	34.52
0.20120	34.52
0.21787	34.52
0.23453	34.52
0.25120	34.52
0.26787	34.52
0.28453	34.52
0.30120	34.52
0.31787	34.52
0.33453	34.51
0.35120	34.52
0.36787	34.52
0.38453	34.52
0.40120	34.52
0.41787	34.52
0.43453	34.52
0.45120	34.52
0.46787	34.52
0.48453	34.52
0.50120	34.52
0.51787	34.52
0.53453	34.52
0.55120	34.52
0.56787	34.52
0.58453	34.52
0.60120	34.52
0.61787	34.52
0.63453	34.52
0.65120	34.52
0.66787	34.52
0.68453	34.52
0.70120	34.52
0.71787	34.52
0.73453	34.52
0.75120	34.51
0.76787	34.52
0.78453	34.52
0.80120	34.52
0.81787	34.52
0.83453	34.52
0.85120	34.52
0.86787	34.52
0.88453	34.52
0.90120	34.51
0.91787	34.52
0.93453	34.52
0.95120	34.52
0.96787	34.52
0.98453	34.52
1.00120	34.52
1.01787	34.52
1.03453	34.52
1.05120	34.52
1.06787	34.52
1.08453	34.52
1.10120	34.51
1.11787	34.52
1.13453	34.52
1.15120	34.52
1.16787	34.52
1.18453	34.52
1.20120	34.52
1.21787	34.52
1.23453	34.52
1.25120	34.52
1.26787	34.52
1.28453	34.52
1.30120	34.52
1.31787	34.52
1.33453	34.52
1.35120	34.52
1.36787	34.52
1.38453	34.52
1.40120	34.52
1.41787	34.52
1.43453	34.52
1.45120	34.52
1.46787	34.52
1.48453	34.52
1.50120	34.52
1.51787	34.52
1.53453	34.52
1.55120	34.51
1.56787	34.52
1.58453	34.52
1.60120	34.52
1.61787	34.52
1.63453	34.52
1.65120	34.52
1.66787	34.52
1.68453	34.52
1.70120	34.52
1.71787	34.52
1.73453	34.52
1.75120	34.52
1.76787	34.52
1.78453	34.52
1.80120	34.52
1.81787	34.52
1.83453	34.52
1.85120	34.52
1.86787	34.52
1.88453	34.52
1.90120	34.52
1.91787	34.52
1.93453	34.52
1.95120	34.52
1.96787	34.52
1.98453	34.52
2.00120	34.52
2.01787	34.52
2.03453	34.51
2.05120	34.52
2.06787	34.52
2.08453	34.51
2.10120	34.51
2.11787	34.52
2.13453	34.52
2.15120	34.52
2.16787	34.52
2.18453	34.52
2.20120	34.52
2.21787	34.51
2.23453	34.52
2.25120	34.52
2.26787	34.52
2.28453	34.51
2.30120	34.52
2.31787	34.51
2.33453	34.51
2.35120	34.52
2.36787	34.52
2.38453	34.55
2.40120	34.52
2.41787	34.52
2.43453	34.52
2.45120	34.51
2.46787	34.52
2.48453	34.52
2.50120	34.52
2.51787	34.52
2.53453	34.52
2.55120	34.51
2.56787	34.52
2.58453	34.52
2.60120	34.52
2.61787	34.52
2.63453	34.52
2.65120	34.53
2.66787	34.52
2.68453	34.52
2.70120	34.52
2.71787	34.52
2.73453	34.52
2.75120	34.52
2.76787	34.52
2.78453	34.52
2.80120	34.52
2.81787	34.52
2.83453	34.52
2.85120	34.52
2.86787	34.52
2.88453	34.51
2.90120	34.52
2.91787	34.52
2.93453	34.52
2.95120	34.52
2.96787	34.52
2.98453	34.52
3.00120	34.52
3.01787	34.52
3.03453	34.52
3.05120	34.52
3.06787	34.52
3.08453	34.52
3.10120	34.52
3.11787	34.52
3.13453	34.52
3.15120	34.52
3.16787	34.51
3.18453	34.52
3.20120	34.53
3.21787	34.52
3.23453	34.52
3.25120	34.51
3.26787	34.53
3.28453	34.52
3.30120	34.52
3.31787	34.52
3.33453	34.52
3.35120	34.52
3.36787	34.52
3.38453	34.52
3.40120	34.52
3.41787	34.52
3.43453	34.52
3.45120	34.52
3.46787	34.52
3.48453	34.52
3.50120	34.52
3.51787	34.52
3.53453	34.52
3.55120	34.52
3.56787	34.52
3.58453	34.52
3.60120	34.52
3.61787	34.52
3.63453	34.52
3.65120	34.52
3.66787	34.52
3.68453	34.52
3.70120	34.52
3.71787	34.52
3.73453	34.52
3.75120	34.52
3.76787	34.52
3.78453	34.52
3.80120	34.52
3.81787	34.51
3.83453	34.51
3.85120	34.52
3.86787	34.52
3.88453	34.52
3.90120	34.52
3.91787	34.52
3.93453	34.52
3.95120	34.52
3.96787	34.52
3.98453	34.51

[Status Trace (Column Flow)]
Interval(msec)	1000
# of Points	240
Start Time(min)	0.001
End Time(min)	3.985
Intensity Units	
Intensity Multiplier	1
R.Time (min)	Intensity
0.00120	5.55
0.01787	5.39
0.03453	5.33
0.05120	5.60
0.06787	5.78
0.08453	5.60
0.10120	5.55
0.11787	5.55
0.13453	5.55
0.15120	5.55
0.16787	5.55
0.18453	5.55
0.20120	5.55
0.21787	5.55
0.23453	5.55
0.25120	5.55
0.26787	5.55
0.28453	5.55
0.30120	5.55
0.31787	5.55
0.33453	5.55
0.35120	5.55
0.36787	5.55
0.38453	5.55
0.40120	5.55
0.41787	5.55
0.43453	5.55
0.45120	5.55
0.46787	5.55
0.48453	5.55
0.50120	5.55
0.51787	5.55
0.53453	5.55
0.55120	5.55
0.56787	5.55
0.58453	5.55
0.60120	5.55
0.61787	5.55
0.63453	5.55
0.65120	5.55
0.66787	5.55
0.68453	5.55
0.70120	5.55
0.71787	5.55
0.73453	5.55
0.75120	5.55
0.76787	5.55
0.78453	5.55
0.80120	5.55
0.81787	5.55
0.83453	5.55
0.85120	5.55
0.86787	5.55
0.88453	5.55
0.90120	5.55
0.91787	5.55
0.93453	5.55
0.95120	5.55
0.96787	5.55
0.98453	5.55
1.00120	5.55
1.01787	5.55
1.03453	5.55
1.05120	5.55
1.06787	5.55
1.08453	5.55
1.10120	5.55
1.11787	5.55
1.13453	5.55
1.15120	5.55
1.16787	5.55
1.18453	5.55
1.20120	5.55
1.21787	5.55
1.23453	5.55
1.25120	5.55
1.26787	5.55
1.28453	5.55
1.30120	5.55
1.31787	5.55
1.33453	5.55
1.35120	5.55
1.36787	5.55
1.38453	5.55
1.40120	5.55
1.41787	5.55
1.43453	5.55
1.45120	5.55
1.46787	5.55
1.48453	5.55
1.50120	5.55
1.51787	5.55
1.53453	5.55
1.55120	5.55
1.56787	5.55
1.58453	5.55
1.60120	5.55
1.61787	5.55
1.63453	5.54
1.65120	5.54
1.66787	5.53
1.68453	5.52
1.70120	5.50
1.71787	5.49
1.73453	5.48
1.75120	5.47
1.76787	5.46
1.78453	5.45
1.80120	5.44
1.81787	5.43
1.83453	5.42
1.85120	5.41
1.86787	5.40
1.88453	5.39
1.90120	5.38
1.91787	5.37
1.93453	5.36
1.95120	5.35
1.96787	5.34
1.98453	5.33
2.00120	5.32
2.01787	5.31
2.03453	5.30
2.05120	5.29
2.06787	5.28
2.08453	5.28
2.10120	5.27
2.11787	5.26
2.13453	5.25
2.15120	5.24
2.16787	5.23
2.18453	5.22
2.20120	5.21
2.21787	5.20
2.23453	5.19
2.25120	5.18
2.26787	5.17
2.28453	5.16
2.30120	5.15
2.31787	5.14
2.33453	5.13
2.35120	5.13
2.36787	5.12
2.38453	5.11
2.40120	5.11
2.41787	5.11
2.43453	5.11
2.45120	5.11
2.46787	5.11
2.48453	5.11
2.50120	5.11
2.51787	5.11
2.53453	5.11
2.55120	5.11
2.56787	5.11
2.58453	5.11
2.60120	5.11
2.61787	5.11
2.63453	5.11
2.65120	5.11
2.66787	5.11
2.68453	5.11
2.70120	5.11
2.71787	5.11
2.73453	5.11
2.75120	5.11
2.76787	5.11
2.78453	5.11
2.80120	5.11
2.81787	5.11
2.83453	5.11
2.85120	5.11
2.86787	5.11
2.88453	5.11
2.90120	5.11
2.91787	5.11
2.93453	5.11
2.95120	5.11
2.96787	5.11
2.98453	5.11
3.00120	5.11
3.01787	5.11
3.03453	5.11
3.05120	5.11
3.06787	5.11
3.08453	5.11
3.10120	5.11
3.11787	5.11
3.13453	5.11
3.15120	5.11
3.16787	5.11
3.18453	5.11
3.20120	5.10
3.21787	5.10
3.23453	5.10
3.25120	5.10
3.26787	5.10
3.28453	5.10
3.30120	5.10
3.31787	5.11
3.33453	5.11
3.35120	5.11
3.36787	5.11
3.38453	5.11
3.40120	5.11
3.41787	5.11
3.43453	5.11
3.45120	5.11
3.46787	5.11
3.48453	5.11
3.50120	5.11
3.51787	5.11
3.53453	5.10
3.55120	5.10
3.56787	5.10
3.58453	5.10
3.60120	5.10
3.61787	5.10
3.63453	5.10
3.65120	5.10
3.66787	5.10
3.68453	5.11
3.70120	5.11
3.71787	5.11
3.73453	5.10
3.75120	5.10
3.76787	5.10
3.78453	5.10
3.80120	5.10
3.81787	5.10
3.83453	5.11
3.85120	5.11
3.86787	5.11
3.88453	5.11
3.90120	5.11
3.91787	5.11
3.93453	5.11
3.95120	5.11
3.96787	5.11
3.98453	5.11

[Status Trace (Linear Velocity)]
Interval(msec)	1000
# of Points	240
Start Time(min)	0.001
End Time(min)	3.985
Intensity Units	
Intensity Multiplier	1
R.Time (min)	Intensity
0.00120	39.02
0.01787	38.09
0.03453	37.79
0.05120	39.32
0.06787	40.26
0.08453	39.27
0.10120	39.00
0.11787	39.02
0.13453	39.03
0.15120	39.03
0.16787	39.03
0.18453	39.03
0.20120	39.02
0.21787	39.02
0.23453	39.02
0.25120	39.02
0.26787	39.02
0.28453	39.02
0.30120	39.02
0.31787	39.03
0.33453	39.03
0.35120	39.02
0.36787	39.02
0.38453	39.02
0.40120	39.02
0.41787	39.02
0.43453	39.02
0.45120	39.03
0.46787	39.03
0.48453	39.03
0.50120	39.02
0.51787	39.02
0.53453	39.02
0.55120	39.02
0.56787	39.02
0.58453	39.02
0.60120	39.02
0.61787	39.02
0.63453	39.02
0.65120	39.02
0.66787	39.02
0.68453	39.02
0.70120	39.02
0.71787	39.02
0.73453	39.02
0.75120	39.02
0.76787	39.02
0.78453	39.02
0.80120	39.02
0.81787	39.02
0.83453	39.02
0.85120	39.02
0.86787	39.02
0.88453	39.02
0.90120	39.02
0.91787	39.02
0.93453	39.02
0.95120	39.02
0.96787	39.02
0.98453	39.02
1.00120	39.02
1.01787	39.02
1.03453	39.03
1.05120	39.03
1.06787	39.03
1.08453	39.03
1.10120	39.03
1.11787	39.03
1.13453	39.03
1.15120	39.02
1.16787	39.02
1.18453	39.02
1.20120	39.02
1.21787	39.02
1.23453	39.02
1.25120	39.02
1.26787	39.02
1.28453	39.03
1.30120	39.03
1.31787	39.02
1.33453	39.02
1.35120	39.03
1.36787	39.03
1.38453	39.02
1.40120	39.03
1.41787	39.03
1.43453	39.03
1.45120	39.03
1.46787	39.03
1.48453	39.03
1.50120	39.03
1.51787	39.02
1.53453	39.02
1.55120	39.02
1.56787	39.03
1.58453	39.03
1.60120	39.02
1.61787	39.01
1.63453	39.00
1.65120	38.98
1.66787	38.95
1.68453	38.91
1.70120	38.88
1.71787	38.84
1.73453	38.81
1.75120	38.78
1.76787	38.75
1.78453	38.72
1.80120	38.69
1.81787	38.66
1.83453	38.62
1.85120	38.59
1.86787	38.56
1.88453	38.53
1.90120	38.50
1.91787	38.47
1.93453	38.44
1.95120	38.41
1.96787	38.38
1.98453	38.35
2.00120	38.32
2.01787	38.29
2.03453	38.26
2.05120	38.23
2.06787	38.20
2.08453	38.17
2.10120	38.14
2.11787	38.11
2.13453	38.08
2.15120	38.05
2.16787	38.02
2.18453	37.99
2.20120	37.96
2.21787	37.93
2.23453	37.90
2.25120	37.87
2.26787	37.84
2.28453	37.82
2.30120	37.79
2.31787	37.75
2.33453	37.73
2.35120	37.70
2.36787	37.68
2.38453	37.66
2.40120	37.66
2.41787	37.66
2.43453	37.66
2.45120	37.66
2.46787	37.66
2.48453	37.66
2.50120	37.66
2.51787	37.65
2.53453	37.65
2.55120	37.66
2.56787	37.66
2.58453	37.66
2.60120	37.66
2.61787	37.66
2.63453	37.65
2.65120	37.65
2.66787	37.65
2.68453	37.65
2.70120	37.65
2.71787	37.65
2.73453	37.65
2.75120	37.65
2.76787	37.65
2.78453	37.65
2.80120	37.65
2.81787	37.65
2.83453	37.65
2.85120	37.65
2.86787	37.65
2.88453	37.64
2.90120	37.64
2.91787	37.64
2.93453	37.64
2.95120	37.64
2.96787	37.64
2.98453	37.64
3.00120	37.64
3.01787	37.64
3.03453	37.64
3.05120	37.64
3.06787	37.64
3.08453	37.64
3.10120	37.64
3.11787	37.64
3.13453	37.64
3.15120	37.64
3.16787	37.64
3.18453	37.63
3.20120	37.63
3.21787	37.63
3.23453	37.63
3.25120	37.63
3.26787	37.63
3.28453	37.63
3.30120	37.63
3.31787	37.63
3.33453	37.64
3.35120	37.64
3.36787	37.64
3.38453	37.64
3.40120	37.64
3.41787	37.64
3.43453	37.64
3.45120	37.63
3.46787	37.63
3.48453	37.63
3.50120	37.63
3.51787	37.63
3.53453	37.63
3.55120	37.63
3.56787	37.63
3.58453	37.63
3.60120	37.63
3.61787	37.63
3.63453	37.63
3.65120	37.63
3.66787	37.63
3.68453	37.63
3.70120	37.64
3.71787	37.63
3.73453	37.63
3.75120	37.63
3.76787	37.63
3.78453	37.63
3.80120	37.63
3.81787	37.63
3.83453	37.63
3.85120	37.63
3.86787	37.63
3.88453	37.63
3.90120	37.64
3.91787	37.64
3.93453	37.64
3.95120	37.63
3.96787	37.63
3.98453	37.63

