[Header]
Application Name	LabSolutions
Version	5.110
Data File Name	C:\Users\User\Desktop\GC Analyses\Jack\Nachusa Grasslands Sampling\T4 Timepoint July 12th\T4_07122022_051.gcd
Output Date	3/17/2023
Output Time	12:04:54 PM

[File Information]
Type	Data File
Generated	3/14/2023 9:03:36 PM
Generated by	System Administrator
Modified	3/14/2023 9:10:27 PM
Modified by	System Administrator

[Sample Information]
Operator Name	System Administrator
Acquired	3/14/2023 9:06:26 PM
Sample Type	0:Unknown
Level	0
Sample Name	051
Sample ID	051
ISTD Amount1	1
ISTD Amount2	1
ISTD Amount3	1
ISTD Amount4	1
ISTD Amount5	1
ISTD Amount6	1
ISTD Amount7	1
ISTD Amount8	1
ISTD Amount9	1
ISTD Amount10	1
ISTD Amount11	1
ISTD Amount12	1
ISTD Amount13	1
ISTD Amount14	1
ISTD Amount15	1
ISTD Amount16	1
ISTD Amount17	1
ISTD Amount18	1
ISTD Amount19	1
ISTD Amount20	1
ISTD Amount21	1
ISTD Amount22	1
ISTD Amount23	1
ISTD Amount24	1
ISTD Amount25	1
ISTD Amount26	1
ISTD Amount27	1
ISTD Amount28	1
ISTD Amount29	1
ISTD Amount30	1
ISTD Amount31	1
ISTD Amount32	1
Sample Amount	1
Dilution Factor	1
Vial#	50
Injection Volume	1
Injection Count	1
Bar Code	

[Original Files]
Data File	C:\Users\User\Desktop\GC Analyses\Jack\Nachusa Grasslands Sampling\T4 Timepoint July 12th\T4_07122022_051.gcd
Method File	C:\LabSolutions\Data\GHG_4min_2022\ghg3_togas_w_acet_4 min_new_int.gcm
Batch File	C:\LabSolutions\Data\AutoSamplerTesting\T4_07122022.gcb
Report Format File	c:\LabSolutions\System\DEFAULT.lsr

[File Description]


[Configuration]
Instrument Name	C0B7VH3-Instrument1
Instrument #	1
Line #	1
# of Detectors	3
Detector ID	DET#1	DET#2	DET#3
Detector Name	FID	PTCD	ECD
# of Channels	1	1	1

[Peak Table(Ch1)]
# of Peaks	3
Peak#	R.Time	I.Time	F.Time	Area	Height	A/H	Conc.	Mark	ID#	Name	k'	Plate #	Plate Ht.	Tailing	Resolution	Sep.Factor	Area Ratio	Height Ratio	Conc. %	Norm Conc.
1	1.476	1.439	1.538	34131	16842	2.027	240.963	   	1	CO	0.000	9700	15.464	1.294	0.000	0.000	0	0	18.686	18.686
2	1.571	1.538	1.626	4306	2180	1.975	83.263	 V 	2	CH4	0.065	11499	13.044	1.088	1.609	0.000	0	0	6.457	6.457
3	1.996	1.949	2.418	3846225	1848426	2.081	965.298	   	3	CO2	0.353	17231	8.705	1.305	7.123	5.462	0	0	74.857	74.857

[Peak Table(Ch2)]
# of Peaks	0

[Peak Table(Ch3)]
# of Peaks	5
Peak#	R.Time	I.Time	F.Time	Area	Height	A/H	Conc.	Mark	ID#	Name	k'	Plate #	Plate Ht.	Tailing	Resolution	Sep.Factor	Area Ratio	Height Ratio	Conc. %	Norm Conc.
1	2.462	2.330	2.510	2182	690	3.161	0.000	   			0.000	10181	14.733	0.000	0.000	0.000	0	0	0.000	0.000
2	2.532	2.510	2.579	1184	389	3.042	0.000	 V 			0.028	5631	26.638	0.000	0.599	0.000	0	0	0.000	0.000
3	2.601	2.579	2.678	693	189	3.664	0.000	 V 			0.057	1057	141.896	0.000	0.306	2.000	0	0	0.000	0.000
4	2.880	2.708	3.071	19271	4767	4.042	0.492	   	1	N2O	0.170	12839	11.683	1.540	1.322	3.000	0	0	100.000	100.000
5	3.283	3.078	3.995	20133	633	31.818	0.000	   	2	SF6	0.334	193	776.011	2.155	0.771	1.965	0	0	0.000	0.000

[Compound Results(Ch1)]
# of IDs	6
ID#	Name	R.Time	Area	Height	Conc.	Curve	3rd	2nd	1st	Constant	Area Ratio	Height Ratio	Conc. %	Norm Conc.
1	CO	1.476	34131	16842	240.963	Linear	0.000000e+00	0.000000e+00	1.416423e+002	0.000000e+00	0	0	18.686	18.686
2	CH4	1.571	4306	2180	83.263	Linear	0.000000e+00	0.000000e+00	5.171738e+001	0.000000e+00	0	0	6.457	6.457
3	CO2	1.996	3846225	1848426	965.298	Linear	0.000000e+00	0.000000e+00	3.984494e+003	0.000000e+00	0	0	74.857	74.857
4	Ethylene	0.000	0	0	0.000	Linear	0.000000e+00	0.000000e+00	0.000000e+00	0.000000e+00	0	0	0.000	0.000
5	Acetylene	0.000	0	0	0.000	Linear	0.000000e+00	0.000000e+00	0.000000e+00	0.000000e+00	0	0	0.000	0.000
6	Ethane	0.000	0	0	0.000	Linear	0.000000e+00	0.000000e+00	0.000000e+00	0.000000e+00	0	0	0.000	0.000

[Compound Results(Ch2)]
# of IDs	5
ID#	Name	R.Time	Area	Height	Conc.	Curve	3rd	2nd	1st	Constant	Area Ratio	Height Ratio	Conc. %	Norm Conc.
1	Hydrogen	0.000	0	0	0.000	Linear	0.000000e+00	0.000000e+00	0.000000e+00	0.000000e+00	0	0	0.000	0.000
2	Oxygen	0.000	0	0	0.000	Linear	0.000000e+00	0.000000e+00	0.000000e+00	0.000000e+00	0	0	0.000	0.000
3	Nitrogen	0.000	0	0	0.000	Linear	0.000000e+00	0.000000e+00	0.000000e+00	0.000000e+00	0	0	0.000	0.000
4	Methane	0.000	0	0	0.000	Linear	0.000000e+00	0.000000e+00	0.000000e+00	0.000000e+00	0	0	0.000	0.000
5	Carbon Monoxide	0.000	0	0	0.000	Linear	0.000000e+00	0.000000e+00	0.000000e+00	0.000000e+00	0	0	0.000	0.000

[Compound Results(Ch3)]
# of IDs	2
ID#	Name	R.Time	Area	Height	Conc.	Curve	3rd	2nd	1st	Constant	Area Ratio	Height Ratio	Conc. %	Norm Conc.
1	N2O	2.880	19271	4767	0.492	Linear	0.000000e+00	0.000000e+00	3.915173e+004	0.000000e+00	0	0	100.000	100.000
2	SF6	3.283	20133	633	0.000	Linear	0.000000e+00	0.000000e+00	0.000000e+00	0.000000e+00	0	0	0.000	0.000

[Group Results(Ch1)]
# of Groups	0

[Group Results(Ch2)]
# of Groups	0

[Group Results(Ch3)]
# of Groups	0

[Chromatogram (Ch1)]
Interval(msec)	220
# of Points	1091
Start Time(min)	0.002
End Time(min)	3.998
R.Time (min)	Intensity
0.00167	-29
0.00533	-33
0.00900	-36
0.01267	-42
0.01633	-39
0.02000	-28
0.02367	-14
0.02733	1
0.03100	11
0.03467	13
0.03833	12
0.04200	12
0.04567	15
0.04933	17
0.05300	21
0.05667	27
0.06033	33
0.06400	36
0.06767	39
0.07133	40
0.07500	41
0.07867	38
0.08233	30
0.08600	29
0.08967	33
0.09333	41
0.09700	51
0.10067	60
0.10433	69
0.10800	75
0.11167	81
0.11533	87
0.11900	88
0.12267	85
0.12633	80
0.13000	75
0.13367	71
0.13733	70
0.14100	70
0.14467	63
0.14833	59
0.15200	58
0.15567	57
0.15933	50
0.16300	39
0.16667	34
0.17033	35
0.17400	41
0.17767	44
0.18133	44
0.18500	38
0.18867	27
0.19233	17
0.19600	13
0.19967	12
0.20333	14
0.20700	22
0.21067	35
0.21433	43
0.21800	41
0.22167	30
0.22533	17
0.22900	5
0.23267	-3
0.23633	-7
0.24000	-12
0.24367	-16
0.24733	-16
0.25100	-14
0.25467	-13
0.25833	-15
0.26200	-13
0.26567	-6
0.26933	4
0.27300	14
0.27667	19
0.28033	20
0.28400	21
0.28767	25
0.29133	24
0.29500	15
0.29867	3
0.30233	-4
0.30600	-14
0.30967	-22
0.31333	-20
0.31700	-18
0.32067	-19
0.32433	-18
0.32800	-14
0.33167	-10
0.33533	-8
0.33900	-3
0.34267	2
0.34633	5
0.35000	7
0.35367	9
0.35733	8
0.36100	6
0.36467	3
0.36833	-5
0.37200	-12
0.37567	-13
0.37933	-9
0.38300	-4
0.38667	1
0.39033	6
0.39400	7
0.39767	4
0.40133	3
0.40500	4
0.40867	3
0.41233	4
0.41600	7
0.41967	7
0.42333	1
0.42700	-6
0.43067	-11
0.43433	-15
0.43800	-19
0.44167	-19
0.44533	-16
0.44900	-16
0.45267	-19
0.45633	-14
0.46000	-1
0.46367	6
0.46733	2
0.47100	-2
0.47467	-6
0.47833	-11
0.48200	-17
0.48567	-19
0.48933	-13
0.49300	-12
0.49667	-13
0.50033	-18
0.50400	-24
0.50767	-23
0.51133	-20
0.51500	-17
0.51867	-12
0.52233	-9
0.52600	-9
0.52967	-12
0.53333	-14
0.53700	-14
0.54067	-14
0.54433	-14
0.54800	-12
0.55167	-11
0.55533	-11
0.55900	-8
0.56267	-7
0.56633	-9
0.57000	-12
0.57367	-15
0.57733	-9
0.58100	1
0.58467	9
0.58833	12
0.59200	11
0.59567	11
0.59933	14
0.60300	11
0.60667	6
0.61033	4
0.61400	6
0.61767	1
0.62133	-9
0.62500	-18
0.62867	-26
0.63233	-26
0.63600	-28
0.63967	-25
0.64333	-19
0.64700	-16
0.65067	-10
0.65433	-7
0.65800	-9
0.66167	-8
0.66533	-1
0.66900	10
0.67267	12
0.67633	6
0.68000	-9
0.68367	-24
0.68733	-36
0.69100	-44
0.69467	-45
0.69833	-37
0.70200	-24
0.70567	-13
0.70933	-9
0.71300	-12
0.71667	-17
0.72033	-17
0.72400	-12
0.72767	-10
0.73133	-13
0.73500	-16
0.73867	-11
0.74233	-2
0.74600	8
0.74967	14
0.75333	14
0.75700	8
0.76067	-3
0.76433	-15
0.76800	-22
0.77167	-25
0.77533	-21
0.77900	-12
0.78267	-8
0.78633	-7
0.79000	-9
0.79367	-10
0.79733	-10
0.80100	-5
0.80467	4
0.80833	11
0.81200	18
0.81567	20
0.81933	19
0.82300	20
0.82667	21
0.83033	20
0.83400	15
0.83767	10
0.84133	12
0.84500	17
0.84867	26
0.85233	38
0.85600	48
0.85967	51
0.86333	50
0.86700	49
0.87067	43
0.87433	34
0.87800	26
0.88167	16
0.88533	8
0.88900	1
0.89267	-1
0.89633	1
0.90000	5
0.90367	13
0.90733	21
0.91100	26
0.91467	26
0.91833	21
0.92200	23
0.92567	31
0.92933	30
0.93300	24
0.93667	17
0.94033	13
0.94400	8
0.94767	2
0.95133	-3
0.95500	0
0.95867	8
0.96233	14
0.96600	20
0.96967	25
0.97333	29
0.97700	33
0.98067	36
0.98433	34
0.98800	31
0.99167	29
0.99533	27
0.99900	22
1.00267	15
1.00633	6
1.01000	-1
1.01367	-2
1.01733	-2
1.02100	5
1.02467	12
1.02833	13
1.03200	14
1.03567	15
1.03933	10
1.04300	9
1.04667	9
1.05033	10
1.05400	9
1.05767	5
1.06133	3
1.06500	5
1.06867	7
1.07233	6
1.07600	1
1.07967	-4
1.08333	-4
1.08700	0
1.09067	2
1.09433	-1
1.09800	-7
1.10167	-9
1.10533	-11
1.10900	-11
1.11267	-11
1.11633	-7
1.12000	-4
1.12367	-1
1.12733	2
1.13100	3
1.13467	3
1.13833	2
1.14200	3
1.14567	-3
1.14933	-11
1.15300	-16
1.15667	-15
1.16033	-11
1.16400	-4
1.16767	5
1.17133	15
1.17500	18
1.17867	12
1.18233	0
1.18600	-9
1.18967	-11
1.19333	-12
1.19700	-8
1.20067	0
1.20433	3
1.20800	4
1.21167	4
1.21533	1
1.21900	-2
1.22267	-1
1.22633	-1
1.23000	-3
1.23367	-6
1.23733	-6
1.24100	-6
1.24467	-9
1.24833	-14
1.25200	-16
1.25567	-13
1.25933	-5
1.26300	-1
1.26667	2
1.27033	6
1.27400	6
1.27767	8
1.28133	9
1.28500	6
1.28867	-0
1.29233	-3
1.29600	-11
1.29967	-23
1.30333	-31
1.30700	-31
1.31067	-26
1.31433	-23
1.31800	-23
1.32167	-26
1.32533	-28
1.32900	-30
1.33267	-31
1.33633	-27
1.34000	-18
1.34367	-7
1.34733	7
1.35100	15
1.35467	12
1.35833	3
1.36200	-6
1.36567	-11
1.36933	-14
1.37300	-16
1.37667	-16
1.38033	-13
1.38400	-7
1.38767	-4
1.39133	-9
1.39500	-19
1.39867	-25
1.40233	-25
1.40600	-27
1.40967	-28
1.41333	-29
1.41700	-31
1.42067	-35
1.42433	-40
1.42800	-44
1.43167	-50
1.43533	-56
1.43900	-48
1.44267	-5
1.44633	154
1.45000	674
1.45367	2084
1.45733	4676
1.46100	7990
1.46467	11259
1.46833	13968
1.47200	15870
1.47567	16792
1.47933	16579
1.48300	15222
1.48667	12995
1.49033	10375
1.49400	7832
1.49767	5658
1.50133	3957
1.50500	2702
1.50867	1811
1.51233	1195
1.51600	778
1.51967	498
1.52333	313
1.52700	197
1.53067	123
1.53433	71
1.53800	41
1.54167	59
1.54533	186
1.54900	469
1.55267	871
1.55633	1295
1.56000	1661
1.56367	1939
1.56733	2102
1.57100	2124
1.57467	1982
1.57833	1697
1.58200	1337
1.58567	979
1.58933	671
1.59300	438
1.59667	270
1.60033	156
1.60400	84
1.60767	34
1.61133	-3
1.61500	-28
1.61867	-43
1.62233	-53
1.62600	-59
1.62967	-63
1.63333	-68
1.63700	-68
1.64067	-61
1.64433	-55
1.64800	-56
1.65167	-65
1.65533	-75
1.65900	-85
1.66267	-89
1.66633	-88
1.67000	-86
1.67367	-85
1.67733	-85
1.68100	-84
1.68467	-80
1.68833	-72
1.69200	-64
1.69567	-63
1.69933	-65
1.70300	-69
1.70667	-71
1.71033	-70
1.71400	-67
1.71767	-62
1.72133	-60
1.72500	-57
1.72867	-55
1.73233	-55
1.73600	-55
1.73967	-53
1.74333	-51
1.74700	-50
1.75067	-49
1.75433	-50
1.75800	-52
1.76167	-54
1.76533	-59
1.76900	-61
1.77267	-60
1.77633	-50
1.78000	-38
1.78367	-29
1.78733	-24
1.79100	-21
1.79467	-16
1.79833	-16
1.80200	-24
1.80567	-32
1.80933	-36
1.81300	-35
1.81667	-29
1.82033	-17
1.82400	-10
1.82767	-13
1.83133	-18
1.83500	-24
1.83867	-29
1.84233	-37
1.84600	-47
1.84967	-56
1.85333	-67
1.85700	-71
1.86067	-70
1.86433	-67
1.86800	-63
1.87167	-62
1.87533	-60
1.87900	-56
1.88267	-52
1.88633	-45
1.89000	-40
1.89367	-38
1.89733	-39
1.90100	-41
1.90467	-42
1.90833	-44
1.91200	-42
1.91567	-34
1.91933	-21
1.92300	-5
1.92667	8
1.93033	14
1.93400	11
1.93767	-3
1.94133	-21
1.94500	-35
1.94867	-41
1.95233	-16
1.95600	191
1.95967	1504
1.96333	8053
1.96700	32858
1.97067	104552
1.97433	261928
1.97800	525423
1.98167	869594
1.98533	1231845
1.98900	1544632
1.99267	1758960
1.99633	1848426
2.00000	1808445
2.00367	1655542
2.00733	1423685
2.01100	1155788
2.01467	891943
2.01833	660172
2.02200	473366
2.02567	332140
2.02933	230202
2.03300	158944
2.03667	110166
2.04033	77181
2.04400	54980
2.04767	40014
2.05133	29853
2.05500	22870
2.05867	17994
2.06233	14525
2.06600	11991
2.06967	10090
2.07333	8639
2.07700	7513
2.08067	6621
2.08433	5900
2.08800	5310
2.09167	4819
2.09533	4402
2.09900	4045
2.10267	3735
2.10633	3465
2.11000	3229
2.11367	3019
2.11733	2834
2.12100	2669
2.12467	2518
2.12833	2378
2.13200	2251
2.13567	2142
2.13933	2052
2.14300	1967
2.14667	1879
2.15033	1787
2.15400	1701
2.15767	1626
2.16133	1557
2.16500	1493
2.16867	1431
2.17233	1366
2.17600	1304
2.17967	1249
2.18333	1206
2.18700	1170
2.19067	1138
2.19433	1107
2.19800	1081
2.20167	1058
2.20533	1032
2.20900	1002
2.21267	971
2.21633	939
2.22000	909
2.22367	882
2.22733	859
2.23100	833
2.23467	802
2.23833	771
2.24200	743
2.24567	723
2.24933	710
2.25300	699
2.25667	690
2.26033	680
2.26400	669
2.26767	658
2.27133	648
2.27500	634
2.27867	620
2.28233	610
2.28600	600
2.28967	593
2.29333	590
2.29700	586
2.30067	575
2.30433	561
2.30800	546
2.31167	533
2.31533	521
2.31900	511
2.32267	501
2.32633	490
2.33000	481
2.33367	472
2.33733	464
2.34100	458
2.34467	453
2.34833	452
2.35200	453
2.35567	447
2.35933	434
2.36300	422
2.36667	417
2.37033	416
2.37400	414
2.37767	408
2.38133	403
2.38500	398
2.38867	387
2.39233	378
2.39600	373
2.39967	371
2.40333	369
2.40700	367
2.41067	361
2.41433	358
2.41800	360
2.42167	366
2.42533	370
2.42900	370
2.43267	364
2.43633	358
2.44000	357
2.44367	353
2.44733	342
2.45100	328
2.45467	314
2.45833	303
2.46200	292
2.46567	281
2.46933	271
2.47300	265
2.47667	257
2.48033	251
2.48400	252
2.48767	260
2.49133	273
2.49500	285
2.49867	286
2.50233	277
2.50600	261
2.50967	249
2.51333	249
2.51700	259
2.52067	272
2.52433	276
2.52800	273
2.53167	272
2.53533	271
2.53900	265
2.54267	256
2.54633	249
2.55000	245
2.55367	245
2.55733	248
2.56100	250
2.56467	247
2.56833	242
2.57200	235
2.57567	224
2.57933	213
2.58300	206
2.58667	207
2.59033	208
2.59400	210
2.59767	212
2.60133	212
2.60500	213
2.60867	213
2.61233	212
2.61600	217
2.61967	229
2.62333	234
2.62700	229
2.63067	224
2.63433	218
2.63800	209
2.64167	202
2.64533	197
2.64900	194
2.65267	192
2.65633	189
2.66000	187
2.66367	185
2.66733	185
2.67100	185
2.67467	182
2.67833	179
2.68200	175
2.68567	172
2.68933	172
2.69300	177
2.69667	180
2.70033	179
2.70400	179
2.70767	174
2.71133	166
2.71500	160
2.71867	152
2.72233	145
2.72600	140
2.72967	141
2.73333	147
2.73700	157
2.74067	165
2.74433	169
2.74800	169
2.75167	164
2.75533	158
2.75900	153
2.76267	150
2.76633	146
2.77000	146
2.77367	150
2.77733	152
2.78100	152
2.78467	147
2.78833	140
2.79200	137
2.79567	134
2.79933	127
2.80300	122
2.80667	121
2.81033	125
2.81400	132
2.81767	143
2.82133	151
2.82500	157
2.82867	161
2.83233	163
2.83600	163
2.83967	159
2.84333	155
2.84700	156
2.85067	152
2.85433	143
2.85800	133
2.86167	131
2.86533	133
2.86900	130
2.87267	126
2.87633	132
2.88000	141
2.88367	147
2.88733	151
2.89100	157
2.89467	164
2.89833	167
2.90200	164
2.90567	161
2.90933	159
2.91300	150
2.91667	137
2.92033	124
2.92400	119
2.92767	120
2.93133	126
2.93500	132
2.93867	136
2.94233	138
2.94600	137
2.94967	132
2.95333	128
2.95700	126
2.96067	126
2.96433	126
2.96800	128
2.97167	130
2.97533	134
2.97900	141
2.98267	147
2.98633	152
2.99000	155
2.99367	157
2.99733	153
3.00100	142
3.00467	128
3.00833	117
3.01200	113
3.01567	115
3.01933	121
3.02300	130
3.02667	136
3.03033	137
3.03400	136
3.03767	135
3.04133	133
3.04500	128
3.04867	127
3.05233	127
3.05600	121
3.05967	114
3.06333	107
3.06700	101
3.07067	95
3.07433	94
3.07800	98
3.08167	99
3.08533	102
3.08900	104
3.09267	104
3.09633	105
3.10000	103
3.10367	102
3.10733	106
3.11100	112
3.11467	119
3.11833	124
3.12200	126
3.12567	127
3.12933	123
3.13300	116
3.13667	108
3.14033	98
3.14400	92
3.14767	89
3.15133	91
3.15500	95
3.15867	103
3.16233	108
3.16600	109
3.16967	108
3.17333	107
3.17700	108
3.18067	106
3.18433	101
3.18800	95
3.19167	89
3.19533	84
3.19900	83
3.20267	91
3.20633	98
3.21000	104
3.21367	108
3.21733	112
3.22100	115
3.22467	113
3.22833	105
3.23200	100
3.23567	100
3.23933	98
3.24300	94
3.24667	86
3.25033	80
3.25400	75
3.25767	70
3.26133	71
3.26500	79
3.26867	89
3.27233	96
3.27600	99
3.27967	101
3.28333	96
3.28700	93
3.29067	93
3.29433	90
3.29800	86
3.30167	85
3.30533	81
3.30900	75
3.31267	72
3.31633	78
3.32000	86
3.32367	92
3.32733	99
3.33100	102
3.33467	100
3.33833	99
3.34200	99
3.34567	95
3.34933	88
3.35300	80
3.35667	75
3.36033	70
3.36400	63
3.36767	57
3.37133	56
3.37500	65
3.37867	78
3.38233	85
3.38600	84
3.38967	81
3.39333	78
3.39700	75
3.40067	75
3.40433	79
3.40800	82
3.41167	79
3.41533	75
3.41900	68
3.42267	65
3.42633	65
3.43000	66
3.43367	69
3.43733	72
3.44100	71
3.44467	71
3.44833	74
3.45200	73
3.45567	71
3.45933	70
3.46300	70
3.46667	68
3.47033	65
3.47400	59
3.47767	50
3.48133	46
3.48500	48
3.48867	55
3.49233	67
3.49600	76
3.49967	77
3.50333	72
3.50700	65
3.51067	58
3.51433	46
3.51800	38
3.52167	35
3.52533	38
3.52900	42
3.53267	42
3.53633	43
3.54000	46
3.54367	45
3.54733	40
3.55100	41
3.55467	45
3.55833	53
3.56200	57
3.56567	50
3.56933	51
3.57300	59
3.57667	66
3.58033	67
3.58400	63
3.58767	54
3.59133	45
3.59500	38
3.59867	34
3.60233	32
3.60600	34
3.60967	38
3.61333	39
3.61700	36
3.62067	32
3.62433	29
3.62800	29
3.63167	32
3.63533	38
3.63900	47
3.64267	54
3.64633	56
3.65000	55
3.65367	49
3.65733	38
3.66100	30
3.66467	24
3.66833	21
3.67200	22
3.67567	30
3.67933	41
3.68300	47
3.68667	52
3.69033	55
3.69400	52
3.69767	39
3.70133	26
3.70500	20
3.70867	16
3.71233	13
3.71600	13
3.71967	16
3.72333	24
3.72700	39
3.73067	53
3.73433	65
3.73800	71
3.74167	65
3.74533	54
3.74900	44
3.75267	32
3.75633	24
3.76000	18
3.76367	14
3.76733	14
3.77100	13
3.77467	15
3.77833	14
3.78200	10
3.78567	10
3.78933	14
3.79300	19
3.79667	24
3.80033	31
3.80400	38
3.80767	40
3.81133	38
3.81500	33
3.81867	29
3.82233	26
3.82600	20
3.82967	13
3.83333	8
3.83700	7
3.84067	8
3.84433	14
3.84800	19
3.85167	20
3.85533	19
3.85900	17
3.86267	12
3.86633	9
3.87000	11
3.87367	16
3.87733	24
3.88100	29
3.88467	30
3.88833	28
3.89200	25
3.89567	20
3.89933	13
3.90300	11
3.90667	10
3.91033	7
3.91400	5
3.91767	6
3.92133	5
3.92500	-0
3.92867	-5
3.93233	-5
3.93600	-4
3.93967	-1
3.94333	1
3.94700	3
3.95067	5
3.95433	6
3.95800	11
3.96167	11
3.96533	6
3.96900	5
3.97267	4
3.97633	3
3.98000	3
3.98367	5
3.98733	6
3.99100	2
3.99467	-2
3.99833	-3

[Chromatogram (Ch2)]
Interval(msec)	220
# of Points	1091
Start Time(min)	0.002
End Time(min)	3.998
R.Time (min)	Intensity
0.00167	1
0.00533	1
0.00900	1
0.01267	1
0.01633	1
0.02000	1
0.02367	1
0.02733	2
0.03100	2
0.03467	2
0.03833	2
0.04200	2
0.04567	3
0.04933	2
0.05300	2
0.05667	2
0.06033	2
0.06400	2
0.06767	1
0.07133	1
0.07500	1
0.07867	1
0.08233	1
0.08600	1
0.08967	1
0.09333	1
0.09700	2
0.10067	2
0.10433	2
0.10800	2
0.11167	2
0.11533	2
0.11900	2
0.12267	2
0.12633	2
0.13000	1
0.13367	1
0.13733	1
0.14100	1
0.14467	1
0.14833	1
0.15200	1
0.15567	1
0.15933	1
0.16300	1
0.16667	1
0.17033	1
0.17400	2
0.17767	2
0.18133	2
0.18500	3
0.18867	3
0.19233	3
0.19600	3
0.19967	3
0.20333	3
0.20700	3
0.21067	3
0.21433	3
0.21800	3
0.22167	3
0.22533	3
0.22900	2
0.23267	2
0.23633	2
0.24000	2
0.24367	2
0.24733	1
0.25100	1
0.25467	1
0.25833	1
0.26200	1
0.26567	1
0.26933	1
0.27300	0
0.27667	0
0.28033	-0
0.28400	-0
0.28767	-1
0.29133	-1
0.29500	-1
0.29867	-1
0.30233	-1
0.30600	-1
0.30967	-1
0.31333	-1
0.31700	-1
0.32067	-0
0.32433	-0
0.32800	-0
0.33167	0
0.33533	0
0.33900	1
0.34267	1
0.34633	1
0.35000	1
0.35367	1
0.35733	1
0.36100	1
0.36467	1
0.36833	1
0.37200	2
0.37567	2
0.37933	2
0.38300	2
0.38667	1
0.39033	1
0.39400	1
0.39767	1
0.40133	0
0.40500	0
0.40867	0
0.41233	0
0.41600	0
0.41967	0
0.42333	0
0.42700	0
0.43067	0
0.43433	0
0.43800	0
0.44167	-0
0.44533	-0
0.44900	-0
0.45267	-0
0.45633	0
0.46000	0
0.46367	1
0.46733	1
0.47100	1
0.47467	1
0.47833	1
0.48200	1
0.48567	1
0.48933	1
0.49300	1
0.49667	1
0.50033	1
0.50400	1
0.50767	1
0.51133	1
0.51500	1
0.51867	1
0.52233	1
0.52600	1
0.52967	1
0.53333	1
0.53700	1
0.54067	0
0.54433	0
0.54800	-0
0.55167	-0
0.55533	-1
0.55900	-1
0.56267	-0
0.56633	-0
0.57000	-0
0.57367	-0
0.57733	-0
0.58100	-0
0.58467	-1
0.58833	-1
0.59200	-1
0.59567	-2
0.59933	-2
0.60300	-2
0.60667	-2
0.61033	-2
0.61400	-3
0.61767	-3
0.62133	-3
0.62500	-3
0.62867	-3
0.63233	-3
0.63600	-3
0.63967	-3
0.64333	-2
0.64700	-2
0.65067	-2
0.65433	-1
0.65800	-1
0.66167	-1
0.66533	-1
0.66900	-1
0.67267	-1
0.67633	-1
0.68000	-1
0.68367	-1
0.68733	-1
0.69100	-0
0.69467	-0
0.69833	0
0.70200	1
0.70567	1
0.70933	2
0.71300	2
0.71667	2
0.72033	2
0.72400	2
0.72767	2
0.73133	2
0.73500	2
0.73867	2
0.74233	3
0.74600	3
0.74967	3
0.75333	3
0.75700	3
0.76067	3
0.76433	2
0.76800	2
0.77167	2
0.77533	1
0.77900	1
0.78267	0
0.78633	-0
0.79000	-0
0.79367	-1
0.79733	-1
0.80100	-1
0.80467	-1
0.80833	-0
0.81200	-0
0.81567	-0
0.81933	0
0.82300	0
0.82667	0
0.83033	0
0.83400	1
0.83767	1
0.84133	1
0.84500	1
0.84867	1
0.85233	1
0.85600	1
0.85967	1
0.86333	0
0.86700	0
0.87067	-0
0.87433	-0
0.87800	-1
0.88167	-1
0.88533	-1
0.88900	-1
0.89267	-1
0.89633	-1
0.90000	-0
0.90367	-0
0.90733	-0
0.91100	-0
0.91467	-0
0.91833	-1
0.92200	-1
0.92567	-1
0.92933	-1
0.93300	-1
0.93667	-2
0.94033	-2
0.94400	-2
0.94767	-2
0.95133	-2
0.95500	-2
0.95867	-2
0.96233	-2
0.96600	-1
0.96967	-1
0.97333	-1
0.97700	-1
0.98067	-1
0.98433	-1
0.98800	-1
0.99167	-1
0.99533	-1
0.99900	-1
1.00267	-1
1.00633	-1
1.01000	-1
1.01367	-0
1.01733	-0
1.02100	-0
1.02467	0
1.02833	0
1.03200	1
1.03567	1
1.03933	0
1.04300	0
1.04667	-0
1.05033	-1
1.05400	-1
1.05767	-2
1.06133	-2
1.06500	-2
1.06867	-2
1.07233	-2
1.07600	-2
1.07967	-2
1.08333	-1
1.08700	-1
1.09067	-1
1.09433	-1
1.09800	-1
1.10167	-1
1.10533	-1
1.10900	-1
1.11267	-1
1.11633	-1
1.12000	-1
1.12367	-1
1.12733	-1
1.13100	-1
1.13467	-0
1.13833	-0
1.14200	-0
1.14567	-0
1.14933	-0
1.15300	-0
1.15667	-0
1.16033	-0
1.16400	-0
1.16767	0
1.17133	0
1.17500	0
1.17867	-0
1.18233	-1
1.18600	-1
1.18967	-1
1.19333	-2
1.19700	-2
1.20067	-2
1.20433	-3
1.20800	-3
1.21167	-3
1.21533	-4
1.21900	-4
1.22267	-4
1.22633	-3
1.23000	-3
1.23367	-3
1.23733	-2
1.24100	-2
1.24467	-2
1.24833	-2
1.25200	-2
1.25567	-2
1.25933	-2
1.26300	-2
1.26667	-2
1.27033	-2
1.27400	-2
1.27767	-2
1.28133	-2
1.28500	-2
1.28867	-2
1.29233	-3
1.29600	-3
1.29967	-3
1.30333	-2
1.30700	-2
1.31067	-2
1.31433	-2
1.31800	-2
1.32167	-2
1.32533	-2
1.32900	-2
1.33267	-2
1.33633	-2
1.34000	-2
1.34367	-1
1.34733	-1
1.35100	-1
1.35467	-1
1.35833	-1
1.36200	-2
1.36567	-2
1.36933	-2
1.37300	-2
1.37667	-2
1.38033	-2
1.38400	-2
1.38767	-2
1.39133	-1
1.39500	-1
1.39867	-1
1.40233	-1
1.40600	-0
1.40967	0
1.41333	0
1.41700	1
1.42067	1
1.42433	1
1.42800	1
1.43167	1
1.43533	1
1.43900	0
1.44267	0
1.44633	-0
1.45000	-0
1.45367	-0
1.45733	-0
1.46100	-1
1.46467	-1
1.46833	-1
1.47200	-1
1.47567	-1
1.47933	-1
1.48300	-1
1.48667	-1
1.49033	-1
1.49400	-1
1.49767	-1
1.50133	-1
1.50500	-1
1.50867	-1
1.51233	-1
1.51600	-1
1.51967	-0
1.52333	-0
1.52700	0
1.53067	1
1.53433	1
1.53800	1
1.54167	0
1.54533	0
1.54900	-0
1.55267	-0
1.55633	-1
1.56000	-1
1.56367	-2
1.56733	-2
1.57100	-2
1.57467	-2
1.57833	-3
1.58200	-3
1.58567	-4
1.58933	-4
1.59300	-5
1.59667	-5
1.60033	-6
1.60400	-7
1.60767	-9
1.61133	-10
1.61500	-13
1.61867	-15
1.62233	-18
1.62600	-21
1.62967	-24
1.63333	-27
1.63700	-30
1.64067	-34
1.64433	-37
1.64800	-41
1.65167	-44
1.65533	-48
1.65900	-51
1.66267	-54
1.66633	-58
1.67000	-61
1.67367	-65
1.67733	-70
1.68100	-74
1.68467	-79
1.68833	-83
1.69200	-88
1.69567	-92
1.69933	-95
1.70300	-98
1.70667	-101
1.71033	-102
1.71400	-104
1.71767	-105
1.72133	-106
1.72500	-106
1.72867	-107
1.73233	-107
1.73600	-108
1.73967	-108
1.74333	-107
1.74700	-107
1.75067	-107
1.75433	-108
1.75800	-108
1.76167	-109
1.76533	-110
1.76900	-111
1.77267	-111
1.77633	-112
1.78000	-112
1.78367	-112
1.78733	-112
1.79100	-112
1.79467	-111
1.79833	-111
1.80200	-111
1.80567	-111
1.80933	-111
1.81300	-111
1.81667	-111
1.82033	-112
1.82400	-112
1.82767	-112
1.83133	-112
1.83500	-112
1.83867	-112
1.84233	-112
1.84600	-112
1.84967	-112
1.85333	-112
1.85700	-112
1.86067	-113
1.86433	-113
1.86800	-114
1.87167	-114
1.87533	-114
1.87900	-114
1.88267	-113
1.88633	-113
1.89000	-112
1.89367	-112
1.89733	-112
1.90100	-113
1.90467	-113
1.90833	-113
1.91200	-113
1.91567	-112
1.91933	-112
1.92300	-112
1.92667	-111
1.93033	-110
1.93400	-110
1.93767	-110
1.94133	-109
1.94500	-109
1.94867	-109
1.95233	-109
1.95600	-109
1.95967	-110
1.96333	-110
1.96700	-110
1.97067	-109
1.97433	-109
1.97800	-109
1.98167	-109
1.98533	-108
1.98900	-108
1.99267	-107
1.99633	-107
2.00000	-107
2.00367	-107
2.00733	-107
2.01100	-107
2.01467	-107
2.01833	-107
2.02200	-106
2.02567	-106
2.02933	-105
2.03300	-104
2.03667	-104
2.04033	-103
2.04400	-103
2.04767	-103
2.05133	-103
2.05500	-103
2.05867	-103
2.06233	-103
2.06600	-103
2.06967	-102
2.07333	-102
2.07700	-102
2.08067	-102
2.08433	-102
2.08800	-102
2.09167	-101
2.09533	-101
2.09900	-101
2.10267	-100
2.10633	-99
2.11000	-99
2.11367	-98
2.11733	-98
2.12100	-97
2.12467	-97
2.12833	-96
2.13200	-96
2.13567	-96
2.13933	-95
2.14300	-95
2.14667	-95
2.15033	-95
2.15400	-95
2.15767	-94
2.16133	-94
2.16500	-93
2.16867	-93
2.17233	-93
2.17600	-93
2.17967	-93
2.18333	-94
2.18700	-93
2.19067	-93
2.19433	-92
2.19800	-91
2.20167	-90
2.20533	-89
2.20900	-88
2.21267	-88
2.21633	-88
2.22000	-87
2.22367	-87
2.22733	-86
2.23100	-86
2.23467	-85
2.23833	-84
2.24200	-84
2.24567	-84
2.24933	-83
2.25300	-83
2.25667	-82
2.26033	-82
2.26400	-81
2.26767	-81
2.27133	-81
2.27500	-82
2.27867	-82
2.28233	-82
2.28600	-82
2.28967	-82
2.29333	-82
2.29700	-82
2.30067	-81
2.30433	-81
2.30800	-81
2.31167	-81
2.31533	-81
2.31900	-81
2.32267	-81
2.32633	-82
2.33000	-82
2.33367	-82
2.33733	-82
2.34100	-81
2.34467	-80
2.34833	-79
2.35200	-77
2.35567	-76
2.35933	-74
2.36300	-72
2.36667	-70
2.37033	-67
2.37400	-64
2.37767	-60
2.38133	-57
2.38500	-52
2.38867	-48
2.39233	-43
2.39600	-39
2.39967	-34
2.40333	-30
2.40700	-25
2.41067	-21
2.41433	-18
2.41800	-15
2.42167	-12
2.42533	-11
2.42900	-10
2.43267	-9
2.43633	-8
2.44000	-7
2.44367	-6
2.44733	-5
2.45100	-4
2.45467	-3
2.45833	-3
2.46200	-3
2.46567	-3
2.46933	-3
2.47300	-2
2.47667	-2
2.48033	-1
2.48400	-1
2.48767	0
2.49133	1
2.49500	2
2.49867	4
2.50233	5
2.50600	6
2.50967	7
2.51333	8
2.51700	9
2.52067	10
2.52433	11
2.52800	11
2.53167	12
2.53533	13
2.53900	14
2.54267	14
2.54633	14
2.55000	14
2.55367	14
2.55733	14
2.56100	14
2.56467	14
2.56833	15
2.57200	15
2.57567	15
2.57933	15
2.58300	16
2.58667	15
2.59033	15
2.59400	15
2.59767	15
2.60133	16
2.60500	16
2.60867	16
2.61233	16
2.61600	15
2.61967	15
2.62333	15
2.62700	15
2.63067	15
2.63433	15
2.63800	15
2.64167	16
2.64533	16
2.64900	17
2.65267	17
2.65633	18
2.66000	18
2.66367	18
2.66733	19
2.67100	19
2.67467	19
2.67833	20
2.68200	20
2.68567	21
2.68933	21
2.69300	22
2.69667	22
2.70033	23
2.70400	23
2.70767	24
2.71133	24
2.71500	24
2.71867	24
2.72233	24
2.72600	24
2.72967	24
2.73333	24
2.73700	24
2.74067	23
2.74433	23
2.74800	22
2.75167	22
2.75533	22
2.75900	22
2.76267	22
2.76633	22
2.77000	22
2.77367	23
2.77733	23
2.78100	24
2.78467	24
2.78833	25
2.79200	26
2.79567	26
2.79933	26
2.80300	27
2.80667	27
2.81033	27
2.81400	27
2.81767	27
2.82133	27
2.82500	27
2.82867	26
2.83233	26
2.83600	25
2.83967	24
2.84333	23
2.84700	21
2.85067	17
2.85433	12
2.85800	3
2.86167	-8
2.86533	-24
2.86900	-44
2.87267	-68
2.87633	-97
2.88000	-130
2.88367	-167
2.88733	-208
2.89100	-253
2.89467	-301
2.89833	-351
2.90200	-403
2.90567	-456
2.90933	-511
2.91300	-566
2.91667	-621
2.92033	-675
2.92400	-729
2.92767	-781
2.93133	-831
2.93500	-883
2.93867	-939
2.94233	-997
2.94600	-1049
2.94967	-1085
2.95333	-1096
2.95700	-1082
2.96067	-1044
2.96433	-988
2.96800	-918
2.97167	-841
2.97533	-761
2.97900	-681
2.98267	-604
2.98633	-532
2.99000	-465
2.99367	-404
2.99733	-350
3.00100	-301
3.00467	-258
3.00833	-220
3.01200	-187
3.01567	-158
3.01933	-133
3.02300	-112
3.02667	-93
3.03033	-77
3.03400	-63
3.03767	-52
3.04133	-42
3.04500	-33
3.04867	-26
3.05233	-20
3.05600	-15
3.05967	-10
3.06333	-6
3.06700	-3
3.07067	0
3.07433	3
3.07800	5
3.08167	6
3.08533	8
3.08900	9
3.09267	10
3.09633	11
3.10000	11
3.10367	12
3.10733	12
3.11100	13
3.11467	13
3.11833	13
3.12200	14
3.12567	14
3.12933	15
3.13300	15
3.13667	16
3.14033	16
3.14400	17
3.14767	17
3.15133	17
3.15500	17
3.15867	17
3.16233	18
3.16600	18
3.16967	18
3.17333	19
3.17700	19
3.18067	19
3.18433	20
3.18800	20
3.19167	20
3.19533	21
3.19900	21
3.20267	21
3.20633	21
3.21000	22
3.21367	22
3.21733	22
3.22100	22
3.22467	22
3.22833	22
3.23200	22
3.23567	22
3.23933	22
3.24300	22
3.24667	23
3.25033	23
3.25400	23
3.25767	23
3.26133	22
3.26500	22
3.26867	22
3.27233	22
3.27600	21
3.27967	21
3.28333	21
3.28700	21
3.29067	21
3.29433	21
3.29800	22
3.30167	22
3.30533	22
3.30900	23
3.31267	23
3.31633	23
3.32000	24
3.32367	24
3.32733	24
3.33100	25
3.33467	25
3.33833	25
3.34200	24
3.34567	24
3.34933	24
3.35300	24
3.35667	24
3.36033	24
3.36400	24
3.36767	24
3.37133	25
3.37500	25
3.37867	25
3.38233	25
3.38600	25
3.38967	26
3.39333	26
3.39700	26
3.40067	26
3.40433	26
3.40800	26
3.41167	26
3.41533	26
3.41900	26
3.42267	26
3.42633	26
3.43000	25
3.43367	25
3.43733	25
3.44100	25
3.44467	25
3.44833	25
3.45200	25
3.45567	25
3.45933	25
3.46300	25
3.46667	25
3.47033	26
3.47400	26
3.47767	26
3.48133	26
3.48500	26
3.48867	27
3.49233	27
3.49600	27
3.49967	27
3.50333	27
3.50700	27
3.51067	27
3.51433	27
3.51800	28
3.52167	28
3.52533	28
3.52900	28
3.53267	29
3.53633	29
3.54000	29
3.54367	30
3.54733	30
3.55100	29
3.55467	29
3.55833	28
3.56200	28
3.56567	28
3.56933	27
3.57300	27
3.57667	27
3.58033	27
3.58400	27
3.58767	27
3.59133	27
3.59500	27
3.59867	27
3.60233	27
3.60600	27
3.60967	28
3.61333	28
3.61700	28
3.62067	28
3.62433	28
3.62800	29
3.63167	29
3.63533	29
3.63900	29
3.64267	29
3.64633	29
3.65000	29
3.65367	29
3.65733	28
3.66100	28
3.66467	28
3.66833	28
3.67200	28
3.67567	28
3.67933	28
3.68300	28
3.68667	28
3.69033	28
3.69400	27
3.69767	27
3.70133	27
3.70500	27
3.70867	27
3.71233	27
3.71600	27
3.71967	27
3.72333	27
3.72700	27
3.73067	27
3.73433	27
3.73800	26
3.74167	26
3.74533	26
3.74900	26
3.75267	26
3.75633	26
3.76000	26
3.76367	27
3.76733	27
3.77100	27
3.77467	27
3.77833	27
3.78200	27
3.78567	27
3.78933	27
3.79300	27
3.79667	26
3.80033	26
3.80400	26
3.80767	26
3.81133	26
3.81500	25
3.81867	25
3.82233	25
3.82600	25
3.82967	25
3.83333	25
3.83700	25
3.84067	25
3.84433	26
3.84800	26
3.85167	26
3.85533	26
3.85900	26
3.86267	26
3.86633	26
3.87000	26
3.87367	26
3.87733	26
3.88100	26
3.88467	26
3.88833	27
3.89200	27
3.89567	28
3.89933	28
3.90300	28
3.90667	28
3.91033	28
3.91400	28
3.91767	28
3.92133	28
3.92500	29
3.92867	29
3.93233	29
3.93600	29
3.93967	28
3.94333	28
3.94700	28
3.95067	28
3.95433	28
3.95800	28
3.96167	27
3.96533	27
3.96900	27
3.97267	27
3.97633	26
3.98000	26
3.98367	26
3.98733	27
3.99100	27
3.99467	27
3.99833	27

[Chromatogram (Ch3)]
Interval(msec)	220
# of Points	1091
Start Time(min)	0.002
End Time(min)	3.998
R.Time (min)	Intensity
0.00167	1
0.00533	4
0.00900	5
0.01267	4
0.01633	-0
0.02000	-2
0.02367	-1
0.02733	-1
0.03100	-1
0.03467	-2
0.03833	-2
0.04200	0
0.04567	-0
0.04933	-3
0.05300	-3
0.05667	-3
0.06033	-4
0.06400	-5
0.06767	-7
0.07133	-8
0.07500	-7
0.07867	-5
0.08233	-3
0.08600	-2
0.08967	-2
0.09333	-1
0.09700	-1
0.10067	-1
0.10433	0
0.10800	-0
0.11167	-1
0.11533	-2
0.11900	-3
0.12267	-6
0.12633	-9
0.13000	-9
0.13367	-5
0.13733	-3
0.14100	-2
0.14467	-2
0.14833	-2
0.15200	-2
0.15567	-2
0.15933	-1
0.16300	-1
0.16667	-0
0.17033	1
0.17400	1
0.17767	0
0.18133	0
0.18500	0
0.18867	1
0.19233	-1
0.19600	-2
0.19967	-0
0.20333	-0
0.20700	-1
0.21067	-1
0.21433	-1
0.21800	-0
0.22167	-1
0.22533	-2
0.22900	-3
0.23267	-3
0.23633	-2
0.24000	-2
0.24367	-2
0.24733	-3
0.25100	-5
0.25467	-5
0.25833	-4
0.26200	-4
0.26567	-4
0.26933	-3
0.27300	0
0.27667	-0
0.28033	-3
0.28400	-4
0.28767	-4
0.29133	-3
0.29500	-2
0.29867	-3
0.30233	-3
0.30600	-5
0.30967	-6
0.31333	-5
0.31700	-4
0.32067	-3
0.32433	-3
0.32800	-2
0.33167	-2
0.33533	-3
0.33900	-3
0.34267	-3
0.34633	-3
0.35000	-3
0.35367	-3
0.35733	-4
0.36100	-6
0.36467	-6
0.36833	-5
0.37200	-6
0.37567	-5
0.37933	-2
0.38300	-2
0.38667	-1
0.39033	-2
0.39400	-4
0.39767	-7
0.40133	-10
0.40500	-10
0.40867	-8
0.41233	-6
0.41600	-5
0.41967	-3
0.42333	-1
0.42700	0
0.43067	1
0.43433	-0
0.43800	-2
0.44167	-4
0.44533	-6
0.44900	-5
0.45267	-3
0.45633	-3
0.46000	-3
0.46367	-2
0.46733	0
0.47100	1
0.47467	1
0.47833	2
0.48200	2
0.48567	3
0.48933	1
0.49300	1
0.49667	-1
0.50033	-1
0.50400	-2
0.50767	-2
0.51133	-2
0.51500	-2
0.51867	-2
0.52233	-3
0.52600	-2
0.52967	-1
0.53333	-1
0.53700	-1
0.54067	1
0.54433	3
0.54800	2
0.55167	0
0.55533	-0
0.55900	-2
0.56267	-3
0.56633	-3
0.57000	-4
0.57367	-2
0.57733	0
0.58100	0
0.58467	0
0.58833	1
0.59200	1
0.59567	1
0.59933	0
0.60300	0
0.60667	0
0.61033	0
0.61400	-1
0.61767	-2
0.62133	-2
0.62500	0
0.62867	1
0.63233	1
0.63600	-0
0.63967	-3
0.64333	-5
0.64700	-5
0.65067	-2
0.65433	-1
0.65800	-2
0.66167	-0
0.66533	-0
0.66900	1
0.67267	2
0.67633	1
0.68000	0
0.68367	-0
0.68733	-2
0.69100	-2
0.69467	-1
0.69833	-2
0.70200	-3
0.70567	-4
0.70933	-4
0.71300	-4
0.71667	-3
0.72033	-2
0.72400	-1
0.72767	-2
0.73133	-3
0.73500	-2
0.73867	-1
0.74233	-0
0.74600	3
0.74967	5
0.75333	5
0.75700	3
0.76067	3
0.76433	3
0.76800	3
0.77167	2
0.77533	3
0.77900	5
0.78267	6
0.78633	6
0.79000	5
0.79367	4
0.79733	3
0.80100	0
0.80467	-1
0.80833	0
0.81200	1
0.81567	2
0.81933	5
0.82300	6
0.82667	6
0.83033	4
0.83400	5
0.83767	6
0.84133	7
0.84500	5
0.84867	4
0.85233	4
0.85600	4
0.85967	4
0.86333	4
0.86700	4
0.87067	4
0.87433	3
0.87800	2
0.88167	4
0.88533	6
0.88900	6
0.89267	6
0.89633	4
0.90000	3
0.90367	3
0.90733	2
0.91100	1
0.91467	0
0.91833	1
0.92200	0
0.92567	0
0.92933	2
0.93300	1
0.93667	1
0.94033	3
0.94400	3
0.94767	5
0.95133	6
0.95500	6
0.95867	3
0.96233	1
0.96600	1
0.96967	1
0.97333	2
0.97700	2
0.98067	3
0.98433	4
0.98800	2
0.99167	0
0.99533	1
0.99900	2
1.00267	3
1.00633	6
1.01000	8
1.01367	8
1.01733	9
1.02100	7
1.02467	6
1.02833	5
1.03200	6
1.03567	7
1.03933	6
1.04300	4
1.04667	3
1.05033	4
1.05400	4
1.05767	5
1.06133	4
1.06500	3
1.06867	3
1.07233	2
1.07600	2
1.07967	2
1.08333	3
1.08700	4
1.09067	6
1.09433	8
1.09800	10
1.10167	10
1.10533	9
1.10900	7
1.11267	4
1.11633	5
1.12000	7
1.12367	8
1.12733	10
1.13100	11
1.13467	11
1.13833	9
1.14200	8
1.14567	7
1.14933	6
1.15300	5
1.15667	4
1.16033	3
1.16400	3
1.16767	4
1.17133	5
1.17500	7
1.17867	7
1.18233	8
1.18600	11
1.18967	11
1.19333	10
1.19700	7
1.20067	6
1.20433	8
1.20800	8
1.21167	9
1.21533	8
1.21900	7
1.22267	9
1.22633	11
1.23000	12
1.23367	14
1.23733	14
1.24100	16
1.24467	15
1.24833	13
1.25200	11
1.25567	9
1.25933	10
1.26300	13
1.26667	14
1.27033	14
1.27400	14
1.27767	15
1.28133	18
1.28500	17
1.28867	15
1.29233	12
1.29600	11
1.29967	12
1.30333	15
1.30700	16
1.31067	14
1.31433	12
1.31800	12
1.32167	13
1.32533	13
1.32900	13
1.33267	11
1.33633	10
1.34000	12
1.34367	13
1.34733	14
1.35100	15
1.35467	17
1.35833	18
1.36200	18
1.36567	17
1.36933	18
1.37300	16
1.37667	15
1.38033	14
1.38400	15
1.38767	15
1.39133	12
1.39500	10
1.39867	10
1.40233	10
1.40600	9
1.40967	10
1.41333	11
1.41700	11
1.42067	11
1.42433	10
1.42800	9
1.43167	9
1.43533	7
1.43900	10
1.44267	12
1.44633	12
1.45000	12
1.45367	14
1.45733	14
1.46100	14
1.46467	17
1.46833	19
1.47200	19
1.47567	20
1.47933	20
1.48300	17
1.48667	16
1.49033	16
1.49400	14
1.49767	14
1.50133	13
1.50500	14
1.50867	15
1.51233	16
1.51600	17
1.51967	18
1.52333	17
1.52700	18
1.53067	18
1.53433	16
1.53800	14
1.54167	15
1.54533	15
1.54900	15
1.55267	16
1.55633	17
1.56000	18
1.56367	16
1.56733	16
1.57100	16
1.57467	20
1.57833	21
1.58200	20
1.58567	20
1.58933	19
1.59300	17
1.59667	18
1.60033	20
1.60400	21
1.60767	22
1.61133	21
1.61500	18
1.61867	18
1.62233	18
1.62600	20
1.62967	22
1.63333	23
1.63700	22
1.64067	21
1.64433	23
1.64800	25
1.65167	27
1.65533	27
1.65900	28
1.66267	29
1.66633	30
1.67000	30
1.67367	31
1.67733	31
1.68100	32
1.68467	34
1.68833	35
1.69200	36
1.69567	37
1.69933	38
1.70300	38
1.70667	37
1.71033	35
1.71400	34
1.71767	36
1.72133	38
1.72500	38
1.72867	39
1.73233	40
1.73600	40
1.73967	40
1.74333	39
1.74700	38
1.75067	38
1.75433	37
1.75800	36
1.76167	36
1.76533	35
1.76900	36
1.77267	37
1.77633	36
1.78000	38
1.78367	40
1.78733	41
1.79100	41
1.79467	41
1.79833	41
1.80200	41
1.80567	43
1.80933	44
1.81300	46
1.81667	48
1.82033	47
1.82400	48
1.82767	49
1.83133	50
1.83500	49
1.83867	49
1.84233	51
1.84600	51
1.84967	51
1.85333	51
1.85700	52
1.86067	52
1.86433	52
1.86800	53
1.87167	54
1.87533	55
1.87900	56
1.88267	57
1.88633	57
1.89000	58
1.89367	58
1.89733	57
1.90100	57
1.90467	57
1.90833	56
1.91200	55
1.91567	58
1.91933	61
1.92300	62
1.92667	63
1.93033	64
1.93400	65
1.93767	65
1.94133	68
1.94500	71
1.94867	72
1.95233	73
1.95600	72
1.95967	72
1.96333	71
1.96700	72
1.97067	74
1.97433	77
1.97800	79
1.98167	79
1.98533	81
1.98900	83
1.99267	85
1.99633	87
2.00000	88
2.00367	89
2.00733	89
2.01100	87
2.01467	87
2.01833	88
2.02200	89
2.02567	90
2.02933	92
2.03300	93
2.03667	95
2.04033	96
2.04400	98
2.04767	101
2.05133	102
2.05500	103
2.05867	104
2.06233	104
2.06600	104
2.06967	105
2.07333	106
2.07700	107
2.08067	109
2.08433	112
2.08800	116
2.09167	117
2.09533	117
2.09900	119
2.10267	122
2.10633	123
2.11000	124
2.11367	126
2.11733	129
2.12100	132
2.12467	134
2.12833	135
2.13200	136
2.13567	136
2.13933	138
2.14300	140
2.14667	142
2.15033	143
2.15400	143
2.15767	145
2.16133	147
2.16500	149
2.16867	148
2.17233	149
2.17600	149
2.17967	149
2.18333	147
2.18700	146
2.19067	146
2.19433	147
2.19800	149
2.20167	152
2.20533	155
2.20900	158
2.21267	161
2.21633	163
2.22000	162
2.22367	162
2.22733	164
2.23100	166
2.23467	170
2.23833	171
2.24200	172
2.24567	173
2.24933	175
2.25300	176
2.25667	176
2.26033	176
2.26400	174
2.26767	173
2.27133	175
2.27500	176
2.27867	177
2.28233	179
2.28600	179
2.28967	182
2.29333	185
2.29700	187
2.30067	190
2.30433	193
2.30800	196
2.31167	196
2.31533	196
2.31900	197
2.32267	197
2.32633	195
2.33000	195
2.33367	196
2.33733	196
2.34100	196
2.34467	198
2.34833	202
2.35200	205
2.35567	207
2.35933	206
2.36300	207
2.36667	209
2.37033	209
2.37400	209
2.37767	211
2.38133	210
2.38500	210
2.38867	208
2.39233	207
2.39600	210
2.39967	216
2.40333	220
2.40700	224
2.41067	225
2.41433	225
2.41800	226
2.42167	229
2.42533	228
2.42900	227
2.43267	226
2.43633	226
2.44000	229
2.44367	287
2.44733	440
2.45100	609
2.45467	752
2.45833	832
2.46200	841
2.46567	808
2.46933	768
2.47300	738
2.47667	719
2.48033	701
2.48400	671
2.48767	626
2.49133	573
2.49500	524
2.49867	485
2.50233	459
2.50600	442
2.50967	437
2.51333	445
2.51700	463
2.52067	486
2.52433	507
2.52800	517
2.53167	516
2.53533	501
2.53900	476
2.54267	444
2.54633	413
2.55000	383
2.55367	357
2.55733	337
2.56100	320
2.56467	307
2.56833	296
2.57200	289
2.57567	286
2.57933	285
2.58300	284
2.58667	286
2.59033	289
2.59400	291
2.59767	293
2.60133	292
2.60500	287
2.60867	279
2.61233	270
2.61600	260
2.61967	250
2.62333	239
2.62700	229
2.63067	219
2.63433	208
2.63800	200
2.64167	189
2.64533	174
2.64900	161
2.65267	148
2.65633	135
2.66000	122
2.66367	110
2.66733	99
2.67100	91
2.67467	83
2.67833	76
2.68200	74
2.68567	72
2.68933	71
2.69300	72
2.69667	72
2.70033	72
2.70400	73
2.70767	76
2.71133	80
2.71500	83
2.71867	87
2.72233	91
2.72600	97
2.72967	103
2.73333	106
2.73700	110
2.74067	115
2.74433	120
2.74800	124
2.75167	128
2.75533	131
2.75900	132
2.76267	135
2.76633	138
2.77000	140
2.77367	143
2.77733	150
2.78100	155
2.78467	159
2.78833	161
2.79200	166
2.79567	174
2.79933	182
2.80300	190
2.80667	198
2.81033	202
2.81400	208
2.81767	215
2.82133	226
2.82500	245
2.82867	282
2.83233	352
2.83600	472
2.83967	665
2.84333	949
2.84700	1332
2.85067	1806
2.85433	2353
2.85800	2932
2.86167	3500
2.86533	4007
2.86900	4420
2.87267	4711
2.87633	4859
2.88000	4867
2.88367	4756
2.88733	4549
2.89100	4277
2.89467	3962
2.89833	3627
2.90200	3290
2.90567	2962
2.90933	2653
2.91300	2367
2.91667	2105
2.92033	1870
2.92400	1659
2.92767	1470
2.93133	1305
2.93500	1161
2.93867	1034
2.94233	924
2.94600	827
2.94967	742
2.95333	670
2.95700	608
2.96067	554
2.96433	508
2.96800	466
2.97167	429
2.97533	396
2.97900	368
2.98267	344
2.98633	325
2.99000	309
2.99367	293
2.99733	281
3.00100	273
3.00467	265
3.00833	258
3.01200	250
3.01567	243
3.01933	237
3.02300	232
3.02667	228
3.03033	224
3.03400	219
3.03767	218
3.04133	218
3.04500	218
3.04867	217
3.05233	213
3.05600	208
3.05967	201
3.06333	179
3.06700	146
3.07067	127
3.07433	126
3.07800	140
3.08167	166
3.08533	203
3.08900	248
3.09267	297
3.09633	348
3.10000	394
3.10367	436
3.10733	473
3.11100	507
3.11467	536
3.11833	561
3.12200	583
3.12567	601
3.12933	617
3.13300	629
3.13667	642
3.14033	654
3.14400	663
3.14767	671
3.15133	680
3.15500	690
3.15867	698
3.16233	705
3.16600	711
3.16967	715
3.17333	720
3.17700	725
3.18067	730
3.18433	737
3.18800	744
3.19167	754
3.19533	762
3.19900	769
3.20267	775
3.20633	780
3.21000	784
3.21367	790
3.21733	797
3.22100	805
3.22467	812
3.22833	818
3.23200	822
3.23567	825
3.23933	828
3.24300	835
3.24667	842
3.25033	847
3.25400	852
3.25767	855
3.26133	857
3.26500	863
3.26867	868
3.27233	872
3.27600	875
3.27967	877
3.28333	879
3.28700	880
3.29067	882
3.29433	884
3.29800	884
3.30167	883
3.30533	882
3.30900	883
3.31267	885
3.31633	887
3.32000	888
3.32367	889
3.32733	888
3.33100	885
3.33467	882
3.33833	881
3.34200	880
3.34567	881
3.34933	880
3.35300	879
3.35667	877
3.36033	875
3.36400	873
3.36767	871
3.37133	869
3.37500	867
3.37867	865
3.38233	862
3.38600	858
3.38967	856
3.39333	854
3.39700	853
3.40067	853
3.40433	852
3.40800	851
3.41167	850
3.41533	848
3.41900	844
3.42267	843
3.42633	842
3.43000	840
3.43367	837
3.43733	834
3.44100	834
3.44467	834
3.44833	833
3.45200	832
3.45567	831
3.45933	829
3.46300	827
3.46667	828
3.47033	830
3.47400	829
3.47767	826
3.48133	826
3.48500	825
3.48867	826
3.49233	826
3.49600	820
3.49967	816
3.50333	814
3.50700	813
3.51067	813
3.51433	812
3.51800	810
3.52167	809
3.52533	808
3.52900	806
3.53267	807
3.53633	807
3.54000	808
3.54367	806
3.54733	802
3.55100	799
3.55467	797
3.55833	795
3.56200	794
3.56567	795
3.56933	796
3.57300	798
3.57667	800
3.58033	799
3.58400	797
3.58767	794
3.59133	791
3.59500	790
3.59867	790
3.60233	791
3.60600	789
3.60967	787
3.61333	784
3.61700	784
3.62067	784
3.62433	782
3.62800	781
3.63167	778
3.63533	777
3.63900	776
3.64267	774
3.64633	772
3.65000	768
3.65367	766
3.65733	766
3.66100	766
3.66467	763
3.66833	763
3.67200	764
3.67567	763
3.67933	762
3.68300	760
3.68667	758
3.69033	753
3.69400	750
3.69767	750
3.70133	751
3.70500	752
3.70867	752
3.71233	751
3.71600	746
3.71967	742
3.72333	741
3.72700	740
3.73067	736
3.73433	734
3.73800	733
3.74167	733
3.74533	731
3.74900	730
3.75267	727
3.75633	725
3.76000	723
3.76367	718
3.76733	713
3.77100	710
3.77467	708
3.77833	708
3.78200	708
3.78567	705
3.78933	704
3.79300	704
3.79667	703
3.80033	700
3.80400	695
3.80767	692
3.81133	692
3.81500	691
3.81867	688
3.82233	686
3.82600	685
3.82967	682
3.83333	679
3.83700	677
3.84067	675
3.84433	674
3.84800	676
3.85167	675
3.85533	674
3.85900	673
3.86267	670
3.86633	666
3.87000	665
3.87367	662
3.87733	659
3.88100	657
3.88467	655
3.88833	655
3.89200	654
3.89567	652
3.89933	650
3.90300	649
3.90667	645
3.91033	639
3.91400	635
3.91767	635
3.92133	636
3.92500	634
3.92867	631
3.93233	629
3.93600	629
3.93967	626
3.94333	625
3.94700	624
3.95067	624
3.95433	623
3.95800	623
3.96167	623
3.96533	623
3.96900	623
3.97267	623
3.97633	623
3.98000	623
3.98367	623
3.98733	620
3.99100	618
3.99467	617
3.99833	615

[Status Trace (Column Oven Temperature)]
Interval(msec)	1000
# of Points	240
Start Time(min)	0.006
End Time(min)	3.989
Intensity Units	
Intensity Multiplier	1
R.Time (min)	Intensity
0.00613	35.06
0.02280	35.04
0.03947	35.04
0.05613	35.04
0.07280	35.04
0.08947	35.04
0.10613	35.04
0.12280	35.06
0.13947	35.05
0.15613	35.05
0.17280	35.04
0.18947	35.03
0.20613	35.03
0.22280	35.03
0.23947	35.02
0.25613	35.02
0.27280	35.03
0.28947	35.04
0.30613	35.05
0.32280	35.04
0.33947	35.04
0.35613	35.03
0.37280	35.01
0.38947	35.02
0.40613	35.02
0.42280	35.02
0.43947	35.02
0.45613	35.01
0.47280	35.00
0.48947	35.00
0.50613	35.00
0.52280	35.00
0.53947	35.00
0.55613	35.00
0.57280	35.00
0.58947	35.01
0.60613	35.02
0.62280	35.03
0.63947	35.03
0.65613	35.03
0.67280	35.02
0.68947	35.01
0.70613	34.99
0.72280	34.98
0.73947	34.98
0.75613	34.98
0.77280	34.98
0.78947	34.99
0.80613	34.99
0.82280	34.99
0.83947	34.99
0.85613	34.98
0.87280	34.99
0.88947	35.00
0.90613	35.00
0.92280	35.01
0.93947	35.01
0.95613	35.01
0.97280	35.01
0.98947	35.00
1.00613	34.99
1.02280	34.98
1.03947	34.99
1.05613	35.00
1.07280	35.00
1.08947	35.00
1.10613	35.00
1.12280	35.00
1.13947	34.99
1.15613	34.98
1.17280	34.97
1.18947	34.98
1.20613	35.00
1.22280	35.01
1.23947	35.00
1.25613	35.00
1.27280	35.00
1.28947	35.01
1.30613	35.01
1.32280	35.01
1.33947	35.01
1.35613	35.01
1.37280	35.01
1.38947	35.01
1.40613	35.00
1.42280	34.99
1.43947	34.98
1.45613	34.98
1.47280	34.99
1.48947	34.99
1.50613	34.99
1.52280	34.98
1.53947	34.97
1.55613	34.97
1.57280	34.99
1.58947	35.01
1.60613	35.07
1.62280	35.19
1.63947	35.38
1.65613	35.61
1.67280	35.92
1.68947	36.29
1.70613	36.63
1.72280	36.98
1.73947	37.30
1.75613	37.64
1.77280	37.99
1.78947	38.30
1.80613	38.63
1.82280	38.97
1.83947	39.29
1.85613	39.62
1.87280	39.97
1.88947	40.29
1.90613	40.63
1.92280	40.96
1.93947	41.27
1.95613	41.60
1.97280	41.93
1.98947	42.24
2.00613	42.58
2.02280	42.91
2.03947	43.23
2.05613	43.56
2.07280	43.90
2.08947	44.24
2.10613	44.55
2.12280	44.87
2.13947	45.21
2.15613	45.52
2.17280	45.86
2.18947	46.18
2.20613	46.49
2.22280	46.82
2.23947	47.14
2.25613	47.45
2.27280	47.81
2.28947	48.13
2.30613	48.47
2.32280	48.80
2.33947	49.14
2.35613	49.43
2.37280	49.60
2.38947	49.65
2.40613	49.63
2.42280	49.64
2.43947	49.64
2.45613	49.65
2.47280	49.66
2.48947	49.68
2.50613	49.68
2.52280	49.69
2.53947	49.71
2.55613	49.73
2.57280	49.74
2.58947	49.75
2.60613	49.76
2.62280	49.80
2.63947	49.80
2.65613	49.82
2.67280	49.83
2.68947	49.83
2.70613	49.83
2.72280	49.84
2.73947	49.86
2.75613	49.87
2.77280	49.88
2.78947	49.86
2.80613	49.85
2.82280	49.86
2.83947	49.89
2.85613	49.91
2.87280	49.92
2.88947	49.91
2.90613	49.90
2.92280	49.90
2.93947	49.92
2.95613	49.94
2.97280	49.96
2.98947	49.96
3.00613	49.96
3.02280	49.95
3.03947	49.95
3.05613	49.95
3.07280	49.96
3.08947	49.97
3.10613	49.98
3.12280	49.99
3.13947	50.01
3.15613	50.02
3.17280	50.02
3.18947	50.02
3.20613	50.03
3.22280	50.03
3.23947	50.03
3.25613	50.04
3.27280	50.06
3.28947	50.08
3.30613	50.07
3.32280	50.08
3.33947	50.08
3.35613	50.08
3.37280	50.09
3.38947	50.08
3.40613	50.08
3.42280	50.09
3.43947	50.10
3.45613	50.11
3.47280	50.11
3.48947	50.10
3.50613	50.09
3.52280	50.08
3.53947	50.06
3.55613	50.07
3.57280	50.06
3.58947	50.07
3.60613	50.06
3.62280	50.05
3.63947	50.05
3.65613	50.04
3.67280	50.04
3.68947	50.05
3.70613	50.04
3.72280	50.05
3.73947	50.05
3.75613	50.05
3.77280	50.05
3.78947	50.06
3.80613	50.07
3.82280	50.07
3.83947	50.08
3.85613	50.08
3.87280	50.08
3.88947	50.06
3.90613	50.06
3.92280	50.05
3.93947	50.05
3.95613	50.06
3.97280	50.07
3.98947	50.06

[Status Trace (Injection Unit Temperature)]
Interval(msec)	1000
# of Points	240
Start Time(min)	0.006
End Time(min)	3.989
Intensity Units	
Intensity Multiplier	1
R.Time (min)	Intensity
0.00613	99.98
0.02280	99.98
0.03947	99.98
0.05613	99.99
0.07280	99.98
0.08947	99.98
0.10613	99.99
0.12280	99.98
0.13947	99.99
0.15613	99.99
0.17280	99.98
0.18947	99.99
0.20613	99.99
0.22280	99.99
0.23947	99.99
0.25613	99.98
0.27280	99.99
0.28947	99.98
0.30613	99.99
0.32280	99.99
0.33947	99.99
0.35613	99.98
0.37280	99.99
0.38947	99.99
0.40613	99.99
0.42280	99.99
0.43947	99.98
0.45613	99.99
0.47280	99.98
0.48947	99.99
0.50613	99.98
0.52280	99.99
0.53947	99.98
0.55613	99.99
0.57280	99.98
0.58947	99.98
0.60613	99.98
0.62280	99.99
0.63947	99.98
0.65613	99.98
0.67280	99.98
0.68947	99.99
0.70613	99.99
0.72280	99.99
0.73947	99.98
0.75613	99.99
0.77280	99.99
0.78947	99.98
0.80613	99.98
0.82280	99.98
0.83947	99.98
0.85613	99.98
0.87280	99.98
0.88947	99.98
0.90613	99.99
0.92280	99.99
0.93947	99.99
0.95613	99.98
0.97280	99.99
0.98947	99.98
1.00613	99.98
1.02280	99.99
1.03947	99.98
1.05613	99.98
1.07280	99.98
1.08947	99.99
1.10613	99.98
1.12280	99.98
1.13947	99.99
1.15613	99.98
1.17280	99.99
1.18947	99.99
1.20613	99.99
1.22280	99.99
1.23947	99.98
1.25613	99.99
1.27280	99.99
1.28947	99.99
1.30613	99.99
1.32280	99.99
1.33947	99.99
1.35613	99.99
1.37280	99.98
1.38947	99.98
1.40613	99.99
1.42280	99.99
1.43947	99.98
1.45613	99.99
1.47280	99.98
1.48947	99.98
1.50613	99.98
1.52280	99.99
1.53947	99.98
1.55613	99.98
1.57280	99.98
1.58947	99.98
1.60613	99.99
1.62280	99.98
1.63947	99.98
1.65613	99.98
1.67280	99.98
1.68947	99.98
1.70613	99.98
1.72280	99.98
1.73947	99.98
1.75613	99.98
1.77280	99.98
1.78947	99.98
1.80613	99.98
1.82280	99.98
1.83947	99.98
1.85613	99.98
1.87280	99.98
1.88947	99.98
1.90613	99.98
1.92280	99.98
1.93947	99.98
1.95613	99.98
1.97280	99.98
1.98947	99.98
2.00613	99.98
2.02280	99.98
2.03947	99.98
2.05613	99.97
2.07280	99.97
2.08947	99.98
2.10613	99.98
2.12280	99.97
2.13947	99.97
2.15613	99.97
2.17280	99.97
2.18947	99.97
2.20613	99.97
2.22280	99.97
2.23947	99.96
2.25613	99.97
2.27280	99.97
2.28947	99.97
2.30613	99.97
2.32280	99.97
2.33947	99.97
2.35613	99.97
2.37280	99.97
2.38947	99.97
2.40613	99.97
2.42280	99.97
2.43947	99.97
2.45613	99.97
2.47280	99.97
2.48947	99.97
2.50613	99.97
2.52280	99.97
2.53947	99.98
2.55613	99.98
2.57280	99.98
2.58947	99.98
2.60613	99.97
2.62280	99.98
2.63947	99.98
2.65613	99.98
2.67280	99.98
2.68947	99.98
2.70613	99.99
2.72280	99.99
2.73947	99.99
2.75613	99.99
2.77280	99.99
2.78947	99.99
2.80613	99.99
2.82280	99.99
2.83947	99.99
2.85613	99.99
2.87280	100.00
2.88947	100.00
2.90613	100.00
2.92280	100.00
2.93947	100.00
2.95613	100.00
2.97280	100.00
2.98947	100.01
3.00613	100.00
3.02280	100.00
3.03947	100.00
3.05613	100.01
3.07280	100.01
3.08947	100.01
3.10613	100.01
3.12280	100.01
3.13947	100.01
3.15613	100.01
3.17280	100.01
3.18947	100.02
3.20613	100.02
3.22280	100.02
3.23947	100.02
3.25613	100.02
3.27280	100.02
3.28947	100.02
3.30613	100.02
3.32280	100.02
3.33947	100.03
3.35613	100.03
3.37280	100.03
3.38947	100.03
3.40613	100.03
3.42280	100.03
3.43947	100.03
3.45613	100.03
3.47280	100.03
3.48947	100.04
3.50613	100.04
3.52280	100.04
3.53947	100.04
3.55613	100.04
3.57280	100.04
3.58947	100.04
3.60613	100.04
3.62280	100.04
3.63947	100.04
3.65613	100.04
3.67280	100.04
3.68947	100.04
3.70613	100.04
3.72280	100.04
3.73947	100.04
3.75613	100.04
3.77280	100.04
3.78947	100.04
3.80613	100.04
3.82280	100.04
3.83947	100.04
3.85613	100.04
3.87280	100.03
3.88947	100.04
3.90613	100.04
3.92280	100.05
3.93947	100.05
3.95613	100.04
3.97280	100.05
3.98947	100.04

[Status Trace (Carrier Gas Pressure)]
Interval(msec)	1000
# of Points	240
Start Time(min)	0.006
End Time(min)	3.989
Intensity Units	
Intensity Multiplier	1
R.Time (min)	Intensity
0.00613	58.00
0.02280	55.59
0.03947	56.83
0.05613	59.05
0.07280	59.55
0.08947	58.12
0.10613	57.98
0.12280	58.01
0.13947	58.01
0.15613	58.01
0.17280	58.00
0.18947	58.00
0.20613	58.00
0.22280	58.00
0.23947	58.00
0.25613	58.00
0.27280	58.00
0.28947	58.00
0.30613	58.00
0.32280	58.00
0.33947	58.00
0.35613	58.00
0.37280	58.00
0.38947	58.00
0.40613	58.00
0.42280	58.00
0.43947	58.00
0.45613	58.00
0.47280	58.00
0.48947	58.00
0.50613	58.00
0.52280	58.00
0.53947	58.00
0.55613	58.00
0.57280	58.00
0.58947	58.00
0.60613	58.00
0.62280	58.00
0.63947	58.00
0.65613	58.00
0.67280	58.00
0.68947	58.00
0.70613	58.00
0.72280	58.00
0.73947	58.00
0.75613	58.00
0.77280	58.00
0.78947	58.00
0.80613	58.00
0.82280	58.00
0.83947	58.00
0.85613	58.00
0.87280	58.00
0.88947	58.00
0.90613	58.00
0.92280	58.00
0.93947	58.00
0.95613	58.00
0.97280	58.00
0.98947	58.00
1.00613	58.00
1.02280	58.00
1.03947	58.00
1.05613	58.00
1.07280	58.00
1.08947	58.00
1.10613	58.00
1.12280	58.00
1.13947	58.00
1.15613	58.00
1.17280	58.00
1.18947	58.00
1.20613	58.00
1.22280	58.00
1.23947	58.00
1.25613	58.00
1.27280	58.00
1.28947	58.00
1.30613	58.00
1.32280	58.00
1.33947	58.00
1.35613	58.00
1.37280	58.00
1.38947	58.00
1.40613	58.00
1.42280	58.00
1.43947	58.00
1.45613	58.00
1.47280	58.00
1.48947	58.00
1.50613	58.00
1.52280	58.00
1.53947	58.00
1.55613	58.00
1.57280	58.00
1.58947	58.00
1.60613	58.00
1.62280	58.00
1.63947	58.00
1.65613	58.00
1.67280	58.01
1.68947	58.01
1.70613	58.00
1.72280	58.00
1.73947	58.00
1.75613	58.00
1.77280	58.00
1.78947	58.00
1.80613	58.00
1.82280	58.00
1.83947	58.00
1.85613	58.00
1.87280	58.00
1.88947	58.00
1.90613	58.00
1.92280	58.00
1.93947	58.00
1.95613	58.00
1.97280	58.00
1.98947	58.00
2.00613	58.00
2.02280	58.00
2.03947	58.00
2.05613	58.00
2.07280	58.00
2.08947	58.00
2.10613	58.00
2.12280	58.00
2.13947	58.00
2.15613	58.00
2.17280	58.00
2.18947	58.00
2.20613	58.00
2.22280	58.00
2.23947	58.00
2.25613	58.00
2.27280	58.00
2.28947	58.00
2.30613	58.00
2.32280	58.00
2.33947	58.00
2.35613	58.00
2.37280	58.00
2.38947	57.99
2.40613	57.99
2.42280	58.00
2.43947	58.00
2.45613	58.00
2.47280	58.00
2.48947	58.00
2.50613	57.99
2.52280	57.98
2.53947	58.00
2.55613	58.00
2.57280	58.00
2.58947	58.00
2.60613	58.00
2.62280	58.00
2.63947	58.00
2.65613	58.00
2.67280	58.00
2.68947	58.00
2.70613	58.00
2.72280	58.00
2.73947	58.00
2.75613	58.00
2.77280	58.00
2.78947	58.00
2.80613	58.00
2.82280	58.00
2.83947	58.00
2.85613	58.00
2.87280	58.00
2.88947	58.00
2.90613	58.00
2.92280	58.00
2.93947	58.00
2.95613	58.00
2.97280	58.00
2.98947	58.00
3.00613	58.00
3.02280	58.00
3.03947	58.00
3.05613	58.00
3.07280	58.00
3.08947	58.00
3.10613	58.00
3.12280	58.00
3.13947	58.00
3.15613	58.00
3.17280	58.00
3.18947	58.00
3.20613	58.00
3.22280	58.00
3.23947	58.00
3.25613	58.00
3.27280	58.00
3.28947	58.00
3.30613	58.00
3.32280	58.00
3.33947	58.00
3.35613	58.00
3.37280	58.00
3.38947	58.00
3.40613	58.00
3.42280	58.00
3.43947	58.00
3.45613	58.00
3.47280	58.00
3.48947	58.00
3.50613	58.00
3.52280	58.00
3.53947	58.00
3.55613	58.00
3.57280	58.00
3.58947	58.00
3.60613	58.00
3.62280	58.00
3.63947	58.00
3.65613	58.00
3.67280	58.00
3.68947	58.00
3.70613	58.00
3.72280	58.00
3.73947	58.00
3.75613	58.00
3.77280	58.00
3.78947	58.00
3.80613	58.00
3.82280	58.00
3.83947	58.00
3.85613	58.00
3.87280	58.00
3.88947	58.00
3.90613	58.00
3.92280	58.00
3.93947	58.00
3.95613	58.00
3.97280	58.00
3.98947	58.00

[Status Trace (Carrier Gas Flow)]
Interval(msec)	1000
# of Points	240
Start Time(min)	0.006
End Time(min)	3.989
Intensity Units	
Intensity Multiplier	1
R.Time (min)	Intensity
0.00613	34.51
0.02280	34.54
0.03947	34.55
0.05613	34.55
0.07280	34.50
0.08947	34.51
0.10613	34.51
0.12280	34.52
0.13947	34.52
0.15613	34.52
0.17280	34.52
0.18947	34.51
0.20613	34.52
0.22280	34.52
0.23947	34.52
0.25613	34.52
0.27280	34.52
0.28947	34.52
0.30613	34.52
0.32280	34.52
0.33947	34.52
0.35613	34.52
0.37280	34.53
0.38947	34.52
0.40613	34.52
0.42280	34.52
0.43947	34.52
0.45613	34.52
0.47280	34.52
0.48947	34.51
0.50613	34.52
0.52280	34.52
0.53947	34.52
0.55613	34.53
0.57280	34.52
0.58947	34.52
0.60613	34.52
0.62280	34.52
0.63947	34.52
0.65613	34.52
0.67280	34.51
0.68947	34.53
0.70613	34.51
0.72280	34.52
0.73947	34.52
0.75613	34.52
0.77280	34.51
0.78947	34.53
0.80613	34.52
0.82280	34.52
0.83947	34.52
0.85613	34.51
0.87280	34.51
0.88947	34.52
0.90613	34.52
0.92280	34.52
0.93947	34.53
0.95613	34.52
0.97280	34.52
0.98947	34.52
1.00613	34.52
1.02280	34.52
1.03947	34.52
1.05613	34.52
1.07280	34.52
1.08947	34.52
1.10613	34.52
1.12280	34.52
1.13947	34.52
1.15613	34.52
1.17280	34.52
1.18947	34.51
1.20613	34.52
1.22280	34.53
1.23947	34.53
1.25613	34.52
1.27280	34.52
1.28947	34.52
1.30613	34.52
1.32280	34.52
1.33947	34.52
1.35613	34.52
1.37280	34.51
1.38947	34.52
1.40613	34.52
1.42280	34.52
1.43947	34.53
1.45613	34.52
1.47280	34.52
1.48947	34.52
1.50613	34.52
1.52280	34.52
1.53947	34.52
1.55613	34.51
1.57280	34.52
1.58947	34.52
1.60613	34.52
1.62280	34.52
1.63947	34.52
1.65613	34.52
1.67280	34.52
1.68947	34.52
1.70613	34.52
1.72280	34.51
1.73947	34.52
1.75613	34.52
1.77280	34.52
1.78947	34.52
1.80613	34.52
1.82280	34.52
1.83947	34.53
1.85613	34.52
1.87280	34.52
1.88947	34.53
1.90613	34.52
1.92280	34.52
1.93947	34.52
1.95613	34.52
1.97280	34.52
1.98947	34.52
2.00613	34.52
2.02280	34.52
2.03947	34.52
2.05613	34.52
2.07280	34.52
2.08947	34.52
2.10613	34.52
2.12280	34.52
2.13947	34.52
2.15613	34.52
2.17280	34.52
2.18947	34.52
2.20613	34.52
2.22280	34.52
2.23947	34.52
2.25613	34.52
2.27280	34.51
2.28947	34.52
2.30613	34.52
2.32280	34.52
2.33947	34.52
2.35613	34.52
2.37280	34.52
2.38947	34.51
2.40613	34.52
2.42280	34.53
2.43947	34.52
2.45613	34.52
2.47280	34.51
2.48947	34.52
2.50613	34.46
2.52280	34.51
2.53947	34.52
2.55613	34.52
2.57280	34.52
2.58947	34.52
2.60613	34.52
2.62280	34.52
2.63947	34.52
2.65613	34.52
2.67280	34.52
2.68947	34.51
2.70613	34.52
2.72280	34.51
2.73947	34.52
2.75613	34.52
2.77280	34.52
2.78947	34.52
2.80613	34.51
2.82280	34.52
2.83947	34.52
2.85613	34.52
2.87280	34.52
2.88947	34.51
2.90613	34.52
2.92280	34.51
2.93947	34.52
2.95613	34.52
2.97280	34.52
2.98947	34.52
3.00613	34.51
3.02280	34.51
3.03947	34.52
3.05613	34.52
3.07280	34.52
3.08947	34.52
3.10613	34.52
3.12280	34.51
3.13947	34.52
3.15613	34.52
3.17280	34.52
3.18947	34.51
3.20613	34.51
3.22280	34.52
3.23947	34.52
3.25613	34.52
3.27280	34.52
3.28947	34.52
3.30613	34.52
3.32280	34.52
3.33947	34.53
3.35613	34.52
3.37280	34.52
3.38947	34.52
3.40613	34.52
3.42280	34.52
3.43947	34.52
3.45613	34.52
3.47280	34.52
3.48947	34.52
3.50613	34.52
3.52280	34.52
3.53947	34.52
3.55613	34.52
3.57280	34.52
3.58947	34.52
3.60613	34.52
3.62280	34.52
3.63947	34.52
3.65613	34.51
3.67280	34.52
3.68947	34.52
3.70613	34.52
3.72280	34.52
3.73947	34.52
3.75613	34.52
3.77280	34.52
3.78947	34.52
3.80613	34.51
3.82280	34.52
3.83947	34.52
3.85613	34.51
3.87280	34.51
3.88947	34.52
3.90613	34.52
3.92280	34.52
3.93947	34.52
3.95613	34.52
3.97280	34.52
3.98947	34.52

[Status Trace (Column Flow)]
Interval(msec)	1000
# of Points	240
Start Time(min)	0.006
End Time(min)	3.989
Intensity Units	
Intensity Multiplier	1
R.Time (min)	Intensity
0.00613	5.55
0.02280	5.27
0.03947	5.42
0.05613	5.68
0.07280	5.74
0.08947	5.57
0.10613	5.55
0.12280	5.55
0.13947	5.55
0.15613	5.55
0.17280	5.55
0.18947	5.55
0.20613	5.55
0.22280	5.55
0.23947	5.55
0.25613	5.55
0.27280	5.55
0.28947	5.55
0.30613	5.55
0.32280	5.55
0.33947	5.55
0.35613	5.55
0.37280	5.55
0.38947	5.55
0.40613	5.55
0.42280	5.55
0.43947	5.55
0.45613	5.55
0.47280	5.55
0.48947	5.55
0.50613	5.55
0.52280	5.55
0.53947	5.55
0.55613	5.55
0.57280	5.55
0.58947	5.55
0.60613	5.55
0.62280	5.55
0.63947	5.55
0.65613	5.55
0.67280	5.55
0.68947	5.55
0.70613	5.55
0.72280	5.55
0.73947	5.55
0.75613	5.55
0.77280	5.55
0.78947	5.55
0.80613	5.55
0.82280	5.55
0.83947	5.55
0.85613	5.55
0.87280	5.55
0.88947	5.55
0.90613	5.55
0.92280	5.55
0.93947	5.55
0.95613	5.55
0.97280	5.55
0.98947	5.55
1.00613	5.55
1.02280	5.55
1.03947	5.55
1.05613	5.55
1.07280	5.55
1.08947	5.55
1.10613	5.55
1.12280	5.55
1.13947	5.55
1.15613	5.55
1.17280	5.55
1.18947	5.55
1.20613	5.55
1.22280	5.55
1.23947	5.55
1.25613	5.55
1.27280	5.55
1.28947	5.55
1.30613	5.55
1.32280	5.55
1.33947	5.55
1.35613	5.55
1.37280	5.55
1.38947	5.55
1.40613	5.55
1.42280	5.55
1.43947	5.55
1.45613	5.55
1.47280	5.55
1.48947	5.55
1.50613	5.55
1.52280	5.55
1.53947	5.55
1.55613	5.55
1.57280	5.55
1.58947	5.55
1.60613	5.55
1.62280	5.55
1.63947	5.54
1.65613	5.53
1.67280	5.52
1.68947	5.51
1.70613	5.50
1.72280	5.49
1.73947	5.48
1.75613	5.47
1.77280	5.46
1.78947	5.45
1.80613	5.44
1.82280	5.43
1.83947	5.42
1.85613	5.41
1.87280	5.40
1.88947	5.39
1.90613	5.38
1.92280	5.37
1.93947	5.36
1.95613	5.35
1.97280	5.34
1.98947	5.33
2.00613	5.32
2.02280	5.31
2.03947	5.30
2.05613	5.29
2.07280	5.28
2.08947	5.27
2.10613	5.26
2.12280	5.25
2.13947	5.24
2.15613	5.23
2.17280	5.22
2.18947	5.22
2.20613	5.21
2.22280	5.20
2.23947	5.19
2.25613	5.18
2.27280	5.17
2.28947	5.16
2.30613	5.15
2.32280	5.14
2.33947	5.13
2.35613	5.12
2.37280	5.12
2.38947	5.12
2.40613	5.12
2.42280	5.12
2.43947	5.12
2.45613	5.12
2.47280	5.12
2.48947	5.12
2.50613	5.12
2.52280	5.11
2.53947	5.12
2.55613	5.12
2.57280	5.11
2.58947	5.11
2.60613	5.11
2.62280	5.11
2.63947	5.11
2.65613	5.11
2.67280	5.11
2.68947	5.11
2.70613	5.11
2.72280	5.11
2.73947	5.11
2.75613	5.11
2.77280	5.11
2.78947	5.11
2.80613	5.11
2.82280	5.11
2.83947	5.11
2.85613	5.11
2.87280	5.11
2.88947	5.11
2.90613	5.11
2.92280	5.11
2.93947	5.11
2.95613	5.11
2.97280	5.11
2.98947	5.11
3.00613	5.11
3.02280	5.11
3.03947	5.11
3.05613	5.11
3.07280	5.11
3.08947	5.11
3.10613	5.11
3.12280	5.11
3.13947	5.11
3.15613	5.11
3.17280	5.11
3.18947	5.11
3.20613	5.11
3.22280	5.11
3.23947	5.11
3.25613	5.11
3.27280	5.11
3.28947	5.11
3.30613	5.11
3.32280	5.11
3.33947	5.11
3.35613	5.11
3.37280	5.11
3.38947	5.11
3.40613	5.11
3.42280	5.11
3.43947	5.10
3.45613	5.10
3.47280	5.10
3.48947	5.11
3.50613	5.11
3.52280	5.11
3.53947	5.11
3.55613	5.11
3.57280	5.11
3.58947	5.11
3.60613	5.11
3.62280	5.11
3.63947	5.11
3.65613	5.11
3.67280	5.11
3.68947	5.11
3.70613	5.11
3.72280	5.11
3.73947	5.11
3.75613	5.11
3.77280	5.11
3.78947	5.11
3.80613	5.11
3.82280	5.11
3.83947	5.11
3.85613	5.11
3.87280	5.11
3.88947	5.11
3.90613	5.11
3.92280	5.11
3.93947	5.11
3.95613	5.11
3.97280	5.11
3.98947	5.11

[Status Trace (Linear Velocity)]
Interval(msec)	1000
# of Points	240
Start Time(min)	0.006
End Time(min)	3.989
Intensity Units	
Intensity Multiplier	1
R.Time (min)	Intensity
0.00613	39.02
0.02280	37.44
0.03947	38.26
0.05613	39.71
0.07280	40.04
0.08947	39.10
0.10613	39.00
0.12280	39.02
0.13947	39.03
0.15613	39.02
0.17280	39.02
0.18947	39.02
0.20613	39.02
0.22280	39.02
0.23947	39.02
0.25613	39.02
0.27280	39.02
0.28947	39.02
0.30613	39.02
0.32280	39.02
0.33947	39.02
0.35613	39.02
0.37280	39.02
0.38947	39.02
0.40613	39.02
0.42280	39.02
0.43947	39.02
0.45613	39.02
0.47280	39.02
0.48947	39.02
0.50613	39.03
0.52280	39.02
0.53947	39.02
0.55613	39.03
0.57280	39.02
0.58947	39.02
0.60613	39.02
0.62280	39.02
0.63947	39.02
0.65613	39.02
0.67280	39.02
0.68947	39.02
0.70613	39.02
0.72280	39.03
0.73947	39.03
0.75613	39.03
0.77280	39.03
0.78947	39.02
0.80613	39.02
0.82280	39.03
0.83947	39.03
0.85613	39.03
0.87280	39.03
0.88947	39.02
0.90613	39.02
0.92280	39.02
0.93947	39.02
0.95613	39.02
0.97280	39.02
0.98947	39.02
1.00613	39.02
1.02280	39.03
1.03947	39.02
1.05613	39.02
1.07280	39.02
1.08947	39.02
1.10613	39.02
1.12280	39.02
1.13947	39.03
1.15613	39.03
1.17280	39.03
1.18947	39.03
1.20613	39.02
1.22280	39.02
1.23947	39.02
1.25613	39.02
1.27280	39.02
1.28947	39.02
1.30613	39.02
1.32280	39.02
1.33947	39.02
1.35613	39.02
1.37280	39.02
1.38947	39.02
1.40613	39.02
1.42280	39.03
1.43947	39.03
1.45613	39.03
1.47280	39.03
1.48947	39.03
1.50613	39.03
1.52280	39.03
1.53947	39.03
1.55613	39.03
1.57280	39.03
1.58947	39.02
1.60613	39.02
1.62280	39.01
1.63947	38.99
1.65613	38.97
1.67280	38.94
1.68947	38.90
1.70613	38.87
1.72280	38.84
1.73947	38.80
1.75613	38.77
1.77280	38.74
1.78947	38.71
1.80613	38.68
1.82280	38.65
1.83947	38.62
1.85613	38.59
1.87280	38.55
1.88947	38.52
1.90613	38.49
1.92280	38.46
1.93947	38.43
1.95613	38.40
1.97280	38.37
1.98947	38.34
2.00613	38.31
2.02280	38.28
2.03947	38.25
2.05613	38.22
2.07280	38.19
2.08947	38.16
2.10613	38.13
2.12280	38.10
2.13947	38.07
2.15613	38.04
2.17280	38.01
2.18947	37.98
2.20613	37.95
2.22280	37.92
2.23947	37.89
2.25613	37.87
2.27280	37.84
2.28947	37.81
2.30613	37.78
2.32280	37.75
2.33947	37.72
2.35613	37.69
2.37280	37.67
2.38947	37.67
2.40613	37.67
2.42280	37.67
2.43947	37.67
2.45613	37.67
2.47280	37.67
2.48947	37.67
2.50613	37.66
2.52280	37.66
2.53947	37.66
2.55613	37.67
2.57280	37.66
2.58947	37.66
2.60613	37.66
2.62280	37.66
2.63947	37.66
2.65613	37.66
2.67280	37.65
2.68947	37.65
2.70613	37.66
2.72280	37.65
2.73947	37.65
2.75613	37.65
2.77280	37.65
2.78947	37.65
2.80613	37.65
2.82280	37.65
2.83947	37.65
2.85613	37.65
2.87280	37.65
2.88947	37.65
2.90613	37.65
2.92280	37.65
2.93947	37.65
2.95613	37.65
2.97280	37.64
2.98947	37.64
3.00613	37.64
3.02280	37.64
3.03947	37.64
3.05613	37.64
3.07280	37.64
3.08947	37.64
3.10613	37.64
3.12280	37.64
3.13947	37.64
3.15613	37.64
3.17280	37.64
3.18947	37.64
3.20613	37.64
3.22280	37.64
3.23947	37.64
3.25613	37.64
3.27280	37.63
3.28947	37.63
3.30613	37.63
3.32280	37.63
3.33947	37.63
3.35613	37.63
3.37280	37.63
3.38947	37.63
3.40613	37.63
3.42280	37.63
3.43947	37.63
3.45613	37.63
3.47280	37.63
3.48947	37.63
3.50613	37.63
3.52280	37.63
3.53947	37.63
3.55613	37.63
3.57280	37.63
3.58947	37.63
3.60613	37.63
3.62280	37.63
3.63947	37.64
3.65613	37.64
3.67280	37.64
3.68947	37.64
3.70613	37.64
3.72280	37.64
3.73947	37.64
3.75613	37.64
3.77280	37.64
3.78947	37.64
3.80613	37.63
3.82280	37.63
3.83947	37.63
3.85613	37.63
3.87280	37.63
3.88947	37.63
3.90613	37.64
3.92280	37.64
3.93947	37.64
3.95613	37.63
3.97280	37.63
3.98947	37.63

