[Header]
Application Name	LabSolutions
Version	5.110
Data File Name	C:\Users\User\Desktop\GC Analyses\Jack\Nachusa Grasslands Sampling\T4 Timepoint July 12th\T4_07122022_085.gcd
Output Date	3/17/2023
Output Time	12:04:56 PM

[File Information]
Type	Data File
Generated	3/15/2023 12:56:18 AM
Generated by	System Administrator
Modified	3/15/2023 1:02:53 AM
Modified by	System Administrator

[Sample Information]
Operator Name	System Administrator
Acquired	3/15/2023 12:58:52 AM
Sample Type	0:Unknown
Level	0
Sample Name	085
Sample ID	085
ISTD Amount1	1
ISTD Amount2	1
ISTD Amount3	1
ISTD Amount4	1
ISTD Amount5	1
ISTD Amount6	1
ISTD Amount7	1
ISTD Amount8	1
ISTD Amount9	1
ISTD Amount10	1
ISTD Amount11	1
ISTD Amount12	1
ISTD Amount13	1
ISTD Amount14	1
ISTD Amount15	1
ISTD Amount16	1
ISTD Amount17	1
ISTD Amount18	1
ISTD Amount19	1
ISTD Amount20	1
ISTD Amount21	1
ISTD Amount22	1
ISTD Amount23	1
ISTD Amount24	1
ISTD Amount25	1
ISTD Amount26	1
ISTD Amount27	1
ISTD Amount28	1
ISTD Amount29	1
ISTD Amount30	1
ISTD Amount31	1
ISTD Amount32	1
Sample Amount	1
Dilution Factor	1
Vial#	84
Injection Volume	1
Injection Count	1
Bar Code	

[Original Files]
Data File	C:\Users\User\Desktop\GC Analyses\Jack\Nachusa Grasslands Sampling\T4 Timepoint July 12th\T4_07122022_085.gcd
Method File	C:\LabSolutions\Data\GHG_4min_2022\ghg3_togas_w_acet_4 min_new_int.gcm
Batch File	C:\LabSolutions\Data\AutoSamplerTesting\T4_07122022.gcb
Report Format File	c:\LabSolutions\System\DEFAULT.lsr

[File Description]


[Configuration]
Instrument Name	C0B7VH3-Instrument1
Instrument #	1
Line #	1
# of Detectors	3
Detector ID	DET#1	DET#2	DET#3
Detector Name	FID	PTCD	ECD
# of Channels	1	1	1

[Peak Table(Ch1)]
# of Peaks	3
Peak#	R.Time	I.Time	F.Time	Area	Height	A/H	Conc.	Mark	ID#	Name	k'	Plate #	Plate Ht.	Tailing	Resolution	Sep.Factor	Area Ratio	Height Ratio	Conc. %	Norm Conc.
1	1.476	1.439	1.538	41333	20304	2.036	291.814	   	1	CO	0.000	9727	15.421	1.327	0.000	0.000	0	0	22.339	22.339
2	1.571	1.538	1.619	3916	1983	1.975	75.720	 V 	2	CH4	0.065	11338	13.230	0.000	1.604	0.000	0	0	5.797	5.797
3	1.996	1.949	2.495	3740471	1782870	2.098	938.757	   	3	CO2	0.353	17240	8.701	1.344	7.099	5.462	0	0	71.864	71.864

[Peak Table(Ch2)]
# of Peaks	0

[Peak Table(Ch3)]
# of Peaks	6
Peak#	R.Time	I.Time	F.Time	Area	Height	A/H	Conc.	Mark	ID#	Name	k'	Plate #	Plate Ht.	Tailing	Resolution	Sep.Factor	Area Ratio	Height Ratio	Conc. %	Norm Conc.
1	2.462	2.323	2.510	2469	768	3.214	0.000	   			0.000	10336	14.513	0.000	0.000	0.000	0	0	0.000	0.000
2	2.532	2.510	2.579	1149	386	2.974	0.000	 V 			0.028	6492	23.105	0.000	0.626	0.000	0	0	0.000	0.000
3	2.601	2.579	2.682	733	183	4.007	0.000	 V 			0.057	1962	76.433	0.000	0.386	2.000	0	0	0.000	0.000
4	2.880	2.697	3.151	19668	4844	4.061	0.502	S  	1	N2O	0.170	12852	11.671	1.536	1.656	3.000	0	0	100.000	100.000
5	3.140	3.089	3.151	97	49	1.990	0.000	T  	2	SF6	0.276	42381	3.539	0.609	3.201	1.623	0	0	0.000	0.000
6	3.338	3.155	3.995	19618	679	28.907	0.000	   	2	SF6	0.356	267	561.119	2.255	0.451	1.292	0	0	0.000	0.000

[Compound Results(Ch1)]
# of IDs	6
ID#	Name	R.Time	Area	Height	Conc.	Curve	3rd	2nd	1st	Constant	Area Ratio	Height Ratio	Conc. %	Norm Conc.
1	CO	1.476	41333	20304	291.814	Linear	0.000000e+00	0.000000e+00	1.416423e+002	0.000000e+00	0	0	22.339	22.339
2	CH4	1.571	3916	1983	75.720	Linear	0.000000e+00	0.000000e+00	5.171738e+001	0.000000e+00	0	0	5.797	5.797
3	CO2	1.996	3740471	1782870	938.757	Linear	0.000000e+00	0.000000e+00	3.984494e+003	0.000000e+00	0	0	71.864	71.864
4	Ethylene	0.000	0	0	0.000	Linear	0.000000e+00	0.000000e+00	0.000000e+00	0.000000e+00	0	0	0.000	0.000
5	Acetylene	0.000	0	0	0.000	Linear	0.000000e+00	0.000000e+00	0.000000e+00	0.000000e+00	0	0	0.000	0.000
6	Ethane	0.000	0	0	0.000	Linear	0.000000e+00	0.000000e+00	0.000000e+00	0.000000e+00	0	0	0.000	0.000

[Compound Results(Ch2)]
# of IDs	5
ID#	Name	R.Time	Area	Height	Conc.	Curve	3rd	2nd	1st	Constant	Area Ratio	Height Ratio	Conc. %	Norm Conc.
1	Hydrogen	0.000	0	0	0.000	Linear	0.000000e+00	0.000000e+00	0.000000e+00	0.000000e+00	0	0	0.000	0.000
2	Oxygen	0.000	0	0	0.000	Linear	0.000000e+00	0.000000e+00	0.000000e+00	0.000000e+00	0	0	0.000	0.000
3	Nitrogen	0.000	0	0	0.000	Linear	0.000000e+00	0.000000e+00	0.000000e+00	0.000000e+00	0	0	0.000	0.000
4	Methane	0.000	0	0	0.000	Linear	0.000000e+00	0.000000e+00	0.000000e+00	0.000000e+00	0	0	0.000	0.000
5	Carbon Monoxide	0.000	0	0	0.000	Linear	0.000000e+00	0.000000e+00	0.000000e+00	0.000000e+00	0	0	0.000	0.000

[Compound Results(Ch3)]
# of IDs	2
ID#	Name	R.Time	Area	Height	Conc.	Curve	3rd	2nd	1st	Constant	Area Ratio	Height Ratio	Conc. %	Norm Conc.
1	N2O	2.880	19668	4844	0.502	Linear	0.000000e+00	0.000000e+00	3.915173e+004	0.000000e+00	0	0	100.000	100.000
2	SF6	3.338	19714	727	0.000	Linear	0.000000e+00	0.000000e+00	0.000000e+00	0.000000e+00	0	0	0.000	0.000

[Group Results(Ch1)]
# of Groups	0

[Group Results(Ch2)]
# of Groups	0

[Group Results(Ch3)]
# of Groups	0

[Chromatogram (Ch1)]
Interval(msec)	220
# of Points	1091
Start Time(min)	0.002
End Time(min)	3.998
R.Time (min)	Intensity
0.00167	20
0.00533	7
0.00900	-6
0.01267	-17
0.01633	-24
0.02000	-25
0.02367	-21
0.02733	-15
0.03100	-8
0.03467	-7
0.03833	-9
0.04200	-12
0.04567	-13
0.04933	-9
0.05300	1
0.05667	11
0.06033	19
0.06400	23
0.06767	19
0.07133	7
0.07500	-4
0.07867	-14
0.08233	-22
0.08600	-22
0.08967	-15
0.09333	-4
0.09700	2
0.10067	5
0.10433	7
0.10800	6
0.11167	4
0.11533	1
0.11900	3
0.12267	9
0.12633	12
0.13000	11
0.13367	9
0.13733	10
0.14100	15
0.14467	19
0.14833	17
0.15200	15
0.15567	16
0.15933	17
0.16300	17
0.16667	16
0.17033	13
0.17400	7
0.17767	3
0.18133	-1
0.18500	0
0.18867	4
0.19233	3
0.19600	-4
0.19967	-7
0.20333	-5
0.20700	-6
0.21067	-1
0.21433	0
0.21800	-1
0.22167	-0
0.22533	3
0.22900	10
0.23267	10
0.23633	12
0.24000	15
0.24367	15
0.24733	11
0.25100	9
0.25467	10
0.25833	12
0.26200	12
0.26567	11
0.26933	8
0.27300	3
0.27667	-1
0.28033	1
0.28400	9
0.28767	19
0.29133	28
0.29500	32
0.29867	37
0.30233	46
0.30600	49
0.30967	44
0.31333	40
0.31700	42
0.32067	48
0.32433	53
0.32800	56
0.33167	58
0.33533	62
0.33900	61
0.34267	62
0.34633	70
0.35000	79
0.35367	82
0.35733	86
0.36100	95
0.36467	104
0.36833	111
0.37200	113
0.37567	107
0.37933	95
0.38300	85
0.38667	76
0.39033	74
0.39400	77
0.39767	84
0.40133	90
0.40500	99
0.40867	103
0.41233	101
0.41600	93
0.41967	84
0.42333	80
0.42700	78
0.43067	74
0.43433	74
0.43800	75
0.44167	71
0.44533	66
0.44900	66
0.45267	68
0.45633	66
0.46000	64
0.46367	63
0.46733	58
0.47100	52
0.47467	44
0.47833	32
0.48200	21
0.48567	12
0.48933	7
0.49300	8
0.49667	12
0.50033	18
0.50400	26
0.50767	31
0.51133	36
0.51500	39
0.51867	37
0.52233	29
0.52600	20
0.52967	9
0.53333	-4
0.53700	-16
0.54067	-29
0.54433	-36
0.54800	-34
0.55167	-28
0.55533	-20
0.55900	-10
0.56267	-1
0.56633	1
0.57000	-2
0.57367	-3
0.57733	-0
0.58100	-1
0.58467	-1
0.58833	-2
0.59200	-7
0.59567	-12
0.59933	-15
0.60300	-17
0.60667	-12
0.61033	-4
0.61400	2
0.61767	1
0.62133	-5
0.62500	-14
0.62867	-19
0.63233	-21
0.63600	-19
0.63967	-12
0.64333	-4
0.64700	2
0.65067	4
0.65433	6
0.65800	6
0.66167	6
0.66533	6
0.66900	3
0.67267	1
0.67633	-6
0.68000	-20
0.68367	-26
0.68733	-19
0.69100	-12
0.69467	-2
0.69833	2
0.70200	1
0.70567	-6
0.70933	-11
0.71300	-4
0.71667	-2
0.72033	2
0.72400	4
0.72767	7
0.73133	12
0.73500	17
0.73867	18
0.74233	11
0.74600	4
0.74967	-1
0.75333	-0
0.75700	4
0.76067	11
0.76433	15
0.76800	16
0.77167	11
0.77533	0
0.77900	-11
0.78267	-16
0.78633	-18
0.79000	-20
0.79367	-20
0.79733	-22
0.80100	-21
0.80467	-15
0.80833	-7
0.81200	2
0.81567	8
0.81933	13
0.82300	14
0.82667	8
0.83033	2
0.83400	2
0.83767	0
0.84133	-4
0.84500	-6
0.84867	-12
0.85233	-14
0.85600	-17
0.85967	-17
0.86333	-13
0.86700	-9
0.87067	-7
0.87433	-8
0.87800	-5
0.88167	-3
0.88533	-3
0.88900	-2
0.89267	1
0.89633	-1
0.90000	-5
0.90367	-13
0.90733	-20
0.91100	-21
0.91467	-20
0.91833	-19
0.92200	-16
0.92567	-16
0.92933	-19
0.93300	-22
0.93667	-19
0.94033	-13
0.94400	-14
0.94767	-20
0.95133	-28
0.95500	-37
0.95867	-46
0.96233	-49
0.96600	-45
0.96967	-39
0.97333	-31
0.97700	-27
0.98067	-23
0.98433	-19
0.98800	-14
0.99167	-11
0.99533	-9
0.99900	-8
1.00267	-8
1.00633	-11
1.01000	-17
1.01367	-20
1.01733	-21
1.02100	-20
1.02467	-20
1.02833	-20
1.03200	-21
1.03567	-20
1.03933	-17
1.04300	-18
1.04667	-14
1.05033	-7
1.05400	-4
1.05767	-9
1.06133	-11
1.06500	-16
1.06867	-21
1.07233	-17
1.07600	-15
1.07967	-13
1.08333	-10
1.08700	-10
1.09067	-11
1.09433	-16
1.09800	-18
1.10167	-18
1.10533	-19
1.10900	-24
1.11267	-31
1.11633	-39
1.12000	-44
1.12367	-43
1.12733	-37
1.13100	-32
1.13467	-29
1.13833	-27
1.14200	-25
1.14567	-31
1.14933	-36
1.15300	-40
1.15667	-42
1.16033	-43
1.16400	-41
1.16767	-35
1.17133	-28
1.17500	-22
1.17867	-15
1.18233	-8
1.18600	-2
1.18967	5
1.19333	8
1.19700	4
1.20067	-6
1.20433	-22
1.20800	-34
1.21167	-40
1.21533	-43
1.21900	-42
1.22267	-36
1.22633	-30
1.23000	-22
1.23367	-15
1.23733	-16
1.24100	-20
1.24467	-19
1.24833	-17
1.25200	-22
1.25567	-31
1.25933	-38
1.26300	-41
1.26667	-42
1.27033	-45
1.27400	-41
1.27767	-36
1.28133	-33
1.28500	-29
1.28867	-31
1.29233	-34
1.29600	-32
1.29967	-28
1.30333	-19
1.30700	-12
1.31067	-13
1.31433	-19
1.31800	-21
1.32167	-25
1.32533	-30
1.32900	-34
1.33267	-33
1.33633	-25
1.34000	-15
1.34367	-11
1.34733	-21
1.35100	-30
1.35467	-41
1.35833	-51
1.36200	-61
1.36567	-68
1.36933	-70
1.37300	-66
1.37667	-60
1.38033	-55
1.38400	-59
1.38767	-63
1.39133	-64
1.39500	-61
1.39867	-55
1.40233	-50
1.40600	-45
1.40967	-36
1.41333	-25
1.41700	-20
1.42067	-18
1.42433	-17
1.42800	-25
1.43167	-34
1.43533	-39
1.43900	-39
1.44267	-9
1.44633	127
1.45000	636
1.45367	2166
1.45733	5157
1.46100	9137
1.46467	13168
1.46833	16562
1.47200	18989
1.47567	20262
1.47933	20190
1.48300	18725
1.48667	16149
1.49033	13019
1.49400	9915
1.49767	7223
1.50133	5093
1.50500	3506
1.50867	2369
1.51233	1579
1.51600	1044
1.51967	688
1.52333	451
1.52700	292
1.53067	183
1.53433	104
1.53800	60
1.54167	63
1.54533	161
1.54900	396
1.55267	744
1.55633	1129
1.56000	1471
1.56367	1741
1.56733	1906
1.57100	1934
1.57467	1815
1.57833	1567
1.58200	1250
1.58567	932
1.58933	664
1.59300	455
1.59667	294
1.60033	169
1.60400	76
1.60767	14
1.61133	-23
1.61500	-44
1.61867	-52
1.62233	-57
1.62600	-61
1.62967	-65
1.63333	-67
1.63700	-67
1.64067	-68
1.64433	-74
1.64800	-79
1.65167	-82
1.65533	-84
1.65900	-82
1.66267	-77
1.66633	-72
1.67000	-66
1.67367	-62
1.67733	-67
1.68100	-70
1.68467	-72
1.68833	-81
1.69200	-80
1.69567	-75
1.69933	-71
1.70300	-70
1.70667	-69
1.71033	-69
1.71400	-71
1.71767	-69
1.72133	-63
1.72500	-55
1.72867	-46
1.73233	-36
1.73600	-38
1.73967	-48
1.74333	-59
1.74700	-71
1.75067	-82
1.75433	-91
1.75800	-98
1.76167	-119
1.76533	-110
1.76900	-88
1.77267	-78
1.77633	-72
1.78000	-67
1.78367	-65
1.78733	-66
1.79100	-67
1.79467	-68
1.79833	-68
1.80200	-66
1.80567	-62
1.80933	-60
1.81300	-56
1.81667	-53
1.82033	-49
1.82400	-45
1.82767	-43
1.83133	-46
1.83500	-44
1.83867	-37
1.84233	-32
1.84600	-27
1.84967	-26
1.85333	-27
1.85700	-27
1.86067	-27
1.86433	-27
1.86800	-31
1.87167	-38
1.87533	-48
1.87900	-56
1.88267	-60
1.88633	-59
1.89000	-52
1.89367	-48
1.89733	-43
1.90100	-33
1.90467	-23
1.90833	-18
1.91200	-13
1.91567	-10
1.91933	-15
1.92300	-20
1.92667	-24
1.93033	-27
1.93400	-29
1.93767	-31
1.94133	-32
1.94500	-30
1.94867	-27
1.95233	-5
1.95600	142
1.95967	1091
1.96333	6055
1.96700	25744
1.97067	85161
1.97433	221419
1.97800	459435
1.98167	782063
1.98533	1132953
1.98900	1446741
1.99267	1673029
1.99633	1782878
2.00000	1767729
2.00367	1639292
2.00733	1427265
2.01100	1172001
2.01467	913628
2.01833	681961
2.02200	492244
2.02567	347087
2.02933	241387
2.03300	167030
2.03667	115906
2.04033	81228
2.04400	57852
2.04767	42086
2.05133	31381
2.05500	24030
2.05867	18895
2.06233	15234
2.06600	12569
2.06967	10586
2.07333	9077
2.07700	7906
2.08067	6978
2.08433	6227
2.08800	5615
2.09167	5104
2.09533	4666
2.09900	4284
2.10267	3956
2.10633	3671
2.11000	3410
2.11367	3174
2.11733	2965
2.12100	2782
2.12467	2621
2.12833	2478
2.13200	2354
2.13567	2242
2.13933	2137
2.14300	2039
2.14667	1947
2.15033	1860
2.15400	1782
2.15767	1711
2.16133	1643
2.16500	1578
2.16867	1516
2.17233	1458
2.17600	1408
2.17967	1362
2.18333	1322
2.18700	1284
2.19067	1254
2.19433	1219
2.19800	1172
2.20167	1122
2.20533	1076
2.20900	1035
2.21267	998
2.21633	967
2.22000	941
2.22367	917
2.22733	892
2.23100	866
2.23467	842
2.23833	826
2.24200	811
2.24567	792
2.24933	771
2.25300	753
2.25667	737
2.26033	725
2.26400	714
2.26767	705
2.27133	694
2.27500	679
2.27867	661
2.28233	646
2.28600	637
2.28967	633
2.29333	633
2.29700	622
2.30067	602
2.30433	579
2.30800	559
2.31167	545
2.31533	540
2.31900	543
2.32267	547
2.32633	543
2.33000	530
2.33367	515
2.33733	502
2.34100	493
2.34467	485
2.34833	477
2.35200	469
2.35567	464
2.35933	464
2.36300	463
2.36667	457
2.37033	449
2.37400	450
2.37767	456
2.38133	459
2.38500	457
2.38867	451
2.39233	447
2.39600	446
2.39967	443
2.40333	441
2.40700	445
2.41067	446
2.41433	444
2.41800	442
2.42167	441
2.42533	436
2.42900	426
2.43267	416
2.43633	410
2.44000	407
2.44367	404
2.44733	402
2.45100	399
2.45467	400
2.45833	402
2.46200	405
2.46567	405
2.46933	400
2.47300	394
2.47667	388
2.48033	383
2.48400	378
2.48767	379
2.49133	381
2.49500	377
2.49867	373
2.50233	370
2.50600	366
2.50967	357
2.51333	351
2.51700	353
2.52067	362
2.52433	371
2.52800	374
2.53167	372
2.53533	367
2.53900	361
2.54267	351
2.54633	345
2.55000	339
2.55367	338
2.55733	337
2.56100	328
2.56467	315
2.56833	304
2.57200	294
2.57567	291
2.57933	296
2.58300	306
2.58667	312
2.59033	316
2.59400	316
2.59767	314
2.60133	311
2.60500	303
2.60867	293
2.61233	285
2.61600	284
2.61967	289
2.62333	291
2.62700	292
2.63067	294
2.63433	295
2.63800	289
2.64167	277
2.64533	264
2.64900	253
2.65267	246
2.65633	242
2.66000	240
2.66367	244
2.66733	249
2.67100	256
2.67467	261
2.67833	258
2.68200	253
2.68567	251
2.68933	255
2.69300	254
2.69667	253
2.70033	251
2.70400	250
2.70767	252
2.71133	262
2.71500	265
2.71867	261
2.72233	255
2.72600	243
2.72967	231
2.73333	225
2.73700	217
2.74067	214
2.74433	213
2.74800	212
2.75167	217
2.75533	228
2.75900	246
2.76267	261
2.76633	266
2.77000	264
2.77367	250
2.77733	233
2.78100	221
2.78467	214
2.78833	214
2.79200	216
2.79567	218
2.79933	219
2.80300	220
2.80667	223
2.81033	226
2.81400	231
2.81767	237
2.82133	242
2.82500	242
2.82867	240
2.83233	237
2.83600	235
2.83967	229
2.84333	221
2.84700	213
2.85067	206
2.85433	203
2.85800	202
2.86167	203
2.86533	212
2.86900	214
2.87267	215
2.87633	218
2.88000	216
2.88367	214
2.88733	216
2.89100	223
2.89467	225
2.89833	219
2.90200	211
2.90567	201
2.90933	196
2.91300	194
2.91667	192
2.92033	191
2.92400	188
2.92767	184
2.93133	185
2.93500	190
2.93867	198
2.94233	202
2.94600	201
2.94967	203
2.95333	207
2.95700	205
2.96067	202
2.96433	198
2.96800	195
2.97167	192
2.97533	189
2.97900	186
2.98267	183
2.98633	182
2.99000	184
2.99367	188
2.99733	198
3.00100	206
3.00467	204
3.00833	198
3.01200	194
3.01567	191
3.01933	190
3.02300	195
3.02667	202
3.03033	206
3.03400	210
3.03767	207
3.04133	202
3.04500	196
3.04867	190
3.05233	187
3.05600	183
3.05967	172
3.06333	162
3.06700	157
3.07067	155
3.07433	159
3.07800	167
3.08167	167
3.08533	162
3.08900	154
3.09267	155
3.09633	168
3.10000	181
3.10367	188
3.10733	192
3.11100	183
3.11467	167
3.11833	153
3.12200	150
3.12567	151
3.12933	151
3.13300	156
3.13667	157
3.14033	155
3.14400	152
3.14767	149
3.15133	145
3.15500	142
3.15867	133
3.16233	122
3.16600	116
3.16967	114
3.17333	112
3.17700	113
3.18067	121
3.18433	129
3.18800	133
3.19167	137
3.19533	139
3.19900	137
3.20267	133
3.20633	130
3.21000	128
3.21367	124
3.21733	125
3.22100	123
3.22467	123
3.22833	129
3.23200	138
3.23567	148
3.23933	158
3.24300	164
3.24667	162
3.25033	157
3.25400	154
3.25767	145
3.26133	136
3.26500	130
3.26867	132
3.27233	133
3.27600	133
3.27967	134
3.28333	136
3.28700	138
3.29067	138
3.29433	135
3.29800	133
3.30167	136
3.30533	139
3.30900	139
3.31267	134
3.31633	130
3.32000	131
3.32367	132
3.32733	132
3.33100	133
3.33467	130
3.33833	119
3.34200	108
3.34567	105
3.34933	107
3.35300	115
3.35667	121
3.36033	124
3.36400	125
3.36767	125
3.37133	128
3.37500	131
3.37867	132
3.38233	132
3.38600	133
3.38967	131
3.39333	125
3.39700	116
3.40067	109
3.40433	107
3.40800	107
3.41167	104
3.41533	96
3.41900	88
3.42267	85
3.42633	85
3.43000	90
3.43367	101
3.43733	108
3.44100	112
3.44467	116
3.44833	123
3.45200	125
3.45567	122
3.45933	112
3.46300	101
3.46667	100
3.47033	98
3.47400	103
3.47767	107
3.48133	104
3.48500	98
3.48867	92
3.49233	90
3.49600	87
3.49967	78
3.50333	72
3.50700	66
3.51067	65
3.51433	64
3.51800	64
3.52167	64
3.52533	62
3.52900	61
3.53267	66
3.53633	65
3.54000	65
3.54367	69
3.54733	72
3.55100	75
3.55467	75
3.55833	74
3.56200	79
3.56567	87
3.56933	93
3.57300	99
3.57667	102
3.58033	106
3.58400	104
3.58767	99
3.59133	96
3.59500	99
3.59867	102
3.60233	98
3.60600	88
3.60967	77
3.61333	67
3.61700	66
3.62067	69
3.62433	69
3.62800	66
3.63167	61
3.63533	56
3.63900	55
3.64267	57
3.64633	55
3.65000	54
3.65367	55
3.65733	59
3.66100	71
3.66467	85
3.66833	87
3.67200	83
3.67567	75
3.67933	63
3.68300	57
3.68667	55
3.69033	56
3.69400	64
3.69767	76
3.70133	84
3.70500	87
3.70867	84
3.71233	81
3.71600	77
3.71967	72
3.72333	68
3.72700	62
3.73067	53
3.73433	47
3.73800	46
3.74167	44
3.74533	39
3.74900	39
3.75267	47
3.75633	56
3.76000	61
3.76367	61
3.76733	60
3.77100	60
3.77467	61
3.77833	59
3.78200	56
3.78567	50
3.78933	43
3.79300	40
3.79667	40
3.80033	44
3.80400	51
3.80767	52
3.81133	49
3.81500	47
3.81867	43
3.82233	41
3.82600	41
3.82967	41
3.83333	48
3.83700	59
3.84067	67
3.84433	70
3.84800	64
3.85167	54
3.85533	49
3.85900	47
3.86267	51
3.86633	60
3.87000	70
3.87367	75
3.87733	70
3.88100	65
3.88467	62
3.88833	60
3.89200	58
3.89567	55
3.89933	48
3.90300	41
3.90667	32
3.91033	26
3.91400	27
3.91767	32
3.92133	36
3.92500	31
3.92867	21
3.93233	13
3.93600	12
3.93967	16
3.94333	25
3.94700	35
3.95067	44
3.95433	48
3.95800	45
3.96167	39
3.96533	30
3.96900	25
3.97267	23
3.97633	24
3.98000	21
3.98367	18
3.98733	17
3.99100	18
3.99467	18
3.99833	16

[Chromatogram (Ch2)]
Interval(msec)	220
# of Points	1091
Start Time(min)	0.002
End Time(min)	3.998
R.Time (min)	Intensity
0.00167	-0
0.00533	-1
0.00900	-1
0.01267	-1
0.01633	-2
0.02000	-2
0.02367	-2
0.02733	-3
0.03100	-3
0.03467	-3
0.03833	-3
0.04200	-3
0.04567	-3
0.04933	-2
0.05300	-2
0.05667	-1
0.06033	-1
0.06400	-1
0.06767	-1
0.07133	-1
0.07500	-1
0.07867	-1
0.08233	-1
0.08600	-1
0.08967	-1
0.09333	-1
0.09700	-1
0.10067	-1
0.10433	-1
0.10800	-1
0.11167	-1
0.11533	-1
0.11900	-1
0.12267	-1
0.12633	-2
0.13000	-2
0.13367	-2
0.13733	-2
0.14100	-3
0.14467	-3
0.14833	-3
0.15200	-3
0.15567	-3
0.15933	-3
0.16300	-2
0.16667	-2
0.17033	-3
0.17400	-3
0.17767	-3
0.18133	-3
0.18500	-2
0.18867	-2
0.19233	-2
0.19600	-1
0.19967	-1
0.20333	-0
0.20700	0
0.21067	1
0.21433	1
0.21800	1
0.22167	2
0.22533	2
0.22900	2
0.23267	2
0.23633	2
0.24000	3
0.24367	3
0.24733	3
0.25100	3
0.25467	2
0.25833	2
0.26200	2
0.26567	2
0.26933	2
0.27300	2
0.27667	1
0.28033	1
0.28400	1
0.28767	1
0.29133	1
0.29500	0
0.29867	0
0.30233	-0
0.30600	-0
0.30967	-0
0.31333	-0
0.31700	-0
0.32067	0
0.32433	0
0.32800	0
0.33167	-0
0.33533	-0
0.33900	-1
0.34267	-1
0.34633	-1
0.35000	-2
0.35367	-2
0.35733	-2
0.36100	-3
0.36467	-3
0.36833	-3
0.37200	-3
0.37567	-3
0.37933	-3
0.38300	-3
0.38667	-3
0.39033	-3
0.39400	-4
0.39767	-4
0.40133	-4
0.40500	-5
0.40867	-5
0.41233	-5
0.41600	-5
0.41967	-5
0.42333	-5
0.42700	-4
0.43067	-4
0.43433	-5
0.43800	-5
0.44167	-5
0.44533	-5
0.44900	-5
0.45267	-5
0.45633	-6
0.46000	-6
0.46367	-6
0.46733	-6
0.47100	-5
0.47467	-5
0.47833	-4
0.48200	-4
0.48567	-4
0.48933	-3
0.49300	-3
0.49667	-3
0.50033	-2
0.50400	-2
0.50767	-1
0.51133	-1
0.51500	-1
0.51867	-1
0.52233	-1
0.52600	-1
0.52967	-1
0.53333	-1
0.53700	-1
0.54067	-1
0.54433	-1
0.54800	-1
0.55167	-1
0.55533	-2
0.55900	-2
0.56267	-2
0.56633	-2
0.57000	-2
0.57367	-2
0.57733	-2
0.58100	-2
0.58467	-2
0.58833	-2
0.59200	-2
0.59567	-3
0.59933	-3
0.60300	-4
0.60667	-4
0.61033	-4
0.61400	-4
0.61767	-4
0.62133	-4
0.62500	-3
0.62867	-3
0.63233	-3
0.63600	-3
0.63967	-3
0.64333	-3
0.64700	-4
0.65067	-4
0.65433	-4
0.65800	-4
0.66167	-4
0.66533	-4
0.66900	-4
0.67267	-4
0.67633	-4
0.68000	-4
0.68367	-4
0.68733	-3
0.69100	-3
0.69467	-2
0.69833	-2
0.70200	-2
0.70567	-2
0.70933	-2
0.71300	-2
0.71667	-3
0.72033	-3
0.72400	-3
0.72767	-2
0.73133	-2
0.73500	-2
0.73867	-2
0.74233	-2
0.74600	-1
0.74967	-1
0.75333	-1
0.75700	-1
0.76067	-2
0.76433	-2
0.76800	-2
0.77167	-2
0.77533	-2
0.77900	-2
0.78267	-2
0.78633	-2
0.79000	-2
0.79367	-3
0.79733	-3
0.80100	-3
0.80467	-3
0.80833	-3
0.81200	-3
0.81567	-3
0.81933	-3
0.82300	-3
0.82667	-2
0.83033	-2
0.83400	-2
0.83767	-2
0.84133	-2
0.84500	-2
0.84867	-1
0.85233	-1
0.85600	-1
0.85967	-0
0.86333	-0
0.86700	-0
0.87067	-0
0.87433	-0
0.87800	0
0.88167	0
0.88533	1
0.88900	1
0.89267	1
0.89633	1
0.90000	1
0.90367	0
0.90733	0
0.91100	-1
0.91467	-1
0.91833	-2
0.92200	-2
0.92567	-3
0.92933	-3
0.93300	-3
0.93667	-3
0.94033	-3
0.94400	-3
0.94767	-3
0.95133	-3
0.95500	-3
0.95867	-3
0.96233	-3
0.96600	-3
0.96967	-2
0.97333	-2
0.97700	-2
0.98067	-1
0.98433	-1
0.98800	-1
0.99167	-2
0.99533	-2
0.99900	-2
1.00267	-2
1.00633	-3
1.01000	-3
1.01367	-3
1.01733	-3
1.02100	-3
1.02467	-4
1.02833	-4
1.03200	-4
1.03567	-4
1.03933	-4
1.04300	-3
1.04667	-3
1.05033	-3
1.05400	-3
1.05767	-3
1.06133	-2
1.06500	-2
1.06867	-1
1.07233	-1
1.07600	-0
1.07967	1
1.08333	1
1.08700	1
1.09067	2
1.09433	1
1.09800	1
1.10167	1
1.10533	0
1.10900	-0
1.11267	-0
1.11633	-1
1.12000	-1
1.12367	-1
1.12733	-2
1.13100	-2
1.13467	-2
1.13833	-2
1.14200	-2
1.14567	-2
1.14933	-2
1.15300	-2
1.15667	-2
1.16033	-2
1.16400	-2
1.16767	-2
1.17133	-2
1.17500	-2
1.17867	-2
1.18233	-2
1.18600	-2
1.18967	-2
1.19333	-2
1.19700	-2
1.20067	-1
1.20433	-1
1.20800	-1
1.21167	-1
1.21533	-1
1.21900	-1
1.22267	-1
1.22633	-2
1.23000	-2
1.23367	-3
1.23733	-3
1.24100	-4
1.24467	-4
1.24833	-4
1.25200	-4
1.25567	-4
1.25933	-4
1.26300	-4
1.26667	-5
1.27033	-4
1.27400	-4
1.27767	-4
1.28133	-4
1.28500	-4
1.28867	-4
1.29233	-4
1.29600	-4
1.29967	-3
1.30333	-3
1.30700	-3
1.31067	-3
1.31433	-3
1.31800	-3
1.32167	-3
1.32533	-3
1.32900	-3
1.33267	-3
1.33633	-3
1.34000	-3
1.34367	-3
1.34733	-3
1.35100	-2
1.35467	-2
1.35833	-2
1.36200	-2
1.36567	-3
1.36933	-3
1.37300	-3
1.37667	-3
1.38033	-4
1.38400	-4
1.38767	-4
1.39133	-4
1.39500	-4
1.39867	-4
1.40233	-4
1.40600	-3
1.40967	-3
1.41333	-3
1.41700	-2
1.42067	-2
1.42433	-1
1.42800	-1
1.43167	-1
1.43533	-0
1.43900	0
1.44267	0
1.44633	0
1.45000	0
1.45367	0
1.45733	-0
1.46100	-0
1.46467	-1
1.46833	-1
1.47200	-1
1.47567	-1
1.47933	-1
1.48300	-2
1.48667	-2
1.49033	-3
1.49400	-3
1.49767	-4
1.50133	-4
1.50500	-4
1.50867	-5
1.51233	-5
1.51600	-5
1.51967	-5
1.52333	-5
1.52700	-5
1.53067	-5
1.53433	-5
1.53800	-5
1.54167	-5
1.54533	-5
1.54900	-5
1.55267	-5
1.55633	-5
1.56000	-5
1.56367	-5
1.56733	-5
1.57100	-5
1.57467	-5
1.57833	-5
1.58200	-5
1.58567	-5
1.58933	-5
1.59300	-5
1.59667	-6
1.60033	-6
1.60400	-7
1.60767	-8
1.61133	-10
1.61500	-12
1.61867	-14
1.62233	-17
1.62600	-21
1.62967	-24
1.63333	-28
1.63700	-31
1.64067	-35
1.64433	-38
1.64800	-41
1.65167	-45
1.65533	-48
1.65900	-51
1.66267	-55
1.66633	-58
1.67000	-62
1.67367	-66
1.67733	-71
1.68100	-75
1.68467	-80
1.68833	-84
1.69200	-89
1.69567	-93
1.69933	-96
1.70300	-99
1.70667	-101
1.71033	-103
1.71400	-105
1.71767	-106
1.72133	-106
1.72500	-107
1.72867	-107
1.73233	-107
1.73600	-108
1.73967	-108
1.74333	-107
1.74700	-107
1.75067	-107
1.75433	-107
1.75800	-107
1.76167	-107
1.76533	-108
1.76900	-108
1.77267	-109
1.77633	-110
1.78000	-111
1.78367	-112
1.78733	-113
1.79100	-113
1.79467	-114
1.79833	-115
1.80200	-115
1.80567	-115
1.80933	-115
1.81300	-115
1.81667	-114
1.82033	-113
1.82400	-112
1.82767	-111
1.83133	-110
1.83500	-109
1.83867	-109
1.84233	-109
1.84600	-110
1.84967	-111
1.85333	-112
1.85700	-113
1.86067	-114
1.86433	-115
1.86800	-115
1.87167	-116
1.87533	-116
1.87900	-116
1.88267	-115
1.88633	-115
1.89000	-114
1.89367	-114
1.89733	-113
1.90100	-113
1.90467	-112
1.90833	-112
1.91200	-112
1.91567	-112
1.91933	-112
1.92300	-112
1.92667	-112
1.93033	-112
1.93400	-112
1.93767	-112
1.94133	-112
1.94500	-112
1.94867	-111
1.95233	-111
1.95600	-111
1.95967	-111
1.96333	-110
1.96700	-110
1.97067	-110
1.97433	-110
1.97800	-109
1.98167	-109
1.98533	-109
1.98900	-108
1.99267	-108
1.99633	-107
2.00000	-107
2.00367	-106
2.00733	-106
2.01100	-106
2.01467	-106
2.01833	-106
2.02200	-106
2.02567	-106
2.02933	-106
2.03300	-106
2.03667	-105
2.04033	-105
2.04400	-104
2.04767	-103
2.05133	-102
2.05500	-102
2.05867	-101
2.06233	-101
2.06600	-101
2.06967	-100
2.07333	-100
2.07700	-100
2.08067	-99
2.08433	-99
2.08800	-99
2.09167	-99
2.09533	-99
2.09900	-100
2.10267	-100
2.10633	-100
2.11000	-100
2.11367	-100
2.11733	-99
2.12100	-99
2.12467	-98
2.12833	-98
2.13200	-97
2.13567	-97
2.13933	-96
2.14300	-95
2.14667	-95
2.15033	-95
2.15400	-94
2.15767	-94
2.16133	-94
2.16500	-94
2.16867	-93
2.17233	-92
2.17600	-92
2.17967	-91
2.18333	-91
2.18700	-92
2.19067	-92
2.19433	-91
2.19800	-91
2.20167	-90
2.20533	-90
2.20900	-89
2.21267	-89
2.21633	-89
2.22000	-89
2.22367	-89
2.22733	-89
2.23100	-89
2.23467	-88
2.23833	-87
2.24200	-86
2.24567	-85
2.24933	-84
2.25300	-84
2.25667	-84
2.26033	-84
2.26400	-84
2.26767	-84
2.27133	-84
2.27500	-84
2.27867	-83
2.28233	-83
2.28600	-83
2.28967	-82
2.29333	-83
2.29700	-83
2.30067	-83
2.30433	-82
2.30800	-82
2.31167	-81
2.31533	-81
2.31900	-81
2.32267	-80
2.32633	-80
2.33000	-80
2.33367	-80
2.33733	-79
2.34100	-79
2.34467	-80
2.34833	-80
2.35200	-81
2.35567	-81
2.35933	-81
2.36300	-80
2.36667	-78
2.37033	-76
2.37400	-73
2.37767	-70
2.38133	-66
2.38500	-62
2.38867	-57
2.39233	-52
2.39600	-47
2.39967	-41
2.40333	-36
2.40700	-31
2.41067	-27
2.41433	-23
2.41800	-20
2.42167	-18
2.42533	-16
2.42900	-14
2.43267	-12
2.43633	-10
2.44000	-9
2.44367	-8
2.44733	-7
2.45100	-7
2.45467	-7
2.45833	-7
2.46200	-6
2.46567	-6
2.46933	-5
2.47300	-4
2.47667	-3
2.48033	-2
2.48400	-1
2.48767	0
2.49133	1
2.49500	3
2.49867	3
2.50233	4
2.50600	4
2.50967	5
2.51333	6
2.51700	6
2.52067	7
2.52433	8
2.52800	9
2.53167	10
2.53533	12
2.53900	13
2.54267	14
2.54633	15
2.55000	15
2.55367	16
2.55733	17
2.56100	17
2.56467	18
2.56833	18
2.57200	18
2.57567	18
2.57933	18
2.58300	18
2.58667	18
2.59033	18
2.59400	18
2.59767	17
2.60133	17
2.60500	16
2.60867	16
2.61233	16
2.61600	16
2.61967	16
2.62333	16
2.62700	16
2.63067	16
2.63433	16
2.63800	16
2.64167	16
2.64533	16
2.64900	16
2.65267	16
2.65633	16
2.66000	16
2.66367	17
2.66733	17
2.67100	18
2.67467	18
2.67833	19
2.68200	20
2.68567	21
2.68933	22
2.69300	22
2.69667	23
2.70033	23
2.70400	23
2.70767	23
2.71133	22
2.71500	22
2.71867	22
2.72233	22
2.72600	22
2.72967	22
2.73333	22
2.73700	23
2.74067	23
2.74433	24
2.74800	24
2.75167	24
2.75533	25
2.75900	25
2.76267	25
2.76633	26
2.77000	26
2.77367	26
2.77733	27
2.78100	27
2.78467	27
2.78833	26
2.79200	26
2.79567	25
2.79933	24
2.80300	23
2.80667	22
2.81033	22
2.81400	22
2.81767	22
2.82133	22
2.82500	22
2.82867	22
2.83233	22
2.83600	22
2.83967	22
2.84333	22
2.84700	20
2.85067	17
2.85433	12
2.85800	4
2.86167	-8
2.86533	-23
2.86900	-43
2.87267	-67
2.87633	-96
2.88000	-129
2.88367	-166
2.88733	-207
2.89100	-251
2.89467	-298
2.89833	-348
2.90200	-400
2.90567	-454
2.90933	-509
2.91300	-564
2.91667	-619
2.92033	-675
2.92400	-729
2.92767	-782
2.93133	-833
2.93500	-885
2.93867	-941
2.94233	-1000
2.94600	-1053
2.94967	-1089
2.95333	-1101
2.95700	-1087
2.96067	-1049
2.96433	-992
2.96800	-923
2.97167	-845
2.97533	-764
2.97900	-684
2.98267	-607
2.98633	-535
2.99000	-468
2.99367	-407
2.99733	-352
3.00100	-303
3.00467	-260
3.00833	-222
3.01200	-190
3.01567	-161
3.01933	-136
3.02300	-115
3.02667	-97
3.03033	-82
3.03400	-69
3.03767	-57
3.04133	-47
3.04500	-39
3.04867	-32
3.05233	-26
3.05600	-20
3.05967	-16
3.06333	-11
3.06700	-8
3.07067	-5
3.07433	-2
3.07800	-0
3.08167	2
3.08533	3
3.08900	4
3.09267	6
3.09633	7
3.10000	8
3.10367	8
3.10733	9
3.11100	10
3.11467	11
3.11833	11
3.12200	12
3.12567	13
3.12933	13
3.13300	14
3.13667	14
3.14033	15
3.14400	15
3.14767	16
3.15133	16
3.15500	17
3.15867	17
3.16233	18
3.16600	18
3.16967	18
3.17333	18
3.17700	19
3.18067	19
3.18433	19
3.18800	19
3.19167	20
3.19533	20
3.19900	20
3.20267	20
3.20633	21
3.21000	21
3.21367	21
3.21733	21
3.22100	21
3.22467	21
3.22833	21
3.23200	22
3.23567	22
3.23933	22
3.24300	22
3.24667	23
3.25033	23
3.25400	23
3.25767	23
3.26133	24
3.26500	24
3.26867	24
3.27233	24
3.27600	24
3.27967	25
3.28333	25
3.28700	25
3.29067	26
3.29433	26
3.29800	26
3.30167	27
3.30533	27
3.30900	27
3.31267	27
3.31633	27
3.32000	27
3.32367	27
3.32733	28
3.33100	28
3.33467	28
3.33833	28
3.34200	28
3.34567	28
3.34933	27
3.35300	27
3.35667	27
3.36033	27
3.36400	27
3.36767	27
3.37133	27
3.37500	27
3.37867	27
3.38233	27
3.38600	27
3.38967	27
3.39333	27
3.39700	27
3.40067	27
3.40433	27
3.40800	27
3.41167	27
3.41533	27
3.41900	27
3.42267	28
3.42633	28
3.43000	28
3.43367	28
3.43733	28
3.44100	28
3.44467	28
3.44833	28
3.45200	28
3.45567	28
3.45933	28
3.46300	28
3.46667	28
3.47033	28
3.47400	27
3.47767	27
3.48133	27
3.48500	27
3.48867	27
3.49233	27
3.49600	27
3.49967	27
3.50333	27
3.50700	28
3.51067	28
3.51433	28
3.51800	27
3.52167	27
3.52533	27
3.52900	27
3.53267	27
3.53633	27
3.54000	27
3.54367	27
3.54733	27
3.55100	27
3.55467	27
3.55833	27
3.56200	27
3.56567	27
3.56933	27
3.57300	28
3.57667	28
3.58033	28
3.58400	27
3.58767	27
3.59133	27
3.59500	27
3.59867	27
3.60233	27
3.60600	27
3.60967	27
3.61333	27
3.61700	27
3.62067	27
3.62433	27
3.62800	27
3.63167	27
3.63533	27
3.63900	27
3.64267	27
3.64633	27
3.65000	27
3.65367	27
3.65733	27
3.66100	26
3.66467	26
3.66833	26
3.67200	26
3.67567	26
3.67933	26
3.68300	27
3.68667	27
3.69033	27
3.69400	27
3.69767	27
3.70133	27
3.70500	27
3.70867	27
3.71233	26
3.71600	26
3.71967	26
3.72333	25
3.72700	25
3.73067	25
3.73433	25
3.73800	25
3.74167	25
3.74533	25
3.74900	25
3.75267	25
3.75633	25
3.76000	25
3.76367	25
3.76733	25
3.77100	25
3.77467	25
3.77833	25
3.78200	25
3.78567	26
3.78933	26
3.79300	26
3.79667	26
3.80033	27
3.80400	27
3.80767	27
3.81133	27
3.81500	27
3.81867	27
3.82233	27
3.82600	27
3.82967	27
3.83333	27
3.83700	27
3.84067	27
3.84433	26
3.84800	26
3.85167	26
3.85533	26
3.85900	26
3.86267	26
3.86633	26
3.87000	26
3.87367	26
3.87733	26
3.88100	26
3.88467	26
3.88833	26
3.89200	26
3.89567	26
3.89933	26
3.90300	26
3.90667	26
3.91033	26
3.91400	26
3.91767	26
3.92133	26
3.92500	26
3.92867	26
3.93233	26
3.93600	26
3.93967	26
3.94333	26
3.94700	26
3.95067	26
3.95433	26
3.95800	26
3.96167	26
3.96533	26
3.96900	26
3.97267	26
3.97633	26
3.98000	26
3.98367	26
3.98733	26
3.99100	26
3.99467	26
3.99833	26

[Chromatogram (Ch3)]
Interval(msec)	220
# of Points	1091
Start Time(min)	0.002
End Time(min)	3.998
R.Time (min)	Intensity
0.00167	2
0.00533	6
0.00900	9
0.01267	11
0.01633	10
0.02000	7
0.02367	5
0.02733	5
0.03100	5
0.03467	6
0.03833	7
0.04200	10
0.04567	11
0.04933	11
0.05300	11
0.05667	10
0.06033	9
0.06400	8
0.06767	7
0.07133	8
0.07500	7
0.07867	6
0.08233	6
0.08600	5
0.08967	5
0.09333	6
0.09700	3
0.10067	0
0.10433	-0
0.10800	1
0.11167	3
0.11533	3
0.11900	2
0.12267	1
0.12633	2
0.13000	4
0.13367	4
0.13733	5
0.14100	6
0.14467	6
0.14833	6
0.15200	6
0.15567	5
0.15933	5
0.16300	5
0.16667	3
0.17033	3
0.17400	2
0.17767	4
0.18133	5
0.18500	7
0.18867	8
0.19233	9
0.19600	8
0.19967	6
0.20333	5
0.20700	4
0.21067	2
0.21433	-0
0.21800	-1
0.22167	1
0.22533	0
0.22900	-1
0.23267	-1
0.23633	-0
0.24000	1
0.24367	3
0.24733	4
0.25100	4
0.25467	3
0.25833	1
0.26200	-2
0.26567	-3
0.26933	-3
0.27300	-2
0.27667	1
0.28033	1
0.28400	1
0.28767	1
0.29133	0
0.29500	2
0.29867	3
0.30233	3
0.30600	4
0.30967	3
0.31333	0
0.31700	-1
0.32067	1
0.32433	2
0.32800	3
0.33167	3
0.33533	2
0.33900	2
0.34267	3
0.34633	3
0.35000	3
0.35367	3
0.35733	3
0.36100	4
0.36467	3
0.36833	1
0.37200	0
0.37567	1
0.37933	3
0.38300	3
0.38667	5
0.39033	6
0.39400	7
0.39767	7
0.40133	5
0.40500	5
0.40867	2
0.41233	-0
0.41600	2
0.41967	3
0.42333	4
0.42700	5
0.43067	5
0.43433	5
0.43800	5
0.44167	6
0.44533	6
0.44900	5
0.45267	5
0.45633	7
0.46000	7
0.46367	7
0.46733	5
0.47100	6
0.47467	9
0.47833	9
0.48200	8
0.48567	7
0.48933	6
0.49300	7
0.49667	6
0.50033	6
0.50400	6
0.50767	6
0.51133	7
0.51500	8
0.51867	7
0.52233	5
0.52600	5
0.52967	6
0.53333	5
0.53700	5
0.54067	5
0.54433	4
0.54800	4
0.55167	6
0.55533	7
0.55900	6
0.56267	6
0.56633	5
0.57000	5
0.57367	4
0.57733	4
0.58100	3
0.58467	4
0.58833	5
0.59200	6
0.59567	4
0.59933	3
0.60300	4
0.60667	5
0.61033	5
0.61400	1
0.61767	-0
0.62133	-0
0.62500	1
0.62867	3
0.63233	4
0.63600	2
0.63967	1
0.64333	2
0.64700	2
0.65067	1
0.65433	3
0.65800	4
0.66167	6
0.66533	7
0.66900	7
0.67267	6
0.67633	6
0.68000	6
0.68367	6
0.68733	8
0.69100	9
0.69467	11
0.69833	12
0.70200	11
0.70567	10
0.70933	9
0.71300	10
0.71667	11
0.72033	9
0.72400	7
0.72767	7
0.73133	7
0.73500	8
0.73867	7
0.74233	4
0.74600	1
0.74967	0
0.75333	2
0.75700	4
0.76067	6
0.76433	8
0.76800	8
0.77167	8
0.77533	7
0.77900	7
0.78267	9
0.78633	10
0.79000	11
0.79367	10
0.79733	11
0.80100	13
0.80467	12
0.80833	11
0.81200	10
0.81567	10
0.81933	10
0.82300	10
0.82667	11
0.83033	10
0.83400	10
0.83767	8
0.84133	7
0.84500	6
0.84867	6
0.85233	6
0.85600	8
0.85967	10
0.86333	9
0.86700	9
0.87067	9
0.87433	10
0.87800	11
0.88167	13
0.88533	14
0.88900	13
0.89267	11
0.89633	8
0.90000	8
0.90367	7
0.90733	8
0.91100	10
0.91467	9
0.91833	9
0.92200	7
0.92567	6
0.92933	7
0.93300	8
0.93667	7
0.94033	7
0.94400	7
0.94767	7
0.95133	5
0.95500	5
0.95867	5
0.96233	6
0.96600	10
0.96967	12
0.97333	12
0.97700	12
0.98067	11
0.98433	11
0.98800	11
0.99167	11
0.99533	11
0.99900	10
1.00267	10
1.00633	9
1.01000	10
1.01367	11
1.01733	12
1.02100	11
1.02467	9
1.02833	5
1.03200	7
1.03567	8
1.03933	9
1.04300	9
1.04667	9
1.05033	8
1.05400	7
1.05767	7
1.06133	6
1.06500	5
1.06867	4
1.07233	6
1.07600	10
1.07967	12
1.08333	11
1.08700	9
1.09067	8
1.09433	7
1.09800	8
1.10167	7
1.10533	6
1.10900	6
1.11267	9
1.11633	11
1.12000	15
1.12367	17
1.12733	17
1.13100	16
1.13467	14
1.13833	13
1.14200	14
1.14567	15
1.14933	14
1.15300	15
1.15667	16
1.16033	15
1.16400	14
1.16767	13
1.17133	12
1.17500	14
1.17867	15
1.18233	14
1.18600	14
1.18967	15
1.19333	16
1.19700	16
1.20067	14
1.20433	12
1.20800	13
1.21167	14
1.21533	16
1.21900	16
1.22267	17
1.22633	17
1.23000	16
1.23367	16
1.23733	17
1.24100	15
1.24467	14
1.24833	14
1.25200	12
1.25567	12
1.25933	13
1.26300	13
1.26667	12
1.27033	13
1.27400	14
1.27767	14
1.28133	13
1.28500	12
1.28867	11
1.29233	10
1.29600	10
1.29967	11
1.30333	11
1.30700	11
1.31067	11
1.31433	10
1.31800	12
1.32167	12
1.32533	13
1.32900	14
1.33267	12
1.33633	11
1.34000	13
1.34367	14
1.34733	14
1.35100	14
1.35467	13
1.35833	13
1.36200	11
1.36567	10
1.36933	11
1.37300	12
1.37667	15
1.38033	16
1.38400	15
1.38767	17
1.39133	18
1.39500	17
1.39867	12
1.40233	11
1.40600	13
1.40967	14
1.41333	14
1.41700	12
1.42067	9
1.42433	10
1.42800	10
1.43167	12
1.43533	14
1.43900	15
1.44267	16
1.44633	16
1.45000	15
1.45367	14
1.45733	13
1.46100	11
1.46467	11
1.46833	11
1.47200	10
1.47567	10
1.47933	11
1.48300	10
1.48667	10
1.49033	10
1.49400	11
1.49767	14
1.50133	14
1.50500	16
1.50867	18
1.51233	17
1.51600	14
1.51967	12
1.52333	12
1.52700	14
1.53067	14
1.53433	12
1.53800	10
1.54167	11
1.54533	10
1.54900	10
1.55267	11
1.55633	13
1.56000	14
1.56367	14
1.56733	16
1.57100	16
1.57467	15
1.57833	15
1.58200	14
1.58567	12
1.58933	13
1.59300	13
1.59667	13
1.60033	14
1.60400	16
1.60767	17
1.61133	18
1.61500	17
1.61867	17
1.62233	16
1.62600	17
1.62967	18
1.63333	19
1.63700	19
1.64067	19
1.64433	20
1.64800	19
1.65167	18
1.65533	19
1.65900	20
1.66267	23
1.66633	23
1.67000	22
1.67367	22
1.67733	22
1.68100	24
1.68467	27
1.68833	27
1.69200	27
1.69567	26
1.69933	28
1.70300	30
1.70667	29
1.71033	29
1.71400	30
1.71767	31
1.72133	32
1.72500	33
1.72867	33
1.73233	32
1.73600	32
1.73967	32
1.74333	33
1.74700	33
1.75067	34
1.75433	34
1.75800	35
1.76167	35
1.76533	35
1.76900	36
1.77267	36
1.77633	38
1.78000	40
1.78367	40
1.78733	40
1.79100	40
1.79467	37
1.79833	36
1.80200	37
1.80567	39
1.80933	39
1.81300	40
1.81667	42
1.82033	43
1.82400	43
1.82767	41
1.83133	42
1.83500	44
1.83867	45
1.84233	46
1.84600	47
1.84967	49
1.85333	51
1.85700	52
1.86067	51
1.86433	51
1.86800	50
1.87167	49
1.87533	50
1.87900	52
1.88267	54
1.88633	55
1.89000	55
1.89367	54
1.89733	56
1.90100	60
1.90467	62
1.90833	62
1.91200	62
1.91567	62
1.91933	63
1.92300	64
1.92667	62
1.93033	61
1.93400	60
1.93767	62
1.94133	64
1.94500	67
1.94867	68
1.95233	70
1.95600	71
1.95967	73
1.96333	74
1.96700	75
1.97067	75
1.97433	76
1.97800	79
1.98167	80
1.98533	81
1.98900	83
1.99267	84
1.99633	84
2.00000	82
2.00367	83
2.00733	85
2.01100	89
2.01467	90
2.01833	90
2.02200	93
2.02567	96
2.02933	99
2.03300	100
2.03667	102
2.04033	101
2.04400	100
2.04767	101
2.05133	103
2.05500	105
2.05867	105
2.06233	105
2.06600	106
2.06967	107
2.07333	107
2.07700	107
2.08067	110
2.08433	114
2.08800	118
2.09167	120
2.09533	121
2.09900	120
2.10267	120
2.10633	121
2.11000	121
2.11367	122
2.11733	122
2.12100	122
2.12467	122
2.12833	123
2.13200	124
2.13567	126
2.13933	127
2.14300	129
2.14667	132
2.15033	135
2.15400	139
2.15767	141
2.16133	142
2.16500	143
2.16867	143
2.17233	143
2.17600	145
2.17967	147
2.18333	150
2.18700	152
2.19067	154
2.19433	156
2.19800	157
2.20167	158
2.20533	159
2.20900	159
2.21267	159
2.21633	160
2.22000	163
2.22367	164
2.22733	166
2.23100	168
2.23467	170
2.23833	172
2.24200	177
2.24567	181
2.24933	183
2.25300	185
2.25667	185
2.26033	186
2.26400	188
2.26767	190
2.27133	192
2.27500	192
2.27867	192
2.28233	192
2.28600	194
2.28967	195
2.29333	196
2.29700	200
2.30067	202
2.30433	205
2.30800	206
2.31167	206
2.31533	208
2.31900	211
2.32267	215
2.32633	218
2.33000	221
2.33367	221
2.33733	222
2.34100	223
2.34467	226
2.34833	227
2.35200	229
2.35567	231
2.35933	232
2.36300	232
2.36667	235
2.37033	234
2.37400	235
2.37767	237
2.38133	239
2.38500	241
2.38867	240
2.39233	241
2.39600	243
2.39967	244
2.40333	248
2.40700	253
2.41067	257
2.41433	260
2.41800	263
2.42167	264
2.42533	263
2.42900	263
2.43267	263
2.43633	262
2.44000	266
2.44367	331
2.44733	497
2.45100	675
2.45467	820
2.45833	902
2.46200	908
2.46567	865
2.46933	807
2.47300	754
2.47667	715
2.48033	686
2.48400	651
2.48767	604
2.49133	553
2.49500	503
2.49867	461
2.50233	430
2.50600	412
2.50967	404
2.51333	410
2.51700	428
2.52067	453
2.52433	476
2.52800	490
2.53167	489
2.53533	474
2.53900	450
2.54267	419
2.54633	385
2.55000	351
2.55367	323
2.55733	297
2.56100	277
2.56467	264
2.56833	253
2.57200	244
2.57567	239
2.57933	236
2.58300	236
2.58667	238
2.59033	241
2.59400	244
2.59767	247
2.60133	248
2.60500	246
2.60867	241
2.61233	237
2.61600	231
2.61967	221
2.62333	211
2.62700	200
2.63067	190
2.63433	180
2.63800	170
2.64167	160
2.64533	147
2.64900	132
2.65267	118
2.65633	104
2.66000	90
2.66367	76
2.66733	63
2.67100	51
2.67467	40
2.67833	29
2.68200	22
2.68567	17
2.68933	15
2.69300	15
2.69667	18
2.70033	20
2.70400	21
2.70767	24
2.71133	28
2.71500	31
2.71867	33
2.72233	36
2.72600	39
2.72967	42
2.73333	47
2.73700	51
2.74067	55
2.74433	57
2.74800	59
2.75167	61
2.75533	65
2.75900	70
2.76267	73
2.76633	74
2.77000	77
2.77367	82
2.77733	85
2.78100	89
2.78467	92
2.78833	96
2.79200	101
2.79567	108
2.79933	113
2.80300	118
2.80667	125
2.81033	130
2.81400	135
2.81767	145
2.82133	160
2.82500	181
2.82867	215
2.83233	275
2.83600	384
2.83967	562
2.84333	830
2.84700	1196
2.85067	1659
2.85433	2197
2.85800	2779
2.86167	3359
2.86533	3891
2.86900	4334
2.87267	4654
2.87633	4832
2.88000	4867
2.88367	4777
2.88733	4589
2.89100	4327
2.89467	4013
2.89833	3673
2.90200	3329
2.90567	2989
2.90933	2668
2.91300	2371
2.91667	2100
2.92033	1855
2.92400	1636
2.92767	1441
2.93133	1266
2.93500	1114
2.93867	982
2.94233	866
2.94600	763
2.94967	673
2.95333	597
2.95700	531
2.96067	473
2.96433	421
2.96800	379
2.97167	341
2.97533	306
2.97900	277
2.98267	252
2.98633	230
2.99000	212
2.99367	197
2.99733	183
3.00100	171
3.00467	161
3.00833	153
3.01200	147
3.01567	140
3.01933	133
3.02300	126
3.02667	121
3.03033	119
3.03400	115
3.03767	111
3.04133	109
3.04500	107
3.04867	105
3.05233	102
3.05600	101
3.05967	101
3.06333	98
3.06700	99
3.07067	98
3.07433	96
3.07800	96
3.08167	95
3.08533	95
3.08900	95
3.09267	94
3.09633	96
3.10000	98
3.10367	98
3.10733	95
3.11100	93
3.11467	93
3.11833	92
3.12200	93
3.12567	93
3.12933	93
3.13300	94
3.13667	93
3.14033	92
3.14400	85
3.14767	57
3.15133	33
3.15500	31
3.15867	51
3.16233	87
3.16600	136
3.16967	192
3.17333	250
3.17700	305
3.18067	354
3.18433	402
3.18800	447
3.19167	483
3.19533	514
3.19900	542
3.20267	566
3.20633	586
3.21000	600
3.21367	614
3.21733	627
3.22100	638
3.22467	649
3.22833	660
3.23200	669
3.23567	674
3.23933	680
3.24300	686
3.24667	690
3.25033	696
3.25400	705
3.25767	713
3.26133	719
3.26500	723
3.26867	729
3.27233	735
3.27600	740
3.27967	745
3.28333	748
3.28700	753
3.29067	758
3.29433	763
3.29800	769
3.30167	774
3.30533	779
3.30900	787
3.31267	793
3.31633	798
3.32000	803
3.32367	807
3.32733	812
3.33100	818
3.33467	824
3.33833	828
3.34200	829
3.34567	830
3.34933	832
3.35300	834
3.35667	836
3.36033	837
3.36400	839
3.36767	842
3.37133	845
3.37500	848
3.37867	849
3.38233	847
3.38600	842
3.38967	839
3.39333	837
3.39700	838
3.40067	840
3.40433	842
3.40800	842
3.41167	841
3.41533	838
3.41900	834
3.42267	830
3.42633	828
3.43000	826
3.43367	821
3.43733	815
3.44100	808
3.44467	805
3.44833	803
3.45200	803
3.45567	802
3.45933	800
3.46300	796
3.46667	790
3.47033	786
3.47400	783
3.47767	781
3.48133	778
3.48500	774
3.48867	770
3.49233	764
3.49600	760
3.49967	756
3.50333	752
3.50700	750
3.51067	750
3.51433	751
3.51800	753
3.52167	750
3.52533	747
3.52900	746
3.53267	745
3.53633	743
3.54000	743
3.54367	742
3.54733	743
3.55100	743
3.55467	744
3.55833	744
3.56200	744
3.56567	744
3.56933	744
3.57300	743
3.57667	744
3.58033	743
3.58400	742
3.58767	740
3.59133	740
3.59500	740
3.59867	738
3.60233	738
3.60600	739
3.60967	739
3.61333	737
3.61700	735
3.62067	731
3.62433	729
3.62800	728
3.63167	728
3.63533	727
3.63900	727
3.64267	728
3.64633	728
3.65000	724
3.65367	723
3.65733	724
3.66100	723
3.66467	719
3.66833	718
3.67200	716
3.67567	713
3.67933	711
3.68300	708
3.68667	706
3.69033	704
3.69400	704
3.69767	704
3.70133	705
3.70500	707
3.70867	707
3.71233	704
3.71600	702
3.71967	702
3.72333	702
3.72700	700
3.73067	697
3.73433	697
3.73800	696
3.74167	694
3.74533	692
3.74900	689
3.75267	689
3.75633	688
3.76000	686
3.76367	683
3.76733	682
3.77100	680
3.77467	678
3.77833	676
3.78200	675
3.78567	676
3.78933	674
3.79300	670
3.79667	665
3.80033	660
3.80400	656
3.80767	654
3.81133	650
3.81500	647
3.81867	645
3.82233	643
3.82600	644
3.82967	644
3.83333	643
3.83700	643
3.84067	642
3.84433	639
3.84800	636
3.85167	633
3.85533	631
3.85900	627
3.86267	623
3.86633	622
3.87000	624
3.87367	623
3.87733	621
3.88100	617
3.88467	613
3.88833	612
3.89200	612
3.89567	613
3.89933	613
3.90300	610
3.90667	606
3.91033	604
3.91400	603
3.91767	604
3.92133	604
3.92500	604
3.92867	603
3.93233	600
3.93600	595
3.93967	593
3.94333	592
3.94700	593
3.95067	592
3.95433	590
3.95800	587
3.96167	585
3.96533	584
3.96900	582
3.97267	580
3.97633	579
3.98000	578
3.98367	577
3.98733	576
3.99100	574
3.99467	572
3.99833	570

[Status Trace (Column Oven Temperature)]
Interval(msec)	1000
# of Points	240
Start Time(min)	0.001
End Time(min)	3.984
Intensity Units	
Intensity Multiplier	1
R.Time (min)	Intensity
0.00113	35.02
0.01780	35.02
0.03447	35.04
0.05113	35.04
0.06780	35.03
0.08447	35.03
0.10113	35.03
0.11780	35.04
0.13447	35.04
0.15113	35.04
0.16780	35.03
0.18447	35.04
0.20113	35.02
0.21780	35.00
0.23447	34.99
0.25113	34.98
0.26780	34.97
0.28447	34.96
0.30113	34.96
0.31780	34.96
0.33447	34.95
0.35113	34.96
0.36780	34.96
0.38447	34.97
0.40113	34.99
0.41780	34.99
0.43447	35.00
0.45113	35.01
0.46780	35.02
0.48447	35.01
0.50113	35.00
0.51780	34.99
0.53447	34.99
0.55113	34.99
0.56780	34.99
0.58447	35.00
0.60113	35.00
0.61780	35.01
0.63447	35.00
0.65113	35.00
0.66780	35.00
0.68447	35.00
0.70113	35.00
0.71780	35.00
0.73447	35.00
0.75113	34.99
0.76780	35.00
0.78447	35.00
0.80113	35.00
0.81780	35.01
0.83447	35.00
0.85113	35.00
0.86780	35.00
0.88447	34.99
0.90113	34.99
0.91780	35.00
0.93447	35.01
0.95113	35.01
0.96780	35.00
0.98447	35.01
1.00113	35.00
1.01780	35.01
1.03447	35.01
1.05113	35.01
1.06780	35.00
1.08447	34.98
1.10113	34.98
1.11780	34.99
1.13447	34.99
1.15113	34.99
1.16780	34.99
1.18447	34.98
1.20113	34.96
1.21780	34.96
1.23447	34.98
1.25113	34.99
1.26780	35.00
1.28447	35.00
1.30113	35.01
1.31780	35.01
1.33447	35.00
1.35113	34.99
1.36780	35.00
1.38447	35.00
1.40113	35.00
1.41780	34.98
1.43447	34.98
1.45113	34.97
1.46780	34.98
1.48447	34.96
1.50113	34.98
1.51780	34.99
1.53447	35.00
1.55113	35.01
1.56780	35.01
1.58447	35.02
1.60113	35.04
1.61780	35.14
1.63447	35.32
1.65113	35.53
1.66780	35.81
1.68447	36.18
1.70113	36.55
1.71780	36.89
1.73447	37.21
1.75113	37.52
1.76780	37.87
1.78447	38.21
1.80113	38.56
1.81780	38.87
1.83447	39.17
1.85113	39.51
1.86780	39.86
1.88447	40.17
1.90113	40.49
1.91780	40.84
1.93447	41.17
1.95113	41.49
1.96780	41.82
1.98447	42.14
2.00113	42.46
2.01780	42.79
2.03447	43.11
2.05113	43.45
2.06780	43.76
2.08447	44.09
2.10113	44.42
2.11780	44.75
2.13447	45.06
2.15113	45.41
2.16780	45.72
2.18447	46.06
2.20113	46.38
2.21780	46.71
2.23447	47.03
2.25113	47.37
2.26780	47.70
2.28447	48.02
2.30113	48.35
2.31780	48.68
2.33447	49.00
2.35113	49.37
2.36780	49.64
2.38447	49.75
2.40113	49.74
2.41780	49.76
2.43447	49.75
2.45113	49.77
2.46780	49.78
2.48447	49.79
2.50113	49.81
2.51780	49.83
2.53447	49.81
2.55113	49.80
2.56780	49.81
2.58447	49.81
2.60113	49.82
2.61780	49.83
2.63447	49.83
2.65113	49.84
2.66780	49.85
2.68447	49.84
2.70113	49.85
2.71780	49.87
2.73447	49.87
2.75113	49.86
2.76780	49.85
2.78447	49.85
2.80113	49.88
2.81780	49.91
2.83447	49.93
2.85113	49.93
2.86780	49.93
2.88447	49.93
2.90113	49.92
2.91780	49.93
2.93447	49.95
2.95113	49.95
2.96780	49.95
2.98447	49.96
3.00113	49.97
3.01780	49.98
3.03447	50.00
3.05113	50.02
3.06780	50.04
3.08447	50.06
3.10113	50.06
3.11780	50.07
3.13447	50.07
3.15113	50.08
3.16780	50.09
3.18447	50.09
3.20113	50.10
3.21780	50.10
3.23447	50.11
3.25113	50.10
3.26780	50.09
3.28447	50.08
3.30113	50.08
3.31780	50.06
3.33447	50.06
3.35113	50.06
3.36780	50.05
3.38447	50.05
3.40113	50.06
3.41780	50.05
3.43447	50.05
3.45113	50.04
3.46780	50.04
3.48447	50.03
3.50113	50.03
3.51780	50.03
3.53447	50.04
3.55113	50.04
3.56780	50.03
3.58447	50.02
3.60113	50.02
3.61780	50.03
3.63447	50.03
3.65113	50.04
3.66780	50.04
3.68447	50.04
3.70113	50.04
3.71780	50.05
3.73447	50.06
3.75113	50.06
3.76780	50.07
3.78447	50.06
3.80113	50.06
3.81780	50.05
3.83447	50.05
3.85113	50.06
3.86780	50.07
3.88447	50.07
3.90113	50.06
3.91780	50.06
3.93447	50.07
3.95113	50.07
3.96780	50.07
3.98447	50.08

[Status Trace (Injection Unit Temperature)]
Interval(msec)	1000
# of Points	240
Start Time(min)	0.001
End Time(min)	3.984
Intensity Units	
Intensity Multiplier	1
R.Time (min)	Intensity
0.00113	99.98
0.01780	99.98
0.03447	99.97
0.05113	99.98
0.06780	99.98
0.08447	99.99
0.10113	99.98
0.11780	99.98
0.13447	99.99
0.15113	99.98
0.16780	99.98
0.18447	99.99
0.20113	99.98
0.21780	99.98
0.23447	99.99
0.25113	99.98
0.26780	99.98
0.28447	99.98
0.30113	99.98
0.31780	99.98
0.33447	99.98
0.35113	99.98
0.36780	99.98
0.38447	99.98
0.40113	99.98
0.41780	99.98
0.43447	99.98
0.45113	99.98
0.46780	99.98
0.48447	99.98
0.50113	99.98
0.51780	99.98
0.53447	99.98
0.55113	99.97
0.56780	99.98
0.58447	99.98
0.60113	99.98
0.61780	99.98
0.63447	99.98
0.65113	99.97
0.66780	99.98
0.68447	99.98
0.70113	99.98
0.71780	99.97
0.73447	99.98
0.75113	99.98
0.76780	99.98
0.78447	99.98
0.80113	99.98
0.81780	99.97
0.83447	99.98
0.85113	99.98
0.86780	99.98
0.88447	99.98
0.90113	99.97
0.91780	99.98
0.93447	99.98
0.95113	99.98
0.96780	99.98
0.98447	99.98
1.00113	99.98
1.01780	99.97
1.03447	99.98
1.05113	99.98
1.06780	99.98
1.08447	99.98
1.10113	99.98
1.11780	99.98
1.13447	99.98
1.15113	99.98
1.16780	99.98
1.18447	99.98
1.20113	99.98
1.21780	99.97
1.23447	99.98
1.25113	99.98
1.26780	99.99
1.28447	99.99
1.30113	99.99
1.31780	99.98
1.33447	99.98
1.35113	99.98
1.36780	99.98
1.38447	99.98
1.40113	99.98
1.41780	99.98
1.43447	99.98
1.45113	99.99
1.46780	99.98
1.48447	99.98
1.50113	99.99
1.51780	99.98
1.53447	99.98
1.55113	99.98
1.56780	99.98
1.58447	99.99
1.60113	99.98
1.61780	99.99
1.63447	99.98
1.65113	99.99
1.66780	99.98
1.68447	99.99
1.70113	99.98
1.71780	99.99
1.73447	99.99
1.75113	99.99
1.76780	99.98
1.78447	99.98
1.80113	99.98
1.81780	99.98
1.83447	99.98
1.85113	99.98
1.86780	99.98
1.88447	99.98
1.90113	99.98
1.91780	99.98
1.93447	99.98
1.95113	99.98
1.96780	99.98
1.98447	99.98
2.00113	99.98
2.01780	99.97
2.03447	99.98
2.05113	99.97
2.06780	99.97
2.08447	99.97
2.10113	99.97
2.11780	99.97
2.13447	99.97
2.15113	99.97
2.16780	99.97
2.18447	99.97
2.20113	99.97
2.21780	99.97
2.23447	99.97
2.25113	99.97
2.26780	99.96
2.28447	99.96
2.30113	99.97
2.31780	99.96
2.33447	99.96
2.35113	99.97
2.36780	99.95
2.38447	99.96
2.40113	99.96
2.41780	99.96
2.43447	99.96
2.45113	99.96
2.46780	99.96
2.48447	99.96
2.50113	99.96
2.51780	99.96
2.53447	99.97
2.55113	99.97
2.56780	99.97
2.58447	99.97
2.60113	99.97
2.61780	99.97
2.63447	99.97
2.65113	99.97
2.66780	99.97
2.68447	99.98
2.70113	99.97
2.71780	99.98
2.73447	99.98
2.75113	99.98
2.76780	99.98
2.78447	99.99
2.80113	99.99
2.81780	99.99
2.83447	99.99
2.85113	99.99
2.86780	99.99
2.88447	100.00
2.90113	100.00
2.91780	100.00
2.93447	100.00
2.95113	100.00
2.96780	100.01
2.98447	100.01
3.00113	100.01
3.01780	100.00
3.03447	100.01
3.05113	100.02
3.06780	100.02
3.08447	100.02
3.10113	100.02
3.11780	100.02
3.13447	100.03
3.15113	100.03
3.16780	100.02
3.18447	100.03
3.20113	100.03
3.21780	100.03
3.23447	100.03
3.25113	100.03
3.26780	100.03
3.28447	100.03
3.30113	100.04
3.31780	100.04
3.33447	100.04
3.35113	100.04
3.36780	100.04
3.38447	100.04
3.40113	100.04
3.41780	100.04
3.43447	100.04
3.45113	100.04
3.46780	100.04
3.48447	100.04
3.50113	100.05
3.51780	100.05
3.53447	100.05
3.55113	100.05
3.56780	100.05
3.58447	100.05
3.60113	100.04
3.61780	100.05
3.63447	100.05
3.65113	100.04
3.66780	100.04
3.68447	100.05
3.70113	100.04
3.71780	100.04
3.73447	100.05
3.75113	100.05
3.76780	100.05
3.78447	100.05
3.80113	100.05
3.81780	100.05
3.83447	100.05
3.85113	100.05
3.86780	100.05
3.88447	100.05
3.90113	100.05
3.91780	100.05
3.93447	100.05
3.95113	100.04
3.96780	100.05
3.98447	100.05

[Status Trace (Carrier Gas Pressure)]
Interval(msec)	1000
# of Points	240
Start Time(min)	0.001
End Time(min)	3.984
Intensity Units	
Intensity Multiplier	1
R.Time (min)	Intensity
0.00113	58.00
0.01780	56.52
0.03447	56.18
0.05113	58.38
0.06780	59.89
0.08447	58.35
0.10113	57.97
0.11780	58.00
0.13447	58.01
0.15113	58.01
0.16780	58.00
0.18447	58.00
0.20113	58.00
0.21780	58.00
0.23447	58.00
0.25113	58.00
0.26780	58.00
0.28447	58.00
0.30113	58.00
0.31780	58.00
0.33447	58.00
0.35113	58.00
0.36780	58.00
0.38447	58.00
0.40113	58.00
0.41780	58.00
0.43447	58.00
0.45113	58.00
0.46780	58.00
0.48447	58.00
0.50113	58.00
0.51780	58.00
0.53447	58.00
0.55113	58.00
0.56780	58.00
0.58447	58.00
0.60113	58.00
0.61780	58.00
0.63447	58.00
0.65113	58.00
0.66780	58.00
0.68447	58.00
0.70113	58.00
0.71780	58.00
0.73447	58.00
0.75113	58.00
0.76780	58.00
0.78447	58.00
0.80113	58.00
0.81780	58.00
0.83447	58.00
0.85113	58.00
0.86780	58.00
0.88447	58.00
0.90113	58.00
0.91780	58.00
0.93447	58.00
0.95113	58.00
0.96780	58.00
0.98447	58.00
1.00113	58.00
1.01780	58.00
1.03447	58.00
1.05113	58.00
1.06780	58.00
1.08447	58.00
1.10113	58.00
1.11780	58.00
1.13447	58.00
1.15113	58.00
1.16780	58.00
1.18447	58.00
1.20113	58.00
1.21780	58.00
1.23447	58.00
1.25113	58.00
1.26780	58.00
1.28447	58.00
1.30113	58.00
1.31780	58.00
1.33447	58.00
1.35113	58.00
1.36780	58.00
1.38447	58.00
1.40113	58.00
1.41780	58.00
1.43447	58.00
1.45113	58.00
1.46780	58.00
1.48447	58.00
1.50113	58.00
1.51780	58.00
1.53447	58.00
1.55113	58.00
1.56780	58.00
1.58447	58.00
1.60113	58.00
1.61780	58.00
1.63447	58.00
1.65113	58.00
1.66780	58.00
1.68447	58.01
1.70113	58.00
1.71780	58.00
1.73447	58.00
1.75113	58.00
1.76780	58.00
1.78447	58.00
1.80113	58.00
1.81780	58.00
1.83447	58.00
1.85113	58.00
1.86780	58.00
1.88447	58.00
1.90113	58.00
1.91780	58.00
1.93447	58.00
1.95113	58.00
1.96780	58.00
1.98447	58.00
2.00113	58.00
2.01780	58.00
2.03447	58.00
2.05113	58.00
2.06780	58.00
2.08447	58.00
2.10113	58.00
2.11780	58.00
2.13447	58.00
2.15113	58.00
2.16780	58.00
2.18447	58.00
2.20113	58.00
2.21780	58.00
2.23447	58.00
2.25113	58.00
2.26780	58.00
2.28447	58.00
2.30113	58.00
2.31780	58.00
2.33447	58.00
2.35113	58.00
2.36780	58.00
2.38447	57.99
2.40113	57.99
2.41780	58.00
2.43447	58.00
2.45113	58.00
2.46780	58.00
2.48447	58.00
2.50113	58.00
2.51780	57.99
2.53447	57.99
2.55113	58.00
2.56780	58.00
2.58447	58.00
2.60113	58.00
2.61780	58.00
2.63447	58.00
2.65113	58.00
2.66780	58.00
2.68447	58.00
2.70113	58.00
2.71780	58.00
2.73447	58.00
2.75113	58.00
2.76780	58.00
2.78447	58.00
2.80113	58.00
2.81780	58.00
2.83447	58.00
2.85113	58.00
2.86780	58.00
2.88447	58.00
2.90113	58.00
2.91780	58.00
2.93447	58.00
2.95113	58.00
2.96780	58.00
2.98447	58.00
3.00113	58.00
3.01780	58.00
3.03447	58.00
3.05113	58.00
3.06780	58.00
3.08447	58.00
3.10113	58.00
3.11780	58.00
3.13447	58.00
3.15113	58.00
3.16780	58.00
3.18447	58.00
3.20113	58.00
3.21780	58.00
3.23447	58.00
3.25113	58.00
3.26780	58.00
3.28447	58.00
3.30113	58.00
3.31780	58.00
3.33447	58.00
3.35113	58.00
3.36780	58.00
3.38447	58.00
3.40113	58.00
3.41780	58.00
3.43447	58.00
3.45113	58.00
3.46780	58.00
3.48447	58.00
3.50113	58.00
3.51780	58.00
3.53447	58.00
3.55113	58.00
3.56780	58.00
3.58447	58.00
3.60113	58.00
3.61780	58.00
3.63447	58.00
3.65113	58.00
3.66780	58.00
3.68447	58.00
3.70113	58.00
3.71780	58.00
3.73447	58.00
3.75113	58.00
3.76780	58.00
3.78447	58.00
3.80113	58.00
3.81780	58.00
3.83447	58.00
3.85113	58.00
3.86780	58.00
3.88447	58.00
3.90113	58.00
3.91780	58.00
3.93447	58.00
3.95113	58.00
3.96780	58.00
3.98447	58.00

[Status Trace (Carrier Gas Flow)]
Interval(msec)	1000
# of Points	240
Start Time(min)	0.001
End Time(min)	3.984
Intensity Units	
Intensity Multiplier	1
R.Time (min)	Intensity
0.00113	34.52
0.01780	34.17
0.03447	34.54
0.05113	34.54
0.06780	34.49
0.08447	34.51
0.10113	34.52
0.11780	34.52
0.13447	34.52
0.15113	34.52
0.16780	34.51
0.18447	34.52
0.20113	34.52
0.21780	34.52
0.23447	34.52
0.25113	34.51
0.26780	34.52
0.28447	34.52
0.30113	34.52
0.31780	34.52
0.33447	34.52
0.35113	34.52
0.36780	34.52
0.38447	34.52
0.40113	34.52
0.41780	34.52
0.43447	34.52
0.45113	34.52
0.46780	34.53
0.48447	34.52
0.50113	34.52
0.51780	34.52
0.53447	34.52
0.55113	34.52
0.56780	34.52
0.58447	34.52
0.60113	34.52
0.61780	34.52
0.63447	34.51
0.65113	34.51
0.66780	34.52
0.68447	34.52
0.70113	34.52
0.71780	34.52
0.73447	34.52
0.75113	34.52
0.76780	34.52
0.78447	34.52
0.80113	34.52
0.81780	34.51
0.83447	34.52
0.85113	34.52
0.86780	34.52
0.88447	34.52
0.90113	34.52
0.91780	34.52
0.93447	34.51
0.95113	34.52
0.96780	34.52
0.98447	34.52
1.00113	34.52
1.01780	34.52
1.03447	34.52
1.05113	34.52
1.06780	34.52
1.08447	34.52
1.10113	34.52
1.11780	34.52
1.13447	34.52
1.15113	34.52
1.16780	34.52
1.18447	34.52
1.20113	34.52
1.21780	34.52
1.23447	34.52
1.25113	34.52
1.26780	34.52
1.28447	34.52
1.30113	34.52
1.31780	34.52
1.33447	34.52
1.35113	34.52
1.36780	34.52
1.38447	34.52
1.40113	34.52
1.41780	34.52
1.43447	34.52
1.45113	34.52
1.46780	34.52
1.48447	34.52
1.50113	34.52
1.51780	34.52
1.53447	34.52
1.55113	34.52
1.56780	34.52
1.58447	34.52
1.60113	34.52
1.61780	34.52
1.63447	34.52
1.65113	34.52
1.66780	34.53
1.68447	34.52
1.70113	34.52
1.71780	34.52
1.73447	34.52
1.75113	34.52
1.76780	34.52
1.78447	34.51
1.80113	34.52
1.81780	34.52
1.83447	34.52
1.85113	34.52
1.86780	34.52
1.88447	34.52
1.90113	34.52
1.91780	34.52
1.93447	34.52
1.95113	34.52
1.96780	34.52
1.98447	34.52
2.00113	34.52
2.01780	34.51
2.03447	34.52
2.05113	34.52
2.06780	34.52
2.08447	34.52
2.10113	34.52
2.11780	34.51
2.13447	34.52
2.15113	34.52
2.16780	34.52
2.18447	34.52
2.20113	34.52
2.21780	34.52
2.23447	34.52
2.25113	34.52
2.26780	34.52
2.28447	34.52
2.30113	34.52
2.31780	34.52
2.33447	34.52
2.35113	34.52
2.36780	34.52
2.38447	34.54
2.40113	34.52
2.41780	34.52
2.43447	34.52
2.45113	34.52
2.46780	34.52
2.48447	34.52
2.50113	34.52
2.51780	34.52
2.53447	34.52
2.55113	34.52
2.56780	34.52
2.58447	34.52
2.60113	34.52
2.61780	34.53
2.63447	34.52
2.65113	34.52
2.66780	34.51
2.68447	34.52
2.70113	34.52
2.71780	34.52
2.73447	34.52
2.75113	34.52
2.76780	34.52
2.78447	34.51
2.80113	34.52
2.81780	34.52
2.83447	34.52
2.85113	34.52
2.86780	34.52
2.88447	34.52
2.90113	34.52
2.91780	34.51
2.93447	34.52
2.95113	34.51
2.96780	34.52
2.98447	34.52
3.00113	34.51
3.01780	34.52
3.03447	34.51
3.05113	34.52
3.06780	34.52
3.08447	34.52
3.10113	34.52
3.11780	34.52
3.13447	34.52
3.15113	34.52
3.16780	34.52
3.18447	34.52
3.20113	34.52
3.21780	34.52
3.23447	34.52
3.25113	34.52
3.26780	34.52
3.28447	34.52
3.30113	34.52
3.31780	34.52
3.33447	34.51
3.35113	34.52
3.36780	34.52
3.38447	34.52
3.40113	34.52
3.41780	34.52
3.43447	34.52
3.45113	34.52
3.46780	34.52
3.48447	34.52
3.50113	34.52
3.51780	34.52
3.53447	34.52
3.55113	34.52
3.56780	34.52
3.58447	34.52
3.60113	34.52
3.61780	34.52
3.63447	34.52
3.65113	34.52
3.66780	34.52
3.68447	34.52
3.70113	34.52
3.71780	34.52
3.73447	34.52
3.75113	34.52
3.76780	34.52
3.78447	34.52
3.80113	34.52
3.81780	34.51
3.83447	34.52
3.85113	34.52
3.86780	34.52
3.88447	34.52
3.90113	34.52
3.91780	34.52
3.93447	34.52
3.95113	34.52
3.96780	34.52
3.98447	34.52

[Status Trace (Column Flow)]
Interval(msec)	1000
# of Points	240
Start Time(min)	0.001
End Time(min)	3.984
Intensity Units	
Intensity Multiplier	1
R.Time (min)	Intensity
0.00113	5.55
0.01780	5.38
0.03447	5.34
0.05113	5.59
0.06780	5.77
0.08447	5.59
0.10113	5.54
0.11780	5.55
0.13447	5.55
0.15113	5.55
0.16780	5.55
0.18447	5.55
0.20113	5.55
0.21780	5.55
0.23447	5.55
0.25113	5.55
0.26780	5.55
0.28447	5.55
0.30113	5.55
0.31780	5.55
0.33447	5.55
0.35113	5.55
0.36780	5.55
0.38447	5.55
0.40113	5.55
0.41780	5.55
0.43447	5.55
0.45113	5.55
0.46780	5.55
0.48447	5.55
0.50113	5.55
0.51780	5.55
0.53447	5.55
0.55113	5.55
0.56780	5.55
0.58447	5.55
0.60113	5.55
0.61780	5.55
0.63447	5.55
0.65113	5.55
0.66780	5.55
0.68447	5.55
0.70113	5.55
0.71780	5.55
0.73447	5.55
0.75113	5.55
0.76780	5.55
0.78447	5.55
0.80113	5.55
0.81780	5.55
0.83447	5.55
0.85113	5.55
0.86780	5.55
0.88447	5.55
0.90113	5.55
0.91780	5.55
0.93447	5.55
0.95113	5.55
0.96780	5.55
0.98447	5.55
1.00113	5.55
1.01780	5.55
1.03447	5.55
1.05113	5.55
1.06780	5.55
1.08447	5.55
1.10113	5.55
1.11780	5.55
1.13447	5.55
1.15113	5.55
1.16780	5.55
1.18447	5.55
1.20113	5.55
1.21780	5.55
1.23447	5.55
1.25113	5.55
1.26780	5.55
1.28447	5.55
1.30113	5.55
1.31780	5.55
1.33447	5.55
1.35113	5.55
1.36780	5.55
1.38447	5.55
1.40113	5.55
1.41780	5.55
1.43447	5.55
1.45113	5.55
1.46780	5.55
1.48447	5.55
1.50113	5.55
1.51780	5.55
1.53447	5.55
1.55113	5.55
1.56780	5.55
1.58447	5.55
1.60113	5.55
1.61780	5.55
1.63447	5.54
1.65113	5.53
1.66780	5.52
1.68447	5.51
1.70113	5.50
1.71780	5.49
1.73447	5.48
1.75113	5.47
1.76780	5.46
1.78447	5.45
1.80113	5.44
1.81780	5.43
1.83447	5.42
1.85113	5.41
1.86780	5.40
1.88447	5.39
1.90113	5.38
1.91780	5.37
1.93447	5.36
1.95113	5.35
1.96780	5.34
1.98447	5.33
2.00113	5.32
2.01780	5.31
2.03447	5.30
2.05113	5.29
2.06780	5.28
2.08447	5.27
2.10113	5.27
2.11780	5.25
2.13447	5.24
2.15113	5.23
2.16780	5.22
2.18447	5.22
2.20113	5.21
2.21780	5.20
2.23447	5.19
2.25113	5.18
2.26780	5.17
2.28447	5.16
2.30113	5.15
2.31780	5.14
2.33447	5.13
2.35113	5.12
2.36780	5.11
2.38447	5.11
2.40113	5.11
2.41780	5.11
2.43447	5.11
2.45113	5.11
2.46780	5.11
2.48447	5.11
2.50113	5.11
2.51780	5.11
2.53447	5.11
2.55113	5.11
2.56780	5.11
2.58447	5.11
2.60113	5.11
2.61780	5.11
2.63447	5.11
2.65113	5.11
2.66780	5.11
2.68447	5.11
2.70113	5.11
2.71780	5.11
2.73447	5.11
2.75113	5.11
2.76780	5.11
2.78447	5.11
2.80113	5.11
2.81780	5.11
2.83447	5.11
2.85113	5.11
2.86780	5.11
2.88447	5.11
2.90113	5.11
2.91780	5.11
2.93447	5.11
2.95113	5.11
2.96780	5.11
2.98447	5.10
3.00113	5.10
3.01780	5.10
3.03447	5.10
3.05113	5.10
3.06780	5.10
3.08447	5.10
3.10113	5.10
3.11780	5.10
3.13447	5.10
3.15113	5.10
3.16780	5.10
3.18447	5.10
3.20113	5.10
3.21780	5.10
3.23447	5.10
3.25113	5.10
3.26780	5.10
3.28447	5.10
3.30113	5.10
3.31780	5.10
3.33447	5.10
3.35113	5.10
3.36780	5.10
3.38447	5.10
3.40113	5.10
3.41780	5.10
3.43447	5.10
3.45113	5.10
3.46780	5.10
3.48447	5.10
3.50113	5.10
3.51780	5.10
3.53447	5.10
3.55113	5.10
3.56780	5.10
3.58447	5.10
3.60113	5.10
3.61780	5.10
3.63447	5.10
3.65113	5.10
3.66780	5.10
3.68447	5.10
3.70113	5.10
3.71780	5.10
3.73447	5.10
3.75113	5.10
3.76780	5.10
3.78447	5.10
3.80113	5.10
3.81780	5.10
3.83447	5.10
3.85113	5.10
3.86780	5.10
3.88447	5.10
3.90113	5.10
3.91780	5.10
3.93447	5.10
3.95113	5.10
3.96780	5.10
3.98447	5.10

[Status Trace (Linear Velocity)]
Interval(msec)	1000
# of Points	240
Start Time(min)	0.001
End Time(min)	3.984
Intensity Units	
Intensity Multiplier	1
R.Time (min)	Intensity
0.00113	39.02
0.01780	38.05
0.03447	37.83
0.05113	39.27
0.06780	40.26
0.08447	39.25
0.10113	39.00
0.11780	39.02
0.13447	39.03
0.15113	39.02
0.16780	39.02
0.18447	39.02
0.20113	39.02
0.21780	39.02
0.23447	39.02
0.25113	39.03
0.26780	39.03
0.28447	39.03
0.30113	39.03
0.31780	39.03
0.33447	39.03
0.35113	39.03
0.36780	39.03
0.38447	39.03
0.40113	39.03
0.41780	39.02
0.43447	39.02
0.45113	39.02
0.46780	39.02
0.48447	39.02
0.50113	39.02
0.51780	39.02
0.53447	39.02
0.55113	39.02
0.56780	39.02
0.58447	39.02
0.60113	39.02
0.61780	39.02
0.63447	39.02
0.65113	39.02
0.66780	39.02
0.68447	39.02
0.70113	39.02
0.71780	39.02
0.73447	39.02
0.75113	39.02
0.76780	39.02
0.78447	39.02
0.80113	39.02
0.81780	39.02
0.83447	39.02
0.85113	39.02
0.86780	39.02
0.88447	39.02
0.90113	39.02
0.91780	39.02
0.93447	39.02
0.95113	39.02
0.96780	39.02
0.98447	39.02
1.00113	39.02
1.01780	39.02
1.03447	39.02
1.05113	39.02
1.06780	39.02
1.08447	39.02
1.10113	39.03
1.11780	39.02
1.13447	39.02
1.15113	39.02
1.16780	39.02
1.18447	39.02
1.20113	39.03
1.21780	39.03
1.23447	39.03
1.25113	39.02
1.26780	39.02
1.28447	39.02
1.30113	39.02
1.31780	39.02
1.33447	39.02
1.35113	39.02
1.36780	39.02
1.38447	39.02
1.40113	39.02
1.41780	39.02
1.43447	39.02
1.45113	39.03
1.46780	39.03
1.48447	39.03
1.50113	39.03
1.51780	39.02
1.53447	39.02
1.55113	39.02
1.56780	39.02
1.58447	39.02
1.60113	39.02
1.61780	39.01
1.63447	39.00
1.65113	38.97
1.66780	38.95
1.68447	38.91
1.70113	38.88
1.71780	38.84
1.73447	38.81
1.75113	38.78
1.76780	38.75
1.78447	38.72
1.80113	38.68
1.81780	38.65
1.83447	38.63
1.85113	38.60
1.86780	38.56
1.88447	38.53
1.90113	38.50
1.91780	38.47
1.93447	38.44
1.95113	38.41
1.96780	38.38
1.98447	38.35
2.00113	38.32
2.01780	38.29
2.03447	38.26
2.05113	38.23
2.06780	38.20
2.08447	38.17
2.10113	38.15
2.11780	38.11
2.13447	38.08
2.15113	38.05
2.16780	38.02
2.18447	37.99
2.20113	37.96
2.21780	37.93
2.23447	37.90
2.25113	37.87
2.26780	37.84
2.28447	37.81
2.30113	37.79
2.31780	37.76
2.33447	37.73
2.35113	37.70
2.36780	37.67
2.38447	37.66
2.40113	37.66
2.41780	37.66
2.43447	37.66
2.45113	37.66
2.46780	37.66
2.48447	37.66
2.50113	37.66
2.51780	37.65
2.53447	37.65
2.55113	37.66
2.56780	37.66
2.58447	37.66
2.60113	37.65
2.61780	37.65
2.63447	37.65
2.65113	37.65
2.66780	37.65
2.68447	37.65
2.70113	37.65
2.71780	37.65
2.73447	37.65
2.75113	37.65
2.76780	37.65
2.78447	37.65
2.80113	37.65
2.81780	37.65
2.83447	37.64
2.85113	37.64
2.86780	37.64
2.88447	37.65
2.90113	37.65
2.91780	37.65
2.93447	37.64
2.95113	37.64
2.96780	37.64
2.98447	37.64
3.00113	37.64
3.01780	37.64
3.03447	37.64
3.05113	37.64
3.06780	37.64
3.08447	37.63
3.10113	37.63
3.11780	37.63
3.13447	37.63
3.15113	37.63
3.16780	37.63
3.18447	37.63
3.20113	37.63
3.21780	37.63
3.23447	37.63
3.25113	37.63
3.26780	37.63
3.28447	37.63
3.30113	37.63
3.31780	37.63
3.33447	37.63
3.35113	37.63
3.36780	37.63
3.38447	37.63
3.40113	37.63
3.41780	37.63
3.43447	37.63
3.45113	37.64
3.46780	37.64
3.48447	37.64
3.50113	37.64
3.51780	37.64
3.53447	37.64
3.55113	37.64
3.56780	37.64
3.58447	37.64
3.60113	37.64
3.61780	37.64
3.63447	37.64
3.65113	37.64
3.66780	37.63
3.68447	37.64
3.70113	37.64
3.71780	37.63
3.73447	37.63
3.75113	37.63
3.76780	37.63
3.78447	37.63
3.80113	37.63
3.81780	37.63
3.83447	37.63
3.85113	37.63
3.86780	37.63
3.88447	37.63
3.90113	37.63
3.91780	37.63
3.93447	37.63
3.95113	37.63
3.96780	37.63
3.98447	37.63

