[Header]
Application Name	LabSolutions
Version	5.110
Data File Name	C:\Users\User\Desktop\GC Analyses\Jack\Nachusa Grasslands Sampling\T4 Timepoint July 12th\T4_07122022_039.gcd
Output Date	3/17/2023
Output Time	12:04:53 PM

[File Information]
Type	Data File
Generated	3/14/2023 7:41:56 PM
Generated by	System Administrator
Modified	3/14/2023 7:48:35 PM
Modified by	System Administrator

[Sample Information]
Operator Name	System Administrator
Acquired	3/14/2023 7:44:35 PM
Sample Type	0:Unknown
Level	0
Sample Name	039
Sample ID	039
ISTD Amount1	1
ISTD Amount2	1
ISTD Amount3	1
ISTD Amount4	1
ISTD Amount5	1
ISTD Amount6	1
ISTD Amount7	1
ISTD Amount8	1
ISTD Amount9	1
ISTD Amount10	1
ISTD Amount11	1
ISTD Amount12	1
ISTD Amount13	1
ISTD Amount14	1
ISTD Amount15	1
ISTD Amount16	1
ISTD Amount17	1
ISTD Amount18	1
ISTD Amount19	1
ISTD Amount20	1
ISTD Amount21	1
ISTD Amount22	1
ISTD Amount23	1
ISTD Amount24	1
ISTD Amount25	1
ISTD Amount26	1
ISTD Amount27	1
ISTD Amount28	1
ISTD Amount29	1
ISTD Amount30	1
ISTD Amount31	1
ISTD Amount32	1
Sample Amount	1
Dilution Factor	1
Vial#	38
Injection Volume	1
Injection Count	1
Bar Code	

[Original Files]
Data File	C:\Users\User\Desktop\GC Analyses\Jack\Nachusa Grasslands Sampling\T4 Timepoint July 12th\T4_07122022_039.gcd
Method File	C:\LabSolutions\Data\GHG_4min_2022\ghg3_togas_w_acet_4 min_new_int.gcm
Batch File	C:\LabSolutions\Data\AutoSamplerTesting\T4_07122022.gcb
Report Format File	c:\LabSolutions\System\DEFAULT.lsr

[File Description]


[Configuration]
Instrument Name	C0B7VH3-Instrument1
Instrument #	1
Line #	1
# of Detectors	3
Detector ID	DET#1	DET#2	DET#3
Detector Name	FID	PTCD	ECD
# of Channels	1	1	1

[Peak Table(Ch1)]
# of Peaks	3
Peak#	R.Time	I.Time	F.Time	Area	Height	A/H	Conc.	Mark	ID#	Name	k'	Plate #	Plate Ht.	Tailing	Resolution	Sep.Factor	Area Ratio	Height Ratio	Conc. %	Norm Conc.
1	1.476	1.439	1.538	22378	11012	2.032	157.989	   	1	CO	0.000	9651	15.542	1.271	0.000	0.000	0	0	17.869	17.869
2	1.571	1.538	1.622	3585	1855	1.933	69.316	 V 	2	CH4	0.065	11868	12.639	1.129	1.619	0.000	0	0	7.840	7.840
3	1.996	1.952	2.378	2617229	1249063	2.095	656.854	   	3	CO2	0.353	17373	8.634	1.344	7.193	5.462	0	0	74.291	74.291

[Peak Table(Ch2)]
# of Peaks	0

[Peak Table(Ch3)]
# of Peaks	5
Peak#	R.Time	I.Time	F.Time	Area	Height	A/H	Conc.	Mark	ID#	Name	k'	Plate #	Plate Ht.	Tailing	Resolution	Sep.Factor	Area Ratio	Height Ratio	Conc. %	Norm Conc.
1	2.462	2.268	2.510	2467	685	3.603	0.000	   			0.000	9319	16.097	0.000	0.000	0.000	0	0	0.000	0.000
2	2.532	2.510	2.579	1168	389	3.004	0.000	 V 			0.028	5286	28.376	0.000	0.577	0.000	0	0	0.000	0.000
3	2.605	2.579	2.682	716	182	3.925	0.000	 V 			0.058	863	173.779	0.000	0.297	2.053	0	0	0.000	0.000
4	2.880	2.788	3.045	18332	4855	3.776	0.468	   	1	N2O	0.170	13231	11.337	1.487	1.209	2.923	0	0	100.000	100.000
5	3.346	3.170	3.995	18481	666	27.729	0.000	   	2	SF6	0.359	212	707.380	2.278	0.914	2.114	0	0	0.000	0.000

[Compound Results(Ch1)]
# of IDs	6
ID#	Name	R.Time	Area	Height	Conc.	Curve	3rd	2nd	1st	Constant	Area Ratio	Height Ratio	Conc. %	Norm Conc.
1	CO	1.476	22378	11012	157.989	Linear	0.000000e+00	0.000000e+00	1.416423e+002	0.000000e+00	0	0	17.869	17.869
2	CH4	1.571	3585	1855	69.316	Linear	0.000000e+00	0.000000e+00	5.171738e+001	0.000000e+00	0	0	7.840	7.840
3	CO2	1.996	2617229	1249063	656.854	Linear	0.000000e+00	0.000000e+00	3.984494e+003	0.000000e+00	0	0	74.291	74.291
4	Ethylene	0.000	0	0	0.000	Linear	0.000000e+00	0.000000e+00	0.000000e+00	0.000000e+00	0	0	0.000	0.000
5	Acetylene	0.000	0	0	0.000	Linear	0.000000e+00	0.000000e+00	0.000000e+00	0.000000e+00	0	0	0.000	0.000
6	Ethane	0.000	0	0	0.000	Linear	0.000000e+00	0.000000e+00	0.000000e+00	0.000000e+00	0	0	0.000	0.000

[Compound Results(Ch2)]
# of IDs	5
ID#	Name	R.Time	Area	Height	Conc.	Curve	3rd	2nd	1st	Constant	Area Ratio	Height Ratio	Conc. %	Norm Conc.
1	Hydrogen	0.000	0	0	0.000	Linear	0.000000e+00	0.000000e+00	0.000000e+00	0.000000e+00	0	0	0.000	0.000
2	Oxygen	0.000	0	0	0.000	Linear	0.000000e+00	0.000000e+00	0.000000e+00	0.000000e+00	0	0	0.000	0.000
3	Nitrogen	0.000	0	0	0.000	Linear	0.000000e+00	0.000000e+00	0.000000e+00	0.000000e+00	0	0	0.000	0.000
4	Methane	0.000	0	0	0.000	Linear	0.000000e+00	0.000000e+00	0.000000e+00	0.000000e+00	0	0	0.000	0.000
5	Carbon Monoxide	0.000	0	0	0.000	Linear	0.000000e+00	0.000000e+00	0.000000e+00	0.000000e+00	0	0	0.000	0.000

[Compound Results(Ch3)]
# of IDs	2
ID#	Name	R.Time	Area	Height	Conc.	Curve	3rd	2nd	1st	Constant	Area Ratio	Height Ratio	Conc. %	Norm Conc.
1	N2O	2.880	18332	4855	0.468	Linear	0.000000e+00	0.000000e+00	3.915173e+004	0.000000e+00	0	0	100.000	100.000
2	SF6	3.346	18481	666	0.000	Linear	0.000000e+00	0.000000e+00	0.000000e+00	0.000000e+00	0	0	0.000	0.000

[Group Results(Ch1)]
# of Groups	0

[Group Results(Ch2)]
# of Groups	0

[Group Results(Ch3)]
# of Groups	0

[Chromatogram (Ch1)]
Interval(msec)	220
# of Points	1091
Start Time(min)	0.002
End Time(min)	3.998
R.Time (min)	Intensity
0.00167	24
0.00533	21
0.00900	11
0.01267	0
0.01633	-6
0.02000	-10
0.02367	-17
0.02733	-17
0.03100	-10
0.03467	-8
0.03833	-5
0.04200	-4
0.04567	-3
0.04933	2
0.05300	7
0.05667	7
0.06033	5
0.06400	7
0.06767	8
0.07133	9
0.07500	13
0.07867	18
0.08233	26
0.08600	31
0.08967	28
0.09333	28
0.09700	21
0.10067	12
0.10433	4
0.10800	-1
0.11167	0
0.11533	4
0.11900	8
0.12267	10
0.12633	12
0.13000	20
0.13367	30
0.13733	33
0.14100	31
0.14467	26
0.14833	18
0.15200	14
0.15567	16
0.15933	18
0.16300	16
0.16667	17
0.17033	20
0.17400	26
0.17767	29
0.18133	29
0.18500	24
0.18867	21
0.19233	23
0.19600	27
0.19967	30
0.20333	34
0.20700	32
0.21067	29
0.21433	28
0.21800	30
0.22167	36
0.22533	34
0.22900	31
0.23267	32
0.23633	32
0.24000	30
0.24367	24
0.24733	22
0.25100	28
0.25467	39
0.25833	55
0.26200	71
0.26567	83
0.26933	90
0.27300	91
0.27667	89
0.28033	84
0.28400	83
0.28767	85
0.29133	91
0.29500	96
0.29867	92
0.30233	82
0.30600	72
0.30967	65
0.31333	65
0.31700	72
0.32067	81
0.32433	87
0.32800	89
0.33167	87
0.33533	82
0.33900	80
0.34267	77
0.34633	70
0.35000	64
0.35367	61
0.35733	60
0.36100	61
0.36467	64
0.36833	68
0.37200	72
0.37567	73
0.37933	64
0.38300	45
0.38667	25
0.39033	11
0.39400	4
0.39767	3
0.40133	4
0.40500	6
0.40867	6
0.41233	7
0.41600	13
0.41967	16
0.42333	14
0.42700	9
0.43067	4
0.43433	0
0.43800	-1
0.44167	3
0.44533	8
0.44900	13
0.45267	16
0.45633	16
0.46000	16
0.46367	16
0.46733	13
0.47100	6
0.47467	1
0.47833	-5
0.48200	-8
0.48567	-10
0.48933	-12
0.49300	-12
0.49667	-9
0.50033	-6
0.50400	-1
0.50767	5
0.51133	4
0.51500	-5
0.51867	-14
0.52233	-18
0.52600	-19
0.52967	-15
0.53333	-8
0.53700	3
0.54067	14
0.54433	20
0.54800	24
0.55167	24
0.55533	14
0.55900	2
0.56267	-8
0.56633	-12
0.57000	-13
0.57367	-15
0.57733	-14
0.58100	-15
0.58467	-20
0.58833	-27
0.59200	-33
0.59567	-32
0.59933	-31
0.60300	-30
0.60667	-27
0.61033	-20
0.61400	-16
0.61767	-13
0.62133	-9
0.62500	-4
0.62867	2
0.63233	7
0.63600	-1
0.63967	-11
0.64333	-16
0.64700	-17
0.65067	-16
0.65433	-12
0.65800	-10
0.66167	-12
0.66533	-15
0.66900	-23
0.67267	-32
0.67633	-36
0.68000	-38
0.68367	-32
0.68733	-20
0.69100	-9
0.69467	-9
0.69833	-14
0.70200	-25
0.70567	-35
0.70933	-38
0.71300	-35
0.71667	-33
0.72033	-30
0.72400	-24
0.72767	-23
0.73133	-28
0.73500	-35
0.73867	-40
0.74233	-34
0.74600	-21
0.74967	-15
0.75333	-16
0.75700	-19
0.76067	-22
0.76433	-24
0.76800	-27
0.77167	-34
0.77533	-41
0.77900	-46
0.78267	-44
0.78633	-37
0.79000	-33
0.79367	-35
0.79733	-38
0.80100	-39
0.80467	-40
0.80833	-39
0.81200	-34
0.81567	-26
0.81933	-20
0.82300	-18
0.82667	-15
0.83033	-8
0.83400	-2
0.83767	-4
0.84133	-12
0.84500	-20
0.84867	-29
0.85233	-40
0.85600	-46
0.85967	-48
0.86333	-52
0.86700	-55
0.87067	-56
0.87433	-54
0.87800	-46
0.88167	-38
0.88533	-31
0.88900	-26
0.89267	-26
0.89633	-25
0.90000	-24
0.90367	-27
0.90733	-33
0.91100	-36
0.91467	-32
0.91833	-24
0.92200	-19
0.92567	-16
0.92933	-13
0.93300	-16
0.93667	-20
0.94033	-25
0.94400	-28
0.94767	-29
0.95133	-30
0.95500	-31
0.95867	-31
0.96233	-27
0.96600	-25
0.96967	-21
0.97333	-16
0.97700	-14
0.98067	-11
0.98433	-9
0.98800	-9
0.99167	-15
0.99533	-24
0.99900	-30
1.00267	-33
1.00633	-38
1.01000	-43
1.01367	-46
1.01733	-43
1.02100	-40
1.02467	-37
1.02833	-33
1.03200	-24
1.03567	-15
1.03933	-15
1.04300	-23
1.04667	-33
1.05033	-43
1.05400	-49
1.05767	-51
1.06133	-46
1.06500	-39
1.06867	-36
1.07233	-32
1.07600	-30
1.07967	-30
1.08333	-30
1.08700	-24
1.09067	-17
1.09433	-11
1.09800	-9
1.10167	-9
1.10533	-12
1.10900	-15
1.11267	-17
1.11633	-18
1.12000	-19
1.12367	-19
1.12733	-21
1.13100	-24
1.13467	-24
1.13833	-19
1.14200	-15
1.14567	-12
1.14933	-8
1.15300	-8
1.15667	-13
1.16033	-18
1.16400	-19
1.16767	-24
1.17133	-32
1.17500	-35
1.17867	-35
1.18233	-34
1.18600	-34
1.18967	-35
1.19333	-35
1.19700	-36
1.20067	-33
1.20433	-29
1.20800	-26
1.21167	-25
1.21533	-26
1.21900	-24
1.22267	-21
1.22633	-16
1.23000	-14
1.23367	-20
1.23733	-33
1.24100	-47
1.24467	-54
1.24833	-52
1.25200	-42
1.25567	-33
1.25933	-30
1.26300	-27
1.26667	-25
1.27033	-28
1.27400	-28
1.27767	-29
1.28133	-31
1.28500	-36
1.28867	-39
1.29233	-39
1.29600	-37
1.29967	-33
1.30333	-32
1.30700	-35
1.31067	-34
1.31433	-31
1.31800	-30
1.32167	-35
1.32533	-40
1.32900	-38
1.33267	-38
1.33633	-38
1.34000	-39
1.34367	-46
1.34733	-54
1.35100	-62
1.35467	-69
1.35833	-70
1.36200	-66
1.36567	-59
1.36933	-51
1.37300	-47
1.37667	-45
1.38033	-46
1.38400	-51
1.38767	-50
1.39133	-38
1.39500	-22
1.39867	-14
1.40233	-15
1.40600	-19
1.40967	-25
1.41333	-31
1.41700	-38
1.42067	-44
1.42433	-46
1.42800	-47
1.43167	-50
1.43533	-51
1.43900	-37
1.44267	6
1.44633	139
1.45000	496
1.45367	1380
1.45733	3009
1.46100	5131
1.46467	7254
1.46833	9033
1.47200	10301
1.47567	10961
1.47933	10905
1.48300	10093
1.48667	8675
1.49033	6959
1.49400	5260
1.49767	3787
1.50133	2619
1.50500	1750
1.50867	1134
1.51233	710
1.51600	420
1.51967	226
1.52333	101
1.52700	19
1.53067	-34
1.53433	-66
1.53800	-75
1.54167	-45
1.54533	68
1.54900	306
1.55267	649
1.55633	1020
1.56000	1348
1.56367	1595
1.56733	1744
1.57100	1767
1.57467	1646
1.57833	1404
1.58200	1103
1.58567	802
1.58933	541
1.59300	339
1.59667	191
1.60033	86
1.60400	12
1.60767	-39
1.61133	-65
1.61500	-83
1.61867	-97
1.62233	-107
1.62600	-111
1.62967	-111
1.63333	-112
1.63700	-117
1.64067	-123
1.64433	-120
1.64800	-112
1.65167	-105
1.65533	-104
1.65900	-107
1.66267	-107
1.66633	-105
1.67000	-104
1.67367	-103
1.67733	-100
1.68100	-100
1.68467	-103
1.68833	-105
1.69200	-108
1.69567	-110
1.69933	-110
1.70300	-109
1.70667	-105
1.71033	-99
1.71400	-103
1.71767	-100
1.72133	-89
1.72500	-86
1.72867	-88
1.73233	-94
1.73600	-96
1.73967	-92
1.74333	-85
1.74700	-77
1.75067	-72
1.75433	-71
1.75800	-75
1.76167	-81
1.76533	-88
1.76900	-97
1.77267	-108
1.77633	-112
1.78000	-106
1.78367	-95
1.78733	-82
1.79100	-77
1.79467	-76
1.79833	-76
1.80200	-79
1.80567	-85
1.80933	-86
1.81300	-81
1.81667	-78
1.82033	-76
1.82400	-70
1.82767	-68
1.83133	-73
1.83500	-81
1.83867	-85
1.84233	-90
1.84600	-92
1.84967	-97
1.85333	-100
1.85700	-99
1.86067	-98
1.86433	-89
1.86800	-79
1.87167	-69
1.87533	-61
1.87900	-58
1.88267	-58
1.88633	-60
1.89000	-62
1.89367	-63
1.89733	-60
1.90100	-58
1.90467	-68
1.90833	-76
1.91200	-75
1.91567	-65
1.91933	-49
1.92300	-42
1.92667	-44
1.93033	-46
1.93400	-49
1.93767	-60
1.94133	-72
1.94500	-82
1.94867	-89
1.95233	-83
1.95600	27
1.95967	762
1.96333	4461
1.96700	18599
1.97067	59795
1.97433	152030
1.97800	312033
1.98167	530901
1.98533	773493
1.98900	996095
1.99267	1162318
1.99633	1249008
2.00000	1247050
2.00367	1162062
2.00733	1014260
2.01100	833202
2.01467	648826
2.01833	483383
2.02200	348139
2.02567	244919
2.02933	169950
2.03300	117338
2.03667	81233
2.04033	56789
2.04400	40338
2.04767	29254
2.05133	21740
2.05500	16589
2.05867	13004
2.06233	10456
2.06600	8600
2.06967	7217
2.07333	6162
2.07700	5340
2.08067	4688
2.08433	4159
2.08800	3727
2.09167	3376
2.09533	3079
2.09900	2818
2.10267	2589
2.10633	2392
2.11000	2222
2.11367	2072
2.11733	1940
2.12100	1823
2.12467	1719
2.12833	1630
2.13200	1547
2.13567	1468
2.13933	1395
2.14300	1327
2.14667	1257
2.15033	1190
2.15400	1133
2.15767	1085
2.16133	1042
2.16500	1000
2.16867	957
2.17233	916
2.17600	880
2.17967	848
2.18333	817
2.18700	785
2.19067	751
2.19433	719
2.19800	690
2.20167	668
2.20533	653
2.20900	638
2.21267	619
2.21633	601
2.22000	582
2.22367	565
2.22733	547
2.23100	528
2.23467	512
2.23833	497
2.24200	481
2.24567	465
2.24933	450
2.25300	438
2.25667	428
2.26033	419
2.26400	409
2.26767	403
2.27133	400
2.27500	400
2.27867	403
2.28233	407
2.28600	408
2.28967	399
2.29333	381
2.29700	362
2.30067	344
2.30433	325
2.30800	309
2.31167	297
2.31533	291
2.31900	287
2.32267	283
2.32633	277
2.33000	272
2.33367	277
2.33733	283
2.34100	292
2.34467	302
2.34833	304
2.35200	300
2.35567	286
2.35933	268
2.36300	251
2.36667	231
2.37033	212
2.37400	196
2.37767	185
2.38133	182
2.38500	181
2.38867	178
2.39233	174
2.39600	170
2.39967	170
2.40333	174
2.40700	181
2.41067	188
2.41433	192
2.41800	196
2.42167	197
2.42533	194
2.42900	187
2.43267	184
2.43633	186
2.44000	189
2.44367	193
2.44733	190
2.45100	181
2.45467	176
2.45833	174
2.46200	173
2.46567	176
2.46933	184
2.47300	183
2.47667	176
2.48033	175
2.48400	174
2.48767	168
2.49133	158
2.49500	145
2.49867	136
2.50233	133
2.50600	136
2.50967	142
2.51333	154
2.51700	159
2.52067	148
2.52433	131
2.52800	115
2.53167	106
2.53533	100
2.53900	100
2.54267	107
2.54633	119
2.55000	130
2.55367	138
2.55733	143
2.56100	142
2.56467	135
2.56833	124
2.57200	110
2.57567	107
2.57933	115
2.58300	122
2.58667	121
2.59033	108
2.59400	91
2.59767	78
2.60133	72
2.60500	75
2.60867	82
2.61233	87
2.61600	88
2.61967	88
2.62333	90
2.62700	94
2.63067	98
2.63433	102
2.63800	105
2.64167	110
2.64533	111
2.64900	106
2.65267	98
2.65633	93
2.66000	94
2.66367	92
2.66733	87
2.67100	79
2.67467	70
2.67833	69
2.68200	72
2.68567	76
2.68933	80
2.69300	81
2.69667	78
2.70033	71
2.70400	67
2.70767	68
2.71133	75
2.71500	83
2.71867	93
2.72233	100
2.72600	100
2.72967	93
2.73333	82
2.73700	74
2.74067	65
2.74433	56
2.74800	52
2.75167	52
2.75533	56
2.75900	62
2.76267	65
2.76633	66
2.77000	64
2.77367	67
2.77733	74
2.78100	78
2.78467	77
2.78833	75
2.79200	75
2.79567	75
2.79933	78
2.80300	79
2.80667	71
2.81033	61
2.81400	55
2.81767	47
2.82133	41
2.82500	41
2.82867	54
2.83233	69
2.83600	78
2.83967	78
2.84333	75
2.84700	71
2.85067	67
2.85433	67
2.85800	67
2.86167	63
2.86533	58
2.86900	56
2.87267	57
2.87633	55
2.88000	58
2.88367	67
2.88733	72
2.89100	76
2.89467	77
2.89833	73
2.90200	70
2.90567	69
2.90933	68
2.91300	64
2.91667	59
2.92033	53
2.92400	48
2.92767	46
2.93133	49
2.93500	56
2.93867	61
2.94233	66
2.94600	73
2.94967	79
2.95333	82
2.95700	83
2.96067	82
2.96433	80
2.96800	76
2.97167	72
2.97533	69
2.97900	72
2.98267	76
2.98633	75
2.99000	64
2.99367	49
2.99733	38
3.00100	35
3.00467	41
3.00833	56
3.01200	71
3.01567	78
3.01933	78
3.02300	71
3.02667	60
3.03033	49
3.03400	44
3.03767	45
3.04133	48
3.04500	49
3.04867	46
3.05233	44
3.05600	40
3.05967	38
3.06333	42
3.06700	50
3.07067	60
3.07433	66
3.07800	67
3.08167	62
3.08533	55
3.08900	50
3.09267	45
3.09633	34
3.10000	28
3.10367	29
3.10733	34
3.11100	41
3.11467	48
3.11833	54
3.12200	57
3.12567	55
3.12933	51
3.13300	47
3.13667	46
3.14033	48
3.14400	50
3.14767	55
3.15133	59
3.15500	63
3.15867	66
3.16233	64
3.16600	60
3.16967	53
3.17333	43
3.17700	33
3.18067	28
3.18433	30
3.18800	42
3.19167	54
3.19533	60
3.19900	60
3.20267	55
3.20633	49
3.21000	41
3.21367	33
3.21733	23
3.22100	18
3.22467	24
3.22833	35
3.23200	43
3.23567	48
3.23933	56
3.24300	49
3.24667	44
3.25033	40
3.25400	36
3.25767	33
3.26133	29
3.26500	31
3.26867	40
3.27233	48
3.27600	48
3.27967	40
3.28333	34
3.28700	32
3.29067	34
3.29433	34
3.29800	39
3.30167	43
3.30533	44
3.30900	38
3.31267	30
3.31633	25
3.32000	19
3.32367	14
3.32733	14
3.33100	17
3.33467	17
3.33833	16
3.34200	21
3.34567	26
3.34933	31
3.35300	34
3.35667	36
3.36033	37
3.36400	41
3.36767	39
3.37133	39
3.37500	46
3.37867	52
3.38233	49
3.38600	47
3.38967	45
3.39333	39
3.39700	35
3.40067	35
3.40433	38
3.40800	35
3.41167	34
3.41533	34
3.41900	35
3.42267	37
3.42633	42
3.43000	41
3.43367	38
3.43733	35
3.44100	32
3.44467	27
3.44833	22
3.45200	16
3.45567	11
3.45933	9
3.46300	10
3.46667	15
3.47033	12
3.47400	2
3.47767	3
3.48133	15
3.48500	22
3.48867	22
3.49233	23
3.49600	28
3.49967	33
3.50333	41
3.50700	47
3.51067	46
3.51433	41
3.51800	37
3.52167	37
3.52533	36
3.52900	35
3.53267	34
3.53633	24
3.54000	11
3.54367	6
3.54733	5
3.55100	8
3.55467	15
3.55833	22
3.56200	23
3.56567	21
3.56933	13
3.57300	3
3.57667	-4
3.58033	-6
3.58400	-8
3.58767	-8
3.59133	-3
3.59500	10
3.59867	23
3.60233	29
3.60600	27
3.60967	22
3.61333	11
3.61700	1
3.62067	-5
3.62433	-4
3.62800	-0
3.63167	8
3.63533	17
3.63900	22
3.64267	26
3.64633	29
3.65000	29
3.65367	25
3.65733	18
3.66100	14
3.66467	14
3.66833	14
3.67200	13
3.67567	18
3.67933	26
3.68300	31
3.68667	31
3.69033	26
3.69400	22
3.69767	18
3.70133	9
3.70500	4
3.70867	6
3.71233	13
3.71600	19
3.71967	18
3.72333	13
3.72700	7
3.73067	1
3.73433	-3
3.73800	-3
3.74167	1
3.74533	5
3.74900	9
3.75267	14
3.75633	18
3.76000	17
3.76367	17
3.76733	17
3.77100	16
3.77467	14
3.77833	8
3.78200	6
3.78567	7
3.78933	7
3.79300	10
3.79667	9
3.80033	11
3.80400	13
3.80767	15
3.81133	14
3.81500	16
3.81867	13
3.82233	6
3.82600	2
3.82967	3
3.83333	7
3.83700	9
3.84067	5
3.84433	2
3.84800	-1
3.85167	-8
3.85533	-15
3.85900	-18
3.86267	-13
3.86633	-3
3.87000	6
3.87367	12
3.87733	16
3.88100	20
3.88467	14
3.88833	1
3.89200	-10
3.89567	-19
3.89933	-18
3.90300	-5
3.90667	5
3.91033	10
3.91400	12
3.91767	13
3.92133	11
3.92500	3
3.92867	-9
3.93233	-13
3.93600	-11
3.93967	-8
3.94333	-8
3.94700	-8
3.95067	-6
3.95433	-9
3.95800	-15
3.96167	-21
3.96533	-24
3.96900	-23
3.97267	-24
3.97633	-30
3.98000	-34
3.98367	-35
3.98733	-34
3.99100	-32
3.99467	-30
3.99833	-26

[Chromatogram (Ch2)]
Interval(msec)	220
# of Points	1091
Start Time(min)	0.002
End Time(min)	3.998
R.Time (min)	Intensity
0.00167	1
0.00533	1
0.00900	1
0.01267	1
0.01633	1
0.02000	1
0.02367	1
0.02733	1
0.03100	1
0.03467	1
0.03833	1
0.04200	1
0.04567	1
0.04933	1
0.05300	1
0.05667	1
0.06033	1
0.06400	1
0.06767	2
0.07133	2
0.07500	3
0.07867	3
0.08233	3
0.08600	3
0.08967	3
0.09333	3
0.09700	3
0.10067	3
0.10433	3
0.10800	2
0.11167	2
0.11533	2
0.11900	2
0.12267	1
0.12633	1
0.13000	1
0.13367	1
0.13733	1
0.14100	1
0.14467	1
0.14833	1
0.15200	1
0.15567	1
0.15933	1
0.16300	1
0.16667	1
0.17033	2
0.17400	2
0.17767	2
0.18133	2
0.18500	2
0.18867	3
0.19233	3
0.19600	3
0.19967	4
0.20333	4
0.20700	4
0.21067	4
0.21433	4
0.21800	3
0.22167	3
0.22533	3
0.22900	3
0.23267	2
0.23633	2
0.24000	1
0.24367	1
0.24733	1
0.25100	1
0.25467	1
0.25833	1
0.26200	1
0.26567	1
0.26933	1
0.27300	1
0.27667	1
0.28033	1
0.28400	1
0.28767	1
0.29133	1
0.29500	2
0.29867	2
0.30233	2
0.30600	2
0.30967	2
0.31333	2
0.31700	2
0.32067	1
0.32433	2
0.32800	2
0.33167	2
0.33533	2
0.33900	2
0.34267	3
0.34633	3
0.35000	3
0.35367	3
0.35733	3
0.36100	3
0.36467	3
0.36833	3
0.37200	3
0.37567	3
0.37933	3
0.38300	3
0.38667	2
0.39033	2
0.39400	2
0.39767	2
0.40133	1
0.40500	1
0.40867	1
0.41233	1
0.41600	1
0.41967	0
0.42333	0
0.42700	-0
0.43067	-1
0.43433	-1
0.43800	-1
0.44167	-2
0.44533	-2
0.44900	-2
0.45267	-2
0.45633	-3
0.46000	-3
0.46367	-3
0.46733	-3
0.47100	-2
0.47467	-1
0.47833	-1
0.48200	-1
0.48567	-1
0.48933	-1
0.49300	-1
0.49667	-1
0.50033	-1
0.50400	-1
0.50767	-1
0.51133	-1
0.51500	-1
0.51867	-1
0.52233	-1
0.52600	-1
0.52967	-1
0.53333	-1
0.53700	-1
0.54067	-1
0.54433	-1
0.54800	-1
0.55167	-1
0.55533	-1
0.55900	-1
0.56267	-0
0.56633	-0
0.57000	-0
0.57367	0
0.57733	0
0.58100	1
0.58467	1
0.58833	1
0.59200	2
0.59567	2
0.59933	1
0.60300	1
0.60667	0
0.61033	-0
0.61400	-1
0.61767	-1
0.62133	-1
0.62500	-2
0.62867	-2
0.63233	-2
0.63600	-1
0.63967	-1
0.64333	-1
0.64700	-0
0.65067	-0
0.65433	-0
0.65800	0
0.66167	1
0.66533	1
0.66900	1
0.67267	1
0.67633	2
0.68000	2
0.68367	2
0.68733	2
0.69100	2
0.69467	3
0.69833	3
0.70200	3
0.70567	4
0.70933	4
0.71300	4
0.71667	4
0.72033	4
0.72400	4
0.72767	4
0.73133	4
0.73500	4
0.73867	4
0.74233	4
0.74600	3
0.74967	3
0.75333	3
0.75700	2
0.76067	2
0.76433	2
0.76800	1
0.77167	1
0.77533	1
0.77900	1
0.78267	1
0.78633	1
0.79000	1
0.79367	0
0.79733	0
0.80100	0
0.80467	0
0.80833	0
0.81200	-0
0.81567	-0
0.81933	-0
0.82300	-0
0.82667	-1
0.83033	-1
0.83400	-1
0.83767	-1
0.84133	-1
0.84500	-1
0.84867	-1
0.85233	-1
0.85600	-1
0.85967	-1
0.86333	-2
0.86700	-2
0.87067	-2
0.87433	-3
0.87800	-3
0.88167	-3
0.88533	-3
0.88900	-3
0.89267	-3
0.89633	-3
0.90000	-3
0.90367	-3
0.90733	-2
0.91100	-2
0.91467	-2
0.91833	-1
0.92200	-1
0.92567	-1
0.92933	-1
0.93300	-1
0.93667	-0
0.94033	0
0.94400	1
0.94767	1
0.95133	1
0.95500	1
0.95867	1
0.96233	1
0.96600	2
0.96967	2
0.97333	2
0.97700	2
0.98067	2
0.98433	2
0.98800	2
0.99167	2
0.99533	2
0.99900	2
1.00267	2
1.00633	2
1.01000	2
1.01367	2
1.01733	3
1.02100	3
1.02467	2
1.02833	2
1.03200	2
1.03567	2
1.03933	2
1.04300	2
1.04667	1
1.05033	1
1.05400	1
1.05767	0
1.06133	-1
1.06500	-1
1.06867	-2
1.07233	-2
1.07600	-3
1.07967	-3
1.08333	-3
1.08700	-4
1.09067	-4
1.09433	-4
1.09800	-4
1.10167	-5
1.10533	-5
1.10900	-5
1.11267	-5
1.11633	-5
1.12000	-5
1.12367	-5
1.12733	-5
1.13100	-4
1.13467	-4
1.13833	-4
1.14200	-3
1.14567	-3
1.14933	-2
1.15300	-2
1.15667	-2
1.16033	-1
1.16400	-1
1.16767	-1
1.17133	-0
1.17500	-0
1.17867	0
1.18233	1
1.18600	1
1.18967	1
1.19333	1
1.19700	1
1.20067	1
1.20433	1
1.20800	1
1.21167	2
1.21533	2
1.21900	2
1.22267	2
1.22633	3
1.23000	3
1.23367	3
1.23733	3
1.24100	2
1.24467	2
1.24833	2
1.25200	1
1.25567	0
1.25933	-0
1.26300	-1
1.26667	-1
1.27033	-1
1.27400	-2
1.27767	-1
1.28133	-1
1.28500	-1
1.28867	-1
1.29233	-1
1.29600	-1
1.29967	-1
1.30333	-1
1.30700	-1
1.31067	-1
1.31433	-2
1.31800	-2
1.32167	-2
1.32533	-2
1.32900	-2
1.33267	-1
1.33633	-1
1.34000	-1
1.34367	-1
1.34733	-0
1.35100	0
1.35467	1
1.35833	1
1.36200	2
1.36567	2
1.36933	2
1.37300	1
1.37667	1
1.38033	1
1.38400	0
1.38767	-0
1.39133	-0
1.39500	-1
1.39867	-1
1.40233	-1
1.40600	-1
1.40967	-1
1.41333	-2
1.41700	-2
1.42067	-2
1.42433	-1
1.42800	-1
1.43167	-1
1.43533	-2
1.43900	-2
1.44267	-2
1.44633	-2
1.45000	-2
1.45367	-2
1.45733	-2
1.46100	-2
1.46467	-2
1.46833	-2
1.47200	-2
1.47567	-2
1.47933	-2
1.48300	-1
1.48667	-1
1.49033	-1
1.49400	-1
1.49767	-1
1.50133	-1
1.50500	-2
1.50867	-2
1.51233	-3
1.51600	-3
1.51967	-3
1.52333	-4
1.52700	-4
1.53067	-4
1.53433	-5
1.53800	-5
1.54167	-5
1.54533	-5
1.54900	-4
1.55267	-4
1.55633	-3
1.56000	-3
1.56367	-3
1.56733	-3
1.57100	-2
1.57467	-2
1.57833	-2
1.58200	-2
1.58567	-2
1.58933	-2
1.59300	-2
1.59667	-3
1.60033	-3
1.60400	-4
1.60767	-5
1.61133	-6
1.61500	-7
1.61867	-9
1.62233	-12
1.62600	-15
1.62967	-18
1.63333	-21
1.63700	-25
1.64067	-28
1.64433	-32
1.64800	-36
1.65167	-40
1.65533	-44
1.65900	-48
1.66267	-52
1.66633	-56
1.67000	-61
1.67367	-66
1.67733	-71
1.68100	-76
1.68467	-81
1.68833	-85
1.69200	-89
1.69567	-93
1.69933	-95
1.70300	-98
1.70667	-100
1.71033	-102
1.71400	-104
1.71767	-105
1.72133	-106
1.72500	-107
1.72867	-107
1.73233	-107
1.73600	-107
1.73967	-107
1.74333	-106
1.74700	-106
1.75067	-105
1.75433	-105
1.75800	-105
1.76167	-106
1.76533	-106
1.76900	-107
1.77267	-109
1.77633	-110
1.78000	-110
1.78367	-111
1.78733	-111
1.79100	-112
1.79467	-112
1.79833	-112
1.80200	-112
1.80567	-112
1.80933	-112
1.81300	-112
1.81667	-113
1.82033	-113
1.82400	-114
1.82767	-115
1.83133	-115
1.83500	-115
1.83867	-115
1.84233	-114
1.84600	-114
1.84967	-114
1.85333	-113
1.85700	-112
1.86067	-111
1.86433	-111
1.86800	-110
1.87167	-110
1.87533	-110
1.87900	-110
1.88267	-111
1.88633	-111
1.89000	-111
1.89367	-111
1.89733	-112
1.90100	-112
1.90467	-112
1.90833	-113
1.91200	-112
1.91567	-112
1.91933	-111
1.92300	-111
1.92667	-110
1.93033	-109
1.93400	-109
1.93767	-109
1.94133	-109
1.94500	-108
1.94867	-107
1.95233	-107
1.95600	-106
1.95967	-105
1.96333	-105
1.96700	-105
1.97067	-104
1.97433	-104
1.97800	-104
1.98167	-104
1.98533	-104
1.98900	-104
1.99267	-105
1.99633	-105
2.00000	-105
2.00367	-105
2.00733	-105
2.01100	-105
2.01467	-105
2.01833	-105
2.02200	-104
2.02567	-104
2.02933	-104
2.03300	-104
2.03667	-103
2.04033	-103
2.04400	-103
2.04767	-103
2.05133	-103
2.05500	-102
2.05867	-102
2.06233	-102
2.06600	-101
2.06967	-101
2.07333	-100
2.07700	-100
2.08067	-100
2.08433	-99
2.08800	-99
2.09167	-98
2.09533	-98
2.09900	-98
2.10267	-98
2.10633	-98
2.11000	-98
2.11367	-98
2.11733	-98
2.12100	-98
2.12467	-97
2.12833	-97
2.13200	-97
2.13567	-97
2.13933	-96
2.14300	-96
2.14667	-95
2.15033	-95
2.15400	-95
2.15767	-94
2.16133	-94
2.16500	-93
2.16867	-92
2.17233	-92
2.17600	-91
2.17967	-91
2.18333	-90
2.18700	-90
2.19067	-90
2.19433	-89
2.19800	-89
2.20167	-88
2.20533	-88
2.20900	-87
2.21267	-87
2.21633	-87
2.22000	-87
2.22367	-87
2.22733	-87
2.23100	-87
2.23467	-87
2.23833	-87
2.24200	-87
2.24567	-86
2.24933	-86
2.25300	-86
2.25667	-85
2.26033	-84
2.26400	-84
2.26767	-83
2.27133	-83
2.27500	-83
2.27867	-83
2.28233	-83
2.28600	-84
2.28967	-84
2.29333	-85
2.29700	-85
2.30067	-85
2.30433	-85
2.30800	-84
2.31167	-83
2.31533	-82
2.31900	-80
2.32267	-79
2.32633	-77
2.33000	-76
2.33367	-76
2.33733	-76
2.34100	-75
2.34467	-75
2.34833	-74
2.35200	-73
2.35567	-72
2.35933	-72
2.36300	-71
2.36667	-71
2.37033	-70
2.37400	-69
2.37767	-66
2.38133	-63
2.38500	-60
2.38867	-56
2.39233	-52
2.39600	-47
2.39967	-43
2.40333	-38
2.40700	-34
2.41067	-29
2.41433	-25
2.41800	-21
2.42167	-18
2.42533	-14
2.42900	-12
2.43267	-10
2.43633	-8
2.44000	-7
2.44367	-6
2.44733	-5
2.45100	-4
2.45467	-4
2.45833	-3
2.46200	-3
2.46567	-3
2.46933	-2
2.47300	-2
2.47667	-1
2.48033	0
2.48400	1
2.48767	2
2.49133	3
2.49500	4
2.49867	6
2.50233	7
2.50600	8
2.50967	9
2.51333	10
2.51700	11
2.52067	11
2.52433	12
2.52800	12
2.53167	12
2.53533	13
2.53900	14
2.54267	15
2.54633	15
2.55000	15
2.55367	15
2.55733	15
2.56100	16
2.56467	16
2.56833	16
2.57200	17
2.57567	17
2.57933	17
2.58300	17
2.58667	17
2.59033	16
2.59400	16
2.59767	16
2.60133	16
2.60500	16
2.60867	16
2.61233	17
2.61600	17
2.61967	18
2.62333	18
2.62700	19
2.63067	19
2.63433	19
2.63800	19
2.64167	20
2.64533	20
2.64900	20
2.65267	21
2.65633	21
2.66000	21
2.66367	21
2.66733	21
2.67100	21
2.67467	21
2.67833	21
2.68200	21
2.68567	21
2.68933	21
2.69300	21
2.69667	22
2.70033	22
2.70400	23
2.70767	24
2.71133	25
2.71500	25
2.71867	26
2.72233	26
2.72600	26
2.72967	27
2.73333	27
2.73700	26
2.74067	26
2.74433	26
2.74800	26
2.75167	26
2.75533	25
2.75900	25
2.76267	25
2.76633	25
2.77000	25
2.77367	26
2.77733	26
2.78100	26
2.78467	27
2.78833	27
2.79200	27
2.79567	27
2.79933	27
2.80300	27
2.80667	27
2.81033	27
2.81400	27
2.81767	27
2.82133	28
2.82500	28
2.82867	28
2.83233	28
2.83600	28
2.83967	28
2.84333	27
2.84700	25
2.85067	21
2.85433	16
2.85800	7
2.86167	-4
2.86533	-20
2.86900	-40
2.87267	-64
2.87633	-92
2.88000	-125
2.88367	-163
2.88733	-204
2.89100	-248
2.89467	-296
2.89833	-346
2.90200	-399
2.90567	-453
2.90933	-508
2.91300	-564
2.91667	-621
2.92033	-677
2.92400	-732
2.92767	-786
2.93133	-838
2.93500	-890
2.93867	-947
2.94233	-1006
2.94600	-1060
2.94967	-1096
2.95333	-1109
2.95700	-1096
2.96067	-1059
2.96433	-1002
2.96800	-932
2.97167	-854
2.97533	-773
2.97900	-692
2.98267	-614
2.98633	-540
2.99000	-473
2.99367	-411
2.99733	-355
3.00100	-306
3.00467	-263
3.00833	-225
3.01200	-191
3.01567	-163
3.01933	-138
3.02300	-116
3.02667	-98
3.03033	-82
3.03400	-68
3.03767	-56
3.04133	-46
3.04500	-37
3.04867	-30
3.05233	-23
3.05600	-18
3.05967	-13
3.06333	-9
3.06700	-5
3.07067	-2
3.07433	0
3.07800	3
3.08167	5
3.08533	6
3.08900	8
3.09267	9
3.09633	11
3.10000	12
3.10367	13
3.10733	14
3.11100	14
3.11467	15
3.11833	15
3.12200	16
3.12567	16
3.12933	17
3.13300	17
3.13667	18
3.14033	18
3.14400	18
3.14767	19
3.15133	19
3.15500	19
3.15867	20
3.16233	20
3.16600	20
3.16967	20
3.17333	21
3.17700	21
3.18067	21
3.18433	21
3.18800	21
3.19167	21
3.19533	21
3.19900	21
3.20267	21
3.20633	21
3.21000	21
3.21367	21
3.21733	22
3.22100	22
3.22467	22
3.22833	23
3.23200	23
3.23567	23
3.23933	22
3.24300	23
3.24667	23
3.25033	23
3.25400	24
3.25767	24
3.26133	24
3.26500	24
3.26867	24
3.27233	24
3.27600	24
3.27967	24
3.28333	24
3.28700	24
3.29067	24
3.29433	24
3.29800	24
3.30167	24
3.30533	25
3.30900	25
3.31267	25
3.31633	25
3.32000	25
3.32367	25
3.32733	25
3.33100	25
3.33467	25
3.33833	25
3.34200	26
3.34567	26
3.34933	26
3.35300	27
3.35667	27
3.36033	28
3.36400	28
3.36767	28
3.37133	29
3.37500	29
3.37867	29
3.38233	29
3.38600	30
3.38967	30
3.39333	30
3.39700	30
3.40067	30
3.40433	29
3.40800	29
3.41167	29
3.41533	29
3.41900	29
3.42267	29
3.42633	29
3.43000	30
3.43367	30
3.43733	30
3.44100	30
3.44467	30
3.44833	30
3.45200	30
3.45567	29
3.45933	29
3.46300	29
3.46667	29
3.47033	29
3.47400	29
3.47767	28
3.48133	28
3.48500	28
3.48867	27
3.49233	27
3.49600	27
3.49967	26
3.50333	26
3.50700	26
3.51067	26
3.51433	26
3.51800	26
3.52167	26
3.52533	26
3.52900	27
3.53267	27
3.53633	27
3.54000	27
3.54367	27
3.54733	27
3.55100	27
3.55467	27
3.55833	27
3.56200	27
3.56567	28
3.56933	28
3.57300	28
3.57667	29
3.58033	29
3.58400	29
3.58767	29
3.59133	29
3.59500	29
3.59867	29
3.60233	28
3.60600	28
3.60967	28
3.61333	27
3.61700	27
3.62067	27
3.62433	27
3.62800	27
3.63167	27
3.63533	27
3.63900	27
3.64267	27
3.64633	27
3.65000	27
3.65367	28
3.65733	27
3.66100	27
3.66467	27
3.66833	27
3.67200	27
3.67567	27
3.67933	27
3.68300	27
3.68667	27
3.69033	27
3.69400	27
3.69767	26
3.70133	26
3.70500	26
3.70867	27
3.71233	27
3.71600	27
3.71967	27
3.72333	27
3.72700	27
3.73067	27
3.73433	27
3.73800	27
3.74167	27
3.74533	27
3.74900	27
3.75267	28
3.75633	28
3.76000	28
3.76367	28
3.76733	28
3.77100	28
3.77467	28
3.77833	27
3.78200	27
3.78567	27
3.78933	27
3.79300	27
3.79667	27
3.80033	27
3.80400	27
3.80767	27
3.81133	27
3.81500	27
3.81867	27
3.82233	27
3.82600	28
3.82967	28
3.83333	28
3.83700	28
3.84067	28
3.84433	28
3.84800	28
3.85167	28
3.85533	28
3.85900	28
3.86267	28
3.86633	28
3.87000	27
3.87367	27
3.87733	27
3.88100	27
3.88467	27
3.88833	27
3.89200	27
3.89567	27
3.89933	27
3.90300	28
3.90667	28
3.91033	28
3.91400	28
3.91767	29
3.92133	29
3.92500	29
3.92867	29
3.93233	29
3.93600	29
3.93967	29
3.94333	28
3.94700	29
3.95067	29
3.95433	29
3.95800	29
3.96167	29
3.96533	29
3.96900	29
3.97267	29
3.97633	29
3.98000	28
3.98367	28
3.98733	28
3.99100	28
3.99467	28
3.99833	28

[Chromatogram (Ch3)]
Interval(msec)	220
# of Points	1091
Start Time(min)	0.002
End Time(min)	3.998
R.Time (min)	Intensity
0.00167	1
0.00533	2
0.00900	1
0.01267	-1
0.01633	-2
0.02000	-1
0.02367	1
0.02733	3
0.03100	1
0.03467	-2
0.03833	-2
0.04200	-1
0.04567	-0
0.04933	-0
0.05300	0
0.05667	-1
0.06033	-0
0.06400	2
0.06767	4
0.07133	5
0.07500	6
0.07867	6
0.08233	5
0.08600	6
0.08967	5
0.09333	3
0.09700	3
0.10067	2
0.10433	1
0.10800	0
0.11167	0
0.11533	0
0.11900	-1
0.12267	-2
0.12633	-3
0.13000	-3
0.13367	-4
0.13733	-4
0.14100	-1
0.14467	2
0.14833	4
0.15200	5
0.15567	4
0.15933	4
0.16300	3
0.16667	1
0.17033	-1
0.17400	-3
0.17767	-3
0.18133	-2
0.18500	-2
0.18867	-3
0.19233	-3
0.19600	-1
0.19967	-0
0.20333	0
0.20700	1
0.21067	1
0.21433	1
0.21800	0
0.22167	-1
0.22533	-0
0.22900	1
0.23267	0
0.23633	1
0.24000	1
0.24367	1
0.24733	0
0.25100	-2
0.25467	-3
0.25833	-3
0.26200	-2
0.26567	0
0.26933	1
0.27300	0
0.27667	1
0.28033	3
0.28400	4
0.28767	4
0.29133	5
0.29500	6
0.29867	4
0.30233	3
0.30600	2
0.30967	2
0.31333	2
0.31700	2
0.32067	1
0.32433	-1
0.32800	-2
0.33167	-2
0.33533	-1
0.33900	1
0.34267	0
0.34633	0
0.35000	2
0.35367	4
0.35733	3
0.36100	2
0.36467	0
0.36833	-2
0.37200	-1
0.37567	1
0.37933	1
0.38300	2
0.38667	3
0.39033	3
0.39400	4
0.39767	4
0.40133	4
0.40500	3
0.40867	4
0.41233	5
0.41600	6
0.41967	5
0.42333	3
0.42700	2
0.43067	3
0.43433	4
0.43800	5
0.44167	4
0.44533	1
0.44900	-1
0.45267	-1
0.45633	1
0.46000	2
0.46367	4
0.46733	6
0.47100	6
0.47467	5
0.47833	4
0.48200	2
0.48567	0
0.48933	-0
0.49300	-1
0.49667	-3
0.50033	-5
0.50400	-6
0.50767	-4
0.51133	-1
0.51500	1
0.51867	3
0.52233	5
0.52600	6
0.52967	8
0.53333	5
0.53700	3
0.54067	3
0.54433	2
0.54800	1
0.55167	3
0.55533	2
0.55900	-0
0.56267	-2
0.56633	-1
0.57000	0
0.57367	1
0.57733	2
0.58100	4
0.58467	2
0.58833	0
0.59200	-1
0.59567	-1
0.59933	1
0.60300	1
0.60667	0
0.61033	-1
0.61400	-1
0.61767	-2
0.62133	-3
0.62500	-2
0.62867	0
0.63233	2
0.63600	2
0.63967	4
0.64333	6
0.64700	7
0.65067	7
0.65433	7
0.65800	9
0.66167	8
0.66533	4
0.66900	1
0.67267	2
0.67633	4
0.68000	6
0.68367	4
0.68733	4
0.69100	4
0.69467	5
0.69833	5
0.70200	5
0.70567	5
0.70933	4
0.71300	3
0.71667	2
0.72033	2
0.72400	2
0.72767	5
0.73133	4
0.73500	2
0.73867	2
0.74233	3
0.74600	3
0.74967	3
0.75333	4
0.75700	6
0.76067	6
0.76433	4
0.76800	4
0.77167	5
0.77533	4
0.77900	3
0.78267	2
0.78633	2
0.79000	3
0.79367	3
0.79733	4
0.80100	3
0.80467	2
0.80833	3
0.81200	2
0.81567	1
0.81933	2
0.82300	3
0.82667	3
0.83033	2
0.83400	3
0.83767	5
0.84133	5
0.84500	5
0.84867	6
0.85233	6
0.85600	5
0.85967	4
0.86333	4
0.86700	4
0.87067	5
0.87433	6
0.87800	7
0.88167	8
0.88533	11
0.88900	11
0.89267	11
0.89633	10
0.90000	9
0.90367	7
0.90733	6
0.91100	6
0.91467	4
0.91833	4
0.92200	5
0.92567	6
0.92933	6
0.93300	6
0.93667	8
0.94033	8
0.94400	8
0.94767	7
0.95133	6
0.95500	6
0.95867	6
0.96233	5
0.96600	6
0.96967	8
0.97333	11
0.97700	12
0.98067	12
0.98433	10
0.98800	10
0.99167	9
0.99533	9
0.99900	9
1.00267	11
1.00633	11
1.01000	11
1.01367	12
1.01733	12
1.02100	11
1.02467	11
1.02833	13
1.03200	14
1.03567	12
1.03933	10
1.04300	8
1.04667	8
1.05033	10
1.05400	12
1.05767	11
1.06133	10
1.06500	11
1.06867	11
1.07233	10
1.07600	10
1.07967	9
1.08333	10
1.08700	13
1.09067	15
1.09433	14
1.09800	14
1.10167	14
1.10533	12
1.10900	11
1.11267	13
1.11633	14
1.12000	14
1.12367	12
1.12733	10
1.13100	8
1.13467	9
1.13833	10
1.14200	11
1.14567	9
1.14933	8
1.15300	9
1.15667	11
1.16033	12
1.16400	12
1.16767	12
1.17133	14
1.17500	14
1.17867	14
1.18233	14
1.18600	14
1.18967	14
1.19333	15
1.19700	17
1.20067	17
1.20433	15
1.20800	14
1.21167	15
1.21533	14
1.21900	13
1.22267	15
1.22633	16
1.23000	17
1.23367	18
1.23733	15
1.24100	12
1.24467	10
1.24833	8
1.25200	10
1.25567	13
1.25933	15
1.26300	17
1.26667	15
1.27033	15
1.27400	15
1.27767	16
1.28133	15
1.28500	15
1.28867	12
1.29233	11
1.29600	9
1.29967	9
1.30333	9
1.30700	10
1.31067	9
1.31433	8
1.31800	9
1.32167	10
1.32533	10
1.32900	10
1.33267	9
1.33633	10
1.34000	10
1.34367	10
1.34733	9
1.35100	11
1.35467	13
1.35833	15
1.36200	16
1.36567	15
1.36933	15
1.37300	14
1.37667	12
1.38033	12
1.38400	12
1.38767	11
1.39133	10
1.39500	8
1.39867	9
1.40233	10
1.40600	10
1.40967	10
1.41333	10
1.41700	11
1.42067	11
1.42433	12
1.42800	13
1.43167	13
1.43533	11
1.43900	10
1.44267	10
1.44633	10
1.45000	10
1.45367	11
1.45733	12
1.46100	11
1.46467	11
1.46833	12
1.47200	15
1.47567	16
1.47933	15
1.48300	13
1.48667	13
1.49033	12
1.49400	12
1.49767	13
1.50133	13
1.50500	12
1.50867	12
1.51233	13
1.51600	13
1.51967	11
1.52333	12
1.52700	13
1.53067	13
1.53433	14
1.53800	13
1.54167	12
1.54533	12
1.54900	12
1.55267	11
1.55633	12
1.56000	14
1.56367	15
1.56733	16
1.57100	18
1.57467	19
1.57833	18
1.58200	21
1.58567	24
1.58933	24
1.59300	23
1.59667	20
1.60033	18
1.60400	16
1.60767	15
1.61133	15
1.61500	16
1.61867	17
1.62233	19
1.62600	20
1.62967	20
1.63333	20
1.63700	20
1.64067	20
1.64433	20
1.64800	20
1.65167	21
1.65533	23
1.65900	25
1.66267	26
1.66633	27
1.67000	26
1.67367	27
1.67733	28
1.68100	30
1.68467	32
1.68833	31
1.69200	30
1.69567	30
1.69933	29
1.70300	28
1.70667	28
1.71033	30
1.71400	31
1.71767	33
1.72133	35
1.72500	36
1.72867	35
1.73233	34
1.73600	35
1.73967	36
1.74333	36
1.74700	37
1.75067	36
1.75433	38
1.75800	38
1.76167	39
1.76533	40
1.76900	41
1.77267	42
1.77633	40
1.78000	39
1.78367	40
1.78733	41
1.79100	43
1.79467	45
1.79833	46
1.80200	44
1.80567	44
1.80933	43
1.81300	40
1.81667	39
1.82033	39
1.82400	40
1.82767	42
1.83133	45
1.83500	47
1.83867	49
1.84233	51
1.84600	53
1.84967	55
1.85333	54
1.85700	52
1.86067	52
1.86433	53
1.86800	53
1.87167	53
1.87533	56
1.87900	58
1.88267	58
1.88633	57
1.89000	56
1.89367	56
1.89733	57
1.90100	60
1.90467	61
1.90833	62
1.91200	61
1.91567	63
1.91933	64
1.92300	64
1.92667	64
1.93033	64
1.93400	64
1.93767	62
1.94133	60
1.94500	61
1.94867	62
1.95233	63
1.95600	65
1.95967	67
1.96333	66
1.96700	66
1.97067	68
1.97433	69
1.97800	68
1.98167	67
1.98533	68
1.98900	69
1.99267	71
1.99633	72
2.00000	72
2.00367	72
2.00733	71
2.01100	73
2.01467	77
2.01833	80
2.02200	81
2.02567	82
2.02933	85
2.03300	88
2.03667	89
2.04033	89
2.04400	90
2.04767	92
2.05133	94
2.05500	96
2.05867	98
2.06233	98
2.06600	97
2.06967	97
2.07333	99
2.07700	100
2.08067	100
2.08433	101
2.08800	103
2.09167	106
2.09533	108
2.09900	110
2.10267	112
2.10633	114
2.11000	116
2.11367	116
2.11733	116
2.12100	119
2.12467	121
2.12833	122
2.13200	124
2.13567	126
2.13933	126
2.14300	127
2.14667	127
2.15033	128
2.15400	133
2.15767	135
2.16133	135
2.16500	136
2.16867	136
2.17233	141
2.17600	144
2.17967	146
2.18333	147
2.18700	149
2.19067	151
2.19433	152
2.19800	153
2.20167	154
2.20533	155
2.20900	155
2.21267	156
2.21633	159
2.22000	161
2.22367	164
2.22733	165
2.23100	166
2.23467	167
2.23833	169
2.24200	171
2.24567	172
2.24933	172
2.25300	172
2.25667	171
2.26033	171
2.26400	173
2.26767	175
2.27133	177
2.27500	180
2.27867	183
2.28233	185
2.28600	185
2.28967	185
2.29333	185
2.29700	186
2.30067	188
2.30433	190
2.30800	190
2.31167	190
2.31533	192
2.31900	193
2.32267	193
2.32633	194
2.33000	196
2.33367	199
2.33733	202
2.34100	203
2.34467	206
2.34833	208
2.35200	210
2.35567	211
2.35933	212
2.36300	215
2.36667	217
2.37033	219
2.37400	221
2.37767	223
2.38133	222
2.38500	220
2.38867	219
2.39233	218
2.39600	218
2.39967	220
2.40333	224
2.40700	228
2.41067	232
2.41433	235
2.41800	236
2.42167	238
2.42533	241
2.42900	242
2.43267	243
2.43633	244
2.44000	248
2.44367	307
2.44733	454
2.45100	613
2.45467	745
2.45833	818
2.46200	825
2.46567	794
2.46933	755
2.47300	724
2.47667	704
2.48033	685
2.48400	656
2.48767	613
2.49133	566
2.49500	522
2.49867	487
2.50233	462
2.50600	445
2.50967	440
2.51333	445
2.51700	461
2.52067	483
2.52433	505
2.52800	517
2.53167	517
2.53533	501
2.53900	475
2.54267	445
2.54633	414
2.55000	382
2.55367	356
2.55733	335
2.56100	317
2.56467	304
2.56833	296
2.57200	291
2.57567	288
2.57933	288
2.58300	289
2.58667	291
2.59033	293
2.59400	294
2.59767	297
2.60133	297
2.60500	297
2.60867	294
2.61233	287
2.61600	280
2.61967	274
2.62333	267
2.62700	259
2.63067	250
2.63433	238
2.63800	225
2.64167	213
2.64533	199
2.64900	188
2.65267	176
2.65633	164
2.66000	153
2.66367	143
2.66733	133
2.67100	123
2.67467	113
2.67833	105
2.68200	101
2.68567	99
2.68933	101
2.69300	99
2.69667	97
2.70033	96
2.70400	98
2.70767	102
2.71133	107
2.71500	112
2.71867	116
2.72233	121
2.72600	124
2.72967	128
2.73333	133
2.73700	136
2.74067	141
2.74433	143
2.74800	145
2.75167	147
2.75533	147
2.75900	148
2.76267	151
2.76633	156
2.77000	160
2.77367	163
2.77733	166
2.78100	168
2.78467	169
2.78833	172
2.79200	177
2.79567	184
2.79933	190
2.80300	196
2.80667	204
2.81033	210
2.81400	216
2.81767	225
2.82133	238
2.82500	257
2.82867	292
2.83233	361
2.83600	482
2.83967	681
2.84333	971
2.84700	1364
2.85067	1853
2.85433	2416
2.85800	3014
2.86167	3602
2.86533	4134
2.86900	4568
2.87267	4870
2.87633	5027
2.88000	5042
2.88367	4934
2.88733	4725
2.89100	4444
2.89467	4118
2.89833	3770
2.90200	3420
2.90567	3081
2.90933	2762
2.91300	2465
2.91667	2194
2.92033	1950
2.92400	1729
2.92767	1534
2.93133	1360
2.93500	1207
2.93867	1072
2.94233	954
2.94600	850
2.94967	763
2.95333	689
2.95700	623
2.96067	566
2.96433	514
2.96800	468
2.97167	431
2.97533	400
2.97900	373
2.98267	350
2.98633	331
2.99000	315
2.99367	299
2.99733	285
3.00100	273
3.00467	263
3.00833	254
3.01200	247
3.01567	241
3.01933	235
3.02300	231
3.02667	227
3.03033	222
3.03400	217
3.03767	213
3.04133	212
3.04500	212
3.04867	211
3.05233	210
3.05600	209
3.05967	208
3.06333	208
3.06700	207
3.07067	207
3.07433	206
3.07800	206
3.08167	206
3.08533	206
3.08900	206
3.09267	206
3.09633	207
3.10000	208
3.10367	209
3.10733	210
3.11100	209
3.11467	207
3.11833	207
3.12200	207
3.12567	208
3.12933	210
3.13300	212
3.13667	212
3.14033	211
3.14400	211
3.14767	211
3.15133	212
3.15500	212
3.15867	200
3.16233	170
3.16600	150
3.16967	159
3.17333	189
3.17700	232
3.18067	282
3.18433	335
3.18800	388
3.19167	438
3.19533	481
3.19900	518
3.20267	550
3.20633	580
3.21000	606
3.21367	630
3.21733	649
3.22100	664
3.22467	678
3.22833	689
3.23200	700
3.23567	711
3.23933	721
3.24300	733
3.24667	744
3.25033	752
3.25400	758
3.25767	767
3.26133	774
3.26500	781
3.26867	789
3.27233	798
3.27600	807
3.27967	816
3.28333	823
3.28700	830
3.29067	838
3.29433	848
3.29800	857
3.30167	864
3.30533	871
3.30900	878
3.31267	885
3.31633	890
3.32000	895
3.32367	900
3.32733	904
3.33100	910
3.33467	915
3.33833	920
3.34200	926
3.34567	930
3.34933	932
3.35300	931
3.35667	930
3.36033	930
3.36400	931
3.36767	932
3.37133	932
3.37500	932
3.37867	935
3.38233	936
3.38600	935
3.38967	933
3.39333	931
3.39700	926
3.40067	923
3.40433	920
3.40800	917
3.41167	914
3.41533	908
3.41900	903
3.42267	900
3.42633	897
3.43000	893
3.43367	888
3.43733	884
3.44100	879
3.44467	877
3.44833	876
3.45200	872
3.45567	868
3.45933	865
3.46300	864
3.46667	862
3.47033	861
3.47400	860
3.47767	856
3.48133	854
3.48500	852
3.48867	852
3.49233	851
3.49600	849
3.49967	845
3.50333	843
3.50700	842
3.51067	841
3.51433	841
3.51800	840
3.52167	838
3.52533	836
3.52900	834
3.53267	833
3.53633	833
3.54000	834
3.54367	835
3.54733	834
3.55100	833
3.55467	832
3.55833	833
3.56200	834
3.56567	835
3.56933	835
3.57300	835
3.57667	834
3.58033	834
3.58400	834
3.58767	835
3.59133	836
3.59500	837
3.59867	838
3.60233	838
3.60600	839
3.60967	837
3.61333	835
3.61700	833
3.62067	833
3.62433	833
3.62800	832
3.63167	831
3.63533	831
3.63900	828
3.64267	825
3.64633	822
3.65000	820
3.65367	821
3.65733	821
3.66100	820
3.66467	819
3.66833	816
3.67200	812
3.67567	809
3.67933	807
3.68300	804
3.68667	804
3.69033	803
3.69400	801
3.69767	797
3.70133	794
3.70500	793
3.70867	793
3.71233	793
3.71600	793
3.71967	790
3.72333	785
3.72700	781
3.73067	777
3.73433	775
3.73800	775
3.74167	774
3.74533	772
3.74900	771
3.75267	771
3.75633	771
3.76000	771
3.76367	768
3.76733	764
3.77100	764
3.77467	764
3.77833	762
3.78200	758
3.78567	755
3.78933	754
3.79300	751
3.79667	748
3.80033	746
3.80400	746
3.80767	746
3.81133	744
3.81500	742
3.81867	739
3.82233	736
3.82600	734
3.82967	733
3.83333	730
3.83700	729
3.84067	727
3.84433	723
3.84800	720
3.85167	717
3.85533	716
3.85900	716
3.86267	715
3.86633	713
3.87000	712
3.87367	711
3.87733	707
3.88100	705
3.88467	704
3.88833	703
3.89200	702
3.89567	699
3.89933	697
3.90300	695
3.90667	693
3.91033	691
3.91400	689
3.91767	689
3.92133	688
3.92500	686
3.92867	683
3.93233	680
3.93600	677
3.93967	675
3.94333	673
3.94700	670
3.95067	666
3.95433	664
3.95800	661
3.96167	659
3.96533	658
3.96900	657
3.97267	655
3.97633	654
3.98000	654
3.98367	655
3.98733	655
3.99100	654
3.99467	651
3.99833	646

[Status Trace (Column Oven Temperature)]
Interval(msec)	1000
# of Points	240
Start Time(min)	0.004
End Time(min)	3.988
Intensity Units	
Intensity Multiplier	1
R.Time (min)	Intensity
0.00447	35.08
0.02113	35.08
0.03780	35.08
0.05447	35.08
0.07113	35.06
0.08780	35.06
0.10447	35.06
0.12113	35.07
0.13780	35.06
0.15447	35.07
0.17113	35.06
0.18780	35.05
0.20447	35.03
0.22113	35.03
0.23780	35.03
0.25447	35.03
0.27113	35.03
0.28780	35.03
0.30447	35.02
0.32113	35.01
0.33780	35.00
0.35447	34.99
0.37113	34.98
0.38780	34.98
0.40447	34.97
0.42113	34.99
0.43780	35.00
0.45447	35.02
0.47113	35.01
0.48780	35.02
0.50447	35.02
0.52113	35.02
0.53780	35.03
0.55447	35.04
0.57113	35.03
0.58780	35.02
0.60447	35.03
0.62113	35.03
0.63780	35.02
0.65447	35.01
0.67113	35.00
0.68780	34.99
0.70447	34.98
0.72113	34.97
0.73780	34.96
0.75447	34.96
0.77113	34.97
0.78780	34.97
0.80447	34.98
0.82113	34.99
0.83780	34.99
0.85447	34.99
0.87113	35.01
0.88780	35.02
0.90447	35.01
0.92113	35.01
0.93780	35.00
0.95447	35.00
0.97113	34.98
0.98780	34.97
1.00447	34.96
1.02113	34.96
1.03780	34.96
1.05447	34.97
1.07113	34.99
1.08780	34.99
1.10447	35.01
1.12113	35.02
1.13780	35.02
1.15447	35.02
1.17113	35.00
1.18780	34.99
1.20447	34.98
1.22113	34.97
1.23780	34.97
1.25447	34.98
1.27113	34.99
1.28780	34.99
1.30447	34.99
1.32113	34.98
1.33780	34.97
1.35447	34.95
1.37113	34.95
1.38780	34.96
1.40447	34.96
1.42113	34.97
1.43780	34.98
1.45447	34.98
1.47113	34.98
1.48780	34.99
1.50447	35.01
1.52113	35.02
1.53780	35.03
1.55447	35.02
1.57113	35.02
1.58780	35.02
1.60447	35.05
1.62113	35.15
1.63780	35.33
1.65447	35.56
1.67113	35.89
1.68780	36.25
1.70447	36.61
1.72113	36.96
1.73780	37.28
1.75447	37.59
1.77113	37.93
1.78780	38.26
1.80447	38.59
1.82113	38.94
1.83780	39.28
1.85447	39.59
1.87113	39.92
1.88780	40.25
1.90447	40.60
1.92113	40.91
1.93780	41.24
1.95447	41.56
1.97113	41.87
1.98780	42.19
2.00447	42.53
2.02113	42.85
2.03780	43.18
2.05447	43.51
2.07113	43.84
2.08780	44.16
2.10447	44.50
2.12113	44.84
2.13780	45.16
2.15447	45.51
2.17113	45.82
2.18780	46.15
2.20447	46.44
2.22113	46.77
2.23780	47.11
2.25447	47.44
2.27113	47.75
2.28780	48.11
2.30447	48.45
2.32113	48.75
2.33780	49.07
2.35447	49.38
2.37113	49.63
2.38780	49.72
2.40447	49.74
2.42113	49.73
2.43780	49.73
2.45447	49.74
2.47113	49.75
2.48780	49.75
2.50447	49.74
2.52113	49.76
2.53780	49.76
2.55447	49.78
2.57113	49.78
2.58780	49.81
2.60447	49.82
2.62113	49.82
2.63780	49.82
2.65447	49.83
2.67113	49.85
2.68780	49.85
2.70447	49.84
2.72113	49.85
2.73780	49.86
2.75447	49.88
2.77113	49.89
2.78780	49.88
2.80447	49.89
2.82113	49.88
2.83780	49.88
2.85447	49.89
2.87113	49.88
2.88780	49.89
2.90447	49.91
2.92113	49.93
2.93780	49.94
2.95447	49.96
2.97113	49.97
2.98780	49.98
3.00447	50.00
3.02113	50.01
3.03780	50.02
3.05447	50.03
3.07113	50.03
3.08780	50.04
3.10447	50.04
3.12113	50.04
3.13780	50.04
3.15447	50.05
3.17113	50.05
3.18780	50.07
3.20447	50.07
3.22113	50.07
3.23780	50.09
3.25447	50.09
3.27113	50.09
3.28780	50.09
3.30447	50.10
3.32113	50.11
3.33780	50.11
3.35447	50.10
3.37113	50.09
3.38780	50.08
3.40447	50.08
3.42113	50.06
3.43780	50.05
3.45447	50.03
3.47113	50.04
3.48780	50.06
3.50447	50.05
3.52113	50.05
3.53780	50.05
3.55447	50.05
3.57113	50.05
3.58780	50.05
3.60447	50.05
3.62113	50.07
3.63780	50.07
3.65447	50.07
3.67113	50.07
3.68780	50.08
3.70447	50.08
3.72113	50.08
3.73780	50.07
3.75447	50.08
3.77113	50.08
3.78780	50.08
3.80447	50.08
3.82113	50.07
3.83780	50.06
3.85447	50.06
3.87113	50.07
3.88780	50.07
3.90447	50.06
3.92113	50.05
3.93780	50.04
3.95447	50.04
3.97113	50.03
3.98780	50.03

[Status Trace (Injection Unit Temperature)]
Interval(msec)	1000
# of Points	240
Start Time(min)	0.004
End Time(min)	3.988
Intensity Units	
Intensity Multiplier	1
R.Time (min)	Intensity
0.00447	99.98
0.02113	99.97
0.03780	99.98
0.05447	99.98
0.07113	99.98
0.08780	99.98
0.10447	99.98
0.12113	99.97
0.13780	99.98
0.15447	99.98
0.17113	99.98
0.18780	99.98
0.20447	99.98
0.22113	99.98
0.23780	99.98
0.25447	99.98
0.27113	99.98
0.28780	99.98
0.30447	99.98
0.32113	99.98
0.33780	99.98
0.35447	99.98
0.37113	99.98
0.38780	99.98
0.40447	99.98
0.42113	99.97
0.43780	99.98
0.45447	99.98
0.47113	99.98
0.48780	99.98
0.50447	99.98
0.52113	99.98
0.53780	99.98
0.55447	99.98
0.57113	99.98
0.58780	99.98
0.60447	99.98
0.62113	99.98
0.63780	99.98
0.65447	99.98
0.67113	99.98
0.68780	99.98
0.70447	99.98
0.72113	99.98
0.73780	99.98
0.75447	99.98
0.77113	99.98
0.78780	99.98
0.80447	99.98
0.82113	99.98
0.83780	99.98
0.85447	99.98
0.87113	99.98
0.88780	99.98
0.90447	99.98
0.92113	99.98
0.93780	99.98
0.95447	99.98
0.97113	99.98
0.98780	99.98
1.00447	99.98
1.02113	99.98
1.03780	99.98
1.05447	99.98
1.07113	99.98
1.08780	99.98
1.10447	99.98
1.12113	99.98
1.13780	99.98
1.15447	99.98
1.17113	99.98
1.18780	99.98
1.20447	99.98
1.22113	99.98
1.23780	99.98
1.25447	99.97
1.27113	99.98
1.28780	99.98
1.30447	99.98
1.32113	99.97
1.33780	99.98
1.35447	99.99
1.37113	99.98
1.38780	99.98
1.40447	99.98
1.42113	99.98
1.43780	99.99
1.45447	99.99
1.47113	99.98
1.48780	99.98
1.50447	99.99
1.52113	99.99
1.53780	99.98
1.55447	99.98
1.57113	99.98
1.58780	99.99
1.60447	99.98
1.62113	99.98
1.63780	99.99
1.65447	99.99
1.67113	99.98
1.68780	99.99
1.70447	99.98
1.72113	99.98
1.73780	99.99
1.75447	99.99
1.77113	99.98
1.78780	99.98
1.80447	99.98
1.82113	99.98
1.83780	99.98
1.85447	99.98
1.87113	99.99
1.88780	99.98
1.90447	99.98
1.92113	99.98
1.93780	99.97
1.95447	99.98
1.97113	99.97
1.98780	99.98
2.00447	99.97
2.02113	99.97
2.03780	99.97
2.05447	99.96
2.07113	99.97
2.08780	99.98
2.10447	99.97
2.12113	99.97
2.13780	99.97
2.15447	99.97
2.17113	99.97
2.18780	99.97
2.20447	99.96
2.22113	99.96
2.23780	99.96
2.25447	99.97
2.27113	99.97
2.28780	99.96
2.30447	99.97
2.32113	99.96
2.33780	99.97
2.35447	99.97
2.37113	99.97
2.38780	99.97
2.40447	99.97
2.42113	99.97
2.43780	99.97
2.45447	99.97
2.47113	99.97
2.48780	99.97
2.50447	99.97
2.52113	99.97
2.53780	99.97
2.55447	99.97
2.57113	99.97
2.58780	99.97
2.60447	99.97
2.62113	99.98
2.63780	99.98
2.65447	99.97
2.67113	99.98
2.68780	99.98
2.70447	99.99
2.72113	99.99
2.73780	99.99
2.75447	99.99
2.77113	99.99
2.78780	99.99
2.80447	100.00
2.82113	99.99
2.83780	100.00
2.85447	99.99
2.87113	100.00
2.88780	100.00
2.90447	100.00
2.92113	100.00
2.93780	100.00
2.95447	100.00
2.97113	100.01
2.98780	100.01
3.00447	100.01
3.02113	100.01
3.03780	100.01
3.05447	100.01
3.07113	100.01
3.08780	100.02
3.10447	100.01
3.12113	100.01
3.13780	100.02
3.15447	100.02
3.17113	100.02
3.18780	100.02
3.20447	100.02
3.22113	100.02
3.23780	100.02
3.25447	100.02
3.27113	100.03
3.28780	100.03
3.30447	100.03
3.32113	100.02
3.33780	100.02
3.35447	100.03
3.37113	100.03
3.38780	100.03
3.40447	100.03
3.42113	100.03
3.43780	100.03
3.45447	100.04
3.47113	100.04
3.48780	100.03
3.50447	100.03
3.52113	100.03
3.53780	100.03
3.55447	100.04
3.57113	100.04
3.58780	100.04
3.60447	100.04
3.62113	100.04
3.63780	100.04
3.65447	100.04
3.67113	100.04
3.68780	100.04
3.70447	100.04
3.72113	100.04
3.73780	100.04
3.75447	100.04
3.77113	100.04
3.78780	100.04
3.80447	100.04
3.82113	100.04
3.83780	100.04
3.85447	100.04
3.87113	100.04
3.88780	100.04
3.90447	100.04
3.92113	100.04
3.93780	100.04
3.95447	100.04
3.97113	100.04
3.98780	100.04

[Status Trace (Carrier Gas Pressure)]
Interval(msec)	1000
# of Points	240
Start Time(min)	0.004
End Time(min)	3.988
Intensity Units	
Intensity Multiplier	1
R.Time (min)	Intensity
0.00447	58.00
0.02113	55.84
0.03780	56.59
0.05447	58.84
0.07113	59.72
0.08780	58.20
0.10447	57.97
0.12113	58.01
0.13780	58.01
0.15447	58.01
0.17113	58.00
0.18780	58.00
0.20447	58.00
0.22113	58.00
0.23780	58.00
0.25447	58.00
0.27113	58.00
0.28780	58.00
0.30447	58.00
0.32113	58.00
0.33780	58.00
0.35447	58.00
0.37113	58.00
0.38780	58.00
0.40447	58.00
0.42113	58.00
0.43780	58.00
0.45447	58.00
0.47113	58.00
0.48780	58.00
0.50447	58.00
0.52113	58.00
0.53780	58.00
0.55447	58.00
0.57113	58.00
0.58780	58.00
0.60447	58.00
0.62113	58.00
0.63780	58.00
0.65447	58.00
0.67113	58.00
0.68780	58.00
0.70447	58.00
0.72113	58.00
0.73780	58.00
0.75447	58.00
0.77113	58.00
0.78780	58.00
0.80447	58.00
0.82113	58.00
0.83780	58.00
0.85447	58.00
0.87113	58.00
0.88780	58.00
0.90447	58.00
0.92113	58.00
0.93780	58.00
0.95447	58.00
0.97113	58.00
0.98780	58.00
1.00447	58.00
1.02113	58.00
1.03780	58.00
1.05447	58.00
1.07113	58.00
1.08780	58.00
1.10447	58.00
1.12113	58.00
1.13780	58.00
1.15447	58.00
1.17113	58.00
1.18780	58.00
1.20447	58.00
1.22113	58.00
1.23780	58.00
1.25447	58.00
1.27113	58.00
1.28780	58.00
1.30447	58.00
1.32113	58.00
1.33780	58.00
1.35447	58.00
1.37113	58.00
1.38780	58.00
1.40447	58.00
1.42113	58.00
1.43780	58.00
1.45447	58.00
1.47113	58.00
1.48780	58.00
1.50447	58.00
1.52113	58.00
1.53780	58.00
1.55447	58.00
1.57113	58.00
1.58780	58.00
1.60447	58.00
1.62113	58.00
1.63780	58.01
1.65447	58.01
1.67113	58.01
1.68780	58.00
1.70447	58.00
1.72113	58.00
1.73780	58.00
1.75447	58.00
1.77113	58.00
1.78780	58.00
1.80447	58.00
1.82113	58.00
1.83780	58.00
1.85447	58.00
1.87113	58.00
1.88780	58.00
1.90447	58.00
1.92113	58.00
1.93780	58.00
1.95447	58.00
1.97113	58.00
1.98780	58.00
2.00447	58.00
2.02113	58.00
2.03780	58.00
2.05447	58.00
2.07113	58.00
2.08780	58.00
2.10447	58.00
2.12113	58.00
2.13780	58.00
2.15447	58.00
2.17113	58.00
2.18780	58.00
2.20447	58.00
2.22113	58.00
2.23780	58.00
2.25447	58.00
2.27113	58.00
2.28780	58.00
2.30447	58.00
2.32113	58.00
2.33780	58.00
2.35447	58.00
2.37113	58.00
2.38780	57.99
2.40447	57.99
2.42113	58.00
2.43780	58.00
2.45447	58.00
2.47113	58.00
2.48780	58.00
2.50447	57.99
2.52113	57.99
2.53780	57.99
2.55447	58.00
2.57113	58.00
2.58780	58.00
2.60447	58.00
2.62113	58.00
2.63780	58.00
2.65447	58.00
2.67113	58.00
2.68780	58.00
2.70447	58.00
2.72113	58.00
2.73780	58.00
2.75447	58.00
2.77113	58.00
2.78780	58.00
2.80447	58.00
2.82113	58.00
2.83780	58.00
2.85447	58.00
2.87113	58.00
2.88780	58.00
2.90447	58.00
2.92113	58.00
2.93780	58.00
2.95447	58.00
2.97113	58.00
2.98780	58.00
3.00447	58.00
3.02113	58.00
3.03780	58.00
3.05447	58.00
3.07113	58.00
3.08780	58.00
3.10447	58.00
3.12113	58.00
3.13780	58.00
3.15447	58.00
3.17113	58.00
3.18780	58.00
3.20447	58.00
3.22113	58.00
3.23780	58.00
3.25447	58.00
3.27113	58.00
3.28780	58.00
3.30447	58.00
3.32113	58.00
3.33780	58.00
3.35447	58.00
3.37113	58.00
3.38780	58.00
3.40447	58.00
3.42113	58.00
3.43780	58.00
3.45447	58.00
3.47113	58.00
3.48780	58.00
3.50447	58.00
3.52113	58.00
3.53780	58.00
3.55447	58.00
3.57113	58.00
3.58780	58.00
3.60447	58.00
3.62113	58.00
3.63780	58.00
3.65447	58.00
3.67113	58.00
3.68780	58.00
3.70447	58.00
3.72113	58.00
3.73780	58.00
3.75447	58.00
3.77113	58.00
3.78780	58.00
3.80447	58.00
3.82113	58.00
3.83780	58.00
3.85447	58.00
3.87113	58.00
3.88780	58.00
3.90447	58.00
3.92113	58.00
3.93780	58.00
3.95447	58.00
3.97113	58.00
3.98780	58.00

[Status Trace (Carrier Gas Flow)]
Interval(msec)	1000
# of Points	240
Start Time(min)	0.004
End Time(min)	3.988
Intensity Units	
Intensity Multiplier	1
R.Time (min)	Intensity
0.00447	34.52
0.02113	34.55
0.03780	34.55
0.05447	34.55
0.07113	34.49
0.08780	34.52
0.10447	34.51
0.12113	34.52
0.13780	34.51
0.15447	34.51
0.17113	34.52
0.18780	34.52
0.20447	34.52
0.22113	34.52
0.23780	34.53
0.25447	34.52
0.27113	34.52
0.28780	34.51
0.30447	34.52
0.32113	34.53
0.33780	34.52
0.35447	34.52
0.37113	34.52
0.38780	34.52
0.40447	34.51
0.42113	34.51
0.43780	34.52
0.45447	34.52
0.47113	34.52
0.48780	34.52
0.50447	34.52
0.52113	34.52
0.53780	34.52
0.55447	34.52
0.57113	34.52
0.58780	34.52
0.60447	34.52
0.62113	34.52
0.63780	34.53
0.65447	34.52
0.67113	34.52
0.68780	34.52
0.70447	34.52
0.72113	34.52
0.73780	34.52
0.75447	34.52
0.77113	34.52
0.78780	34.51
0.80447	34.52
0.82113	34.52
0.83780	34.52
0.85447	34.52
0.87113	34.52
0.88780	34.52
0.90447	34.52
0.92113	34.52
0.93780	34.52
0.95447	34.52
0.97113	34.52
0.98780	34.52
1.00447	34.52
1.02113	34.51
1.03780	34.53
1.05447	34.52
1.07113	34.52
1.08780	34.52
1.10447	34.52
1.12113	34.51
1.13780	34.52
1.15447	34.52
1.17113	34.52
1.18780	34.52
1.20447	34.52
1.22113	34.52
1.23780	34.52
1.25447	34.52
1.27113	34.52
1.28780	34.52
1.30447	34.52
1.32113	34.52
1.33780	34.52
1.35447	34.52
1.37113	34.52
1.38780	34.52
1.40447	34.52
1.42113	34.52
1.43780	34.53
1.45447	34.52
1.47113	34.53
1.48780	34.51
1.50447	34.51
1.52113	34.52
1.53780	34.52
1.55447	34.52
1.57113	34.52
1.58780	34.52
1.60447	34.51
1.62113	34.51
1.63780	34.52
1.65447	34.52
1.67113	34.52
1.68780	34.51
1.70447	34.52
1.72113	34.52
1.73780	34.52
1.75447	34.51
1.77113	34.52
1.78780	34.53
1.80447	34.52
1.82113	34.52
1.83780	34.52
1.85447	34.52
1.87113	34.52
1.88780	34.52
1.90447	34.52
1.92113	34.52
1.93780	34.52
1.95447	34.51
1.97113	34.52
1.98780	34.52
2.00447	34.52
2.02113	34.52
2.03780	34.52
2.05447	34.52
2.07113	34.51
2.08780	34.52
2.10447	34.52
2.12113	34.52
2.13780	34.52
2.15447	34.52
2.17113	34.52
2.18780	34.52
2.20447	34.52
2.22113	34.51
2.23780	34.52
2.25447	34.52
2.27113	34.51
2.28780	34.51
2.30447	34.52
2.32113	34.52
2.33780	34.51
2.35447	34.52
2.37113	34.52
2.38780	34.54
2.40447	34.52
2.42113	34.52
2.43780	34.52
2.45447	34.52
2.47113	34.52
2.48780	34.51
2.50447	34.56
2.52113	34.52
2.53780	34.52
2.55447	34.52
2.57113	34.52
2.58780	34.52
2.60447	34.52
2.62113	34.52
2.63780	34.52
2.65447	34.52
2.67113	34.52
2.68780	34.52
2.70447	34.52
2.72113	34.52
2.73780	34.52
2.75447	34.51
2.77113	34.51
2.78780	34.52
2.80447	34.52
2.82113	34.52
2.83780	34.52
2.85447	34.52
2.87113	34.52
2.88780	34.52
2.90447	34.52
2.92113	34.52
2.93780	34.52
2.95447	34.52
2.97113	34.52
2.98780	34.52
3.00447	34.52
3.02113	34.52
3.03780	34.52
3.05447	34.52
3.07113	34.52
3.08780	34.52
3.10447	34.52
3.12113	34.52
3.13780	34.52
3.15447	34.52
3.17113	34.51
3.18780	34.52
3.20447	34.52
3.22113	34.52
3.23780	34.52
3.25447	34.52
3.27113	34.52
3.28780	34.52
3.30447	34.52
3.32113	34.52
3.33780	34.52
3.35447	34.52
3.37113	34.52
3.38780	34.52
3.40447	34.51
3.42113	34.52
3.43780	34.52
3.45447	34.52
3.47113	34.52
3.48780	34.51
3.50447	34.52
3.52113	34.52
3.53780	34.51
3.55447	34.52
3.57113	34.52
3.58780	34.52
3.60447	34.52
3.62113	34.51
3.63780	34.52
3.65447	34.52
3.67113	34.52
3.68780	34.52
3.70447	34.52
3.72113	34.52
3.73780	34.52
3.75447	34.52
3.77113	34.52
3.78780	34.52
3.80447	34.52
3.82113	34.52
3.83780	34.53
3.85447	34.52
3.87113	34.52
3.88780	34.51
3.90447	34.52
3.92113	34.52
3.93780	34.52
3.95447	34.52
3.97113	34.52
3.98780	34.52

[Status Trace (Column Flow)]
Interval(msec)	1000
# of Points	240
Start Time(min)	0.004
End Time(min)	3.988
Intensity Units	
Intensity Multiplier	1
R.Time (min)	Intensity
0.00447	5.55
0.02113	5.30
0.03780	5.38
0.05447	5.65
0.07113	5.75
0.08780	5.57
0.10447	5.55
0.12113	5.55
0.13780	5.55
0.15447	5.55
0.17113	5.55
0.18780	5.55
0.20447	5.55
0.22113	5.55
0.23780	5.55
0.25447	5.55
0.27113	5.55
0.28780	5.55
0.30447	5.55
0.32113	5.55
0.33780	5.55
0.35447	5.55
0.37113	5.55
0.38780	5.55
0.40447	5.55
0.42113	5.55
0.43780	5.55
0.45447	5.55
0.47113	5.55
0.48780	5.55
0.50447	5.55
0.52113	5.55
0.53780	5.55
0.55447	5.55
0.57113	5.55
0.58780	5.55
0.60447	5.55
0.62113	5.55
0.63780	5.55
0.65447	5.55
0.67113	5.55
0.68780	5.55
0.70447	5.55
0.72113	5.55
0.73780	5.55
0.75447	5.55
0.77113	5.55
0.78780	5.55
0.80447	5.55
0.82113	5.55
0.83780	5.55
0.85447	5.55
0.87113	5.55
0.88780	5.55
0.90447	5.55
0.92113	5.55
0.93780	5.55
0.95447	5.55
0.97113	5.55
0.98780	5.55
1.00447	5.55
1.02113	5.55
1.03780	5.55
1.05447	5.55
1.07113	5.55
1.08780	5.55
1.10447	5.55
1.12113	5.55
1.13780	5.55
1.15447	5.55
1.17113	5.55
1.18780	5.55
1.20447	5.55
1.22113	5.55
1.23780	5.55
1.25447	5.55
1.27113	5.55
1.28780	5.55
1.30447	5.55
1.32113	5.55
1.33780	5.55
1.35447	5.55
1.37113	5.55
1.38780	5.55
1.40447	5.55
1.42113	5.55
1.43780	5.55
1.45447	5.55
1.47113	5.55
1.48780	5.55
1.50447	5.55
1.52113	5.55
1.53780	5.55
1.55447	5.55
1.57113	5.55
1.58780	5.55
1.60447	5.55
1.62113	5.55
1.63780	5.54
1.65447	5.53
1.67113	5.52
1.68780	5.51
1.70447	5.50
1.72113	5.49
1.73780	5.48
1.75447	5.47
1.77113	5.46
1.78780	5.45
1.80447	5.44
1.82113	5.43
1.83780	5.42
1.85447	5.41
1.87113	5.40
1.88780	5.39
1.90447	5.38
1.92113	5.37
1.93780	5.36
1.95447	5.35
1.97113	5.34
1.98780	5.33
2.00447	5.32
2.02113	5.31
2.03780	5.30
2.05447	5.29
2.07113	5.28
2.08780	5.27
2.10447	5.26
2.12113	5.25
2.13780	5.24
2.15447	5.23
2.17113	5.22
2.18780	5.21
2.20447	5.21
2.22113	5.20
2.23780	5.19
2.25447	5.18
2.27113	5.17
2.28780	5.16
2.30447	5.15
2.32113	5.14
2.33780	5.13
2.35447	5.12
2.37113	5.12
2.38780	5.11
2.40447	5.11
2.42113	5.11
2.43780	5.11
2.45447	5.11
2.47113	5.11
2.48780	5.11
2.50447	5.11
2.52113	5.11
2.53780	5.11
2.55447	5.11
2.57113	5.11
2.58780	5.11
2.60447	5.11
2.62113	5.11
2.63780	5.11
2.65447	5.11
2.67113	5.11
2.68780	5.11
2.70447	5.11
2.72113	5.11
2.73780	5.11
2.75447	5.11
2.77113	5.11
2.78780	5.11
2.80447	5.11
2.82113	5.11
2.83780	5.11
2.85447	5.11
2.87113	5.11
2.88780	5.11
2.90447	5.11
2.92113	5.11
2.93780	5.11
2.95447	5.11
2.97113	5.11
2.98780	5.11
3.00447	5.11
3.02113	5.11
3.03780	5.11
3.05447	5.11
3.07113	5.11
3.08780	5.11
3.10447	5.11
3.12113	5.10
3.13780	5.11
3.15447	5.11
3.17113	5.10
3.18780	5.10
3.20447	5.10
3.22113	5.10
3.23780	5.10
3.25447	5.10
3.27113	5.10
3.28780	5.10
3.30447	5.10
3.32113	5.10
3.33780	5.10
3.35447	5.10
3.37113	5.10
3.38780	5.10
3.40447	5.10
3.42113	5.10
3.43780	5.10
3.45447	5.11
3.47113	5.11
3.48780	5.10
3.50447	5.10
3.52113	5.11
3.53780	5.11
3.55447	5.10
3.57113	5.10
3.58780	5.10
3.60447	5.10
3.62113	5.10
3.63780	5.10
3.65447	5.10
3.67113	5.10
3.68780	5.10
3.70447	5.10
3.72113	5.10
3.73780	5.10
3.75447	5.10
3.77113	5.10
3.78780	5.10
3.80447	5.10
3.82113	5.10
3.83780	5.10
3.85447	5.10
3.87113	5.10
3.88780	5.10
3.90447	5.10
3.92113	5.11
3.93780	5.11
3.95447	5.11
3.97113	5.11
3.98780	5.11

[Status Trace (Linear Velocity)]
Interval(msec)	1000
# of Points	240
Start Time(min)	0.004
End Time(min)	3.988
Intensity Units	
Intensity Multiplier	1
R.Time (min)	Intensity
0.00447	39.02
0.02113	37.60
0.03780	38.09
0.05447	39.57
0.07113	40.15
0.08780	39.15
0.10447	39.00
0.12113	39.02
0.13780	39.02
0.15447	39.02
0.17113	39.02
0.18780	39.02
0.20447	39.02
0.22113	39.02
0.23780	39.02
0.25447	39.02
0.27113	39.02
0.28780	39.02
0.30447	39.02
0.32113	39.02
0.33780	39.02
0.35447	39.02
0.37113	39.02
0.38780	39.03
0.40447	39.03
0.42113	39.03
0.43780	39.02
0.45447	39.02
0.47113	39.02
0.48780	39.02
0.50447	39.02
0.52113	39.02
0.53780	39.02
0.55447	39.02
0.57113	39.02
0.58780	39.02
0.60447	39.02
0.62113	39.02
0.63780	39.02
0.65447	39.02
0.67113	39.02
0.68780	39.02
0.70447	39.03
0.72113	39.03
0.73780	39.03
0.75447	39.03
0.77113	39.03
0.78780	39.03
0.80447	39.03
0.82113	39.03
0.83780	39.03
0.85447	39.02
0.87113	39.02
0.88780	39.02
0.90447	39.02
0.92113	39.02
0.93780	39.02
0.95447	39.02
0.97113	39.03
0.98780	39.03
1.00447	39.03
1.02113	39.03
1.03780	39.03
1.05447	39.03
1.07113	39.03
1.08780	39.02
1.10447	39.02
1.12113	39.02
1.13780	39.02
1.15447	39.02
1.17113	39.02
1.18780	39.02
1.20447	39.03
1.22113	39.03
1.23780	39.03
1.25447	39.03
1.27113	39.03
1.28780	39.02
1.30447	39.02
1.32113	39.03
1.33780	39.03
1.35447	39.03
1.37113	39.03
1.38780	39.03
1.40447	39.03
1.42113	39.03
1.43780	39.03
1.45447	39.03
1.47113	39.03
1.48780	39.02
1.50447	39.02
1.52113	39.02
1.53780	39.02
1.55447	39.02
1.57113	39.02
1.58780	39.02
1.60447	39.02
1.62113	39.01
1.63780	39.00
1.65447	38.97
1.67113	38.94
1.68780	38.91
1.70447	38.87
1.72113	38.84
1.73780	38.81
1.75447	38.78
1.77113	38.75
1.78780	38.71
1.80447	38.68
1.82113	38.65
1.83780	38.62
1.85447	38.59
1.87113	38.56
1.88780	38.53
1.90447	38.49
1.92113	38.46
1.93780	38.43
1.95447	38.40
1.97113	38.38
1.98780	38.35
2.00447	38.32
2.02113	38.28
2.03780	38.25
2.05447	38.22
2.07113	38.19
2.08780	38.16
2.10447	38.13
2.12113	38.10
2.13780	38.07
2.15447	38.04
2.17113	38.01
2.18780	37.98
2.20447	37.96
2.22113	37.93
2.23780	37.90
2.25447	37.87
2.27113	37.84
2.28780	37.81
2.30447	37.78
2.32113	37.75
2.33780	37.72
2.35447	37.69
2.37113	37.67
2.38780	37.66
2.40447	37.66
2.42113	37.66
2.43780	37.66
2.45447	37.66
2.47113	37.66
2.48780	37.66
2.50447	37.65
2.52113	37.66
2.53780	37.66
2.55447	37.66
2.57113	37.66
2.58780	37.66
2.60447	37.65
2.62113	37.65
2.63780	37.65
2.65447	37.65
2.67113	37.65
2.68780	37.65
2.70447	37.65
2.72113	37.65
2.73780	37.65
2.75447	37.65
2.77113	37.65
2.78780	37.65
2.80447	37.65
2.82113	37.65
2.83780	37.65
2.85447	37.65
2.87113	37.65
2.88780	37.65
2.90447	37.65
2.92113	37.65
2.93780	37.64
2.95447	37.64
2.97113	37.64
2.98780	37.64
3.00447	37.64
3.02113	37.64
3.03780	37.64
3.05447	37.64
3.07113	37.64
3.08780	37.64
3.10447	37.64
3.12113	37.64
3.13780	37.64
3.15447	37.64
3.17113	37.63
3.18780	37.63
3.20447	37.63
3.22113	37.63
3.23780	37.63
3.25447	37.63
3.27113	37.63
3.28780	37.63
3.30447	37.63
3.32113	37.63
3.33780	37.63
3.35447	37.63
3.37113	37.63
3.38780	37.63
3.40447	37.63
3.42113	37.63
3.43780	37.64
3.45447	37.64
3.47113	37.64
3.48780	37.63
3.50447	37.63
3.52113	37.63
3.53780	37.64
3.55447	37.63
3.57113	37.63
3.58780	37.64
3.60447	37.64
3.62113	37.63
3.63780	37.63
3.65447	37.63
3.67113	37.63
3.68780	37.63
3.70447	37.63
3.72113	37.63
3.73780	37.63
3.75447	37.63
3.77113	37.63
3.78780	37.63
3.80447	37.63
3.82113	37.63
3.83780	37.63
3.85447	37.63
3.87113	37.63
3.88780	37.63
3.90447	37.63
3.92113	37.64
3.93780	37.64
3.95447	37.64
3.97113	37.64
3.98780	37.64

