[Header]
Application Name	LabSolutions
Version	5.110
Data File Name	C:\Users\User\Desktop\GC Analyses\Jack\Nachusa Grasslands Sampling\T4 Timepoint July 12th\T4_07122022_077.gcd
Output Date	3/17/2023
Output Time	12:04:56 PM

[File Information]
Type	Data File
Generated	3/15/2023 12:01:48 AM
Generated by	System Administrator
Modified	3/15/2023 12:08:23 AM
Modified by	System Administrator

[Sample Information]
Operator Name	System Administrator
Acquired	3/15/2023 12:04:22 AM
Sample Type	0:Unknown
Level	0
Sample Name	077
Sample ID	077
ISTD Amount1	1
ISTD Amount2	1
ISTD Amount3	1
ISTD Amount4	1
ISTD Amount5	1
ISTD Amount6	1
ISTD Amount7	1
ISTD Amount8	1
ISTD Amount9	1
ISTD Amount10	1
ISTD Amount11	1
ISTD Amount12	1
ISTD Amount13	1
ISTD Amount14	1
ISTD Amount15	1
ISTD Amount16	1
ISTD Amount17	1
ISTD Amount18	1
ISTD Amount19	1
ISTD Amount20	1
ISTD Amount21	1
ISTD Amount22	1
ISTD Amount23	1
ISTD Amount24	1
ISTD Amount25	1
ISTD Amount26	1
ISTD Amount27	1
ISTD Amount28	1
ISTD Amount29	1
ISTD Amount30	1
ISTD Amount31	1
ISTD Amount32	1
Sample Amount	1
Dilution Factor	1
Vial#	76
Injection Volume	1
Injection Count	1
Bar Code	

[Original Files]
Data File	C:\Users\User\Desktop\GC Analyses\Jack\Nachusa Grasslands Sampling\T4 Timepoint July 12th\T4_07122022_077.gcd
Method File	C:\LabSolutions\Data\GHG_4min_2022\ghg3_togas_w_acet_4 min_new_int.gcm
Batch File	C:\LabSolutions\Data\AutoSamplerTesting\T4_07122022.gcb
Report Format File	c:\LabSolutions\System\DEFAULT.lsr

[File Description]


[Configuration]
Instrument Name	C0B7VH3-Instrument1
Instrument #	1
Line #	1
# of Detectors	3
Detector ID	DET#1	DET#2	DET#3
Detector Name	FID	PTCD	ECD
# of Channels	1	1	1

[Peak Table(Ch1)]
# of Peaks	3
Peak#	R.Time	I.Time	F.Time	Area	Height	A/H	Conc.	Mark	ID#	Name	k'	Plate #	Plate Ht.	Tailing	Resolution	Sep.Factor	Area Ratio	Height Ratio	Conc. %	Norm Conc.
1	1.457	1.439	1.509	777	311	2.496	5.489	   	1	CO	0.000	7684	19.521	1.932	0.000	0.000	0	0	0.615	0.615
2	1.571	1.538	1.622	18709	9549	1.959	361.759	   	2	CH4	0.078	11605	12.926	1.134	1.821	0.000	0	0	40.504	40.504
3	2.000	1.952	2.429	2095437	999091	2.097	525.898	   	3	CO2	0.372	17370	8.636	1.189	7.208	4.774	0	0	58.882	58.882

[Peak Table(Ch2)]
# of Peaks	0

[Peak Table(Ch3)]
# of Peaks	6
Peak#	R.Time	I.Time	F.Time	Area	Height	A/H	Conc.	Mark	ID#	Name	k'	Plate #	Plate Ht.	Tailing	Resolution	Sep.Factor	Area Ratio	Height Ratio	Conc. %	Norm Conc.
1	2.462	2.301	2.510	2450	759	3.228	0.000	   			0.000	11384	13.176	0.000	0.000	0.000	0	0	0.000	0.000
2	2.532	2.510	2.576	900	333	2.701	0.000	 V 			0.028	7909	18.965	0.000	0.676	0.000	0	0	0.000	0.000
3	2.612	2.576	2.693	672	149	4.512	0.000	 V 			0.061	3846	39.004	0.000	0.571	2.158	0	0	0.000	0.000
4	2.880	2.796	3.089	54728	14093	3.883	1.398	   	1	N2O	0.170	12652	11.856	1.558	1.976	2.780	0	0	100.000	100.000
5	3.177	3.089	3.195	535	99	5.412	0.000	 V 	2	SF6	0.290	3805	39.422	0.000	1.926	1.711	0	0	0.000	0.000
6	3.357	3.203	3.995	18126	667	27.164	0.000	   	2	SF6	0.363	304	493.072	2.518	0.368	1.251	0	0	0.000	0.000

[Compound Results(Ch1)]
# of IDs	6
ID#	Name	R.Time	Area	Height	Conc.	Curve	3rd	2nd	1st	Constant	Area Ratio	Height Ratio	Conc. %	Norm Conc.
1	CO	1.457	777	311	5.489	Linear	0.000000e+00	0.000000e+00	1.416423e+002	0.000000e+00	0	0	0.615	0.615
2	CH4	1.571	18709	9549	361.759	Linear	0.000000e+00	0.000000e+00	5.171738e+001	0.000000e+00	0	0	40.504	40.504
3	CO2	2.000	2095437	999091	525.898	Linear	0.000000e+00	0.000000e+00	3.984494e+003	0.000000e+00	0	0	58.882	58.882
4	Ethylene	0.000	0	0	0.000	Linear	0.000000e+00	0.000000e+00	0.000000e+00	0.000000e+00	0	0	0.000	0.000
5	Acetylene	0.000	0	0	0.000	Linear	0.000000e+00	0.000000e+00	0.000000e+00	0.000000e+00	0	0	0.000	0.000
6	Ethane	0.000	0	0	0.000	Linear	0.000000e+00	0.000000e+00	0.000000e+00	0.000000e+00	0	0	0.000	0.000

[Compound Results(Ch2)]
# of IDs	5
ID#	Name	R.Time	Area	Height	Conc.	Curve	3rd	2nd	1st	Constant	Area Ratio	Height Ratio	Conc. %	Norm Conc.
1	Hydrogen	0.000	0	0	0.000	Linear	0.000000e+00	0.000000e+00	0.000000e+00	0.000000e+00	0	0	0.000	0.000
2	Oxygen	0.000	0	0	0.000	Linear	0.000000e+00	0.000000e+00	0.000000e+00	0.000000e+00	0	0	0.000	0.000
3	Nitrogen	0.000	0	0	0.000	Linear	0.000000e+00	0.000000e+00	0.000000e+00	0.000000e+00	0	0	0.000	0.000
4	Methane	0.000	0	0	0.000	Linear	0.000000e+00	0.000000e+00	0.000000e+00	0.000000e+00	0	0	0.000	0.000
5	Carbon Monoxide	0.000	0	0	0.000	Linear	0.000000e+00	0.000000e+00	0.000000e+00	0.000000e+00	0	0	0.000	0.000

[Compound Results(Ch3)]
# of IDs	2
ID#	Name	R.Time	Area	Height	Conc.	Curve	3rd	2nd	1st	Constant	Area Ratio	Height Ratio	Conc. %	Norm Conc.
1	N2O	2.880	54728	14093	1.398	Linear	0.000000e+00	0.000000e+00	3.915173e+004	0.000000e+00	0	0	100.000	100.000
2	SF6	3.357	18661	766	0.000	Linear	0.000000e+00	0.000000e+00	0.000000e+00	0.000000e+00	0	0	0.000	0.000

[Group Results(Ch1)]
# of Groups	0

[Group Results(Ch2)]
# of Groups	0

[Group Results(Ch3)]
# of Groups	0

[Chromatogram (Ch1)]
Interval(msec)	220
# of Points	1091
Start Time(min)	0.002
End Time(min)	3.998
R.Time (min)	Intensity
0.00167	4
0.00533	9
0.00900	11
0.01267	5
0.01633	-4
0.02000	-11
0.02367	-17
0.02733	-24
0.03100	-28
0.03467	-31
0.03833	-29
0.04200	-21
0.04567	-13
0.04933	-9
0.05300	-12
0.05667	-15
0.06033	-13
0.06400	-4
0.06767	5
0.07133	11
0.07500	11
0.07867	9
0.08233	7
0.08600	8
0.08967	12
0.09333	11
0.09700	9
0.10067	14
0.10433	20
0.10800	22
0.11167	24
0.11533	23
0.11900	15
0.12267	5
0.12633	-2
0.13000	-9
0.13367	-10
0.13733	-6
0.14100	-2
0.14467	-3
0.14833	-6
0.15200	-10
0.15567	-10
0.15933	-4
0.16300	2
0.16667	1
0.17033	-6
0.17400	-17
0.17767	-24
0.18133	-26
0.18500	-27
0.18867	-20
0.19233	-9
0.19600	3
0.19967	14
0.20333	21
0.20700	21
0.21067	13
0.21433	4
0.21800	-2
0.22167	1
0.22533	5
0.22900	12
0.23267	20
0.23633	21
0.24000	10
0.24367	-4
0.24733	-15
0.25100	-23
0.25467	-22
0.25833	-12
0.26200	-0
0.26567	8
0.26933	8
0.27300	6
0.27667	6
0.28033	4
0.28400	-1
0.28767	-3
0.29133	3
0.29500	13
0.29867	22
0.30233	27
0.30600	28
0.30967	32
0.31333	37
0.31700	44
0.32067	49
0.32433	51
0.32800	57
0.33167	62
0.33533	67
0.33900	72
0.34267	79
0.34633	84
0.35000	87
0.35367	88
0.35733	90
0.36100	87
0.36467	81
0.36833	75
0.37200	73
0.37567	68
0.37933	60
0.38300	53
0.38667	48
0.39033	51
0.39400	56
0.39767	56
0.40133	55
0.40500	55
0.40867	59
0.41233	62
0.41600	62
0.41967	60
0.42333	58
0.42700	53
0.43067	47
0.43433	43
0.43800	40
0.44167	40
0.44533	38
0.44900	35
0.45267	34
0.45633	32
0.46000	28
0.46367	27
0.46733	30
0.47100	28
0.47467	21
0.47833	14
0.48200	11
0.48567	14
0.48933	20
0.49300	25
0.49667	27
0.50033	27
0.50400	25
0.50767	21
0.51133	21
0.51500	20
0.51867	13
0.52233	5
0.52600	-1
0.52967	-7
0.53333	-6
0.53700	3
0.54067	10
0.54433	15
0.54800	17
0.55167	13
0.55533	5
0.55900	-4
0.56267	-10
0.56633	-13
0.57000	-14
0.57367	-15
0.57733	-13
0.58100	-7
0.58467	-5
0.58833	-9
0.59200	-12
0.59567	-14
0.59933	-9
0.60300	-4
0.60667	-4
0.61033	-7
0.61400	-11
0.61767	-13
0.62133	-14
0.62500	-10
0.62867	-4
0.63233	4
0.63600	12
0.63967	16
0.64333	20
0.64700	19
0.65067	15
0.65433	10
0.65800	5
0.66167	2
0.66533	-2
0.66900	-7
0.67267	-11
0.67633	-10
0.68000	-1
0.68367	10
0.68733	11
0.69100	8
0.69467	11
0.69833	10
0.70200	2
0.70567	-10
0.70933	-19
0.71300	-25
0.71667	-23
0.72033	-15
0.72400	-12
0.72767	-10
0.73133	-5
0.73500	7
0.73867	18
0.74233	23
0.74600	25
0.74967	24
0.75333	21
0.75700	14
0.76067	10
0.76433	10
0.76800	6
0.77167	-1
0.77533	-4
0.77900	0
0.78267	4
0.78633	7
0.79000	8
0.79367	6
0.79733	0
0.80100	-3
0.80467	-8
0.80833	-11
0.81200	-12
0.81567	-10
0.81933	-9
0.82300	-9
0.82667	-7
0.83033	-6
0.83400	-8
0.83767	-10
0.84133	-16
0.84500	-16
0.84867	-6
0.85233	2
0.85600	7
0.85967	10
0.86333	8
0.86700	6
0.87067	4
0.87433	7
0.87800	5
0.88167	3
0.88533	5
0.88900	9
0.89267	14
0.89633	16
0.90000	15
0.90367	12
0.90733	7
0.91100	1
0.91467	-3
0.91833	-5
0.92200	-8
0.92567	-11
0.92933	-10
0.93300	-10
0.93667	-9
0.94033	-3
0.94400	7
0.94767	8
0.95133	-2
0.95500	-12
0.95867	-19
0.96233	-21
0.96600	-20
0.96967	-20
0.97333	-18
0.97700	-15
0.98067	-14
0.98433	-16
0.98800	-15
0.99167	-11
0.99533	-12
0.99900	-14
1.00267	-15
1.00633	-11
1.01000	-10
1.01367	-10
1.01733	-8
1.02100	-5
1.02467	-2
1.02833	0
1.03200	5
1.03567	10
1.03933	12
1.04300	10
1.04667	8
1.05033	11
1.05400	17
1.05767	20
1.06133	24
1.06500	24
1.06867	24
1.07233	27
1.07600	26
1.07967	27
1.08333	31
1.08700	33
1.09067	33
1.09433	33
1.09800	31
1.10167	29
1.10533	28
1.10900	29
1.11267	26
1.11633	20
1.12000	9
1.12367	-3
1.12733	-5
1.13100	-4
1.13467	2
1.13833	12
1.14200	18
1.14567	17
1.14933	13
1.15300	6
1.15667	1
1.16033	2
1.16400	4
1.16767	6
1.17133	13
1.17500	20
1.17867	23
1.18233	24
1.18600	27
1.18967	30
1.19333	30
1.19700	24
1.20067	21
1.20433	26
1.20800	35
1.21167	42
1.21533	48
1.21900	51
1.22267	51
1.22633	52
1.23000	52
1.23367	49
1.23733	43
1.24100	39
1.24467	37
1.24833	34
1.25200	25
1.25567	10
1.25933	0
1.26300	-1
1.26667	6
1.27033	10
1.27400	13
1.27767	16
1.28133	19
1.28500	19
1.28867	18
1.29233	20
1.29600	28
1.29967	37
1.30333	40
1.30700	38
1.31067	33
1.31433	27
1.31800	21
1.32167	11
1.32533	-2
1.32900	-9
1.33267	-5
1.33633	3
1.34000	7
1.34367	11
1.34733	20
1.35100	29
1.35467	33
1.35833	42
1.36200	40
1.36567	26
1.36933	18
1.37300	12
1.37667	3
1.38033	-3
1.38400	-7
1.38767	-7
1.39133	1
1.39500	11
1.39867	10
1.40233	0
1.40600	-7
1.40967	-13
1.41333	-19
1.41700	-24
1.42067	-24
1.42433	-21
1.42800	-13
1.43167	-1
1.43533	10
1.43900	22
1.44267	54
1.44633	137
1.45000	240
1.45367	293
1.45733	299
1.46100	281
1.46467	249
1.46833	212
1.47200	189
1.47567	184
1.47933	190
1.48300	185
1.48667	158
1.49033	118
1.49400	67
1.49767	12
1.50133	-41
1.50500	-83
1.50867	-109
1.51233	-126
1.51600	-139
1.51967	-146
1.52333	-143
1.52700	-137
1.53067	-135
1.53433	-128
1.53800	-81
1.54167	134
1.54533	776
1.54900	2042
1.55267	3805
1.55633	5685
1.56000	7345
1.56367	8605
1.56733	9368
1.57100	9508
1.57467	8937
1.57833	7740
1.58200	6208
1.58567	4666
1.58933	3332
1.59300	2288
1.59667	1528
1.60033	995
1.60400	630
1.60767	386
1.61133	228
1.61500	125
1.61867	60
1.62233	22
1.62600	-3
1.62967	-19
1.63333	-29
1.63700	-34
1.64067	-38
1.64433	-45
1.64800	-47
1.65167	-45
1.65533	-40
1.65900	-35
1.66267	-26
1.66633	-18
1.67000	-18
1.67367	-19
1.67733	-21
1.68100	-27
1.68467	-35
1.68833	-46
1.69200	-55
1.69567	-57
1.69933	-51
1.70300	-45
1.70667	-44
1.71033	-48
1.71400	-51
1.71767	-49
1.72133	-39
1.72500	-28
1.72867	-18
1.73233	-13
1.73600	-13
1.73967	-17
1.74333	-21
1.74700	-23
1.75067	-21
1.75433	-22
1.75800	-23
1.76167	-22
1.76533	-27
1.76900	-36
1.77267	-44
1.77633	-45
1.78000	-43
1.78367	-35
1.78733	-23
1.79100	-10
1.79467	7
1.79833	17
1.80200	12
1.80567	1
1.80933	-7
1.81300	-8
1.81667	-3
1.82033	-1
1.82400	-5
1.82767	-8
1.83133	-10
1.83500	-11
1.83867	-16
1.84233	-18
1.84600	-17
1.84967	-14
1.85333	-10
1.85700	-6
1.86067	-4
1.86433	-5
1.86800	-8
1.87167	-7
1.87533	-6
1.87900	-11
1.88267	-15
1.88633	-13
1.89000	-10
1.89367	-3
1.89733	4
1.90100	4
1.90467	-1
1.90833	-4
1.91200	-4
1.91567	-3
1.91933	-1
1.92300	-0
1.92667	3
1.93033	8
1.93400	8
1.93767	6
1.94133	10
1.94500	8
1.94867	11
1.95233	20
1.95600	93
1.95967	609
1.96333	3259
1.96700	13504
1.97067	43692
1.97433	112256
1.97800	233372
1.98167	402618
1.98533	594197
1.98900	773845
1.99267	912217
1.99633	990378
2.00000	999135
2.00367	940376
2.00733	828173
2.01100	685515
2.01467	537099
2.01833	402051
2.02200	290637
2.02567	205089
2.02933	142686
2.03300	98761
2.03667	68562
2.04033	48086
2.04400	34281
2.04767	24967
2.05133	18644
2.05500	14301
2.05867	11268
2.06233	9106
2.06600	7529
2.06967	6352
2.07333	5448
2.07700	4742
2.08067	4185
2.08433	3740
2.08800	3377
2.09167	3064
2.09533	2792
2.09900	2560
2.10267	2366
2.10633	2196
2.11000	2041
2.11367	1903
2.11733	1781
2.12100	1680
2.12467	1594
2.12833	1516
2.13200	1442
2.13567	1375
2.13933	1312
2.14300	1249
2.14667	1189
2.15033	1135
2.15400	1089
2.15767	1053
2.16133	1020
2.16500	987
2.16867	953
2.17233	919
2.17600	888
2.17967	858
2.18333	831
2.18700	802
2.19067	770
2.19433	742
2.19800	719
2.20167	693
2.20533	663
2.20900	637
2.21267	615
2.21633	598
2.22000	589
2.22367	585
2.22733	579
2.23100	569
2.23467	556
2.23833	540
2.24200	524
2.24567	510
2.24933	499
2.25300	494
2.25667	490
2.26033	491
2.26400	495
2.26767	499
2.27133	494
2.27500	476
2.27867	457
2.28233	443
2.28600	431
2.28967	420
2.29333	411
2.29700	406
2.30067	400
2.30433	387
2.30800	379
2.31167	372
2.31533	364
2.31900	361
2.32267	357
2.32633	356
2.33000	357
2.33367	357
2.33733	352
2.34100	348
2.34467	344
2.34833	342
2.35200	340
2.35567	335
2.35933	327
2.36300	321
2.36667	318
2.37033	322
2.37400	324
2.37767	321
2.38133	315
2.38500	314
2.38867	315
2.39233	315
2.39600	312
2.39967	305
2.40333	299
2.40700	297
2.41067	297
2.41433	291
2.41800	279
2.42167	269
2.42533	262
2.42900	259
2.43267	266
2.43633	272
2.44000	276
2.44367	272
2.44733	265
2.45100	258
2.45467	253
2.45833	252
2.46200	253
2.46567	252
2.46933	253
2.47300	254
2.47667	256
2.48033	256
2.48400	253
2.48767	248
2.49133	241
2.49500	240
2.49867	244
2.50233	249
2.50600	246
2.50967	240
2.51333	238
2.51700	239
2.52067	241
2.52433	241
2.52800	240
2.53167	234
2.53533	230
2.53900	228
2.54267	228
2.54633	227
2.55000	220
2.55367	204
2.55733	190
2.56100	184
2.56467	184
2.56833	191
2.57200	199
2.57567	204
2.57933	206
2.58300	206
2.58667	205
2.59033	203
2.59400	199
2.59767	194
2.60133	190
2.60500	189
2.60867	190
2.61233	186
2.61600	186
2.61967	188
2.62333	193
2.62700	201
2.63067	208
2.63433	212
2.63800	212
2.64167	209
2.64533	207
2.64900	200
2.65267	193
2.65633	185
2.66000	177
2.66367	174
2.66733	178
2.67100	181
2.67467	181
2.67833	182
2.68200	182
2.68567	180
2.68933	183
2.69300	192
2.69667	198
2.70033	196
2.70400	187
2.70767	182
2.71133	181
2.71500	180
2.71867	176
2.72233	173
2.72600	172
2.72967	173
2.73333	178
2.73700	189
2.74067	202
2.74433	210
2.74800	209
2.75167	200
2.75533	190
2.75900	179
2.76267	173
2.76633	172
2.77000	174
2.77367	178
2.77733	178
2.78100	179
2.78467	178
2.78833	175
2.79200	175
2.79567	179
2.79933	181
2.80300	183
2.80667	183
2.81033	181
2.81400	180
2.81767	180
2.82133	177
2.82500	172
2.82867	171
2.83233	173
2.83600	173
2.83967	170
2.84333	164
2.84700	161
2.85067	164
2.85433	167
2.85800	170
2.86167	172
2.86533	173
2.86900	174
2.87267	170
2.87633	167
2.88000	165
2.88367	165
2.88733	163
2.89100	158
2.89467	155
2.89833	154
2.90200	156
2.90567	158
2.90933	157
2.91300	155
2.91667	154
2.92033	155
2.92400	154
2.92767	155
2.93133	157
2.93500	160
2.93867	157
2.94233	153
2.94600	156
2.94967	164
2.95333	173
2.95700	183
2.96067	191
2.96433	199
2.96800	194
2.97167	180
2.97533	166
2.97900	153
2.98267	143
2.98633	135
2.99000	130
2.99367	128
2.99733	127
3.00100	127
3.00467	132
3.00833	142
3.01200	152
3.01567	158
3.01933	159
3.02300	155
3.02667	149
3.03033	144
3.03400	141
3.03767	138
3.04133	135
3.04500	135
3.04867	140
3.05233	148
3.05600	152
3.05967	152
3.06333	150
3.06700	148
3.07067	143
3.07433	135
3.07800	129
3.08167	127
3.08533	133
3.08900	138
3.09267	136
3.09633	130
3.10000	128
3.10367	130
3.10733	134
3.11100	135
3.11467	140
3.11833	144
3.12200	145
3.12567	140
3.12933	127
3.13300	110
3.13667	98
3.14033	91
3.14400	92
3.14767	100
3.15133	106
3.15500	107
3.15867	108
3.16233	110
3.16600	114
3.16967	121
3.17333	124
3.17700	123
3.18067	121
3.18433	119
3.18800	117
3.19167	117
3.19533	125
3.19900	131
3.20267	129
3.20633	125
3.21000	123
3.21367	121
3.21733	117
3.22100	110
3.22467	104
3.22833	98
3.23200	97
3.23567	98
3.23933	102
3.24300	112
3.24667	118
3.25033	122
3.25400	121
3.25767	118
3.26133	116
3.26500	115
3.26867	114
3.27233	115
3.27600	115
3.27967	116
3.28333	116
3.28700	119
3.29067	121
3.29433	118
3.29800	113
3.30167	111
3.30533	110
3.30900	108
3.31267	104
3.31633	105
3.32000	106
3.32367	102
3.32733	96
3.33100	94
3.33467	94
3.33833	94
3.34200	93
3.34567	94
3.34933	96
3.35300	99
3.35667	103
3.36033	104
3.36400	103
3.36767	107
3.37133	114
3.37500	117
3.37867	116
3.38233	110
3.38600	98
3.38967	91
3.39333	89
3.39700	89
3.40067	88
3.40433	89
3.40800	92
3.41167	97
3.41533	99
3.41900	95
3.42267	91
3.42633	85
3.43000	80
3.43367	76
3.43733	72
3.44100	71
3.44467	72
3.44833	73
3.45200	74
3.45567	76
3.45933	75
3.46300	77
3.46667	83
3.47033	96
3.47400	101
3.47767	101
3.48133	97
3.48500	89
3.48867	81
3.49233	75
3.49600	74
3.49967	76
3.50333	75
3.50700	70
3.51067	61
3.51433	55
3.51800	54
3.52167	57
3.52533	63
3.52900	62
3.53267	59
3.53633	60
3.54000	63
3.54367	63
3.54733	63
3.55100	64
3.55467	67
3.55833	69
3.56200	67
3.56567	64
3.56933	67
3.57300	73
3.57667	75
3.58033	69
3.58400	62
3.58767	56
3.59133	53
3.59500	58
3.59867	66
3.60233	68
3.60600	65
3.60967	63
3.61333	62
3.61700	67
3.62067	74
3.62433	78
3.62800	80
3.63167	81
3.63533	75
3.63900	65
3.64267	55
3.64633	50
3.65000	50
3.65367	51
3.65733	53
3.66100	51
3.66467	48
3.66833	50
3.67200	54
3.67567	58
3.67933	62
3.68300	59
3.68667	56
3.69033	55
3.69400	53
3.69767	50
3.70133	46
3.70500	44
3.70867	44
3.71233	43
3.71600	43
3.71967	47
3.72333	53
3.72700	54
3.73067	51
3.73433	48
3.73800	45
3.74167	44
3.74533	43
3.74900	46
3.75267	54
3.75633	62
3.76000	65
3.76367	64
3.76733	62
3.77100	63
3.77467	65
3.77833	65
3.78200	66
3.78567	71
3.78933	75
3.79300	73
3.79667	67
3.80033	57
3.80400	44
3.80767	32
3.81133	28
3.81500	29
3.81867	30
3.82233	30
3.82600	26
3.82967	21
3.83333	22
3.83700	26
3.84067	26
3.84433	28
3.84800	32
3.85167	32
3.85533	27
3.85900	21
3.86267	17
3.86633	21
3.87000	27
3.87367	29
3.87733	28
3.88100	32
3.88467	36
3.88833	41
3.89200	49
3.89567	53
3.89933	53
3.90300	50
3.90667	46
3.91033	37
3.91400	22
3.91767	12
3.92133	9
3.92500	6
3.92867	5
3.93233	9
3.93600	20
3.93967	29
3.94333	28
3.94700	24
3.95067	27
3.95433	33
3.95800	37
3.96167	39
3.96533	39
3.96900	36
3.97267	29
3.97633	21
3.98000	14
3.98367	17
3.98733	21
3.99100	20
3.99467	21
3.99833	26

[Chromatogram (Ch2)]
Interval(msec)	220
# of Points	1091
Start Time(min)	0.002
End Time(min)	3.998
R.Time (min)	Intensity
0.00167	0
0.00533	-0
0.00900	-0
0.01267	-0
0.01633	-1
0.02000	-1
0.02367	-1
0.02733	-2
0.03100	-2
0.03467	-2
0.03833	-2
0.04200	-2
0.04567	-2
0.04933	-2
0.05300	-2
0.05667	-2
0.06033	-3
0.06400	-3
0.06767	-3
0.07133	-3
0.07500	-4
0.07867	-4
0.08233	-4
0.08600	-3
0.08967	-3
0.09333	-2
0.09700	-1
0.10067	-1
0.10433	0
0.10800	1
0.11167	1
0.11533	1
0.11900	1
0.12267	1
0.12633	1
0.13000	1
0.13367	-0
0.13733	-1
0.14100	-1
0.14467	-2
0.14833	-2
0.15200	-2
0.15567	-3
0.15933	-3
0.16300	-3
0.16667	-4
0.17033	-4
0.17400	-4
0.17767	-4
0.18133	-4
0.18500	-4
0.18867	-4
0.19233	-3
0.19600	-3
0.19967	-2
0.20333	-1
0.20700	-1
0.21067	-0
0.21433	0
0.21800	1
0.22167	1
0.22533	1
0.22900	1
0.23267	1
0.23633	0
0.24000	0
0.24367	0
0.24733	0
0.25100	0
0.25467	0
0.25833	0
0.26200	0
0.26567	1
0.26933	1
0.27300	1
0.27667	1
0.28033	1
0.28400	1
0.28767	0
0.29133	-0
0.29500	-1
0.29867	-1
0.30233	-1
0.30600	-1
0.30967	-1
0.31333	-1
0.31700	-0
0.32067	-0
0.32433	0
0.32800	0
0.33167	0
0.33533	1
0.33900	1
0.34267	1
0.34633	0
0.35000	1
0.35367	1
0.35733	0
0.36100	0
0.36467	1
0.36833	1
0.37200	0
0.37567	0
0.37933	0
0.38300	0
0.38667	0
0.39033	0
0.39400	-0
0.39767	-0
0.40133	-1
0.40500	-1
0.40867	-2
0.41233	-3
0.41600	-3
0.41967	-4
0.42333	-4
0.42700	-4
0.43067	-3
0.43433	-3
0.43800	-2
0.44167	-2
0.44533	-1
0.44900	-1
0.45267	-1
0.45633	-1
0.46000	-1
0.46367	-1
0.46733	-1
0.47100	-1
0.47467	-1
0.47833	-1
0.48200	-1
0.48567	-1
0.48933	-1
0.49300	-1
0.49667	-1
0.50033	-1
0.50400	-1
0.50767	-1
0.51133	-1
0.51500	-1
0.51867	-1
0.52233	-2
0.52600	-2
0.52967	-2
0.53333	-2
0.53700	-3
0.54067	-3
0.54433	-3
0.54800	-3
0.55167	-4
0.55533	-4
0.55900	-4
0.56267	-4
0.56633	-3
0.57000	-3
0.57367	-3
0.57733	-3
0.58100	-2
0.58467	-2
0.58833	-2
0.59200	-1
0.59567	-1
0.59933	-1
0.60300	-1
0.60667	-0
0.61033	-0
0.61400	-0
0.61767	-0
0.62133	0
0.62500	0
0.62867	0
0.63233	1
0.63600	1
0.63967	1
0.64333	1
0.64700	1
0.65067	1
0.65433	1
0.65800	1
0.66167	1
0.66533	1
0.66900	2
0.67267	2
0.67633	2
0.68000	2
0.68367	1
0.68733	1
0.69100	0
0.69467	-0
0.69833	-1
0.70200	-1
0.70567	-2
0.70933	-2
0.71300	-3
0.71667	-3
0.72033	-4
0.72400	-4
0.72767	-4
0.73133	-5
0.73500	-5
0.73867	-5
0.74233	-5
0.74600	-5
0.74967	-6
0.75333	-6
0.75700	-6
0.76067	-6
0.76433	-6
0.76800	-6
0.77167	-6
0.77533	-6
0.77900	-6
0.78267	-5
0.78633	-5
0.79000	-4
0.79367	-4
0.79733	-4
0.80100	-3
0.80467	-2
0.80833	-1
0.81200	-1
0.81567	-0
0.81933	0
0.82300	0
0.82667	1
0.83033	1
0.83400	1
0.83767	1
0.84133	1
0.84500	2
0.84867	2
0.85233	2
0.85600	2
0.85967	2
0.86333	2
0.86700	2
0.87067	2
0.87433	1
0.87800	1
0.88167	1
0.88533	0
0.88900	-0
0.89267	-1
0.89633	-1
0.90000	-2
0.90367	-2
0.90733	-2
0.91100	-2
0.91467	-2
0.91833	-2
0.92200	-2
0.92567	-3
0.92933	-3
0.93300	-3
0.93667	-3
0.94033	-3
0.94400	-2
0.94767	-2
0.95133	-1
0.95500	-1
0.95867	-1
0.96233	-1
0.96600	-1
0.96967	-1
0.97333	-1
0.97700	-1
0.98067	-1
0.98433	-1
0.98800	-1
0.99167	-2
0.99533	-2
0.99900	-2
1.00267	-2
1.00633	-2
1.01000	-2
1.01367	-2
1.01733	-2
1.02100	-3
1.02467	-3
1.02833	-3
1.03200	-3
1.03567	-3
1.03933	-3
1.04300	-3
1.04667	-2
1.05033	-2
1.05400	-2
1.05767	-1
1.06133	-1
1.06500	-1
1.06867	-2
1.07233	-2
1.07600	-2
1.07967	-3
1.08333	-3
1.08700	-3
1.09067	-2
1.09433	-2
1.09800	-2
1.10167	-2
1.10533	-1
1.10900	-1
1.11267	-1
1.11633	-0
1.12000	-0
1.12367	0
1.12733	0
1.13100	0
1.13467	0
1.13833	0
1.14200	0
1.14567	0
1.14933	0
1.15300	0
1.15667	0
1.16033	1
1.16400	1
1.16767	0
1.17133	0
1.17500	-0
1.17867	-1
1.18233	-1
1.18600	-1
1.18967	-1
1.19333	-1
1.19700	-2
1.20067	-2
1.20433	-2
1.20800	-2
1.21167	-2
1.21533	-2
1.21900	-2
1.22267	-3
1.22633	-3
1.23000	-3
1.23367	-3
1.23733	-4
1.24100	-4
1.24467	-4
1.24833	-4
1.25200	-4
1.25567	-4
1.25933	-4
1.26300	-4
1.26667	-4
1.27033	-4
1.27400	-4
1.27767	-4
1.28133	-4
1.28500	-4
1.28867	-3
1.29233	-3
1.29600	-3
1.29967	-2
1.30333	-2
1.30700	-2
1.31067	-2
1.31433	-2
1.31800	-2
1.32167	-2
1.32533	-2
1.32900	-2
1.33267	-2
1.33633	-2
1.34000	-2
1.34367	-2
1.34733	-2
1.35100	-2
1.35467	-2
1.35833	-3
1.36200	-3
1.36567	-3
1.36933	-3
1.37300	-4
1.37667	-4
1.38033	-5
1.38400	-5
1.38767	-6
1.39133	-6
1.39500	-6
1.39867	-6
1.40233	-5
1.40600	-5
1.40967	-5
1.41333	-4
1.41700	-4
1.42067	-4
1.42433	-3
1.42800	-3
1.43167	-3
1.43533	-3
1.43900	-2
1.44267	-2
1.44633	-2
1.45000	-2
1.45367	-2
1.45733	-2
1.46100	-2
1.46467	-2
1.46833	-1
1.47200	-1
1.47567	-1
1.47933	-1
1.48300	-1
1.48667	-1
1.49033	-1
1.49400	-1
1.49767	-1
1.50133	-1
1.50500	-1
1.50867	-1
1.51233	-1
1.51600	-1
1.51967	-1
1.52333	-1
1.52700	-1
1.53067	-2
1.53433	-2
1.53800	-2
1.54167	-3
1.54533	-3
1.54900	-3
1.55267	-3
1.55633	-3
1.56000	-2
1.56367	-2
1.56733	-2
1.57100	-2
1.57467	-2
1.57833	-2
1.58200	-2
1.58567	-1
1.58933	-1
1.59300	-2
1.59667	-2
1.60033	-2
1.60400	-3
1.60767	-5
1.61133	-7
1.61500	-9
1.61867	-11
1.62233	-14
1.62600	-17
1.62967	-21
1.63333	-24
1.63700	-28
1.64067	-32
1.64433	-35
1.64800	-39
1.65167	-43
1.65533	-46
1.65900	-50
1.66267	-55
1.66633	-60
1.67000	-65
1.67367	-70
1.67733	-75
1.68100	-80
1.68467	-85
1.68833	-89
1.69200	-93
1.69567	-96
1.69933	-99
1.70300	-101
1.70667	-103
1.71033	-104
1.71400	-105
1.71767	-106
1.72133	-107
1.72500	-107
1.72867	-107
1.73233	-108
1.73600	-108
1.73967	-108
1.74333	-107
1.74700	-107
1.75067	-107
1.75433	-107
1.75800	-107
1.76167	-107
1.76533	-108
1.76900	-109
1.77267	-110
1.77633	-112
1.78000	-113
1.78367	-114
1.78733	-114
1.79100	-114
1.79467	-114
1.79833	-114
1.80200	-113
1.80567	-113
1.80933	-114
1.81300	-114
1.81667	-114
1.82033	-115
1.82400	-115
1.82767	-116
1.83133	-116
1.83500	-117
1.83867	-117
1.84233	-117
1.84600	-117
1.84967	-116
1.85333	-116
1.85700	-116
1.86067	-116
1.86433	-116
1.86800	-116
1.87167	-115
1.87533	-115
1.87900	-115
1.88267	-115
1.88633	-114
1.89000	-114
1.89367	-114
1.89733	-114
1.90100	-113
1.90467	-113
1.90833	-113
1.91200	-113
1.91567	-112
1.91933	-112
1.92300	-113
1.92667	-113
1.93033	-112
1.93400	-112
1.93767	-112
1.94133	-112
1.94500	-112
1.94867	-111
1.95233	-111
1.95600	-110
1.95967	-110
1.96333	-110
1.96700	-110
1.97067	-110
1.97433	-110
1.97800	-110
1.98167	-110
1.98533	-109
1.98900	-109
1.99267	-108
1.99633	-108
2.00000	-107
2.00367	-108
2.00733	-108
2.01100	-108
2.01467	-108
2.01833	-108
2.02200	-107
2.02567	-107
2.02933	-106
2.03300	-106
2.03667	-105
2.04033	-105
2.04400	-105
2.04767	-105
2.05133	-106
2.05500	-106
2.05867	-106
2.06233	-106
2.06600	-105
2.06967	-104
2.07333	-104
2.07700	-103
2.08067	-102
2.08433	-102
2.08800	-102
2.09167	-102
2.09533	-102
2.09900	-101
2.10267	-101
2.10633	-101
2.11000	-100
2.11367	-100
2.11733	-99
2.12100	-99
2.12467	-99
2.12833	-99
2.13200	-99
2.13567	-99
2.13933	-99
2.14300	-98
2.14667	-98
2.15033	-97
2.15400	-97
2.15767	-96
2.16133	-96
2.16500	-95
2.16867	-95
2.17233	-94
2.17600	-94
2.17967	-93
2.18333	-93
2.18700	-92
2.19067	-92
2.19433	-92
2.19800	-92
2.20167	-92
2.20533	-91
2.20900	-91
2.21267	-91
2.21633	-90
2.22000	-90
2.22367	-89
2.22733	-89
2.23100	-89
2.23467	-89
2.23833	-89
2.24200	-89
2.24567	-89
2.24933	-88
2.25300	-88
2.25667	-87
2.26033	-87
2.26400	-86
2.26767	-86
2.27133	-86
2.27500	-86
2.27867	-86
2.28233	-86
2.28600	-85
2.28967	-85
2.29333	-85
2.29700	-84
2.30067	-83
2.30433	-82
2.30800	-81
2.31167	-80
2.31533	-80
2.31900	-80
2.32267	-80
2.32633	-80
2.33000	-80
2.33367	-79
2.33733	-79
2.34100	-78
2.34467	-77
2.34833	-75
2.35200	-74
2.35567	-72
2.35933	-70
2.36300	-68
2.36667	-65
2.37033	-63
2.37400	-60
2.37767	-57
2.38133	-54
2.38500	-51
2.38867	-47
2.39233	-43
2.39600	-39
2.39967	-35
2.40333	-31
2.40700	-27
2.41067	-23
2.41433	-20
2.41800	-18
2.42167	-16
2.42533	-14
2.42900	-13
2.43267	-12
2.43633	-11
2.44000	-9
2.44367	-9
2.44733	-8
2.45100	-8
2.45467	-7
2.45833	-7
2.46200	-6
2.46567	-5
2.46933	-5
2.47300	-3
2.47667	-2
2.48033	-1
2.48400	0
2.48767	1
2.49133	2
2.49500	3
2.49867	4
2.50233	4
2.50600	5
2.50967	5
2.51333	6
2.51700	7
2.52067	9
2.52433	10
2.52800	10
2.53167	11
2.53533	11
2.53900	12
2.54267	12
2.54633	12
2.55000	12
2.55367	13
2.55733	13
2.56100	14
2.56467	14
2.56833	15
2.57200	15
2.57567	16
2.57933	16
2.58300	16
2.58667	16
2.59033	16
2.59400	16
2.59767	16
2.60133	17
2.60500	17
2.60867	17
2.61233	17
2.61600	17
2.61967	17
2.62333	17
2.62700	17
2.63067	17
2.63433	17
2.63800	17
2.64167	17
2.64533	18
2.64900	18
2.65267	19
2.65633	19
2.66000	20
2.66367	20
2.66733	20
2.67100	20
2.67467	20
2.67833	20
2.68200	20
2.68567	20
2.68933	20
2.69300	21
2.69667	21
2.70033	22
2.70400	22
2.70767	23
2.71133	24
2.71500	25
2.71867	26
2.72233	26
2.72600	26
2.72967	26
2.73333	25
2.73700	25
2.74067	25
2.74433	24
2.74800	24
2.75167	24
2.75533	24
2.75900	24
2.76267	24
2.76633	24
2.77000	24
2.77367	25
2.77733	25
2.78100	25
2.78467	26
2.78833	26
2.79200	27
2.79567	28
2.79933	28
2.80300	28
2.80667	28
2.81033	27
2.81400	26
2.81767	25
2.82133	24
2.82500	23
2.82867	23
2.83233	23
2.83600	22
2.83967	22
2.84333	21
2.84700	18
2.85067	15
2.85433	8
2.85800	-2
2.86167	-16
2.86533	-34
2.86900	-58
2.87267	-87
2.87633	-122
2.88000	-162
2.88367	-208
2.88733	-259
2.89100	-315
2.89467	-375
2.89833	-440
2.90200	-509
2.90567	-581
2.90933	-656
2.91300	-733
2.91667	-814
2.92033	-896
2.92400	-981
2.92767	-1067
2.93133	-1154
2.93500	-1243
2.93867	-1334
2.94233	-1418
2.94600	-1484
2.94967	-1520
2.95333	-1520
2.95700	-1485
2.96067	-1421
2.96433	-1334
2.96800	-1232
2.97167	-1124
2.97533	-1013
2.97900	-904
2.98267	-801
2.98633	-705
2.99000	-616
2.99367	-537
2.99733	-465
3.00100	-401
3.00467	-346
3.00833	-296
3.01200	-253
3.01567	-216
3.01933	-184
3.02300	-157
3.02667	-133
3.03033	-112
3.03400	-95
3.03767	-80
3.04133	-67
3.04500	-56
3.04867	-47
3.05233	-39
3.05600	-32
3.05967	-26
3.06333	-22
3.06700	-17
3.07067	-13
3.07433	-10
3.07800	-7
3.08167	-4
3.08533	-2
3.08900	0
3.09267	2
3.09633	4
3.10000	6
3.10367	7
3.10733	8
3.11100	9
3.11467	10
3.11833	10
3.12200	11
3.12567	11
3.12933	12
3.13300	12
3.13667	12
3.14033	12
3.14400	12
3.14767	13
3.15133	13
3.15500	13
3.15867	13
3.16233	13
3.16600	13
3.16967	14
3.17333	14
3.17700	14
3.18067	15
3.18433	15
3.18800	15
3.19167	16
3.19533	16
3.19900	16
3.20267	16
3.20633	17
3.21000	17
3.21367	17
3.21733	18
3.22100	18
3.22467	18
3.22833	18
3.23200	18
3.23567	19
3.23933	19
3.24300	19
3.24667	19
3.25033	19
3.25400	19
3.25767	19
3.26133	20
3.26500	20
3.26867	20
3.27233	21
3.27600	21
3.27967	22
3.28333	22
3.28700	23
3.29067	23
3.29433	23
3.29800	24
3.30167	24
3.30533	24
3.30900	25
3.31267	25
3.31633	25
3.32000	25
3.32367	25
3.32733	25
3.33100	25
3.33467	25
3.33833	26
3.34200	26
3.34567	26
3.34933	26
3.35300	27
3.35667	27
3.36033	27
3.36400	27
3.36767	27
3.37133	27
3.37500	27
3.37867	27
3.38233	27
3.38600	27
3.38967	27
3.39333	27
3.39700	27
3.40067	27
3.40433	28
3.40800	28
3.41167	28
3.41533	28
3.41900	28
3.42267	28
3.42633	28
3.43000	28
3.43367	28
3.43733	28
3.44100	28
3.44467	28
3.44833	28
3.45200	27
3.45567	27
3.45933	27
3.46300	27
3.46667	27
3.47033	26
3.47400	27
3.47767	27
3.48133	27
3.48500	27
3.48867	27
3.49233	27
3.49600	27
3.49967	27
3.50333	27
3.50700	27
3.51067	27
3.51433	27
3.51800	26
3.52167	26
3.52533	26
3.52900	26
3.53267	26
3.53633	26
3.54000	26
3.54367	26
3.54733	26
3.55100	26
3.55467	26
3.55833	26
3.56200	26
3.56567	26
3.56933	26
3.57300	26
3.57667	26
3.58033	26
3.58400	26
3.58767	26
3.59133	26
3.59500	26
3.59867	26
3.60233	26
3.60600	26
3.60967	26
3.61333	26
3.61700	26
3.62067	25
3.62433	25
3.62800	25
3.63167	25
3.63533	25
3.63900	25
3.64267	25
3.64633	25
3.65000	25
3.65367	25
3.65733	25
3.66100	25
3.66467	24
3.66833	24
3.67200	24
3.67567	24
3.67933	24
3.68300	24
3.68667	25
3.69033	25
3.69400	25
3.69767	25
3.70133	25
3.70500	25
3.70867	25
3.71233	25
3.71600	25
3.71967	25
3.72333	25
3.72700	26
3.73067	26
3.73433	26
3.73800	26
3.74167	26
3.74533	26
3.74900	26
3.75267	26
3.75633	26
3.76000	26
3.76367	26
3.76733	26
3.77100	26
3.77467	27
3.77833	27
3.78200	27
3.78567	27
3.78933	27
3.79300	27
3.79667	27
3.80033	27
3.80400	27
3.80767	26
3.81133	26
3.81500	26
3.81867	26
3.82233	26
3.82600	26
3.82967	26
3.83333	26
3.83700	26
3.84067	26
3.84433	26
3.84800	26
3.85167	26
3.85533	26
3.85900	26
3.86267	26
3.86633	26
3.87000	26
3.87367	26
3.87733	26
3.88100	26
3.88467	26
3.88833	26
3.89200	26
3.89567	26
3.89933	27
3.90300	27
3.90667	28
3.91033	28
3.91400	28
3.91767	29
3.92133	29
3.92500	29
3.92867	29
3.93233	29
3.93600	29
3.93967	29
3.94333	28
3.94700	28
3.95067	28
3.95433	27
3.95800	27
3.96167	27
3.96533	26
3.96900	26
3.97267	26
3.97633	26
3.98000	26
3.98367	26
3.98733	26
3.99100	26
3.99467	26
3.99833	26

[Chromatogram (Ch3)]
Interval(msec)	220
# of Points	1091
Start Time(min)	0.002
End Time(min)	3.998
R.Time (min)	Intensity
0.00167	-1
0.00533	-2
0.00900	-2
0.01267	-1
0.01633	-1
0.02000	-1
0.02367	-1
0.02733	-3
0.03100	-4
0.03467	-4
0.03833	-5
0.04200	-7
0.04567	-6
0.04933	-3
0.05300	-1
0.05667	1
0.06033	3
0.06400	4
0.06767	4
0.07133	4
0.07500	2
0.07867	-1
0.08233	-1
0.08600	-0
0.08967	1
0.09333	1
0.09700	2
0.10067	3
0.10433	3
0.10800	2
0.11167	2
0.11533	-0
0.11900	-2
0.12267	-4
0.12633	-5
0.13000	-4
0.13367	-3
0.13733	-2
0.14100	0
0.14467	0
0.14833	-1
0.15200	-1
0.15567	0
0.15933	0
0.16300	0
0.16667	1
0.17033	2
0.17400	1
0.17767	2
0.18133	3
0.18500	7
0.18867	9
0.19233	8
0.19600	7
0.19967	8
0.20333	6
0.20700	4
0.21067	4
0.21433	4
0.21800	3
0.22167	2
0.22533	1
0.22900	-1
0.23267	-1
0.23633	-1
0.24000	0
0.24367	1
0.24733	0
0.25100	-2
0.25467	-2
0.25833	-1
0.26200	-0
0.26567	-1
0.26933	-1
0.27300	-1
0.27667	-2
0.28033	-2
0.28400	-2
0.28767	-2
0.29133	-0
0.29500	-1
0.29867	-1
0.30233	1
0.30600	1
0.30967	-0
0.31333	-1
0.31700	-1
0.32067	0
0.32433	1
0.32800	-1
0.33167	0
0.33533	1
0.33900	1
0.34267	2
0.34633	1
0.35000	-1
0.35367	-2
0.35733	-1
0.36100	2
0.36467	5
0.36833	6
0.37200	6
0.37567	6
0.37933	7
0.38300	7
0.38667	6
0.39033	4
0.39400	3
0.39767	2
0.40133	-0
0.40500	1
0.40867	2
0.41233	2
0.41600	2
0.41967	1
0.42333	-0
0.42700	-1
0.43067	-2
0.43433	-3
0.43800	-5
0.44167	-3
0.44533	-1
0.44900	0
0.45267	1
0.45633	2
0.46000	3
0.46367	4
0.46733	3
0.47100	3
0.47467	2
0.47833	4
0.48200	5
0.48567	5
0.48933	6
0.49300	6
0.49667	6
0.50033	6
0.50400	5
0.50767	4
0.51133	4
0.51500	4
0.51867	3
0.52233	0
0.52600	0
0.52967	-1
0.53333	-1
0.53700	0
0.54067	1
0.54433	0
0.54800	1
0.55167	-0
0.55533	0
0.55900	0
0.56267	-1
0.56633	-0
0.57000	2
0.57367	1
0.57733	1
0.58100	-0
0.58467	-1
0.58833	-1
0.59200	-0
0.59567	3
0.59933	5
0.60300	3
0.60667	-0
0.61033	-0
0.61400	2
0.61767	1
0.62133	0
0.62500	1
0.62867	3
0.63233	5
0.63600	5
0.63967	6
0.64333	4
0.64700	2
0.65067	1
0.65433	-0
0.65800	1
0.66167	1
0.66533	2
0.66900	4
0.67267	5
0.67633	5
0.68000	5
0.68367	4
0.68733	3
0.69100	2
0.69467	2
0.69833	2
0.70200	0
0.70567	-0
0.70933	-1
0.71300	1
0.71667	2
0.72033	3
0.72400	4
0.72767	5
0.73133	5
0.73500	6
0.73867	6
0.74233	8
0.74600	7
0.74967	7
0.75333	8
0.75700	7
0.76067	7
0.76433	8
0.76800	10
0.77167	9
0.77533	8
0.77900	8
0.78267	7
0.78633	7
0.79000	7
0.79367	9
0.79733	8
0.80100	6
0.80467	4
0.80833	3
0.81200	2
0.81567	2
0.81933	2
0.82300	4
0.82667	5
0.83033	6
0.83400	6
0.83767	3
0.84133	2
0.84500	3
0.84867	4
0.85233	4
0.85600	4
0.85967	3
0.86333	4
0.86700	6
0.87067	8
0.87433	8
0.87800	5
0.88167	4
0.88533	4
0.88900	5
0.89267	3
0.89633	2
0.90000	3
0.90367	7
0.90733	9
0.91100	9
0.91467	10
0.91833	8
0.92200	9
0.92567	10
0.92933	7
0.93300	4
0.93667	3
0.94033	4
0.94400	3
0.94767	1
0.95133	1
0.95500	3
0.95867	6
0.96233	7
0.96600	7
0.96967	6
0.97333	6
0.97700	7
0.98067	6
0.98433	4
0.98800	3
0.99167	4
0.99533	5
0.99900	6
1.00267	9
1.00633	10
1.01000	12
1.01367	12
1.01733	12
1.02100	11
1.02467	9
1.02833	11
1.03200	11
1.03567	9
1.03933	12
1.04300	14
1.04667	15
1.05033	12
1.05400	10
1.05767	9
1.06133	10
1.06500	12
1.06867	13
1.07233	14
1.07600	15
1.07967	12
1.08333	10
1.08700	10
1.09067	12
1.09433	13
1.09800	12
1.10167	11
1.10533	10
1.10900	10
1.11267	10
1.11633	10
1.12000	11
1.12367	14
1.12733	16
1.13100	14
1.13467	15
1.13833	15
1.14200	14
1.14567	14
1.14933	14
1.15300	13
1.15667	13
1.16033	13
1.16400	14
1.16767	16
1.17133	15
1.17500	13
1.17867	13
1.18233	15
1.18600	14
1.18967	12
1.19333	10
1.19700	10
1.20067	9
1.20433	9
1.20800	9
1.21167	9
1.21533	8
1.21900	9
1.22267	13
1.22633	15
1.23000	17
1.23367	19
1.23733	19
1.24100	21
1.24467	21
1.24833	18
1.25200	17
1.25567	14
1.25933	13
1.26300	13
1.26667	13
1.27033	14
1.27400	14
1.27767	13
1.28133	14
1.28500	13
1.28867	12
1.29233	12
1.29600	14
1.29967	16
1.30333	16
1.30700	16
1.31067	16
1.31433	17
1.31800	19
1.32167	18
1.32533	15
1.32900	13
1.33267	14
1.33633	13
1.34000	13
1.34367	13
1.34733	11
1.35100	11
1.35467	12
1.35833	15
1.36200	16
1.36567	15
1.36933	13
1.37300	12
1.37667	12
1.38033	12
1.38400	10
1.38767	10
1.39133	12
1.39500	12
1.39867	12
1.40233	12
1.40600	11
1.40967	11
1.41333	13
1.41700	16
1.42067	18
1.42433	17
1.42800	17
1.43167	19
1.43533	22
1.43900	23
1.44267	18
1.44633	15
1.45000	15
1.45367	14
1.45733	14
1.46100	14
1.46467	13
1.46833	14
1.47200	16
1.47567	19
1.47933	19
1.48300	19
1.48667	19
1.49033	19
1.49400	17
1.49767	16
1.50133	17
1.50500	19
1.50867	20
1.51233	20
1.51600	18
1.51967	18
1.52333	18
1.52700	18
1.53067	17
1.53433	19
1.53800	21
1.54167	20
1.54533	19
1.54900	19
1.55267	19
1.55633	18
1.56000	17
1.56367	16
1.56733	14
1.57100	13
1.57467	14
1.57833	16
1.58200	17
1.58567	17
1.58933	17
1.59300	19
1.59667	21
1.60033	25
1.60400	27
1.60767	28
1.61133	26
1.61500	24
1.61867	21
1.62233	21
1.62600	22
1.62967	20
1.63333	18
1.63700	17
1.64067	18
1.64433	20
1.64800	23
1.65167	26
1.65533	27
1.65900	26
1.66267	23
1.66633	21
1.67000	23
1.67367	26
1.67733	28
1.68100	28
1.68467	27
1.68833	26
1.69200	27
1.69567	29
1.69933	30
1.70300	32
1.70667	33
1.71033	34
1.71400	34
1.71767	34
1.72133	36
1.72500	36
1.72867	35
1.73233	36
1.73600	36
1.73967	36
1.74333	36
1.74700	36
1.75067	35
1.75433	36
1.75800	36
1.76167	37
1.76533	37
1.76900	36
1.77267	34
1.77633	34
1.78000	34
1.78367	35
1.78733	37
1.79100	39
1.79467	40
1.79833	40
1.80200	38
1.80567	36
1.80933	37
1.81300	40
1.81667	42
1.82033	44
1.82400	45
1.82767	45
1.83133	45
1.83500	45
1.83867	44
1.84233	44
1.84600	42
1.84967	42
1.85333	45
1.85700	48
1.86067	49
1.86433	49
1.86800	48
1.87167	46
1.87533	46
1.87900	47
1.88267	48
1.88633	49
1.89000	51
1.89367	53
1.89733	56
1.90100	58
1.90467	59
1.90833	60
1.91200	62
1.91567	64
1.91933	64
1.92300	64
1.92667	66
1.93033	66
1.93400	65
1.93767	65
1.94133	64
1.94500	65
1.94867	67
1.95233	68
1.95600	69
1.95967	69
1.96333	69
1.96700	71
1.97067	72
1.97433	74
1.97800	76
1.98167	79
1.98533	81
1.98900	82
1.99267	80
1.99633	79
2.00000	79
2.00367	81
2.00733	83
2.01100	85
2.01467	85
2.01833	86
2.02200	86
2.02567	87
2.02933	88
2.03300	90
2.03667	90
2.04033	92
2.04400	97
2.04767	102
2.05133	106
2.05500	110
2.05867	113
2.06233	112
2.06600	109
2.06967	107
2.07333	107
2.07700	108
2.08067	109
2.08433	110
2.08800	113
2.09167	115
2.09533	117
2.09900	120
2.10267	122
2.10633	123
2.11000	125
2.11367	126
2.11733	128
2.12100	131
2.12467	135
2.12833	136
2.13200	138
2.13567	141
2.13933	143
2.14300	143
2.14667	143
2.15033	143
2.15400	143
2.15767	144
2.16133	147
2.16500	149
2.16867	149
2.17233	150
2.17600	150
2.17967	150
2.18333	152
2.18700	153
2.19067	155
2.19433	157
2.19800	160
2.20167	162
2.20533	163
2.20900	163
2.21267	163
2.21633	166
2.22000	169
2.22367	171
2.22733	171
2.23100	171
2.23467	173
2.23833	177
2.24200	178
2.24567	179
2.24933	181
2.25300	184
2.25667	186
2.26033	187
2.26400	190
2.26767	193
2.27133	197
2.27500	198
2.27867	199
2.28233	198
2.28600	195
2.28967	194
2.29333	197
2.29700	201
2.30067	201
2.30433	204
2.30800	205
2.31167	206
2.31533	206
2.31900	206
2.32267	207
2.32633	209
2.33000	211
2.33367	211
2.33733	212
2.34100	215
2.34467	217
2.34833	219
2.35200	222
2.35567	225
2.35933	226
2.36300	224
2.36667	224
2.37033	227
2.37400	231
2.37767	231
2.38133	231
2.38500	231
2.38867	230
2.39233	231
2.39600	232
2.39967	235
2.40333	239
2.40700	242
2.41067	246
2.41433	250
2.41800	252
2.42167	253
2.42533	254
2.42900	254
2.43267	255
2.43633	257
2.44000	263
2.44367	325
2.44733	486
2.45100	661
2.45467	803
2.45833	885
2.46200	888
2.46567	841
2.46933	777
2.47300	717
2.47667	675
2.48033	643
2.48400	606
2.48767	559
2.49133	506
2.49500	457
2.49867	414
2.50233	382
2.50600	361
2.50967	354
2.51333	357
2.51700	374
2.52067	397
2.52433	419
2.52800	432
2.53167	432
2.53533	419
2.53900	394
2.54267	360
2.54633	325
2.55000	291
2.55367	262
2.55733	238
2.56100	221
2.56467	207
2.56833	194
2.57200	186
2.57567	185
2.57933	185
2.58300	185
2.58667	187
2.59033	192
2.59400	197
2.59767	203
2.60133	209
2.60500	211
2.60867	212
2.61233	212
2.61600	209
2.61967	206
2.62333	204
2.62700	200
2.63067	194
2.63433	185
2.63800	178
2.64167	168
2.64533	157
2.64900	145
2.65267	131
2.65633	117
2.66000	105
2.66367	94
2.66733	80
2.67100	67
2.67467	57
2.67833	48
2.68200	42
2.68567	36
2.68933	31
2.69300	27
2.69667	24
2.70033	23
2.70400	22
2.70767	24
2.71133	25
2.71500	29
2.71867	33
2.72233	37
2.72600	41
2.72967	45
2.73333	50
2.73700	52
2.74067	52
2.74433	53
2.74800	55
2.75167	58
2.75533	61
2.75900	63
2.76267	67
2.76633	71
2.77000	74
2.77367	77
2.77733	78
2.78100	83
2.78467	87
2.78833	89
2.79200	90
2.79567	91
2.79933	96
2.80300	102
2.80667	109
2.81033	116
2.81400	125
2.81767	141
2.82133	166
2.82500	215
2.82867	316
2.83233	518
2.83600	880
2.83967	1464
2.84333	2317
2.84700	3458
2.85067	4865
2.85433	6473
2.85800	8180
2.86167	9863
2.86533	11395
2.86900	12654
2.87267	13556
2.87633	14058
2.88000	14161
2.88367	13908
2.88733	13364
2.89100	12608
2.89467	11717
2.89833	10752
2.90200	9767
2.90567	8797
2.90933	7868
2.91300	7000
2.91667	6204
2.92033	5478
2.92400	4826
2.92767	4244
2.93133	3723
2.93500	3259
2.93867	2847
2.94233	2486
2.94600	2170
2.94967	1895
2.95333	1654
2.95700	1444
2.96067	1262
2.96433	1101
2.96800	963
2.97167	844
2.97533	741
2.97900	651
2.98267	574
2.98633	507
2.99000	448
2.99367	396
2.99733	353
3.00100	317
3.00467	286
3.00833	259
3.01200	236
3.01567	215
3.01933	198
3.02300	183
3.02667	170
3.03033	155
3.03400	144
3.03767	135
3.04133	127
3.04500	121
3.04867	116
3.05233	112
3.05600	109
3.05967	107
3.06333	105
3.06700	102
3.07067	98
3.07433	94
3.07800	91
3.08167	88
3.08533	86
3.08900	86
3.09267	86
3.09633	86
3.10000	87
3.10367	86
3.10733	81
3.11100	79
3.11467	79
3.11833	79
3.12200	79
3.12567	82
3.12933	84
3.13300	86
3.13667	87
3.14033	87
3.14400	86
3.14767	86
3.15133	88
3.15500	86
3.15867	85
3.16233	85
3.16600	86
3.16967	86
3.17333	85
3.17700	85
3.18067	83
3.18433	82
3.18800	59
3.19167	16
3.19533	-19
3.19900	-30
3.20267	-13
3.20633	25
3.21000	75
3.21367	133
3.21733	193
3.22100	252
3.22467	306
3.22833	355
3.23200	399
3.23567	437
3.23933	468
3.24300	496
3.24667	521
3.25033	542
3.25400	559
3.25767	573
3.26133	589
3.26500	605
3.26867	617
3.27233	626
3.27600	635
3.27967	643
3.28333	651
3.28700	658
3.29067	664
3.29433	672
3.29800	679
3.30167	686
3.30533	693
3.30900	699
3.31267	705
3.31633	710
3.32000	714
3.32367	718
3.32733	723
3.33100	731
3.33467	738
3.33833	743
3.34200	749
3.34567	755
3.34933	759
3.35300	763
3.35667	767
3.36033	769
3.36400	771
3.36767	775
3.37133	776
3.37500	778
3.37867	780
3.38233	782
3.38600	785
3.38967	790
3.39333	791
3.39700	790
3.40067	787
3.40433	784
3.40800	784
3.41167	784
3.41533	782
3.41900	779
3.42267	776
3.42633	775
3.43000	774
3.43367	773
3.43733	770
3.44100	765
3.44467	759
3.44833	754
3.45200	751
3.45567	748
3.45933	748
3.46300	747
3.46667	743
3.47033	741
3.47400	739
3.47767	735
3.48133	733
3.48500	729
3.48867	725
3.49233	721
3.49600	718
3.49967	715
3.50333	714
3.50700	711
3.51067	708
3.51433	707
3.51800	705
3.52167	705
3.52533	704
3.52900	703
3.53267	702
3.53633	702
3.54000	702
3.54367	702
3.54733	702
3.55100	701
3.55467	699
3.55833	701
3.56200	704
3.56567	706
3.56933	708
3.57300	710
3.57667	710
3.58033	710
3.58400	709
3.58767	708
3.59133	706
3.59500	705
3.59867	704
3.60233	702
3.60600	700
3.60967	702
3.61333	705
3.61700	708
3.62067	708
3.62433	706
3.62800	702
3.63167	700
3.63533	700
3.63900	698
3.64267	697
3.64633	696
3.65000	696
3.65367	695
3.65733	692
3.66100	691
3.66467	689
3.66833	688
3.67200	690
3.67567	690
3.67933	689
3.68300	689
3.68667	687
3.69033	685
3.69400	684
3.69767	683
3.70133	682
3.70500	681
3.70867	680
3.71233	679
3.71600	680
3.71967	679
3.72333	679
3.72700	678
3.73067	677
3.73433	675
3.73800	671
3.74167	668
3.74533	666
3.74900	664
3.75267	662
3.75633	663
3.76000	662
3.76367	659
3.76733	659
3.77100	659
3.77467	658
3.77833	655
3.78200	653
3.78567	654
3.78933	653
3.79300	652
3.79667	650
3.80033	646
3.80400	644
3.80767	642
3.81133	639
3.81500	640
3.81867	640
3.82233	639
3.82600	638
3.82967	634
3.83333	631
3.83700	630
3.84067	630
3.84433	628
3.84800	626
3.85167	623
3.85533	622
3.85900	620
3.86267	618
3.86633	617
3.87000	616
3.87367	615
3.87733	612
3.88100	610
3.88467	609
3.88833	607
3.89200	607
3.89567	606
3.89933	603
3.90300	600
3.90667	598
3.91033	596
3.91400	595
3.91767	592
3.92133	589
3.92500	587
3.92867	588
3.93233	589
3.93600	589
3.93967	587
3.94333	583
3.94700	578
3.95067	576
3.95433	574
3.95800	574
3.96167	574
3.96533	574
3.96900	572
3.97267	569
3.97633	569
3.98000	570
3.98367	568
3.98733	567
3.99100	566
3.99467	563
3.99833	560

[Status Trace (Column Oven Temperature)]
Interval(msec)	1000
# of Points	240
Start Time(min)	0.007
End Time(min)	3.991
Intensity Units	
Intensity Multiplier	1
R.Time (min)	Intensity
0.00747	35.01
0.02413	35.01
0.04080	35.02
0.05747	35.03
0.07413	35.04
0.09080	35.04
0.10747	35.04
0.12413	35.03
0.14080	35.04
0.15747	35.05
0.17413	35.05
0.19080	35.03
0.20747	35.02
0.22413	35.01
0.24080	35.00
0.25747	34.99
0.27413	34.99
0.29080	34.99
0.30747	34.99
0.32413	34.99
0.34080	34.98
0.35747	34.98
0.37413	34.97
0.39080	34.99
0.40747	35.00
0.42413	35.00
0.44080	35.00
0.45747	35.00
0.47413	34.98
0.49080	34.98
0.50747	34.99
0.52413	34.99
0.54080	35.01
0.55747	35.02
0.57413	35.02
0.59080	35.02
0.60747	35.00
0.62413	35.00
0.64080	34.98
0.65747	34.97
0.67413	34.96
0.69080	34.96
0.70747	34.98
0.72413	35.00
0.74080	35.02
0.75747	35.03
0.77413	35.03
0.79080	35.03
0.80747	35.02
0.82413	35.01
0.84080	34.99
0.85747	34.98
0.87413	34.97
0.89080	34.98
0.90747	34.98
0.92413	35.00
0.94080	34.99
0.95747	34.99
0.97413	34.99
0.99080	35.00
1.00747	35.01
1.02413	35.01
1.04080	35.01
1.05747	35.00
1.07413	35.00
1.09080	34.99
1.10747	34.98
1.12413	34.97
1.14080	34.96
1.15747	34.96
1.17413	34.96
1.19080	34.96
1.20747	34.97
1.22413	34.97
1.24080	34.98
1.25747	34.98
1.27413	34.99
1.29080	35.00
1.30747	34.99
1.32413	34.98
1.34080	34.98
1.35747	34.99
1.37413	35.00
1.39080	35.02
1.40747	35.03
1.42413	35.03
1.44080	35.03
1.45747	35.02
1.47413	35.02
1.49080	35.02
1.50747	35.00
1.52413	35.00
1.54080	35.01
1.55747	35.00
1.57413	34.99
1.59080	34.99
1.60747	35.03
1.62413	35.15
1.64080	35.34
1.65747	35.60
1.67413	35.95
1.69080	36.33
1.70747	36.68
1.72413	37.02
1.74080	37.33
1.75747	37.64
1.77413	38.00
1.79080	38.32
1.80747	38.65
1.82413	38.99
1.84080	39.32
1.85747	39.66
1.87413	39.99
1.89080	40.31
1.90747	40.64
1.92413	40.97
1.94080	41.29
1.95747	41.63
1.97413	41.96
1.99080	42.28
2.00747	42.62
2.02413	42.94
2.04080	43.27
2.05747	43.61
2.07413	43.93
2.09080	44.27
2.10747	44.59
2.12413	44.92
2.14080	45.25
2.15747	45.57
2.17413	45.89
2.19080	46.22
2.20747	46.55
2.22413	46.86
2.24080	47.20
2.25747	47.52
2.27413	47.85
2.29080	48.20
2.30747	48.50
2.32413	48.85
2.34080	49.17
2.35747	49.41
2.37413	49.59
2.39080	49.63
2.40747	49.62
2.42413	49.65
2.44080	49.66
2.45747	49.67
2.47413	49.67
2.49080	49.69
2.50747	49.70
2.52413	49.72
2.54080	49.74
2.55747	49.75
2.57413	49.76
2.59080	49.78
2.60747	49.79
2.62413	49.82
2.64080	49.83
2.65747	49.83
2.67413	49.85
2.69080	49.86
2.70747	49.85
2.72413	49.84
2.74080	49.86
2.75747	49.86
2.77413	49.87
2.79080	49.84
2.80747	49.86
2.82413	49.90
2.84080	49.92
2.85747	49.92
2.87413	49.91
2.89080	49.91
2.90747	49.90
2.92413	49.91
2.94080	49.93
2.95747	49.94
2.97413	49.96
2.99080	49.97
3.00747	49.98
3.02413	49.98
3.04080	49.99
3.05747	50.01
3.07413	50.02
3.09080	50.01
3.10747	50.01
3.12413	50.02
3.14080	50.02
3.15747	50.04
3.17413	50.06
3.19080	50.07
3.20747	50.08
3.22413	50.08
3.24080	50.09
3.25747	50.11
3.27413	50.10
3.29080	50.09
3.30747	50.09
3.32413	50.09
3.34080	50.08
3.35747	50.06
3.37413	50.05
3.39080	50.04
3.40747	50.04
3.42413	50.03
3.44080	50.03
3.45747	50.04
3.47413	50.03
3.49080	50.03
3.50747	50.03
3.52413	50.03
3.54080	50.03
3.55747	50.03
3.57413	50.04
3.59080	50.04
3.60747	50.04
3.62413	50.05
3.64080	50.06
3.65747	50.07
3.67413	50.09
3.69080	50.09
3.70747	50.09
3.72413	50.09
3.74080	50.09
3.75747	50.10
3.77413	50.09
3.79080	50.09
3.80747	50.10
3.82413	50.10
3.84080	50.09
3.85747	50.10
3.87413	50.09
3.89080	50.07
3.90747	50.06
3.92413	50.04
3.94080	50.04
3.95747	50.04
3.97413	50.05
3.99080	50.05

[Status Trace (Injection Unit Temperature)]
Interval(msec)	1000
# of Points	240
Start Time(min)	0.007
End Time(min)	3.991
Intensity Units	
Intensity Multiplier	1
R.Time (min)	Intensity
0.00747	99.98
0.02413	99.98
0.04080	99.98
0.05747	99.98
0.07413	99.98
0.09080	99.98
0.10747	99.98
0.12413	99.98
0.14080	99.98
0.15747	99.98
0.17413	99.98
0.19080	99.98
0.20747	99.99
0.22413	99.99
0.24080	99.99
0.25747	99.98
0.27413	99.98
0.29080	99.98
0.30747	99.98
0.32413	99.99
0.34080	99.98
0.35747	99.98
0.37413	99.98
0.39080	99.98
0.40747	99.99
0.42413	99.99
0.44080	99.99
0.45747	99.99
0.47413	99.98
0.49080	99.99
0.50747	99.99
0.52413	99.99
0.54080	99.98
0.55747	99.98
0.57413	99.98
0.59080	99.98
0.60747	99.98
0.62413	99.98
0.64080	99.98
0.65747	99.98
0.67413	99.98
0.69080	99.98
0.70747	99.98
0.72413	99.98
0.74080	99.98
0.75747	99.98
0.77413	99.98
0.79080	99.98
0.80747	99.98
0.82413	99.98
0.84080	99.98
0.85747	99.98
0.87413	99.98
0.89080	99.98
0.90747	99.98
0.92413	99.98
0.94080	99.98
0.95747	99.98
0.97413	99.98
0.99080	99.99
1.00747	99.98
1.02413	99.98
1.04080	99.98
1.05747	99.97
1.07413	99.98
1.09080	99.98
1.10747	99.98
1.12413	99.98
1.14080	99.98
1.15747	99.98
1.17413	99.98
1.19080	99.98
1.20747	99.98
1.22413	99.98
1.24080	99.98
1.25747	99.98
1.27413	99.98
1.29080	99.98
1.30747	99.98
1.32413	99.98
1.34080	99.98
1.35747	99.98
1.37413	99.98
1.39080	99.98
1.40747	99.99
1.42413	99.99
1.44080	99.98
1.45747	99.99
1.47413	99.98
1.49080	99.99
1.50747	99.98
1.52413	99.98
1.54080	99.99
1.55747	99.99
1.57413	99.99
1.59080	99.98
1.60747	99.98
1.62413	99.99
1.64080	99.98
1.65747	99.98
1.67413	99.99
1.69080	99.98
1.70747	99.98
1.72413	99.98
1.74080	99.99
1.75747	99.98
1.77413	99.98
1.79080	99.98
1.80747	99.98
1.82413	99.98
1.84080	99.98
1.85747	99.97
1.87413	99.98
1.89080	99.98
1.90747	99.97
1.92413	99.97
1.94080	99.97
1.95747	99.97
1.97413	99.97
1.99080	99.97
2.00747	99.97
2.02413	99.97
2.04080	99.97
2.05747	99.97
2.07413	99.97
2.09080	99.97
2.10747	99.96
2.12413	99.97
2.14080	99.96
2.15747	99.96
2.17413	99.97
2.19080	99.97
2.20747	99.97
2.22413	99.96
2.24080	99.97
2.25747	99.97
2.27413	99.97
2.29080	99.97
2.30747	99.97
2.32413	99.97
2.34080	99.97
2.35747	99.97
2.37413	99.97
2.39080	99.97
2.40747	99.97
2.42413	99.97
2.44080	99.97
2.45747	99.98
2.47413	99.98
2.49080	99.98
2.50747	99.97
2.52413	99.98
2.54080	99.97
2.55747	99.98
2.57413	99.98
2.59080	99.98
2.60747	99.98
2.62413	99.98
2.64080	99.99
2.65747	99.99
2.67413	99.98
2.69080	99.99
2.70747	99.99
2.72413	99.99
2.74080	99.99
2.75747	99.99
2.77413	100.00
2.79080	99.99
2.80747	100.00
2.82413	100.00
2.84080	100.00
2.85747	100.00
2.87413	100.00
2.89080	100.00
2.90747	100.00
2.92413	100.01
2.94080	100.00
2.95747	100.01
2.97413	100.00
2.99080	100.01
3.00747	100.01
3.02413	100.01
3.04080	100.01
3.05747	100.02
3.07413	100.01
3.09080	100.01
3.10747	100.01
3.12413	100.02
3.14080	100.02
3.15747	100.02
3.17413	100.01
3.19080	100.02
3.20747	100.02
3.22413	100.01
3.24080	100.01
3.25747	100.02
3.27413	100.01
3.29080	100.02
3.30747	100.02
3.32413	100.02
3.34080	100.02
3.35747	100.02
3.37413	100.02
3.39080	100.02
3.40747	100.02
3.42413	100.02
3.44080	100.02
3.45747	100.02
3.47413	100.02
3.49080	100.02
3.50747	100.02
3.52413	100.03
3.54080	100.03
3.55747	100.02
3.57413	100.03
3.59080	100.03
3.60747	100.03
3.62413	100.03
3.64080	100.03
3.65747	100.03
3.67413	100.03
3.69080	100.03
3.70747	100.03
3.72413	100.03
3.74080	100.03
3.75747	100.03
3.77413	100.03
3.79080	100.03
3.80747	100.03
3.82413	100.04
3.84080	100.03
3.85747	100.03
3.87413	100.03
3.89080	100.03
3.90747	100.04
3.92413	100.03
3.94080	100.04
3.95747	100.03
3.97413	100.03
3.99080	100.03

[Status Trace (Carrier Gas Pressure)]
Interval(msec)	1000
# of Points	240
Start Time(min)	0.007
End Time(min)	3.991
Intensity Units	
Intensity Multiplier	1
R.Time (min)	Intensity
0.00747	58.00
0.02413	55.40
0.04080	57.01
0.05747	59.20
0.07413	59.44
0.09080	58.09
0.10747	57.98
0.12413	58.01
0.14080	58.01
0.15747	58.00
0.17413	58.00
0.19080	58.00
0.20747	58.00
0.22413	58.00
0.24080	58.00
0.25747	58.00
0.27413	58.00
0.29080	58.00
0.30747	58.00
0.32413	58.00
0.34080	58.00
0.35747	58.00
0.37413	58.00
0.39080	58.00
0.40747	58.00
0.42413	58.00
0.44080	58.00
0.45747	58.00
0.47413	58.00
0.49080	58.00
0.50747	58.00
0.52413	58.00
0.54080	58.00
0.55747	58.00
0.57413	58.00
0.59080	58.00
0.60747	58.00
0.62413	58.00
0.64080	58.00
0.65747	58.00
0.67413	58.00
0.69080	58.00
0.70747	58.00
0.72413	58.00
0.74080	58.00
0.75747	58.00
0.77413	58.00
0.79080	58.00
0.80747	58.00
0.82413	58.00
0.84080	58.00
0.85747	58.00
0.87413	58.00
0.89080	58.00
0.90747	58.00
0.92413	58.00
0.94080	58.00
0.95747	58.00
0.97413	58.00
0.99080	58.00
1.00747	58.00
1.02413	58.00
1.04080	58.00
1.05747	58.00
1.07413	58.00
1.09080	58.00
1.10747	58.00
1.12413	58.00
1.14080	58.00
1.15747	58.00
1.17413	58.00
1.19080	58.00
1.20747	58.00
1.22413	58.00
1.24080	58.00
1.25747	58.00
1.27413	58.00
1.29080	58.00
1.30747	58.00
1.32413	58.00
1.34080	58.00
1.35747	58.00
1.37413	58.00
1.39080	58.00
1.40747	58.00
1.42413	58.00
1.44080	58.00
1.45747	58.00
1.47413	58.00
1.49080	58.00
1.50747	58.00
1.52413	58.00
1.54080	58.00
1.55747	58.00
1.57413	58.00
1.59080	58.00
1.60747	58.00
1.62413	58.00
1.64080	58.00
1.65747	58.00
1.67413	58.01
1.69080	58.00
1.70747	58.00
1.72413	58.00
1.74080	58.00
1.75747	58.00
1.77413	58.00
1.79080	58.00
1.80747	58.00
1.82413	58.00
1.84080	58.00
1.85747	58.00
1.87413	58.00
1.89080	58.00
1.90747	58.00
1.92413	58.00
1.94080	58.00
1.95747	58.00
1.97413	58.00
1.99080	58.00
2.00747	58.00
2.02413	58.00
2.04080	58.00
2.05747	58.00
2.07413	58.00
2.09080	58.00
2.10747	58.00
2.12413	58.00
2.14080	58.00
2.15747	58.00
2.17413	58.00
2.19080	58.00
2.20747	58.00
2.22413	58.00
2.24080	58.00
2.25747	58.00
2.27413	58.00
2.29080	58.00
2.30747	58.00
2.32413	58.00
2.34080	58.00
2.35747	58.00
2.37413	58.00
2.39080	57.99
2.40747	57.99
2.42413	58.00
2.44080	58.00
2.45747	58.00
2.47413	58.00
2.49080	58.00
2.50747	58.00
2.52413	57.99
2.54080	58.00
2.55747	58.00
2.57413	58.00
2.59080	58.00
2.60747	58.00
2.62413	58.00
2.64080	58.00
2.65747	58.00
2.67413	58.00
2.69080	58.00
2.70747	58.00
2.72413	58.00
2.74080	58.00
2.75747	58.00
2.77413	58.00
2.79080	58.00
2.80747	58.00
2.82413	58.00
2.84080	58.00
2.85747	58.00
2.87413	58.00
2.89080	58.00
2.90747	58.00
2.92413	58.00
2.94080	58.00
2.95747	58.00
2.97413	58.00
2.99080	58.00
3.00747	58.00
3.02413	58.00
3.04080	58.00
3.05747	58.00
3.07413	58.00
3.09080	58.00
3.10747	58.00
3.12413	58.00
3.14080	58.00
3.15747	58.00
3.17413	58.00
3.19080	58.00
3.20747	58.00
3.22413	58.00
3.24080	58.00
3.25747	58.00
3.27413	58.00
3.29080	58.00
3.30747	58.00
3.32413	58.00
3.34080	58.00
3.35747	58.00
3.37413	58.00
3.39080	58.00
3.40747	58.00
3.42413	58.00
3.44080	58.00
3.45747	58.00
3.47413	58.00
3.49080	58.00
3.50747	58.00
3.52413	58.00
3.54080	58.00
3.55747	58.00
3.57413	58.00
3.59080	58.00
3.60747	58.00
3.62413	58.00
3.64080	58.00
3.65747	58.00
3.67413	58.00
3.69080	58.00
3.70747	58.00
3.72413	58.00
3.74080	58.00
3.75747	58.00
3.77413	58.00
3.79080	58.00
3.80747	58.00
3.82413	58.00
3.84080	58.00
3.85747	58.00
3.87413	58.00
3.89080	58.00
3.90747	58.00
3.92413	58.00
3.94080	58.00
3.95747	58.00
3.97413	58.00
3.99080	58.00

[Status Trace (Carrier Gas Flow)]
Interval(msec)	1000
# of Points	240
Start Time(min)	0.007
End Time(min)	3.991
Intensity Units	
Intensity Multiplier	1
R.Time (min)	Intensity
0.00747	34.52
0.02413	34.53
0.04080	34.55
0.05747	34.55
0.07413	34.49
0.09080	34.52
0.10747	34.52
0.12413	34.52
0.14080	34.52
0.15747	34.52
0.17413	34.52
0.19080	34.52
0.20747	34.52
0.22413	34.52
0.24080	34.52
0.25747	34.52
0.27413	34.52
0.29080	34.52
0.30747	34.52
0.32413	34.52
0.34080	34.52
0.35747	34.52
0.37413	34.52
0.39080	34.52
0.40747	34.52
0.42413	34.52
0.44080	34.52
0.45747	34.52
0.47413	34.52
0.49080	34.52
0.50747	34.52
0.52413	34.52
0.54080	34.52
0.55747	34.53
0.57413	34.52
0.59080	34.51
0.60747	34.51
0.62413	34.52
0.64080	34.52
0.65747	34.52
0.67413	34.52
0.69080	34.52
0.70747	34.52
0.72413	34.52
0.74080	34.52
0.75747	34.52
0.77413	34.52
0.79080	34.52
0.80747	34.52
0.82413	34.52
0.84080	34.52
0.85747	34.52
0.87413	34.52
0.89080	34.52
0.90747	34.52
0.92413	34.52
0.94080	34.52
0.95747	34.52
0.97413	34.52
0.99080	34.52
1.00747	34.52
1.02413	34.52
1.04080	34.51
1.05747	34.52
1.07413	34.52
1.09080	34.52
1.10747	34.52
1.12413	34.52
1.14080	34.52
1.15747	34.52
1.17413	34.52
1.19080	34.51
1.20747	34.52
1.22413	34.52
1.24080	34.52
1.25747	34.51
1.27413	34.52
1.29080	34.52
1.30747	34.52
1.32413	34.52
1.34080	34.52
1.35747	34.52
1.37413	34.52
1.39080	34.52
1.40747	34.52
1.42413	34.52
1.44080	34.52
1.45747	34.52
1.47413	34.52
1.49080	34.52
1.50747	34.52
1.52413	34.52
1.54080	34.52
1.55747	34.52
1.57413	34.52
1.59080	34.52
1.60747	34.52
1.62413	34.51
1.64080	34.52
1.65747	34.52
1.67413	34.51
1.69080	34.52
1.70747	34.52
1.72413	34.52
1.74080	34.52
1.75747	34.52
1.77413	34.52
1.79080	34.52
1.80747	34.52
1.82413	34.52
1.84080	34.52
1.85747	34.52
1.87413	34.52
1.89080	34.51
1.90747	34.52
1.92413	34.52
1.94080	34.51
1.95747	34.52
1.97413	34.52
1.99080	34.51
2.00747	34.52
2.02413	34.52
2.04080	34.52
2.05747	34.52
2.07413	34.52
2.09080	34.52
2.10747	34.52
2.12413	34.52
2.14080	34.52
2.15747	34.52
2.17413	34.52
2.19080	34.52
2.20747	34.52
2.22413	34.52
2.24080	34.52
2.25747	34.52
2.27413	34.51
2.29080	34.52
2.30747	34.52
2.32413	34.52
2.34080	34.52
2.35747	34.52
2.37413	34.52
2.39080	34.51
2.40747	34.52
2.42413	34.52
2.44080	34.52
2.45747	34.52
2.47413	34.52
2.49080	34.52
2.50747	34.36
2.52413	34.51
2.54080	34.52
2.55747	34.52
2.57413	34.52
2.59080	34.52
2.60747	34.52
2.62413	34.52
2.64080	34.52
2.65747	34.52
2.67413	34.52
2.69080	34.52
2.70747	34.52
2.72413	34.52
2.74080	34.51
2.75747	34.52
2.77413	34.52
2.79080	34.52
2.80747	34.52
2.82413	34.52
2.84080	34.52
2.85747	34.51
2.87413	34.51
2.89080	34.52
2.90747	34.52
2.92413	34.52
2.94080	34.52
2.95747	34.52
2.97413	34.52
2.99080	34.51
3.00747	34.52
3.02413	34.52
3.04080	34.51
3.05747	34.52
3.07413	34.51
3.09080	34.53
3.10747	34.52
3.12413	34.52
3.14080	34.52
3.15747	34.52
3.17413	34.52
3.19080	34.52
3.20747	34.52
3.22413	34.53
3.24080	34.52
3.25747	34.52
3.27413	34.52
3.29080	34.52
3.30747	34.52
3.32413	34.52
3.34080	34.52
3.35747	34.52
3.37413	34.51
3.39080	34.52
3.40747	34.52
3.42413	34.51
3.44080	34.53
3.45747	34.52
3.47413	34.52
3.49080	34.52
3.50747	34.52
3.52413	34.52
3.54080	34.52
3.55747	34.52
3.57413	34.52
3.59080	34.51
3.60747	34.51
3.62413	34.52
3.64080	34.52
3.65747	34.52
3.67413	34.52
3.69080	34.52
3.70747	34.52
3.72413	34.52
3.74080	34.52
3.75747	34.51
3.77413	34.52
3.79080	34.52
3.80747	34.52
3.82413	34.52
3.84080	34.51
3.85747	34.52
3.87413	34.52
3.89080	34.52
3.90747	34.52
3.92413	34.53
3.94080	34.52
3.95747	34.52
3.97413	34.52
3.99080	34.51

[Status Trace (Column Flow)]
Interval(msec)	1000
# of Points	240
Start Time(min)	0.007
End Time(min)	3.991
Intensity Units	
Intensity Multiplier	1
R.Time (min)	Intensity
0.00747	5.55
0.02413	5.25
0.04080	5.44
0.05747	5.69
0.07413	5.72
0.09080	5.56
0.10747	5.55
0.12413	5.55
0.14080	5.55
0.15747	5.55
0.17413	5.55
0.19080	5.55
0.20747	5.55
0.22413	5.55
0.24080	5.55
0.25747	5.55
0.27413	5.55
0.29080	5.55
0.30747	5.55
0.32413	5.55
0.34080	5.55
0.35747	5.55
0.37413	5.55
0.39080	5.55
0.40747	5.55
0.42413	5.55
0.44080	5.55
0.45747	5.55
0.47413	5.55
0.49080	5.55
0.50747	5.55
0.52413	5.55
0.54080	5.55
0.55747	5.55
0.57413	5.55
0.59080	5.55
0.60747	5.55
0.62413	5.55
0.64080	5.55
0.65747	5.55
0.67413	5.55
0.69080	5.55
0.70747	5.55
0.72413	5.55
0.74080	5.55
0.75747	5.55
0.77413	5.55
0.79080	5.55
0.80747	5.55
0.82413	5.55
0.84080	5.55
0.85747	5.55
0.87413	5.55
0.89080	5.55
0.90747	5.55
0.92413	5.55
0.94080	5.55
0.95747	5.55
0.97413	5.55
0.99080	5.55
1.00747	5.55
1.02413	5.55
1.04080	5.55
1.05747	5.55
1.07413	5.55
1.09080	5.55
1.10747	5.55
1.12413	5.55
1.14080	5.55
1.15747	5.55
1.17413	5.55
1.19080	5.55
1.20747	5.55
1.22413	5.55
1.24080	5.55
1.25747	5.55
1.27413	5.55
1.29080	5.55
1.30747	5.55
1.32413	5.55
1.34080	5.55
1.35747	5.55
1.37413	5.55
1.39080	5.55
1.40747	5.55
1.42413	5.55
1.44080	5.55
1.45747	5.55
1.47413	5.55
1.49080	5.55
1.50747	5.55
1.52413	5.55
1.54080	5.55
1.55747	5.55
1.57413	5.55
1.59080	5.55
1.60747	5.55
1.62413	5.55
1.64080	5.54
1.65747	5.53
1.67413	5.52
1.69080	5.51
1.70747	5.50
1.72413	5.49
1.74080	5.48
1.75747	5.47
1.77413	5.46
1.79080	5.45
1.80747	5.44
1.82413	5.43
1.84080	5.42
1.85747	5.41
1.87413	5.40
1.89080	5.39
1.90747	5.38
1.92413	5.37
1.94080	5.36
1.95747	5.35
1.97413	5.34
1.99080	5.33
2.00747	5.32
2.02413	5.31
2.04080	5.30
2.05747	5.29
2.07413	5.28
2.09080	5.27
2.10747	5.26
2.12413	5.25
2.14080	5.24
2.15747	5.23
2.17413	5.22
2.19080	5.21
2.20747	5.20
2.22413	5.19
2.24080	5.18
2.25747	5.18
2.27413	5.17
2.29080	5.16
2.30747	5.15
2.32413	5.14
2.34080	5.13
2.35747	5.12
2.37413	5.12
2.39080	5.11
2.40747	5.12
2.42413	5.12
2.44080	5.11
2.45747	5.11
2.47413	5.11
2.49080	5.11
2.50747	5.11
2.52413	5.11
2.54080	5.11
2.55747	5.11
2.57413	5.11
2.59080	5.11
2.60747	5.11
2.62413	5.11
2.64080	5.11
2.65747	5.11
2.67413	5.11
2.69080	5.11
2.70747	5.11
2.72413	5.11
2.74080	5.11
2.75747	5.11
2.77413	5.11
2.79080	5.11
2.80747	5.11
2.82413	5.11
2.84080	5.11
2.85747	5.11
2.87413	5.11
2.89080	5.11
2.90747	5.11
2.92413	5.11
2.94080	5.11
2.95747	5.11
2.97413	5.11
2.99080	5.11
3.00747	5.11
3.02413	5.11
3.04080	5.11
3.05747	5.11
3.07413	5.11
3.09080	5.11
3.10747	5.11
3.12413	5.11
3.14080	5.11
3.15747	5.10
3.17413	5.10
3.19080	5.10
3.20747	5.10
3.22413	5.10
3.24080	5.10
3.25747	5.10
3.27413	5.10
3.29080	5.10
3.30747	5.10
3.32413	5.10
3.34080	5.10
3.35747	5.10
3.37413	5.10
3.39080	5.10
3.40747	5.10
3.42413	5.10
3.44080	5.11
3.45747	5.10
3.47413	5.10
3.49080	5.11
3.50747	5.11
3.52413	5.11
3.54080	5.11
3.55747	5.11
3.57413	5.11
3.59080	5.11
3.60747	5.11
3.62413	5.10
3.64080	5.10
3.65747	5.10
3.67413	5.10
3.69080	5.10
3.70747	5.10
3.72413	5.10
3.74080	5.10
3.75747	5.10
3.77413	5.10
3.79080	5.10
3.80747	5.10
3.82413	5.10
3.84080	5.10
3.85747	5.10
3.87413	5.10
3.89080	5.10
3.90747	5.10
3.92413	5.10
3.94080	5.10
3.95747	5.10
3.97413	5.10
3.99080	5.10

[Status Trace (Linear Velocity)]
Interval(msec)	1000
# of Points	240
Start Time(min)	0.007
End Time(min)	3.991
Intensity Units	
Intensity Multiplier	1
R.Time (min)	Intensity
0.00747	39.02
0.02413	37.31
0.04080	38.37
0.05747	39.81
0.07413	39.96
0.09080	39.08
0.10747	39.01
0.12413	39.03
0.14080	39.03
0.15747	39.02
0.17413	39.02
0.19080	39.02
0.20747	39.02
0.22413	39.02
0.24080	39.02
0.25747	39.02
0.27413	39.03
0.29080	39.03
0.30747	39.03
0.32413	39.03
0.34080	39.03
0.35747	39.03
0.37413	39.03
0.39080	39.03
0.40747	39.02
0.42413	39.02
0.44080	39.02
0.45747	39.02
0.47413	39.03
0.49080	39.03
0.50747	39.02
0.52413	39.02
0.54080	39.02
0.55747	39.02
0.57413	39.02
0.59080	39.02
0.60747	39.02
0.62413	39.02
0.64080	39.03
0.65747	39.03
0.67413	39.03
0.69080	39.03
0.70747	39.03
0.72413	39.02
0.74080	39.02
0.75747	39.02
0.77413	39.02
0.79080	39.02
0.80747	39.02
0.82413	39.02
0.84080	39.02
0.85747	39.02
0.87413	39.03
0.89080	39.03
0.90747	39.02
0.92413	39.02
0.94080	39.02
0.95747	39.02
0.97413	39.02
0.99080	39.02
1.00747	39.02
1.02413	39.02
1.04080	39.02
1.05747	39.02
1.07413	39.02
1.09080	39.02
1.10747	39.03
1.12413	39.03
1.14080	39.03
1.15747	39.03
1.17413	39.03
1.19080	39.03
1.20747	39.03
1.22413	39.03
1.24080	39.03
1.25747	39.03
1.27413	39.02
1.29080	39.02
1.30747	39.02
1.32413	39.02
1.34080	39.03
1.35747	39.02
1.37413	39.02
1.39080	39.02
1.40747	39.02
1.42413	39.02
1.44080	39.02
1.45747	39.02
1.47413	39.02
1.49080	39.02
1.50747	39.02
1.52413	39.02
1.54080	39.02
1.55747	39.02
1.57413	39.02
1.59080	39.02
1.60747	39.02
1.62413	39.01
1.64080	38.99
1.65747	38.97
1.67413	38.94
1.69080	38.90
1.70747	38.86
1.72413	38.83
1.74080	38.80
1.75747	38.77
1.77413	38.74
1.79080	38.71
1.80747	38.67
1.82413	38.64
1.84080	38.61
1.85747	38.58
1.87413	38.55
1.89080	38.52
1.90747	38.49
1.92413	38.46
1.94080	38.43
1.95747	38.40
1.97413	38.37
1.99080	38.34
2.00747	38.31
2.02413	38.28
2.04080	38.24
2.05747	38.22
2.07413	38.18
2.09080	38.15
2.10747	38.12
2.12413	38.09
2.14080	38.06
2.15747	38.03
2.17413	38.01
2.19080	37.98
2.20747	37.95
2.22413	37.92
2.24080	37.89
2.25747	37.86
2.27413	37.83
2.29080	37.80
2.30747	37.77
2.32413	37.74
2.34080	37.71
2.35747	37.69
2.37413	37.67
2.39080	37.67
2.40747	37.67
2.42413	37.67
2.44080	37.67
2.45747	37.67
2.47413	37.67
2.49080	37.67
2.50747	37.66
2.52413	37.66
2.54080	37.66
2.55747	37.66
2.57413	37.66
2.59080	37.66
2.60747	37.66
2.62413	37.66
2.64080	37.65
2.65747	37.65
2.67413	37.65
2.69080	37.65
2.70747	37.65
2.72413	37.65
2.74080	37.65
2.75747	37.65
2.77413	37.65
2.79080	37.65
2.80747	37.65
2.82413	37.65
2.84080	37.65
2.85747	37.65
2.87413	37.65
2.89080	37.65
2.90747	37.65
2.92413	37.65
2.94080	37.65
2.95747	37.64
2.97413	37.64
2.99080	37.64
3.00747	37.64
3.02413	37.64
3.04080	37.64
3.05747	37.64
3.07413	37.64
3.09080	37.64
3.10747	37.64
3.12413	37.64
3.14080	37.64
3.15747	37.64
3.17413	37.63
3.19080	37.63
3.20747	37.63
3.22413	37.63
3.24080	37.63
3.25747	37.63
3.27413	37.63
3.29080	37.63
3.30747	37.63
3.32413	37.63
3.34080	37.63
3.35747	37.63
3.37413	37.63
3.39080	37.64
3.40747	37.64
3.42413	37.64
3.44080	37.64
3.45747	37.64
3.47413	37.64
3.49080	37.64
3.50747	37.64
3.52413	37.64
3.54080	37.64
3.55747	37.64
3.57413	37.64
3.59080	37.64
3.60747	37.64
3.62413	37.64
3.64080	37.63
3.65747	37.63
3.67413	37.63
3.69080	37.63
3.70747	37.63
3.72413	37.63
3.74080	37.63
3.75747	37.63
3.77413	37.63
3.79080	37.63
3.80747	37.63
3.82413	37.63
3.84080	37.63
3.85747	37.63
3.87413	37.63
3.89080	37.63
3.90747	37.63
3.92413	37.64
3.94080	37.64
3.95747	37.64
3.97413	37.64
3.99080	37.63

