[Header]
Application Name	LabSolutions
Version	5.110
Data File Name	C:\Users\User\Desktop\GC Analyses\Jack\Nachusa Grasslands Sampling\T4 Timepoint July 12th\T4_07122022_068.gcd
Output Date	3/17/2023
Output Time	12:04:55 PM

[File Information]
Type	Data File
Generated	3/14/2023 11:00:14 PM
Generated by	System Administrator
Modified	3/14/2023 11:07:00 PM
Modified by	System Administrator

[Sample Information]
Operator Name	System Administrator
Acquired	3/14/2023 11:02:58 PM
Sample Type	0:Unknown
Level	0
Sample Name	068
Sample ID	068
ISTD Amount1	1
ISTD Amount2	1
ISTD Amount3	1
ISTD Amount4	1
ISTD Amount5	1
ISTD Amount6	1
ISTD Amount7	1
ISTD Amount8	1
ISTD Amount9	1
ISTD Amount10	1
ISTD Amount11	1
ISTD Amount12	1
ISTD Amount13	1
ISTD Amount14	1
ISTD Amount15	1
ISTD Amount16	1
ISTD Amount17	1
ISTD Amount18	1
ISTD Amount19	1
ISTD Amount20	1
ISTD Amount21	1
ISTD Amount22	1
ISTD Amount23	1
ISTD Amount24	1
ISTD Amount25	1
ISTD Amount26	1
ISTD Amount27	1
ISTD Amount28	1
ISTD Amount29	1
ISTD Amount30	1
ISTD Amount31	1
ISTD Amount32	1
Sample Amount	1
Dilution Factor	1
Vial#	67
Injection Volume	1
Injection Count	1
Bar Code	

[Original Files]
Data File	C:\Users\User\Desktop\GC Analyses\Jack\Nachusa Grasslands Sampling\T4 Timepoint July 12th\T4_07122022_068.gcd
Method File	C:\LabSolutions\Data\GHG_4min_2022\ghg3_togas_w_acet_4 min_new_int.gcm
Batch File	C:\LabSolutions\Data\AutoSamplerTesting\T4_07122022.gcb
Report Format File	c:\LabSolutions\System\DEFAULT.lsr

[File Description]


[Configuration]
Instrument Name	C0B7VH3-Instrument1
Instrument #	1
Line #	1
# of Detectors	3
Detector ID	DET#1	DET#2	DET#3
Detector Name	FID	PTCD	ECD
# of Channels	1	1	1

[Peak Table(Ch1)]
# of Peaks	3
Peak#	R.Time	I.Time	F.Time	Area	Height	A/H	Conc.	Mark	ID#	Name	k'	Plate #	Plate Ht.	Tailing	Resolution	Sep.Factor	Area Ratio	Height Ratio	Conc. %	Norm Conc.
1	1.476	1.432	1.538	27456	13525	2.030	193.839	   	1	CO	0.000	9678	15.499	1.292	0.000	0.000	0	0	11.582	11.582
2	1.571	1.538	1.626	3909	1967	1.988	75.581	 V 	2	CH4	0.065	11460	13.089	1.169	1.606	0.000	0	0	4.516	4.516
3	1.996	1.941	2.601	5595090	2670360	2.095	1404.216	   	3	CO2	0.353	16841	8.907	1.290	7.075	5.462	0	0	83.902	83.902

[Peak Table(Ch2)]
# of Peaks	0

[Peak Table(Ch3)]
# of Peaks	5
Peak#	R.Time	I.Time	F.Time	Area	Height	A/H	Conc.	Mark	ID#	Name	k'	Plate #	Plate Ht.	Tailing	Resolution	Sep.Factor	Area Ratio	Height Ratio	Conc. %	Norm Conc.
1	2.462	2.330	2.510	2453	773	3.172	0.000	   			0.000	10164	14.758	0.000	0.000	0.000	0	0	0.000	0.000
2	2.532	2.510	2.576	1166	405	2.881	0.000	 V 			0.028	6233	24.065	0.000	0.617	0.000	0	0	0.000	0.000
3	2.598	2.576	2.675	686	192	3.571	0.000	 V 			0.055	1887	79.504	0.000	0.359	1.947	0	0	0.000	0.000
4	2.880	2.697	3.074	20300	4936	4.112	0.518	   	1	N2O	0.170	12727	11.786	1.544	1.654	3.081	0	0	100.000	100.000
5	3.294	3.078	3.995	21410	665	32.194	0.000	   	2	SF6	0.338	193	778.117	2.068	0.788	1.991	0	0	0.000	0.000

[Compound Results(Ch1)]
# of IDs	6
ID#	Name	R.Time	Area	Height	Conc.	Curve	3rd	2nd	1st	Constant	Area Ratio	Height Ratio	Conc. %	Norm Conc.
1	CO	1.476	27456	13525	193.839	Linear	0.000000e+00	0.000000e+00	1.416423e+002	0.000000e+00	0	0	11.582	11.582
2	CH4	1.571	3909	1967	75.581	Linear	0.000000e+00	0.000000e+00	5.171738e+001	0.000000e+00	0	0	4.516	4.516
3	CO2	1.996	5595090	2670360	1404.216	Linear	0.000000e+00	0.000000e+00	3.984494e+003	0.000000e+00	0	0	83.902	83.902
4	Ethylene	0.000	0	0	0.000	Linear	0.000000e+00	0.000000e+00	0.000000e+00	0.000000e+00	0	0	0.000	0.000
5	Acetylene	0.000	0	0	0.000	Linear	0.000000e+00	0.000000e+00	0.000000e+00	0.000000e+00	0	0	0.000	0.000
6	Ethane	0.000	0	0	0.000	Linear	0.000000e+00	0.000000e+00	0.000000e+00	0.000000e+00	0	0	0.000	0.000

[Compound Results(Ch2)]
# of IDs	5
ID#	Name	R.Time	Area	Height	Conc.	Curve	3rd	2nd	1st	Constant	Area Ratio	Height Ratio	Conc. %	Norm Conc.
1	Hydrogen	0.000	0	0	0.000	Linear	0.000000e+00	0.000000e+00	0.000000e+00	0.000000e+00	0	0	0.000	0.000
2	Oxygen	0.000	0	0	0.000	Linear	0.000000e+00	0.000000e+00	0.000000e+00	0.000000e+00	0	0	0.000	0.000
3	Nitrogen	0.000	0	0	0.000	Linear	0.000000e+00	0.000000e+00	0.000000e+00	0.000000e+00	0	0	0.000	0.000
4	Methane	0.000	0	0	0.000	Linear	0.000000e+00	0.000000e+00	0.000000e+00	0.000000e+00	0	0	0.000	0.000
5	Carbon Monoxide	0.000	0	0	0.000	Linear	0.000000e+00	0.000000e+00	0.000000e+00	0.000000e+00	0	0	0.000	0.000

[Compound Results(Ch3)]
# of IDs	2
ID#	Name	R.Time	Area	Height	Conc.	Curve	3rd	2nd	1st	Constant	Area Ratio	Height Ratio	Conc. %	Norm Conc.
1	N2O	2.880	20300	4936	0.518	Linear	0.000000e+00	0.000000e+00	3.915173e+004	0.000000e+00	0	0	100.000	100.000
2	SF6	3.294	21410	665	0.000	Linear	0.000000e+00	0.000000e+00	0.000000e+00	0.000000e+00	0	0	0.000	0.000

[Group Results(Ch1)]
# of Groups	0

[Group Results(Ch2)]
# of Groups	0

[Group Results(Ch3)]
# of Groups	0

[Chromatogram (Ch1)]
Interval(msec)	220
# of Points	1091
Start Time(min)	0.002
End Time(min)	3.998
R.Time (min)	Intensity
0.00167	11
0.00533	-0
0.00900	-9
0.01267	-16
0.01633	-22
0.02000	-24
0.02367	-22
0.02733	-18
0.03100	-14
0.03467	-9
0.03833	-5
0.04200	-7
0.04567	-13
0.04933	-17
0.05300	-20
0.05667	-23
0.06033	-28
0.06400	-32
0.06767	-30
0.07133	-23
0.07500	-16
0.07867	-9
0.08233	-2
0.08600	9
0.08967	18
0.09333	23
0.09700	20
0.10067	13
0.10433	9
0.10800	9
0.11167	10
0.11533	13
0.11900	10
0.12267	1
0.12633	-3
0.13000	-1
0.13367	4
0.13733	8
0.14100	8
0.14467	8
0.14833	10
0.15200	10
0.15567	10
0.15933	9
0.16300	9
0.16667	14
0.17033	18
0.17400	21
0.17767	25
0.18133	31
0.18500	36
0.18867	41
0.19233	44
0.19600	47
0.19967	46
0.20333	39
0.20700	33
0.21067	29
0.21433	28
0.21800	29
0.22167	31
0.22533	32
0.22900	40
0.23267	53
0.23633	59
0.24000	60
0.24367	54
0.24733	47
0.25100	40
0.25467	32
0.25833	24
0.26200	11
0.26567	1
0.26933	-4
0.27300	-6
0.27667	-8
0.28033	-7
0.28400	-12
0.28767	-18
0.29133	-22
0.29500	-19
0.29867	-11
0.30233	-5
0.30600	-3
0.30967	-5
0.31333	-7
0.31700	-7
0.32067	-7
0.32433	-4
0.32800	-2
0.33167	-2
0.33533	-9
0.33900	-16
0.34267	-18
0.34633	-15
0.35000	-12
0.35367	-7
0.35733	2
0.36100	7
0.36467	6
0.36833	3
0.37200	-6
0.37567	-16
0.37933	-19
0.38300	-19
0.38667	-20
0.39033	-22
0.39400	-24
0.39767	-26
0.40133	-27
0.40500	-26
0.40867	-25
0.41233	-20
0.41600	-16
0.41967	-10
0.42333	0
0.42700	5
0.43067	1
0.43433	-3
0.43800	-11
0.44167	-22
0.44533	-29
0.44900	-30
0.45267	-25
0.45633	-21
0.46000	-17
0.46367	-14
0.46733	-11
0.47100	-12
0.47467	-11
0.47833	-10
0.48200	-8
0.48567	-7
0.48933	-5
0.49300	-3
0.49667	-3
0.50033	-4
0.50400	-8
0.50767	-11
0.51133	-13
0.51500	-13
0.51867	-9
0.52233	-8
0.52600	-11
0.52967	-14
0.53333	-19
0.53700	-21
0.54067	-22
0.54433	-24
0.54800	-23
0.55167	-23
0.55533	-22
0.55900	-20
0.56267	-19
0.56633	-15
0.57000	-12
0.57367	-11
0.57733	-10
0.58100	-13
0.58467	-16
0.58833	-17
0.59200	-20
0.59567	-24
0.59933	-22
0.60300	-20
0.60667	-19
0.61033	-13
0.61400	-7
0.61767	-1
0.62133	4
0.62500	8
0.62867	14
0.63233	17
0.63600	16
0.63967	12
0.64333	8
0.64700	8
0.65067	9
0.65433	8
0.65800	4
0.66167	3
0.66533	8
0.66900	7
0.67267	5
0.67633	9
0.68000	12
0.68367	14
0.68733	11
0.69100	5
0.69467	-3
0.69833	-9
0.70200	-8
0.70567	-7
0.70933	-5
0.71300	-3
0.71667	-3
0.72033	-3
0.72400	2
0.72767	5
0.73133	6
0.73500	8
0.73867	11
0.74233	13
0.74600	11
0.74967	9
0.75333	7
0.75700	5
0.76067	5
0.76433	7
0.76800	10
0.77167	11
0.77533	10
0.77900	7
0.78267	6
0.78633	10
0.79000	11
0.79367	7
0.79733	5
0.80100	8
0.80467	15
0.80833	25
0.81200	34
0.81567	37
0.81933	34
0.82300	27
0.82667	16
0.83033	9
0.83400	4
0.83767	-2
0.84133	-4
0.84500	-4
0.84867	-1
0.85233	3
0.85600	7
0.85967	12
0.86333	13
0.86700	9
0.87067	6
0.87433	6
0.87800	5
0.88167	2
0.88533	4
0.88900	6
0.89267	2
0.89633	-4
0.90000	-6
0.90367	-6
0.90733	-9
0.91100	-12
0.91467	-14
0.91833	-16
0.92200	-15
0.92567	-12
0.92933	-8
0.93300	-1
0.93667	7
0.94033	7
0.94400	3
0.94767	-4
0.95133	-7
0.95500	-3
0.95867	4
0.96233	9
0.96600	2
0.96967	-6
0.97333	-10
0.97700	-14
0.98067	-19
0.98433	-21
0.98800	-18
0.99167	-18
0.99533	-22
0.99900	-21
1.00267	-18
1.00633	-18
1.01000	-19
1.01367	-23
1.01733	-27
1.02100	-24
1.02467	-17
1.02833	-8
1.03200	-1
1.03567	-3
1.03933	-10
1.04300	-18
1.04667	-23
1.05033	-29
1.05400	-37
1.05767	-46
1.06133	-48
1.06500	-47
1.06867	-48
1.07233	-50
1.07600	-49
1.07967	-39
1.08333	-28
1.08700	-28
1.09067	-38
1.09433	-46
1.09800	-47
1.10167	-44
1.10533	-38
1.10900	-37
1.11267	-35
1.11633	-33
1.12000	-31
1.12367	-28
1.12733	-23
1.13100	-21
1.13467	-18
1.13833	-17
1.14200	-19
1.14567	-22
1.14933	-29
1.15300	-29
1.15667	-25
1.16033	-25
1.16400	-31
1.16767	-40
1.17133	-48
1.17500	-54
1.17867	-55
1.18233	-54
1.18600	-54
1.18967	-56
1.19333	-55
1.19700	-55
1.20067	-55
1.20433	-58
1.20800	-54
1.21167	-46
1.21533	-38
1.21900	-37
1.22267	-36
1.22633	-35
1.23000	-34
1.23367	-31
1.23733	-32
1.24100	-34
1.24467	-35
1.24833	-35
1.25200	-33
1.25567	-32
1.25933	-32
1.26300	-30
1.26667	-27
1.27033	-23
1.27400	-29
1.27767	-41
1.28133	-49
1.28500	-53
1.28867	-56
1.29233	-53
1.29600	-47
1.29967	-36
1.30333	-29
1.30700	-31
1.31067	-38
1.31433	-45
1.31800	-50
1.32167	-50
1.32533	-51
1.32900	-51
1.33267	-50
1.33633	-52
1.34000	-57
1.34367	-60
1.34733	-60
1.35100	-62
1.35467	-67
1.35833	-68
1.36200	-62
1.36567	-53
1.36933	-46
1.37300	-45
1.37667	-41
1.38033	-35
1.38400	-32
1.38767	-37
1.39133	-45
1.39500	-56
1.39867	-64
1.40233	-60
1.40600	-49
1.40967	-46
1.41333	-49
1.41700	-56
1.42067	-65
1.42433	-71
1.42800	-73
1.43167	-68
1.43533	-64
1.43900	-54
1.44267	-16
1.44633	117
1.45000	524
1.45367	1617
1.45733	3659
1.46100	6299
1.46467	8929
1.46833	11124
1.47200	12672
1.47567	13445
1.47933	13310
1.48300	12258
1.48667	10500
1.49033	8402
1.49400	6344
1.49767	4575
1.50133	3191
1.50500	2171
1.50867	1440
1.51233	929
1.51600	577
1.51967	337
1.52333	175
1.52700	65
1.53067	-7
1.53433	-48
1.53800	-63
1.54167	-33
1.54533	91
1.54900	346
1.55267	701
1.55633	1082
1.56000	1425
1.56367	1686
1.56733	1839
1.57100	1860
1.57467	1729
1.57833	1475
1.58200	1165
1.58567	855
1.58933	583
1.59300	367
1.59667	208
1.60033	100
1.60400	30
1.60767	-11
1.61133	-34
1.61500	-53
1.61867	-80
1.62233	-105
1.62600	-122
1.62967	-130
1.63333	-129
1.63700	-129
1.64067	-127
1.64433	-126
1.64800	-129
1.65167	-135
1.65533	-136
1.65900	-131
1.66267	-123
1.66633	-119
1.67000	-120
1.67367	-120
1.67733	-114
1.68100	-107
1.68467	-105
1.68833	-105
1.69200	-105
1.69567	-103
1.69933	-99
1.70300	-96
1.70667	-92
1.71033	-90
1.71400	-87
1.71767	-82
1.72133	-85
1.72500	-92
1.72867	-96
1.73233	-98
1.73600	-97
1.73967	-94
1.74333	-91
1.74700	-89
1.75067	-82
1.75433	-73
1.75800	-66
1.76167	-66
1.76533	-73
1.76900	-84
1.77267	-90
1.77633	-91
1.78000	-85
1.78367	-81
1.78733	-79
1.79100	-84
1.79467	-93
1.79833	-100
1.80200	-106
1.80567	-114
1.80933	-119
1.81300	-120
1.81667	-116
1.82033	-104
1.82400	-94
1.82767	-93
1.83133	-92
1.83500	-83
1.83867	-73
1.84233	-70
1.84600	-70
1.84967	-75
1.85333	-77
1.85700	-73
1.86067	-67
1.86433	-68
1.86800	-75
1.87167	-86
1.87533	-94
1.87900	-97
1.88267	-97
1.88633	-93
1.89000	-91
1.89367	-89
1.89733	-87
1.90100	-85
1.90467	-84
1.90833	-83
1.91200	-82
1.91567	-76
1.91933	-69
1.92300	-63
1.92667	-60
1.93033	-57
1.93400	-54
1.93767	-49
1.94133	-41
1.94500	-38
1.94867	-32
1.95233	-3
1.95600	267
1.95967	2140
1.96333	11886
1.96700	50292
1.97067	164592
1.97433	417474
1.97800	833622
1.98167	1358239
1.98533	1885054
1.98900	2314818
1.99267	2584867
1.99633	2670343
2.00000	2577380
2.00367	2337132
2.00733	1998781
2.01100	1619256
2.01467	1250107
2.01833	927032
2.02200	666403
2.02567	468822
2.02933	325753
2.03300	225416
2.03667	156522
2.04033	109802
2.04400	78286
2.04767	57005
2.05133	42536
2.05500	32582
2.05867	25626
2.06233	20671
2.06600	17065
2.06967	14378
2.07333	12324
2.07700	10723
2.08067	9449
2.08433	8418
2.08800	7569
2.09167	6860
2.09533	6259
2.09900	5745
2.10267	5300
2.10633	4914
2.11000	4577
2.11367	4281
2.11733	4022
2.12100	3786
2.12467	3564
2.12833	3355
2.13200	3165
2.13567	2994
2.13933	2838
2.14300	2696
2.14667	2565
2.15033	2444
2.15400	2336
2.15767	2243
2.16133	2159
2.16500	2073
2.16867	1987
2.17233	1908
2.17600	1836
2.17967	1774
2.18333	1718
2.18700	1663
2.19067	1608
2.19433	1561
2.19800	1518
2.20167	1475
2.20533	1429
2.20900	1384
2.21267	1345
2.21633	1308
2.22000	1274
2.22367	1248
2.22733	1218
2.23100	1182
2.23467	1148
2.23833	1119
2.24200	1090
2.24567	1060
2.24933	1033
2.25300	1008
2.25667	983
2.26033	958
2.26400	933
2.26767	903
2.27133	876
2.27500	858
2.27867	844
2.28233	828
2.28600	812
2.28967	793
2.29333	771
2.29700	751
2.30067	738
2.30433	734
2.30800	730
2.31167	722
2.31533	711
2.31900	699
2.32267	682
2.32633	663
2.33000	646
2.33367	632
2.33733	620
2.34100	611
2.34467	606
2.34833	599
2.35200	592
2.35567	589
2.35933	579
2.36300	567
2.36667	558
2.37033	547
2.37400	535
2.37767	519
2.38133	508
2.38500	503
2.38867	501
2.39233	501
2.39600	500
2.39967	497
2.40333	491
2.40700	486
2.41067	481
2.41433	474
2.41800	466
2.42167	462
2.42533	459
2.42900	452
2.43267	445
2.43633	443
2.44000	441
2.44367	438
2.44733	437
2.45100	438
2.45467	435
2.45833	421
2.46200	405
2.46567	389
2.46933	382
2.47300	387
2.47667	389
2.48033	381
2.48400	371
2.48767	359
2.49133	350
2.49500	345
2.49867	344
2.50233	344
2.50600	351
2.50967	359
2.51333	365
2.51700	358
2.52067	346
2.52433	343
2.52800	339
2.53167	337
2.53533	331
2.53900	325
2.54267	320
2.54633	315
2.55000	306
2.55367	296
2.55733	296
2.56100	300
2.56467	305
2.56833	308
2.57200	305
2.57567	297
2.57933	287
2.58300	282
2.58667	282
2.59033	281
2.59400	275
2.59767	267
2.60133	259
2.60500	257
2.60867	260
2.61233	263
2.61600	264
2.61967	260
2.62333	252
2.62700	249
2.63067	251
2.63433	256
2.63800	259
2.64167	259
2.64533	256
2.64900	252
2.65267	246
2.65633	237
2.66000	230
2.66367	225
2.66733	223
2.67100	224
2.67467	223
2.67833	218
2.68200	216
2.68567	220
2.68933	229
2.69300	237
2.69667	242
2.70033	239
2.70400	226
2.70767	210
2.71133	206
2.71500	210
2.71867	216
2.72233	215
2.72600	211
2.72967	207
2.73333	203
2.73700	200
2.74067	197
2.74433	199
2.74800	199
2.75167	199
2.75533	194
2.75900	187
2.76267	181
2.76633	178
2.77000	179
2.77367	181
2.77733	185
2.78100	187
2.78467	187
2.78833	186
2.79200	185
2.79567	188
2.79933	192
2.80300	196
2.80667	197
2.81033	190
2.81400	182
2.81767	179
2.82133	183
2.82500	187
2.82867	186
2.83233	181
2.83600	173
2.83967	165
2.84333	157
2.84700	154
2.85067	155
2.85433	156
2.85800	158
2.86167	160
2.86533	161
2.86900	162
2.87267	166
2.87633	173
2.88000	178
2.88367	182
2.88733	181
2.89100	171
2.89467	161
2.89833	158
2.90200	161
2.90567	166
2.90933	164
2.91300	159
2.91667	152
2.92033	150
2.92400	151
2.92767	149
2.93133	142
2.93500	135
2.93867	135
2.94233	132
2.94600	127
2.94967	121
2.95333	122
2.95700	131
2.96067	138
2.96433	144
2.96800	152
2.97167	163
2.97533	171
2.97900	170
2.98267	163
2.98633	158
2.99000	159
2.99367	159
2.99733	161
3.00100	161
3.00467	156
3.00833	151
3.01200	151
3.01567	154
3.01933	155
3.02300	155
3.02667	150
3.03033	142
3.03400	133
3.03767	128
3.04133	124
3.04500	122
3.04867	120
3.05233	121
3.05600	123
3.05967	128
3.06333	134
3.06700	132
3.07067	128
3.07433	127
3.07800	130
3.08167	132
3.08533	134
3.08900	138
3.09267	142
3.09633	145
3.10000	147
3.10367	148
3.10733	144
3.11100	134
3.11467	124
3.11833	117
3.12200	114
3.12567	110
3.12933	107
3.13300	110
3.13667	119
3.14033	131
3.14400	136
3.14767	132
3.15133	130
3.15500	127
3.15867	120
3.16233	114
3.16600	111
3.16967	112
3.17333	115
3.17700	121
3.18067	130
3.18433	135
3.18800	135
3.19167	135
3.19533	132
3.19900	126
3.20267	122
3.20633	120
3.21000	120
3.21367	117
3.21733	107
3.22100	95
3.22467	89
3.22833	94
3.23200	104
3.23567	113
3.23933	115
3.24300	111
3.24667	106
3.25033	102
3.25400	96
3.25767	92
3.26133	93
3.26500	97
3.26867	102
3.27233	107
3.27600	112
3.27967	116
3.28333	122
3.28700	126
3.29067	125
3.29433	119
3.29800	112
3.30167	106
3.30533	98
3.30900	95
3.31267	98
3.31633	98
3.32000	92
3.32367	83
3.32733	80
3.33100	79
3.33467	81
3.33833	85
3.34200	85
3.34567	84
3.34933	94
3.35300	102
3.35667	105
3.36033	105
3.36400	102
3.36767	95
3.37133	86
3.37500	81
3.37867	79
3.38233	83
3.38600	90
3.38967	91
3.39333	90
3.39700	87
3.40067	82
3.40433	83
3.40800	92
3.41167	100
3.41533	98
3.41900	90
3.42267	85
3.42633	88
3.43000	96
3.43367	98
3.43733	90
3.44100	81
3.44467	75
3.44833	70
3.45200	71
3.45567	76
3.45933	79
3.46300	82
3.46667	80
3.47033	79
3.47400	76
3.47767	75
3.48133	72
3.48500	69
3.48867	66
3.49233	70
3.49600	75
3.49967	76
3.50333	72
3.50700	72
3.51067	72
3.51433	78
3.51800	83
3.52167	84
3.52533	80
3.52900	75
3.53267	77
3.53633	82
3.54000	86
3.54367	88
3.54733	91
3.55100	87
3.55467	72
3.55833	54
3.56200	41
3.56567	36
3.56933	36
3.57300	45
3.57667	54
3.58033	54
3.58400	47
3.58767	41
3.59133	42
3.59500	45
3.59867	46
3.60233	42
3.60600	35
3.60967	28
3.61333	25
3.61700	21
3.62067	20
3.62433	27
3.62800	37
3.63167	45
3.63533	50
3.63900	51
3.64267	50
3.64633	46
3.65000	42
3.65367	39
3.65733	44
3.66100	55
3.66467	63
3.66833	66
3.67200	62
3.67567	53
3.67933	47
3.68300	46
3.68667	49
3.69033	59
3.69400	69
3.69767	66
3.70133	56
3.70500	48
3.70867	38
3.71233	32
3.71600	32
3.71967	31
3.72333	29
3.72700	27
3.73067	30
3.73433	39
3.73800	48
3.74167	50
3.74533	49
3.74900	46
3.75267	41
3.75633	38
3.76000	37
3.76367	36
3.76733	36
3.77100	43
3.77467	58
3.77833	67
3.78200	65
3.78567	60
3.78933	53
3.79300	48
3.79667	49
3.80033	51
3.80400	50
3.80767	49
3.81133	48
3.81500	48
3.81867	50
3.82233	51
3.82600	48
3.82967	41
3.83333	34
3.83700	33
3.84067	41
3.84433	48
3.84800	50
3.85167	46
3.85533	37
3.85900	29
3.86267	23
3.86633	16
3.87000	11
3.87367	2
3.87733	-2
3.88100	5
3.88467	16
3.88833	28
3.89200	37
3.89567	40
3.89933	33
3.90300	23
3.90667	18
3.91033	19
3.91400	26
3.91767	36
3.92133	47
3.92500	49
3.92867	44
3.93233	37
3.93600	33
3.93967	30
3.94333	25
3.94700	22
3.95067	19
3.95433	17
3.95800	18
3.96167	22
3.96533	22
3.96900	26
3.97267	34
3.97633	36
3.98000	30
3.98367	26
3.98733	24
3.99100	19
3.99467	11
3.99833	8

[Chromatogram (Ch2)]
Interval(msec)	220
# of Points	1091
Start Time(min)	0.002
End Time(min)	3.998
R.Time (min)	Intensity
0.00167	-1
0.00533	-1
0.00900	-2
0.01267	-2
0.01633	-3
0.02000	-3
0.02367	-3
0.02733	-3
0.03100	-3
0.03467	-3
0.03833	-3
0.04200	-3
0.04567	-4
0.04933	-4
0.05300	-4
0.05667	-4
0.06033	-4
0.06400	-5
0.06767	-5
0.07133	-5
0.07500	-5
0.07867	-4
0.08233	-4
0.08600	-4
0.08967	-3
0.09333	-3
0.09700	-3
0.10067	-2
0.10433	-2
0.10800	-2
0.11167	-2
0.11533	-1
0.11900	-1
0.12267	-1
0.12633	-1
0.13000	-1
0.13367	-0
0.13733	-0
0.14100	-0
0.14467	-0
0.14833	-0
0.15200	-0
0.15567	-1
0.15933	-1
0.16300	-1
0.16667	-1
0.17033	-1
0.17400	-1
0.17767	-1
0.18133	-1
0.18500	-1
0.18867	-1
0.19233	-1
0.19600	-1
0.19967	-1
0.20333	-1
0.20700	-1
0.21067	-1
0.21433	-1
0.21800	-1
0.22167	-1
0.22533	-0
0.22900	-0
0.23267	0
0.23633	0
0.24000	1
0.24367	2
0.24733	2
0.25100	2
0.25467	3
0.25833	3
0.26200	3
0.26567	4
0.26933	4
0.27300	4
0.27667	4
0.28033	4
0.28400	4
0.28767	3
0.29133	3
0.29500	2
0.29867	2
0.30233	2
0.30600	2
0.30967	1
0.31333	1
0.31700	1
0.32067	1
0.32433	1
0.32800	1
0.33167	1
0.33533	1
0.33900	1
0.34267	1
0.34633	0
0.35000	0
0.35367	-0
0.35733	-0
0.36100	-1
0.36467	-1
0.36833	-1
0.37200	-1
0.37567	-2
0.37933	-2
0.38300	-2
0.38667	-3
0.39033	-3
0.39400	-3
0.39767	-3
0.40133	-3
0.40500	-3
0.40867	-3
0.41233	-3
0.41600	-3
0.41967	-3
0.42333	-3
0.42700	-3
0.43067	-3
0.43433	-3
0.43800	-3
0.44167	-3
0.44533	-3
0.44900	-3
0.45267	-3
0.45633	-2
0.46000	-2
0.46367	-1
0.46733	-1
0.47100	-1
0.47467	-1
0.47833	-1
0.48200	-1
0.48567	-1
0.48933	-1
0.49300	-2
0.49667	-2
0.50033	-2
0.50400	-2
0.50767	-2
0.51133	-2
0.51500	-2
0.51867	-3
0.52233	-3
0.52600	-3
0.52967	-3
0.53333	-3
0.53700	-4
0.54067	-4
0.54433	-4
0.54800	-4
0.55167	-3
0.55533	-3
0.55900	-3
0.56267	-2
0.56633	-2
0.57000	-1
0.57367	-1
0.57733	-1
0.58100	-0
0.58467	-0
0.58833	-0
0.59200	-0
0.59567	-0
0.59933	-1
0.60300	-1
0.60667	-1
0.61033	-1
0.61400	-1
0.61767	-1
0.62133	-1
0.62500	-1
0.62867	-1
0.63233	-1
0.63600	-1
0.63967	-1
0.64333	-1
0.64700	-1
0.65067	-1
0.65433	-1
0.65800	-1
0.66167	-1
0.66533	-0
0.66900	-0
0.67267	-0
0.67633	-0
0.68000	0
0.68367	0
0.68733	0
0.69100	1
0.69467	1
0.69833	1
0.70200	2
0.70567	2
0.70933	2
0.71300	2
0.71667	1
0.72033	1
0.72400	1
0.72767	0
0.73133	-0
0.73500	-1
0.73867	-1
0.74233	-1
0.74600	-1
0.74967	-1
0.75333	-1
0.75700	-1
0.76067	-1
0.76433	-1
0.76800	-2
0.77167	-2
0.77533	-1
0.77900	-1
0.78267	-1
0.78633	-1
0.79000	-1
0.79367	-2
0.79733	-2
0.80100	-2
0.80467	-3
0.80833	-3
0.81200	-3
0.81567	-3
0.81933	-3
0.82300	-3
0.82667	-3
0.83033	-4
0.83400	-4
0.83767	-4
0.84133	-4
0.84500	-4
0.84867	-4
0.85233	-4
0.85600	-4
0.85967	-4
0.86333	-4
0.86700	-4
0.87067	-4
0.87433	-4
0.87800	-4
0.88167	-4
0.88533	-4
0.88900	-4
0.89267	-4
0.89633	-4
0.90000	-4
0.90367	-5
0.90733	-5
0.91100	-5
0.91467	-5
0.91833	-4
0.92200	-4
0.92567	-4
0.92933	-4
0.93300	-4
0.93667	-3
0.94033	-3
0.94400	-3
0.94767	-3
0.95133	-3
0.95500	-3
0.95867	-2
0.96233	-2
0.96600	-2
0.96967	-2
0.97333	-2
0.97700	-1
0.98067	-1
0.98433	-1
0.98800	-1
0.99167	-2
0.99533	-2
0.99900	-3
1.00267	-3
1.00633	-3
1.01000	-4
1.01367	-4
1.01733	-4
1.02100	-4
1.02467	-4
1.02833	-4
1.03200	-4
1.03567	-4
1.03933	-3
1.04300	-3
1.04667	-3
1.05033	-2
1.05400	-2
1.05767	-1
1.06133	-1
1.06500	-1
1.06867	-1
1.07233	-1
1.07600	-1
1.07967	-0
1.08333	-0
1.08700	-0
1.09067	-0
1.09433	-1
1.09800	-1
1.10167	-2
1.10533	-2
1.10900	-3
1.11267	-4
1.11633	-4
1.12000	-4
1.12367	-4
1.12733	-4
1.13100	-4
1.13467	-4
1.13833	-4
1.14200	-5
1.14567	-5
1.14933	-5
1.15300	-5
1.15667	-5
1.16033	-5
1.16400	-4
1.16767	-4
1.17133	-4
1.17500	-4
1.17867	-4
1.18233	-4
1.18600	-4
1.18967	-4
1.19333	-4
1.19700	-4
1.20067	-4
1.20433	-4
1.20800	-4
1.21167	-4
1.21533	-3
1.21900	-3
1.22267	-3
1.22633	-3
1.23000	-3
1.23367	-3
1.23733	-3
1.24100	-3
1.24467	-3
1.24833	-3
1.25200	-4
1.25567	-4
1.25933	-4
1.26300	-5
1.26667	-5
1.27033	-5
1.27400	-5
1.27767	-4
1.28133	-4
1.28500	-4
1.28867	-4
1.29233	-4
1.29600	-5
1.29967	-5
1.30333	-5
1.30700	-5
1.31067	-6
1.31433	-6
1.31800	-5
1.32167	-5
1.32533	-5
1.32900	-5
1.33267	-5
1.33633	-5
1.34000	-5
1.34367	-5
1.34733	-5
1.35100	-5
1.35467	-5
1.35833	-5
1.36200	-5
1.36567	-4
1.36933	-4
1.37300	-4
1.37667	-3
1.38033	-3
1.38400	-3
1.38767	-2
1.39133	-2
1.39500	-2
1.39867	-1
1.40233	-1
1.40600	-1
1.40967	-1
1.41333	-1
1.41700	-1
1.42067	-1
1.42433	-1
1.42800	-1
1.43167	-1
1.43533	-1
1.43900	-1
1.44267	-1
1.44633	-1
1.45000	-1
1.45367	-1
1.45733	-1
1.46100	-2
1.46467	-2
1.46833	-2
1.47200	-2
1.47567	-2
1.47933	-1
1.48300	-1
1.48667	-1
1.49033	-1
1.49400	-1
1.49767	-1
1.50133	-2
1.50500	-2
1.50867	-2
1.51233	-3
1.51600	-3
1.51967	-3
1.52333	-3
1.52700	-4
1.53067	-4
1.53433	-4
1.53800	-5
1.54167	-5
1.54533	-5
1.54900	-6
1.55267	-6
1.55633	-6
1.56000	-7
1.56367	-7
1.56733	-7
1.57100	-7
1.57467	-7
1.57833	-7
1.58200	-7
1.58567	-7
1.58933	-8
1.59300	-8
1.59667	-9
1.60033	-10
1.60400	-11
1.60767	-13
1.61133	-15
1.61500	-17
1.61867	-19
1.62233	-22
1.62600	-25
1.62967	-27
1.63333	-30
1.63700	-33
1.64067	-37
1.64433	-40
1.64800	-43
1.65167	-46
1.65533	-49
1.65900	-52
1.66267	-55
1.66633	-59
1.67000	-63
1.67367	-67
1.67733	-71
1.68100	-75
1.68467	-80
1.68833	-84
1.69200	-88
1.69567	-92
1.69933	-95
1.70300	-98
1.70667	-100
1.71033	-103
1.71400	-104
1.71767	-105
1.72133	-106
1.72500	-107
1.72867	-108
1.73233	-108
1.73600	-109
1.73967	-110
1.74333	-111
1.74700	-111
1.75067	-111
1.75433	-112
1.75800	-112
1.76167	-112
1.76533	-112
1.76900	-113
1.77267	-113
1.77633	-114
1.78000	-115
1.78367	-116
1.78733	-117
1.79100	-117
1.79467	-117
1.79833	-117
1.80200	-117
1.80567	-116
1.80933	-115
1.81300	-114
1.81667	-113
1.82033	-112
1.82400	-111
1.82767	-111
1.83133	-111
1.83500	-111
1.83867	-111
1.84233	-111
1.84600	-112
1.84967	-113
1.85333	-113
1.85700	-114
1.86067	-114
1.86433	-115
1.86800	-115
1.87167	-115
1.87533	-115
1.87900	-115
1.88267	-114
1.88633	-114
1.89000	-113
1.89367	-113
1.89733	-112
1.90100	-113
1.90467	-113
1.90833	-113
1.91200	-113
1.91567	-113
1.91933	-113
1.92300	-113
1.92667	-113
1.93033	-114
1.93400	-114
1.93767	-114
1.94133	-114
1.94500	-114
1.94867	-114
1.95233	-114
1.95600	-113
1.95967	-112
1.96333	-112
1.96700	-111
1.97067	-111
1.97433	-110
1.97800	-110
1.98167	-110
1.98533	-110
1.98900	-110
1.99267	-109
1.99633	-109
2.00000	-109
2.00367	-109
2.00733	-108
2.01100	-108
2.01467	-108
2.01833	-108
2.02200	-107
2.02567	-107
2.02933	-106
2.03300	-106
2.03667	-104
2.04033	-103
2.04400	-103
2.04767	-102
2.05133	-102
2.05500	-102
2.05867	-102
2.06233	-101
2.06600	-102
2.06967	-102
2.07333	-102
2.07700	-102
2.08067	-102
2.08433	-102
2.08800	-102
2.09167	-101
2.09533	-101
2.09900	-101
2.10267	-101
2.10633	-101
2.11000	-100
2.11367	-100
2.11733	-99
2.12100	-98
2.12467	-98
2.12833	-97
2.13200	-97
2.13567	-97
2.13933	-97
2.14300	-97
2.14667	-97
2.15033	-97
2.15400	-96
2.15767	-96
2.16133	-95
2.16500	-95
2.16867	-94
2.17233	-94
2.17600	-94
2.17967	-93
2.18333	-93
2.18700	-93
2.19067	-93
2.19433	-92
2.19800	-93
2.20167	-93
2.20533	-93
2.20900	-93
2.21267	-93
2.21633	-92
2.22000	-92
2.22367	-92
2.22733	-91
2.23100	-91
2.23467	-91
2.23833	-91
2.24200	-91
2.24567	-90
2.24933	-90
2.25300	-89
2.25667	-88
2.26033	-88
2.26400	-87
2.26767	-86
2.27133	-85
2.27500	-84
2.27867	-83
2.28233	-83
2.28600	-83
2.28967	-84
2.29333	-85
2.29700	-86
2.30067	-87
2.30433	-88
2.30800	-88
2.31167	-88
2.31533	-87
2.31900	-86
2.32267	-84
2.32633	-83
2.33000	-82
2.33367	-80
2.33733	-79
2.34100	-78
2.34467	-78
2.34833	-77
2.35200	-76
2.35567	-75
2.35933	-74
2.36300	-73
2.36667	-71
2.37033	-69
2.37400	-67
2.37767	-64
2.38133	-60
2.38500	-56
2.38867	-52
2.39233	-48
2.39600	-43
2.39967	-39
2.40333	-35
2.40700	-30
2.41067	-27
2.41433	-23
2.41800	-20
2.42167	-17
2.42533	-15
2.42900	-13
2.43267	-11
2.43633	-10
2.44000	-9
2.44367	-8
2.44733	-7
2.45100	-7
2.45467	-6
2.45833	-5
2.46200	-5
2.46567	-4
2.46933	-3
2.47300	-2
2.47667	-2
2.48033	-1
2.48400	-0
2.48767	1
2.49133	2
2.49500	3
2.49867	4
2.50233	5
2.50600	6
2.50967	7
2.51333	7
2.51700	7
2.52067	7
2.52433	7
2.52800	7
2.53167	7
2.53533	8
2.53900	9
2.54267	10
2.54633	11
2.55000	12
2.55367	13
2.55733	14
2.56100	14
2.56467	14
2.56833	15
2.57200	15
2.57567	15
2.57933	15
2.58300	15
2.58667	15
2.59033	15
2.59400	14
2.59767	13
2.60133	13
2.60500	12
2.60867	12
2.61233	13
2.61600	13
2.61967	13
2.62333	14
2.62700	14
2.63067	15
2.63433	15
2.63800	16
2.64167	16
2.64533	17
2.64900	17
2.65267	18
2.65633	18
2.66000	19
2.66367	19
2.66733	20
2.67100	20
2.67467	20
2.67833	20
2.68200	21
2.68567	21
2.68933	22
2.69300	22
2.69667	22
2.70033	22
2.70400	23
2.70767	23
2.71133	23
2.71500	23
2.71867	23
2.72233	23
2.72600	23
2.72967	23
2.73333	23
2.73700	23
2.74067	24
2.74433	24
2.74800	24
2.75167	25
2.75533	25
2.75900	25
2.76267	24
2.76633	24
2.77000	23
2.77367	23
2.77733	22
2.78100	22
2.78467	22
2.78833	22
2.79200	22
2.79567	22
2.79933	22
2.80300	22
2.80667	23
2.81033	23
2.81400	24
2.81767	25
2.82133	25
2.82500	26
2.82867	27
2.83233	27
2.83600	27
2.83967	27
2.84333	26
2.84700	25
2.85067	21
2.85433	16
2.85800	8
2.86167	-4
2.86533	-19
2.86900	-39
2.87267	-62
2.87633	-90
2.88000	-123
2.88367	-160
2.88733	-201
2.89100	-246
2.89467	-294
2.89833	-344
2.90200	-397
2.90567	-451
2.90933	-507
2.91300	-563
2.91667	-619
2.92033	-675
2.92400	-730
2.92767	-783
2.93133	-834
2.93500	-887
2.93867	-943
2.94233	-1002
2.94600	-1054
2.94967	-1089
2.95333	-1100
2.95700	-1084
2.96067	-1045
2.96433	-987
2.96800	-917
2.97167	-840
2.97533	-759
2.97900	-679
2.98267	-603
2.98633	-530
2.99000	-463
2.99367	-403
2.99733	-348
3.00100	-300
3.00467	-257
3.00833	-219
3.01200	-187
3.01567	-158
3.01933	-134
3.02300	-113
3.02667	-94
3.03033	-79
3.03400	-66
3.03767	-54
3.04133	-45
3.04500	-37
3.04867	-30
3.05233	-24
3.05600	-19
3.05967	-14
3.06333	-11
3.06700	-8
3.07067	-5
3.07433	-3
3.07800	-1
3.08167	1
3.08533	3
3.08900	4
3.09267	5
3.09633	6
3.10000	8
3.10367	9
3.10733	10
3.11100	10
3.11467	11
3.11833	12
3.12200	12
3.12567	13
3.12933	13
3.13300	14
3.13667	14
3.14033	14
3.14400	15
3.14767	15
3.15133	16
3.15500	16
3.15867	16
3.16233	17
3.16600	17
3.16967	17
3.17333	17
3.17700	17
3.18067	18
3.18433	18
3.18800	18
3.19167	18
3.19533	18
3.19900	18
3.20267	18
3.20633	19
3.21000	19
3.21367	19
3.21733	19
3.22100	19
3.22467	19
3.22833	20
3.23200	20
3.23567	20
3.23933	20
3.24300	20
3.24667	20
3.25033	21
3.25400	21
3.25767	21
3.26133	21
3.26500	21
3.26867	21
3.27233	21
3.27600	22
3.27967	22
3.28333	22
3.28700	22
3.29067	22
3.29433	22
3.29800	22
3.30167	22
3.30533	22
3.30900	22
3.31267	22
3.31633	22
3.32000	22
3.32367	22
3.32733	23
3.33100	23
3.33467	23
3.33833	24
3.34200	24
3.34567	23
3.34933	23
3.35300	23
3.35667	23
3.36033	24
3.36400	24
3.36767	24
3.37133	23
3.37500	23
3.37867	23
3.38233	23
3.38600	23
3.38967	23
3.39333	23
3.39700	23
3.40067	24
3.40433	24
3.40800	24
3.41167	25
3.41533	25
3.41900	25
3.42267	25
3.42633	26
3.43000	25
3.43367	25
3.43733	25
3.44100	25
3.44467	25
3.44833	25
3.45200	25
3.45567	24
3.45933	24
3.46300	24
3.46667	24
3.47033	24
3.47400	24
3.47767	24
3.48133	24
3.48500	25
3.48867	25
3.49233	25
3.49600	25
3.49967	25
3.50333	25
3.50700	25
3.51067	26
3.51433	26
3.51800	26
3.52167	26
3.52533	27
3.52900	27
3.53267	27
3.53633	27
3.54000	27
3.54367	27
3.54733	26
3.55100	26
3.55467	26
3.55833	26
3.56200	26
3.56567	25
3.56933	25
3.57300	25
3.57667	25
3.58033	25
3.58400	26
3.58767	26
3.59133	26
3.59500	26
3.59867	26
3.60233	26
3.60600	26
3.60967	26
3.61333	25
3.61700	25
3.62067	25
3.62433	25
3.62800	25
3.63167	25
3.63533	25
3.63900	25
3.64267	25
3.64633	25
3.65000	25
3.65367	26
3.65733	26
3.66100	26
3.66467	26
3.66833	26
3.67200	25
3.67567	25
3.67933	25
3.68300	25
3.68667	25
3.69033	24
3.69400	24
3.69767	24
3.70133	24
3.70500	24
3.70867	24
3.71233	24
3.71600	24
3.71967	24
3.72333	24
3.72700	24
3.73067	24
3.73433	24
3.73800	24
3.74167	25
3.74533	25
3.74900	25
3.75267	25
3.75633	25
3.76000	25
3.76367	25
3.76733	25
3.77100	25
3.77467	25
3.77833	25
3.78200	25
3.78567	25
3.78933	24
3.79300	24
3.79667	24
3.80033	24
3.80400	24
3.80767	23
3.81133	23
3.81500	23
3.81867	23
3.82233	23
3.82600	23
3.82967	23
3.83333	23
3.83700	23
3.84067	23
3.84433	23
3.84800	23
3.85167	23
3.85533	24
3.85900	24
3.86267	24
3.86633	24
3.87000	25
3.87367	25
3.87733	25
3.88100	26
3.88467	26
3.88833	26
3.89200	26
3.89567	26
3.89933	27
3.90300	27
3.90667	27
3.91033	27
3.91400	27
3.91767	27
3.92133	26
3.92500	26
3.92867	26
3.93233	26
3.93600	26
3.93967	26
3.94333	26
3.94700	27
3.95067	27
3.95433	27
3.95800	27
3.96167	27
3.96533	26
3.96900	26
3.97267	26
3.97633	26
3.98000	26
3.98367	26
3.98733	26
3.99100	26
3.99467	26
3.99833	26

[Chromatogram (Ch3)]
Interval(msec)	220
# of Points	1091
Start Time(min)	0.002
End Time(min)	3.998
R.Time (min)	Intensity
0.00167	1
0.00533	2
0.00900	2
0.01267	1
0.01633	2
0.02000	3
0.02367	5
0.02733	6
0.03100	7
0.03467	7
0.03833	6
0.04200	4
0.04567	4
0.04933	5
0.05300	3
0.05667	0
0.06033	-1
0.06400	0
0.06767	1
0.07133	1
0.07500	0
0.07867	1
0.08233	3
0.08600	6
0.08967	7
0.09333	7
0.09700	5
0.10067	3
0.10433	3
0.10800	4
0.11167	6
0.11533	6
0.11900	7
0.12267	7
0.12633	8
0.13000	9
0.13367	7
0.13733	2
0.14100	0
0.14467	1
0.14833	1
0.15200	-0
0.15567	1
0.15933	1
0.16300	-2
0.16667	-4
0.17033	-3
0.17400	-1
0.17767	-0
0.18133	1
0.18500	2
0.18867	3
0.19233	4
0.19600	6
0.19967	8
0.20333	7
0.20700	5
0.21067	5
0.21433	4
0.21800	2
0.22167	0
0.22533	-0
0.22900	0
0.23267	0
0.23633	0
0.24000	1
0.24367	1
0.24733	2
0.25100	3
0.25467	2
0.25833	3
0.26200	3
0.26567	2
0.26933	3
0.27300	5
0.27667	6
0.28033	6
0.28400	4
0.28767	2
0.29133	1
0.29500	0
0.29867	-2
0.30233	-2
0.30600	-3
0.30967	-1
0.31333	1
0.31700	-1
0.32067	-4
0.32433	-4
0.32800	-1
0.33167	1
0.33533	0
0.33900	1
0.34267	1
0.34633	2
0.35000	1
0.35367	1
0.35733	2
0.36100	3
0.36467	3
0.36833	3
0.37200	3
0.37567	2
0.37933	2
0.38300	2
0.38667	1
0.39033	2
0.39400	1
0.39767	-2
0.40133	-1
0.40500	-0
0.40867	-1
0.41233	-1
0.41600	-2
0.41967	-1
0.42333	1
0.42700	3
0.43067	4
0.43433	3
0.43800	2
0.44167	0
0.44533	-0
0.44900	0
0.45267	1
0.45633	1
0.46000	0
0.46367	1
0.46733	-0
0.47100	-1
0.47467	-1
0.47833	-2
0.48200	-2
0.48567	-2
0.48933	-2
0.49300	-1
0.49667	-1
0.50033	-3
0.50400	-2
0.50767	-2
0.51133	-1
0.51500	-1
0.51867	-1
0.52233	-4
0.52600	-5
0.52967	-5
0.53333	-4
0.53700	-2
0.54067	-1
0.54433	1
0.54800	3
0.55167	4
0.55533	2
0.55900	3
0.56267	3
0.56633	2
0.57000	1
0.57367	1
0.57733	2
0.58100	5
0.58467	6
0.58833	5
0.59200	4
0.59567	5
0.59933	5
0.60300	4
0.60667	2
0.61033	1
0.61400	-1
0.61767	-3
0.62133	-3
0.62500	-1
0.62867	-1
0.63233	-2
0.63600	-2
0.63967	-2
0.64333	-2
0.64700	-1
0.65067	-0
0.65433	-1
0.65800	-0
0.66167	1
0.66533	1
0.66900	1
0.67267	3
0.67633	6
0.68000	6
0.68367	5
0.68733	4
0.69100	5
0.69467	4
0.69833	3
0.70200	4
0.70567	3
0.70933	3
0.71300	4
0.71667	4
0.72033	4
0.72400	4
0.72767	4
0.73133	4
0.73500	5
0.73867	6
0.74233	6
0.74600	6
0.74967	7
0.75333	7
0.75700	5
0.76067	5
0.76433	5
0.76800	5
0.77167	5
0.77533	5
0.77900	5
0.78267	4
0.78633	4
0.79000	4
0.79367	4
0.79733	5
0.80100	8
0.80467	9
0.80833	12
0.81200	13
0.81567	11
0.81933	9
0.82300	8
0.82667	6
0.83033	6
0.83400	9
0.83767	8
0.84133	5
0.84500	4
0.84867	4
0.85233	4
0.85600	4
0.85967	5
0.86333	7
0.86700	9
0.87067	10
0.87433	12
0.87800	13
0.88167	14
0.88533	12
0.88900	11
0.89267	10
0.89633	10
0.90000	11
0.90367	10
0.90733	10
0.91100	9
0.91467	9
0.91833	10
0.92200	12
0.92567	13
0.92933	13
0.93300	14
0.93667	15
0.94033	15
0.94400	16
0.94767	16
0.95133	15
0.95500	13
0.95867	12
0.96233	11
0.96600	11
0.96967	10
0.97333	9
0.97700	9
0.98067	12
0.98433	12
0.98800	12
0.99167	11
0.99533	10
0.99900	10
1.00267	11
1.00633	12
1.01000	13
1.01367	15
1.01733	17
1.02100	16
1.02467	16
1.02833	15
1.03200	15
1.03567	15
1.03933	15
1.04300	17
1.04667	18
1.05033	16
1.05400	13
1.05767	12
1.06133	13
1.06500	12
1.06867	11
1.07233	12
1.07600	13
1.07967	13
1.08333	12
1.08700	14
1.09067	16
1.09433	17
1.09800	18
1.10167	16
1.10533	14
1.10900	15
1.11267	15
1.11633	15
1.12000	12
1.12367	10
1.12733	11
1.13100	12
1.13467	13
1.13833	13
1.14200	16
1.14567	17
1.14933	16
1.15300	15
1.15667	14
1.16033	15
1.16400	17
1.16767	19
1.17133	18
1.17500	17
1.17867	16
1.18233	15
1.18600	16
1.18967	17
1.19333	16
1.19700	17
1.20067	18
1.20433	18
1.20800	16
1.21167	15
1.21533	16
1.21900	15
1.22267	14
1.22633	13
1.23000	14
1.23367	14
1.23733	16
1.24100	19
1.24467	19
1.24833	17
1.25200	15
1.25567	14
1.25933	15
1.26300	18
1.26667	19
1.27033	18
1.27400	18
1.27767	19
1.28133	21
1.28500	23
1.28867	22
1.29233	22
1.29600	21
1.29967	20
1.30333	17
1.30700	16
1.31067	16
1.31433	18
1.31800	20
1.32167	20
1.32533	20
1.32900	19
1.33267	20
1.33633	20
1.34000	18
1.34367	16
1.34733	15
1.35100	16
1.35467	18
1.35833	21
1.36200	22
1.36567	22
1.36933	19
1.37300	17
1.37667	16
1.38033	16
1.38400	15
1.38767	15
1.39133	15
1.39500	15
1.39867	13
1.40233	13
1.40600	17
1.40967	20
1.41333	21
1.41700	21
1.42067	22
1.42433	23
1.42800	24
1.43167	24
1.43533	22
1.43900	22
1.44267	23
1.44633	22
1.45000	21
1.45367	21
1.45733	22
1.46100	23
1.46467	22
1.46833	21
1.47200	22
1.47567	21
1.47933	22
1.48300	21
1.48667	20
1.49033	19
1.49400	21
1.49767	22
1.50133	20
1.50500	16
1.50867	15
1.51233	15
1.51600	16
1.51967	18
1.52333	19
1.52700	20
1.53067	21
1.53433	22
1.53800	19
1.54167	17
1.54533	19
1.54900	21
1.55267	23
1.55633	23
1.56000	21
1.56367	21
1.56733	22
1.57100	23
1.57467	22
1.57833	22
1.58200	22
1.58567	23
1.58933	23
1.59300	23
1.59667	23
1.60033	24
1.60400	25
1.60767	26
1.61133	26
1.61500	27
1.61867	27
1.62233	26
1.62600	25
1.62967	25
1.63333	24
1.63700	24
1.64067	27
1.64433	31
1.64800	33
1.65167	32
1.65533	30
1.65900	31
1.66267	32
1.66633	33
1.67000	35
1.67367	36
1.67733	37
1.68100	38
1.68467	39
1.68833	37
1.69200	37
1.69567	38
1.69933	39
1.70300	39
1.70667	40
1.71033	41
1.71400	41
1.71767	40
1.72133	40
1.72500	39
1.72867	39
1.73233	40
1.73600	40
1.73967	40
1.74333	40
1.74700	42
1.75067	43
1.75433	44
1.75800	46
1.76167	46
1.76533	46
1.76900	46
1.77267	45
1.77633	45
1.78000	47
1.78367	49
1.78733	52
1.79100	53
1.79467	51
1.79833	51
1.80200	51
1.80567	51
1.80933	50
1.81300	50
1.81667	50
1.82033	51
1.82400	54
1.82767	56
1.83133	57
1.83500	57
1.83867	58
1.84233	59
1.84600	56
1.84967	56
1.85333	57
1.85700	58
1.86067	58
1.86433	59
1.86800	60
1.87167	62
1.87533	60
1.87900	59
1.88267	59
1.88633	60
1.89000	61
1.89367	64
1.89733	66
1.90100	68
1.90467	67
1.90833	64
1.91200	63
1.91567	67
1.91933	70
1.92300	69
1.92667	70
1.93033	72
1.93400	75
1.93767	76
1.94133	77
1.94500	76
1.94867	75
1.95233	75
1.95600	76
1.95967	76
1.96333	78
1.96700	81
1.97067	82
1.97433	83
1.97800	86
1.98167	88
1.98533	89
1.98900	89
1.99267	90
1.99633	90
2.00000	92
2.00367	91
2.00733	94
2.01100	97
2.01467	99
2.01833	102
2.02200	103
2.02567	103
2.02933	104
2.03300	104
2.03667	107
2.04033	108
2.04400	107
2.04767	108
2.05133	110
2.05500	113
2.05867	113
2.06233	113
2.06600	115
2.06967	115
2.07333	117
2.07700	119
2.08067	122
2.08433	124
2.08800	125
2.09167	125
2.09533	127
2.09900	130
2.10267	131
2.10633	131
2.11000	131
2.11367	132
2.11733	133
2.12100	135
2.12467	137
2.12833	139
2.13200	141
2.13567	143
2.13933	145
2.14300	146
2.14667	147
2.15033	149
2.15400	152
2.15767	153
2.16133	155
2.16500	158
2.16867	158
2.17233	160
2.17600	161
2.17967	160
2.18333	161
2.18700	163
2.19067	166
2.19433	166
2.19800	165
2.20167	164
2.20533	165
2.20900	167
2.21267	170
2.21633	173
2.22000	174
2.22367	175
2.22733	178
2.23100	178
2.23467	177
2.23833	178
2.24200	181
2.24567	183
2.24933	186
2.25300	189
2.25667	190
2.26033	192
2.26400	195
2.26767	198
2.27133	198
2.27500	199
2.27867	200
2.28233	199
2.28600	200
2.28967	201
2.29333	204
2.29700	206
2.30067	210
2.30433	210
2.30800	209
2.31167	210
2.31533	213
2.31900	215
2.32267	215
2.32633	213
2.33000	215
2.33367	218
2.33733	221
2.34100	222
2.34467	221
2.34833	221
2.35200	221
2.35567	220
2.35933	221
2.36300	222
2.36667	224
2.37033	227
2.37400	229
2.37767	230
2.38133	231
2.38500	230
2.38867	228
2.39233	228
2.39600	232
2.39967	234
2.40333	237
2.40700	238
2.41067	238
2.41433	239
2.41800	240
2.42167	243
2.42533	245
2.42900	247
2.43267	247
2.43633	249
2.44000	254
2.44367	319
2.44733	486
2.45100	665
2.45467	813
2.45833	896
2.46200	899
2.46567	854
2.46933	796
2.47300	746
2.47667	710
2.48033	683
2.48400	648
2.48767	599
2.49133	546
2.49500	494
2.49867	452
2.50233	422
2.50600	404
2.50967	397
2.51333	404
2.51700	424
2.52067	446
2.52433	468
2.52800	483
2.53167	483
2.53533	467
2.53900	438
2.54267	402
2.54633	366
2.55000	333
2.55367	305
2.55733	283
2.56100	264
2.56467	247
2.56833	234
2.57200	225
2.57567	218
2.57933	217
2.58300	219
2.58667	221
2.59033	224
2.59400	227
2.59767	226
2.60133	222
2.60500	213
2.60867	201
2.61233	186
2.61600	171
2.61967	157
2.62333	145
2.62700	133
2.63067	122
2.63433	110
2.63800	99
2.64167	88
2.64533	76
2.64900	63
2.65267	49
2.65633	36
2.66000	23
2.66367	12
2.66733	1
2.67100	-9
2.67467	-18
2.67833	-23
2.68200	-26
2.68567	-28
2.68933	-28
2.69300	-26
2.69667	-23
2.70033	-22
2.70400	-19
2.70767	-16
2.71133	-10
2.71500	-3
2.71867	3
2.72233	7
2.72600	12
2.72967	17
2.73333	21
2.73700	26
2.74067	32
2.74433	36
2.74800	42
2.75167	46
2.75533	49
2.75900	52
2.76267	57
2.76633	63
2.77000	68
2.77367	72
2.77733	76
2.78100	79
2.78467	84
2.78833	89
2.79200	92
2.79567	98
2.79933	105
2.80300	112
2.80667	117
2.81033	124
2.81400	132
2.81767	143
2.82133	156
2.82500	178
2.82867	218
2.83233	290
2.83600	415
2.83967	616
2.84333	913
2.84700	1312
2.85067	1804
2.85433	2365
2.85800	2960
2.86167	3543
2.86533	4066
2.86900	4489
2.87267	4781
2.87633	4928
2.88000	4937
2.88367	4822
2.88733	4610
2.89100	4327
2.89467	4001
2.89833	3654
2.90200	3305
2.90567	2968
2.90933	2649
2.91300	2355
2.91667	2086
2.92033	1844
2.92400	1626
2.92767	1433
2.93133	1265
2.93500	1117
2.93867	987
2.94233	874
2.94600	774
2.94967	685
2.95333	608
2.95700	540
2.96067	482
2.96433	434
2.96800	392
2.97167	356
2.97533	323
2.97900	296
2.98267	272
2.98633	252
2.99000	234
2.99367	217
2.99733	202
3.00100	190
3.00467	179
3.00833	169
3.01200	158
3.01567	151
3.01933	145
3.02300	141
3.02667	136
3.03033	131
3.03400	129
3.03767	129
3.04133	127
3.04500	128
3.04867	126
3.05233	121
3.05600	120
3.05967	117
3.06333	112
3.06700	92
3.07067	56
3.07433	26
3.07800	23
3.08167	46
3.08533	86
3.08900	136
3.09267	191
3.09633	246
3.10000	297
3.10367	344
3.10733	388
3.11100	427
3.11467	460
3.11833	489
3.12200	515
3.12567	535
3.12933	551
3.13300	567
3.13667	581
3.14033	593
3.14400	605
3.14767	614
3.15133	623
3.15500	631
3.15867	637
3.16233	640
3.16600	642
3.16967	647
3.17333	651
3.17700	656
3.18067	661
3.18433	666
3.18800	671
3.19167	676
3.19533	680
3.19900	684
3.20267	689
3.20633	693
3.21000	698
3.21367	702
3.21733	705
3.22100	709
3.22467	716
3.22833	723
3.23200	729
3.23567	735
3.23933	739
3.24300	747
3.24667	755
3.25033	762
3.25400	768
3.25767	774
3.26133	779
3.26500	782
3.26867	787
3.27233	791
3.27600	793
3.27967	797
3.28333	803
3.28700	809
3.29067	812
3.29433	814
3.29800	816
3.30167	818
3.30533	820
3.30900	820
3.31267	821
3.31633	823
3.32000	824
3.32367	825
3.32733	825
3.33100	826
3.33467	825
3.33833	824
3.34200	824
3.34567	823
3.34933	820
3.35300	817
3.35667	815
3.36033	815
3.36400	813
3.36767	811
3.37133	811
3.37500	810
3.37867	807
3.38233	806
3.38600	805
3.38967	804
3.39333	802
3.39700	801
3.40067	798
3.40433	797
3.40800	793
3.41167	790
3.41533	786
3.41900	783
3.42267	778
3.42633	774
3.43000	771
3.43367	770
3.43733	772
3.44100	772
3.44467	771
3.44833	769
3.45200	768
3.45567	767
3.45933	763
3.46300	760
3.46667	757
3.47033	754
3.47400	751
3.47767	750
3.48133	747
3.48500	744
3.48867	744
3.49233	745
3.49600	745
3.49967	746
3.50333	748
3.50700	746
3.51067	744
3.51433	743
3.51800	743
3.52167	741
3.52533	738
3.52900	736
3.53267	736
3.53633	736
3.54000	736
3.54367	737
3.54733	736
3.55100	736
3.55467	736
3.55833	738
3.56200	738
3.56567	737
3.56933	737
3.57300	735
3.57667	733
3.58033	732
3.58400	730
3.58767	729
3.59133	730
3.59500	730
3.59867	728
3.60233	727
3.60600	727
3.60967	728
3.61333	729
3.61700	727
3.62067	724
3.62433	721
3.62800	718
3.63167	716
3.63533	716
3.63900	716
3.64267	717
3.64633	715
3.65000	714
3.65367	712
3.65733	708
3.66100	704
3.66467	703
3.66833	703
3.67200	704
3.67567	705
3.67933	707
3.68300	707
3.68667	704
3.69033	700
3.69400	698
3.69767	696
3.70133	694
3.70500	691
3.70867	688
3.71233	685
3.71600	684
3.71967	682
3.72333	680
3.72700	678
3.73067	675
3.73433	673
3.73800	672
3.74167	671
3.74533	670
3.74900	669
3.75267	666
3.75633	663
3.76000	659
3.76367	657
3.76733	658
3.77100	657
3.77467	657
3.77833	656
3.78200	655
3.78567	654
3.78933	652
3.79300	649
3.79667	647
3.80033	646
3.80400	645
3.80767	643
3.81133	640
3.81500	639
3.81867	637
3.82233	635
3.82600	631
3.82967	629
3.83333	629
3.83700	628
3.84067	627
3.84433	626
3.84800	623
3.85167	619
3.85533	617
3.85900	614
3.86267	612
3.86633	610
3.87000	609
3.87367	609
3.87733	607
3.88100	605
3.88467	603
3.88833	599
3.89200	596
3.89567	594
3.89933	592
3.90300	590
3.90667	589
3.91033	589
3.91400	588
3.91767	587
3.92133	586
3.92500	584
3.92867	584
3.93233	584
3.93600	582
3.93967	582
3.94333	580
3.94700	576
3.95067	574
3.95433	572
3.95800	570
3.96167	569
3.96533	567
3.96900	567
3.97267	569
3.97633	568
3.98000	566
3.98367	565
3.98733	562
3.99100	560
3.99467	559
3.99833	557

[Status Trace (Column Oven Temperature)]
Interval(msec)	1000
# of Points	240
Start Time(min)	0.015
End Time(min)	3.998
Intensity Units	
Intensity Multiplier	1
R.Time (min)	Intensity
0.01463	35.01
0.03130	35.02
0.04797	35.04
0.06463	35.05
0.08130	35.06
0.09797	35.07
0.11463	35.06
0.13130	35.06
0.14797	35.06
0.16463	35.06
0.18130	35.05
0.19797	35.04
0.21463	35.04
0.23130	35.02
0.24797	35.00
0.26463	34.97
0.28130	34.97
0.29797	34.97
0.31463	34.97
0.33130	34.96
0.34797	34.97
0.36463	34.97
0.38130	34.98
0.39797	34.99
0.41463	34.99
0.43130	35.00
0.44797	35.00
0.46463	35.00
0.48130	35.00
0.49797	35.01
0.51463	35.01
0.53130	35.01
0.54797	35.01
0.56463	35.00
0.58130	34.99
0.59797	35.00
0.61463	35.00
0.63130	35.01
0.64797	34.99
0.66463	34.99
0.68130	34.98
0.69797	34.96
0.71463	34.95
0.73130	34.96
0.74797	34.97
0.76463	34.97
0.78130	34.97
0.79797	34.98
0.81463	34.99
0.83130	34.99
0.84797	35.00
0.86463	35.02
0.88130	35.02
0.89797	35.03
0.91463	35.02
0.93130	35.02
0.94797	35.02
0.96463	35.00
0.98130	35.00
0.99797	35.00
1.01463	35.00
1.03130	35.00
1.04797	34.99
1.06463	34.97
1.08130	34.97
1.09797	34.98
1.11463	34.99
1.13130	34.99
1.14797	34.99
1.16463	34.99
1.18130	34.99
1.19797	34.99
1.21463	34.99
1.23130	34.99
1.24797	34.99
1.26463	35.00
1.28130	34.99
1.29797	35.00
1.31463	35.00
1.33130	35.01
1.34797	35.01
1.36463	35.00
1.38130	34.99
1.39797	34.98
1.41463	34.97
1.43130	34.96
1.44797	34.95
1.46463	34.95
1.48130	34.94
1.49797	34.93
1.51463	34.93
1.53130	34.94
1.54797	34.96
1.56463	34.98
1.58130	35.00
1.59797	35.04
1.61463	35.14
1.63130	35.29
1.64797	35.50
1.66463	35.76
1.68130	36.11
1.69797	36.46
1.71463	36.81
1.73130	37.15
1.74797	37.48
1.76463	37.80
1.78130	38.17
1.79797	38.49
1.81463	38.79
1.83130	39.12
1.84797	39.46
1.86463	39.79
1.88130	40.11
1.89797	40.44
1.91463	40.77
1.93130	41.10
1.94797	41.44
1.96463	41.77
1.98130	42.09
1.99797	42.42
2.01463	42.75
2.03130	43.05
2.04797	43.37
2.06463	43.69
2.08130	44.03
2.09797	44.36
2.11463	44.68
2.13130	45.00
2.14797	45.33
2.16463	45.65
2.18130	45.97
2.19797	46.32
2.21463	46.62
2.23130	46.96
2.24797	47.30
2.26463	47.62
2.28130	47.95
2.29797	48.34
2.31463	48.67
2.33130	48.98
2.34797	49.27
2.36463	49.52
2.38130	49.64
2.39797	49.67
2.41463	49.67
2.43130	49.68
2.44797	49.69
2.46463	49.69
2.48130	49.72
2.49797	49.71
2.51463	49.74
2.53130	49.77
2.54797	49.76
2.56463	49.76
2.58130	49.79
2.59797	49.81
2.61463	49.82
2.63130	49.83
2.64797	49.83
2.66463	49.85
2.68130	49.85
2.69797	49.86
2.71463	49.86
2.73130	49.85
2.74797	49.84
2.76463	49.88
2.78130	49.90
2.79797	49.90
2.81463	49.88
2.83130	49.87
2.84797	49.86
2.86463	49.85
2.88130	49.86
2.89797	49.89
2.91463	49.91
2.93130	49.92
2.94797	49.93
2.96463	49.94
2.98130	49.95
2.99797	49.95
3.01463	49.95
3.03130	49.96
3.04797	49.96
3.06463	49.98
3.08130	49.99
3.09797	50.00
3.11463	50.01
3.13130	50.02
3.14797	50.03
3.16463	50.03
3.18130	50.04
3.19797	50.04
3.21463	50.04
3.23130	50.05
3.24797	50.06
3.26463	50.06
3.28130	50.06
3.29797	50.08
3.31463	50.10
3.33130	50.09
3.34797	50.10
3.36463	50.10
3.38130	50.10
3.39797	50.10
3.41463	50.09
3.43130	50.09
3.44797	50.10
3.46463	50.10
3.48130	50.10
3.49797	50.08
3.51463	50.07
3.53130	50.06
3.54797	50.06
3.56463	50.06
3.58130	50.06
3.59797	50.05
3.61463	50.06
3.63130	50.06
3.64797	50.06
3.66463	50.06
3.68130	50.07
3.69797	50.07
3.71463	50.08
3.73130	50.08
3.74797	50.07
3.76463	50.07
3.78130	50.08
3.79797	50.09
3.81463	50.09
3.83130	50.09
3.84797	50.10
3.86463	50.09
3.88130	50.09
3.89797	50.07
3.91463	50.06
3.93130	50.05
3.94797	50.05
3.96463	50.04
3.98130	50.03
3.99797	50.03

[Status Trace (Injection Unit Temperature)]
Interval(msec)	1000
# of Points	240
Start Time(min)	0.015
End Time(min)	3.998
Intensity Units	
Intensity Multiplier	1
R.Time (min)	Intensity
0.01463	99.98
0.03130	99.98
0.04797	99.98
0.06463	99.98
0.08130	99.98
0.09797	99.98
0.11463	99.98
0.13130	99.98
0.14797	99.98
0.16463	99.98
0.18130	99.98
0.19797	99.98
0.21463	99.98
0.23130	99.98
0.24797	99.98
0.26463	99.98
0.28130	99.98
0.29797	99.98
0.31463	99.98
0.33130	99.98
0.34797	99.98
0.36463	99.98
0.38130	99.98
0.39797	99.98
0.41463	99.98
0.43130	99.98
0.44797	99.98
0.46463	99.98
0.48130	99.98
0.49797	99.98
0.51463	99.98
0.53130	99.98
0.54797	99.98
0.56463	99.98
0.58130	99.98
0.59797	99.98
0.61463	99.97
0.63130	99.98
0.64797	99.98
0.66463	99.98
0.68130	99.98
0.69797	99.98
0.71463	99.98
0.73130	99.98
0.74797	99.98
0.76463	99.98
0.78130	99.97
0.79797	99.98
0.81463	99.98
0.83130	99.98
0.84797	99.98
0.86463	99.98
0.88130	99.98
0.89797	99.98
0.91463	99.98
0.93130	99.98
0.94797	99.98
0.96463	99.98
0.98130	99.98
0.99797	99.98
1.01463	99.98
1.03130	99.98
1.04797	99.99
1.06463	99.99
1.08130	99.98
1.09797	99.99
1.11463	99.98
1.13130	99.99
1.14797	99.98
1.16463	99.98
1.18130	99.99
1.19797	99.99
1.21463	99.99
1.23130	99.99
1.24797	99.98
1.26463	99.99
1.28130	99.98
1.29797	99.99
1.31463	99.99
1.33130	99.99
1.34797	99.99
1.36463	99.99
1.38130	99.99
1.39797	99.99
1.41463	99.99
1.43130	99.99
1.44797	99.99
1.46463	99.99
1.48130	99.99
1.49797	99.98
1.51463	99.99
1.53130	99.99
1.54797	99.99
1.56463	99.99
1.58130	99.98
1.59797	99.98
1.61463	99.98
1.63130	99.98
1.64797	99.99
1.66463	99.99
1.68130	99.98
1.69797	99.98
1.71463	99.98
1.73130	99.98
1.74797	99.98
1.76463	99.98
1.78130	99.98
1.79797	99.98
1.81463	99.98
1.83130	99.98
1.84797	99.98
1.86463	99.98
1.88130	99.98
1.89797	99.98
1.91463	99.97
1.93130	99.97
1.94797	99.97
1.96463	99.97
1.98130	99.97
1.99797	99.97
2.01463	99.96
2.03130	99.97
2.04797	99.97
2.06463	99.96
2.08130	99.97
2.09797	99.96
2.11463	99.96
2.13130	99.96
2.14797	99.96
2.16463	99.96
2.18130	99.96
2.19797	99.96
2.21463	99.96
2.23130	99.96
2.24797	99.96
2.26463	99.96
2.28130	99.96
2.29797	99.95
2.31463	99.96
2.33130	99.96
2.34797	99.96
2.36463	99.96
2.38130	99.96
2.39797	99.96
2.41463	99.97
2.43130	99.96
2.44797	99.96
2.46463	99.97
2.48130	99.96
2.49797	99.97
2.51463	99.97
2.53130	99.97
2.54797	99.97
2.56463	99.97
2.58130	99.97
2.59797	99.97
2.61463	99.98
2.63130	99.97
2.64797	99.97
2.66463	99.98
2.68130	99.98
2.69797	99.98
2.71463	99.98
2.73130	99.99
2.74797	99.98
2.76463	99.99
2.78130	99.99
2.79797	99.99
2.81463	99.99
2.83130	100.00
2.84797	100.00
2.86463	99.99
2.88130	100.00
2.89797	100.00
2.91463	100.00
2.93130	100.01
2.94797	100.00
2.96463	100.00
2.98130	100.01
2.99797	100.01
3.01463	100.01
3.03130	100.01
3.04797	100.01
3.06463	100.01
3.08130	100.01
3.09797	100.02
3.11463	100.02
3.13130	100.02
3.14797	100.01
3.16463	100.02
3.18130	100.02
3.19797	100.02
3.21463	100.01
3.23130	100.02
3.24797	100.02
3.26463	100.03
3.28130	100.03
3.29797	100.03
3.31463	100.02
3.33130	100.02
3.34797	100.03
3.36463	100.02
3.38130	100.02
3.39797	100.03
3.41463	100.03
3.43130	100.03
3.44797	100.03
3.46463	100.03
3.48130	100.02
3.49797	100.03
3.51463	100.03
3.53130	100.04
3.54797	100.04
3.56463	100.04
3.58130	100.04
3.59797	100.04
3.61463	100.04
3.63130	100.04
3.64797	100.04
3.66463	100.04
3.68130	100.04
3.69797	100.04
3.71463	100.04
3.73130	100.05
3.74797	100.04
3.76463	100.04
3.78130	100.04
3.79797	100.05
3.81463	100.04
3.83130	100.05
3.84797	100.04
3.86463	100.05
3.88130	100.04
3.89797	100.04
3.91463	100.04
3.93130	100.05
3.94797	100.04
3.96463	100.05
3.98130	100.04
3.99797	100.04

[Status Trace (Carrier Gas Pressure)]
Interval(msec)	1000
# of Points	240
Start Time(min)	0.015
End Time(min)	3.998
Intensity Units	
Intensity Multiplier	1
R.Time (min)	Intensity
0.01463	57.30
0.03130	55.65
0.04797	57.97
0.06463	59.86
0.08130	58.61
0.09797	57.98
0.11463	58.00
0.13130	58.01
0.14797	58.01
0.16463	58.00
0.18130	58.00
0.19797	58.00
0.21463	58.00
0.23130	58.00
0.24797	58.00
0.26463	58.00
0.28130	58.00
0.29797	58.00
0.31463	58.00
0.33130	58.00
0.34797	58.00
0.36463	58.00
0.38130	58.00
0.39797	58.00
0.41463	58.00
0.43130	58.00
0.44797	58.00
0.46463	58.00
0.48130	58.00
0.49797	58.00
0.51463	58.00
0.53130	58.00
0.54797	58.00
0.56463	58.00
0.58130	58.00
0.59797	58.00
0.61463	58.00
0.63130	58.00
0.64797	58.00
0.66463	58.00
0.68130	58.00
0.69797	58.00
0.71463	58.00
0.73130	58.00
0.74797	58.00
0.76463	58.00
0.78130	58.00
0.79797	58.00
0.81463	58.00
0.83130	58.00
0.84797	58.00
0.86463	58.00
0.88130	58.00
0.89797	58.00
0.91463	58.00
0.93130	58.00
0.94797	58.00
0.96463	58.00
0.98130	58.00
0.99797	58.00
1.01463	58.00
1.03130	58.00
1.04797	58.00
1.06463	58.00
1.08130	58.00
1.09797	58.00
1.11463	58.00
1.13130	58.00
1.14797	58.00
1.16463	58.00
1.18130	58.00
1.19797	58.00
1.21463	58.00
1.23130	58.00
1.24797	58.00
1.26463	58.00
1.28130	58.00
1.29797	58.00
1.31463	58.00
1.33130	58.00
1.34797	58.00
1.36463	58.00
1.38130	58.00
1.39797	58.00
1.41463	58.00
1.43130	58.00
1.44797	58.00
1.46463	58.00
1.48130	58.00
1.49797	58.00
1.51463	58.00
1.53130	58.00
1.54797	58.00
1.56463	58.00
1.58130	58.00
1.59797	58.00
1.61463	58.00
1.63130	58.00
1.64797	58.00
1.66463	58.00
1.68130	58.01
1.69797	58.00
1.71463	58.00
1.73130	58.00
1.74797	58.00
1.76463	58.00
1.78130	58.00
1.79797	58.00
1.81463	58.00
1.83130	58.00
1.84797	58.00
1.86463	58.00
1.88130	58.00
1.89797	58.00
1.91463	58.00
1.93130	58.00
1.94797	58.00
1.96463	58.00
1.98130	58.00
1.99797	58.00
2.01463	58.00
2.03130	58.00
2.04797	58.00
2.06463	58.00
2.08130	58.00
2.09797	58.00
2.11463	58.00
2.13130	58.00
2.14797	58.00
2.16463	58.00
2.18130	58.00
2.19797	58.00
2.21463	58.00
2.23130	58.00
2.24797	58.00
2.26463	58.00
2.28130	58.00
2.29797	58.00
2.31463	58.00
2.33130	58.00
2.34797	58.00
2.36463	58.00
2.38130	57.99
2.39797	57.99
2.41463	58.00
2.43130	58.00
2.44797	58.00
2.46463	58.00
2.48130	58.00
2.49797	58.00
2.51463	57.99
2.53130	57.99
2.54797	58.00
2.56463	58.00
2.58130	58.00
2.59797	58.00
2.61463	58.00
2.63130	58.00
2.64797	58.00
2.66463	58.00
2.68130	58.00
2.69797	58.00
2.71463	58.00
2.73130	58.00
2.74797	58.00
2.76463	58.00
2.78130	58.00
2.79797	58.00
2.81463	58.00
2.83130	58.00
2.84797	58.00
2.86463	58.00
2.88130	58.00
2.89797	58.00
2.91463	58.00
2.93130	58.00
2.94797	58.00
2.96463	58.00
2.98130	58.00
2.99797	58.00
3.01463	58.00
3.03130	58.00
3.04797	58.00
3.06463	58.00
3.08130	58.00
3.09797	58.00
3.11463	58.00
3.13130	58.00
3.14797	58.00
3.16463	58.00
3.18130	58.00
3.19797	58.00
3.21463	58.00
3.23130	58.00
3.24797	58.00
3.26463	58.00
3.28130	58.00
3.29797	58.00
3.31463	58.00
3.33130	58.00
3.34797	58.00
3.36463	58.00
3.38130	58.00
3.39797	58.00
3.41463	58.00
3.43130	58.00
3.44797	58.00
3.46463	58.00
3.48130	58.00
3.49797	58.00
3.51463	58.00
3.53130	58.00
3.54797	58.00
3.56463	58.00
3.58130	58.00
3.59797	58.00
3.61463	58.00
3.63130	58.00
3.64797	58.00
3.66463	58.00
3.68130	58.00
3.69797	58.00
3.71463	58.00
3.73130	58.00
3.74797	58.00
3.76463	58.00
3.78130	58.00
3.79797	58.00
3.81463	58.00
3.83130	58.00
3.84797	58.00
3.86463	58.00
3.88130	58.00
3.89797	58.00
3.91463	58.00
3.93130	58.00
3.94797	58.00
3.96463	58.00
3.98130	58.00
3.99797	58.00

[Status Trace (Carrier Gas Flow)]
Interval(msec)	1000
# of Points	240
Start Time(min)	0.015
End Time(min)	3.998
Intensity Units	
Intensity Multiplier	1
R.Time (min)	Intensity
0.01463	33.91
0.03130	34.54
0.04797	34.54
0.06463	34.51
0.08130	34.51
0.09797	34.52
0.11463	34.52
0.13130	34.52
0.14797	34.51
0.16463	34.52
0.18130	34.52
0.19797	34.53
0.21463	34.52
0.23130	34.52
0.24797	34.52
0.26463	34.51
0.28130	34.52
0.29797	34.52
0.31463	34.53
0.33130	34.52
0.34797	34.52
0.36463	34.52
0.38130	34.52
0.39797	34.52
0.41463	34.52
0.43130	34.52
0.44797	34.52
0.46463	34.52
0.48130	34.52
0.49797	34.52
0.51463	34.51
0.53130	34.52
0.54797	34.52
0.56463	34.52
0.58130	34.52
0.59797	34.52
0.61463	34.52
0.63130	34.52
0.64797	34.52
0.66463	34.51
0.68130	34.52
0.69797	34.52
0.71463	34.51
0.73130	34.52
0.74797	34.52
0.76463	34.52
0.78130	34.52
0.79797	34.52
0.81463	34.51
0.83130	34.53
0.84797	34.52
0.86463	34.52
0.88130	34.52
0.89797	34.52
0.91463	34.53
0.93130	34.52
0.94797	34.52
0.96463	34.52
0.98130	34.52
0.99797	34.52
1.01463	34.52
1.03130	34.52
1.04797	34.52
1.06463	34.52
1.08130	34.52
1.09797	34.52
1.11463	34.52
1.13130	34.52
1.14797	34.52
1.16463	34.52
1.18130	34.52
1.19797	34.52
1.21463	34.52
1.23130	34.52
1.24797	34.52
1.26463	34.52
1.28130	34.52
1.29797	34.52
1.31463	34.52
1.33130	34.52
1.34797	34.52
1.36463	34.52
1.38130	34.52
1.39797	34.52
1.41463	34.52
1.43130	34.52
1.44797	34.52
1.46463	34.52
1.48130	34.52
1.49797	34.52
1.51463	34.52
1.53130	34.52
1.54797	34.52
1.56463	34.52
1.58130	34.51
1.59797	34.52
1.61463	34.52
1.63130	34.52
1.64797	34.52
1.66463	34.52
1.68130	34.52
1.69797	34.52
1.71463	34.52
1.73130	34.52
1.74797	34.52
1.76463	34.52
1.78130	34.52
1.79797	34.52
1.81463	34.52
1.83130	34.52
1.84797	34.52
1.86463	34.52
1.88130	34.51
1.89797	34.52
1.91463	34.52
1.93130	34.52
1.94797	34.52
1.96463	34.52
1.98130	34.52
1.99797	34.52
2.01463	34.52
2.03130	34.52
2.04797	34.51
2.06463	34.52
2.08130	34.52
2.09797	34.52
2.11463	34.53
2.13130	34.52
2.14797	34.52
2.16463	34.52
2.18130	34.52
2.19797	34.51
2.21463	34.53
2.23130	34.51
2.24797	34.52
2.26463	34.52
2.28130	34.53
2.29797	34.52
2.31463	34.52
2.33130	34.52
2.34797	34.52
2.36463	34.51
2.38130	34.52
2.39797	34.52
2.41463	34.53
2.43130	34.52
2.44797	34.52
2.46463	34.52
2.48130	34.52
2.49797	34.52
2.51463	34.52
2.53130	34.52
2.54797	34.52
2.56463	34.52
2.58130	34.51
2.59797	34.52
2.61463	34.52
2.63130	34.52
2.64797	34.52
2.66463	34.52
2.68130	34.52
2.69797	34.52
2.71463	34.52
2.73130	34.53
2.74797	34.51
2.76463	34.52
2.78130	34.52
2.79797	34.52
2.81463	34.52
2.83130	34.52
2.84797	34.52
2.86463	34.52
2.88130	34.51
2.89797	34.52
2.91463	34.53
2.93130	34.52
2.94797	34.51
2.96463	34.51
2.98130	34.52
2.99797	34.52
3.01463	34.52
3.03130	34.51
3.04797	34.52
3.06463	34.52
3.08130	34.52
3.09797	34.51
3.11463	34.52
3.13130	34.52
3.14797	34.52
3.16463	34.52
3.18130	34.51
3.19797	34.53
3.21463	34.52
3.23130	34.52
3.24797	34.52
3.26463	34.52
3.28130	34.52
3.29797	34.52
3.31463	34.51
3.33130	34.52
3.34797	34.53
3.36463	34.52
3.38130	34.52
3.39797	34.52
3.41463	34.52
3.43130	34.52
3.44797	34.51
3.46463	34.51
3.48130	34.52
3.49797	34.52
3.51463	34.52
3.53130	34.52
3.54797	34.52
3.56463	34.51
3.58130	34.52
3.59797	34.53
3.61463	34.52
3.63130	34.51
3.64797	34.52
3.66463	34.52
3.68130	34.52
3.69797	34.52
3.71463	34.52
3.73130	34.51
3.74797	34.51
3.76463	34.51
3.78130	34.52
3.79797	34.52
3.81463	34.52
3.83130	34.52
3.84797	34.52
3.86463	34.52
3.88130	34.52
3.89797	34.52
3.91463	34.52
3.93130	34.52
3.94797	34.51
3.96463	34.52
3.98130	34.52
3.99797	34.52

[Status Trace (Column Flow)]
Interval(msec)	1000
# of Points	240
Start Time(min)	0.015
End Time(min)	3.998
Intensity Units	
Intensity Multiplier	1
R.Time (min)	Intensity
0.01463	5.47
0.03130	5.28
0.04797	5.55
0.06463	5.77
0.08130	5.62
0.09797	5.55
0.11463	5.55
0.13130	5.55
0.14797	5.55
0.16463	5.55
0.18130	5.55
0.19797	5.55
0.21463	5.55
0.23130	5.55
0.24797	5.55
0.26463	5.55
0.28130	5.56
0.29797	5.56
0.31463	5.56
0.33130	5.56
0.34797	5.55
0.36463	5.55
0.38130	5.55
0.39797	5.55
0.41463	5.55
0.43130	5.55
0.44797	5.55
0.46463	5.55
0.48130	5.55
0.49797	5.55
0.51463	5.55
0.53130	5.55
0.54797	5.55
0.56463	5.55
0.58130	5.55
0.59797	5.55
0.61463	5.55
0.63130	5.55
0.64797	5.55
0.66463	5.55
0.68130	5.55
0.69797	5.55
0.71463	5.56
0.73130	5.56
0.74797	5.55
0.76463	5.55
0.78130	5.55
0.79797	5.55
0.81463	5.55
0.83130	5.55
0.84797	5.55
0.86463	5.55
0.88130	5.55
0.89797	5.55
0.91463	5.55
0.93130	5.55
0.94797	5.55
0.96463	5.55
0.98130	5.55
0.99797	5.55
1.01463	5.55
1.03130	5.55
1.04797	5.55
1.06463	5.55
1.08130	5.55
1.09797	5.55
1.11463	5.55
1.13130	5.55
1.14797	5.55
1.16463	5.55
1.18130	5.55
1.19797	5.55
1.21463	5.55
1.23130	5.55
1.24797	5.55
1.26463	5.55
1.28130	5.55
1.29797	5.55
1.31463	5.55
1.33130	5.55
1.34797	5.55
1.36463	5.55
1.38130	5.55
1.39797	5.55
1.41463	5.55
1.43130	5.56
1.44797	5.56
1.46463	5.56
1.48130	5.56
1.49797	5.56
1.51463	5.56
1.53130	5.56
1.54797	5.56
1.56463	5.55
1.58130	5.55
1.59797	5.55
1.61463	5.55
1.63130	5.55
1.64797	5.54
1.66463	5.53
1.68130	5.52
1.69797	5.51
1.71463	5.50
1.73130	5.49
1.74797	5.48
1.76463	5.47
1.78130	5.45
1.79797	5.44
1.81463	5.44
1.83130	5.43
1.84797	5.42
1.86463	5.40
1.88130	5.40
1.89797	5.39
1.91463	5.38
1.93130	5.37
1.94797	5.36
1.96463	5.35
1.98130	5.34
1.99797	5.33
2.01463	5.32
2.03130	5.31
2.04797	5.30
2.06463	5.29
2.08130	5.28
2.09797	5.27
2.11463	5.26
2.13130	5.25
2.14797	5.24
2.16463	5.23
2.18130	5.22
2.19797	5.21
2.21463	5.20
2.23130	5.19
2.24797	5.18
2.26463	5.18
2.28130	5.17
2.29797	5.16
2.31463	5.15
2.33130	5.14
2.34797	5.13
2.36463	5.12
2.38130	5.12
2.39797	5.12
2.41463	5.12
2.43130	5.12
2.44797	5.12
2.46463	5.12
2.48130	5.12
2.49797	5.12
2.51463	5.11
2.53130	5.11
2.54797	5.11
2.56463	5.11
2.58130	5.11
2.59797	5.11
2.61463	5.11
2.63130	5.11
2.64797	5.11
2.66463	5.11
2.68130	5.11
2.69797	5.11
2.71463	5.11
2.73130	5.11
2.74797	5.11
2.76463	5.11
2.78130	5.11
2.79797	5.11
2.81463	5.11
2.83130	5.11
2.84797	5.11
2.86463	5.11
2.88130	5.11
2.89797	5.11
2.91463	5.11
2.93130	5.11
2.94797	5.11
2.96463	5.11
2.98130	5.11
2.99797	5.11
3.01463	5.11
3.03130	5.11
3.04797	5.11
3.06463	5.11
3.08130	5.11
3.09797	5.11
3.11463	5.11
3.13130	5.11
3.14797	5.11
3.16463	5.11
3.18130	5.11
3.19797	5.11
3.21463	5.11
3.23130	5.11
3.24797	5.11
3.26463	5.11
3.28130	5.11
3.29797	5.11
3.31463	5.11
3.33130	5.11
3.34797	5.11
3.36463	5.11
3.38130	5.11
3.39797	5.11
3.41463	5.11
3.43130	5.11
3.44797	5.11
3.46463	5.11
3.48130	5.11
3.49797	5.11
3.51463	5.11
3.53130	5.11
3.54797	5.11
3.56463	5.11
3.58130	5.11
3.59797	5.11
3.61463	5.11
3.63130	5.11
3.64797	5.11
3.66463	5.11
3.68130	5.11
3.69797	5.11
3.71463	5.11
3.73130	5.11
3.74797	5.11
3.76463	5.11
3.78130	5.11
3.79797	5.11
3.81463	5.11
3.83130	5.11
3.84797	5.11
3.86463	5.11
3.88130	5.11
3.89797	5.11
3.91463	5.11
3.93130	5.11
3.94797	5.11
3.96463	5.11
3.98130	5.11
3.99797	5.11

[Status Trace (Linear Velocity)]
Interval(msec)	1000
# of Points	240
Start Time(min)	0.015
End Time(min)	3.998
Intensity Units	
Intensity Multiplier	1
R.Time (min)	Intensity
0.01463	38.56
0.03130	37.48
0.04797	39.00
0.06463	40.24
0.08130	39.42
0.09797	39.00
0.11463	39.02
0.13130	39.03
0.14797	39.02
0.16463	39.02
0.18130	39.02
0.19797	39.02
0.21463	39.02
0.23130	39.02
0.24797	39.03
0.26463	39.03
0.28130	39.03
0.29797	39.03
0.31463	39.03
0.33130	39.03
0.34797	39.03
0.36463	39.03
0.38130	39.03
0.39797	39.03
0.41463	39.03
0.43130	39.02
0.44797	39.02
0.46463	39.02
0.48130	39.02
0.49797	39.02
0.51463	39.02
0.53130	39.02
0.54797	39.02
0.56463	39.02
0.58130	39.02
0.59797	39.03
0.61463	39.02
0.63130	39.02
0.64797	39.02
0.66463	39.03
0.68130	39.03
0.69797	39.03
0.71463	39.03
0.73130	39.03
0.74797	39.03
0.76463	39.03
0.78130	39.03
0.79797	39.03
0.81463	39.03
0.83130	39.03
0.84797	39.02
0.86463	39.02
0.88130	39.02
0.89797	39.02
0.91463	39.02
0.93130	39.02
0.94797	39.02
0.96463	39.02
0.98130	39.02
0.99797	39.02
1.01463	39.02
1.03130	39.02
1.04797	39.02
1.06463	39.03
1.08130	39.03
1.09797	39.03
1.11463	39.03
1.13130	39.03
1.14797	39.02
1.16463	39.02
1.18130	39.03
1.19797	39.02
1.21463	39.02
1.23130	39.03
1.24797	39.03
1.26463	39.02
1.28130	39.02
1.29797	39.02
1.31463	39.02
1.33130	39.02
1.34797	39.02
1.36463	39.02
1.38130	39.03
1.39797	39.03
1.41463	39.03
1.43130	39.03
1.44797	39.03
1.46463	39.03
1.48130	39.03
1.49797	39.03
1.51463	39.03
1.53130	39.03
1.54797	39.03
1.56463	39.03
1.58130	39.02
1.59797	39.02
1.61463	39.01
1.63130	39.00
1.64797	38.98
1.66463	38.95
1.68130	38.92
1.69797	38.89
1.71463	38.85
1.73130	38.82
1.74797	38.79
1.76463	38.76
1.78130	38.72
1.79797	38.69
1.81463	38.66
1.83130	38.63
1.84797	38.60
1.86463	38.57
1.88130	38.54
1.89797	38.51
1.91463	38.48
1.93130	38.45
1.94797	38.41
1.96463	38.38
1.98130	38.35
1.99797	38.32
2.01463	38.29
2.03130	38.26
2.04797	38.24
2.06463	38.21
2.08130	38.18
2.09797	38.15
2.11463	38.12
2.13130	38.09
2.14797	38.06
2.16463	38.03
2.18130	38.00
2.19797	37.97
2.21463	37.94
2.23130	37.91
2.24797	37.88
2.26463	37.85
2.28130	37.82
2.29797	37.79
2.31463	37.76
2.33130	37.73
2.34797	37.70
2.36463	37.68
2.38130	37.67
2.39797	37.66
2.41463	37.67
2.43130	37.67
2.44797	37.67
2.46463	37.67
2.48130	37.66
2.49797	37.66
2.51463	37.66
2.53130	37.65
2.54797	37.66
2.56463	37.66
2.58130	37.66
2.59797	37.66
2.61463	37.65
2.63130	37.65
2.64797	37.65
2.66463	37.65
2.68130	37.65
2.69797	37.65
2.71463	37.65
2.73130	37.65
2.74797	37.65
2.76463	37.65
2.78130	37.65
2.79797	37.65
2.81463	37.65
2.83130	37.65
2.84797	37.65
2.86463	37.65
2.88130	37.65
2.89797	37.65
2.91463	37.65
2.93130	37.65
2.94797	37.65
2.96463	37.64
2.98130	37.64
2.99797	37.64
3.01463	37.64
3.03130	37.64
3.04797	37.64
3.06463	37.64
3.08130	37.64
3.09797	37.64
3.11463	37.64
3.13130	37.64
3.14797	37.64
3.16463	37.64
3.18130	37.64
3.19797	37.64
3.21463	37.64
3.23130	37.64
3.24797	37.63
3.26463	37.63
3.28130	37.63
3.29797	37.63
3.31463	37.63
3.33130	37.63
3.34797	37.63
3.36463	37.63
3.38130	37.63
3.39797	37.63
3.41463	37.63
3.43130	37.63
3.44797	37.63
3.46463	37.63
3.48130	37.63
3.49797	37.63
3.51463	37.63
3.53130	37.63
3.54797	37.63
3.56463	37.63
3.58130	37.63
3.59797	37.64
3.61463	37.63
3.63130	37.63
3.64797	37.63
3.66463	37.63
3.68130	37.63
3.69797	37.63
3.71463	37.63
3.73130	37.63
3.74797	37.63
3.76463	37.63
3.78130	37.63
3.79797	37.63
3.81463	37.63
3.83130	37.63
3.84797	37.63
3.86463	37.63
3.88130	37.63
3.89797	37.63
3.91463	37.63
3.93130	37.64
3.94797	37.64
3.96463	37.64
3.98130	37.64
3.99797	37.64

