[Header]
Application Name	LabSolutions
Version	5.110
Data File Name	C:\Users\User\Desktop\GC Analyses\Jack\Nachusa Grasslands Sampling\T4 Timepoint July 12th\T4_07122022_005.gcd
Output Date	3/17/2023
Output Time	12:04:50 PM

[File Information]
Type	Data File
Generated	3/14/2023 3:50:30 PM
Generated by	System Administrator
Modified	3/14/2023 3:57:05 PM
Modified by	System Administrator

[Sample Information]
Operator Name	System Administrator
Acquired	3/14/2023 3:53:05 PM
Sample Type	0:Unknown
Level	0
Sample Name	005
Sample ID	005
ISTD Amount1	1
ISTD Amount2	1
ISTD Amount3	1
ISTD Amount4	1
ISTD Amount5	1
ISTD Amount6	1
ISTD Amount7	1
ISTD Amount8	1
ISTD Amount9	1
ISTD Amount10	1
ISTD Amount11	1
ISTD Amount12	1
ISTD Amount13	1
ISTD Amount14	1
ISTD Amount15	1
ISTD Amount16	1
ISTD Amount17	1
ISTD Amount18	1
ISTD Amount19	1
ISTD Amount20	1
ISTD Amount21	1
ISTD Amount22	1
ISTD Amount23	1
ISTD Amount24	1
ISTD Amount25	1
ISTD Amount26	1
ISTD Amount27	1
ISTD Amount28	1
ISTD Amount29	1
ISTD Amount30	1
ISTD Amount31	1
ISTD Amount32	1
Sample Amount	1
Dilution Factor	1
Vial#	4
Injection Volume	1
Injection Count	1
Bar Code	

[Original Files]
Data File	C:\Users\User\Desktop\GC Analyses\Jack\Nachusa Grasslands Sampling\T4 Timepoint July 12th\T4_07122022_005.gcd
Method File	C:\LabSolutions\Data\GHG_4min_2022\ghg3_togas_w_acet_4 min_new_int.gcm
Batch File	C:\LabSolutions\Data\AutoSamplerTesting\T4_07122022.gcb
Report Format File	c:\LabSolutions\System\DEFAULT.lsr

[File Description]


[Configuration]
Instrument Name	C0B7VH3-Instrument1
Instrument #	1
Line #	1
# of Detectors	3
Detector ID	DET#1	DET#2	DET#3
Detector Name	FID	PTCD	ECD
# of Channels	1	1	1

[Peak Table(Ch1)]
# of Peaks	3
Peak#	R.Time	I.Time	F.Time	Area	Height	A/H	Conc.	Mark	ID#	Name	k'	Plate #	Plate Ht.	Tailing	Resolution	Sep.Factor	Area Ratio	Height Ratio	Conc. %	Norm Conc.
1	1.461	1.443	1.505	936	417	2.243	6.607	   	1	CO	0.000	9393	15.970	1.695	0.000	0.000	0	0	0.739	0.739
2	1.571	1.538	1.622	18804	9613	1.956	363.591	   	2	CH4	0.075	11651	12.874	1.127	1.856	0.000	0	0	40.647	40.647
3	2.000	1.952	2.348	2089121	1000107	2.089	524.313	   	3	CO2	0.369	17447	8.598	1.181	7.223	4.900	0	0	58.614	58.614

[Peak Table(Ch2)]
# of Peaks	0

[Peak Table(Ch3)]
# of Peaks	5
Peak#	R.Time	I.Time	F.Time	Area	Height	A/H	Conc.	Mark	ID#	Name	k'	Plate #	Plate Ht.	Tailing	Resolution	Sep.Factor	Area Ratio	Height Ratio	Conc. %	Norm Conc.
1	2.462	2.345	2.510	1893	609	3.109	0.000	   			0.000	9593	15.637	0.000	0.000	0.000	0	0	0.000	0.000
2	2.528	2.510	2.587	1140	355	3.209	0.000	 V 			0.027	5226	28.704	0.000	0.549	0.000	0	0	0.000	0.000
3	2.601	2.587	2.686	553	162	3.404	0.000	 V 			0.057	1278	117.358	0.000	0.340	2.111	0	0	0.000	0.000
4	2.880	2.708	3.104	55182	14268	3.868	1.409	   	1	N2O	0.170	12693	11.817	1.540	1.417	3.000	0	0	100.000	100.000
5	3.448	3.287	3.580	249	28	8.742	0.000	   	2	SF6	0.401	2241	66.947	0.829	2.888	2.360	0	0	0.000	0.000

[Compound Results(Ch1)]
# of IDs	6
ID#	Name	R.Time	Area	Height	Conc.	Curve	3rd	2nd	1st	Constant	Area Ratio	Height Ratio	Conc. %	Norm Conc.
1	CO	1.461	936	417	6.607	Linear	0.000000e+00	0.000000e+00	1.416423e+002	0.000000e+00	0	0	0.739	0.739
2	CH4	1.571	18804	9613	363.591	Linear	0.000000e+00	0.000000e+00	5.171738e+001	0.000000e+00	0	0	40.647	40.647
3	CO2	2.000	2089121	1000107	524.313	Linear	0.000000e+00	0.000000e+00	3.984494e+003	0.000000e+00	0	0	58.614	58.614
4	Ethylene	0.000	0	0	0.000	Linear	0.000000e+00	0.000000e+00	0.000000e+00	0.000000e+00	0	0	0.000	0.000
5	Acetylene	0.000	0	0	0.000	Linear	0.000000e+00	0.000000e+00	0.000000e+00	0.000000e+00	0	0	0.000	0.000
6	Ethane	0.000	0	0	0.000	Linear	0.000000e+00	0.000000e+00	0.000000e+00	0.000000e+00	0	0	0.000	0.000

[Compound Results(Ch2)]
# of IDs	5
ID#	Name	R.Time	Area	Height	Conc.	Curve	3rd	2nd	1st	Constant	Area Ratio	Height Ratio	Conc. %	Norm Conc.
1	Hydrogen	0.000	0	0	0.000	Linear	0.000000e+00	0.000000e+00	0.000000e+00	0.000000e+00	0	0	0.000	0.000
2	Oxygen	0.000	0	0	0.000	Linear	0.000000e+00	0.000000e+00	0.000000e+00	0.000000e+00	0	0	0.000	0.000
3	Nitrogen	0.000	0	0	0.000	Linear	0.000000e+00	0.000000e+00	0.000000e+00	0.000000e+00	0	0	0.000	0.000
4	Methane	0.000	0	0	0.000	Linear	0.000000e+00	0.000000e+00	0.000000e+00	0.000000e+00	0	0	0.000	0.000
5	Carbon Monoxide	0.000	0	0	0.000	Linear	0.000000e+00	0.000000e+00	0.000000e+00	0.000000e+00	0	0	0.000	0.000

[Compound Results(Ch3)]
# of IDs	2
ID#	Name	R.Time	Area	Height	Conc.	Curve	3rd	2nd	1st	Constant	Area Ratio	Height Ratio	Conc. %	Norm Conc.
1	N2O	2.880	55182	14268	1.409	Linear	0.000000e+00	0.000000e+00	3.915173e+004	0.000000e+00	0	0	100.000	100.000
2	SF6	3.448	249	28	0.000	Linear	0.000000e+00	0.000000e+00	0.000000e+00	0.000000e+00	0	0	0.000	0.000

[Group Results(Ch1)]
# of Groups	0

[Group Results(Ch2)]
# of Groups	0

[Group Results(Ch3)]
# of Groups	0

[Chromatogram (Ch1)]
Interval(msec)	220
# of Points	1091
Start Time(min)	0.002
End Time(min)	3.998
R.Time (min)	Intensity
0.00167	-5
0.00533	-2
0.00900	2
0.01267	7
0.01633	11
0.02000	11
0.02367	11
0.02733	12
0.03100	14
0.03467	16
0.03833	19
0.04200	21
0.04567	16
0.04933	13
0.05300	8
0.05667	-1
0.06033	-7
0.06400	-6
0.06767	-3
0.07133	1
0.07500	4
0.07867	6
0.08233	5
0.08600	-1
0.08967	-8
0.09333	-12
0.09700	-11
0.10067	-9
0.10433	-7
0.10800	-3
0.11167	-1
0.11533	-1
0.11900	-1
0.12267	1
0.12633	5
0.13000	8
0.13367	10
0.13733	12
0.14100	10
0.14467	8
0.14833	9
0.15200	14
0.15567	18
0.15933	20
0.16300	21
0.16667	19
0.17033	16
0.17400	13
0.17767	11
0.18133	14
0.18500	17
0.18867	12
0.19233	3
0.19600	-4
0.19967	-7
0.20333	-6
0.20700	-4
0.21067	1
0.21433	5
0.21800	9
0.22167	6
0.22533	-1
0.22900	-6
0.23267	-9
0.23633	-11
0.24000	-9
0.24367	-3
0.24733	6
0.25100	12
0.25467	8
0.25833	1
0.26200	-1
0.26567	0
0.26933	0
0.27300	0
0.27667	3
0.28033	8
0.28400	15
0.28767	20
0.29133	19
0.29500	14
0.29867	8
0.30233	2
0.30600	-0
0.30967	1
0.31333	3
0.31700	4
0.32067	4
0.32433	1
0.32800	1
0.33167	3
0.33533	7
0.33900	11
0.34267	13
0.34633	11
0.35000	9
0.35367	14
0.35733	20
0.36100	22
0.36467	21
0.36833	17
0.37200	19
0.37567	28
0.37933	34
0.38300	32
0.38667	21
0.39033	12
0.39400	9
0.39767	0
0.40133	-13
0.40500	-25
0.40867	-31
0.41233	-29
0.41600	-21
0.41967	-13
0.42333	-10
0.42700	-4
0.43067	5
0.43433	13
0.43800	18
0.44167	21
0.44533	20
0.44900	17
0.45267	17
0.45633	18
0.46000	18
0.46367	14
0.46733	8
0.47100	5
0.47467	8
0.47833	11
0.48200	12
0.48567	11
0.48933	13
0.49300	16
0.49667	15
0.50033	17
0.50400	23
0.50767	31
0.51133	41
0.51500	51
0.51867	54
0.52233	42
0.52600	24
0.52967	5
0.53333	-7
0.53700	-16
0.54067	-23
0.54433	-26
0.54800	-24
0.55167	-17
0.55533	-12
0.55900	-10
0.56267	-9
0.56633	-6
0.57000	-3
0.57367	-1
0.57733	4
0.58100	7
0.58467	10
0.58833	11
0.59200	12
0.59567	13
0.59933	15
0.60300	14
0.60667	18
0.61033	25
0.61400	32
0.61767	37
0.62133	38
0.62500	32
0.62867	25
0.63233	18
0.63600	15
0.63967	12
0.64333	8
0.64700	-0
0.65067	-7
0.65433	-11
0.65800	-11
0.66167	-5
0.66533	8
0.66900	14
0.67267	9
0.67633	-1
0.68000	-11
0.68367	-19
0.68733	-23
0.69100	-22
0.69467	-17
0.69833	-12
0.70200	-10
0.70567	-7
0.70933	-3
0.71300	4
0.71667	10
0.72033	15
0.72400	14
0.72767	3
0.73133	-1
0.73500	-1
0.73867	-6
0.74233	-6
0.74600	2
0.74967	9
0.75333	13
0.75700	13
0.76067	12
0.76433	10
0.76800	7
0.77167	3
0.77533	-2
0.77900	-10
0.78267	-12
0.78633	-12
0.79000	-12
0.79367	-9
0.79733	-7
0.80100	-5
0.80467	-8
0.80833	-12
0.81200	-10
0.81567	-2
0.81933	9
0.82300	19
0.82667	23
0.83033	17
0.83400	3
0.83767	-10
0.84133	-20
0.84500	-22
0.84867	-14
0.85233	-2
0.85600	13
0.85967	22
0.86333	21
0.86700	12
0.87067	0
0.87433	-10
0.87800	-19
0.88167	-26
0.88533	-28
0.88900	-24
0.89267	-16
0.89633	-12
0.90000	-10
0.90367	-9
0.90733	-0
0.91100	10
0.91467	19
0.91833	24
0.92200	28
0.92567	28
0.92933	21
0.93300	12
0.93667	5
0.94033	3
0.94400	1
0.94767	-4
0.95133	-7
0.95500	-7
0.95867	-2
0.96233	3
0.96600	9
0.96967	17
0.97333	24
0.97700	23
0.98067	18
0.98433	15
0.98800	16
0.99167	14
0.99533	9
0.99900	5
1.00267	0
1.00633	-4
1.01000	-4
1.01367	-3
1.01733	-1
1.02100	-1
1.02467	1
1.02833	6
1.03200	13
1.03567	20
1.03933	25
1.04300	24
1.04667	22
1.05033	21
1.05400	18
1.05767	15
1.06133	11
1.06500	7
1.06867	3
1.07233	-4
1.07600	-9
1.07967	-11
1.08333	-10
1.08700	-7
1.09067	-8
1.09433	-10
1.09800	-12
1.10167	-10
1.10533	-4
1.10900	-1
1.11267	-3
1.11633	-9
1.12000	-14
1.12367	-17
1.12733	-15
1.13100	-12
1.13467	-3
1.13833	9
1.14200	15
1.14567	14
1.14933	10
1.15300	4
1.15667	-4
1.16033	-9
1.16400	-10
1.16767	-11
1.17133	-12
1.17500	-11
1.17867	-8
1.18233	-10
1.18600	-8
1.18967	-9
1.19333	-13
1.19700	-13
1.20067	-13
1.20433	-14
1.20800	-18
1.21167	-21
1.21533	-22
1.21900	-20
1.22267	-22
1.22633	-26
1.23000	-26
1.23367	-22
1.23733	-15
1.24100	-8
1.24467	3
1.24833	11
1.25200	10
1.25567	6
1.25933	7
1.26300	9
1.26667	7
1.27033	3
1.27400	3
1.27767	4
1.28133	1
1.28500	-1
1.28867	-2
1.29233	-3
1.29600	-5
1.29967	-8
1.30333	-10
1.30700	-11
1.31067	-8
1.31433	-6
1.31800	-4
1.32167	-2
1.32533	2
1.32900	3
1.33267	-1
1.33633	3
1.34000	10
1.34367	16
1.34733	18
1.35100	14
1.35467	6
1.35833	2
1.36200	-0
1.36567	1
1.36933	5
1.37300	7
1.37667	9
1.38033	8
1.38400	7
1.38767	9
1.39133	9
1.39500	3
1.39867	-7
1.40233	-17
1.40600	-21
1.40967	-21
1.41333	-20
1.41700	-17
1.42067	-14
1.42433	-15
1.42800	-16
1.43167	-12
1.43533	-8
1.43900	-2
1.44267	25
1.44633	114
1.45000	253
1.45367	361
1.45733	407
1.46100	399
1.46467	362
1.46833	317
1.47200	281
1.47567	266
1.47933	256
1.48300	229
1.48667	180
1.49033	113
1.49400	42
1.49767	-22
1.50133	-76
1.50500	-122
1.50867	-153
1.51233	-169
1.51600	-179
1.51967	-187
1.52333	-193
1.52700	-197
1.53067	-198
1.53433	-190
1.53800	-140
1.54167	85
1.54533	754
1.54900	2051
1.55267	3839
1.55633	5735
1.56000	7401
1.56367	8661
1.56733	9412
1.57100	9534
1.57467	8938
1.57833	7714
1.58200	6158
1.58567	4601
1.58933	3264
1.59300	2229
1.59667	1474
1.60033	949
1.60400	593
1.60767	357
1.61133	203
1.61500	110
1.61867	54
1.62233	17
1.62600	-14
1.62967	-38
1.63333	-59
1.63700	-75
1.64067	-81
1.64433	-84
1.64800	-90
1.65167	-93
1.65533	-93
1.65900	-92
1.66267	-88
1.66633	-83
1.67000	-74
1.67367	-65
1.67733	-56
1.68100	-56
1.68467	-64
1.68833	-72
1.69200	-79
1.69567	-85
1.69933	-89
1.70300	-91
1.70667	-92
1.71033	-92
1.71400	-93
1.71767	-92
1.72133	-88
1.72500	-79
1.72867	-71
1.73233	-66
1.73600	-62
1.73967	-61
1.74333	-61
1.74700	-59
1.75067	-60
1.75433	-64
1.75800	-65
1.76167	-66
1.76533	-72
1.76900	-82
1.77267	-89
1.77633	-94
1.78000	-94
1.78367	-92
1.78733	-88
1.79100	-87
1.79467	-87
1.79833	-81
1.80200	-72
1.80567	-66
1.80933	-63
1.81300	-59
1.81667	-53
1.82033	-45
1.82400	-31
1.82767	-17
1.83133	-12
1.83500	-14
1.83867	-17
1.84233	-25
1.84600	-34
1.84967	-42
1.85333	-55
1.85700	-68
1.86067	-74
1.86433	-81
1.86800	-82
1.87167	-79
1.87533	-75
1.87900	-67
1.88267	-58
1.88633	-55
1.89000	-59
1.89367	-65
1.89733	-66
1.90100	-62
1.90467	-57
1.90833	-54
1.91200	-50
1.91567	-48
1.91933	-45
1.92300	-43
1.92667	-40
1.93033	-36
1.93400	-34
1.93767	-39
1.94133	-45
1.94500	-49
1.94867	-47
1.95233	-38
1.95600	44
1.95967	598
1.96333	3407
1.96700	14135
1.97067	45416
1.97433	115770
1.97800	238821
1.98167	409467
1.98533	601505
1.98900	780705
1.99267	918117
1.99633	994279
2.00000	1000097
2.00367	937991
2.00733	823048
2.01100	678858
2.01467	530082
2.01833	395543
2.02200	285056
2.02567	200516
2.02933	139022
2.03300	95832
2.03667	66192
2.04033	46134
2.04400	32646
2.04767	23568
2.05133	17419
2.05500	13212
2.05867	10294
2.06233	8234
2.06600	6742
2.06967	5637
2.07333	4797
2.07700	4145
2.08067	3627
2.08433	3206
2.08800	2863
2.09167	2582
2.09533	2348
2.09900	2152
2.10267	1983
2.10633	1836
2.11000	1709
2.11367	1597
2.11733	1491
2.12100	1387
2.12467	1292
2.12833	1210
2.13200	1138
2.13567	1077
2.13933	1027
2.14300	983
2.14667	938
2.15033	893
2.15400	845
2.15767	801
2.16133	765
2.16500	739
2.16867	721
2.17233	705
2.17600	683
2.17967	650
2.18333	615
2.18700	582
2.19067	552
2.19433	527
2.19800	506
2.20167	487
2.20533	469
2.20900	456
2.21267	450
2.21633	445
2.22000	438
2.22367	429
2.22733	416
2.23100	404
2.23467	391
2.23833	380
2.24200	376
2.24567	374
2.24933	369
2.25300	361
2.25667	353
2.26033	347
2.26400	343
2.26767	337
2.27133	326
2.27500	313
2.27867	301
2.28233	285
2.28600	271
2.28967	261
2.29333	255
2.29700	251
2.30067	247
2.30433	242
2.30800	242
2.31167	251
2.31533	263
2.31900	266
2.32267	258
2.32633	244
2.33000	230
2.33367	219
2.33733	210
2.34100	203
2.34467	199
2.34833	194
2.35200	191
2.35567	191
2.35933	190
2.36300	192
2.36667	197
2.37033	199
2.37400	196
2.37767	190
2.38133	182
2.38500	174
2.38867	170
2.39233	170
2.39600	169
2.39967	170
2.40333	172
2.40700	174
2.41067	173
2.41433	170
2.41800	170
2.42167	168
2.42533	165
2.42900	162
2.43267	158
2.43633	154
2.44000	158
2.44367	164
2.44733	166
2.45100	166
2.45467	163
2.45833	159
2.46200	156
2.46567	158
2.46933	164
2.47300	169
2.47667	169
2.48033	165
2.48400	156
2.48767	147
2.49133	142
2.49500	140
2.49867	144
2.50233	154
2.50600	163
2.50967	162
2.51333	151
2.51700	135
2.52067	123
2.52433	118
2.52800	119
2.53167	122
2.53533	127
2.53900	127
2.54267	126
2.54633	123
2.55000	123
2.55367	127
2.55733	132
2.56100	137
2.56467	144
2.56833	147
2.57200	144
2.57567	138
2.57933	135
2.58300	134
2.58667	135
2.59033	136
2.59400	136
2.59767	136
2.60133	137
2.60500	137
2.60867	135
2.61233	132
2.61600	133
2.61967	133
2.62333	131
2.62700	132
2.63067	134
2.63433	135
2.63800	137
2.64167	140
2.64533	143
2.64900	146
2.65267	147
2.65633	147
2.66000	147
2.66367	140
2.66733	135
2.67100	143
2.67467	157
2.67833	168
2.68200	173
2.68567	171
2.68933	166
2.69300	159
2.69667	148
2.70033	140
2.70400	138
2.70767	140
2.71133	148
2.71500	158
2.71867	169
2.72233	176
2.72600	180
2.72967	178
2.73333	174
2.73700	170
2.74067	167
2.74433	168
2.74800	172
2.75167	175
2.75533	177
2.75900	178
2.76267	180
2.76633	183
2.77000	184
2.77367	189
2.77733	192
2.78100	190
2.78467	191
2.78833	197
2.79200	202
2.79567	206
2.79933	204
2.80300	198
2.80667	195
2.81033	196
2.81400	201
2.81767	204
2.82133	200
2.82500	191
2.82867	183
2.83233	184
2.83600	191
2.83967	199
2.84333	206
2.84700	209
2.85067	208
2.85433	202
2.85800	195
2.86167	195
2.86533	201
2.86900	209
2.87267	215
2.87633	219
2.88000	228
2.88367	234
2.88733	232
2.89100	224
2.89467	210
2.89833	194
2.90200	184
2.90567	181
2.90933	185
2.91300	189
2.91667	189
2.92033	185
2.92400	182
2.92767	188
2.93133	195
2.93500	195
2.93867	189
2.94233	188
2.94600	194
2.94967	203
2.95333	210
2.95700	215
2.96067	220
2.96433	223
2.96800	222
2.97167	214
2.97533	206
2.97900	199
2.98267	197
2.98633	197
2.99000	201
2.99367	205
2.99733	211
3.00100	214
3.00467	214
3.00833	214
3.01200	215
3.01567	214
3.01933	214
3.02300	218
3.02667	221
3.03033	222
3.03400	217
3.03767	208
3.04133	201
3.04500	203
3.04867	212
3.05233	221
3.05600	225
3.05967	224
3.06333	218
3.06700	210
3.07067	201
3.07433	194
3.07800	192
3.08167	195
3.08533	201
3.08900	204
3.09267	203
3.09633	203
3.10000	210
3.10367	225
3.10733	232
3.11100	234
3.11467	234
3.11833	232
3.12200	226
3.12567	218
3.12933	213
3.13300	208
3.13667	206
3.14033	209
3.14400	211
3.14767	211
3.15133	209
3.15500	209
3.15867	209
3.16233	212
3.16600	218
3.16967	222
3.17333	224
3.17700	225
3.18067	226
3.18433	230
3.18800	234
3.19167	241
3.19533	247
3.19900	258
3.20267	266
3.20633	262
3.21000	252
3.21367	239
3.21733	226
3.22100	212
3.22467	196
3.22833	184
3.23200	178
3.23567	179
3.23933	186
3.24300	194
3.24667	199
3.25033	202
3.25400	206
3.25767	208
3.26133	206
3.26500	202
3.26867	202
3.27233	204
3.27600	207
3.27967	215
3.28333	224
3.28700	230
3.29067	230
3.29433	225
3.29800	219
3.30167	216
3.30533	213
3.30900	212
3.31267	213
3.31633	214
3.32000	218
3.32367	228
3.32733	244
3.33100	258
3.33467	263
3.33833	259
3.34200	247
3.34567	229
3.34933	210
3.35300	195
3.35667	186
3.36033	185
3.36400	188
3.36767	192
3.37133	194
3.37500	196
3.37867	201
3.38233	209
3.38600	216
3.38967	221
3.39333	222
3.39700	223
3.40067	224
3.40433	224
3.40800	219
3.41167	214
3.41533	214
3.41900	218
3.42267	220
3.42633	219
3.43000	215
3.43367	214
3.43733	220
3.44100	226
3.44467	227
3.44833	223
3.45200	219
3.45567	213
3.45933	209
3.46300	207
3.46667	205
3.47033	204
3.47400	210
3.47767	217
3.48133	224
3.48500	231
3.48867	234
3.49233	232
3.49600	225
3.49967	215
3.50333	203
3.50700	196
3.51067	198
3.51433	203
3.51800	212
3.52167	219
3.52533	221
3.52900	217
3.53267	208
3.53633	197
3.54000	187
3.54367	179
3.54733	176
3.55100	177
3.55467	180
3.55833	183
3.56200	185
3.56567	184
3.56933	185
3.57300	192
3.57667	209
3.58033	226
3.58400	232
3.58767	232
3.59133	228
3.59500	227
3.59867	225
3.60233	215
3.60600	203
3.60967	194
3.61333	190
3.61700	186
3.62067	188
3.62433	197
3.62800	204
3.63167	208
3.63533	208
3.63900	210
3.64267	210
3.64633	212
3.65000	212
3.65367	211
3.65733	209
3.66100	207
3.66467	207
3.66833	206
3.67200	204
3.67567	207
3.67933	210
3.68300	207
3.68667	206
3.69033	211
3.69400	214
3.69767	205
3.70133	190
3.70500	179
3.70867	175
3.71233	176
3.71600	180
3.71967	187
3.72333	193
3.72700	197
3.73067	199
3.73433	200
3.73800	200
3.74167	202
3.74533	203
3.74900	200
3.75267	197
3.75633	194
3.76000	191
3.76367	192
3.76733	194
3.77100	195
3.77467	197
3.77833	201
3.78200	204
3.78567	207
3.78933	207
3.79300	202
3.79667	194
3.80033	181
3.80400	172
3.80767	171
3.81133	173
3.81500	176
3.81867	179
3.82233	183
3.82600	185
3.82967	183
3.83333	180
3.83700	179
3.84067	179
3.84433	182
3.84800	185
3.85167	193
3.85533	205
3.85900	212
3.86267	209
3.86633	200
3.87000	190
3.87367	184
3.87733	183
3.88100	186
3.88467	188
3.88833	190
3.89200	191
3.89567	187
3.89933	187
3.90300	181
3.90667	174
3.91033	174
3.91400	173
3.91767	172
3.92133	173
3.92500	172
3.92867	166
3.93233	160
3.93600	156
3.93967	153
3.94333	154
3.94700	158
3.95067	163
3.95433	162
3.95800	156
3.96167	148
3.96533	144
3.96900	143
3.97267	146
3.97633	154
3.98000	160
3.98367	166
3.98733	172
3.99100	176
3.99467	172
3.99833	165

[Chromatogram (Ch2)]
Interval(msec)	220
# of Points	1091
Start Time(min)	0.002
End Time(min)	3.998
R.Time (min)	Intensity
0.00167	-0
0.00533	-0
0.00900	-1
0.01267	-1
0.01633	-1
0.02000	-1
0.02367	-1
0.02733	-1
0.03100	-0
0.03467	-0
0.03833	1
0.04200	1
0.04567	2
0.04933	2
0.05300	2
0.05667	2
0.06033	2
0.06400	2
0.06767	2
0.07133	2
0.07500	2
0.07867	2
0.08233	1
0.08600	1
0.08967	1
0.09333	1
0.09700	1
0.10067	1
0.10433	1
0.10800	1
0.11167	2
0.11533	2
0.11900	2
0.12267	2
0.12633	2
0.13000	2
0.13367	2
0.13733	2
0.14100	2
0.14467	2
0.14833	2
0.15200	2
0.15567	2
0.15933	2
0.16300	2
0.16667	2
0.17033	2
0.17400	2
0.17767	2
0.18133	1
0.18500	1
0.18867	1
0.19233	1
0.19600	0
0.19967	0
0.20333	-0
0.20700	-1
0.21067	-1
0.21433	-1
0.21800	-1
0.22167	-1
0.22533	-0
0.22900	-0
0.23267	0
0.23633	0
0.24000	1
0.24367	1
0.24733	1
0.25100	0
0.25467	0
0.25833	1
0.26200	1
0.26567	1
0.26933	1
0.27300	1
0.27667	1
0.28033	2
0.28400	2
0.28767	2
0.29133	2
0.29500	2
0.29867	2
0.30233	2
0.30600	2
0.30967	2
0.31333	3
0.31700	3
0.32067	3
0.32433	3
0.32800	3
0.33167	3
0.33533	3
0.33900	2
0.34267	2
0.34633	2
0.35000	2
0.35367	2
0.35733	2
0.36100	2
0.36467	2
0.36833	2
0.37200	2
0.37567	3
0.37933	3
0.38300	3
0.38667	3
0.39033	2
0.39400	2
0.39767	2
0.40133	2
0.40500	2
0.40867	1
0.41233	2
0.41600	2
0.41967	2
0.42333	2
0.42700	2
0.43067	3
0.43433	3
0.43800	3
0.44167	3
0.44533	3
0.44900	3
0.45267	3
0.45633	3
0.46000	3
0.46367	3
0.46733	3
0.47100	2
0.47467	2
0.47833	2
0.48200	2
0.48567	2
0.48933	2
0.49300	3
0.49667	3
0.50033	3
0.50400	3
0.50767	2
0.51133	2
0.51500	2
0.51867	3
0.52233	3
0.52600	3
0.52967	3
0.53333	3
0.53700	3
0.54067	3
0.54433	4
0.54800	3
0.55167	3
0.55533	3
0.55900	3
0.56267	3
0.56633	3
0.57000	3
0.57367	3
0.57733	3
0.58100	3
0.58467	3
0.58833	3
0.59200	3
0.59567	3
0.59933	3
0.60300	3
0.60667	3
0.61033	3
0.61400	3
0.61767	3
0.62133	3
0.62500	3
0.62867	3
0.63233	2
0.63600	2
0.63967	2
0.64333	2
0.64700	2
0.65067	1
0.65433	1
0.65800	1
0.66167	1
0.66533	1
0.66900	1
0.67267	1
0.67633	0
0.68000	0
0.68367	0
0.68733	0
0.69100	-0
0.69467	-0
0.69833	-0
0.70200	-0
0.70567	-1
0.70933	-1
0.71300	-1
0.71667	-1
0.72033	-1
0.72400	-1
0.72767	-0
0.73133	-0
0.73500	0
0.73867	0
0.74233	1
0.74600	1
0.74967	1
0.75333	2
0.75700	2
0.76067	2
0.76433	2
0.76800	2
0.77167	2
0.77533	2
0.77900	3
0.78267	3
0.78633	4
0.79000	4
0.79367	4
0.79733	4
0.80100	4
0.80467	4
0.80833	4
0.81200	4
0.81567	4
0.81933	4
0.82300	4
0.82667	4
0.83033	3
0.83400	3
0.83767	3
0.84133	3
0.84500	3
0.84867	2
0.85233	2
0.85600	1
0.85967	1
0.86333	-0
0.86700	-1
0.87067	-1
0.87433	-2
0.87800	-2
0.88167	-2
0.88533	-3
0.88900	-3
0.89267	-3
0.89633	-3
0.90000	-3
0.90367	-3
0.90733	-3
0.91100	-3
0.91467	-3
0.91833	-3
0.92200	-3
0.92567	-3
0.92933	-2
0.93300	-2
0.93667	-2
0.94033	-2
0.94400	-2
0.94767	-2
0.95133	-3
0.95500	-3
0.95867	-3
0.96233	-3
0.96600	-3
0.96967	-3
0.97333	-3
0.97700	-2
0.98067	-2
0.98433	-2
0.98800	-1
0.99167	-1
0.99533	-1
0.99900	-1
1.00267	-1
1.00633	-1
1.01000	-1
1.01367	-0
1.01733	-0
1.02100	-0
1.02467	0
1.02833	0
1.03200	0
1.03567	0
1.03933	0
1.04300	0
1.04667	0
1.05033	0
1.05400	-0
1.05767	0
1.06133	0
1.06500	0
1.06867	0
1.07233	0
1.07600	0
1.07967	0
1.08333	0
1.08700	0
1.09067	0
1.09433	0
1.09800	0
1.10167	0
1.10533	0
1.10900	0
1.11267	0
1.11633	0
1.12000	0
1.12367	-0
1.12733	-0
1.13100	-0
1.13467	-0
1.13833	-1
1.14200	-1
1.14567	-1
1.14933	-1
1.15300	-1
1.15667	-1
1.16033	-1
1.16400	-1
1.16767	-1
1.17133	-1
1.17500	-1
1.17867	-1
1.18233	-1
1.18600	-1
1.18967	-1
1.19333	-1
1.19700	-2
1.20067	-2
1.20433	-1
1.20800	-1
1.21167	-1
1.21533	-1
1.21900	-1
1.22267	-1
1.22633	-1
1.23000	-1
1.23367	-1
1.23733	-1
1.24100	-1
1.24467	-1
1.24833	-1
1.25200	-0
1.25567	-0
1.25933	-0
1.26300	-0
1.26667	-0
1.27033	-0
1.27400	-0
1.27767	-0
1.28133	0
1.28500	0
1.28867	1
1.29233	1
1.29600	1
1.29967	1
1.30333	1
1.30700	1
1.31067	0
1.31433	-0
1.31800	-0
1.32167	-0
1.32533	-1
1.32900	-1
1.33267	-1
1.33633	-1
1.34000	-1
1.34367	-1
1.34733	-1
1.35100	-1
1.35467	-1
1.35833	-1
1.36200	-1
1.36567	-1
1.36933	-1
1.37300	-1
1.37667	-1
1.38033	-1
1.38400	-1
1.38767	-1
1.39133	-1
1.39500	-1
1.39867	-1
1.40233	-1
1.40600	-1
1.40967	-1
1.41333	-1
1.41700	-1
1.42067	-1
1.42433	-1
1.42800	-1
1.43167	-1
1.43533	-1
1.43900	-0
1.44267	-0
1.44633	-0
1.45000	-0
1.45367	-1
1.45733	-1
1.46100	-1
1.46467	-1
1.46833	-1
1.47200	-1
1.47567	-1
1.47933	-1
1.48300	-1
1.48667	-1
1.49033	-1
1.49400	-1
1.49767	-1
1.50133	-1
1.50500	-1
1.50867	-1
1.51233	-1
1.51600	-1
1.51967	-1
1.52333	-1
1.52700	-2
1.53067	-2
1.53433	-2
1.53800	-2
1.54167	-2
1.54533	-1
1.54900	-1
1.55267	-2
1.55633	-2
1.56000	-2
1.56367	-2
1.56733	-1
1.57100	-1
1.57467	-1
1.57833	-1
1.58200	-1
1.58567	-1
1.58933	-1
1.59300	-1
1.59667	-2
1.60033	-2
1.60400	-3
1.60767	-4
1.61133	-6
1.61500	-8
1.61867	-10
1.62233	-13
1.62600	-16
1.62967	-19
1.63333	-22
1.63700	-25
1.64067	-29
1.64433	-32
1.64800	-36
1.65167	-39
1.65533	-43
1.65900	-47
1.66267	-51
1.66633	-55
1.67000	-60
1.67367	-66
1.67733	-71
1.68100	-76
1.68467	-81
1.68833	-86
1.69200	-90
1.69567	-94
1.69933	-97
1.70300	-100
1.70667	-103
1.71033	-105
1.71400	-106
1.71767	-107
1.72133	-107
1.72500	-107
1.72867	-107
1.73233	-106
1.73600	-105
1.73967	-105
1.74333	-104
1.74700	-104
1.75067	-104
1.75433	-104
1.75800	-105
1.76167	-107
1.76533	-108
1.76900	-109
1.77267	-110
1.77633	-111
1.78000	-111
1.78367	-112
1.78733	-112
1.79100	-113
1.79467	-113
1.79833	-113
1.80200	-113
1.80567	-113
1.80933	-113
1.81300	-113
1.81667	-113
1.82033	-113
1.82400	-113
1.82767	-114
1.83133	-114
1.83500	-114
1.83867	-114
1.84233	-114
1.84600	-114
1.84967	-113
1.85333	-113
1.85700	-113
1.86067	-112
1.86433	-112
1.86800	-112
1.87167	-112
1.87533	-112
1.87900	-112
1.88267	-112
1.88633	-112
1.89000	-112
1.89367	-112
1.89733	-112
1.90100	-112
1.90467	-112
1.90833	-112
1.91200	-111
1.91567	-110
1.91933	-110
1.92300	-109
1.92667	-108
1.93033	-107
1.93400	-106
1.93767	-106
1.94133	-106
1.94500	-106
1.94867	-106
1.95233	-107
1.95600	-107
1.95967	-108
1.96333	-109
1.96700	-109
1.97067	-110
1.97433	-110
1.97800	-110
1.98167	-110
1.98533	-109
1.98900	-108
1.99267	-107
1.99633	-106
2.00000	-105
2.00367	-104
2.00733	-104
2.01100	-104
2.01467	-104
2.01833	-104
2.02200	-104
2.02567	-105
2.02933	-105
2.03300	-104
2.03667	-104
2.04033	-105
2.04400	-105
2.04767	-105
2.05133	-105
2.05500	-104
2.05867	-103
2.06233	-102
2.06600	-101
2.06967	-101
2.07333	-100
2.07700	-100
2.08067	-99
2.08433	-99
2.08800	-99
2.09167	-99
2.09533	-99
2.09900	-98
2.10267	-98
2.10633	-98
2.11000	-97
2.11367	-97
2.11733	-97
2.12100	-97
2.12467	-96
2.12833	-96
2.13200	-96
2.13567	-96
2.13933	-96
2.14300	-96
2.14667	-96
2.15033	-96
2.15400	-95
2.15767	-95
2.16133	-94
2.16500	-94
2.16867	-93
2.17233	-93
2.17600	-93
2.17967	-93
2.18333	-92
2.18700	-92
2.19067	-91
2.19433	-91
2.19800	-90
2.20167	-89
2.20533	-89
2.20900	-88
2.21267	-88
2.21633	-87
2.22000	-87
2.22367	-86
2.22733	-86
2.23100	-86
2.23467	-85
2.23833	-85
2.24200	-85
2.24567	-85
2.24933	-85
2.25300	-85
2.25667	-84
2.26033	-84
2.26400	-84
2.26767	-84
2.27133	-84
2.27500	-84
2.27867	-84
2.28233	-84
2.28600	-83
2.28967	-83
2.29333	-83
2.29700	-83
2.30067	-83
2.30433	-82
2.30800	-82
2.31167	-81
2.31533	-80
2.31900	-79
2.32267	-79
2.32633	-79
2.33000	-79
2.33367	-79
2.33733	-78
2.34100	-77
2.34467	-76
2.34833	-75
2.35200	-74
2.35567	-73
2.35933	-72
2.36300	-71
2.36667	-70
2.37033	-68
2.37400	-65
2.37767	-62
2.38133	-59
2.38500	-55
2.38867	-51
2.39233	-46
2.39600	-41
2.39967	-36
2.40333	-32
2.40700	-27
2.41067	-24
2.41433	-20
2.41800	-18
2.42167	-15
2.42533	-14
2.42900	-12
2.43267	-10
2.43633	-9
2.44000	-8
2.44367	-7
2.44733	-7
2.45100	-6
2.45467	-6
2.45833	-5
2.46200	-5
2.46567	-4
2.46933	-3
2.47300	-2
2.47667	-1
2.48033	0
2.48400	1
2.48767	2
2.49133	3
2.49500	4
2.49867	5
2.50233	6
2.50600	7
2.50967	8
2.51333	8
2.51700	9
2.52067	10
2.52433	10
2.52800	11
2.53167	11
2.53533	12
2.53900	13
2.54267	13
2.54633	14
2.55000	14
2.55367	14
2.55733	14
2.56100	14
2.56467	14
2.56833	14
2.57200	14
2.57567	15
2.57933	15
2.58300	15
2.58667	16
2.59033	17
2.59400	18
2.59767	18
2.60133	19
2.60500	19
2.60867	19
2.61233	19
2.61600	19
2.61967	18
2.62333	18
2.62700	18
2.63067	18
2.63433	18
2.63800	18
2.64167	18
2.64533	19
2.64900	19
2.65267	20
2.65633	20
2.66000	21
2.66367	21
2.66733	21
2.67100	21
2.67467	21
2.67833	21
2.68200	22
2.68567	22
2.68933	22
2.69300	23
2.69667	23
2.70033	22
2.70400	22
2.70767	22
2.71133	22
2.71500	22
2.71867	22
2.72233	23
2.72600	23
2.72967	24
2.73333	24
2.73700	24
2.74067	25
2.74433	25
2.74800	25
2.75167	25
2.75533	26
2.75900	26
2.76267	27
2.76633	28
2.77000	28
2.77367	28
2.77733	28
2.78100	28
2.78467	28
2.78833	27
2.79200	26
2.79567	25
2.79933	25
2.80300	24
2.80667	24
2.81033	23
2.81400	23
2.81767	23
2.82133	23
2.82500	23
2.82867	23
2.83233	23
2.83600	23
2.83967	23
2.84333	22
2.84700	20
2.85067	15
2.85433	9
2.85800	-2
2.86167	-16
2.86533	-35
2.86900	-59
2.87267	-89
2.87633	-123
2.88000	-164
2.88367	-209
2.88733	-260
2.89100	-316
2.89467	-376
2.89833	-441
2.90200	-509
2.90567	-580
2.90933	-655
2.91300	-732
2.91667	-811
2.92033	-894
2.92400	-978
2.92767	-1063
2.93133	-1150
2.93500	-1239
2.93867	-1329
2.94233	-1413
2.94600	-1479
2.94967	-1514
2.95333	-1514
2.95700	-1480
2.96067	-1415
2.96433	-1329
2.96800	-1228
2.97167	-1120
2.97533	-1010
2.97900	-903
2.98267	-800
2.98633	-704
2.99000	-616
2.99367	-537
2.99733	-465
3.00100	-402
3.00467	-346
3.00833	-297
3.01200	-255
3.01567	-217
3.01933	-185
3.02300	-158
3.02667	-134
3.03033	-114
3.03400	-96
3.03767	-81
3.04133	-68
3.04500	-57
3.04867	-48
3.05233	-40
3.05600	-33
3.05967	-27
3.06333	-21
3.06700	-17
3.07067	-13
3.07433	-10
3.07800	-7
3.08167	-4
3.08533	-2
3.08900	-0
3.09267	1
3.09633	3
3.10000	4
3.10367	5
3.10733	7
3.11100	8
3.11467	9
3.11833	9
3.12200	10
3.12567	11
3.12933	12
3.13300	12
3.13667	13
3.14033	13
3.14400	13
3.14767	14
3.15133	14
3.15500	15
3.15867	15
3.16233	16
3.16600	16
3.16967	17
3.17333	17
3.17700	17
3.18067	18
3.18433	18
3.18800	18
3.19167	18
3.19533	18
3.19900	19
3.20267	19
3.20633	19
3.21000	19
3.21367	19
3.21733	19
3.22100	19
3.22467	20
3.22833	20
3.23200	20
3.23567	20
3.23933	20
3.24300	20
3.24667	21
3.25033	21
3.25400	22
3.25767	23
3.26133	23
3.26500	24
3.26867	24
3.27233	24
3.27600	24
3.27967	24
3.28333	24
3.28700	24
3.29067	24
3.29433	25
3.29800	25
3.30167	25
3.30533	26
3.30900	26
3.31267	27
3.31633	27
3.32000	26
3.32367	26
3.32733	26
3.33100	26
3.33467	26
3.33833	26
3.34200	26
3.34567	26
3.34933	26
3.35300	26
3.35667	26
3.36033	26
3.36400	25
3.36767	25
3.37133	25
3.37500	25
3.37867	25
3.38233	25
3.38600	25
3.38967	24
3.39333	24
3.39700	24
3.40067	24
3.40433	24
3.40800	24
3.41167	24
3.41533	24
3.41900	25
3.42267	25
3.42633	25
3.43000	25
3.43367	25
3.43733	25
3.44100	25
3.44467	25
3.44833	25
3.45200	26
3.45567	26
3.45933	26
3.46300	26
3.46667	27
3.47033	27
3.47400	27
3.47767	28
3.48133	28
3.48500	28
3.48867	28
3.49233	28
3.49600	28
3.49967	28
3.50333	28
3.50700	28
3.51067	28
3.51433	28
3.51800	29
3.52167	29
3.52533	29
3.52900	29
3.53267	29
3.53633	29
3.54000	29
3.54367	29
3.54733	29
3.55100	29
3.55467	29
3.55833	29
3.56200	28
3.56567	28
3.56933	28
3.57300	27
3.57667	27
3.58033	27
3.58400	27
3.58767	27
3.59133	27
3.59500	27
3.59867	27
3.60233	27
3.60600	27
3.60967	27
3.61333	27
3.61700	28
3.62067	28
3.62433	28
3.62800	28
3.63167	28
3.63533	28
3.63900	28
3.64267	28
3.64633	28
3.65000	28
3.65367	28
3.65733	28
3.66100	28
3.66467	27
3.66833	27
3.67200	27
3.67567	27
3.67933	27
3.68300	27
3.68667	27
3.69033	27
3.69400	27
3.69767	27
3.70133	27
3.70500	28
3.70867	28
3.71233	28
3.71600	28
3.71967	28
3.72333	28
3.72700	28
3.73067	28
3.73433	28
3.73800	28
3.74167	28
3.74533	28
3.74900	28
3.75267	27
3.75633	27
3.76000	27
3.76367	27
3.76733	27
3.77100	27
3.77467	27
3.77833	27
3.78200	27
3.78567	27
3.78933	27
3.79300	27
3.79667	26
3.80033	26
3.80400	26
3.80767	26
3.81133	26
3.81500	26
3.81867	26
3.82233	26
3.82600	26
3.82967	26
3.83333	27
3.83700	27
3.84067	27
3.84433	27
3.84800	27
3.85167	27
3.85533	27
3.85900	26
3.86267	26
3.86633	26
3.87000	26
3.87367	26
3.87733	26
3.88100	26
3.88467	26
3.88833	26
3.89200	26
3.89567	26
3.89933	26
3.90300	26
3.90667	26
3.91033	26
3.91400	27
3.91767	27
3.92133	27
3.92500	27
3.92867	27
3.93233	27
3.93600	27
3.93967	27
3.94333	27
3.94700	27
3.95067	27
3.95433	27
3.95800	27
3.96167	27
3.96533	27
3.96900	27
3.97267	27
3.97633	27
3.98000	27
3.98367	26
3.98733	26
3.99100	26
3.99467	26
3.99833	26

[Chromatogram (Ch3)]
Interval(msec)	220
# of Points	1091
Start Time(min)	0.002
End Time(min)	3.998
R.Time (min)	Intensity
0.00167	-0
0.00533	-1
0.00900	-1
0.01267	-0
0.01633	1
0.02000	2
0.02367	3
0.02733	2
0.03100	1
0.03467	-1
0.03833	-1
0.04200	-3
0.04567	-2
0.04933	-1
0.05300	0
0.05667	0
0.06033	-1
0.06400	-1
0.06767	-1
0.07133	-1
0.07500	-0
0.07867	-0
0.08233	1
0.08600	3
0.08967	4
0.09333	4
0.09700	5
0.10067	5
0.10433	4
0.10800	1
0.11167	2
0.11533	3
0.11900	3
0.12267	3
0.12633	2
0.13000	2
0.13367	2
0.13733	4
0.14100	5
0.14467	2
0.14833	2
0.15200	1
0.15567	-0
0.15933	-0
0.16300	-1
0.16667	-0
0.17033	-0
0.17400	-1
0.17767	-3
0.18133	-1
0.18500	1
0.18867	4
0.19233	6
0.19600	6
0.19967	6
0.20333	4
0.20700	3
0.21067	3
0.21433	2
0.21800	-1
0.22167	-1
0.22533	2
0.22900	3
0.23267	4
0.23633	5
0.24000	5
0.24367	5
0.24733	5
0.25100	5
0.25467	3
0.25833	2
0.26200	0
0.26567	0
0.26933	2
0.27300	4
0.27667	5
0.28033	5
0.28400	3
0.28767	2
0.29133	1
0.29500	0
0.29867	-3
0.30233	-4
0.30600	-3
0.30967	-3
0.31333	-3
0.31700	-1
0.32067	1
0.32433	2
0.32800	2
0.33167	1
0.33533	1
0.33900	2
0.34267	2
0.34633	1
0.35000	3
0.35367	4
0.35733	3
0.36100	2
0.36467	3
0.36833	5
0.37200	9
0.37567	10
0.37933	10
0.38300	8
0.38667	5
0.39033	3
0.39400	2
0.39767	1
0.40133	1
0.40500	3
0.40867	3
0.41233	4
0.41600	4
0.41967	4
0.42333	5
0.42700	3
0.43067	0
0.43433	-2
0.43800	-1
0.44167	-0
0.44533	-1
0.44900	0
0.45267	2
0.45633	4
0.46000	5
0.46367	6
0.46733	7
0.47100	7
0.47467	6
0.47833	4
0.48200	3
0.48567	3
0.48933	3
0.49300	2
0.49667	1
0.50033	0
0.50400	3
0.50767	5
0.51133	6
0.51500	8
0.51867	8
0.52233	7
0.52600	7
0.52967	7
0.53333	8
0.53700	7
0.54067	7
0.54433	9
0.54800	8
0.55167	7
0.55533	6
0.55900	6
0.56267	6
0.56633	6
0.57000	6
0.57367	6
0.57733	5
0.58100	3
0.58467	4
0.58833	4
0.59200	3
0.59567	4
0.59933	7
0.60300	7
0.60667	7
0.61033	8
0.61400	7
0.61767	7
0.62133	7
0.62500	6
0.62867	7
0.63233	8
0.63600	8
0.63967	9
0.64333	8
0.64700	6
0.65067	5
0.65433	5
0.65800	6
0.66167	6
0.66533	5
0.66900	4
0.67267	4
0.67633	6
0.68000	7
0.68367	10
0.68733	9
0.69100	9
0.69467	10
0.69833	9
0.70200	7
0.70567	4
0.70933	1
0.71300	1
0.71667	2
0.72033	3
0.72400	5
0.72767	5
0.73133	4
0.73500	5
0.73867	6
0.74233	7
0.74600	7
0.74967	8
0.75333	10
0.75700	10
0.76067	10
0.76433	10
0.76800	11
0.77167	11
0.77533	11
0.77900	13
0.78267	13
0.78633	12
0.79000	11
0.79367	12
0.79733	12
0.80100	12
0.80467	12
0.80833	11
0.81200	10
0.81567	10
0.81933	12
0.82300	15
0.82667	16
0.83033	17
0.83400	16
0.83767	15
0.84133	14
0.84500	15
0.84867	16
0.85233	17
0.85600	14
0.85967	13
0.86333	13
0.86700	15
0.87067	15
0.87433	14
0.87800	13
0.88167	13
0.88533	14
0.88900	13
0.89267	13
0.89633	14
0.90000	16
0.90367	18
0.90733	17
0.91100	15
0.91467	14
0.91833	15
0.92200	15
0.92567	17
0.92933	19
0.93300	16
0.93667	15
0.94033	14
0.94400	15
0.94767	16
0.95133	16
0.95500	15
0.95867	15
0.96233	14
0.96600	13
0.96967	15
0.97333	15
0.97700	13
0.98067	13
0.98433	15
0.98800	17
0.99167	17
0.99533	14
0.99900	12
1.00267	10
1.00633	11
1.01000	12
1.01367	12
1.01733	14
1.02100	15
1.02467	16
1.02833	16
1.03200	15
1.03567	15
1.03933	15
1.04300	12
1.04667	11
1.05033	12
1.05400	12
1.05767	13
1.06133	17
1.06500	20
1.06867	20
1.07233	18
1.07600	17
1.07967	18
1.08333	20
1.08700	19
1.09067	17
1.09433	16
1.09800	18
1.10167	19
1.10533	19
1.10900	20
1.11267	22
1.11633	22
1.12000	20
1.12367	18
1.12733	17
1.13100	16
1.13467	17
1.13833	18
1.14200	18
1.14567	19
1.14933	19
1.15300	17
1.15667	17
1.16033	19
1.16400	21
1.16767	21
1.17133	22
1.17500	24
1.17867	25
1.18233	26
1.18600	26
1.18967	25
1.19333	24
1.19700	22
1.20067	23
1.20433	23
1.20800	24
1.21167	23
1.21533	22
1.21900	21
1.22267	20
1.22633	20
1.23000	20
1.23367	20
1.23733	19
1.24100	18
1.24467	18
1.24833	20
1.25200	19
1.25567	17
1.25933	17
1.26300	17
1.26667	16
1.27033	16
1.27400	17
1.27767	17
1.28133	16
1.28500	16
1.28867	15
1.29233	14
1.29600	14
1.29967	13
1.30333	13
1.30700	14
1.31067	16
1.31433	15
1.31800	12
1.32167	10
1.32533	10
1.32900	10
1.33267	10
1.33633	10
1.34000	8
1.34367	10
1.34733	12
1.35100	14
1.35467	15
1.35833	15
1.36200	14
1.36567	13
1.36933	13
1.37300	13
1.37667	14
1.38033	15
1.38400	17
1.38767	15
1.39133	13
1.39500	14
1.39867	16
1.40233	16
1.40600	15
1.40967	15
1.41333	16
1.41700	16
1.42067	15
1.42433	14
1.42800	13
1.43167	13
1.43533	12
1.43900	12
1.44267	13
1.44633	15
1.45000	17
1.45367	17
1.45733	17
1.46100	16
1.46467	15
1.46833	15
1.47200	14
1.47567	14
1.47933	13
1.48300	13
1.48667	14
1.49033	15
1.49400	13
1.49767	11
1.50133	12
1.50500	14
1.50867	16
1.51233	17
1.51600	18
1.51967	19
1.52333	20
1.52700	19
1.53067	18
1.53433	16
1.53800	16
1.54167	15
1.54533	14
1.54900	15
1.55267	15
1.55633	15
1.56000	14
1.56367	13
1.56733	12
1.57100	12
1.57467	10
1.57833	9
1.58200	9
1.58567	12
1.58933	15
1.59300	15
1.59667	15
1.60033	17
1.60400	16
1.60767	15
1.61133	13
1.61500	10
1.61867	8
1.62233	9
1.62600	12
1.62967	13
1.63333	13
1.63700	15
1.64067	18
1.64433	19
1.64800	19
1.65167	19
1.65533	18
1.65900	18
1.66267	19
1.66633	20
1.67000	23
1.67367	26
1.67733	28
1.68100	28
1.68467	27
1.68833	25
1.69200	25
1.69567	25
1.69933	24
1.70300	24
1.70667	24
1.71033	22
1.71400	23
1.71767	26
1.72133	28
1.72500	28
1.72867	27
1.73233	25
1.73600	24
1.73967	24
1.74333	26
1.74700	25
1.75067	25
1.75433	25
1.75800	27
1.76167	29
1.76533	31
1.76900	29
1.77267	26
1.77633	25
1.78000	26
1.78367	27
1.78733	30
1.79100	31
1.79467	29
1.79833	26
1.80200	25
1.80567	25
1.80933	27
1.81300	29
1.81667	31
1.82033	33
1.82400	35
1.82767	36
1.83133	37
1.83500	38
1.83867	40
1.84233	43
1.84600	44
1.84967	44
1.85333	45
1.85700	45
1.86067	47
1.86433	47
1.86800	48
1.87167	48
1.87533	49
1.87900	50
1.88267	51
1.88633	51
1.89000	53
1.89367	53
1.89733	53
1.90100	53
1.90467	53
1.90833	53
1.91200	53
1.91567	54
1.91933	54
1.92300	56
1.92667	58
1.93033	58
1.93400	59
1.93767	59
1.94133	58
1.94500	58
1.94867	58
1.95233	61
1.95600	63
1.95967	65
1.96333	67
1.96700	68
1.97067	68
1.97433	68
1.97800	69
1.98167	68
1.98533	69
1.98900	71
1.99267	73
1.99633	72
2.00000	71
2.00367	73
2.00733	77
2.01100	79
2.01467	79
2.01833	79
2.02200	80
2.02567	80
2.02933	79
2.03300	78
2.03667	78
2.04033	79
2.04400	80
2.04767	82
2.05133	85
2.05500	86
2.05867	87
2.06233	90
2.06600	92
2.06967	95
2.07333	99
2.07700	100
2.08067	100
2.08433	99
2.08800	100
2.09167	101
2.09533	103
2.09900	104
2.10267	104
2.10633	103
2.11000	104
2.11367	105
2.11733	105
2.12100	105
2.12467	106
2.12833	109
2.13200	112
2.13567	113
2.13933	114
2.14300	113
2.14667	115
2.15033	117
2.15400	119
2.15767	121
2.16133	120
2.16500	121
2.16867	124
2.17233	126
2.17600	127
2.17967	129
2.18333	132
2.18700	131
2.19067	130
2.19433	131
2.19800	133
2.20167	134
2.20533	137
2.20900	139
2.21267	138
2.21633	137
2.22000	137
2.22367	139
2.22733	140
2.23100	142
2.23467	144
2.23833	146
2.24200	149
2.24567	152
2.24933	155
2.25300	155
2.25667	155
2.26033	154
2.26400	156
2.26767	156
2.27133	158
2.27500	160
2.27867	162
2.28233	164
2.28600	165
2.28967	167
2.29333	169
2.29700	171
2.30067	173
2.30433	174
2.30800	177
2.31167	181
2.31533	183
2.31900	184
2.32267	187
2.32633	187
2.33000	190
2.33367	193
2.33733	193
2.34100	192
2.34467	193
2.34833	195
2.35200	198
2.35567	202
2.35933	206
2.36300	207
2.36667	206
2.37033	204
2.37400	204
2.37767	204
2.38133	202
2.38500	202
2.38867	201
2.39233	201
2.39600	203
2.39967	207
2.40333	210
2.40700	212
2.41067	214
2.41433	216
2.41800	219
2.42167	221
2.42533	222
2.42900	223
2.43267	226
2.43633	230
2.44000	235
2.44367	284
2.44733	416
2.45100	565
2.45467	691
2.45833	765
2.46200	775
2.46567	749
2.46933	715
2.47300	688
2.47667	673
2.48033	661
2.48400	638
2.48767	600
2.49133	555
2.49500	513
2.49867	479
2.50233	455
2.50600	442
2.50967	436
2.51333	441
2.51700	456
2.52067	476
2.52433	495
2.52800	507
2.53167	506
2.53533	492
2.53900	470
2.54267	443
2.54633	415
2.55000	387
2.55367	361
2.55733	339
2.56100	324
2.56467	314
2.56833	307
2.57200	300
2.57567	294
2.57933	290
2.58300	288
2.58667	288
2.59033	289
2.59400	292
2.59767	295
2.60133	297
2.60500	297
2.60867	294
2.61233	288
2.61600	278
2.61967	267
2.62333	257
2.62700	246
2.63067	236
2.63433	228
2.63800	220
2.64167	210
2.64533	201
2.64900	192
2.65267	183
2.65633	175
2.66000	167
2.66367	158
2.66733	149
2.67100	140
2.67467	134
2.67833	130
2.68200	122
2.68567	116
2.68933	112
2.69300	110
2.69667	110
2.70033	111
2.70400	111
2.70767	114
2.71133	118
2.71500	121
2.71867	123
2.72233	125
2.72600	129
2.72967	134
2.73333	136
2.73700	138
2.74067	140
2.74433	141
2.74800	141
2.75167	142
2.75533	144
2.75900	147
2.76267	146
2.76633	148
2.77000	153
2.77367	157
2.77733	158
2.78100	159
2.78467	159
2.78833	160
2.79200	161
2.79567	164
2.79933	167
2.80300	171
2.80667	176
2.81033	181
2.81400	186
2.81767	196
2.82133	220
2.82500	271
2.82867	380
2.83233	589
2.83600	961
2.83967	1558
2.84333	2427
2.84700	3586
2.85067	5012
2.85433	6641
2.85800	8370
2.86167	10071
2.86533	11622
2.86900	12897
2.87267	13802
2.87633	14297
2.88000	14395
2.88367	14131
2.88733	13570
2.89100	12799
2.89467	11888
2.89833	10906
2.90200	9906
2.90567	8926
2.90933	7992
2.91300	7119
2.91667	6314
2.92033	5581
2.92400	4921
2.92767	4330
2.93133	3804
2.93500	3339
2.93867	2929
2.94233	2569
2.94600	2252
2.94967	1975
2.95333	1733
2.95700	1522
2.96067	1338
2.96433	1177
2.96800	1036
2.97167	915
2.97533	812
2.97900	722
2.98267	643
2.98633	575
2.99000	515
2.99367	464
2.99733	421
3.00100	384
3.00467	353
3.00833	327
3.01200	303
3.01567	284
3.01933	266
3.02300	248
3.02667	232
3.03033	220
3.03400	212
3.03767	203
3.04133	194
3.04500	188
3.04867	184
3.05233	180
3.05600	177
3.05967	172
3.06333	169
3.06700	165
3.07067	164
3.07433	162
3.07800	161
3.08167	159
3.08533	157
3.08900	153
3.09267	149
3.09633	146
3.10000	144
3.10367	143
3.10733	142
3.11100	141
3.11467	143
3.11833	143
3.12200	144
3.12567	145
3.12933	145
3.13300	146
3.13667	148
3.14033	147
3.14400	144
3.14767	143
3.15133	144
3.15500	144
3.15867	144
3.16233	145
3.16600	146
3.16967	145
3.17333	142
3.17700	141
3.18067	142
3.18433	144
3.18800	143
3.19167	140
3.19533	140
3.19900	143
3.20267	146
3.20633	149
3.21000	151
3.21367	155
3.21733	157
3.22100	157
3.22467	158
3.22833	157
3.23200	155
3.23567	154
3.23933	153
3.24300	155
3.24667	155
3.25033	157
3.25400	160
3.25767	164
3.26133	165
3.26500	166
3.26867	167
3.27233	170
3.27600	171
3.27967	171
3.28333	169
3.28700	171
3.29067	173
3.29433	176
3.29800	177
3.30167	177
3.30533	177
3.30900	179
3.31267	181
3.31633	182
3.32000	184
3.32367	186
3.32733	189
3.33100	190
3.33467	191
3.33833	192
3.34200	193
3.34567	194
3.34933	195
3.35300	196
3.35667	197
3.36033	197
3.36400	199
3.36767	200
3.37133	200
3.37500	203
3.37867	206
3.38233	209
3.38600	212
3.38967	212
3.39333	214
3.39700	217
3.40067	217
3.40433	219
3.40800	221
3.41167	223
3.41533	225
3.41900	227
3.42267	228
3.42633	227
3.43000	229
3.43367	229
3.43733	229
3.44100	230
3.44467	232
3.44833	235
3.45200	235
3.45567	235
3.45933	235
3.46300	236
3.46667	236
3.47033	235
3.47400	232
3.47767	231
3.48133	232
3.48500	233
3.48867	233
3.49233	234
3.49600	233
3.49967	234
3.50333	234
3.50700	233
3.51067	235
3.51433	237
3.51800	237
3.52167	237
3.52533	238
3.52900	238
3.53267	238
3.53633	238
3.54000	235
3.54367	232
3.54733	230
3.55100	230
3.55467	230
3.55833	231
3.56200	231
3.56567	232
3.56933	234
3.57300	235
3.57667	235
3.58033	235
3.58400	237
3.58767	239
3.59133	239
3.59500	237
3.59867	235
3.60233	234
3.60600	233
3.60967	232
3.61333	232
3.61700	231
3.62067	231
3.62433	233
3.62800	236
3.63167	238
3.63533	238
3.63900	235
3.64267	235
3.64633	235
3.65000	234
3.65367	233
3.65733	232
3.66100	233
3.66467	236
3.66833	237
3.67200	236
3.67567	238
3.67933	237
3.68300	237
3.68667	236
3.69033	235
3.69400	235
3.69767	235
3.70133	236
3.70500	237
3.70867	238
3.71233	240
3.71600	241
3.71967	241
3.72333	240
3.72700	238
3.73067	235
3.73433	232
3.73800	230
3.74167	230
3.74533	234
3.74900	242
3.75267	253
3.75633	265
3.76000	279
3.76367	293
3.76733	310
3.77100	327
3.77467	342
3.77833	357
3.78200	372
3.78567	388
3.78933	404
3.79300	419
3.79667	432
3.80033	444
3.80400	455
3.80767	465
3.81133	476
3.81500	481
3.81867	487
3.82233	492
3.82600	498
3.82967	504
3.83333	507
3.83700	510
3.84067	513
3.84433	516
3.84800	517
3.85167	519
3.85533	519
3.85900	522
3.86267	525
3.86633	526
3.87000	527
3.87367	527
3.87733	527
3.88100	527
3.88467	527
3.88833	528
3.89200	531
3.89567	534
3.89933	536
3.90300	536
3.90667	534
3.91033	534
3.91400	536
3.91767	537
3.92133	536
3.92500	538
3.92867	539
3.93233	540
3.93600	541
3.93967	541
3.94333	541
3.94700	542
3.95067	542
3.95433	541
3.95800	541
3.96167	542
3.96533	541
3.96900	542
3.97267	543
3.97633	545
3.98000	546
3.98367	546
3.98733	546
3.99100	543
3.99467	540
3.99833	537

[Status Trace (Column Oven Temperature)]
Interval(msec)	1000
# of Points	240
Start Time(min)	0.016
End Time(min)	3.999
Intensity Units	
Intensity Multiplier	1
R.Time (min)	Intensity
0.01613	35.07
0.03280	35.07
0.04947	35.07
0.06613	35.07
0.08280	35.07
0.09947	35.07
0.11613	35.07
0.13280	35.08
0.14947	35.08
0.16613	35.07
0.18280	35.07
0.19947	35.07
0.21613	35.08
0.23280	35.09
0.24947	35.08
0.26613	35.08
0.28280	35.07
0.29947	35.07
0.31613	35.05
0.33280	35.06
0.34947	35.05
0.36613	35.05
0.38280	35.04
0.39947	35.05
0.41613	35.04
0.43280	35.03
0.44947	35.03
0.46613	35.03
0.48280	35.03
0.49947	35.02
0.51613	35.01
0.53280	35.00
0.54947	35.00
0.56613	35.00
0.58280	35.00
0.59947	35.00
0.61613	34.99
0.63280	34.99
0.64947	35.00
0.66613	34.99
0.68280	35.00
0.69947	35.00
0.71613	35.00
0.73280	35.00
0.74947	34.99
0.76613	34.99
0.78280	34.97
0.79947	34.95
0.81613	34.94
0.83280	34.93
0.84947	34.94
0.86613	34.96
0.88280	34.98
0.89947	34.99
0.91613	34.99
0.93280	34.99
0.94947	35.00
0.96613	35.00
0.98280	35.01
0.99947	35.01
1.01613	35.01
1.03280	35.00
1.04947	35.00
1.06613	35.00
1.08280	35.01
1.09947	35.00
1.11613	35.00
1.13280	35.01
1.14947	35.01
1.16613	35.01
1.18280	35.00
1.19947	35.01
1.21613	35.01
1.23280	35.01
1.24947	35.00
1.26613	35.00
1.28280	34.99
1.29947	34.99
1.31613	34.99
1.33280	35.00
1.34947	34.99
1.36613	35.00
1.38280	35.00
1.39947	35.00
1.41613	35.00
1.43280	35.00
1.44947	35.00
1.46613	35.00
1.48280	34.99
1.49947	34.99
1.51613	34.99
1.53280	34.99
1.54947	34.99
1.56613	35.00
1.58280	35.01
1.59947	35.03
1.61613	35.11
1.63280	35.27
1.64947	35.48
1.66613	35.77
1.68280	36.15
1.69947	36.52
1.71613	36.86
1.73280	37.16
1.74947	37.48
1.76613	37.82
1.78280	38.17
1.79947	38.51
1.81613	38.84
1.83280	39.18
1.84947	39.50
1.86613	39.83
1.88280	40.16
1.89947	40.49
1.91613	40.82
1.93280	41.11
1.94947	41.44
1.96613	41.79
1.98280	42.12
1.99947	42.42
2.01613	42.76
2.03280	43.09
2.04947	43.42
2.06613	43.74
2.08280	44.07
2.09947	44.41
2.11613	44.75
2.13280	45.06
2.14947	45.39
2.16613	45.72
2.18280	46.04
2.19947	46.36
2.21613	46.68
2.23280	47.02
2.24947	47.34
2.26613	47.68
2.28280	48.00
2.29947	48.33
2.31613	48.66
2.33280	49.00
2.34947	49.29
2.36613	49.54
2.38280	49.64
2.39947	49.64
2.41613	49.64
2.43280	49.64
2.44947	49.66
2.46613	49.67
2.48280	49.68
2.49947	49.68
2.51613	49.69
2.53280	49.71
2.54947	49.74
2.56613	49.77
2.58280	49.77
2.59947	49.77
2.61613	49.81
2.63280	49.82
2.64947	49.83
2.66613	49.84
2.68280	49.84
2.69947	49.86
2.71613	49.86
2.73280	49.86
2.74947	49.86
2.76613	49.84
2.78280	49.86
2.79947	49.89
2.81613	49.92
2.83280	49.94
2.84947	49.95
2.86613	49.94
2.88280	49.94
2.89947	49.92
2.91613	49.92
2.93280	49.92
2.94947	49.92
2.96613	49.95
2.98280	49.97
2.99947	49.99
3.01613	50.01
3.03280	50.02
3.04947	50.03
3.06613	50.05
3.08280	50.05
3.09947	50.06
3.11613	50.07
3.13280	50.08
3.14947	50.08
3.16613	50.08
3.18280	50.08
3.19947	50.09
3.21613	50.10
3.23280	50.10
3.24947	50.10
3.26613	50.09
3.28280	50.08
3.29947	50.07
3.31613	50.07
3.33280	50.07
3.34947	50.08
3.36613	50.08
3.38280	50.09
3.39947	50.10
3.41613	50.10
3.43280	50.10
3.44947	50.10
3.46613	50.09
3.48280	50.07
3.49947	50.07
3.51613	50.05
3.53280	50.04
3.54947	50.04
3.56613	50.05
3.58280	50.05
3.59947	50.06
3.61613	50.05
3.63280	50.05
3.64947	50.06
3.66613	50.06
3.68280	50.05
3.69947	50.05
3.71613	50.04
3.73280	50.04
3.74947	50.03
3.76613	50.04
3.78280	50.04
3.79947	50.05
3.81613	50.05
3.83280	50.04
3.84947	50.04
3.86613	50.05
3.88280	50.04
3.89947	50.04
3.91613	50.04
3.93280	50.04
3.94947	50.03
3.96613	50.04
3.98280	50.05
3.99947	50.05

[Status Trace (Injection Unit Temperature)]
Interval(msec)	1000
# of Points	240
Start Time(min)	0.016
End Time(min)	3.999
Intensity Units	
Intensity Multiplier	1
R.Time (min)	Intensity
0.01613	99.98
0.03280	99.98
0.04947	99.98
0.06613	99.98
0.08280	99.99
0.09947	99.98
0.11613	99.99
0.13280	99.98
0.14947	99.98
0.16613	99.98
0.18280	99.98
0.19947	99.98
0.21613	99.98
0.23280	99.98
0.24947	99.98
0.26613	99.98
0.28280	99.97
0.29947	99.98
0.31613	99.97
0.33280	99.97
0.34947	99.98
0.36613	99.97
0.38280	99.97
0.39947	99.97
0.41613	99.97
0.43280	99.97
0.44947	99.97
0.46613	99.97
0.48280	99.98
0.49947	99.97
0.51613	99.97
0.53280	99.98
0.54947	99.98
0.56613	99.98
0.58280	99.98
0.59947	99.97
0.61613	99.98
0.63280	99.98
0.64947	99.98
0.66613	99.98
0.68280	99.98
0.69947	99.98
0.71613	99.98
0.73280	99.98
0.74947	99.98
0.76613	99.98
0.78280	99.98
0.79947	99.98
0.81613	99.99
0.83280	99.98
0.84947	99.98
0.86613	99.99
0.88280	99.98
0.89947	99.99
0.91613	99.99
0.93280	99.98
0.94947	99.99
0.96613	99.99
0.98280	99.98
0.99947	99.99
1.01613	99.99
1.03280	99.99
1.04947	99.99
1.06613	99.99
1.08280	99.99
1.09947	99.99
1.11613	99.99
1.13280	99.99
1.14947	99.99
1.16613	99.99
1.18280	99.99
1.19947	99.99
1.21613	99.99
1.23280	99.99
1.24947	99.99
1.26613	99.99
1.28280	99.99
1.29947	99.99
1.31613	99.99
1.33280	99.99
1.34947	99.99
1.36613	99.99
1.38280	99.99
1.39947	99.99
1.41613	99.99
1.43280	99.99
1.44947	99.99
1.46613	99.99
1.48280	99.99
1.49947	99.99
1.51613	99.99
1.53280	99.99
1.54947	99.99
1.56613	99.99
1.58280	99.99
1.59947	99.99
1.61613	99.99
1.63280	99.99
1.64947	99.99
1.66613	99.99
1.68280	99.99
1.69947	99.99
1.71613	99.99
1.73280	99.99
1.74947	99.99
1.76613	99.99
1.78280	99.99
1.79947	99.99
1.81613	99.99
1.83280	99.99
1.84947	99.99
1.86613	99.98
1.88280	99.99
1.89947	99.98
1.91613	99.98
1.93280	99.98
1.94947	99.97
1.96613	99.98
1.98280	99.97
1.99947	99.97
2.01613	99.97
2.03280	99.97
2.04947	99.97
2.06613	99.97
2.08280	99.97
2.09947	99.97
2.11613	99.97
2.13280	99.97
2.14947	99.97
2.16613	99.96
2.18280	99.96
2.19947	99.96
2.21613	99.96
2.23280	99.96
2.24947	99.96
2.26613	99.96
2.28280	99.96
2.29947	99.96
2.31613	99.96
2.33280	99.96
2.34947	99.96
2.36613	99.96
2.38280	99.96
2.39947	99.96
2.41613	99.96
2.43280	99.96
2.44947	99.96
2.46613	99.96
2.48280	99.97
2.49947	99.97
2.51613	99.97
2.53280	99.97
2.54947	99.97
2.56613	99.97
2.58280	99.97
2.59947	99.97
2.61613	99.97
2.63280	99.98
2.64947	99.98
2.66613	99.98
2.68280	99.98
2.69947	99.99
2.71613	99.99
2.73280	99.99
2.74947	99.99
2.76613	99.99
2.78280	99.99
2.79947	99.99
2.81613	100.00
2.83280	100.00
2.84947	100.00
2.86613	100.00
2.88280	100.00
2.89947	100.00
2.91613	100.00
2.93280	100.00
2.94947	100.01
2.96613	100.01
2.98280	100.01
2.99947	100.01
3.01613	100.01
3.03280	100.02
3.04947	100.02
3.06613	100.01
3.08280	100.01
3.09947	100.01
3.11613	100.02
3.13280	100.02
3.14947	100.02
3.16613	100.02
3.18280	100.02
3.19947	100.03
3.21613	100.03
3.23280	100.03
3.24947	100.03
3.26613	100.03
3.28280	100.03
3.29947	100.02
3.31613	100.03
3.33280	100.03
3.34947	100.03
3.36613	100.04
3.38280	100.03
3.39947	100.03
3.41613	100.04
3.43280	100.04
3.44947	100.04
3.46613	100.03
3.48280	100.03
3.49947	100.04
3.51613	100.04
3.53280	100.05
3.54947	100.04
3.56613	100.05
3.58280	100.04
3.59947	100.04
3.61613	100.04
3.63280	100.05
3.64947	100.05
3.66613	100.05
3.68280	100.05
3.69947	100.06
3.71613	100.05
3.73280	100.05
3.74947	100.05
3.76613	100.05
3.78280	100.05
3.79947	100.05
3.81613	100.05
3.83280	100.05
3.84947	100.05
3.86613	100.05
3.88280	100.06
3.89947	100.05
3.91613	100.06
3.93280	100.05
3.94947	100.06
3.96613	100.05
3.98280	100.06
3.99947	100.06

[Status Trace (Carrier Gas Pressure)]
Interval(msec)	1000
# of Points	240
Start Time(min)	0.016
End Time(min)	3.999
Intensity Units	
Intensity Multiplier	1
R.Time (min)	Intensity
0.01613	56.90
0.03280	55.94
0.04947	58.18
0.06613	59.89
0.08280	58.45
0.09947	57.97
0.11613	58.00
0.13280	58.01
0.14947	58.01
0.16613	58.00
0.18280	58.00
0.19947	58.00
0.21613	58.00
0.23280	58.00
0.24947	58.00
0.26613	58.00
0.28280	58.00
0.29947	58.00
0.31613	58.00
0.33280	58.00
0.34947	58.00
0.36613	58.00
0.38280	58.00
0.39947	58.00
0.41613	58.00
0.43280	58.00
0.44947	58.00
0.46613	58.00
0.48280	58.00
0.49947	58.00
0.51613	58.00
0.53280	58.00
0.54947	58.00
0.56613	58.00
0.58280	58.00
0.59947	58.00
0.61613	58.00
0.63280	58.00
0.64947	58.00
0.66613	58.00
0.68280	58.00
0.69947	58.00
0.71613	58.00
0.73280	58.00
0.74947	58.00
0.76613	58.00
0.78280	58.00
0.79947	58.00
0.81613	58.00
0.83280	58.00
0.84947	58.00
0.86613	58.00
0.88280	58.00
0.89947	58.00
0.91613	58.00
0.93280	58.00
0.94947	58.00
0.96613	58.00
0.98280	58.00
0.99947	58.00
1.01613	58.00
1.03280	58.00
1.04947	58.00
1.06613	58.00
1.08280	58.00
1.09947	58.00
1.11613	58.00
1.13280	58.00
1.14947	58.00
1.16613	58.00
1.18280	58.00
1.19947	58.00
1.21613	58.00
1.23280	58.00
1.24947	58.00
1.26613	58.00
1.28280	58.00
1.29947	58.00
1.31613	58.00
1.33280	58.00
1.34947	58.00
1.36613	58.00
1.38280	58.00
1.39947	58.00
1.41613	58.00
1.43280	58.00
1.44947	58.00
1.46613	58.00
1.48280	58.00
1.49947	58.00
1.51613	58.00
1.53280	58.00
1.54947	58.00
1.56613	58.00
1.58280	58.00
1.59947	58.00
1.61613	58.00
1.63280	58.01
1.64947	58.00
1.66613	58.01
1.68280	58.01
1.69947	58.00
1.71613	58.00
1.73280	58.00
1.74947	58.00
1.76613	58.00
1.78280	58.00
1.79947	58.00
1.81613	58.00
1.83280	58.00
1.84947	58.00
1.86613	58.00
1.88280	58.00
1.89947	58.00
1.91613	58.00
1.93280	58.00
1.94947	58.00
1.96613	58.00
1.98280	58.00
1.99947	58.00
2.01613	58.00
2.03280	58.00
2.04947	58.00
2.06613	58.00
2.08280	58.00
2.09947	58.00
2.11613	58.00
2.13280	58.00
2.14947	58.00
2.16613	58.00
2.18280	58.00
2.19947	58.00
2.21613	58.00
2.23280	58.00
2.24947	58.00
2.26613	58.00
2.28280	58.00
2.29947	58.00
2.31613	58.00
2.33280	58.00
2.34947	58.00
2.36613	58.00
2.38280	57.99
2.39947	57.99
2.41613	58.00
2.43280	58.00
2.44947	58.00
2.46613	58.00
2.48280	58.00
2.49947	58.00
2.51613	57.99
2.53280	57.99
2.54947	58.00
2.56613	58.00
2.58280	58.00
2.59947	58.00
2.61613	58.00
2.63280	58.00
2.64947	58.00
2.66613	58.00
2.68280	58.00
2.69947	58.00
2.71613	58.00
2.73280	58.00
2.74947	58.00
2.76613	58.00
2.78280	58.00
2.79947	58.00
2.81613	58.00
2.83280	58.00
2.84947	58.00
2.86613	58.00
2.88280	58.00
2.89947	58.00
2.91613	58.00
2.93280	58.00
2.94947	58.00
2.96613	58.00
2.98280	58.00
2.99947	58.00
3.01613	58.00
3.03280	58.00
3.04947	58.00
3.06613	58.00
3.08280	58.00
3.09947	58.00
3.11613	58.00
3.13280	58.00
3.14947	58.00
3.16613	58.00
3.18280	58.00
3.19947	58.00
3.21613	58.00
3.23280	58.00
3.24947	58.00
3.26613	58.00
3.28280	58.00
3.29947	58.00
3.31613	58.00
3.33280	58.00
3.34947	58.00
3.36613	58.00
3.38280	58.00
3.39947	58.00
3.41613	58.00
3.43280	58.00
3.44947	58.00
3.46613	58.00
3.48280	58.00
3.49947	58.00
3.51613	58.00
3.53280	58.00
3.54947	58.00
3.56613	58.00
3.58280	58.00
3.59947	58.00
3.61613	58.00
3.63280	58.00
3.64947	58.00
3.66613	58.00
3.68280	58.00
3.69947	58.00
3.71613	58.00
3.73280	58.00
3.74947	58.00
3.76613	58.00
3.78280	58.00
3.79947	58.00
3.81613	58.00
3.83280	58.00
3.84947	58.00
3.86613	58.00
3.88280	58.00
3.89947	58.00
3.91613	58.00
3.93280	58.00
3.94947	58.00
3.96613	58.00
3.98280	58.00
3.99947	58.00

[Status Trace (Carrier Gas Flow)]
Interval(msec)	1000
# of Points	240
Start Time(min)	0.016
End Time(min)	3.999
Intensity Units	
Intensity Multiplier	1
R.Time (min)	Intensity
0.01613	33.81
0.03280	34.54
0.04947	34.55
0.06613	34.50
0.08280	34.52
0.09947	34.53
0.11613	34.52
0.13280	34.52
0.14947	34.52
0.16613	34.52
0.18280	34.52
0.19947	34.53
0.21613	34.52
0.23280	34.52
0.24947	34.52
0.26613	34.52
0.28280	34.52
0.29947	34.51
0.31613	34.52
0.33280	34.52
0.34947	34.52
0.36613	34.52
0.38280	34.52
0.39947	34.52
0.41613	34.51
0.43280	34.52
0.44947	34.52
0.46613	34.52
0.48280	34.52
0.49947	34.52
0.51613	34.52
0.53280	34.52
0.54947	34.51
0.56613	34.52
0.58280	34.52
0.59947	34.52
0.61613	34.52
0.63280	34.52
0.64947	34.52
0.66613	34.52
0.68280	34.52
0.69947	34.52
0.71613	34.52
0.73280	34.52
0.74947	34.51
0.76613	34.51
0.78280	34.52
0.79947	34.52
0.81613	34.51
0.83280	34.53
0.84947	34.51
0.86613	34.52
0.88280	34.51
0.89947	34.52
0.91613	34.52
0.93280	34.52
0.94947	34.52
0.96613	34.52
0.98280	34.52
0.99947	34.52
1.01613	34.52
1.03280	34.52
1.04947	34.52
1.06613	34.52
1.08280	34.51
1.09947	34.52
1.11613	34.51
1.13280	34.52
1.14947	34.53
1.16613	34.52
1.18280	34.52
1.19947	34.51
1.21613	34.52
1.23280	34.52
1.24947	34.52
1.26613	34.51
1.28280	34.52
1.29947	34.52
1.31613	34.51
1.33280	34.52
1.34947	34.52
1.36613	34.52
1.38280	34.52
1.39947	34.52
1.41613	34.52
1.43280	34.52
1.44947	34.52
1.46613	34.52
1.48280	34.51
1.49947	34.52
1.51613	34.52
1.53280	34.51
1.54947	34.52
1.56613	34.52
1.58280	34.52
1.59947	34.52
1.61613	34.52
1.63280	34.52
1.64947	34.53
1.66613	34.52
1.68280	34.52
1.69947	34.52
1.71613	34.51
1.73280	34.52
1.74947	34.53
1.76613	34.52
1.78280	34.52
1.79947	34.52
1.81613	34.52
1.83280	34.52
1.84947	34.51
1.86613	34.52
1.88280	34.53
1.89947	34.52
1.91613	34.52
1.93280	34.52
1.94947	34.51
1.96613	34.51
1.98280	34.52
1.99947	34.52
2.01613	34.52
2.03280	34.52
2.04947	34.51
2.06613	34.52
2.08280	34.52
2.09947	34.52
2.11613	34.52
2.13280	34.53
2.14947	34.51
2.16613	34.52
2.18280	34.51
2.19947	34.52
2.21613	34.52
2.23280	34.52
2.24947	34.52
2.26613	34.52
2.28280	34.52
2.29947	34.52
2.31613	34.52
2.33280	34.52
2.34947	34.52
2.36613	34.52
2.38280	34.52
2.39947	34.52
2.41613	34.52
2.43280	34.51
2.44947	34.51
2.46613	34.52
2.48280	34.52
2.49947	34.52
2.51613	34.52
2.53280	34.52
2.54947	34.52
2.56613	34.51
2.58280	34.52
2.59947	34.52
2.61613	34.52
2.63280	34.52
2.64947	34.51
2.66613	34.52
2.68280	34.51
2.69947	34.52
2.71613	34.52
2.73280	34.52
2.74947	34.51
2.76613	34.52
2.78280	34.51
2.79947	34.53
2.81613	34.52
2.83280	34.51
2.84947	34.51
2.86613	34.52
2.88280	34.51
2.89947	34.51
2.91613	34.52
2.93280	34.52
2.94947	34.52
2.96613	34.52
2.98280	34.52
2.99947	34.52
3.01613	34.52
3.03280	34.51
3.04947	34.51
3.06613	34.52
3.08280	34.52
3.09947	34.52
3.11613	34.52
3.13280	34.52
3.14947	34.52
3.16613	34.52
3.18280	34.51
3.19947	34.51
3.21613	34.52
3.23280	34.52
3.24947	34.51
3.26613	34.52
3.28280	34.52
3.29947	34.52
3.31613	34.52
3.33280	34.52
3.34947	34.52
3.36613	34.52
3.38280	34.52
3.39947	34.52
3.41613	34.52
3.43280	34.52
3.44947	34.52
3.46613	34.52
3.48280	34.52
3.49947	34.52
3.51613	34.52
3.53280	34.52
3.54947	34.52
3.56613	34.53
3.58280	34.52
3.59947	34.52
3.61613	34.52
3.63280	34.52
3.64947	34.52
3.66613	34.52
3.68280	34.52
3.69947	34.51
3.71613	34.52
3.73280	34.52
3.74947	34.52
3.76613	34.51
3.78280	34.51
3.79947	34.52
3.81613	34.52
3.83280	34.52
3.84947	34.52
3.86613	34.52
3.88280	34.52
3.89947	34.52
3.91613	34.52
3.93280	34.52
3.94947	34.52
3.96613	34.51
3.98280	34.52
3.99947	34.52

[Status Trace (Column Flow)]
Interval(msec)	1000
# of Points	240
Start Time(min)	0.016
End Time(min)	3.999
Intensity Units	
Intensity Multiplier	1
R.Time (min)	Intensity
0.01613	5.42
0.03280	5.31
0.04947	5.57
0.06613	5.78
0.08280	5.61
0.09947	5.55
0.11613	5.55
0.13280	5.55
0.14947	5.55
0.16613	5.55
0.18280	5.55
0.19947	5.55
0.21613	5.55
0.23280	5.55
0.24947	5.55
0.26613	5.55
0.28280	5.55
0.29947	5.55
0.31613	5.55
0.33280	5.55
0.34947	5.55
0.36613	5.55
0.38280	5.55
0.39947	5.55
0.41613	5.55
0.43280	5.56
0.44947	5.55
0.46613	5.56
0.48280	5.56
0.49947	5.56
0.51613	5.56
0.53280	5.56
0.54947	5.56
0.56613	5.56
0.58280	5.56
0.59947	5.56
0.61613	5.56
0.63280	5.56
0.64947	5.56
0.66613	5.56
0.68280	5.56
0.69947	5.56
0.71613	5.56
0.73280	5.56
0.74947	5.56
0.76613	5.56
0.78280	5.56
0.79947	5.56
0.81613	5.56
0.83280	5.56
0.84947	5.56
0.86613	5.56
0.88280	5.56
0.89947	5.56
0.91613	5.56
0.93280	5.56
0.94947	5.56
0.96613	5.56
0.98280	5.56
0.99947	5.56
1.01613	5.56
1.03280	5.56
1.04947	5.56
1.06613	5.56
1.08280	5.56
1.09947	5.56
1.11613	5.56
1.13280	5.56
1.14947	5.56
1.16613	5.56
1.18280	5.56
1.19947	5.56
1.21613	5.56
1.23280	5.56
1.24947	5.56
1.26613	5.56
1.28280	5.56
1.29947	5.56
1.31613	5.56
1.33280	5.56
1.34947	5.56
1.36613	5.56
1.38280	5.56
1.39947	5.56
1.41613	5.56
1.43280	5.56
1.44947	5.56
1.46613	5.56
1.48280	5.56
1.49947	5.56
1.51613	5.56
1.53280	5.56
1.54947	5.56
1.56613	5.56
1.58280	5.56
1.59947	5.56
1.61613	5.55
1.63280	5.55
1.64947	5.54
1.66613	5.53
1.68280	5.52
1.69947	5.51
1.71613	5.50
1.73280	5.49
1.74947	5.48
1.76613	5.47
1.78280	5.46
1.79947	5.45
1.81613	5.44
1.83280	5.43
1.84947	5.42
1.86613	5.41
1.88280	5.40
1.89947	5.39
1.91613	5.38
1.93280	5.37
1.94947	5.36
1.96613	5.35
1.98280	5.34
1.99947	5.33
2.01613	5.32
2.03280	5.31
2.04947	5.30
2.06613	5.29
2.08280	5.28
2.09947	5.27
2.11613	5.26
2.13280	5.25
2.14947	5.24
2.16613	5.23
2.18280	5.22
2.19947	5.21
2.21613	5.20
2.23280	5.19
2.24947	5.18
2.26613	5.18
2.28280	5.17
2.29947	5.16
2.31613	5.15
2.33280	5.14
2.34947	5.13
2.36613	5.12
2.38280	5.12
2.39947	5.12
2.41613	5.12
2.43280	5.12
2.44947	5.12
2.46613	5.12
2.48280	5.12
2.49947	5.12
2.51613	5.12
2.53280	5.12
2.54947	5.12
2.56613	5.12
2.58280	5.12
2.59947	5.12
2.61613	5.12
2.63280	5.11
2.64947	5.11
2.66613	5.11
2.68280	5.11
2.69947	5.11
2.71613	5.11
2.73280	5.11
2.74947	5.11
2.76613	5.11
2.78280	5.11
2.79947	5.11
2.81613	5.11
2.83280	5.11
2.84947	5.11
2.86613	5.11
2.88280	5.11
2.89947	5.11
2.91613	5.11
2.93280	5.11
2.94947	5.11
2.96613	5.11
2.98280	5.11
2.99947	5.11
3.01613	5.11
3.03280	5.11
3.04947	5.11
3.06613	5.11
3.08280	5.11
3.09947	5.11
3.11613	5.11
3.13280	5.11
3.14947	5.11
3.16613	5.11
3.18280	5.11
3.19947	5.11
3.21613	5.11
3.23280	5.11
3.24947	5.11
3.26613	5.11
3.28280	5.11
3.29947	5.11
3.31613	5.11
3.33280	5.11
3.34947	5.11
3.36613	5.11
3.38280	5.11
3.39947	5.11
3.41613	5.11
3.43280	5.11
3.44947	5.11
3.46613	5.11
3.48280	5.11
3.49947	5.11
3.51613	5.11
3.53280	5.11
3.54947	5.11
3.56613	5.11
3.58280	5.11
3.59947	5.11
3.61613	5.11
3.63280	5.11
3.64947	5.11
3.66613	5.11
3.68280	5.11
3.69947	5.11
3.71613	5.11
3.73280	5.11
3.74947	5.11
3.76613	5.11
3.78280	5.11
3.79947	5.11
3.81613	5.11
3.83280	5.11
3.84947	5.11
3.86613	5.11
3.88280	5.11
3.89947	5.11
3.91613	5.11
3.93280	5.11
3.94947	5.11
3.96613	5.11
3.98280	5.11
3.99947	5.11

[Status Trace (Linear Velocity)]
Interval(msec)	1000
# of Points	240
Start Time(min)	0.016
End Time(min)	3.999
Intensity Units	
Intensity Multiplier	1
R.Time (min)	Intensity
0.01613	38.29
0.03280	37.66
0.04947	39.14
0.06613	40.26
0.08280	39.31
0.09947	39.00
0.11613	39.02
0.13280	39.02
0.14947	39.02
0.16613	39.02
0.18280	39.02
0.19947	39.02
0.21613	39.02
0.23280	39.02
0.24947	39.02
0.26613	39.02
0.28280	39.02
0.29947	39.02
0.31613	39.02
0.33280	39.02
0.34947	39.02
0.36613	39.02
0.38280	39.02
0.39947	39.02
0.41613	39.02
0.43280	39.02
0.44947	39.02
0.46613	39.02
0.48280	39.02
0.49947	39.02
0.51613	39.02
0.53280	39.02
0.54947	39.03
0.56613	39.03
0.58280	39.02
0.59947	39.02
0.61613	39.03
0.63280	39.03
0.64947	39.02
0.66613	39.03
0.68280	39.03
0.69947	39.02
0.71613	39.02
0.73280	39.02
0.74947	39.03
0.76613	39.03
0.78280	39.03
0.79947	39.03
0.81613	39.03
0.83280	39.03
0.84947	39.03
0.86613	39.03
0.88280	39.03
0.89947	39.03
0.91613	39.03
0.93280	39.03
0.94947	39.03
0.96613	39.02
0.98280	39.02
0.99947	39.02
1.01613	39.02
1.03280	39.02
1.04947	39.02
1.06613	39.03
1.08280	39.02
1.09947	39.02
1.11613	39.02
1.13280	39.02
1.14947	39.02
1.16613	39.02
1.18280	39.02
1.19947	39.02
1.21613	39.02
1.23280	39.02
1.24947	39.02
1.26613	39.02
1.28280	39.03
1.29947	39.03
1.31613	39.03
1.33280	39.03
1.34947	39.03
1.36613	39.02
1.38280	39.02
1.39947	39.02
1.41613	39.02
1.43280	39.02
1.44947	39.03
1.46613	39.03
1.48280	39.03
1.49947	39.03
1.51613	39.03
1.53280	39.03
1.54947	39.03
1.56613	39.02
1.58280	39.02
1.59947	39.02
1.61613	39.02
1.63280	39.00
1.64947	38.98
1.66613	38.95
1.68280	38.92
1.69947	38.88
1.71613	38.85
1.73280	38.82
1.74947	38.79
1.76613	38.76
1.78280	38.72
1.79947	38.69
1.81613	38.66
1.83280	38.63
1.84947	38.60
1.86613	38.57
1.88280	38.54
1.89947	38.50
1.91613	38.47
1.93280	38.45
1.94947	38.42
1.96613	38.38
1.98280	38.35
1.99947	38.32
2.01613	38.29
2.03280	38.26
2.04947	38.23
2.06613	38.20
2.08280	38.17
2.09947	38.14
2.11613	38.11
2.13280	38.08
2.14947	38.05
2.16613	38.02
2.18280	37.99
2.19947	37.96
2.21613	37.94
2.23280	37.91
2.24947	37.88
2.26613	37.85
2.28280	37.82
2.29947	37.79
2.31613	37.76
2.33280	37.73
2.34947	37.70
2.36613	37.68
2.38280	37.67
2.39947	37.67
2.41613	37.67
2.43280	37.67
2.44947	37.67
2.46613	37.67
2.48280	37.67
2.49947	37.67
2.51613	37.66
2.53280	37.66
2.54947	37.66
2.56613	37.66
2.58280	37.66
2.59947	37.66
2.61613	37.66
2.63280	37.66
2.64947	37.65
2.66613	37.65
2.68280	37.65
2.69947	37.65
2.71613	37.65
2.73280	37.65
2.74947	37.65
2.76613	37.65
2.78280	37.65
2.79947	37.65
2.81613	37.65
2.83280	37.65
2.84947	37.64
2.86613	37.65
2.88280	37.65
2.89947	37.65
2.91613	37.65
2.93280	37.65
2.94947	37.65
2.96613	37.65
2.98280	37.64
2.99947	37.64
3.01613	37.64
3.03280	37.64
3.04947	37.64
3.06613	37.64
3.08280	37.64
3.09947	37.63
3.11613	37.63
3.13280	37.63
3.14947	37.63
3.16613	37.63
3.18280	37.63
3.19947	37.63
3.21613	37.63
3.23280	37.63
3.24947	37.63
3.26613	37.63
3.28280	37.63
3.29947	37.63
3.31613	37.63
3.33280	37.63
3.34947	37.63
3.36613	37.63
3.38280	37.63
3.39947	37.63
3.41613	37.63
3.43280	37.63
3.44947	37.63
3.46613	37.63
3.48280	37.63
3.49947	37.63
3.51613	37.64
3.53280	37.64
3.54947	37.64
3.56613	37.64
3.58280	37.64
3.59947	37.63
3.61613	37.64
3.63280	37.64
3.64947	37.64
3.66613	37.64
3.68280	37.64
3.69947	37.64
3.71613	37.64
3.73280	37.64
3.74947	37.64
3.76613	37.64
3.78280	37.64
3.79947	37.64
3.81613	37.64
3.83280	37.64
3.84947	37.64
3.86613	37.64
3.88280	37.64
3.89947	37.64
3.91613	37.64
3.93280	37.64
3.94947	37.64
3.96613	37.64
3.98280	37.64
3.99947	37.64

