[Header]
Application Name	LabSolutions
Version	5.110
Data File Name	C:\Users\User\Desktop\GC Analyses\Jack\Nachusa Grasslands Sampling\T4 Timepoint July 12th\T4_07122022_022.gcd
Output Date	3/17/2023
Output Time	12:04:52 PM

[File Information]
Type	Data File
Generated	3/14/2023 5:45:45 PM
Generated by	System Administrator
Modified	3/14/2023 5:52:39 PM
Modified by	System Administrator

[Sample Information]
Operator Name	System Administrator
Acquired	3/14/2023 5:48:37 PM
Sample Type	0:Unknown
Level	0
Sample Name	022
Sample ID	022
ISTD Amount1	1
ISTD Amount2	1
ISTD Amount3	1
ISTD Amount4	1
ISTD Amount5	1
ISTD Amount6	1
ISTD Amount7	1
ISTD Amount8	1
ISTD Amount9	1
ISTD Amount10	1
ISTD Amount11	1
ISTD Amount12	1
ISTD Amount13	1
ISTD Amount14	1
ISTD Amount15	1
ISTD Amount16	1
ISTD Amount17	1
ISTD Amount18	1
ISTD Amount19	1
ISTD Amount20	1
ISTD Amount21	1
ISTD Amount22	1
ISTD Amount23	1
ISTD Amount24	1
ISTD Amount25	1
ISTD Amount26	1
ISTD Amount27	1
ISTD Amount28	1
ISTD Amount29	1
ISTD Amount30	1
ISTD Amount31	1
ISTD Amount32	1
Sample Amount	1
Dilution Factor	1
Vial#	21
Injection Volume	1
Injection Count	1
Bar Code	

[Original Files]
Data File	C:\Users\User\Desktop\GC Analyses\Jack\Nachusa Grasslands Sampling\T4 Timepoint July 12th\T4_07122022_022.gcd
Method File	C:\LabSolutions\Data\GHG_4min_2022\ghg3_togas_w_acet_4 min_new_int.gcm
Batch File	C:\LabSolutions\Data\AutoSamplerTesting\T4_07122022.gcb
Report Format File	c:\LabSolutions\System\DEFAULT.lsr

[File Description]


[Configuration]
Instrument Name	C0B7VH3-Instrument1
Instrument #	1
Line #	1
# of Detectors	3
Detector ID	DET#1	DET#2	DET#3
Detector Name	FID	PTCD	ECD
# of Channels	1	1	1

[Peak Table(Ch1)]
# of Peaks	3
Peak#	R.Time	I.Time	F.Time	Area	Height	A/H	Conc.	Mark	ID#	Name	k'	Plate #	Plate Ht.	Tailing	Resolution	Sep.Factor	Area Ratio	Height Ratio	Conc. %	Norm Conc.
1	1.476	1.432	1.538	28547	14058	2.031	201.546	   	1	CO	0.000	9625	15.585	1.273	0.000	0.000	0	0	20.314	20.314
2	1.571	1.538	1.619	4017	2092	1.920	77.679	 V 	2	CH4	0.065	11937	12.566	1.104	1.620	0.000	0	0	7.829	7.829
3	1.996	1.934	2.334	2840743	1365780	2.080	712.950	   	3	CO2	0.353	17411	8.615	1.322	7.207	5.462	0	0	71.857	71.857

[Peak Table(Ch2)]
# of Peaks	0

[Peak Table(Ch3)]
# of Peaks	4
Peak#	R.Time	I.Time	F.Time	Area	Height	A/H	Conc.	Mark	ID#	Name	k'	Plate #	Plate Ht.	Tailing	Resolution	Sep.Factor	Area Ratio	Height Ratio	Conc. %	Norm Conc.
1	2.462	2.337	2.510	1932	612	3.154	0.000	   			0.000	9705	15.456	0.000	0.000	0.000	0	0	0.000	0.000
2	2.532	2.510	2.678	1598	341	4.687	0.000	 V 			0.028	5020	29.883	0.000	0.574	0.000	0	0	0.000	0.000
3	2.880	2.697	3.133	19230	4777	4.026	0.491	   	1	N2O	0.170	13022	11.519	1.540	2.857	6.000	0	0	100.000	100.000
4	3.316	3.140	3.995	16526	545	30.297	0.000	   	2	SF6	0.347	256	585.278	2.365	0.939	2.044	0	0	0.000	0.000

[Compound Results(Ch1)]
# of IDs	6
ID#	Name	R.Time	Area	Height	Conc.	Curve	3rd	2nd	1st	Constant	Area Ratio	Height Ratio	Conc. %	Norm Conc.
1	CO	1.476	28547	14058	201.546	Linear	0.000000e+00	0.000000e+00	1.416423e+002	0.000000e+00	0	0	20.314	20.314
2	CH4	1.571	4017	2092	77.679	Linear	0.000000e+00	0.000000e+00	5.171738e+001	0.000000e+00	0	0	7.829	7.829
3	CO2	1.996	2840743	1365780	712.950	Linear	0.000000e+00	0.000000e+00	3.984494e+003	0.000000e+00	0	0	71.857	71.857
4	Ethylene	0.000	0	0	0.000	Linear	0.000000e+00	0.000000e+00	0.000000e+00	0.000000e+00	0	0	0.000	0.000
5	Acetylene	0.000	0	0	0.000	Linear	0.000000e+00	0.000000e+00	0.000000e+00	0.000000e+00	0	0	0.000	0.000
6	Ethane	0.000	0	0	0.000	Linear	0.000000e+00	0.000000e+00	0.000000e+00	0.000000e+00	0	0	0.000	0.000

[Compound Results(Ch2)]
# of IDs	5
ID#	Name	R.Time	Area	Height	Conc.	Curve	3rd	2nd	1st	Constant	Area Ratio	Height Ratio	Conc. %	Norm Conc.
1	Hydrogen	0.000	0	0	0.000	Linear	0.000000e+00	0.000000e+00	0.000000e+00	0.000000e+00	0	0	0.000	0.000
2	Oxygen	0.000	0	0	0.000	Linear	0.000000e+00	0.000000e+00	0.000000e+00	0.000000e+00	0	0	0.000	0.000
3	Nitrogen	0.000	0	0	0.000	Linear	0.000000e+00	0.000000e+00	0.000000e+00	0.000000e+00	0	0	0.000	0.000
4	Methane	0.000	0	0	0.000	Linear	0.000000e+00	0.000000e+00	0.000000e+00	0.000000e+00	0	0	0.000	0.000
5	Carbon Monoxide	0.000	0	0	0.000	Linear	0.000000e+00	0.000000e+00	0.000000e+00	0.000000e+00	0	0	0.000	0.000

[Compound Results(Ch3)]
# of IDs	2
ID#	Name	R.Time	Area	Height	Conc.	Curve	3rd	2nd	1st	Constant	Area Ratio	Height Ratio	Conc. %	Norm Conc.
1	N2O	2.880	19230	4777	0.491	Linear	0.000000e+00	0.000000e+00	3.915173e+004	0.000000e+00	0	0	100.000	100.000
2	SF6	3.316	16526	545	0.000	Linear	0.000000e+00	0.000000e+00	0.000000e+00	0.000000e+00	0	0	0.000	0.000

[Group Results(Ch1)]
# of Groups	0

[Group Results(Ch2)]
# of Groups	0

[Group Results(Ch3)]
# of Groups	0

[Chromatogram (Ch1)]
Interval(msec)	220
# of Points	1091
Start Time(min)	0.002
End Time(min)	3.998
R.Time (min)	Intensity
0.00167	19
0.00533	22
0.00900	29
0.01267	31
0.01633	34
0.02000	32
0.02367	25
0.02733	15
0.03100	10
0.03467	8
0.03833	12
0.04200	26
0.04567	32
0.04933	31
0.05300	25
0.05667	21
0.06033	23
0.06400	28
0.06767	34
0.07133	36
0.07500	37
0.07867	39
0.08233	37
0.08600	35
0.08967	31
0.09333	28
0.09700	35
0.10067	44
0.10433	52
0.10800	46
0.11167	35
0.11533	26
0.11900	20
0.12267	18
0.12633	16
0.13000	18
0.13367	22
0.13733	24
0.14100	25
0.14467	24
0.14833	23
0.15200	19
0.15567	19
0.15933	15
0.16300	13
0.16667	16
0.17033	15
0.17400	8
0.17767	-2
0.18133	-8
0.18500	-8
0.18867	-4
0.19233	-2
0.19600	1
0.19967	4
0.20333	12
0.20700	20
0.21067	28
0.21433	33
0.21800	29
0.22167	19
0.22533	8
0.22900	-3
0.23267	-7
0.23633	-10
0.24000	-11
0.24367	-11
0.24733	-16
0.25100	-19
0.25467	-20
0.25833	-19
0.26200	-18
0.26567	-16
0.26933	-17
0.27300	-19
0.27667	-17
0.28033	-14
0.28400	-12
0.28767	-12
0.29133	-17
0.29500	-17
0.29867	-9
0.30233	-3
0.30600	-3
0.30967	-7
0.31333	-2
0.31700	8
0.32067	15
0.32433	19
0.32800	25
0.33167	30
0.33533	26
0.33900	22
0.34267	20
0.34633	17
0.35000	12
0.35367	5
0.35733	4
0.36100	1
0.36467	-4
0.36833	-7
0.37200	-7
0.37567	-4
0.37933	3
0.38300	7
0.38667	5
0.39033	-1
0.39400	-11
0.39767	-20
0.40133	-25
0.40500	-28
0.40867	-26
0.41233	-19
0.41600	-12
0.41967	-5
0.42333	-1
0.42700	1
0.43067	-1
0.43433	-2
0.43800	-1
0.44167	-1
0.44533	-4
0.44900	-5
0.45267	-8
0.45633	-12
0.46000	-19
0.46367	-23
0.46733	-19
0.47100	-10
0.47467	3
0.47833	12
0.48200	17
0.48567	19
0.48933	18
0.49300	14
0.49667	7
0.50033	-1
0.50400	-6
0.50767	-8
0.51133	-13
0.51500	-16
0.51867	-17
0.52233	-15
0.52600	-13
0.52967	-12
0.53333	-6
0.53700	-3
0.54067	-2
0.54433	1
0.54800	2
0.55167	5
0.55533	7
0.55900	7
0.56267	1
0.56633	-9
0.57000	-7
0.57367	-6
0.57733	-10
0.58100	-13
0.58467	-21
0.58833	-31
0.59200	-36
0.59567	-34
0.59933	-27
0.60300	-17
0.60667	-13
0.61033	-10
0.61400	-5
0.61767	-3
0.62133	-5
0.62500	-11
0.62867	-20
0.63233	-24
0.63600	-22
0.63967	-14
0.64333	-5
0.64700	4
0.65067	12
0.65433	17
0.65800	19
0.66167	17
0.66533	7
0.66900	-5
0.67267	-18
0.67633	-27
0.68000	-30
0.68367	-31
0.68733	-34
0.69100	-40
0.69467	-45
0.69833	-45
0.70200	-42
0.70567	-33
0.70933	-23
0.71300	-20
0.71667	-20
0.72033	-25
0.72400	-27
0.72767	-24
0.73133	-20
0.73500	-17
0.73867	-15
0.74233	-14
0.74600	-15
0.74967	-17
0.75333	-21
0.75700	-25
0.76067	-29
0.76433	-32
0.76800	-29
0.77167	-24
0.77533	-21
0.77900	-25
0.78267	-31
0.78633	-31
0.79000	-29
0.79367	-30
0.79733	-33
0.80100	-35
0.80467	-31
0.80833	-25
0.81200	-23
0.81567	-25
0.81933	-27
0.82300	-26
0.82667	-26
0.83033	-26
0.83400	-30
0.83767	-39
0.84133	-44
0.84500	-41
0.84867	-33
0.85233	-27
0.85600	-23
0.85967	-21
0.86333	-19
0.86700	-20
0.87067	-25
0.87433	-32
0.87800	-39
0.88167	-47
0.88533	-51
0.88900	-50
0.89267	-52
0.89633	-57
0.90000	-58
0.90367	-55
0.90733	-56
0.91100	-54
0.91467	-52
0.91833	-50
0.92200	-46
0.92567	-42
0.92933	-33
0.93300	-25
0.93667	-23
0.94033	-23
0.94400	-21
0.94767	-20
0.95133	-20
0.95500	-17
0.95867	-14
0.96233	-15
0.96600	-21
0.96967	-31
0.97333	-42
0.97700	-45
0.98067	-44
0.98433	-43
0.98800	-42
0.99167	-40
0.99533	-40
0.99900	-39
1.00267	-40
1.00633	-43
1.01000	-45
1.01367	-44
1.01733	-44
1.02100	-50
1.02467	-57
1.02833	-60
1.03200	-61
1.03567	-65
1.03933	-63
1.04300	-60
1.04667	-65
1.05033	-67
1.05400	-70
1.05767	-75
1.06133	-82
1.06500	-82
1.06867	-75
1.07233	-67
1.07600	-61
1.07967	-57
1.08333	-52
1.08700	-45
1.09067	-42
1.09433	-41
1.09800	-41
1.10167	-45
1.10533	-46
1.10900	-49
1.11267	-55
1.11633	-60
1.12000	-57
1.12367	-52
1.12733	-51
1.13100	-53
1.13467	-57
1.13833	-61
1.14200	-61
1.14567	-58
1.14933	-53
1.15300	-53
1.15667	-50
1.16033	-46
1.16400	-43
1.16767	-40
1.17133	-36
1.17500	-30
1.17867	-30
1.18233	-33
1.18600	-37
1.18967	-40
1.19333	-41
1.19700	-42
1.20067	-39
1.20433	-32
1.20800	-25
1.21167	-25
1.21533	-30
1.21900	-37
1.22267	-43
1.22633	-47
1.23000	-49
1.23367	-54
1.23733	-61
1.24100	-68
1.24467	-70
1.24833	-67
1.25200	-59
1.25567	-46
1.25933	-38
1.26300	-39
1.26667	-51
1.27033	-67
1.27400	-83
1.27767	-94
1.28133	-99
1.28500	-98
1.28867	-92
1.29233	-90
1.29600	-89
1.29967	-86
1.30333	-81
1.30700	-74
1.31067	-70
1.31433	-68
1.31800	-66
1.32167	-57
1.32533	-48
1.32900	-41
1.33267	-36
1.33633	-35
1.34000	-39
1.34367	-47
1.34733	-50
1.35100	-49
1.35467	-48
1.35833	-44
1.36200	-39
1.36567	-34
1.36933	-37
1.37300	-49
1.37667	-56
1.38033	-57
1.38400	-60
1.38767	-61
1.39133	-59
1.39500	-54
1.39867	-53
1.40233	-54
1.40600	-59
1.40967	-69
1.41333	-82
1.41700	-91
1.42067	-96
1.42433	-97
1.42800	-95
1.43167	-92
1.43533	-87
1.43900	-65
1.44267	-15
1.44633	137
1.45000	601
1.45367	1805
1.45733	3982
1.46100	6741
1.46467	9439
1.46833	11654
1.47200	13205
1.47567	13961
1.47933	13784
1.48300	12658
1.48667	10802
1.49033	8610
1.49400	6475
1.49767	4652
1.50133	3221
1.50500	2159
1.50867	1404
1.51233	884
1.51600	534
1.51967	310
1.52333	163
1.52700	61
1.53067	-10
1.53433	-59
1.53800	-86
1.54167	-60
1.54533	75
1.54900	357
1.55267	748
1.55633	1164
1.56000	1527
1.56367	1800
1.56733	1963
1.57100	1985
1.57467	1836
1.57833	1556
1.58200	1213
1.58567	871
1.58933	576
1.59300	349
1.59667	188
1.60033	75
1.60400	0
1.60767	-47
1.61133	-80
1.61500	-103
1.61867	-112
1.62233	-115
1.62600	-119
1.62967	-122
1.63333	-121
1.63700	-122
1.64067	-126
1.64433	-128
1.64800	-126
1.65167	-127
1.65533	-130
1.65900	-133
1.66267	-131
1.66633	-131
1.67000	-136
1.67367	-145
1.67733	-151
1.68100	-153
1.68467	-151
1.68833	-144
1.69200	-133
1.69567	-125
1.69933	-120
1.70300	-122
1.70667	-126
1.71033	-126
1.71400	-126
1.71767	-123
1.72133	-119
1.72500	-115
1.72867	-113
1.73233	-112
1.73600	-110
1.73967	-109
1.74333	-110
1.74700	-111
1.75067	-109
1.75433	-103
1.75800	-100
1.76167	-100
1.76533	-108
1.76900	-123
1.77267	-133
1.77633	-138
1.78000	-141
1.78367	-143
1.78733	-143
1.79100	-136
1.79467	-133
1.79833	-134
1.80200	-133
1.80567	-134
1.80933	-135
1.81300	-137
1.81667	-141
1.82033	-147
1.82400	-150
1.82767	-148
1.83133	-146
1.83500	-141
1.83867	-135
1.84233	-131
1.84600	-123
1.84967	-118
1.85333	-117
1.85700	-120
1.86067	-121
1.86433	-123
1.86800	-121
1.87167	-115
1.87533	-105
1.87900	-102
1.88267	-103
1.88633	-108
1.89000	-115
1.89367	-118
1.89733	-118
1.90100	-118
1.90467	-122
1.90833	-127
1.91200	-130
1.91567	-140
1.91933	-152
1.92300	-160
1.92667	-156
1.93033	-150
1.93400	-140
1.93767	-130
1.94133	-122
1.94500	-113
1.94867	-101
1.95233	-79
1.95600	67
1.95967	978
1.96333	5498
1.96700	22531
1.97067	71335
1.97433	178679
1.97800	361232
1.98167	606025
1.98533	871822
1.98900	1110177
1.99267	1282554
1.99633	1365695
2.00000	1351427
2.00367	1248496
2.00733	1080898
2.01100	881480
2.01467	682059
2.01833	505436
2.02200	362476
2.02567	254178
2.02933	175945
2.03300	121256
2.03667	83842
2.04033	58564
2.04400	41569
2.04767	30127
2.05133	22370
2.05500	17048
2.05867	13337
2.06233	10696
2.06600	8776
2.06967	7352
2.07333	6273
2.07700	5435
2.08067	4770
2.08433	4231
2.08800	3790
2.09167	3421
2.09533	3105
2.09900	2836
2.10267	2599
2.10633	2391
2.11000	2224
2.11367	2072
2.11733	1935
2.12100	1816
2.12467	1709
2.12833	1614
2.13200	1525
2.13567	1442
2.13933	1364
2.14300	1295
2.14667	1233
2.15033	1170
2.15400	1108
2.15767	1046
2.16133	989
2.16500	941
2.16867	904
2.17233	873
2.17600	840
2.17967	806
2.18333	770
2.18700	732
2.19067	691
2.19433	661
2.19800	637
2.20167	617
2.20533	607
2.20900	596
2.21267	575
2.21633	553
2.22000	531
2.22367	516
2.22733	502
2.23100	488
2.23467	474
2.23833	463
2.24200	452
2.24567	444
2.24933	434
2.25300	420
2.25667	405
2.26033	389
2.26400	372
2.26767	361
2.27133	353
2.27500	344
2.27867	332
2.28233	321
2.28600	307
2.28967	292
2.29333	283
2.29700	276
2.30067	267
2.30433	258
2.30800	250
2.31167	244
2.31533	239
2.31900	234
2.32267	230
2.32633	225
2.33000	219
2.33367	215
2.33733	210
2.34100	209
2.34467	217
2.34833	224
2.35200	226
2.35567	227
2.35933	219
2.36300	204
2.36667	186
2.37033	172
2.37400	161
2.37767	161
2.38133	164
2.38500	164
2.38867	164
2.39233	167
2.39600	170
2.39967	173
2.40333	176
2.40700	182
2.41067	190
2.41433	193
2.41800	189
2.42167	179
2.42533	168
2.42900	152
2.43267	135
2.43633	121
2.44000	115
2.44367	110
2.44733	106
2.45100	101
2.45467	93
2.45833	85
2.46200	80
2.46567	81
2.46933	85
2.47300	87
2.47667	85
2.48033	82
2.48400	81
2.48767	78
2.49133	79
2.49500	85
2.49867	89
2.50233	90
2.50600	90
2.50967	91
2.51333	94
2.51700	99
2.52067	101
2.52433	100
2.52800	103
2.53167	105
2.53533	103
2.53900	94
2.54267	85
2.54633	82
2.55000	84
2.55367	84
2.55733	83
2.56100	75
2.56467	73
2.56833	66
2.57200	61
2.57567	60
2.57933	59
2.58300	61
2.58667	67
2.59033	71
2.59400	65
2.59767	57
2.60133	53
2.60500	56
2.60867	65
2.61233	70
2.61600	64
2.61967	59
2.62333	57
2.62700	56
2.63067	55
2.63433	57
2.63800	66
2.64167	74
2.64533	75
2.64900	74
2.65267	71
2.65633	68
2.66000	67
2.66367	65
2.66733	58
2.67100	55
2.67467	52
2.67833	49
2.68200	46
2.68567	40
2.68933	39
2.69300	39
2.69667	43
2.70033	51
2.70400	57
2.70767	58
2.71133	54
2.71500	50
2.71867	48
2.72233	45
2.72600	43
2.72967	43
2.73333	43
2.73700	43
2.74067	47
2.74433	51
2.74800	56
2.75167	60
2.75533	68
2.75900	70
2.76267	64
2.76633	56
2.77000	51
2.77367	51
2.77733	55
2.78100	56
2.78467	57
2.78833	55
2.79200	46
2.79567	36
2.79933	29
2.80300	22
2.80667	16
2.81033	14
2.81400	16
2.81767	27
2.82133	39
2.82500	53
2.82867	64
2.83233	64
2.83600	55
2.83967	48
2.84333	39
2.84700	34
2.85067	35
2.85433	32
2.85800	35
2.86167	42
2.86533	45
2.86900	44
2.87267	48
2.87633	50
2.88000	47
2.88367	46
2.88733	48
2.89100	52
2.89467	55
2.89833	58
2.90200	63
2.90567	61
2.90933	52
2.91300	46
2.91667	47
2.92033	61
2.92400	72
2.92767	71
2.93133	60
2.93500	48
2.93867	42
2.94233	41
2.94600	45
2.94967	50
2.95333	55
2.95700	54
2.96067	50
2.96433	51
2.96800	51
2.97167	47
2.97533	48
2.97900	48
2.98267	47
2.98633	50
2.99000	55
2.99367	58
2.99733	59
3.00100	66
3.00467	75
3.00833	81
3.01200	86
3.01567	85
3.01933	81
3.02300	78
3.02667	79
3.03033	75
3.03400	72
3.03767	72
3.04133	73
3.04500	71
3.04867	69
3.05233	59
3.05600	51
3.05967	49
3.06333	48
3.06700	51
3.07067	52
3.07433	55
3.07800	55
3.08167	52
3.08533	50
3.08900	51
3.09267	51
3.09633	52
3.10000	55
3.10367	60
3.10733	63
3.11100	61
3.11467	64
3.11833	69
3.12200	68
3.12567	64
3.12933	50
3.13300	43
3.13667	47
3.14033	57
3.14400	61
3.14767	63
3.15133	67
3.15500	67
3.15867	65
3.16233	66
3.16600	68
3.16967	69
3.17333	71
3.17700	75
3.18067	80
3.18433	82
3.18800	86
3.19167	83
3.19533	75
3.19900	72
3.20267	70
3.20633	72
3.21000	71
3.21367	67
3.21733	66
3.22100	72
3.22467	78
3.22833	80
3.23200	79
3.23567	78
3.23933	78
3.24300	82
3.24667	85
3.25033	83
3.25400	78
3.25767	72
3.26133	68
3.26500	67
3.26867	68
3.27233	71
3.27600	76
3.27967	80
3.28333	79
3.28700	74
3.29067	65
3.29433	64
3.29800	65
3.30167	65
3.30533	67
3.30900	70
3.31267	70
3.31633	66
3.32000	60
3.32367	60
3.32733	66
3.33100	72
3.33467	78
3.33833	79
3.34200	77
3.34567	74
3.34933	73
3.35300	70
3.35667	67
3.36033	61
3.36400	55
3.36767	53
3.37133	54
3.37500	54
3.37867	56
3.38233	63
3.38600	69
3.38967	77
3.39333	88
3.39700	96
3.40067	105
3.40433	114
3.40800	115
3.41167	107
3.41533	96
3.41900	84
3.42267	73
3.42633	63
3.43000	51
3.43367	44
3.43733	37
3.44100	35
3.44467	36
3.44833	38
3.45200	38
3.45567	40
3.45933	43
3.46300	44
3.46667	42
3.47033	42
3.47400	45
3.47767	42
3.48133	39
3.48500	40
3.48867	32
3.49233	27
3.49600	27
3.49967	35
3.50333	44
3.50700	55
3.51067	63
3.51433	68
3.51800	72
3.52167	74
3.52533	76
3.52900	78
3.53267	77
3.53633	75
3.54000	70
3.54367	63
3.54733	59
3.55100	57
3.55467	54
3.55833	49
3.56200	46
3.56567	46
3.56933	49
3.57300	49
3.57667	47
3.58033	45
3.58400	48
3.58767	46
3.59133	38
3.59500	30
3.59867	24
3.60233	21
3.60600	21
3.60967	23
3.61333	26
3.61700	29
3.62067	34
3.62433	39
3.62800	50
3.63167	56
3.63533	58
3.63900	60
3.64267	60
3.64633	57
3.65000	46
3.65367	30
3.65733	19
3.66100	13
3.66467	16
3.66833	22
3.67200	31
3.67567	36
3.67933	37
3.68300	37
3.68667	38
3.69033	42
3.69400	46
3.69767	49
3.70133	50
3.70500	53
3.70867	57
3.71233	60
3.71600	61
3.71967	58
3.72333	52
3.72700	53
3.73067	54
3.73433	54
3.73800	52
3.74167	58
3.74533	65
3.74900	75
3.75267	77
3.75633	69
3.76000	58
3.76367	47
3.76733	39
3.77100	34
3.77467	28
3.77833	25
3.78200	23
3.78567	20
3.78933	20
3.79300	23
3.79667	18
3.80033	18
3.80400	24
3.80767	33
3.81133	42
3.81500	45
3.81867	43
3.82233	37
3.82600	29
3.82967	21
3.83333	17
3.83700	17
3.84067	18
3.84433	17
3.84800	18
3.85167	23
3.85533	26
3.85900	29
3.86267	33
3.86633	38
3.87000	36
3.87367	33
3.87733	33
3.88100	29
3.88467	29
3.88833	23
3.89200	14
3.89567	7
3.89933	4
3.90300	3
3.90667	-1
3.91033	-5
3.91400	-6
3.91767	-1
3.92133	4
3.92500	12
3.92867	20
3.93233	25
3.93600	24
3.93967	20
3.94333	17
3.94700	14
3.95067	13
3.95433	12
3.95800	12
3.96167	20
3.96533	26
3.96900	30
3.97267	31
3.97633	29
3.98000	29
3.98367	34
3.98733	35
3.99100	35
3.99467	34
3.99833	31

[Chromatogram (Ch2)]
Interval(msec)	220
# of Points	1091
Start Time(min)	0.002
End Time(min)	3.998
R.Time (min)	Intensity
0.00167	-1
0.00533	-1
0.00900	-1
0.01267	-1
0.01633	-1
0.02000	-1
0.02367	-2
0.02733	-2
0.03100	-2
0.03467	-3
0.03833	-3
0.04200	-4
0.04567	-4
0.04933	-4
0.05300	-4
0.05667	-5
0.06033	-5
0.06400	-5
0.06767	-5
0.07133	-5
0.07500	-5
0.07867	-5
0.08233	-5
0.08600	-4
0.08967	-4
0.09333	-3
0.09700	-3
0.10067	-3
0.10433	-3
0.10800	-3
0.11167	-3
0.11533	-3
0.11900	-2
0.12267	-2
0.12633	-2
0.13000	-2
0.13367	-2
0.13733	-2
0.14100	-2
0.14467	-2
0.14833	-2
0.15200	-1
0.15567	-2
0.15933	-2
0.16300	-2
0.16667	-2
0.17033	-2
0.17400	-2
0.17767	-2
0.18133	-2
0.18500	-2
0.18867	-2
0.19233	-2
0.19600	-2
0.19967	-2
0.20333	-2
0.20700	-2
0.21067	-3
0.21433	-3
0.21800	-3
0.22167	-2
0.22533	-2
0.22900	-2
0.23267	-2
0.23633	-1
0.24000	-1
0.24367	-1
0.24733	-0
0.25100	0
0.25467	0
0.25833	1
0.26200	1
0.26567	1
0.26933	1
0.27300	1
0.27667	1
0.28033	1
0.28400	1
0.28767	1
0.29133	1
0.29500	1
0.29867	1
0.30233	1
0.30600	1
0.30967	1
0.31333	1
0.31700	1
0.32067	1
0.32433	1
0.32800	1
0.33167	1
0.33533	1
0.33900	1
0.34267	1
0.34633	1
0.35000	2
0.35367	2
0.35733	2
0.36100	2
0.36467	2
0.36833	2
0.37200	2
0.37567	1
0.37933	1
0.38300	1
0.38667	0
0.39033	0
0.39400	-0
0.39767	-1
0.40133	-1
0.40500	-1
0.40867	-2
0.41233	-2
0.41600	-2
0.41967	-3
0.42333	-3
0.42700	-3
0.43067	-3
0.43433	-3
0.43800	-3
0.44167	-3
0.44533	-3
0.44900	-3
0.45267	-3
0.45633	-3
0.46000	-3
0.46367	-3
0.46733	-3
0.47100	-3
0.47467	-3
0.47833	-3
0.48200	-3
0.48567	-3
0.48933	-3
0.49300	-3
0.49667	-2
0.50033	-2
0.50400	-2
0.50767	-2
0.51133	-2
0.51500	-2
0.51867	-2
0.52233	-2
0.52600	-2
0.52967	-2
0.53333	-2
0.53700	-1
0.54067	-1
0.54433	-1
0.54800	-0
0.55167	-0
0.55533	0
0.55900	0
0.56267	0
0.56633	1
0.57000	1
0.57367	1
0.57733	0
0.58100	0
0.58467	-0
0.58833	-0
0.59200	-1
0.59567	-1
0.59933	-1
0.60300	-1
0.60667	-1
0.61033	-1
0.61400	-1
0.61767	-1
0.62133	-1
0.62500	-1
0.62867	-2
0.63233	-2
0.63600	-2
0.63967	-3
0.64333	-3
0.64700	-3
0.65067	-4
0.65433	-4
0.65800	-4
0.66167	-4
0.66533	-5
0.66900	-5
0.67267	-5
0.67633	-5
0.68000	-5
0.68367	-5
0.68733	-6
0.69100	-6
0.69467	-6
0.69833	-6
0.70200	-6
0.70567	-6
0.70933	-6
0.71300	-6
0.71667	-6
0.72033	-6
0.72400	-6
0.72767	-6
0.73133	-7
0.73500	-7
0.73867	-6
0.74233	-6
0.74600	-6
0.74967	-5
0.75333	-5
0.75700	-5
0.76067	-5
0.76433	-5
0.76800	-4
0.77167	-4
0.77533	-4
0.77900	-4
0.78267	-3
0.78633	-3
0.79000	-3
0.79367	-2
0.79733	-2
0.80100	-2
0.80467	-2
0.80833	-2
0.81200	-2
0.81567	-2
0.81933	-1
0.82300	-1
0.82667	-1
0.83033	-1
0.83400	-1
0.83767	-1
0.84133	-1
0.84500	-1
0.84867	-1
0.85233	-2
0.85600	-2
0.85967	-2
0.86333	-2
0.86700	-3
0.87067	-3
0.87433	-3
0.87800	-3
0.88167	-3
0.88533	-4
0.88900	-4
0.89267	-4
0.89633	-3
0.90000	-3
0.90367	-3
0.90733	-3
0.91100	-3
0.91467	-3
0.91833	-4
0.92200	-4
0.92567	-3
0.92933	-3
0.93300	-3
0.93667	-3
0.94033	-3
0.94400	-2
0.94767	-2
0.95133	-2
0.95500	-2
0.95867	-1
0.96233	-1
0.96600	-1
0.96967	-2
0.97333	-2
0.97700	-2
0.98067	-3
0.98433	-3
0.98800	-4
0.99167	-4
0.99533	-5
0.99900	-5
1.00267	-5
1.00633	-5
1.01000	-5
1.01367	-5
1.01733	-5
1.02100	-4
1.02467	-4
1.02833	-4
1.03200	-3
1.03567	-3
1.03933	-2
1.04300	-1
1.04667	-1
1.05033	-1
1.05400	-1
1.05767	-1
1.06133	-1
1.06500	-1
1.06867	-2
1.07233	-2
1.07600	-2
1.07967	-2
1.08333	-3
1.08700	-3
1.09067	-3
1.09433	-3
1.09800	-3
1.10167	-3
1.10533	-3
1.10900	-3
1.11267	-3
1.11633	-3
1.12000	-3
1.12367	-3
1.12733	-3
1.13100	-4
1.13467	-4
1.13833	-4
1.14200	-4
1.14567	-4
1.14933	-4
1.15300	-4
1.15667	-4
1.16033	-4
1.16400	-4
1.16767	-4
1.17133	-4
1.17500	-4
1.17867	-4
1.18233	-4
1.18600	-4
1.18967	-3
1.19333	-3
1.19700	-3
1.20067	-4
1.20433	-4
1.20800	-4
1.21167	-4
1.21533	-4
1.21900	-4
1.22267	-4
1.22633	-5
1.23000	-5
1.23367	-5
1.23733	-5
1.24100	-6
1.24467	-6
1.24833	-6
1.25200	-6
1.25567	-6
1.25933	-6
1.26300	-5
1.26667	-5
1.27033	-5
1.27400	-4
1.27767	-4
1.28133	-4
1.28500	-4
1.28867	-4
1.29233	-4
1.29600	-4
1.29967	-5
1.30333	-5
1.30700	-6
1.31067	-6
1.31433	-7
1.31800	-7
1.32167	-7
1.32533	-7
1.32900	-6
1.33267	-6
1.33633	-6
1.34000	-6
1.34367	-6
1.34733	-6
1.35100	-6
1.35467	-6
1.35833	-6
1.36200	-6
1.36567	-6
1.36933	-6
1.37300	-6
1.37667	-6
1.38033	-6
1.38400	-6
1.38767	-6
1.39133	-7
1.39500	-7
1.39867	-7
1.40233	-7
1.40600	-7
1.40967	-7
1.41333	-7
1.41700	-7
1.42067	-6
1.42433	-6
1.42800	-6
1.43167	-6
1.43533	-6
1.43900	-6
1.44267	-5
1.44633	-5
1.45000	-5
1.45367	-4
1.45733	-4
1.46100	-3
1.46467	-3
1.46833	-2
1.47200	-2
1.47567	-2
1.47933	-2
1.48300	-1
1.48667	-1
1.49033	-2
1.49400	-2
1.49767	-2
1.50133	-3
1.50500	-3
1.50867	-3
1.51233	-3
1.51600	-4
1.51967	-4
1.52333	-5
1.52700	-5
1.53067	-6
1.53433	-6
1.53800	-6
1.54167	-6
1.54533	-6
1.54900	-6
1.55267	-6
1.55633	-6
1.56000	-6
1.56367	-6
1.56733	-6
1.57100	-6
1.57467	-6
1.57833	-6
1.58200	-6
1.58567	-6
1.58933	-6
1.59300	-6
1.59667	-7
1.60033	-7
1.60400	-8
1.60767	-9
1.61133	-10
1.61500	-12
1.61867	-14
1.62233	-17
1.62600	-20
1.62967	-23
1.63333	-26
1.63700	-30
1.64067	-33
1.64433	-37
1.64800	-41
1.65167	-45
1.65533	-49
1.65900	-52
1.66267	-56
1.66633	-60
1.67000	-65
1.67367	-69
1.67733	-74
1.68100	-79
1.68467	-84
1.68833	-89
1.69200	-93
1.69567	-96
1.69933	-99
1.70300	-101
1.70667	-103
1.71033	-104
1.71400	-105
1.71767	-105
1.72133	-106
1.72500	-107
1.72867	-108
1.73233	-109
1.73600	-110
1.73967	-111
1.74333	-111
1.74700	-112
1.75067	-112
1.75433	-113
1.75800	-113
1.76167	-113
1.76533	-114
1.76900	-114
1.77267	-114
1.77633	-115
1.78000	-115
1.78367	-115
1.78733	-115
1.79100	-115
1.79467	-116
1.79833	-116
1.80200	-117
1.80567	-117
1.80933	-117
1.81300	-117
1.81667	-117
1.82033	-117
1.82400	-117
1.82767	-117
1.83133	-117
1.83500	-118
1.83867	-118
1.84233	-117
1.84600	-117
1.84967	-118
1.85333	-118
1.85700	-118
1.86067	-119
1.86433	-119
1.86800	-119
1.87167	-119
1.87533	-119
1.87900	-118
1.88267	-118
1.88633	-117
1.89000	-117
1.89367	-116
1.89733	-116
1.90100	-116
1.90467	-116
1.90833	-115
1.91200	-115
1.91567	-114
1.91933	-114
1.92300	-114
1.92667	-114
1.93033	-114
1.93400	-114
1.93767	-114
1.94133	-113
1.94500	-113
1.94867	-112
1.95233	-112
1.95600	-112
1.95967	-112
1.96333	-112
1.96700	-112
1.97067	-111
1.97433	-111
1.97800	-111
1.98167	-111
1.98533	-110
1.98900	-110
1.99267	-110
1.99633	-110
2.00000	-109
2.00367	-109
2.00733	-109
2.01100	-109
2.01467	-108
2.01833	-108
2.02200	-108
2.02567	-107
2.02933	-107
2.03300	-107
2.03667	-107
2.04033	-106
2.04400	-106
2.04767	-107
2.05133	-107
2.05500	-108
2.05867	-107
2.06233	-107
2.06600	-106
2.06967	-105
2.07333	-104
2.07700	-103
2.08067	-102
2.08433	-102
2.08800	-102
2.09167	-102
2.09533	-101
2.09900	-101
2.10267	-100
2.10633	-99
2.11000	-99
2.11367	-99
2.11733	-98
2.12100	-98
2.12467	-98
2.12833	-97
2.13200	-97
2.13567	-97
2.13933	-98
2.14300	-98
2.14667	-99
2.15033	-99
2.15400	-99
2.15767	-98
2.16133	-97
2.16500	-97
2.16867	-96
2.17233	-95
2.17600	-95
2.17967	-95
2.18333	-96
2.18700	-96
2.19067	-96
2.19433	-95
2.19800	-95
2.20167	-94
2.20533	-93
2.20900	-93
2.21267	-92
2.21633	-92
2.22000	-92
2.22367	-92
2.22733	-93
2.23100	-93
2.23467	-93
2.23833	-93
2.24200	-92
2.24567	-91
2.24933	-89
2.25300	-88
2.25667	-87
2.26033	-86
2.26400	-86
2.26767	-86
2.27133	-86
2.27500	-86
2.27867	-86
2.28233	-86
2.28600	-85
2.28967	-85
2.29333	-85
2.29700	-84
2.30067	-84
2.30433	-84
2.30800	-84
2.31167	-83
2.31533	-83
2.31900	-83
2.32267	-83
2.32633	-82
2.33000	-83
2.33367	-84
2.33733	-84
2.34100	-84
2.34467	-84
2.34833	-83
2.35200	-82
2.35567	-80
2.35933	-79
2.36300	-77
2.36667	-74
2.37033	-72
2.37400	-68
2.37767	-65
2.38133	-60
2.38500	-56
2.38867	-52
2.39233	-47
2.39600	-42
2.39967	-37
2.40333	-33
2.40700	-29
2.41067	-25
2.41433	-21
2.41800	-18
2.42167	-16
2.42533	-14
2.42900	-12
2.43267	-11
2.43633	-10
2.44000	-9
2.44367	-9
2.44733	-9
2.45100	-9
2.45467	-9
2.45833	-8
2.46200	-8
2.46567	-8
2.46933	-8
2.47300	-7
2.47667	-6
2.48033	-6
2.48400	-5
2.48767	-3
2.49133	-2
2.49500	-1
2.49867	0
2.50233	1
2.50600	3
2.50967	4
2.51333	4
2.51700	5
2.52067	6
2.52433	7
2.52800	7
2.53167	8
2.53533	9
2.53900	10
2.54267	10
2.54633	11
2.55000	11
2.55367	11
2.55733	12
2.56100	12
2.56467	13
2.56833	13
2.57200	13
2.57567	13
2.57933	13
2.58300	13
2.58667	12
2.59033	12
2.59400	12
2.59767	12
2.60133	12
2.60500	12
2.60867	12
2.61233	13
2.61600	13
2.61967	13
2.62333	13
2.62700	13
2.63067	13
2.63433	12
2.63800	12
2.64167	12
2.64533	12
2.64900	13
2.65267	13
2.65633	14
2.66000	15
2.66367	15
2.66733	16
2.67100	16
2.67467	17
2.67833	17
2.68200	17
2.68567	17
2.68933	17
2.69300	17
2.69667	17
2.70033	18
2.70400	18
2.70767	19
2.71133	19
2.71500	20
2.71867	21
2.72233	22
2.72600	22
2.72967	23
2.73333	23
2.73700	23
2.74067	23
2.74433	23
2.74800	22
2.75167	22
2.75533	21
2.75900	21
2.76267	20
2.76633	20
2.77000	20
2.77367	19
2.77733	20
2.78100	20
2.78467	20
2.78833	20
2.79200	20
2.79567	20
2.79933	21
2.80300	21
2.80667	21
2.81033	21
2.81400	22
2.81767	22
2.82133	23
2.82500	23
2.82867	23
2.83233	24
2.83600	24
2.83967	23
2.84333	23
2.84700	21
2.85067	18
2.85433	13
2.85800	5
2.86167	-6
2.86533	-21
2.86900	-40
2.87267	-63
2.87633	-91
2.88000	-123
2.88367	-159
2.88733	-199
2.89100	-243
2.89467	-290
2.89833	-340
2.90200	-392
2.90567	-445
2.90933	-500
2.91300	-556
2.91667	-612
2.92033	-668
2.92400	-723
2.92767	-777
2.93133	-829
2.93500	-882
2.93867	-938
2.94233	-997
2.94600	-1052
2.94967	-1091
2.95333	-1107
2.95700	-1097
2.96067	-1063
2.96433	-1009
2.96800	-940
2.97167	-864
2.97533	-783
2.97900	-703
2.98267	-625
2.98633	-551
2.99000	-482
2.99367	-420
2.99733	-364
3.00100	-314
3.00467	-270
3.00833	-231
3.01200	-197
3.01567	-168
3.01933	-143
3.02300	-121
3.02667	-102
3.03033	-86
3.03400	-72
3.03767	-60
3.04133	-50
3.04500	-41
3.04867	-33
3.05233	-27
3.05600	-21
3.05967	-17
3.06333	-13
3.06700	-10
3.07067	-7
3.07433	-5
3.07800	-3
3.08167	-1
3.08533	0
3.08900	2
3.09267	3
3.09633	5
3.10000	6
3.10367	7
3.10733	7
3.11100	8
3.11467	9
3.11833	9
3.12200	10
3.12567	11
3.12933	11
3.13300	12
3.13667	12
3.14033	12
3.14400	13
3.14767	13
3.15133	13
3.15500	14
3.15867	14
3.16233	15
3.16600	15
3.16967	15
3.17333	16
3.17700	16
3.18067	17
3.18433	17
3.18800	17
3.19167	17
3.19533	17
3.19900	17
3.20267	17
3.20633	17
3.21000	17
3.21367	17
3.21733	17
3.22100	17
3.22467	18
3.22833	18
3.23200	18
3.23567	18
3.23933	19
3.24300	19
3.24667	19
3.25033	19
3.25400	19
3.25767	20
3.26133	20
3.26500	20
3.26867	20
3.27233	20
3.27600	19
3.27967	19
3.28333	19
3.28700	19
3.29067	19
3.29433	19
3.29800	19
3.30167	20
3.30533	20
3.30900	20
3.31267	21
3.31633	21
3.32000	21
3.32367	22
3.32733	22
3.33100	22
3.33467	23
3.33833	23
3.34200	23
3.34567	23
3.34933	24
3.35300	24
3.35667	24
3.36033	24
3.36400	24
3.36767	24
3.37133	24
3.37500	24
3.37867	24
3.38233	24
3.38600	24
3.38967	25
3.39333	25
3.39700	25
3.40067	25
3.40433	25
3.40800	25
3.41167	26
3.41533	26
3.41900	26
3.42267	26
3.42633	26
3.43000	26
3.43367	27
3.43733	27
3.44100	27
3.44467	27
3.44833	27
3.45200	27
3.45567	27
3.45933	27
3.46300	26
3.46667	26
3.47033	26
3.47400	25
3.47767	25
3.48133	25
3.48500	24
3.48867	24
3.49233	24
3.49600	24
3.49967	24
3.50333	24
3.50700	24
3.51067	24
3.51433	24
3.51800	24
3.52167	24
3.52533	24
3.52900	24
3.53267	24
3.53633	23
3.54000	23
3.54367	23
3.54733	24
3.55100	24
3.55467	24
3.55833	24
3.56200	24
3.56567	24
3.56933	24
3.57300	24
3.57667	24
3.58033	24
3.58400	25
3.58767	25
3.59133	25
3.59500	25
3.59867	25
3.60233	25
3.60600	25
3.60967	25
3.61333	25
3.61700	25
3.62067	24
3.62433	24
3.62800	24
3.63167	24
3.63533	23
3.63900	23
3.64267	23
3.64633	23
3.65000	22
3.65367	22
3.65733	22
3.66100	22
3.66467	21
3.66833	22
3.67200	22
3.67567	22
3.67933	22
3.68300	22
3.68667	23
3.69033	23
3.69400	23
3.69767	24
3.70133	24
3.70500	24
3.70867	24
3.71233	24
3.71600	24
3.71967	24
3.72333	24
3.72700	24
3.73067	24
3.73433	24
3.73800	24
3.74167	24
3.74533	24
3.74900	24
3.75267	24
3.75633	24
3.76000	24
3.76367	23
3.76733	23
3.77100	23
3.77467	23
3.77833	23
3.78200	23
3.78567	23
3.78933	23
3.79300	23
3.79667	23
3.80033	23
3.80400	23
3.80767	23
3.81133	23
3.81500	23
3.81867	23
3.82233	24
3.82600	24
3.82967	24
3.83333	24
3.83700	24
3.84067	24
3.84433	24
3.84800	24
3.85167	25
3.85533	25
3.85900	24
3.86267	24
3.86633	24
3.87000	24
3.87367	24
3.87733	25
3.88100	25
3.88467	25
3.88833	25
3.89200	25
3.89567	25
3.89933	25
3.90300	25
3.90667	24
3.91033	24
3.91400	24
3.91767	24
3.92133	24
3.92500	24
3.92867	24
3.93233	24
3.93600	24
3.93967	24
3.94333	24
3.94700	24
3.95067	24
3.95433	24
3.95800	24
3.96167	24
3.96533	24
3.96900	24
3.97267	24
3.97633	24
3.98000	23
3.98367	23
3.98733	23
3.99100	23
3.99467	23
3.99833	23

[Chromatogram (Ch3)]
Interval(msec)	220
# of Points	1091
Start Time(min)	0.002
End Time(min)	3.998
R.Time (min)	Intensity
0.00167	0
0.00533	-0
0.00900	-0
0.01267	-0
0.01633	-1
0.02000	1
0.02367	3
0.02733	3
0.03100	5
0.03467	8
0.03833	9
0.04200	8
0.04567	9
0.04933	11
0.05300	10
0.05667	10
0.06033	9
0.06400	7
0.06767	6
0.07133	4
0.07500	4
0.07867	5
0.08233	6
0.08600	6
0.08967	7
0.09333	8
0.09700	9
0.10067	11
0.10433	12
0.10800	11
0.11167	8
0.11533	7
0.11900	8
0.12267	7
0.12633	9
0.13000	10
0.13367	8
0.13733	7
0.14100	8
0.14467	9
0.14833	10
0.15200	11
0.15567	12
0.15933	14
0.16300	17
0.16667	17
0.17033	17
0.17400	16
0.17767	14
0.18133	11
0.18500	9
0.18867	9
0.19233	10
0.19600	13
0.19967	14
0.20333	15
0.20700	14
0.21067	13
0.21433	10
0.21800	7
0.22167	6
0.22533	8
0.22900	10
0.23267	12
0.23633	13
0.24000	14
0.24367	14
0.24733	13
0.25100	12
0.25467	10
0.25833	9
0.26200	10
0.26567	10
0.26933	7
0.27300	8
0.27667	10
0.28033	11
0.28400	11
0.28767	10
0.29133	9
0.29500	9
0.29867	11
0.30233	10
0.30600	10
0.30967	10
0.31333	11
0.31700	9
0.32067	7
0.32433	5
0.32800	4
0.33167	5
0.33533	7
0.33900	8
0.34267	10
0.34633	9
0.35000	9
0.35367	11
0.35733	12
0.36100	11
0.36467	11
0.36833	9
0.37200	7
0.37567	7
0.37933	7
0.38300	6
0.38667	8
0.39033	9
0.39400	9
0.39767	8
0.40133	7
0.40500	7
0.40867	8
0.41233	9
0.41600	10
0.41967	10
0.42333	9
0.42700	9
0.43067	9
0.43433	8
0.43800	8
0.44167	9
0.44533	9
0.44900	7
0.45267	6
0.45633	7
0.46000	8
0.46367	9
0.46733	10
0.47100	11
0.47467	9
0.47833	7
0.48200	7
0.48567	8
0.48933	8
0.49300	11
0.49667	12
0.50033	10
0.50400	10
0.50767	11
0.51133	10
0.51500	9
0.51867	9
0.52233	8
0.52600	7
0.52967	8
0.53333	9
0.53700	11
0.54067	14
0.54433	14
0.54800	11
0.55167	9
0.55533	10
0.55900	10
0.56267	11
0.56633	11
0.57000	11
0.57367	13
0.57733	13
0.58100	13
0.58467	14
0.58833	14
0.59200	13
0.59567	11
0.59933	9
0.60300	10
0.60667	10
0.61033	10
0.61400	12
0.61767	11
0.62133	10
0.62500	11
0.62867	12
0.63233	11
0.63600	11
0.63967	11
0.64333	11
0.64700	12
0.65067	13
0.65433	13
0.65800	14
0.66167	14
0.66533	15
0.66900	15
0.67267	15
0.67633	14
0.68000	13
0.68367	11
0.68733	9
0.69100	9
0.69467	10
0.69833	13
0.70200	16
0.70567	17
0.70933	17
0.71300	18
0.71667	19
0.72033	18
0.72400	16
0.72767	14
0.73133	14
0.73500	16
0.73867	17
0.74233	19
0.74600	20
0.74967	21
0.75333	23
0.75700	22
0.76067	21
0.76433	18
0.76800	14
0.77167	12
0.77533	13
0.77900	14
0.78267	15
0.78633	16
0.79000	19
0.79367	19
0.79733	18
0.80100	20
0.80467	21
0.80833	21
0.81200	22
0.81567	23
0.81933	24
0.82300	23
0.82667	21
0.83033	18
0.83400	16
0.83767	15
0.84133	14
0.84500	14
0.84867	15
0.85233	18
0.85600	20
0.85967	21
0.86333	20
0.86700	19
0.87067	21
0.87433	21
0.87800	21
0.88167	20
0.88533	19
0.88900	17
0.89267	16
0.89633	18
0.90000	20
0.90367	21
0.90733	20
0.91100	20
0.91467	21
0.91833	22
0.92200	23
0.92567	25
0.92933	26
0.93300	25
0.93667	24
0.94033	25
0.94400	23
0.94767	21
0.95133	20
0.95500	20
0.95867	19
0.96233	19
0.96600	19
0.96967	19
0.97333	20
0.97700	21
0.98067	19
0.98433	19
0.98800	22
0.99167	22
0.99533	22
0.99900	23
1.00267	23
1.00633	22
1.01000	22
1.01367	21
1.01733	21
1.02100	22
1.02467	24
1.02833	26
1.03200	27
1.03567	24
1.03933	24
1.04300	25
1.04667	24
1.05033	23
1.05400	21
1.05767	20
1.06133	21
1.06500	21
1.06867	21
1.07233	21
1.07600	22
1.07967	23
1.08333	25
1.08700	25
1.09067	24
1.09433	23
1.09800	21
1.10167	20
1.10533	22
1.10900	22
1.11267	18
1.11633	17
1.12000	17
1.12367	18
1.12733	19
1.13100	21
1.13467	24
1.13833	26
1.14200	26
1.14567	23
1.14933	22
1.15300	22
1.15667	23
1.16033	23
1.16400	21
1.16767	21
1.17133	21
1.17500	22
1.17867	23
1.18233	24
1.18600	24
1.18967	22
1.19333	21
1.19700	20
1.20067	19
1.20433	19
1.20800	20
1.21167	20
1.21533	22
1.21900	23
1.22267	24
1.22633	24
1.23000	24
1.23367	24
1.23733	24
1.24100	23
1.24467	22
1.24833	19
1.25200	16
1.25567	16
1.25933	17
1.26300	17
1.26667	17
1.27033	17
1.27400	19
1.27767	21
1.28133	23
1.28500	23
1.28867	24
1.29233	25
1.29600	25
1.29967	26
1.30333	28
1.30700	28
1.31067	26
1.31433	23
1.31800	22
1.32167	22
1.32533	22
1.32900	23
1.33267	23
1.33633	22
1.34000	22
1.34367	22
1.34733	22
1.35100	24
1.35467	26
1.35833	27
1.36200	25
1.36567	24
1.36933	23
1.37300	23
1.37667	23
1.38033	24
1.38400	24
1.38767	24
1.39133	27
1.39500	27
1.39867	25
1.40233	25
1.40600	24
1.40967	23
1.41333	24
1.41700	25
1.42067	27
1.42433	28
1.42800	30
1.43167	31
1.43533	31
1.43900	30
1.44267	30
1.44633	30
1.45000	30
1.45367	28
1.45733	27
1.46100	26
1.46467	25
1.46833	25
1.47200	25
1.47567	27
1.47933	30
1.48300	31
1.48667	29
1.49033	28
1.49400	28
1.49767	28
1.50133	27
1.50500	26
1.50867	26
1.51233	27
1.51600	27
1.51967	26
1.52333	24
1.52700	23
1.53067	25
1.53433	27
1.53800	28
1.54167	29
1.54533	28
1.54900	27
1.55267	27
1.55633	29
1.56000	32
1.56367	31
1.56733	31
1.57100	32
1.57467	33
1.57833	31
1.58200	29
1.58567	27
1.58933	27
1.59300	27
1.59667	29
1.60033	31
1.60400	33
1.60767	34
1.61133	34
1.61500	35
1.61867	33
1.62233	29
1.62600	28
1.62967	27
1.63333	27
1.63700	29
1.64067	29
1.64433	29
1.64800	30
1.65167	31
1.65533	33
1.65900	34
1.66267	37
1.66633	39
1.67000	39
1.67367	41
1.67733	42
1.68100	42
1.68467	41
1.68833	41
1.69200	41
1.69567	43
1.69933	44
1.70300	45
1.70667	44
1.71033	45
1.71400	47
1.71767	46
1.72133	44
1.72500	45
1.72867	45
1.73233	43
1.73600	41
1.73967	42
1.74333	44
1.74700	46
1.75067	47
1.75433	48
1.75800	49
1.76167	48
1.76533	47
1.76900	47
1.77267	49
1.77633	51
1.78000	51
1.78367	51
1.78733	54
1.79100	57
1.79467	58
1.79833	57
1.80200	56
1.80567	54
1.80933	53
1.81300	51
1.81667	50
1.82033	50
1.82400	52
1.82767	54
1.83133	56
1.83500	56
1.83867	55
1.84233	57
1.84600	58
1.84967	57
1.85333	55
1.85700	57
1.86067	56
1.86433	57
1.86800	60
1.87167	62
1.87533	62
1.87900	62
1.88267	63
1.88633	65
1.89000	68
1.89367	70
1.89733	70
1.90100	70
1.90467	69
1.90833	68
1.91200	68
1.91567	68
1.91933	68
1.92300	70
1.92667	71
1.93033	70
1.93400	71
1.93767	73
1.94133	75
1.94500	76
1.94867	77
1.95233	79
1.95600	82
1.95967	85
1.96333	86
1.96700	87
1.97067	87
1.97433	89
1.97800	90
1.98167	90
1.98533	90
1.98900	91
1.99267	90
1.99633	91
2.00000	94
2.00367	96
2.00733	98
2.01100	99
2.01467	99
2.01833	101
2.02200	102
2.02567	104
2.02933	104
2.03300	104
2.03667	107
2.04033	111
2.04400	113
2.04767	116
2.05133	117
2.05500	117
2.05867	117
2.06233	117
2.06600	118
2.06967	118
2.07333	118
2.07700	118
2.08067	121
2.08433	123
2.08800	123
2.09167	123
2.09533	125
2.09900	126
2.10267	127
2.10633	128
2.11000	130
2.11367	131
2.11733	132
2.12100	134
2.12467	135
2.12833	136
2.13200	137
2.13567	138
2.13933	140
2.14300	142
2.14667	143
2.15033	145
2.15400	147
2.15767	148
2.16133	150
2.16500	150
2.16867	149
2.17233	149
2.17600	150
2.17967	149
2.18333	149
2.18700	149
2.19067	149
2.19433	152
2.19800	156
2.20167	157
2.20533	157
2.20900	159
2.21267	162
2.21633	163
2.22000	164
2.22367	165
2.22733	167
2.23100	169
2.23467	171
2.23833	174
2.24200	175
2.24567	176
2.24933	176
2.25300	176
2.25667	176
2.26033	176
2.26400	177
2.26767	179
2.27133	180
2.27500	184
2.27867	185
2.28233	187
2.28600	190
2.28967	193
2.29333	193
2.29700	191
2.30067	191
2.30433	192
2.30800	195
2.31167	199
2.31533	202
2.31900	201
2.32267	202
2.32633	203
2.33000	205
2.33367	206
2.33733	206
2.34100	207
2.34467	207
2.34833	208
2.35200	208
2.35567	209
2.35933	209
2.36300	210
2.36667	210
2.37033	208
2.37400	208
2.37767	208
2.38133	210
2.38500	214
2.38867	214
2.39233	214
2.39600	215
2.39967	217
2.40333	218
2.40700	221
2.41067	223
2.41433	225
2.41800	227
2.42167	229
2.42533	230
2.42900	231
2.43267	233
2.43633	234
2.44000	236
2.44367	285
2.44733	419
2.45100	567
2.45467	689
2.45833	759
2.46200	765
2.46567	735
2.46933	697
2.47300	667
2.47667	650
2.48033	635
2.48400	611
2.48767	570
2.49133	524
2.49500	483
2.49867	450
2.50233	426
2.50600	411
2.50967	404
2.51333	408
2.51700	422
2.52067	440
2.52433	455
2.52800	463
2.53167	464
2.53533	454
2.53900	433
2.54267	405
2.54633	374
2.55000	345
2.55367	321
2.55733	301
2.56100	286
2.56467	272
2.56833	263
2.57200	259
2.57567	256
2.57933	254
2.58300	254
2.58667	255
2.59033	255
2.59400	253
2.59767	251
2.60133	249
2.60500	246
2.60867	237
2.61233	228
2.61600	216
2.61967	204
2.62333	193
2.62700	183
2.63067	173
2.63433	165
2.63800	158
2.64167	149
2.64533	141
2.64900	133
2.65267	123
2.65633	111
2.66000	101
2.66367	91
2.66733	82
2.67100	75
2.67467	67
2.67833	61
2.68200	56
2.68567	54
2.68933	54
2.69300	56
2.69667	58
2.70033	60
2.70400	65
2.70767	68
2.71133	71
2.71500	74
2.71867	77
2.72233	80
2.72600	84
2.72967	87
2.73333	90
2.73700	94
2.74067	98
2.74433	100
2.74800	102
2.75167	105
2.75533	105
2.75900	107
2.76267	108
2.76633	111
2.77000	116
2.77367	121
2.77733	126
2.78100	133
2.78467	138
2.78833	140
2.79200	143
2.79567	146
2.79933	149
2.80300	153
2.80667	159
2.81033	164
2.81400	169
2.81767	176
2.82133	185
2.82500	202
2.82867	237
2.83233	303
2.83600	423
2.83967	619
2.84333	905
2.84700	1292
2.85067	1774
2.85433	2326
2.85800	2913
2.86167	3489
2.86533	4002
2.86900	4415
2.87267	4703
2.87633	4847
2.88000	4854
2.88367	4741
2.88733	4534
2.89100	4257
2.89467	3938
2.89833	3599
2.90200	3257
2.90567	2926
2.90933	2614
2.91300	2326
2.91667	2064
2.92033	1827
2.92400	1615
2.92767	1429
2.93133	1266
2.93500	1124
2.93867	996
2.94233	883
2.94600	784
2.94967	697
2.95333	623
2.95700	558
2.96067	503
2.96433	456
2.96800	417
2.97167	383
2.97533	352
2.97900	323
2.98267	299
2.98633	278
2.99000	259
2.99367	244
2.99733	231
3.00100	220
3.00467	209
3.00833	198
3.01200	190
3.01567	186
3.01933	184
3.02300	179
3.02667	176
3.03033	170
3.03400	166
3.03767	163
3.04133	162
3.04500	162
3.04867	161
3.05233	160
3.05600	160
3.05967	158
3.06333	157
3.06700	157
3.07067	156
3.07433	156
3.07800	155
3.08167	155
3.08533	156
3.08900	157
3.09267	156
3.09633	155
3.10000	154
3.10367	151
3.10733	149
3.11100	149
3.11467	148
3.11833	149
3.12200	149
3.12567	144
3.12933	121
3.13300	102
3.13667	101
3.14033	118
3.14400	147
3.14767	185
3.15133	227
3.15500	269
3.15867	312
3.16233	351
3.16600	387
3.16967	420
3.17333	450
3.17700	476
3.18067	498
3.18433	518
3.18800	535
3.19167	549
3.19533	563
3.19900	573
3.20267	583
3.20633	595
3.21000	606
3.21367	614
3.21733	622
3.22100	629
3.22467	636
3.22833	645
3.23200	652
3.23567	661
3.23933	668
3.24300	670
3.24667	672
3.25033	674
3.25400	677
3.25767	682
3.26133	686
3.26500	693
3.26867	698
3.27233	703
3.27600	708
3.27967	712
3.28333	717
3.28700	720
3.29067	721
3.29433	722
3.29800	725
3.30167	730
3.30533	735
3.30900	740
3.31267	744
3.31633	746
3.32000	746
3.32367	746
3.32733	748
3.33100	750
3.33467	753
3.33833	755
3.34200	756
3.34567	756
3.34933	755
3.35300	756
3.35667	757
3.36033	761
3.36400	764
3.36767	762
3.37133	758
3.37500	756
3.37867	756
3.38233	756
3.38600	757
3.38967	754
3.39333	751
3.39700	748
3.40067	746
3.40433	744
3.40800	744
3.41167	743
3.41533	743
3.41900	742
3.42267	739
3.42633	736
3.43000	732
3.43367	732
3.43733	732
3.44100	732
3.44467	731
3.44833	729
3.45200	729
3.45567	729
3.45933	727
3.46300	724
3.46667	721
3.47033	719
3.47400	720
3.47767	719
3.48133	718
3.48500	715
3.48867	712
3.49233	711
3.49600	711
3.49967	709
3.50333	708
3.50700	706
3.51067	705
3.51433	706
3.51800	706
3.52167	706
3.52533	703
3.52900	700
3.53267	697
3.53633	695
3.54000	696
3.54367	697
3.54733	698
3.55100	698
3.55467	696
3.55833	694
3.56200	692
3.56567	690
3.56933	690
3.57300	691
3.57667	691
3.58033	690
3.58400	692
3.58767	692
3.59133	692
3.59500	689
3.59867	687
3.60233	687
3.60600	686
3.60967	683
3.61333	680
3.61700	676
3.62067	676
3.62433	677
3.62800	678
3.63167	680
3.63533	679
3.63900	678
3.64267	678
3.64633	677
3.65000	674
3.65367	674
3.65733	673
3.66100	671
3.66467	671
3.66833	667
3.67200	664
3.67567	661
3.67933	659
3.68300	659
3.68667	657
3.69033	654
3.69400	650
3.69767	648
3.70133	648
3.70500	647
3.70867	647
3.71233	648
3.71600	647
3.71967	645
3.72333	644
3.72700	640
3.73067	635
3.73433	633
3.73800	632
3.74167	631
3.74533	630
3.74900	629
3.75267	629
3.75633	627
3.76000	626
3.76367	624
3.76733	621
3.77100	619
3.77467	617
3.77833	614
3.78200	612
3.78567	610
3.78933	609
3.79300	609
3.79667	610
3.80033	610
3.80400	606
3.80767	604
3.81133	602
3.81500	601
3.81867	598
3.82233	593
3.82600	593
3.82967	591
3.83333	586
3.83700	584
3.84067	583
3.84433	582
3.84800	581
3.85167	579
3.85533	576
3.85900	573
3.86267	572
3.86633	573
3.87000	572
3.87367	570
3.87733	567
3.88100	564
3.88467	561
3.88833	556
3.89200	554
3.89567	553
3.89933	551
3.90300	550
3.90667	549
3.91033	549
3.91400	549
3.91767	548
3.92133	546
3.92500	544
3.92867	541
3.93233	541
3.93600	540
3.93967	539
3.94333	537
3.94700	533
3.95067	530
3.95433	529
3.95800	527
3.96167	524
3.96533	520
3.96900	518
3.97267	517
3.97633	517
3.98000	516
3.98367	515
3.98733	514
3.99100	515
3.99467	516
3.99833	514

[Status Trace (Column Oven Temperature)]
Interval(msec)	1000
# of Points	240
Start Time(min)	0.003
End Time(min)	3.986
Intensity Units	
Intensity Multiplier	1
R.Time (min)	Intensity
0.00280	35.03
0.01947	35.03
0.03613	35.05
0.05280	35.06
0.06947	35.07
0.08613	35.07
0.10280	35.07
0.11947	35.07
0.13613	35.07
0.15280	35.08
0.16947	35.08
0.18613	35.09
0.20280	35.08
0.21947	35.07
0.23613	35.06
0.25280	35.05
0.26947	35.05
0.28613	35.03
0.30280	35.02
0.31947	35.02
0.33613	35.01
0.35280	35.00
0.36947	34.99
0.38613	34.98
0.40280	34.99
0.41947	35.01
0.43613	35.01
0.45280	35.02
0.46947	35.03
0.48613	35.03
0.50280	35.03
0.51947	35.02
0.53613	35.00
0.55280	34.99
0.56947	34.98
0.58613	34.98
0.60280	34.98
0.61947	34.98
0.63613	34.98
0.65280	34.99
0.66947	35.00
0.68613	35.00
0.70280	35.02
0.71947	35.04
0.73613	35.05
0.75280	35.04
0.76947	35.04
0.78613	35.03
0.80280	35.03
0.81947	35.02
0.83613	35.00
0.85280	35.00
0.86947	35.01
0.88613	35.00
0.90280	35.00
0.91947	35.00
0.93613	35.00
0.95280	34.99
0.96947	34.99
0.98613	35.00
1.00280	35.00
1.01947	35.00
1.03613	34.98
1.05280	34.97
1.06947	34.97
1.08613	34.97
1.10280	34.97
1.11947	34.97
1.13613	34.97
1.15280	34.97
1.16947	34.97
1.18613	34.96
1.20280	34.97
1.21947	34.97
1.23613	34.98
1.25280	34.98
1.26947	34.98
1.28613	34.97
1.30280	34.99
1.31947	34.99
1.33613	34.99
1.35280	35.00
1.36947	35.01
1.38613	35.01
1.40280	35.02
1.41947	35.03
1.43613	35.01
1.45280	35.01
1.46947	34.99
1.48613	34.98
1.50280	34.98
1.51947	34.98
1.53613	34.99
1.55280	35.00
1.56947	35.00
1.58613	35.00
1.60280	35.03
1.61947	35.13
1.63613	35.31
1.65280	35.54
1.66947	35.84
1.68613	36.23
1.70280	36.57
1.71947	36.91
1.73613	37.25
1.75280	37.57
1.76947	37.91
1.78613	38.24
1.80280	38.57
1.81947	38.90
1.83613	39.24
1.85280	39.57
1.86947	39.89
1.88613	40.22
1.90280	40.56
1.91947	40.89
1.93613	41.22
1.95280	41.55
1.96947	41.85
1.98613	42.18
2.00280	42.51
2.01947	42.84
2.03613	43.14
2.05280	43.50
2.06947	43.81
2.08613	44.13
2.10280	44.46
2.11947	44.77
2.13613	45.12
2.15280	45.45
2.16947	45.77
2.18613	46.11
2.20280	46.43
2.21947	46.77
2.23613	47.11
2.25280	47.41
2.26947	47.74
2.28613	48.06
2.30280	48.39
2.31947	48.70
2.33613	49.08
2.35280	49.37
2.36947	49.57
2.38613	49.64
2.40280	49.63
2.41947	49.63
2.43613	49.64
2.45280	49.66
2.46947	49.68
2.48613	49.70
2.50280	49.71
2.51947	49.73
2.53613	49.73
2.55280	49.74
2.56947	49.75
2.58613	49.79
2.60280	49.79
2.61947	49.81
2.63613	49.84
2.65280	49.84
2.66947	49.84
2.68613	49.85
2.70280	49.86
2.71947	49.84
2.73613	49.84
2.75280	49.87
2.76947	49.90
2.78613	49.90
2.80280	49.90
2.81947	49.89
2.83613	49.88
2.85280	49.88
2.86947	49.87
2.88613	49.87
2.90280	49.87
2.91947	49.90
2.93613	49.92
2.95280	49.93
2.96947	49.95
2.98613	49.95
3.00280	49.96
3.01947	49.97
3.03613	49.98
3.05280	50.00
3.06947	50.02
3.08613	50.03
3.10280	50.04
3.11947	50.05
3.13613	50.06
3.15280	50.06
3.16947	50.06
3.18613	50.07
3.20280	50.08
3.21947	50.08
3.23613	50.08
3.25280	50.08
3.26947	50.10
3.28613	50.11
3.30280	50.11
3.31947	50.11
3.33613	50.10
3.35280	50.08
3.36947	50.07
3.38613	50.06
3.40280	50.05
3.41947	50.03
3.43613	50.02
3.45280	50.01
3.46947	50.02
3.48613	50.02
3.50280	50.03
3.51947	50.03
3.53613	50.03
3.55280	50.04
3.56947	50.03
3.58613	50.02
3.60280	50.02
3.61947	50.03
3.63613	50.04
3.65280	50.05
3.66947	50.06
3.68613	50.06
3.70280	50.05
3.71947	50.05
3.73613	50.05
3.75280	50.05
3.76947	50.06
3.78613	50.07
3.80280	50.07
3.81947	50.07
3.83613	50.06
3.85280	50.05
3.86947	50.04
3.88613	50.03
3.90280	50.03
3.91947	50.03
3.93613	50.03
3.95280	50.04
3.96947	50.04
3.98613	50.04

[Status Trace (Injection Unit Temperature)]
Interval(msec)	1000
# of Points	240
Start Time(min)	0.003
End Time(min)	3.986
Intensity Units	
Intensity Multiplier	1
R.Time (min)	Intensity
0.00280	99.98
0.01947	99.98
0.03613	99.98
0.05280	99.98
0.06947	99.99
0.08613	99.99
0.10280	99.98
0.11947	99.98
0.13613	99.99
0.15280	99.99
0.16947	99.99
0.18613	99.98
0.20280	99.98
0.21947	99.99
0.23613	99.98
0.25280	99.98
0.26947	99.98
0.28613	99.98
0.30280	99.99
0.31947	99.98
0.33613	99.98
0.35280	99.98
0.36947	99.99
0.38613	99.98
0.40280	99.98
0.41947	99.98
0.43613	99.98
0.45280	99.98
0.46947	99.98
0.48613	99.98
0.50280	99.98
0.51947	99.98
0.53613	99.98
0.55280	99.98
0.56947	99.98
0.58613	99.98
0.60280	99.98
0.61947	99.98
0.63613	99.99
0.65280	99.98
0.66947	99.98
0.68613	99.98
0.70280	99.98
0.71947	99.98
0.73613	99.98
0.75280	99.98
0.76947	99.98
0.78613	99.98
0.80280	99.98
0.81947	99.98
0.83613	99.98
0.85280	99.98
0.86947	99.98
0.88613	99.98
0.90280	99.98
0.91947	99.98
0.93613	99.98
0.95280	99.98
0.96947	99.98
0.98613	99.98
1.00280	99.98
1.01947	99.98
1.03613	99.98
1.05280	99.98
1.06947	99.98
1.08613	99.99
1.10280	99.98
1.11947	99.98
1.13613	99.98
1.15280	99.98
1.16947	99.98
1.18613	99.99
1.20280	99.98
1.21947	99.99
1.23613	99.99
1.25280	99.99
1.26947	99.98
1.28613	99.99
1.30280	99.98
1.31947	99.98
1.33613	99.99
1.35280	99.98
1.36947	99.99
1.38613	99.98
1.40280	99.99
1.41947	99.99
1.43613	99.99
1.45280	99.99
1.46947	99.99
1.48613	99.99
1.50280	99.98
1.51947	99.99
1.53613	99.98
1.55280	99.99
1.56947	99.99
1.58613	99.99
1.60280	99.99
1.61947	99.99
1.63613	99.99
1.65280	99.99
1.66947	99.98
1.68613	99.99
1.70280	99.99
1.71947	99.99
1.73613	99.98
1.75280	99.99
1.76947	99.98
1.78613	99.98
1.80280	99.99
1.81947	99.99
1.83613	99.98
1.85280	99.98
1.86947	99.98
1.88613	99.98
1.90280	99.98
1.91947	99.98
1.93613	99.98
1.95280	99.98
1.96947	99.98
1.98613	99.98
2.00280	99.98
2.01947	99.98
2.03613	99.98
2.05280	99.98
2.06947	99.97
2.08613	99.97
2.10280	99.97
2.11947	99.97
2.13613	99.97
2.15280	99.97
2.16947	99.98
2.18613	99.97
2.20280	99.97
2.21947	99.97
2.23613	99.97
2.25280	99.97
2.26947	99.97
2.28613	99.97
2.30280	99.97
2.31947	99.96
2.33613	99.97
2.35280	99.97
2.36947	99.96
2.38613	99.96
2.40280	99.96
2.41947	99.97
2.43613	99.96
2.45280	99.96
2.46947	99.97
2.48613	99.97
2.50280	99.97
2.51947	99.97
2.53613	99.97
2.55280	99.96
2.56947	99.96
2.58613	99.98
2.60280	99.98
2.61947	99.97
2.63613	99.97
2.65280	99.98
2.66947	99.98
2.68613	99.98
2.70280	99.98
2.71947	99.98
2.73613	99.98
2.75280	99.98
2.76947	99.98
2.78613	99.98
2.80280	99.98
2.81947	99.99
2.83613	99.99
2.85280	99.99
2.86947	99.99
2.88613	99.99
2.90280	99.99
2.91947	100.00
2.93613	100.00
2.95280	99.99
2.96947	100.00
2.98613	100.00
3.00280	100.00
3.01947	100.00
3.03613	100.00
3.05280	100.00
3.06947	100.01
3.08613	100.01
3.10280	100.01
3.11947	100.01
3.13613	100.01
3.15280	100.01
3.16947	100.01
3.18613	100.02
3.20280	100.01
3.21947	100.01
3.23613	100.02
3.25280	100.02
3.26947	100.02
3.28613	100.02
3.30280	100.02
3.31947	100.02
3.33613	100.02
3.35280	100.02
3.36947	100.03
3.38613	100.02
3.40280	100.03
3.41947	100.03
3.43613	100.03
3.45280	100.03
3.46947	100.03
3.48613	100.03
3.50280	100.03
3.51947	100.03
3.53613	100.03
3.55280	100.04
3.56947	100.04
3.58613	100.04
3.60280	100.04
3.61947	100.04
3.63613	100.04
3.65280	100.04
3.66947	100.04
3.68613	100.04
3.70280	100.04
3.71947	100.04
3.73613	100.04
3.75280	100.04
3.76947	100.04
3.78613	100.04
3.80280	100.05
3.81947	100.04
3.83613	100.04
3.85280	100.04
3.86947	100.05
3.88613	100.04
3.90280	100.05
3.91947	100.04
3.93613	100.04
3.95280	100.05
3.96947	100.05
3.98613	100.05

[Status Trace (Carrier Gas Pressure)]
Interval(msec)	1000
# of Points	240
Start Time(min)	0.003
End Time(min)	3.986
Intensity Units	
Intensity Multiplier	1
R.Time (min)	Intensity
0.00280	58.00
0.01947	56.19
0.03613	56.45
0.05280	58.60
0.06947	59.83
0.08613	58.23
0.10280	57.97
0.11947	58.01
0.13613	58.01
0.15280	58.01
0.16947	58.00
0.18613	58.00
0.20280	58.00
0.21947	58.00
0.23613	58.00
0.25280	58.00
0.26947	58.00
0.28613	58.00
0.30280	58.00
0.31947	58.00
0.33613	58.00
0.35280	58.00
0.36947	58.00
0.38613	58.00
0.40280	58.00
0.41947	58.00
0.43613	58.00
0.45280	58.00
0.46947	58.00
0.48613	58.00
0.50280	58.00
0.51947	58.00
0.53613	58.00
0.55280	58.00
0.56947	58.00
0.58613	58.00
0.60280	58.00
0.61947	58.00
0.63613	58.00
0.65280	58.00
0.66947	58.00
0.68613	58.00
0.70280	58.00
0.71947	58.00
0.73613	58.00
0.75280	58.00
0.76947	58.00
0.78613	58.00
0.80280	58.00
0.81947	58.00
0.83613	58.00
0.85280	58.00
0.86947	58.00
0.88613	58.00
0.90280	58.00
0.91947	58.00
0.93613	58.00
0.95280	58.00
0.96947	58.00
0.98613	58.00
1.00280	58.00
1.01947	58.00
1.03613	58.00
1.05280	58.00
1.06947	58.00
1.08613	58.00
1.10280	58.00
1.11947	58.00
1.13613	58.00
1.15280	58.00
1.16947	58.00
1.18613	58.00
1.20280	58.00
1.21947	58.00
1.23613	58.00
1.25280	58.00
1.26947	58.00
1.28613	58.00
1.30280	58.00
1.31947	58.00
1.33613	58.00
1.35280	58.00
1.36947	58.00
1.38613	58.00
1.40280	58.00
1.41947	58.00
1.43613	58.00
1.45280	58.00
1.46947	58.00
1.48613	58.00
1.50280	58.00
1.51947	58.00
1.53613	58.00
1.55280	58.00
1.56947	58.00
1.58613	58.00
1.60280	58.00
1.61947	58.00
1.63613	58.01
1.65280	58.00
1.66947	58.01
1.68613	58.01
1.70280	58.00
1.71947	58.00
1.73613	58.00
1.75280	58.00
1.76947	58.00
1.78613	58.00
1.80280	58.00
1.81947	58.00
1.83613	58.00
1.85280	58.00
1.86947	58.00
1.88613	58.00
1.90280	58.00
1.91947	58.00
1.93613	58.00
1.95280	58.00
1.96947	58.00
1.98613	58.00
2.00280	58.00
2.01947	58.00
2.03613	58.00
2.05280	58.00
2.06947	58.00
2.08613	58.00
2.10280	58.00
2.11947	58.00
2.13613	58.00
2.15280	58.00
2.16947	58.00
2.18613	58.00
2.20280	58.00
2.21947	58.00
2.23613	58.00
2.25280	58.00
2.26947	58.00
2.28613	58.00
2.30280	58.00
2.31947	58.00
2.33613	58.00
2.35280	58.00
2.36947	58.00
2.38613	57.99
2.40280	57.99
2.41947	58.00
2.43613	58.00
2.45280	58.00
2.46947	58.00
2.48613	58.00
2.50280	57.97
2.51947	58.01
2.53613	57.99
2.55280	58.00
2.56947	58.00
2.58613	58.00
2.60280	58.00
2.61947	58.00
2.63613	58.00
2.65280	58.00
2.66947	58.00
2.68613	58.00
2.70280	58.00
2.71947	58.00
2.73613	58.00
2.75280	58.00
2.76947	58.00
2.78613	58.00
2.80280	58.00
2.81947	58.00
2.83613	58.00
2.85280	58.00
2.86947	58.00
2.88613	58.00
2.90280	58.00
2.91947	58.00
2.93613	58.00
2.95280	58.00
2.96947	58.00
2.98613	58.00
3.00280	58.00
3.01947	58.00
3.03613	58.00
3.05280	58.00
3.06947	58.00
3.08613	58.00
3.10280	58.00
3.11947	58.00
3.13613	58.00
3.15280	58.00
3.16947	58.00
3.18613	58.00
3.20280	58.00
3.21947	58.00
3.23613	58.00
3.25280	58.00
3.26947	58.00
3.28613	58.00
3.30280	58.00
3.31947	58.00
3.33613	58.00
3.35280	58.00
3.36947	58.00
3.38613	58.00
3.40280	58.00
3.41947	58.00
3.43613	58.00
3.45280	58.00
3.46947	58.00
3.48613	58.00
3.50280	58.00
3.51947	58.00
3.53613	58.00
3.55280	58.00
3.56947	58.00
3.58613	58.00
3.60280	58.00
3.61947	58.00
3.63613	58.00
3.65280	58.00
3.66947	58.00
3.68613	58.00
3.70280	58.00
3.71947	58.00
3.73613	58.00
3.75280	58.00
3.76947	58.00
3.78613	58.00
3.80280	58.00
3.81947	58.00
3.83613	58.00
3.85280	58.00
3.86947	58.00
3.88613	58.00
3.90280	58.00
3.91947	58.00
3.93613	58.00
3.95280	58.00
3.96947	58.00
3.98613	58.00

[Status Trace (Carrier Gas Flow)]
Interval(msec)	1000
# of Points	240
Start Time(min)	0.003
End Time(min)	3.986
Intensity Units	
Intensity Multiplier	1
R.Time (min)	Intensity
0.00280	34.52
0.01947	34.60
0.03613	34.54
0.05280	34.55
0.06947	34.49
0.08613	34.51
0.10280	34.51
0.11947	34.52
0.13613	34.52
0.15280	34.52
0.16947	34.52
0.18613	34.52
0.20280	34.52
0.21947	34.52
0.23613	34.52
0.25280	34.52
0.26947	34.52
0.28613	34.52
0.30280	34.52
0.31947	34.51
0.33613	34.52
0.35280	34.52
0.36947	34.52
0.38613	34.52
0.40280	34.52
0.41947	34.52
0.43613	34.52
0.45280	34.52
0.46947	34.52
0.48613	34.51
0.50280	34.52
0.51947	34.52
0.53613	34.51
0.55280	34.52
0.56947	34.52
0.58613	34.52
0.60280	34.52
0.61947	34.51
0.63613	34.53
0.65280	34.52
0.66947	34.52
0.68613	34.51
0.70280	34.52
0.71947	34.52
0.73613	34.52
0.75280	34.52
0.76947	34.52
0.78613	34.53
0.80280	34.51
0.81947	34.52
0.83613	34.52
0.85280	34.52
0.86947	34.52
0.88613	34.52
0.90280	34.52
0.91947	34.52
0.93613	34.52
0.95280	34.52
0.96947	34.52
0.98613	34.52
1.00280	34.52
1.01947	34.52
1.03613	34.52
1.05280	34.52
1.06947	34.52
1.08613	34.52
1.10280	34.52
1.11947	34.52
1.13613	34.52
1.15280	34.52
1.16947	34.52
1.18613	34.52
1.20280	34.52
1.21947	34.51
1.23613	34.52
1.25280	34.52
1.26947	34.52
1.28613	34.52
1.30280	34.52
1.31947	34.52
1.33613	34.52
1.35280	34.51
1.36947	34.52
1.38613	34.52
1.40280	34.51
1.41947	34.52
1.43613	34.52
1.45280	34.53
1.46947	34.52
1.48613	34.52
1.50280	34.52
1.51947	34.52
1.53613	34.52
1.55280	34.52
1.56947	34.51
1.58613	34.53
1.60280	34.52
1.61947	34.52
1.63613	34.52
1.65280	34.52
1.66947	34.52
1.68613	34.52
1.70280	34.52
1.71947	34.52
1.73613	34.52
1.75280	34.51
1.76947	34.51
1.78613	34.52
1.80280	34.53
1.81947	34.53
1.83613	34.52
1.85280	34.52
1.86947	34.51
1.88613	34.52
1.90280	34.52
1.91947	34.52
1.93613	34.51
1.95280	34.52
1.96947	34.52
1.98613	34.52
2.00280	34.52
2.01947	34.52
2.03613	34.53
2.05280	34.53
2.06947	34.51
2.08613	34.52
2.10280	34.52
2.11947	34.52
2.13613	34.52
2.15280	34.52
2.16947	34.52
2.18613	34.52
2.20280	34.52
2.21947	34.53
2.23613	34.51
2.25280	34.52
2.26947	34.52
2.28613	34.52
2.30280	34.52
2.31947	34.52
2.33613	34.52
2.35280	34.52
2.36947	34.52
2.38613	34.51
2.40280	34.52
2.41947	34.51
2.43613	34.52
2.45280	34.52
2.46947	34.52
2.48613	34.51
2.50280	34.61
2.51947	34.52
2.53613	34.52
2.55280	34.52
2.56947	34.52
2.58613	34.52
2.60280	34.52
2.61947	34.51
2.63613	34.51
2.65280	34.52
2.66947	34.52
2.68613	34.52
2.70280	34.51
2.71947	34.52
2.73613	34.52
2.75280	34.52
2.76947	34.51
2.78613	34.52
2.80280	34.52
2.81947	34.52
2.83613	34.52
2.85280	34.51
2.86947	34.52
2.88613	34.51
2.90280	34.52
2.91947	34.51
2.93613	34.52
2.95280	34.52
2.96947	34.52
2.98613	34.52
3.00280	34.52
3.01947	34.52
3.03613	34.52
3.05280	34.52
3.06947	34.51
3.08613	34.52
3.10280	34.52
3.11947	34.52
3.13613	34.52
3.15280	34.52
3.16947	34.52
3.18613	34.52
3.20280	34.52
3.21947	34.52
3.23613	34.52
3.25280	34.52
3.26947	34.51
3.28613	34.52
3.30280	34.52
3.31947	34.52
3.33613	34.52
3.35280	34.52
3.36947	34.52
3.38613	34.52
3.40280	34.52
3.41947	34.52
3.43613	34.52
3.45280	34.52
3.46947	34.52
3.48613	34.52
3.50280	34.52
3.51947	34.52
3.53613	34.52
3.55280	34.52
3.56947	34.52
3.58613	34.51
3.60280	34.52
3.61947	34.52
3.63613	34.52
3.65280	34.52
3.66947	34.52
3.68613	34.52
3.70280	34.52
3.71947	34.52
3.73613	34.52
3.75280	34.51
3.76947	34.51
3.78613	34.51
3.80280	34.52
3.81947	34.52
3.83613	34.52
3.85280	34.52
3.86947	34.52
3.88613	34.52
3.90280	34.52
3.91947	34.52
3.93613	34.52
3.95280	34.52
3.96947	34.52
3.98613	34.52

[Status Trace (Column Flow)]
Interval(msec)	1000
# of Points	240
Start Time(min)	0.003
End Time(min)	3.986
Intensity Units	
Intensity Multiplier	1
R.Time (min)	Intensity
0.00280	5.55
0.01947	5.34
0.03613	5.37
0.05280	5.62
0.06947	5.77
0.08613	5.58
0.10280	5.55
0.11947	5.55
0.13613	5.55
0.15280	5.55
0.16947	5.55
0.18613	5.55
0.20280	5.55
0.21947	5.55
0.23613	5.55
0.25280	5.55
0.26947	5.55
0.28613	5.55
0.30280	5.55
0.31947	5.55
0.33613	5.55
0.35280	5.55
0.36947	5.56
0.38613	5.56
0.40280	5.56
0.41947	5.55
0.43613	5.55
0.45280	5.55
0.46947	5.55
0.48613	5.55
0.50280	5.55
0.51947	5.55
0.53613	5.55
0.55280	5.56
0.56947	5.56
0.58613	5.56
0.60280	5.56
0.61947	5.56
0.63613	5.56
0.65280	5.56
0.66947	5.56
0.68613	5.55
0.70280	5.55
0.71947	5.55
0.73613	5.55
0.75280	5.55
0.76947	5.55
0.78613	5.55
0.80280	5.55
0.81947	5.55
0.83613	5.55
0.85280	5.55
0.86947	5.55
0.88613	5.55
0.90280	5.55
0.91947	5.55
0.93613	5.55
0.95280	5.56
0.96947	5.55
0.98613	5.55
1.00280	5.55
1.01947	5.55
1.03613	5.56
1.05280	5.56
1.06947	5.56
1.08613	5.56
1.10280	5.56
1.11947	5.56
1.13613	5.56
1.15280	5.56
1.16947	5.56
1.18613	5.56
1.20280	5.56
1.21947	5.56
1.23613	5.56
1.25280	5.56
1.26947	5.56
1.28613	5.56
1.30280	5.56
1.31947	5.56
1.33613	5.56
1.35280	5.56
1.36947	5.55
1.38613	5.55
1.40280	5.55
1.41947	5.55
1.43613	5.55
1.45280	5.55
1.46947	5.55
1.48613	5.56
1.50280	5.56
1.51947	5.56
1.53613	5.56
1.55280	5.55
1.56947	5.55
1.58613	5.55
1.60280	5.55
1.61947	5.55
1.63613	5.55
1.65280	5.54
1.66947	5.53
1.68613	5.52
1.70280	5.51
1.71947	5.49
1.73613	5.48
1.75280	5.47
1.76947	5.46
1.78613	5.45
1.80280	5.44
1.81947	5.43
1.83613	5.42
1.85280	5.41
1.86947	5.40
1.88613	5.39
1.90280	5.38
1.91947	5.37
1.93613	5.36
1.95280	5.35
1.96947	5.34
1.98613	5.33
2.00280	5.32
2.01947	5.31
2.03613	5.31
2.05280	5.30
2.06947	5.29
2.08613	5.28
2.10280	5.27
2.11947	5.26
2.13613	5.25
2.15280	5.24
2.16947	5.23
2.18613	5.22
2.20280	5.21
2.21947	5.20
2.23613	5.19
2.25280	5.18
2.26947	5.17
2.28613	5.16
2.30280	5.15
2.31947	5.15
2.33613	5.14
2.35280	5.13
2.36947	5.12
2.38613	5.12
2.40280	5.12
2.41947	5.12
2.43613	5.12
2.45280	5.12
2.46947	5.12
2.48613	5.12
2.50280	5.11
2.51947	5.12
2.53613	5.12
2.55280	5.12
2.56947	5.12
2.58613	5.12
2.60280	5.11
2.61947	5.11
2.63613	5.11
2.65280	5.11
2.66947	5.11
2.68613	5.11
2.70280	5.11
2.71947	5.11
2.73613	5.11
2.75280	5.11
2.76947	5.11
2.78613	5.11
2.80280	5.11
2.81947	5.11
2.83613	5.11
2.85280	5.11
2.86947	5.11
2.88613	5.11
2.90280	5.11
2.91947	5.11
2.93613	5.11
2.95280	5.11
2.96947	5.11
2.98613	5.11
3.00280	5.11
3.01947	5.11
3.03613	5.11
3.05280	5.11
3.06947	5.11
3.08613	5.11
3.10280	5.11
3.11947	5.11
3.13613	5.11
3.15280	5.11
3.16947	5.11
3.18613	5.11
3.20280	5.11
3.21947	5.11
3.23613	5.11
3.25280	5.11
3.26947	5.11
3.28613	5.11
3.30280	5.11
3.31947	5.11
3.33613	5.11
3.35280	5.11
3.36947	5.11
3.38613	5.11
3.40280	5.11
3.41947	5.11
3.43613	5.11
3.45280	5.11
3.46947	5.11
3.48613	5.11
3.50280	5.11
3.51947	5.11
3.53613	5.11
3.55280	5.11
3.56947	5.11
3.58613	5.11
3.60280	5.11
3.61947	5.11
3.63613	5.11
3.65280	5.11
3.66947	5.11
3.68613	5.11
3.70280	5.11
3.71947	5.11
3.73613	5.11
3.75280	5.11
3.76947	5.11
3.78613	5.11
3.80280	5.11
3.81947	5.11
3.83613	5.11
3.85280	5.11
3.86947	5.11
3.88613	5.11
3.90280	5.11
3.91947	5.11
3.93613	5.11
3.95280	5.11
3.96947	5.11
3.98613	5.11

[Status Trace (Linear Velocity)]
Interval(msec)	1000
# of Points	240
Start Time(min)	0.003
End Time(min)	3.986
Intensity Units	
Intensity Multiplier	1
R.Time (min)	Intensity
0.00280	39.02
0.01947	37.84
0.03613	38.01
0.05280	39.42
0.06947	40.21
0.08613	39.17
0.10280	39.00
0.11947	39.02
0.13613	39.02
0.15280	39.02
0.16947	39.02
0.18613	39.02
0.20280	39.02
0.21947	39.02
0.23613	39.02
0.25280	39.02
0.26947	39.02
0.28613	39.02
0.30280	39.02
0.31947	39.02
0.33613	39.02
0.35280	39.02
0.36947	39.02
0.38613	39.03
0.40280	39.03
0.41947	39.02
0.43613	39.02
0.45280	39.02
0.46947	39.02
0.48613	39.02
0.50280	39.02
0.51947	39.02
0.53613	39.02
0.55280	39.03
0.56947	39.03
0.58613	39.03
0.60280	39.03
0.61947	39.03
0.63613	39.03
0.65280	39.03
0.66947	39.02
0.68613	39.02
0.70280	39.02
0.71947	39.02
0.73613	39.02
0.75280	39.02
0.76947	39.02
0.78613	39.02
0.80280	39.02
0.81947	39.02
0.83613	39.02
0.85280	39.02
0.86947	39.02
0.88613	39.02
0.90280	39.02
0.91947	39.02
0.93613	39.02
0.95280	39.03
0.96947	39.03
0.98613	39.02
1.00280	39.02
1.01947	39.02
1.03613	39.03
1.05280	39.03
1.06947	39.03
1.08613	39.03
1.10280	39.03
1.11947	39.03
1.13613	39.03
1.15280	39.03
1.16947	39.03
1.18613	39.03
1.20280	39.03
1.21947	39.03
1.23613	39.03
1.25280	39.03
1.26947	39.03
1.28613	39.03
1.30280	39.03
1.31947	39.03
1.33613	39.03
1.35280	39.03
1.36947	39.02
1.38613	39.02
1.40280	39.02
1.41947	39.02
1.43613	39.02
1.45280	39.02
1.46947	39.03
1.48613	39.03
1.50280	39.03
1.51947	39.03
1.53613	39.03
1.55280	39.02
1.56947	39.02
1.58613	39.02
1.60280	39.02
1.61947	39.01
1.63613	39.00
1.65280	38.98
1.66947	38.95
1.68613	38.91
1.70280	38.87
1.71947	38.84
1.73613	38.81
1.75280	38.78
1.76947	38.75
1.78613	38.72
1.80280	38.68
1.81947	38.65
1.83613	38.62
1.85280	38.59
1.86947	38.56
1.88613	38.53
1.90280	38.50
1.91947	38.47
1.93613	38.44
1.95280	38.41
1.96947	38.38
1.98613	38.35
2.00280	38.32
2.01947	38.29
2.03613	38.26
2.05280	38.23
2.06947	38.20
2.08613	38.17
2.10280	38.14
2.11947	38.11
2.13613	38.08
2.15280	38.05
2.16947	38.02
2.18613	37.99
2.20280	37.96
2.21947	37.93
2.23613	37.90
2.25280	37.87
2.26947	37.84
2.28613	37.81
2.30280	37.78
2.31947	37.76
2.33613	37.72
2.35280	37.69
2.36947	37.68
2.38613	37.67
2.40280	37.67
2.41947	37.67
2.43613	37.67
2.45280	37.67
2.46947	37.67
2.48613	37.67
2.50280	37.65
2.51947	37.67
2.53613	37.66
2.55280	37.66
2.56947	37.66
2.58613	37.66
2.60280	37.66
2.61947	37.66
2.63613	37.65
2.65280	37.65
2.66947	37.65
2.68613	37.65
2.70280	37.65
2.71947	37.65
2.73613	37.65
2.75280	37.65
2.76947	37.65
2.78613	37.65
2.80280	37.65
2.81947	37.65
2.83613	37.65
2.85280	37.65
2.86947	37.65
2.88613	37.65
2.90280	37.65
2.91947	37.65
2.93613	37.65
2.95280	37.65
2.96947	37.64
2.98613	37.64
3.00280	37.64
3.01947	37.64
3.03613	37.64
3.05280	37.64
3.06947	37.64
3.08613	37.64
3.10280	37.64
3.11947	37.64
3.13613	37.64
3.15280	37.63
3.16947	37.63
3.18613	37.63
3.20280	37.63
3.21947	37.63
3.23613	37.63
3.25280	37.63
3.26947	37.63
3.28613	37.63
3.30280	37.63
3.31947	37.63
3.33613	37.63
3.35280	37.63
3.36947	37.63
3.38613	37.63
3.40280	37.64
3.41947	37.64
3.43613	37.64
3.45280	37.64
3.46947	37.64
3.48613	37.64
3.50280	37.64
3.51947	37.64
3.53613	37.64
3.55280	37.64
3.56947	37.64
3.58613	37.64
3.60280	37.64
3.61947	37.64
3.63613	37.64
3.65280	37.64
3.66947	37.63
3.68613	37.63
3.70280	37.64
3.71947	37.64
3.73613	37.64
3.75280	37.64
3.76947	37.63
3.78613	37.63
3.80280	37.63
3.81947	37.63
3.83613	37.63
3.85280	37.64
3.86947	37.64
3.88613	37.64
3.90280	37.64
3.91947	37.64
3.93613	37.64
3.95280	37.64
3.96947	37.64
3.98613	37.64

