[Header]
Application Name	LabSolutions
Version	5.110
Data File Name	C:\Users\User\Desktop\GC Analyses\Jack\Nachusa Grasslands Sampling\T4 Timepoint July 12th\T4_07122022_082.gcd
Output Date	3/17/2023
Output Time	12:04:56 PM

[File Information]
Type	Data File
Generated	3/15/2023 12:35:45 AM
Generated by	System Administrator
Modified	3/15/2023 12:42:40 AM
Modified by	System Administrator

[Sample Information]
Operator Name	System Administrator
Acquired	3/15/2023 12:38:39 AM
Sample Type	0:Unknown
Level	0
Sample Name	082
Sample ID	082
ISTD Amount1	1
ISTD Amount2	1
ISTD Amount3	1
ISTD Amount4	1
ISTD Amount5	1
ISTD Amount6	1
ISTD Amount7	1
ISTD Amount8	1
ISTD Amount9	1
ISTD Amount10	1
ISTD Amount11	1
ISTD Amount12	1
ISTD Amount13	1
ISTD Amount14	1
ISTD Amount15	1
ISTD Amount16	1
ISTD Amount17	1
ISTD Amount18	1
ISTD Amount19	1
ISTD Amount20	1
ISTD Amount21	1
ISTD Amount22	1
ISTD Amount23	1
ISTD Amount24	1
ISTD Amount25	1
ISTD Amount26	1
ISTD Amount27	1
ISTD Amount28	1
ISTD Amount29	1
ISTD Amount30	1
ISTD Amount31	1
ISTD Amount32	1
Sample Amount	1
Dilution Factor	1
Vial#	81
Injection Volume	1
Injection Count	1
Bar Code	

[Original Files]
Data File	C:\Users\User\Desktop\GC Analyses\Jack\Nachusa Grasslands Sampling\T4 Timepoint July 12th\T4_07122022_082.gcd
Method File	C:\LabSolutions\Data\GHG_4min_2022\ghg3_togas_w_acet_4 min_new_int.gcm
Batch File	C:\LabSolutions\Data\AutoSamplerTesting\T4_07122022.gcb
Report Format File	c:\LabSolutions\System\DEFAULT.lsr

[File Description]


[Configuration]
Instrument Name	C0B7VH3-Instrument1
Instrument #	1
Line #	1
# of Detectors	3
Detector ID	DET#1	DET#2	DET#3
Detector Name	FID	PTCD	ECD
# of Channels	1	1	1

[Peak Table(Ch1)]
# of Peaks	3
Peak#	R.Time	I.Time	F.Time	Area	Height	A/H	Conc.	Mark	ID#	Name	k'	Plate #	Plate Ht.	Tailing	Resolution	Sep.Factor	Area Ratio	Height Ratio	Conc. %	Norm Conc.
1	1.476	1.417	1.538	29529	14546	2.030	208.478	   	1	CO	0.000	9662	15.525	1.287	0.000	0.000	0	0	17.680	17.680
2	1.571	1.538	1.611	3744	1961	1.910	72.403	 V 	2	CH4	0.065	11923	12.581	1.059	1.621	0.000	0	0	6.140	6.140
3	1.996	1.949	2.400	3579169	1719541	2.081	898.274	   	3	CO2	0.353	17259	8.691	1.307	7.189	5.462	0	0	76.179	76.179

[Peak Table(Ch2)]
# of Peaks	0

[Peak Table(Ch3)]
# of Peaks	5
Peak#	R.Time	I.Time	F.Time	Area	Height	A/H	Conc.	Mark	ID#	Name	k'	Plate #	Plate Ht.	Tailing	Resolution	Sep.Factor	Area Ratio	Height Ratio	Conc. %	Norm Conc.
1	2.462	2.253	2.510	3121	807	3.866	0.000	   			0.000	10143	14.789	0.000	0.000	0.000	0	0	0.000	0.000
2	2.532	2.510	2.579	1116	384	2.909	0.000	 V 			0.028	6031	24.872	0.000	0.611	0.000	0	0	0.000	0.000
3	2.605	2.579	2.678	628	158	3.966	0.000	 V 			0.058	1249	120.063	0.000	0.345	2.053	0	0	0.000	0.000
4	2.880	2.711	3.005	20111	5149	3.906	0.514	   	1	N2O	0.170	12967	11.568	1.512	1.389	2.923	0	0	100.000	100.000
5	3.243	3.005	3.995	21278	620	34.302	0.000	   	2	SF6	0.317	165	907.887	2.033	0.654	1.868	0	0	0.000	0.000

[Compound Results(Ch1)]
# of IDs	6
ID#	Name	R.Time	Area	Height	Conc.	Curve	3rd	2nd	1st	Constant	Area Ratio	Height Ratio	Conc. %	Norm Conc.
1	CO	1.476	29529	14546	208.478	Linear	0.000000e+00	0.000000e+00	1.416423e+002	0.000000e+00	0	0	17.680	17.680
2	CH4	1.571	3744	1961	72.403	Linear	0.000000e+00	0.000000e+00	5.171738e+001	0.000000e+00	0	0	6.140	6.140
3	CO2	1.996	3579169	1719541	898.274	Linear	0.000000e+00	0.000000e+00	3.984494e+003	0.000000e+00	0	0	76.179	76.179
4	Ethylene	0.000	0	0	0.000	Linear	0.000000e+00	0.000000e+00	0.000000e+00	0.000000e+00	0	0	0.000	0.000
5	Acetylene	0.000	0	0	0.000	Linear	0.000000e+00	0.000000e+00	0.000000e+00	0.000000e+00	0	0	0.000	0.000
6	Ethane	0.000	0	0	0.000	Linear	0.000000e+00	0.000000e+00	0.000000e+00	0.000000e+00	0	0	0.000	0.000

[Compound Results(Ch2)]
# of IDs	5
ID#	Name	R.Time	Area	Height	Conc.	Curve	3rd	2nd	1st	Constant	Area Ratio	Height Ratio	Conc. %	Norm Conc.
1	Hydrogen	0.000	0	0	0.000	Linear	0.000000e+00	0.000000e+00	0.000000e+00	0.000000e+00	0	0	0.000	0.000
2	Oxygen	0.000	0	0	0.000	Linear	0.000000e+00	0.000000e+00	0.000000e+00	0.000000e+00	0	0	0.000	0.000
3	Nitrogen	0.000	0	0	0.000	Linear	0.000000e+00	0.000000e+00	0.000000e+00	0.000000e+00	0	0	0.000	0.000
4	Methane	0.000	0	0	0.000	Linear	0.000000e+00	0.000000e+00	0.000000e+00	0.000000e+00	0	0	0.000	0.000
5	Carbon Monoxide	0.000	0	0	0.000	Linear	0.000000e+00	0.000000e+00	0.000000e+00	0.000000e+00	0	0	0.000	0.000

[Compound Results(Ch3)]
# of IDs	2
ID#	Name	R.Time	Area	Height	Conc.	Curve	3rd	2nd	1st	Constant	Area Ratio	Height Ratio	Conc. %	Norm Conc.
1	N2O	2.880	20111	5149	0.514	Linear	0.000000e+00	0.000000e+00	3.915173e+004	0.000000e+00	0	0	100.000	100.000
2	SF6	3.243	21278	620	0.000	Linear	0.000000e+00	0.000000e+00	0.000000e+00	0.000000e+00	0	0	0.000	0.000

[Group Results(Ch1)]
# of Groups	0

[Group Results(Ch2)]
# of Groups	0

[Group Results(Ch3)]
# of Groups	0

[Chromatogram (Ch1)]
Interval(msec)	220
# of Points	1091
Start Time(min)	0.002
End Time(min)	3.998
R.Time (min)	Intensity
0.00167	65
0.00533	73
0.00900	75
0.01267	73
0.01633	74
0.02000	77
0.02367	81
0.02733	84
0.03100	85
0.03467	87
0.03833	85
0.04200	86
0.04567	90
0.04933	95
0.05300	98
0.05667	96
0.06033	98
0.06400	101
0.06767	105
0.07133	110
0.07500	115
0.07867	118
0.08233	121
0.08600	123
0.08967	113
0.09333	98
0.09700	99
0.10067	110
0.10433	102
0.10800	85
0.11167	71
0.11533	64
0.11900	62
0.12267	70
0.12633	80
0.13000	87
0.13367	83
0.13733	66
0.14100	39
0.14467	40
0.14833	38
0.15200	30
0.15567	22
0.15933	19
0.16300	6
0.16667	-3
0.17033	-4
0.17400	-2
0.17767	-1
0.18133	9
0.18500	24
0.18867	34
0.19233	33
0.19600	25
0.19967	16
0.20333	11
0.20700	11
0.21067	3
0.21433	14
0.21800	20
0.22167	20
0.22533	21
0.22900	23
0.23267	25
0.23633	22
0.24000	13
0.24367	5
0.24733	2
0.25100	1
0.25467	4
0.25833	7
0.26200	10
0.26567	5
0.26933	-1
0.27300	-1
0.27667	-1
0.28033	-0
0.28400	1
0.28767	1
0.29133	2
0.29500	5
0.29867	13
0.30233	15
0.30600	12
0.30967	9
0.31333	8
0.31700	14
0.32067	31
0.32433	52
0.32800	63
0.33167	60
0.33533	43
0.33900	29
0.34267	17
0.34633	6
0.35000	-6
0.35367	-19
0.35733	-27
0.36100	-24
0.36467	-18
0.36833	-16
0.37200	-15
0.37567	-17
0.37933	-19
0.38300	-19
0.38667	-16
0.39033	-8
0.39400	-3
0.39767	-3
0.40133	1
0.40500	7
0.40867	7
0.41233	-1
0.41600	-10
0.41967	-16
0.42333	-18
0.42700	-16
0.43067	-14
0.43433	-11
0.43800	-2
0.44167	13
0.44533	19
0.44900	21
0.45267	26
0.45633	27
0.46000	20
0.46367	16
0.46733	14
0.47100	8
0.47467	-0
0.47833	-6
0.48200	-16
0.48567	-24
0.48933	-20
0.49300	-13
0.49667	-5
0.50033	1
0.50400	7
0.50767	14
0.51133	20
0.51500	14
0.51867	3
0.52233	-5
0.52600	-14
0.52967	-12
0.53333	-11
0.53700	-14
0.54067	-13
0.54433	-18
0.54800	-21
0.55167	-19
0.55533	-19
0.55900	-5
0.56267	13
0.56633	25
0.57000	33
0.57367	29
0.57733	27
0.58100	26
0.58467	28
0.58833	32
0.59200	32
0.59567	33
0.59933	32
0.60300	34
0.60667	42
0.61033	54
0.61400	58
0.61767	61
0.62133	64
0.62500	60
0.62867	50
0.63233	41
0.63600	33
0.63967	29
0.64333	29
0.64700	30
0.65067	30
0.65433	29
0.65800	36
0.66167	40
0.66533	38
0.66900	36
0.67267	25
0.67633	13
0.68000	12
0.68367	18
0.68733	24
0.69100	31
0.69467	36
0.69833	39
0.70200	47
0.70567	51
0.70933	55
0.71300	59
0.71667	64
0.72033	67
0.72400	63
0.72767	53
0.73133	42
0.73500	32
0.73867	22
0.74233	17
0.74600	15
0.74967	14
0.75333	11
0.75700	7
0.76067	2
0.76433	-6
0.76800	-11
0.77167	-12
0.77533	-11
0.77900	-9
0.78267	-9
0.78633	-7
0.79000	-4
0.79367	-1
0.79733	3
0.80100	1
0.80467	-2
0.80833	0
0.81200	5
0.81567	6
0.81933	6
0.82300	9
0.82667	17
0.83033	33
0.83400	47
0.83767	54
0.84133	54
0.84500	42
0.84867	24
0.85233	8
0.85600	-5
0.85967	-11
0.86333	-10
0.86700	-6
0.87067	-4
0.87433	-8
0.87800	-11
0.88167	-12
0.88533	-9
0.88900	-4
0.89267	6
0.89633	22
0.90000	32
0.90367	33
0.90733	31
0.91100	29
0.91467	25
0.91833	18
0.92200	8
0.92567	0
0.92933	0
0.93300	9
0.93667	12
0.94033	6
0.94400	-3
0.94767	-10
0.95133	-14
0.95500	-12
0.95867	-9
0.96233	-6
0.96600	-4
0.96967	-1
0.97333	-3
0.97700	3
0.98067	18
0.98433	33
0.98800	36
0.99167	33
0.99533	27
0.99900	20
1.00267	11
1.00633	2
1.01000	-4
1.01367	-6
1.01733	-5
1.02100	-1
1.02467	5
1.02833	9
1.03200	10
1.03567	5
1.03933	-4
1.04300	-14
1.04667	-23
1.05033	-32
1.05400	-40
1.05767	-42
1.06133	-37
1.06500	-31
1.06867	-27
1.07233	-19
1.07600	-13
1.07967	-10
1.08333	-10
1.08700	-14
1.09067	-15
1.09433	-10
1.09800	-9
1.10167	-12
1.10533	-16
1.10900	-19
1.11267	-22
1.11633	-25
1.12000	-26
1.12367	-26
1.12733	-17
1.13100	-10
1.13467	-10
1.13833	-14
1.14200	-20
1.14567	-22
1.14933	-16
1.15300	-6
1.15667	1
1.16033	5
1.16400	0
1.16767	-9
1.17133	-21
1.17500	-31
1.17867	-33
1.18233	-30
1.18600	-26
1.18967	-25
1.19333	-26
1.19700	-24
1.20067	-20
1.20433	-14
1.20800	-11
1.21167	-11
1.21533	-14
1.21900	-19
1.22267	-26
1.22633	-31
1.23000	-33
1.23367	-35
1.23733	-35
1.24100	-31
1.24467	-24
1.24833	-21
1.25200	-20
1.25567	-25
1.25933	-28
1.26300	-24
1.26667	-23
1.27033	-23
1.27400	-25
1.27767	-26
1.28133	-23
1.28500	-19
1.28867	-17
1.29233	-18
1.29600	-17
1.29967	-20
1.30333	-22
1.30700	-20
1.31067	-17
1.31433	-16
1.31800	-13
1.32167	-13
1.32533	-21
1.32900	-34
1.33267	-47
1.33633	-55
1.34000	-62
1.34367	-65
1.34733	-65
1.35100	-58
1.35467	-47
1.35833	-35
1.36200	-25
1.36567	-23
1.36933	-24
1.37300	-21
1.37667	-14
1.38033	-9
1.38400	-9
1.38767	-16
1.39133	-27
1.39500	-39
1.39867	-52
1.40233	-65
1.40600	-73
1.40967	-77
1.41333	-73
1.41700	-65
1.42067	-55
1.42433	-47
1.42800	-44
1.43167	-43
1.43533	-38
1.43900	-23
1.44267	21
1.44633	166
1.45000	617
1.45367	1825
1.45733	4064
1.46100	6927
1.46467	9747
1.46833	12076
1.47200	13698
1.47567	14480
1.47933	14283
1.48300	13102
1.48667	11174
1.49033	8913
1.49400	6723
1.49767	4854
1.50133	3395
1.50500	2320
1.50867	1554
1.51233	1016
1.51600	645
1.51967	390
1.52333	219
1.52700	108
1.53067	36
1.53433	-11
1.53800	-36
1.54167	-10
1.54533	119
1.54900	381
1.55267	744
1.55633	1127
1.56000	1462
1.56367	1717
1.56733	1872
1.57100	1893
1.57467	1760
1.57833	1499
1.58200	1175
1.58567	851
1.58933	567
1.59300	346
1.59667	185
1.60033	72
1.60400	-0
1.60767	-44
1.61133	-68
1.61500	-79
1.61867	-81
1.62233	-81
1.62600	-79
1.62967	-76
1.63333	-74
1.63700	-78
1.64067	-85
1.64433	-92
1.64800	-95
1.65167	-98
1.65533	-103
1.65900	-105
1.66267	-106
1.66633	-103
1.67000	-98
1.67367	-93
1.67733	-91
1.68100	-87
1.68467	-79
1.68833	-71
1.69200	-69
1.69567	-76
1.69933	-87
1.70300	-94
1.70667	-97
1.71033	-96
1.71400	-96
1.71767	-90
1.72133	-89
1.72500	-91
1.72867	-93
1.73233	-91
1.73600	-88
1.73967	-87
1.74333	-91
1.74700	-90
1.75067	-87
1.75433	-83
1.75800	-76
1.76167	-68
1.76533	-70
1.76900	-75
1.77267	-76
1.77633	-80
1.78000	-86
1.78367	-89
1.78733	-91
1.79100	-92
1.79467	-87
1.79833	-82
1.80200	-81
1.80567	-78
1.80933	-75
1.81300	-73
1.81667	-69
1.82033	-66
1.82400	-68
1.82767	-72
1.83133	-77
1.83500	-78
1.83867	-76
1.84233	-72
1.84600	-69
1.84967	-72
1.85333	-80
1.85700	-82
1.86067	-80
1.86433	-77
1.86800	-80
1.87167	-81
1.87533	-80
1.87900	-78
1.88267	-77
1.88633	-77
1.89000	-81
1.89367	-78
1.89733	-72
1.90100	-62
1.90467	-55
1.90833	-51
1.91200	-52
1.91567	-54
1.91933	-56
1.92300	-57
1.92667	-59
1.93033	-63
1.93400	-67
1.93767	-68
1.94133	-69
1.94500	-69
1.94867	-65
1.95233	-45
1.95600	142
1.95967	1376
1.96333	7528
1.96700	30658
1.97067	97075
1.97433	242361
1.97800	485652
1.98167	804199
1.98533	1140307
1.98900	1432451
1.99267	1634167
1.99633	1719516
2.00000	1683741
2.00367	1542221
2.00733	1326873
2.01100	1077591
2.01467	831853
2.01833	615934
2.02200	441896
2.02567	310308
2.02933	215297
2.03300	148857
2.03667	103358
2.04033	72566
2.04400	51825
2.04767	37828
2.05133	28313
2.05500	21760
2.05867	17173
2.06233	13893
2.06600	11492
2.06967	9699
2.07333	8338
2.07700	7275
2.08067	6423
2.08433	5736
2.08800	5167
2.09167	4683
2.09533	4273
2.09900	3923
2.10267	3619
2.10633	3348
2.11000	3113
2.11367	2904
2.11733	2721
2.12100	2554
2.12467	2403
2.12833	2285
2.13200	2171
2.13567	2057
2.13933	1947
2.14300	1840
2.14667	1745
2.15033	1674
2.15400	1607
2.15767	1538
2.16133	1470
2.16500	1408
2.16867	1351
2.17233	1297
2.17600	1248
2.17967	1205
2.18333	1164
2.18700	1126
2.19067	1091
2.19433	1057
2.19800	1027
2.20167	1001
2.20533	971
2.20900	945
2.21267	922
2.21633	899
2.22000	877
2.22367	854
2.22733	828
2.23100	802
2.23467	775
2.23833	747
2.24200	719
2.24567	692
2.24933	676
2.25300	666
2.25667	655
2.26033	635
2.26400	607
2.26767	583
2.27133	560
2.27500	543
2.27867	535
2.28233	530
2.28600	527
2.28967	525
2.29333	519
2.29700	501
2.30067	479
2.30433	459
2.30800	443
2.31167	437
2.31533	435
2.31900	432
2.32267	426
2.32633	419
2.33000	411
2.33367	406
2.33733	400
2.34100	390
2.34467	379
2.34833	372
2.35200	367
2.35567	365
2.35933	362
2.36300	357
2.36667	351
2.37033	347
2.37400	342
2.37767	337
2.38133	333
2.38500	325
2.38867	318
2.39233	314
2.39600	313
2.39967	313
2.40333	317
2.40700	317
2.41067	314
2.41433	315
2.41800	316
2.42167	314
2.42533	311
2.42900	310
2.43267	309
2.43633	305
2.44000	298
2.44367	290
2.44733	285
2.45100	284
2.45467	281
2.45833	277
2.46200	279
2.46567	280
2.46933	272
2.47300	266
2.47667	261
2.48033	258
2.48400	251
2.48767	242
2.49133	237
2.49500	231
2.49867	222
2.50233	214
2.50600	211
2.50967	214
2.51333	222
2.51700	231
2.52067	235
2.52433	241
2.52800	247
2.53167	246
2.53533	243
2.53900	235
2.54267	226
2.54633	220
2.55000	224
2.55367	236
2.55733	242
2.56100	233
2.56467	218
2.56833	206
2.57200	198
2.57567	195
2.57933	196
2.58300	200
2.58667	198
2.59033	193
2.59400	183
2.59767	170
2.60133	157
2.60500	149
2.60867	142
2.61233	140
2.61600	143
2.61967	150
2.62333	156
2.62700	158
2.63067	159
2.63433	155
2.63800	152
2.64167	157
2.64533	166
2.64900	173
2.65267	176
2.65633	180
2.66000	185
2.66367	183
2.66733	179
2.67100	175
2.67467	170
2.67833	164
2.68200	159
2.68567	152
2.68933	150
2.69300	158
2.69667	168
2.70033	169
2.70400	172
2.70767	167
2.71133	156
2.71500	150
2.71867	148
2.72233	150
2.72600	151
2.72967	148
2.73333	148
2.73700	149
2.74067	148
2.74433	147
2.74800	148
2.75167	150
2.75533	145
2.75900	133
2.76267	132
2.76633	146
2.77000	154
2.77367	156
2.77733	159
2.78100	160
2.78467	156
2.78833	153
2.79200	150
2.79567	148
2.79933	145
2.80300	142
2.80667	138
2.81033	132
2.81400	133
2.81767	135
2.82133	135
2.82500	135
2.82867	133
2.83233	138
2.83600	145
2.83967	151
2.84333	146
2.84700	135
2.85067	127
2.85433	127
2.85800	130
2.86167	132
2.86533	131
2.86900	129
2.87267	127
2.87633	120
2.88000	117
2.88367	118
2.88733	118
2.89100	120
2.89467	125
2.89833	125
2.90200	119
2.90567	115
2.90933	110
2.91300	105
2.91667	104
2.92033	107
2.92400	122
2.92767	131
2.93133	132
2.93500	121
2.93867	120
2.94233	135
2.94600	136
2.94967	129
2.95333	128
2.95700	128
2.96067	127
2.96433	127
2.96800	126
2.97167	124
2.97533	123
2.97900	125
2.98267	129
2.98633	133
2.99000	141
2.99367	145
2.99733	146
3.00100	146
3.00467	147
3.00833	147
3.01200	145
3.01567	141
3.01933	132
3.02300	125
3.02667	118
3.03033	117
3.03400	107
3.03767	104
3.04133	100
3.04500	94
3.04867	90
3.05233	90
3.05600	93
3.05967	90
3.06333	94
3.06700	107
3.07067	113
3.07433	114
3.07800	111
3.08167	108
3.08533	105
3.08900	103
3.09267	98
3.09633	101
3.10000	106
3.10367	107
3.10733	114
3.11100	118
3.11467	117
3.11833	114
3.12200	112
3.12567	110
3.12933	105
3.13300	102
3.13667	104
3.14033	105
3.14400	114
3.14767	125
3.15133	135
3.15500	140
3.15867	141
3.16233	137
3.16600	123
3.16967	102
3.17333	92
3.17700	84
3.18067	81
3.18433	84
3.18800	88
3.19167	88
3.19533	88
3.19900	87
3.20267	87
3.20633	88
3.21000	85
3.21367	81
3.21733	79
3.22100	78
3.22467	76
3.22833	74
3.23200	76
3.23567	80
3.23933	86
3.24300	87
3.24667	90
3.25033	93
3.25400	96
3.25767	100
3.26133	105
3.26500	107
3.26867	109
3.27233	108
3.27600	106
3.27967	104
3.28333	101
3.28700	99
3.29067	98
3.29433	91
3.29800	86
3.30167	90
3.30533	97
3.30900	103
3.31267	107
3.31633	104
3.32000	96
3.32367	91
3.32733	87
3.33100	89
3.33467	93
3.33833	95
3.34200	99
3.34567	98
3.34933	92
3.35300	88
3.35667	87
3.36033	88
3.36400	93
3.36767	101
3.37133	103
3.37500	97
3.37867	86
3.38233	75
3.38600	71
3.38967	70
3.39333	70
3.39700	71
3.40067	67
3.40433	62
3.40800	60
3.41167	56
3.41533	50
3.41900	48
3.42267	48
3.42633	50
3.43000	54
3.43367	57
3.43733	60
3.44100	68
3.44467	75
3.44833	78
3.45200	76
3.45567	71
3.45933	66
3.46300	62
3.46667	62
3.47033	64
3.47400	67
3.47767	76
3.48133	81
3.48500	86
3.48867	88
3.49233	91
3.49600	88
3.49967	80
3.50333	68
3.50700	58
3.51067	55
3.51433	58
3.51800	62
3.52167	62
3.52533	61
3.52900	59
3.53267	57
3.53633	58
3.54000	64
3.54367	69
3.54733	65
3.55100	59
3.55467	60
3.55833	72
3.56200	80
3.56567	79
3.56933	69
3.57300	57
3.57667	44
3.58033	38
3.58400	36
3.58767	38
3.59133	43
3.59500	51
3.59867	63
3.60233	72
3.60600	74
3.60967	68
3.61333	62
3.61700	57
3.62067	49
3.62433	42
3.62800	38
3.63167	38
3.63533	40
3.63900	36
3.64267	32
3.64633	32
3.65000	37
3.65367	46
3.65733	49
3.66100	44
3.66467	48
3.66833	53
3.67200	56
3.67567	60
3.67933	65
3.68300	69
3.68667	63
3.69033	55
3.69400	49
3.69767	44
3.70133	37
3.70500	29
3.70867	28
3.71233	32
3.71600	36
3.71967	38
3.72333	41
3.72700	44
3.73067	44
3.73433	49
3.73800	53
3.74167	48
3.74533	44
3.74900	42
3.75267	48
3.75633	53
3.76000	54
3.76367	45
3.76733	34
3.77100	23
3.77467	18
3.77833	17
3.78200	17
3.78567	17
3.78933	20
3.79300	28
3.79667	35
3.80033	37
3.80400	37
3.80767	40
3.81133	45
3.81500	50
3.81867	52
3.82233	52
3.82600	50
3.82967	44
3.83333	42
3.83700	41
3.84067	40
3.84433	40
3.84800	41
3.85167	40
3.85533	35
3.85900	34
3.86267	39
3.86633	44
3.87000	46
3.87367	31
3.87733	30
3.88100	43
3.88467	52
3.88833	48
3.89200	38
3.89567	31
3.89933	26
3.90300	24
3.90667	27
3.91033	32
3.91400	42
3.91767	57
3.92133	71
3.92500	75
3.92867	72
3.93233	65
3.93600	52
3.93967	39
3.94333	31
3.94700	24
3.95067	20
3.95433	20
3.95800	19
3.96167	19
3.96533	19
3.96900	18
3.97267	20
3.97633	21
3.98000	18
3.98367	13
3.98733	9
3.99100	6
3.99467	4
3.99833	1

[Chromatogram (Ch2)]
Interval(msec)	220
# of Points	1091
Start Time(min)	0.002
End Time(min)	3.998
R.Time (min)	Intensity
0.00167	-1
0.00533	-1
0.00900	-2
0.01267	-2
0.01633	-3
0.02000	-3
0.02367	-4
0.02733	-4
0.03100	-4
0.03467	-4
0.03833	-4
0.04200	-5
0.04567	-5
0.04933	-5
0.05300	-5
0.05667	-5
0.06033	-5
0.06400	-5
0.06767	-6
0.07133	-6
0.07500	-6
0.07867	-6
0.08233	-6
0.08600	-5
0.08967	-5
0.09333	-5
0.09700	-4
0.10067	-4
0.10433	-4
0.10800	-4
0.11167	-3
0.11533	-3
0.11900	-3
0.12267	-3
0.12633	-3
0.13000	-2
0.13367	-2
0.13733	-2
0.14100	-2
0.14467	-2
0.14833	-2
0.15200	-2
0.15567	-2
0.15933	-2
0.16300	-3
0.16667	-3
0.17033	-4
0.17400	-4
0.17767	-5
0.18133	-5
0.18500	-5
0.18867	-5
0.19233	-5
0.19600	-5
0.19967	-5
0.20333	-5
0.20700	-5
0.21067	-5
0.21433	-4
0.21800	-4
0.22167	-4
0.22533	-4
0.22900	-4
0.23267	-3
0.23633	-3
0.24000	-3
0.24367	-2
0.24733	-2
0.25100	-1
0.25467	-1
0.25833	-0
0.26200	-0
0.26567	-0
0.26933	-1
0.27300	-1
0.27667	-1
0.28033	-1
0.28400	-1
0.28767	-2
0.29133	-2
0.29500	-3
0.29867	-3
0.30233	-4
0.30600	-4
0.30967	-4
0.31333	-5
0.31700	-5
0.32067	-5
0.32433	-5
0.32800	-5
0.33167	-5
0.33533	-5
0.33900	-5
0.34267	-5
0.34633	-5
0.35000	-5
0.35367	-5
0.35733	-5
0.36100	-5
0.36467	-5
0.36833	-5
0.37200	-5
0.37567	-5
0.37933	-5
0.38300	-5
0.38667	-5
0.39033	-5
0.39400	-5
0.39767	-5
0.40133	-5
0.40500	-5
0.40867	-6
0.41233	-6
0.41600	-6
0.41967	-6
0.42333	-6
0.42700	-7
0.43067	-7
0.43433	-7
0.43800	-7
0.44167	-7
0.44533	-8
0.44900	-8
0.45267	-8
0.45633	-8
0.46000	-7
0.46367	-7
0.46733	-7
0.47100	-7
0.47467	-7
0.47833	-7
0.48200	-7
0.48567	-6
0.48933	-6
0.49300	-5
0.49667	-4
0.50033	-4
0.50400	-4
0.50767	-3
0.51133	-3
0.51500	-3
0.51867	-3
0.52233	-3
0.52600	-3
0.52967	-4
0.53333	-4
0.53700	-5
0.54067	-5
0.54433	-5
0.54800	-5
0.55167	-5
0.55533	-5
0.55900	-5
0.56267	-5
0.56633	-5
0.57000	-5
0.57367	-4
0.57733	-4
0.58100	-4
0.58467	-4
0.58833	-4
0.59200	-4
0.59567	-3
0.59933	-3
0.60300	-3
0.60667	-3
0.61033	-3
0.61400	-3
0.61767	-3
0.62133	-3
0.62500	-4
0.62867	-4
0.63233	-4
0.63600	-3
0.63967	-3
0.64333	-3
0.64700	-3
0.65067	-3
0.65433	-4
0.65800	-4
0.66167	-4
0.66533	-5
0.66900	-5
0.67267	-5
0.67633	-5
0.68000	-5
0.68367	-5
0.68733	-5
0.69100	-5
0.69467	-5
0.69833	-5
0.70200	-6
0.70567	-6
0.70933	-5
0.71300	-5
0.71667	-5
0.72033	-5
0.72400	-5
0.72767	-4
0.73133	-4
0.73500	-4
0.73867	-3
0.74233	-3
0.74600	-3
0.74967	-3
0.75333	-3
0.75700	-3
0.76067	-3
0.76433	-3
0.76800	-3
0.77167	-3
0.77533	-3
0.77900	-4
0.78267	-4
0.78633	-4
0.79000	-4
0.79367	-5
0.79733	-5
0.80100	-6
0.80467	-6
0.80833	-6
0.81200	-7
0.81567	-7
0.81933	-7
0.82300	-7
0.82667	-7
0.83033	-7
0.83400	-7
0.83767	-7
0.84133	-7
0.84500	-7
0.84867	-7
0.85233	-7
0.85600	-6
0.85967	-6
0.86333	-6
0.86700	-6
0.87067	-6
0.87433	-6
0.87800	-6
0.88167	-6
0.88533	-6
0.88900	-6
0.89267	-6
0.89633	-6
0.90000	-6
0.90367	-6
0.90733	-6
0.91100	-7
0.91467	-7
0.91833	-7
0.92200	-7
0.92567	-6
0.92933	-6
0.93300	-7
0.93667	-7
0.94033	-7
0.94400	-7
0.94767	-7
0.95133	-7
0.95500	-6
0.95867	-6
0.96233	-6
0.96600	-6
0.96967	-6
0.97333	-5
0.97700	-6
0.98067	-6
0.98433	-6
0.98800	-6
0.99167	-6
0.99533	-5
0.99900	-5
1.00267	-5
1.00633	-5
1.01000	-5
1.01367	-5
1.01733	-5
1.02100	-5
1.02467	-5
1.02833	-5
1.03200	-5
1.03567	-5
1.03933	-5
1.04300	-5
1.04667	-5
1.05033	-5
1.05400	-5
1.05767	-4
1.06133	-4
1.06500	-4
1.06867	-4
1.07233	-4
1.07600	-4
1.07967	-4
1.08333	-4
1.08700	-4
1.09067	-4
1.09433	-4
1.09800	-3
1.10167	-3
1.10533	-4
1.10900	-4
1.11267	-4
1.11633	-4
1.12000	-4
1.12367	-4
1.12733	-5
1.13100	-5
1.13467	-5
1.13833	-5
1.14200	-5
1.14567	-5
1.14933	-5
1.15300	-5
1.15667	-5
1.16033	-5
1.16400	-5
1.16767	-5
1.17133	-5
1.17500	-5
1.17867	-5
1.18233	-5
1.18600	-6
1.18967	-6
1.19333	-6
1.19700	-7
1.20067	-7
1.20433	-7
1.20800	-7
1.21167	-8
1.21533	-8
1.21900	-8
1.22267	-8
1.22633	-8
1.23000	-8
1.23367	-8
1.23733	-8
1.24100	-7
1.24467	-6
1.24833	-6
1.25200	-5
1.25567	-5
1.25933	-5
1.26300	-5
1.26667	-5
1.27033	-5
1.27400	-4
1.27767	-4
1.28133	-4
1.28500	-4
1.28867	-5
1.29233	-5
1.29600	-6
1.29967	-6
1.30333	-7
1.30700	-7
1.31067	-7
1.31433	-7
1.31800	-7
1.32167	-7
1.32533	-7
1.32900	-7
1.33267	-6
1.33633	-6
1.34000	-6
1.34367	-6
1.34733	-6
1.35100	-6
1.35467	-6
1.35833	-6
1.36200	-5
1.36567	-5
1.36933	-6
1.37300	-6
1.37667	-7
1.38033	-7
1.38400	-7
1.38767	-7
1.39133	-8
1.39500	-8
1.39867	-8
1.40233	-8
1.40600	-8
1.40967	-8
1.41333	-8
1.41700	-8
1.42067	-8
1.42433	-8
1.42800	-8
1.43167	-7
1.43533	-7
1.43900	-7
1.44267	-7
1.44633	-7
1.45000	-7
1.45367	-7
1.45733	-7
1.46100	-7
1.46467	-7
1.46833	-7
1.47200	-7
1.47567	-7
1.47933	-6
1.48300	-6
1.48667	-6
1.49033	-6
1.49400	-6
1.49767	-7
1.50133	-7
1.50500	-7
1.50867	-7
1.51233	-7
1.51600	-7
1.51967	-8
1.52333	-8
1.52700	-8
1.53067	-7
1.53433	-7
1.53800	-7
1.54167	-7
1.54533	-7
1.54900	-7
1.55267	-6
1.55633	-6
1.56000	-7
1.56367	-7
1.56733	-7
1.57100	-7
1.57467	-7
1.57833	-7
1.58200	-7
1.58567	-7
1.58933	-7
1.59300	-7
1.59667	-7
1.60033	-8
1.60400	-9
1.60767	-10
1.61133	-12
1.61500	-14
1.61867	-17
1.62233	-19
1.62600	-22
1.62967	-26
1.63333	-29
1.63700	-33
1.64067	-37
1.64433	-40
1.64800	-44
1.65167	-48
1.65533	-52
1.65900	-55
1.66267	-59
1.66633	-63
1.67000	-67
1.67367	-72
1.67733	-76
1.68100	-81
1.68467	-86
1.68833	-91
1.69200	-95
1.69567	-98
1.69933	-101
1.70300	-103
1.70667	-105
1.71033	-106
1.71400	-107
1.71767	-108
1.72133	-108
1.72500	-108
1.72867	-108
1.73233	-109
1.73600	-109
1.73967	-110
1.74333	-111
1.74700	-112
1.75067	-112
1.75433	-113
1.75800	-114
1.76167	-114
1.76533	-115
1.76900	-115
1.77267	-116
1.77633	-116
1.78000	-117
1.78367	-117
1.78733	-118
1.79100	-119
1.79467	-119
1.79833	-120
1.80200	-120
1.80567	-119
1.80933	-118
1.81300	-117
1.81667	-116
1.82033	-115
1.82400	-114
1.82767	-113
1.83133	-113
1.83500	-113
1.83867	-114
1.84233	-115
1.84600	-115
1.84967	-116
1.85333	-117
1.85700	-117
1.86067	-118
1.86433	-118
1.86800	-118
1.87167	-118
1.87533	-118
1.87900	-118
1.88267	-118
1.88633	-118
1.89000	-117
1.89367	-117
1.89733	-117
1.90100	-117
1.90467	-117
1.90833	-117
1.91200	-117
1.91567	-117
1.91933	-117
1.92300	-117
1.92667	-116
1.93033	-116
1.93400	-115
1.93767	-115
1.94133	-114
1.94500	-114
1.94867	-114
1.95233	-114
1.95600	-114
1.95967	-114
1.96333	-114
1.96700	-114
1.97067	-115
1.97433	-115
1.97800	-115
1.98167	-115
1.98533	-115
1.98900	-115
1.99267	-114
1.99633	-114
2.00000	-113
2.00367	-113
2.00733	-112
2.01100	-112
2.01467	-111
2.01833	-110
2.02200	-109
2.02567	-108
2.02933	-107
2.03300	-106
2.03667	-105
2.04033	-105
2.04400	-104
2.04767	-104
2.05133	-104
2.05500	-104
2.05867	-105
2.06233	-106
2.06600	-106
2.06967	-107
2.07333	-107
2.07700	-107
2.08067	-107
2.08433	-106
2.08800	-105
2.09167	-105
2.09533	-104
2.09900	-104
2.10267	-104
2.10633	-103
2.11000	-103
2.11367	-103
2.11733	-104
2.12100	-104
2.12467	-103
2.12833	-103
2.13200	-102
2.13567	-101
2.13933	-101
2.14300	-100
2.14667	-99
2.15033	-99
2.15400	-98
2.15767	-98
2.16133	-98
2.16500	-98
2.16867	-98
2.17233	-98
2.17600	-98
2.17967	-97
2.18333	-97
2.18700	-96
2.19067	-96
2.19433	-95
2.19800	-95
2.20167	-94
2.20533	-94
2.20900	-94
2.21267	-94
2.21633	-94
2.22000	-94
2.22367	-94
2.22733	-93
2.23100	-93
2.23467	-93
2.23833	-92
2.24200	-92
2.24567	-91
2.24933	-91
2.25300	-90
2.25667	-90
2.26033	-89
2.26400	-89
2.26767	-88
2.27133	-89
2.27500	-89
2.27867	-90
2.28233	-91
2.28600	-92
2.28967	-92
2.29333	-92
2.29700	-92
2.30067	-91
2.30433	-90
2.30800	-89
2.31167	-88
2.31533	-87
2.31900	-86
2.32267	-85
2.32633	-84
2.33000	-84
2.33367	-83
2.33733	-83
2.34100	-83
2.34467	-82
2.34833	-82
2.35200	-82
2.35567	-81
2.35933	-79
2.36300	-78
2.36667	-76
2.37033	-74
2.37400	-71
2.37767	-67
2.38133	-63
2.38500	-60
2.38867	-56
2.39233	-51
2.39600	-47
2.39967	-42
2.40333	-38
2.40700	-34
2.41067	-30
2.41433	-26
2.41800	-24
2.42167	-21
2.42533	-20
2.42900	-18
2.43267	-17
2.43633	-16
2.44000	-15
2.44367	-14
2.44733	-12
2.45100	-11
2.45467	-10
2.45833	-10
2.46200	-9
2.46567	-9
2.46933	-9
2.47300	-9
2.47667	-9
2.48033	-8
2.48400	-7
2.48767	-6
2.49133	-5
2.49500	-4
2.49867	-3
2.50233	-2
2.50600	-1
2.50967	-0
2.51333	1
2.51700	2
2.52067	3
2.52433	4
2.52800	5
2.53167	7
2.53533	7
2.53900	8
2.54267	8
2.54633	8
2.55000	8
2.55367	9
2.55733	9
2.56100	9
2.56467	10
2.56833	10
2.57200	10
2.57567	10
2.57933	10
2.58300	10
2.58667	9
2.59033	9
2.59400	9
2.59767	9
2.60133	9
2.60500	10
2.60867	11
2.61233	11
2.61600	12
2.61967	12
2.62333	13
2.62700	13
2.63067	14
2.63433	14
2.63800	14
2.64167	14
2.64533	14
2.64900	14
2.65267	14
2.65633	14
2.66000	14
2.66367	14
2.66733	15
2.67100	15
2.67467	15
2.67833	15
2.68200	15
2.68567	16
2.68933	16
2.69300	16
2.69667	16
2.70033	17
2.70400	17
2.70767	17
2.71133	18
2.71500	18
2.71867	18
2.72233	18
2.72600	18
2.72967	18
2.73333	19
2.73700	20
2.74067	20
2.74433	21
2.74800	21
2.75167	21
2.75533	22
2.75900	22
2.76267	22
2.76633	22
2.77000	21
2.77367	21
2.77733	21
2.78100	21
2.78467	21
2.78833	20
2.79200	20
2.79567	20
2.79933	20
2.80300	19
2.80667	19
2.81033	19
2.81400	20
2.81767	20
2.82133	20
2.82500	20
2.82867	20
2.83233	20
2.83600	20
2.83967	20
2.84333	19
2.84700	18
2.85067	15
2.85433	10
2.85800	2
2.86167	-10
2.86533	-25
2.86900	-44
2.87267	-68
2.87633	-96
2.88000	-128
2.88367	-165
2.88733	-206
2.89100	-250
2.89467	-297
2.89833	-347
2.90200	-399
2.90567	-452
2.90933	-507
2.91300	-562
2.91667	-617
2.92033	-673
2.92400	-727
2.92767	-780
2.93133	-831
2.93500	-882
2.93867	-937
2.94233	-996
2.94600	-1050
2.94967	-1089
2.95333	-1105
2.95700	-1096
2.96067	-1062
2.96433	-1009
2.96800	-941
2.97167	-865
2.97533	-786
2.97900	-706
2.98267	-628
2.98633	-555
2.99000	-487
2.99367	-425
2.99733	-369
3.00100	-319
3.00467	-275
3.00833	-236
3.01200	-202
3.01567	-172
3.01933	-146
3.02300	-124
3.02667	-105
3.03033	-89
3.03400	-74
3.03767	-62
3.04133	-52
3.04500	-43
3.04867	-35
3.05233	-29
3.05600	-23
3.05967	-18
3.06333	-14
3.06700	-10
3.07067	-7
3.07433	-5
3.07800	-3
3.08167	-1
3.08533	0
3.08900	1
3.09267	2
3.09633	4
3.10000	5
3.10367	5
3.10733	6
3.11100	7
3.11467	7
3.11833	8
3.12200	8
3.12567	8
3.12933	9
3.13300	9
3.13667	9
3.14033	9
3.14400	10
3.14767	10
3.15133	11
3.15500	12
3.15867	12
3.16233	13
3.16600	13
3.16967	14
3.17333	14
3.17700	14
3.18067	14
3.18433	14
3.18800	14
3.19167	15
3.19533	15
3.19900	15
3.20267	15
3.20633	15
3.21000	14
3.21367	15
3.21733	15
3.22100	15
3.22467	16
3.22833	16
3.23200	17
3.23567	17
3.23933	17
3.24300	17
3.24667	17
3.25033	18
3.25400	18
3.25767	18
3.26133	18
3.26500	18
3.26867	18
3.27233	18
3.27600	18
3.27967	18
3.28333	18
3.28700	18
3.29067	19
3.29433	19
3.29800	19
3.30167	20
3.30533	20
3.30900	20
3.31267	21
3.31633	21
3.32000	22
3.32367	22
3.32733	22
3.33100	23
3.33467	23
3.33833	23
3.34200	23
3.34567	23
3.34933	23
3.35300	23
3.35667	23
3.36033	23
3.36400	23
3.36767	23
3.37133	23
3.37500	23
3.37867	23
3.38233	23
3.38600	23
3.38967	23
3.39333	22
3.39700	22
3.40067	22
3.40433	22
3.40800	22
3.41167	22
3.41533	22
3.41900	22
3.42267	21
3.42633	21
3.43000	21
3.43367	22
3.43733	22
3.44100	22
3.44467	22
3.44833	22
3.45200	22
3.45567	21
3.45933	21
3.46300	21
3.46667	21
3.47033	21
3.47400	20
3.47767	20
3.48133	20
3.48500	20
3.48867	21
3.49233	21
3.49600	21
3.49967	22
3.50333	22
3.50700	22
3.51067	22
3.51433	22
3.51800	22
3.52167	22
3.52533	22
3.52900	23
3.53267	23
3.53633	23
3.54000	23
3.54367	23
3.54733	22
3.55100	22
3.55467	21
3.55833	21
3.56200	20
3.56567	20
3.56933	20
3.57300	20
3.57667	20
3.58033	20
3.58400	20
3.58767	20
3.59133	20
3.59500	20
3.59867	20
3.60233	20
3.60600	20
3.60967	21
3.61333	21
3.61700	21
3.62067	22
3.62433	22
3.62800	22
3.63167	22
3.63533	23
3.63900	23
3.64267	23
3.64633	23
3.65000	23
3.65367	23
3.65733	23
3.66100	22
3.66467	22
3.66833	22
3.67200	22
3.67567	22
3.67933	22
3.68300	22
3.68667	22
3.69033	21
3.69400	21
3.69767	21
3.70133	21
3.70500	21
3.70867	21
3.71233	21
3.71600	21
3.71967	21
3.72333	21
3.72700	21
3.73067	21
3.73433	21
3.73800	21
3.74167	21
3.74533	21
3.74900	21
3.75267	21
3.75633	21
3.76000	21
3.76367	21
3.76733	21
3.77100	21
3.77467	21
3.77833	21
3.78200	21
3.78567	21
3.78933	21
3.79300	22
3.79667	22
3.80033	22
3.80400	22
3.80767	22
3.81133	22
3.81500	22
3.81867	22
3.82233	22
3.82600	22
3.82967	22
3.83333	21
3.83700	21
3.84067	21
3.84433	21
3.84800	21
3.85167	21
3.85533	21
3.85900	20
3.86267	21
3.86633	21
3.87000	21
3.87367	21
3.87733	21
3.88100	21
3.88467	21
3.88833	21
3.89200	21
3.89567	21
3.89933	21
3.90300	20
3.90667	20
3.91033	20
3.91400	20
3.91767	20
3.92133	20
3.92500	20
3.92867	20
3.93233	20
3.93600	20
3.93967	20
3.94333	20
3.94700	20
3.95067	20
3.95433	20
3.95800	20
3.96167	20
3.96533	20
3.96900	20
3.97267	20
3.97633	20
3.98000	21
3.98367	21
3.98733	21
3.99100	22
3.99467	22
3.99833	22

[Chromatogram (Ch3)]
Interval(msec)	220
# of Points	1091
Start Time(min)	0.002
End Time(min)	3.998
R.Time (min)	Intensity
0.00167	1
0.00533	1
0.00900	1
0.01267	0
0.01633	1
0.02000	2
0.02367	5
0.02733	7
0.03100	8
0.03467	6
0.03833	5
0.04200	5
0.04567	2
0.04933	3
0.05300	3
0.05667	4
0.06033	8
0.06400	12
0.06767	13
0.07133	12
0.07500	11
0.07867	11
0.08233	11
0.08600	10
0.08967	11
0.09333	9
0.09700	9
0.10067	11
0.10433	14
0.10800	16
0.11167	15
0.11533	13
0.11900	15
0.12267	15
0.12633	15
0.13000	16
0.13367	15
0.13733	14
0.14100	12
0.14467	11
0.14833	9
0.15200	7
0.15567	6
0.15933	9
0.16300	9
0.16667	8
0.17033	7
0.17400	8
0.17767	10
0.18133	11
0.18500	11
0.18867	11
0.19233	11
0.19600	11
0.19967	10
0.20333	10
0.20700	10
0.21067	12
0.21433	13
0.21800	12
0.22167	11
0.22533	9
0.22900	9
0.23267	9
0.23633	9
0.24000	10
0.24367	11
0.24733	11
0.25100	10
0.25467	9
0.25833	7
0.26200	6
0.26567	4
0.26933	4
0.27300	5
0.27667	7
0.28033	7
0.28400	6
0.28767	7
0.29133	7
0.29500	8
0.29867	6
0.30233	6
0.30600	7
0.30967	8
0.31333	7
0.31700	6
0.32067	6
0.32433	7
0.32800	6
0.33167	6
0.33533	4
0.33900	2
0.34267	2
0.34633	2
0.35000	2
0.35367	2
0.35733	3
0.36100	4
0.36467	4
0.36833	5
0.37200	6
0.37567	6
0.37933	5
0.38300	4
0.38667	4
0.39033	4
0.39400	3
0.39767	2
0.40133	0
0.40500	-3
0.40867	-5
0.41233	-5
0.41600	-4
0.41967	-3
0.42333	-1
0.42700	0
0.43067	-1
0.43433	-2
0.43800	-1
0.44167	-0
0.44533	-0
0.44900	0
0.45267	-0
0.45633	-1
0.46000	-2
0.46367	-3
0.46733	-6
0.47100	-7
0.47467	-6
0.47833	-4
0.48200	-3
0.48567	-4
0.48933	-7
0.49300	-9
0.49667	-10
0.50033	-10
0.50400	-11
0.50767	-10
0.51133	-8
0.51500	-7
0.51867	-4
0.52233	-3
0.52600	-5
0.52967	-7
0.53333	-9
0.53700	-10
0.54067	-9
0.54433	-6
0.54800	-5
0.55167	-3
0.55533	-2
0.55900	-3
0.56267	-3
0.56633	-2
0.57000	-3
0.57367	-4
0.57733	-3
0.58100	-3
0.58467	-2
0.58833	-2
0.59200	-1
0.59567	-1
0.59933	-4
0.60300	-4
0.60667	-3
0.61033	-4
0.61400	-5
0.61767	-4
0.62133	-5
0.62500	-4
0.62867	-3
0.63233	-4
0.63600	-5
0.63967	-7
0.64333	-5
0.64700	-3
0.65067	-1
0.65433	-1
0.65800	-2
0.66167	-2
0.66533	-2
0.66900	-2
0.67267	-2
0.67633	-1
0.68000	-2
0.68367	-3
0.68733	-4
0.69100	-4
0.69467	-3
0.69833	-3
0.70200	-4
0.70567	-3
0.70933	-3
0.71300	-2
0.71667	-1
0.72033	-1
0.72400	1
0.72767	3
0.73133	4
0.73500	4
0.73867	4
0.74233	2
0.74600	2
0.74967	1
0.75333	1
0.75700	-1
0.76067	-4
0.76433	-6
0.76800	-5
0.77167	-4
0.77533	-4
0.77900	-3
0.78267	-2
0.78633	-0
0.79000	-0
0.79367	-1
0.79733	0
0.80100	-1
0.80467	-0
0.80833	1
0.81200	1
0.81567	-2
0.81933	-2
0.82300	-2
0.82667	-2
0.83033	-0
0.83400	1
0.83767	3
0.84133	4
0.84500	3
0.84867	2
0.85233	1
0.85600	-1
0.85967	-1
0.86333	-2
0.86700	-2
0.87067	-0
0.87433	-0
0.87800	1
0.88167	0
0.88533	-2
0.88900	-3
0.89267	-0
0.89633	2
0.90000	3
0.90367	3
0.90733	1
0.91100	-0
0.91467	2
0.91833	4
0.92200	7
0.92567	6
0.92933	5
0.93300	4
0.93667	3
0.94033	4
0.94400	6
0.94767	7
0.95133	8
0.95500	7
0.95867	7
0.96233	6
0.96600	6
0.96967	6
0.97333	7
0.97700	8
0.98067	8
0.98433	8
0.98800	8
0.99167	8
0.99533	8
0.99900	7
1.00267	6
1.00633	7
1.01000	7
1.01367	7
1.01733	7
1.02100	7
1.02467	7
1.02833	6
1.03200	5
1.03567	4
1.03933	3
1.04300	4
1.04667	7
1.05033	8
1.05400	9
1.05767	7
1.06133	5
1.06500	5
1.06867	6
1.07233	7
1.07600	8
1.07967	7
1.08333	7
1.08700	7
1.09067	8
1.09433	8
1.09800	10
1.10167	11
1.10533	13
1.10900	12
1.11267	11
1.11633	11
1.12000	11
1.12367	12
1.12733	13
1.13100	14
1.13467	17
1.13833	18
1.14200	19
1.14567	18
1.14933	17
1.15300	15
1.15667	13
1.16033	12
1.16400	10
1.16767	10
1.17133	12
1.17500	13
1.17867	14
1.18233	14
1.18600	15
1.18967	16
1.19333	17
1.19700	18
1.20067	18
1.20433	16
1.20800	14
1.21167	15
1.21533	16
1.21900	17
1.22267	19
1.22633	22
1.23000	23
1.23367	23
1.23733	21
1.24100	20
1.24467	21
1.24833	19
1.25200	16
1.25567	15
1.25933	16
1.26300	16
1.26667	17
1.27033	17
1.27400	16
1.27767	15
1.28133	13
1.28500	16
1.28867	19
1.29233	20
1.29600	21
1.29967	21
1.30333	23
1.30700	24
1.31067	24
1.31433	22
1.31800	21
1.32167	21
1.32533	21
1.32900	23
1.33267	25
1.33633	27
1.34000	27
1.34367	25
1.34733	23
1.35100	21
1.35467	21
1.35833	22
1.36200	23
1.36567	25
1.36933	27
1.37300	27
1.37667	27
1.38033	26
1.38400	27
1.38767	29
1.39133	30
1.39500	29
1.39867	28
1.40233	29
1.40600	28
1.40967	25
1.41333	24
1.41700	26
1.42067	26
1.42433	25
1.42800	26
1.43167	28
1.43533	26
1.43900	27
1.44267	27
1.44633	26
1.45000	25
1.45367	26
1.45733	28
1.46100	27
1.46467	27
1.46833	25
1.47200	25
1.47567	24
1.47933	23
1.48300	24
1.48667	24
1.49033	23
1.49400	24
1.49767	24
1.50133	23
1.50500	22
1.50867	24
1.51233	24
1.51600	24
1.51967	24
1.52333	25
1.52700	24
1.53067	24
1.53433	21
1.53800	19
1.54167	18
1.54533	16
1.54900	15
1.55267	14
1.55633	15
1.56000	15
1.56367	15
1.56733	16
1.57100	16
1.57467	17
1.57833	18
1.58200	18
1.58567	17
1.58933	16
1.59300	17
1.59667	18
1.60033	18
1.60400	17
1.60767	17
1.61133	18
1.61500	18
1.61867	16
1.62233	16
1.62600	16
1.62967	16
1.63333	17
1.63700	17
1.64067	19
1.64433	21
1.64800	22
1.65167	21
1.65533	22
1.65900	23
1.66267	23
1.66633	24
1.67000	24
1.67367	25
1.67733	25
1.68100	27
1.68467	27
1.68833	28
1.69200	29
1.69567	32
1.69933	34
1.70300	36
1.70667	35
1.71033	35
1.71400	34
1.71767	34
1.72133	36
1.72500	37
1.72867	37
1.73233	36
1.73600	37
1.73967	40
1.74333	40
1.74700	40
1.75067	40
1.75433	40
1.75800	40
1.76167	40
1.76533	40
1.76900	42
1.77267	42
1.77633	42
1.78000	43
1.78367	45
1.78733	46
1.79100	46
1.79467	46
1.79833	48
1.80200	49
1.80567	51
1.80933	53
1.81300	53
1.81667	53
1.82033	53
1.82400	53
1.82767	54
1.83133	54
1.83500	54
1.83867	53
1.84233	57
1.84600	61
1.84967	63
1.85333	65
1.85700	66
1.86067	64
1.86433	63
1.86800	62
1.87167	62
1.87533	62
1.87900	63
1.88267	65
1.88633	67
1.89000	68
1.89367	71
1.89733	72
1.90100	72
1.90467	72
1.90833	73
1.91200	73
1.91567	73
1.91933	75
1.92300	78
1.92667	78
1.93033	77
1.93400	74
1.93767	72
1.94133	75
1.94500	79
1.94867	83
1.95233	84
1.95600	83
1.95967	84
1.96333	85
1.96700	84
1.97067	83
1.97433	84
1.97800	87
1.98167	89
1.98533	92
1.98900	93
1.99267	93
1.99633	91
2.00000	92
2.00367	94
2.00733	95
2.01100	96
2.01467	98
2.01833	103
2.02200	105
2.02567	106
2.02933	106
2.03300	105
2.03667	104
2.04033	105
2.04400	105
2.04767	103
2.05133	101
2.05500	101
2.05867	104
2.06233	109
2.06600	112
2.06967	114
2.07333	117
2.07700	120
2.08067	122
2.08433	123
2.08800	123
2.09167	123
2.09533	123
2.09900	124
2.10267	126
2.10633	126
2.11000	129
2.11367	130
2.11733	131
2.12100	132
2.12467	135
2.12833	136
2.13200	138
2.13567	141
2.13933	143
2.14300	144
2.14667	146
2.15033	146
2.15400	148
2.15767	149
2.16133	149
2.16500	149
2.16867	149
2.17233	150
2.17600	152
2.17967	151
2.18333	150
2.18700	153
2.19067	157
2.19433	162
2.19800	165
2.20167	167
2.20533	168
2.20900	168
2.21267	168
2.21633	168
2.22000	169
2.22367	170
2.22733	173
2.23100	176
2.23467	177
2.23833	178
2.24200	180
2.24567	181
2.24933	179
2.25300	180
2.25667	182
2.26033	184
2.26400	186
2.26767	187
2.27133	187
2.27500	189
2.27867	189
2.28233	190
2.28600	192
2.28967	194
2.29333	196
2.29700	197
2.30067	199
2.30433	202
2.30800	203
2.31167	205
2.31533	207
2.31900	208
2.32267	208
2.32633	208
2.33000	209
2.33367	211
2.33733	214
2.34100	215
2.34467	215
2.34833	217
2.35200	219
2.35567	222
2.35933	224
2.36300	224
2.36667	226
2.37033	230
2.37400	231
2.37767	232
2.38133	232
2.38500	230
2.38867	228
2.39233	230
2.39600	234
2.39967	237
2.40333	239
2.40700	243
2.41067	248
2.41433	250
2.41800	250
2.42167	250
2.42533	250
2.42900	252
2.43267	255
2.43633	258
2.44000	259
2.44367	322
2.44733	485
2.45100	660
2.45467	805
2.45833	884
2.46200	885
2.46567	838
2.46933	778
2.47300	723
2.47667	681
2.48033	647
2.48400	606
2.48767	556
2.49133	502
2.49500	450
2.49867	409
2.50233	381
2.50600	360
2.50967	350
2.51333	353
2.51700	367
2.52067	390
2.52433	413
2.52800	427
2.53167	428
2.53533	413
2.53900	387
2.54267	354
2.54633	318
2.55000	282
2.55367	252
2.55733	228
2.56100	208
2.56467	190
2.56833	179
2.57200	173
2.57567	169
2.57933	167
2.58300	166
2.58667	166
2.59033	168
2.59400	170
2.59767	169
2.60133	168
2.60500	166
2.60867	162
2.61233	156
2.61600	148
2.61967	140
2.62333	131
2.62700	123
2.63067	116
2.63433	107
2.63800	97
2.64167	87
2.64533	76
2.64900	65
2.65267	53
2.65633	40
2.66000	26
2.66367	14
2.66733	3
2.67100	-9
2.67467	-20
2.67833	-28
2.68200	-34
2.68567	-37
2.68933	-38
2.69300	-38
2.69667	-38
2.70033	-37
2.70400	-36
2.70767	-36
2.71133	-34
2.71500	-30
2.71867	-27
2.72233	-21
2.72600	-17
2.72967	-11
2.73333	-6
2.73700	-1
2.74067	4
2.74433	9
2.74800	13
2.75167	16
2.75533	18
2.75900	21
2.76267	24
2.76633	28
2.77000	32
2.77367	35
2.77733	38
2.78100	42
2.78467	46
2.78833	51
2.79200	55
2.79567	59
2.79933	64
2.80300	70
2.80667	76
2.81033	84
2.81400	92
2.81767	103
2.82133	116
2.82500	139
2.82867	179
2.83233	253
2.83600	383
2.83967	594
2.84333	905
2.84700	1325
2.85067	1845
2.85433	2437
2.85800	3064
2.86167	3681
2.86533	4234
2.86900	4679
2.87267	4982
2.87633	5135
2.88000	5142
2.88367	5018
2.88733	4792
2.89100	4494
2.89467	4150
2.89833	3786
2.90200	3419
2.90567	3063
2.90933	2727
2.91300	2416
2.91667	2131
2.92033	1874
2.92400	1647
2.92767	1445
2.93133	1270
2.93500	1116
2.93867	980
2.94233	860
2.94600	754
2.94967	661
2.95333	579
2.95700	508
2.96067	447
2.96433	395
2.96800	351
2.97167	315
2.97533	283
2.97900	253
2.98267	226
2.98633	204
2.99000	180
2.99367	134
2.99733	73
3.00100	26
3.00467	12
3.00833	26
3.01200	59
3.01567	104
3.01933	157
3.02300	213
3.02667	265
3.03033	313
3.03400	357
3.03767	395
3.04133	428
3.04500	454
3.04867	477
3.05233	495
3.05600	511
3.05967	527
3.06333	540
3.06700	550
3.07067	558
3.07433	564
3.07800	569
3.08167	575
3.08533	578
3.08900	582
3.09267	585
3.09633	589
3.10000	589
3.10367	590
3.10733	591
3.11100	594
3.11467	598
3.11833	602
3.12200	606
3.12567	610
3.12933	614
3.13300	619
3.13667	623
3.14033	625
3.14400	628
3.14767	632
3.15133	636
3.15500	639
3.15867	642
3.16233	647
3.16600	651
3.16967	656
3.17333	662
3.17700	667
3.18067	672
3.18433	677
3.18800	685
3.19167	691
3.19533	697
3.19900	700
3.20267	703
3.20633	710
3.21000	717
3.21367	722
3.21733	725
3.22100	726
3.22467	729
3.22833	733
3.23200	735
3.23567	738
3.23933	743
3.24300	749
3.24667	750
3.25033	751
3.25400	752
3.25767	752
3.26133	753
3.26500	755
3.26867	756
3.27233	758
3.27600	759
3.27967	759
3.28333	758
3.28700	757
3.29067	756
3.29433	754
3.29800	753
3.30167	753
3.30533	753
3.30900	752
3.31267	749
3.31633	747
3.32000	746
3.32367	744
3.32733	743
3.33100	739
3.33467	735
3.33833	733
3.34200	730
3.34567	724
3.34933	721
3.35300	720
3.35667	721
3.36033	721
3.36400	719
3.36767	718
3.37133	715
3.37500	712
3.37867	709
3.38233	707
3.38600	706
3.38967	705
3.39333	702
3.39700	700
3.40067	698
3.40433	698
3.40800	695
3.41167	692
3.41533	690
3.41900	689
3.42267	689
3.42633	689
3.43000	687
3.43367	686
3.43733	685
3.44100	684
3.44467	682
3.44833	680
3.45200	678
3.45567	678
3.45933	678
3.46300	680
3.46667	680
3.47033	678
3.47400	676
3.47767	676
3.48133	675
3.48500	674
3.48867	670
3.49233	668
3.49600	667
3.49967	663
3.50333	662
3.50700	660
3.51067	660
3.51433	659
3.51800	658
3.52167	656
3.52533	655
3.52900	655
3.53267	656
3.53633	657
3.54000	656
3.54367	653
3.54733	652
3.55100	651
3.55467	651
3.55833	650
3.56200	648
3.56567	646
3.56933	646
3.57300	646
3.57667	645
3.58033	643
3.58400	642
3.58767	642
3.59133	640
3.59500	638
3.59867	636
3.60233	636
3.60600	636
3.60967	636
3.61333	635
3.61700	635
3.62067	631
3.62433	628
3.62800	628
3.63167	629
3.63533	631
3.63900	631
3.64267	628
3.64633	626
3.65000	625
3.65367	624
3.65733	623
3.66100	622
3.66467	620
3.66833	618
3.67200	614
3.67567	614
3.67933	613
3.68300	613
3.68667	609
3.69033	605
3.69400	604
3.69767	604
3.70133	604
3.70500	603
3.70867	602
3.71233	601
3.71600	600
3.71967	598
3.72333	596
3.72700	593
3.73067	592
3.73433	590
3.73800	588
3.74167	588
3.74533	586
3.74900	584
3.75267	583
3.75633	579
3.76000	577
3.76367	577
3.76733	578
3.77100	576
3.77467	573
3.77833	569
3.78200	566
3.78567	563
3.78933	563
3.79300	564
3.79667	564
3.80033	562
3.80400	560
3.80767	560
3.81133	559
3.81500	557
3.81867	553
3.82233	551
3.82600	548
3.82967	543
3.83333	540
3.83700	539
3.84067	541
3.84433	544
3.84800	544
3.85167	544
3.85533	542
3.85900	541
3.86267	541
3.86633	541
3.87000	538
3.87367	534
3.87733	529
3.88100	525
3.88467	526
3.88833	526
3.89200	525
3.89567	524
3.89933	523
3.90300	524
3.90667	523
3.91033	522
3.91400	521
3.91767	521
3.92133	519
3.92500	517
3.92867	514
3.93233	510
3.93600	509
3.93967	509
3.94333	510
3.94700	510
3.95067	509
3.95433	509
3.95800	509
3.96167	510
3.96533	509
3.96900	506
3.97267	502
3.97633	499
3.98000	496
3.98367	494
3.98733	494
3.99100	496
3.99467	497
3.99833	496

[Status Trace (Column Oven Temperature)]
Interval(msec)	1000
# of Points	240
Start Time(min)	0.006
End Time(min)	3.990
Intensity Units	
Intensity Multiplier	1
R.Time (min)	Intensity
0.00620	35.00
0.02287	35.01
0.03953	35.02
0.05620	35.03
0.07287	35.04
0.08953	35.03
0.10620	35.03
0.12287	35.02
0.13953	35.02
0.15620	35.03
0.17287	35.04
0.18953	35.04
0.20620	35.05
0.22287	35.04
0.23953	35.03
0.25620	35.00
0.27287	34.99
0.28953	34.98
0.30620	34.98
0.32287	34.98
0.33953	34.99
0.35620	35.00
0.37287	35.01
0.38953	35.02
0.40620	35.02
0.42287	35.04
0.43953	35.05
0.45620	35.04
0.47287	35.04
0.48953	35.03
0.50620	35.03
0.52287	35.03
0.53953	35.03
0.55620	35.03
0.57287	35.02
0.58953	35.02
0.60620	35.01
0.62287	35.00
0.63953	35.00
0.65620	35.00
0.67287	35.01
0.68953	35.01
0.70620	35.01
0.72287	35.00
0.73953	34.99
0.75620	34.99
0.77287	34.99
0.78953	34.98
0.80620	34.99
0.82287	35.00
0.83953	35.01
0.85620	35.00
0.87287	35.00
0.88953	35.01
0.90620	35.02
0.92287	35.03
0.93953	35.02
0.95620	35.02
0.97287	35.03
0.98953	35.01
1.00620	35.01
1.02287	35.01
1.03953	35.00
1.05620	35.00
1.07287	34.98
1.08953	34.98
1.10620	34.98
1.12287	34.99
1.13953	34.98
1.15620	34.99
1.17287	34.98
1.18953	34.99
1.20620	35.00
1.22287	35.00
1.23953	35.00
1.25620	34.98
1.27287	34.97
1.28953	34.97
1.30620	34.98
1.32287	34.97
1.33953	34.97
1.35620	34.97
1.37287	34.98
1.38953	34.99
1.40620	35.00
1.42287	35.00
1.43953	35.00
1.45620	35.00
1.47287	35.00
1.48953	35.01
1.50620	35.01
1.52287	35.00
1.53953	35.00
1.55620	35.00
1.57287	34.99
1.58953	35.00
1.60620	35.04
1.62287	35.17
1.63953	35.35
1.65620	35.60
1.67287	35.92
1.68953	36.30
1.70620	36.64
1.72287	36.97
1.73953	37.30
1.75620	37.64
1.77287	37.97
1.78953	38.32
1.80620	38.64
1.82287	38.94
1.83953	39.28
1.85620	39.61
1.87287	39.94
1.88953	40.27
1.90620	40.60
1.92287	40.92
1.93953	41.24
1.95620	41.57
1.97287	41.90
1.98953	42.22
2.00620	42.57
2.02287	42.87
2.03953	43.17
2.05620	43.50
2.07287	43.84
2.08953	44.16
2.10620	44.48
2.12287	44.82
2.13953	45.13
2.15620	45.47
2.17287	45.78
2.18953	46.11
2.20620	46.46
2.22287	46.79
2.23953	47.13
2.25620	47.44
2.27287	47.78
2.28953	48.15
2.30620	48.48
2.32287	48.78
2.33953	49.12
2.35620	49.40
2.37287	49.58
2.38953	49.65
2.40620	49.65
2.42287	49.65
2.43953	49.68
2.45620	49.67
2.47287	49.72
2.48953	49.72
2.50620	49.74
2.52287	49.73
2.53953	49.75
2.55620	49.77
2.57287	49.79
2.58953	49.82
2.60620	49.82
2.62287	49.81
2.63953	49.81
2.65620	49.82
2.67287	49.83
2.68953	49.84
2.70620	49.86
2.72287	49.86
2.73953	49.85
2.75620	49.85
2.77287	49.86
2.78953	49.86
2.80620	49.87
2.82287	49.87
2.83953	49.87
2.85620	49.87
2.87287	49.88
2.88953	49.88
2.90620	49.88
2.92287	49.89
2.93953	49.90
2.95620	49.92
2.97287	49.94
2.98953	49.97
3.00620	49.99
3.02287	50.00
3.03953	50.01
3.05620	50.01
3.07287	50.01
3.08953	50.02
3.10620	50.03
3.12287	50.05
3.13953	50.07
3.15620	50.07
3.17287	50.07
3.18953	50.08
3.20620	50.09
3.22287	50.09
3.23953	50.10
3.25620	50.10
3.27287	50.10
3.28953	50.11
3.30620	50.10
3.32287	50.08
3.33953	50.07
3.35620	50.06
3.37287	50.06
3.38953	50.06
3.40620	50.05
3.42287	50.04
3.43953	50.04
3.45620	50.05
3.47287	50.05
3.48953	50.04
3.50620	50.04
3.52287	50.03
3.53953	50.03
3.55620	50.03
3.57287	50.04
3.58953	50.04
3.60620	50.04
3.62287	50.04
3.63953	50.04
3.65620	50.04
3.67287	50.05
3.68953	50.05
3.70620	50.05
3.72287	50.05
3.73953	50.05
3.75620	50.05
3.77287	50.05
3.78953	50.05
3.80620	50.04
3.82287	50.05
3.83953	50.06
3.85620	50.06
3.87287	50.06
3.88953	50.06
3.90620	50.07
3.92287	50.06
3.93953	50.06
3.95620	50.06
3.97287	50.07
3.98953	50.06

[Status Trace (Injection Unit Temperature)]
Interval(msec)	1000
# of Points	240
Start Time(min)	0.006
End Time(min)	3.990
Intensity Units	
Intensity Multiplier	1
R.Time (min)	Intensity
0.00620	99.98
0.02287	99.98
0.03953	99.98
0.05620	99.99
0.07287	99.98
0.08953	99.98
0.10620	99.98
0.12287	99.98
0.13953	99.98
0.15620	99.98
0.17287	99.98
0.18953	99.98
0.20620	99.99
0.22287	99.99
0.23953	99.99
0.25620	99.98
0.27287	99.98
0.28953	99.98
0.30620	99.99
0.32287	99.98
0.33953	99.98
0.35620	99.98
0.37287	99.98
0.38953	99.98
0.40620	99.98
0.42287	99.98
0.43953	99.98
0.45620	99.98
0.47287	99.98
0.48953	99.98
0.50620	99.98
0.52287	99.98
0.53953	99.98
0.55620	99.98
0.57287	99.98
0.58953	99.98
0.60620	99.98
0.62287	99.98
0.63953	99.98
0.65620	99.98
0.67287	99.98
0.68953	99.98
0.70620	99.98
0.72287	99.98
0.73953	99.98
0.75620	99.98
0.77287	99.99
0.78953	99.98
0.80620	99.99
0.82287	99.99
0.83953	99.99
0.85620	99.98
0.87287	99.99
0.88953	99.98
0.90620	99.99
0.92287	99.99
0.93953	99.98
0.95620	99.99
0.97287	99.99
0.98953	99.99
1.00620	99.99
1.02287	99.99
1.03953	99.99
1.05620	99.99
1.07287	99.99
1.08953	99.99
1.10620	99.99
1.12287	99.99
1.13953	99.99
1.15620	99.99
1.17287	99.99
1.18953	99.99
1.20620	99.99
1.22287	99.99
1.23953	99.99
1.25620	99.98
1.27287	99.99
1.28953	99.99
1.30620	99.99
1.32287	99.98
1.33953	99.98
1.35620	99.99
1.37287	99.98
1.38953	99.98
1.40620	99.98
1.42287	99.98
1.43953	99.98
1.45620	99.98
1.47287	99.98
1.48953	99.98
1.50620	99.98
1.52287	99.98
1.53953	99.98
1.55620	99.98
1.57287	99.98
1.58953	99.97
1.60620	99.98
1.62287	99.98
1.63953	99.98
1.65620	99.98
1.67287	99.98
1.68953	99.98
1.70620	99.98
1.72287	99.98
1.73953	99.98
1.75620	99.99
1.77287	99.99
1.78953	99.99
1.80620	99.99
1.82287	99.98
1.83953	99.98
1.85620	99.98
1.87287	99.99
1.88953	99.98
1.90620	99.98
1.92287	99.98
1.93953	99.98
1.95620	99.98
1.97287	99.98
1.98953	99.98
2.00620	99.98
2.02287	99.98
2.03953	99.98
2.05620	99.97
2.07287	99.97
2.08953	99.98
2.10620	99.97
2.12287	99.97
2.13953	99.98
2.15620	99.97
2.17287	99.98
2.18953	99.97
2.20620	99.97
2.22287	99.97
2.23953	99.97
2.25620	99.97
2.27287	99.97
2.28953	99.97
2.30620	99.97
2.32287	99.96
2.33953	99.97
2.35620	99.97
2.37287	99.97
2.38953	99.97
2.40620	99.97
2.42287	99.97
2.43953	99.97
2.45620	99.97
2.47287	99.97
2.48953	99.97
2.50620	99.97
2.52287	99.97
2.53953	99.97
2.55620	99.97
2.57287	99.97
2.58953	99.97
2.60620	99.97
2.62287	99.97
2.63953	99.97
2.65620	99.98
2.67287	99.98
2.68953	99.97
2.70620	99.98
2.72287	99.98
2.73953	99.98
2.75620	99.98
2.77287	99.99
2.78953	99.98
2.80620	99.98
2.82287	99.99
2.83953	99.99
2.85620	99.98
2.87287	99.99
2.88953	99.99
2.90620	100.00
2.92287	100.00
2.93953	100.00
2.95620	100.00
2.97287	100.00
2.98953	100.00
3.00620	100.00
3.02287	100.01
3.03953	100.01
3.05620	100.00
3.07287	100.01
3.08953	100.01
3.10620	100.01
3.12287	100.02
3.13953	100.01
3.15620	100.02
3.17287	100.02
3.18953	100.02
3.20620	100.03
3.22287	100.03
3.23953	100.02
3.25620	100.03
3.27287	100.03
3.28953	100.03
3.30620	100.03
3.32287	100.03
3.33953	100.03
3.35620	100.03
3.37287	100.03
3.38953	100.04
3.40620	100.04
3.42287	100.04
3.43953	100.04
3.45620	100.04
3.47287	100.04
3.48953	100.04
3.50620	100.04
3.52287	100.04
3.53953	100.04
3.55620	100.04
3.57287	100.04
3.58953	100.05
3.60620	100.04
3.62287	100.05
3.63953	100.05
3.65620	100.05
3.67287	100.05
3.68953	100.05
3.70620	100.04
3.72287	100.05
3.73953	100.05
3.75620	100.05
3.77287	100.05
3.78953	100.05
3.80620	100.05
3.82287	100.05
3.83953	100.05
3.85620	100.05
3.87287	100.05
3.88953	100.05
3.90620	100.04
3.92287	100.05
3.93953	100.05
3.95620	100.05
3.97287	100.05
3.98953	100.05

[Status Trace (Carrier Gas Pressure)]
Interval(msec)	1000
# of Points	240
Start Time(min)	0.006
End Time(min)	3.990
Intensity Units	
Intensity Multiplier	1
R.Time (min)	Intensity
0.00620	58.00
0.02287	55.69
0.03953	56.88
0.05620	59.09
0.07287	59.62
0.08953	58.11
0.10620	57.98
0.12287	58.01
0.13953	58.01
0.15620	58.01
0.17287	58.00
0.18953	58.00
0.20620	58.00
0.22287	58.00
0.23953	58.00
0.25620	58.00
0.27287	58.00
0.28953	58.00
0.30620	58.00
0.32287	58.00
0.33953	58.00
0.35620	58.00
0.37287	58.00
0.38953	58.00
0.40620	58.00
0.42287	58.00
0.43953	58.00
0.45620	58.00
0.47287	58.00
0.48953	58.00
0.50620	58.00
0.52287	58.00
0.53953	58.00
0.55620	58.00
0.57287	58.00
0.58953	58.00
0.60620	58.00
0.62287	58.00
0.63953	58.00
0.65620	58.00
0.67287	58.00
0.68953	58.00
0.70620	58.00
0.72287	58.00
0.73953	58.00
0.75620	58.00
0.77287	58.00
0.78953	58.00
0.80620	58.00
0.82287	58.00
0.83953	58.00
0.85620	58.00
0.87287	58.00
0.88953	58.00
0.90620	58.00
0.92287	58.00
0.93953	58.00
0.95620	58.00
0.97287	58.00
0.98953	58.00
1.00620	58.00
1.02287	58.00
1.03953	58.00
1.05620	58.00
1.07287	58.00
1.08953	58.00
1.10620	58.00
1.12287	58.00
1.13953	58.00
1.15620	58.00
1.17287	58.00
1.18953	58.00
1.20620	58.00
1.22287	58.00
1.23953	58.00
1.25620	58.00
1.27287	58.00
1.28953	58.00
1.30620	58.00
1.32287	58.00
1.33953	58.00
1.35620	58.00
1.37287	58.00
1.38953	58.00
1.40620	58.00
1.42287	58.00
1.43953	58.00
1.45620	58.00
1.47287	58.00
1.48953	58.00
1.50620	58.00
1.52287	58.00
1.53953	58.00
1.55620	58.00
1.57287	58.00
1.58953	58.00
1.60620	58.00
1.62287	58.00
1.63953	58.01
1.65620	58.00
1.67287	58.01
1.68953	58.01
1.70620	58.00
1.72287	58.00
1.73953	58.00
1.75620	58.00
1.77287	58.00
1.78953	58.00
1.80620	58.00
1.82287	58.00
1.83953	58.00
1.85620	58.00
1.87287	58.00
1.88953	58.00
1.90620	58.00
1.92287	58.00
1.93953	58.00
1.95620	58.00
1.97287	58.00
1.98953	58.00
2.00620	58.00
2.02287	58.00
2.03953	58.00
2.05620	58.00
2.07287	58.00
2.08953	58.00
2.10620	58.00
2.12287	58.00
2.13953	58.00
2.15620	58.00
2.17287	58.00
2.18953	58.00
2.20620	58.00
2.22287	58.00
2.23953	58.00
2.25620	58.00
2.27287	58.00
2.28953	58.00
2.30620	58.00
2.32287	58.00
2.33953	58.00
2.35620	58.00
2.37287	58.00
2.38953	57.99
2.40620	57.99
2.42287	58.00
2.43953	58.00
2.45620	58.00
2.47287	58.00
2.48953	58.00
2.50620	58.00
2.52287	57.98
2.53953	58.00
2.55620	58.00
2.57287	58.00
2.58953	58.00
2.60620	58.00
2.62287	58.00
2.63953	58.00
2.65620	58.00
2.67287	58.00
2.68953	58.00
2.70620	58.00
2.72287	58.00
2.73953	58.00
2.75620	58.00
2.77287	58.00
2.78953	58.00
2.80620	58.00
2.82287	58.00
2.83953	58.00
2.85620	58.00
2.87287	58.00
2.88953	58.00
2.90620	58.00
2.92287	58.00
2.93953	58.00
2.95620	58.00
2.97287	58.00
2.98953	58.00
3.00620	58.00
3.02287	58.00
3.03953	58.00
3.05620	58.00
3.07287	58.00
3.08953	58.00
3.10620	58.00
3.12287	58.00
3.13953	58.00
3.15620	58.00
3.17287	58.00
3.18953	58.00
3.20620	58.00
3.22287	58.00
3.23953	58.00
3.25620	58.00
3.27287	58.00
3.28953	58.00
3.30620	58.00
3.32287	58.00
3.33953	58.00
3.35620	58.00
3.37287	58.00
3.38953	58.00
3.40620	58.00
3.42287	58.00
3.43953	58.00
3.45620	58.00
3.47287	58.00
3.48953	58.00
3.50620	58.00
3.52287	58.00
3.53953	58.00
3.55620	58.00
3.57287	58.00
3.58953	58.00
3.60620	58.00
3.62287	58.00
3.63953	58.00
3.65620	58.00
3.67287	58.00
3.68953	58.00
3.70620	58.00
3.72287	58.00
3.73953	58.00
3.75620	58.00
3.77287	58.00
3.78953	58.00
3.80620	58.00
3.82287	58.00
3.83953	58.00
3.85620	58.00
3.87287	58.00
3.88953	58.00
3.90620	58.00
3.92287	58.00
3.93953	58.00
3.95620	58.00
3.97287	58.00
3.98953	58.00

[Status Trace (Carrier Gas Flow)]
Interval(msec)	1000
# of Points	240
Start Time(min)	0.006
End Time(min)	3.990
Intensity Units	
Intensity Multiplier	1
R.Time (min)	Intensity
0.00620	34.52
0.02287	34.54
0.03953	34.54
0.05620	34.55
0.07287	34.50
0.08953	34.51
0.10620	34.52
0.12287	34.52
0.13953	34.52
0.15620	34.52
0.17287	34.52
0.18953	34.52
0.20620	34.53
0.22287	34.51
0.23953	34.52
0.25620	34.52
0.27287	34.52
0.28953	34.51
0.30620	34.52
0.32287	34.52
0.33953	34.52
0.35620	34.52
0.37287	34.52
0.38953	34.52
0.40620	34.52
0.42287	34.51
0.43953	34.52
0.45620	34.52
0.47287	34.52
0.48953	34.52
0.50620	34.52
0.52287	34.51
0.53953	34.52
0.55620	34.52
0.57287	34.52
0.58953	34.52
0.60620	34.53
0.62287	34.52
0.63953	34.52
0.65620	34.52
0.67287	34.52
0.68953	34.52
0.70620	34.52
0.72287	34.52
0.73953	34.52
0.75620	34.52
0.77287	34.52
0.78953	34.52
0.80620	34.52
0.82287	34.52
0.83953	34.51
0.85620	34.52
0.87287	34.52
0.88953	34.52
0.90620	34.52
0.92287	34.52
0.93953	34.52
0.95620	34.52
0.97287	34.52
0.98953	34.52
1.00620	34.52
1.02287	34.52
1.03953	34.52
1.05620	34.52
1.07287	34.52
1.08953	34.51
1.10620	34.52
1.12287	34.52
1.13953	34.52
1.15620	34.52
1.17287	34.52
1.18953	34.52
1.20620	34.52
1.22287	34.52
1.23953	34.52
1.25620	34.52
1.27287	34.51
1.28953	34.52
1.30620	34.52
1.32287	34.52
1.33953	34.52
1.35620	34.51
1.37287	34.52
1.38953	34.52
1.40620	34.52
1.42287	34.51
1.43953	34.52
1.45620	34.52
1.47287	34.52
1.48953	34.52
1.50620	34.52
1.52287	34.52
1.53953	34.52
1.55620	34.52
1.57287	34.52
1.58953	34.52
1.60620	34.52
1.62287	34.52
1.63953	34.52
1.65620	34.52
1.67287	34.52
1.68953	34.52
1.70620	34.52
1.72287	34.52
1.73953	34.52
1.75620	34.52
1.77287	34.52
1.78953	34.52
1.80620	34.52
1.82287	34.51
1.83953	34.52
1.85620	34.52
1.87287	34.52
1.88953	34.52
1.90620	34.51
1.92287	34.52
1.93953	34.52
1.95620	34.52
1.97287	34.52
1.98953	34.52
2.00620	34.52
2.02287	34.52
2.03953	34.52
2.05620	34.52
2.07287	34.52
2.08953	34.51
2.10620	34.52
2.12287	34.52
2.13953	34.52
2.15620	34.52
2.17287	34.52
2.18953	34.52
2.20620	34.52
2.22287	34.51
2.23953	34.52
2.25620	34.52
2.27287	34.52
2.28953	34.52
2.30620	34.52
2.32287	34.52
2.33953	34.52
2.35620	34.52
2.37287	34.52
2.38953	34.52
2.40620	34.53
2.42287	34.52
2.43953	34.52
2.45620	34.52
2.47287	34.51
2.48953	34.52
2.50620	34.41
2.52287	34.52
2.53953	34.52
2.55620	34.52
2.57287	34.53
2.58953	34.52
2.60620	34.51
2.62287	34.52
2.63953	34.52
2.65620	34.53
2.67287	34.51
2.68953	34.52
2.70620	34.52
2.72287	34.52
2.73953	34.52
2.75620	34.51
2.77287	34.52
2.78953	34.53
2.80620	34.52
2.82287	34.52
2.83953	34.52
2.85620	34.52
2.87287	34.52
2.88953	34.52
2.90620	34.52
2.92287	34.52
2.93953	34.52
2.95620	34.52
2.97287	34.52
2.98953	34.52
3.00620	34.52
3.02287	34.52
3.03953	34.52
3.05620	34.52
3.07287	34.52
3.08953	34.52
3.10620	34.52
3.12287	34.52
3.13953	34.52
3.15620	34.52
3.17287	34.52
3.18953	34.52
3.20620	34.52
3.22287	34.52
3.23953	34.51
3.25620	34.52
3.27287	34.52
3.28953	34.52
3.30620	34.52
3.32287	34.52
3.33953	34.52
3.35620	34.52
3.37287	34.52
3.38953	34.52
3.40620	34.52
3.42287	34.52
3.43953	34.52
3.45620	34.52
3.47287	34.52
3.48953	34.52
3.50620	34.52
3.52287	34.52
3.53953	34.52
3.55620	34.53
3.57287	34.52
3.58953	34.52
3.60620	34.52
3.62287	34.52
3.63953	34.52
3.65620	34.52
3.67287	34.52
3.68953	34.52
3.70620	34.52
3.72287	34.52
3.73953	34.53
3.75620	34.52
3.77287	34.52
3.78953	34.52
3.80620	34.52
3.82287	34.52
3.83953	34.52
3.85620	34.52
3.87287	34.52
3.88953	34.52
3.90620	34.52
3.92287	34.52
3.93953	34.52
3.95620	34.52
3.97287	34.52
3.98953	34.52

[Status Trace (Column Flow)]
Interval(msec)	1000
# of Points	240
Start Time(min)	0.006
End Time(min)	3.990
Intensity Units	
Intensity Multiplier	1
R.Time (min)	Intensity
0.00620	5.55
0.02287	5.28
0.03953	5.42
0.05620	5.68
0.07287	5.74
0.08953	5.56
0.10620	5.55
0.12287	5.55
0.13953	5.55
0.15620	5.55
0.17287	5.55
0.18953	5.55
0.20620	5.55
0.22287	5.55
0.23953	5.55
0.25620	5.55
0.27287	5.55
0.28953	5.55
0.30620	5.55
0.32287	5.55
0.33953	5.55
0.35620	5.55
0.37287	5.55
0.38953	5.55
0.40620	5.55
0.42287	5.55
0.43953	5.55
0.45620	5.55
0.47287	5.55
0.48953	5.55
0.50620	5.55
0.52287	5.55
0.53953	5.55
0.55620	5.55
0.57287	5.55
0.58953	5.55
0.60620	5.55
0.62287	5.55
0.63953	5.55
0.65620	5.55
0.67287	5.55
0.68953	5.55
0.70620	5.55
0.72287	5.55
0.73953	5.55
0.75620	5.55
0.77287	5.55
0.78953	5.55
0.80620	5.55
0.82287	5.55
0.83953	5.55
0.85620	5.55
0.87287	5.55
0.88953	5.55
0.90620	5.55
0.92287	5.55
0.93953	5.55
0.95620	5.55
0.97287	5.55
0.98953	5.55
1.00620	5.55
1.02287	5.55
1.03953	5.55
1.05620	5.55
1.07287	5.55
1.08953	5.55
1.10620	5.55
1.12287	5.55
1.13953	5.55
1.15620	5.55
1.17287	5.55
1.18953	5.55
1.20620	5.55
1.22287	5.55
1.23953	5.55
1.25620	5.55
1.27287	5.55
1.28953	5.55
1.30620	5.55
1.32287	5.55
1.33953	5.55
1.35620	5.55
1.37287	5.55
1.38953	5.55
1.40620	5.55
1.42287	5.55
1.43953	5.55
1.45620	5.55
1.47287	5.55
1.48953	5.55
1.50620	5.55
1.52287	5.55
1.53953	5.55
1.55620	5.55
1.57287	5.55
1.58953	5.55
1.60620	5.55
1.62287	5.55
1.63953	5.54
1.65620	5.53
1.67287	5.52
1.68953	5.51
1.70620	5.50
1.72287	5.49
1.73953	5.48
1.75620	5.47
1.77287	5.46
1.78953	5.45
1.80620	5.44
1.82287	5.43
1.83953	5.42
1.85620	5.41
1.87287	5.40
1.88953	5.39
1.90620	5.38
1.92287	5.37
1.93953	5.36
1.95620	5.35
1.97287	5.34
1.98953	5.33
2.00620	5.32
2.02287	5.31
2.03953	5.30
2.05620	5.29
2.07287	5.28
2.08953	5.27
2.10620	5.26
2.12287	5.25
2.13953	5.24
2.15620	5.23
2.17287	5.22
2.18953	5.21
2.20620	5.20
2.22287	5.19
2.23953	5.19
2.25620	5.18
2.27287	5.17
2.28953	5.16
2.30620	5.15
2.32287	5.14
2.33953	5.13
2.35620	5.12
2.37287	5.12
2.38953	5.11
2.40620	5.11
2.42287	5.11
2.43953	5.11
2.45620	5.11
2.47287	5.11
2.48953	5.11
2.50620	5.11
2.52287	5.11
2.53953	5.11
2.55620	5.11
2.57287	5.11
2.58953	5.11
2.60620	5.11
2.62287	5.11
2.63953	5.11
2.65620	5.11
2.67287	5.11
2.68953	5.11
2.70620	5.11
2.72287	5.11
2.73953	5.11
2.75620	5.11
2.77287	5.11
2.78953	5.11
2.80620	5.11
2.82287	5.11
2.83953	5.11
2.85620	5.11
2.87287	5.11
2.88953	5.11
2.90620	5.11
2.92287	5.11
2.93953	5.11
2.95620	5.11
2.97287	5.11
2.98953	5.11
3.00620	5.10
3.02287	5.10
3.03953	5.10
3.05620	5.10
3.07287	5.10
3.08953	5.10
3.10620	5.10
3.12287	5.10
3.13953	5.10
3.15620	5.10
3.17287	5.10
3.18953	5.10
3.20620	5.10
3.22287	5.10
3.23953	5.10
3.25620	5.10
3.27287	5.10
3.28953	5.10
3.30620	5.10
3.32287	5.10
3.33953	5.10
3.35620	5.10
3.37287	5.10
3.38953	5.10
3.40620	5.10
3.42287	5.10
3.43953	5.10
3.45620	5.10
3.47287	5.10
3.48953	5.10
3.50620	5.10
3.52287	5.10
3.53953	5.10
3.55620	5.10
3.57287	5.10
3.58953	5.10
3.60620	5.10
3.62287	5.10
3.63953	5.10
3.65620	5.10
3.67287	5.10
3.68953	5.10
3.70620	5.10
3.72287	5.10
3.73953	5.10
3.75620	5.10
3.77287	5.10
3.78953	5.10
3.80620	5.10
3.82287	5.10
3.83953	5.10
3.85620	5.10
3.87287	5.10
3.88953	5.10
3.90620	5.10
3.92287	5.10
3.93953	5.10
3.95620	5.10
3.97287	5.10
3.98953	5.10

[Status Trace (Linear Velocity)]
Interval(msec)	1000
# of Points	240
Start Time(min)	0.006
End Time(min)	3.990
Intensity Units	
Intensity Multiplier	1
R.Time (min)	Intensity
0.00620	39.02
0.02287	37.51
0.03953	38.29
0.05620	39.74
0.07287	40.08
0.08953	39.09
0.10620	39.00
0.12287	39.03
0.13953	39.03
0.15620	39.02
0.17287	39.02
0.18953	39.02
0.20620	39.02
0.22287	39.02
0.23953	39.02
0.25620	39.02
0.27287	39.03
0.28953	39.03
0.30620	39.03
0.32287	39.03
0.33953	39.03
0.35620	39.02
0.37287	39.02
0.38953	39.02
0.40620	39.02
0.42287	39.02
0.43953	39.02
0.45620	39.02
0.47287	39.02
0.48953	39.02
0.50620	39.02
0.52287	39.02
0.53953	39.02
0.55620	39.02
0.57287	39.02
0.58953	39.02
0.60620	39.02
0.62287	39.02
0.63953	39.02
0.65620	39.02
0.67287	39.02
0.68953	39.02
0.70620	39.02
0.72287	39.02
0.73953	39.02
0.75620	39.02
0.77287	39.02
0.78953	39.03
0.80620	39.02
0.82287	39.02
0.83953	39.02
0.85620	39.02
0.87287	39.02
0.88953	39.02
0.90620	39.02
0.92287	39.02
0.93953	39.02
0.95620	39.02
0.97287	39.02
0.98953	39.02
1.00620	39.02
1.02287	39.02
1.03953	39.02
1.05620	39.02
1.07287	39.02
1.08953	39.03
1.10620	39.03
1.12287	39.02
1.13953	39.02
1.15620	39.02
1.17287	39.03
1.18953	39.02
1.20620	39.02
1.22287	39.02
1.23953	39.02
1.25620	39.03
1.27287	39.03
1.28953	39.03
1.30620	39.03
1.32287	39.03
1.33953	39.03
1.35620	39.03
1.37287	39.03
1.38953	39.02
1.40620	39.02
1.42287	39.02
1.43953	39.02
1.45620	39.02
1.47287	39.02
1.48953	39.02
1.50620	39.02
1.52287	39.02
1.53953	39.02
1.55620	39.02
1.57287	39.02
1.58953	39.02
1.60620	39.02
1.62287	39.01
1.63953	38.99
1.65620	38.97
1.67287	38.94
1.68953	38.90
1.70620	38.87
1.72287	38.83
1.73953	38.80
1.75620	38.77
1.77287	38.74
1.78953	38.71
1.80620	38.68
1.82287	38.65
1.83953	38.62
1.85620	38.58
1.87287	38.55
1.88953	38.52
1.90620	38.49
1.92287	38.46
1.93953	38.43
1.95620	38.40
1.97287	38.37
1.98953	38.34
2.00620	38.31
2.02287	38.28
2.03953	38.25
2.05620	38.23
2.07287	38.19
2.08953	38.16
2.10620	38.13
2.12287	38.10
2.13953	38.07
2.15620	38.05
2.17287	38.02
2.18953	37.99
2.20620	37.96
2.22287	37.92
2.23953	37.89
2.25620	37.87
2.27287	37.84
2.28953	37.80
2.30620	37.77
2.32287	37.75
2.33953	37.72
2.35620	37.69
2.37287	37.67
2.38953	37.67
2.40620	37.67
2.42287	37.67
2.43953	37.67
2.45620	37.67
2.47287	37.66
2.48953	37.66
2.50620	37.66
2.52287	37.65
2.53953	37.66
2.55620	37.66
2.57287	37.66
2.58953	37.66
2.60620	37.65
2.62287	37.65
2.63953	37.66
2.65620	37.65
2.67287	37.65
2.68953	37.65
2.70620	37.65
2.72287	37.65
2.73953	37.65
2.75620	37.65
2.77287	37.65
2.78953	37.65
2.80620	37.65
2.82287	37.65
2.83953	37.65
2.85620	37.65
2.87287	37.65
2.88953	37.65
2.90620	37.65
2.92287	37.65
2.93953	37.65
2.95620	37.65
2.97287	37.64
2.98953	37.64
3.00620	37.64
3.02287	37.64
3.03953	37.64
3.05620	37.64
3.07287	37.64
3.08953	37.64
3.10620	37.64
3.12287	37.64
3.13953	37.63
3.15620	37.63
3.17287	37.63
3.18953	37.63
3.20620	37.63
3.22287	37.63
3.23953	37.63
3.25620	37.63
3.27287	37.63
3.28953	37.63
3.30620	37.63
3.32287	37.63
3.33953	37.63
3.35620	37.63
3.37287	37.63
3.38953	37.63
3.40620	37.63
3.42287	37.64
3.43953	37.64
3.45620	37.63
3.47287	37.63
3.48953	37.63
3.50620	37.64
3.52287	37.64
3.53953	37.64
3.55620	37.64
3.57287	37.64
3.58953	37.64
3.60620	37.64
3.62287	37.64
3.63953	37.64
3.65620	37.64
3.67287	37.63
3.68953	37.63
3.70620	37.63
3.72287	37.63
3.73953	37.63
3.75620	37.63
3.77287	37.63
3.78953	37.64
3.80620	37.63
3.82287	37.63
3.83953	37.63
3.85620	37.63
3.87287	37.63
3.88953	37.63
3.90620	37.63
3.92287	37.63
3.93953	37.63
3.95620	37.63
3.97287	37.63
3.98953	37.63

