[Header]
Application Name	LabSolutions
Version	5.110
Data File Name	C:\Users\User\Desktop\GC Analyses\Jack\Nachusa Grasslands Sampling\T4 Timepoint July 12th\T4_07122022_004.gcd
Output Date	3/17/2023
Output Time	12:04:50 PM

[File Information]
Type	Data File
Generated	3/14/2023 3:43:51 PM
Generated by	System Administrator
Modified	3/14/2023 3:50:24 PM
Modified by	System Administrator

[Sample Information]
Operator Name	System Administrator
Acquired	3/14/2023 3:46:23 PM
Sample Type	0:Unknown
Level	0
Sample Name	004
Sample ID	004
ISTD Amount1	1
ISTD Amount2	1
ISTD Amount3	1
ISTD Amount4	1
ISTD Amount5	1
ISTD Amount6	1
ISTD Amount7	1
ISTD Amount8	1
ISTD Amount9	1
ISTD Amount10	1
ISTD Amount11	1
ISTD Amount12	1
ISTD Amount13	1
ISTD Amount14	1
ISTD Amount15	1
ISTD Amount16	1
ISTD Amount17	1
ISTD Amount18	1
ISTD Amount19	1
ISTD Amount20	1
ISTD Amount21	1
ISTD Amount22	1
ISTD Amount23	1
ISTD Amount24	1
ISTD Amount25	1
ISTD Amount26	1
ISTD Amount27	1
ISTD Amount28	1
ISTD Amount29	1
ISTD Amount30	1
ISTD Amount31	1
ISTD Amount32	1
Sample Amount	1
Dilution Factor	1
Vial#	3
Injection Volume	1
Injection Count	1
Bar Code	

[Original Files]
Data File	C:\Users\User\Desktop\GC Analyses\Jack\Nachusa Grasslands Sampling\T4 Timepoint July 12th\T4_07122022_004.gcd
Method File	C:\LabSolutions\Data\GHG_4min_2022\ghg3_togas_w_acet_4 min_new_int.gcm
Batch File	C:\LabSolutions\Data\AutoSamplerTesting\T4_07122022.gcb
Report Format File	c:\LabSolutions\System\DEFAULT.lsr

[File Description]


[Configuration]
Instrument Name	C0B7VH3-Instrument1
Instrument #	1
Line #	1
# of Detectors	3
Detector ID	DET#1	DET#2	DET#3
Detector Name	FID	PTCD	ECD
# of Channels	1	1	1

[Peak Table(Ch1)]
# of Peaks	4
Peak#	R.Time	I.Time	F.Time	Area	Height	A/H	Conc.	Mark	ID#	Name	k'	Plate #	Plate Ht.	Tailing	Resolution	Sep.Factor	Area Ratio	Height Ratio	Conc. %	Norm Conc.
1	1.461	1.443	1.509	1034	425	2.432	7.298	   	1	CO	0.000	8537	17.571	1.781	0.000	0.000	0	0	0.811	0.811
2	1.571	1.538	1.622	19103	9765	1.956	369.371	   	2	CH4	0.075	11618	12.911	1.142	1.810	0.000	0	0	41.025	41.025
3	2.000	1.952	2.330	2086646	1000404	2.086	523.692	   	3	CO2	0.369	17408	8.617	1.194	7.214	4.900	0	0	58.165	58.165
4	3.536	3.470	3.562	139	57	2.460	0.000	   	6	Ethane	1.420	105823	1.417	0.682	29.512	3.850	0	0	0.000	0.000

[Peak Table(Ch2)]
# of Peaks	0

[Peak Table(Ch3)]
# of Peaks	4
Peak#	R.Time	I.Time	F.Time	Area	Height	A/H	Conc.	Mark	ID#	Name	k'	Plate #	Plate Ht.	Tailing	Resolution	Sep.Factor	Area Ratio	Height Ratio	Conc. %	Norm Conc.
1	2.462	2.315	2.510	2062	618	3.337	0.000	   			0.000	8816	17.014	0.000	0.000	0.000	0	0	0.000	0.000
2	2.532	2.510	2.689	1836	372	4.938	0.000	 V 			0.028	4748	31.593	0.000	0.553	0.000	0	0	0.000	0.000
3	2.880	2.796	3.111	55031	14359	3.833	1.406	   	1	N2O	0.170	12698	11.813	1.566	2.796	6.000	0	0	100.000	100.000
4	3.448	3.269	3.621	440	39	11.308	0.000	   	2	SF6	0.401	1962	76.460	0.961	2.748	2.360	0	0	0.000	0.000

[Compound Results(Ch1)]
# of IDs	6
ID#	Name	R.Time	Area	Height	Conc.	Curve	3rd	2nd	1st	Constant	Area Ratio	Height Ratio	Conc. %	Norm Conc.
1	CO	1.461	1034	425	7.298	Linear	0.000000e+00	0.000000e+00	1.416423e+002	0.000000e+00	0	0	0.811	0.811
2	CH4	1.571	19103	9765	369.371	Linear	0.000000e+00	0.000000e+00	5.171738e+001	0.000000e+00	0	0	41.025	41.025
3	CO2	2.000	2086646	1000404	523.692	Linear	0.000000e+00	0.000000e+00	3.984494e+003	0.000000e+00	0	0	58.165	58.165
4	Ethylene	0.000	0	0	0.000	Linear	0.000000e+00	0.000000e+00	0.000000e+00	0.000000e+00	0	0	0.000	0.000
5	Acetylene	0.000	0	0	0.000	Linear	0.000000e+00	0.000000e+00	0.000000e+00	0.000000e+00	0	0	0.000	0.000
6	Ethane	3.536	139	57	0.000	Linear	0.000000e+00	0.000000e+00	0.000000e+00	0.000000e+00	0	0	0.000	0.000

[Compound Results(Ch2)]
# of IDs	5
ID#	Name	R.Time	Area	Height	Conc.	Curve	3rd	2nd	1st	Constant	Area Ratio	Height Ratio	Conc. %	Norm Conc.
1	Hydrogen	0.000	0	0	0.000	Linear	0.000000e+00	0.000000e+00	0.000000e+00	0.000000e+00	0	0	0.000	0.000
2	Oxygen	0.000	0	0	0.000	Linear	0.000000e+00	0.000000e+00	0.000000e+00	0.000000e+00	0	0	0.000	0.000
3	Nitrogen	0.000	0	0	0.000	Linear	0.000000e+00	0.000000e+00	0.000000e+00	0.000000e+00	0	0	0.000	0.000
4	Methane	0.000	0	0	0.000	Linear	0.000000e+00	0.000000e+00	0.000000e+00	0.000000e+00	0	0	0.000	0.000
5	Carbon Monoxide	0.000	0	0	0.000	Linear	0.000000e+00	0.000000e+00	0.000000e+00	0.000000e+00	0	0	0.000	0.000

[Compound Results(Ch3)]
# of IDs	2
ID#	Name	R.Time	Area	Height	Conc.	Curve	3rd	2nd	1st	Constant	Area Ratio	Height Ratio	Conc. %	Norm Conc.
1	N2O	2.880	55031	14359	1.406	Linear	0.000000e+00	0.000000e+00	3.915173e+004	0.000000e+00	0	0	100.000	100.000
2	SF6	3.448	440	39	0.000	Linear	0.000000e+00	0.000000e+00	0.000000e+00	0.000000e+00	0	0	0.000	0.000

[Group Results(Ch1)]
# of Groups	0

[Group Results(Ch2)]
# of Groups	0

[Group Results(Ch3)]
# of Groups	0

[Chromatogram (Ch1)]
Interval(msec)	220
# of Points	1091
Start Time(min)	0.002
End Time(min)	3.998
R.Time (min)	Intensity
0.00167	-4
0.00533	-4
0.00900	-2
0.01267	-5
0.01633	-7
0.02000	-1
0.02367	9
0.02733	17
0.03100	22
0.03467	25
0.03833	23
0.04200	13
0.04567	5
0.04933	1
0.05300	5
0.05667	9
0.06033	11
0.06400	13
0.06767	12
0.07133	10
0.07500	7
0.07867	2
0.08233	-6
0.08600	-10
0.08967	-10
0.09333	-7
0.09700	-2
0.10067	1
0.10433	3
0.10800	3
0.11167	4
0.11533	4
0.11900	8
0.12267	15
0.12633	23
0.13000	23
0.13367	19
0.13733	21
0.14100	26
0.14467	35
0.14833	43
0.15200	48
0.15567	43
0.15933	31
0.16300	15
0.16667	-0
0.17033	-10
0.17400	-14
0.17767	-18
0.18133	-24
0.18500	-29
0.18867	-28
0.19233	-24
0.19600	-20
0.19967	-14
0.20333	-9
0.20700	-1
0.21067	9
0.21433	15
0.21800	11
0.22167	-1
0.22533	-9
0.22900	-15
0.23267	-20
0.23633	-21
0.24000	-16
0.24367	-11
0.24733	-10
0.25100	-14
0.25467	-17
0.25833	-16
0.26200	-11
0.26567	-6
0.26933	1
0.27300	10
0.27667	15
0.28033	21
0.28400	23
0.28767	17
0.29133	9
0.29500	3
0.29867	-3
0.30233	-7
0.30600	-10
0.30967	-9
0.31333	-5
0.31700	2
0.32067	13
0.32433	25
0.32800	34
0.33167	35
0.33533	33
0.33900	30
0.34267	23
0.34633	14
0.35000	8
0.35367	2
0.35733	-2
0.36100	-1
0.36467	-3
0.36833	-8
0.37200	-5
0.37567	1
0.37933	4
0.38300	7
0.38667	11
0.39033	15
0.39400	17
0.39767	12
0.40133	9
0.40500	13
0.40867	13
0.41233	11
0.41600	14
0.41967	18
0.42333	20
0.42700	19
0.43067	14
0.43433	8
0.43800	6
0.44167	5
0.44533	0
0.44900	-0
0.45267	1
0.45633	5
0.46000	5
0.46367	0
0.46733	-3
0.47100	-5
0.47467	-4
0.47833	-5
0.48200	1
0.48567	7
0.48933	11
0.49300	11
0.49667	7
0.50033	8
0.50400	14
0.50767	21
0.51133	28
0.51500	27
0.51867	15
0.52233	-2
0.52600	-18
0.52967	-28
0.53333	-27
0.53700	-20
0.54067	-8
0.54433	-2
0.54800	-1
0.55167	-3
0.55533	-10
0.55900	-21
0.56267	-29
0.56633	-31
0.57000	-30
0.57367	-22
0.57733	-11
0.58100	-4
0.58467	-4
0.58833	-8
0.59200	-7
0.59567	1
0.59933	5
0.60300	6
0.60667	7
0.61033	6
0.61400	4
0.61767	-0
0.62133	-0
0.62500	6
0.62867	11
0.63233	14
0.63600	13
0.63967	11
0.64333	8
0.64700	10
0.65067	16
0.65433	19
0.65800	15
0.66167	11
0.66533	1
0.66900	-11
0.67267	-17
0.67633	-17
0.68000	-11
0.68367	-5
0.68733	-4
0.69100	-5
0.69467	-4
0.69833	-4
0.70200	-1
0.70567	7
0.70933	16
0.71300	20
0.71667	17
0.72033	4
0.72400	-6
0.72767	-10
0.73133	-13
0.73500	-18
0.73867	-24
0.74233	-24
0.74600	-21
0.74967	-22
0.75333	-21
0.75700	-19
0.76067	-14
0.76433	-8
0.76800	-5
0.77167	-3
0.77533	-4
0.77900	-6
0.78267	-5
0.78633	-0
0.79000	5
0.79367	9
0.79733	11
0.80100	15
0.80467	22
0.80833	23
0.81200	18
0.81567	10
0.81933	8
0.82300	10
0.82667	9
0.83033	3
0.83400	-3
0.83767	-6
0.84133	-10
0.84500	-16
0.84867	-20
0.85233	-21
0.85600	-17
0.85967	-9
0.86333	-2
0.86700	1
0.87067	1
0.87433	1
0.87800	1
0.88167	-1
0.88533	-4
0.88900	-4
0.89267	-1
0.89633	-1
0.90000	-1
0.90367	1
0.90733	-1
0.91100	-4
0.91467	-5
0.91833	-6
0.92200	-9
0.92567	-14
0.92933	-19
0.93300	-22
0.93667	-23
0.94033	-20
0.94400	-15
0.94767	-12
0.95133	-8
0.95500	-6
0.95867	-2
0.96233	3
0.96600	3
0.96967	1
0.97333	0
0.97700	-4
0.98067	-10
0.98433	-12
0.98800	-13
0.99167	-24
0.99533	-28
0.99900	-23
1.00267	-14
1.00633	-7
1.01000	-7
1.01367	-15
1.01733	-22
1.02100	-22
1.02467	-16
1.02833	-12
1.03200	-17
1.03567	-28
1.03933	-36
1.04300	-39
1.04667	-34
1.05033	-24
1.05400	-14
1.05767	-10
1.06133	-12
1.06500	-14
1.06867	-14
1.07233	-13
1.07600	-7
1.07967	3
1.08333	11
1.08700	15
1.09067	15
1.09433	4
1.09800	-10
1.10167	-17
1.10533	-16
1.10900	-14
1.11267	-10
1.11633	0
1.12000	10
1.12367	12
1.12733	5
1.13100	-3
1.13467	-7
1.13833	-13
1.14200	-21
1.14567	-31
1.14933	-38
1.15300	-46
1.15667	-52
1.16033	-54
1.16400	-54
1.16767	-48
1.17133	-37
1.17500	-31
1.17867	-29
1.18233	-26
1.18600	-22
1.18967	-15
1.19333	-0
1.19700	15
1.20067	20
1.20433	9
1.20800	-9
1.21167	-26
1.21533	-39
1.21900	-46
1.22267	-48
1.22633	-51
1.23000	-55
1.23367	-57
1.23733	-60
1.24100	-58
1.24467	-55
1.24833	-51
1.25200	-47
1.25567	-38
1.25933	-25
1.26300	-12
1.26667	-4
1.27033	-2
1.27400	-2
1.27767	1
1.28133	2
1.28500	-2
1.28867	-10
1.29233	-17
1.29600	-19
1.29967	-24
1.30333	-30
1.30700	-37
1.31067	-41
1.31433	-45
1.31800	-48
1.32167	-46
1.32533	-44
1.32900	-42
1.33267	-40
1.33633	-38
1.34000	-32
1.34367	-24
1.34733	-22
1.35100	-24
1.35467	-26
1.35833	-26
1.36200	-18
1.36567	-9
1.36933	-2
1.37300	4
1.37667	3
1.38033	-9
1.38400	-28
1.38767	-46
1.39133	-58
1.39500	-61
1.39867	-60
1.40233	-62
1.40600	-58
1.40967	-52
1.41333	-46
1.41700	-35
1.42067	-22
1.42433	-9
1.42800	4
1.43167	14
1.43533	12
1.43900	9
1.44267	27
1.44633	113
1.45000	254
1.45367	360
1.45733	401
1.46100	391
1.46467	351
1.46833	302
1.47200	267
1.47567	255
1.47933	254
1.48300	234
1.48667	190
1.49033	128
1.49400	53
1.49767	-24
1.50133	-96
1.50500	-153
1.50867	-194
1.51233	-220
1.51600	-235
1.51967	-243
1.52333	-249
1.52700	-253
1.53067	-258
1.53433	-255
1.53800	-212
1.54167	-5
1.54533	621
1.54900	1878
1.55267	3661
1.55633	5591
1.56000	7309
1.56367	8626
1.56733	9442
1.57100	9636
1.57467	9101
1.57833	7914
1.58200	6361
1.58567	4780
1.58933	3407
1.59300	2329
1.59667	1538
1.60033	983
1.60400	611
1.60767	366
1.61133	207
1.61500	103
1.61867	39
1.62233	0
1.62600	-26
1.62967	-48
1.63333	-60
1.63700	-61
1.64067	-62
1.64433	-65
1.64800	-70
1.65167	-76
1.65533	-81
1.65900	-80
1.66267	-76
1.66633	-76
1.67000	-79
1.67367	-81
1.67733	-80
1.68100	-79
1.68467	-77
1.68833	-76
1.69200	-78
1.69567	-79
1.69933	-76
1.70300	-75
1.70667	-78
1.71033	-80
1.71400	-81
1.71767	-86
1.72133	-88
1.72500	-85
1.72867	-81
1.73233	-75
1.73600	-69
1.73967	-67
1.74333	-67
1.74700	-69
1.75067	-71
1.75433	-71
1.75800	-72
1.76167	-74
1.76533	-76
1.76900	-74
1.77267	-77
1.77633	-84
1.78000	-89
1.78367	-93
1.78733	-92
1.79100	-87
1.79467	-79
1.79833	-72
1.80200	-76
1.80567	-87
1.80933	-99
1.81300	-105
1.81667	-103
1.82033	-97
1.82400	-87
1.82767	-80
1.83133	-75
1.83500	-73
1.83867	-69
1.84233	-62
1.84600	-56
1.84967	-59
1.85333	-63
1.85700	-64
1.86067	-62
1.86433	-56
1.86800	-50
1.87167	-50
1.87533	-57
1.87900	-69
1.88267	-86
1.88633	-100
1.89000	-106
1.89367	-107
1.89733	-103
1.90100	-97
1.90467	-94
1.90833	-96
1.91200	-92
1.91567	-84
1.91933	-74
1.92300	-64
1.92667	-53
1.93033	-43
1.93400	-33
1.93767	-25
1.94133	-23
1.94500	-31
1.94867	-45
1.95233	-55
1.95600	1
1.95967	459
1.96333	2849
1.96700	12251
1.97067	40449
1.97433	105704
1.97800	223045
1.98167	389538
1.98533	580884
1.98900	762717
1.99267	904929
1.99633	987388
2.00000	1000376
2.00367	945491
2.00733	835896
2.01100	694213
2.01467	545316
2.01833	408870
2.02200	295706
2.02567	208486
2.02933	144720
2.03300	99783
2.03667	68878
2.04033	47934
2.04400	33840
2.04767	24362
2.05133	17951
2.05500	13576
2.05867	10544
2.06233	8403
2.06600	6859
2.06967	5719
2.07333	4859
2.07700	4192
2.08067	3658
2.08433	3226
2.08800	2878
2.09167	2593
2.09533	2353
2.09900	2149
2.10267	1977
2.10633	1833
2.11000	1707
2.11367	1589
2.11733	1474
2.12100	1365
2.12467	1271
2.12833	1191
2.13200	1115
2.13567	1045
2.13933	986
2.14300	933
2.14667	883
2.15033	837
2.15400	794
2.15767	759
2.16133	736
2.16500	713
2.16867	688
2.17233	661
2.17600	638
2.17967	617
2.18333	592
2.18700	564
2.19067	540
2.19433	515
2.19800	490
2.20167	469
2.20533	452
2.20900	436
2.21267	424
2.21633	415
2.22000	407
2.22367	396
2.22733	384
2.23100	374
2.23467	368
2.23833	364
2.24200	359
2.24567	353
2.24933	343
2.25300	325
2.25667	310
2.26033	296
2.26400	286
2.26767	279
2.27133	271
2.27500	258
2.27867	243
2.28233	239
2.28600	250
2.28967	253
2.29333	252
2.29700	250
2.30067	248
2.30433	242
2.30800	229
2.31167	215
2.31533	202
2.31900	190
2.32267	180
2.32633	171
2.33000	163
2.33367	154
2.33733	144
2.34100	136
2.34467	138
2.34833	146
2.35200	153
2.35567	154
2.35933	152
2.36300	155
2.36667	164
2.37033	172
2.37400	173
2.37767	168
2.38133	160
2.38500	154
2.38867	156
2.39233	158
2.39600	154
2.39967	151
2.40333	153
2.40700	162
2.41067	176
2.41433	185
2.41800	178
2.42167	162
2.42533	141
2.42900	124
2.43267	112
2.43633	107
2.44000	105
2.44367	111
2.44733	129
2.45100	146
2.45467	154
2.45833	156
2.46200	153
2.46567	144
2.46933	126
2.47300	114
2.47667	108
2.48033	105
2.48400	102
2.48767	104
2.49133	110
2.49500	112
2.49867	111
2.50233	112
2.50600	116
2.50967	122
2.51333	130
2.51700	136
2.52067	136
2.52433	135
2.52800	137
2.53167	145
2.53533	149
2.53900	150
2.54267	146
2.54633	142
2.55000	142
2.55367	145
2.55733	150
2.56100	152
2.56467	154
2.56833	157
2.57200	159
2.57567	159
2.57933	160
2.58300	162
2.58667	164
2.59033	160
2.59400	153
2.59767	153
2.60133	157
2.60500	164
2.60867	172
2.61233	174
2.61600	172
2.61967	170
2.62333	165
2.62700	159
2.63067	163
2.63433	167
2.63800	167
2.64167	170
2.64533	177
2.64900	187
2.65267	194
2.65633	192
2.66000	182
2.66367	179
2.66733	179
2.67100	178
2.67467	174
2.67833	173
2.68200	170
2.68567	166
2.68933	162
2.69300	159
2.69667	155
2.70033	150
2.70400	146
2.70767	144
2.71133	147
2.71500	151
2.71867	151
2.72233	152
2.72600	157
2.72967	160
2.73333	162
2.73700	168
2.74067	172
2.74433	170
2.74800	169
2.75167	173
2.75533	178
2.75900	183
2.76267	185
2.76633	185
2.77000	185
2.77367	189
2.77733	192
2.78100	195
2.78467	196
2.78833	187
2.79200	176
2.79567	169
2.79933	168
2.80300	168
2.80667	170
2.81033	172
2.81400	173
2.81767	178
2.82133	185
2.82500	193
2.82867	203
2.83233	214
2.83600	217
2.83967	208
2.84333	203
2.84700	203
2.85067	204
2.85433	208
2.85800	220
2.86167	237
2.86533	254
2.86900	269
2.87267	284
2.87633	294
2.88000	301
2.88367	303
2.88733	305
2.89100	307
2.89467	311
2.89833	317
2.90200	323
2.90567	323
2.90933	321
2.91300	319
2.91667	316
2.92033	309
2.92400	305
2.92767	307
2.93133	311
2.93500	311
2.93867	312
2.94233	313
2.94600	320
2.94967	330
2.95333	335
2.95700	329
2.96067	321
2.96433	317
2.96800	319
2.97167	324
2.97533	326
2.97900	328
2.98267	330
2.98633	335
2.99000	338
2.99367	337
2.99733	336
3.00100	327
3.00467	311
3.00833	300
3.01200	294
3.01567	293
3.01933	298
3.02300	303
3.02667	310
3.03033	315
3.03400	320
3.03767	321
3.04133	321
3.04500	321
3.04867	322
3.05233	321
3.05600	317
3.05967	313
3.06333	314
3.06700	315
3.07067	317
3.07433	323
3.07800	328
3.08167	330
3.08533	331
3.08900	329
3.09267	323
3.09633	320
3.10000	324
3.10367	330
3.10733	336
3.11100	340
3.11467	340
3.11833	332
3.12200	326
3.12567	325
3.12933	323
3.13300	318
3.13667	312
3.14033	310
3.14400	309
3.14767	310
3.15133	306
3.15500	302
3.15867	301
3.16233	303
3.16600	302
3.16967	303
3.17333	307
3.17700	315
3.18067	324
3.18433	327
3.18800	324
3.19167	320
3.19533	316
3.19900	308
3.20267	302
3.20633	298
3.21000	301
3.21367	305
3.21733	305
3.22100	301
3.22467	295
3.22833	292
3.23200	291
3.23567	291
3.23933	292
3.24300	294
3.24667	298
3.25033	298
3.25400	296
3.25767	293
3.26133	292
3.26500	293
3.26867	297
3.27233	302
3.27600	306
3.27967	309
3.28333	311
3.28700	310
3.29067	306
3.29433	305
3.29800	307
3.30167	310
3.30533	309
3.30900	306
3.31267	312
3.31633	315
3.32000	314
3.32367	309
3.32733	305
3.33100	302
3.33467	304
3.33833	304
3.34200	301
3.34567	298
3.34933	297
3.35300	294
3.35667	291
3.36033	291
3.36400	292
3.36767	294
3.37133	295
3.37500	296
3.37867	297
3.38233	291
3.38600	283
3.38967	278
3.39333	279
3.39700	282
3.40067	283
3.40433	284
3.40800	286
3.41167	289
3.41533	293
3.41900	297
3.42267	299
3.42633	300
3.43000	299
3.43367	296
3.43733	296
3.44100	296
3.44467	295
3.44833	289
3.45200	284
3.45567	276
3.45933	267
3.46300	260
3.46667	257
3.47033	261
3.47400	269
3.47767	279
3.48133	285
3.48500	288
3.48867	289
3.49233	288
3.49600	288
3.49967	287
3.50333	287
3.50700	282
3.51067	272
3.51433	263
3.51800	261
3.52167	268
3.52533	280
3.52900	294
3.53267	305
3.53633	310
3.54000	306
3.54367	296
3.54733	282
3.55100	269
3.55467	260
3.55833	255
3.56200	250
3.56567	242
3.56933	233
3.57300	230
3.57667	236
3.58033	243
3.58400	244
3.58767	242
3.59133	238
3.59500	235
3.59867	238
3.60233	247
3.60600	253
3.60967	248
3.61333	237
3.61700	231
3.62067	232
3.62433	235
3.62800	241
3.63167	247
3.63533	253
3.63900	260
3.64267	264
3.64633	262
3.65000	258
3.65367	252
3.65733	244
3.66100	243
3.66467	244
3.66833	243
3.67200	246
3.67567	252
3.67933	261
3.68300	262
3.68667	254
3.69033	243
3.69400	241
3.69767	240
3.70133	242
3.70500	243
3.70867	242
3.71233	241
3.71600	239
3.71967	231
3.72333	225
3.72700	224
3.73067	227
3.73433	236
3.73800	246
3.74167	247
3.74533	245
3.74900	241
3.75267	234
3.75633	230
3.76000	229
3.76367	230
3.76733	228
3.77100	223
3.77467	215
3.77833	205
3.78200	197
3.78567	197
3.78933	204
3.79300	212
3.79667	213
3.80033	212
3.80400	214
3.80767	216
3.81133	224
3.81500	231
3.81867	231
3.82233	226
3.82600	215
3.82967	204
3.83333	199
3.83700	194
3.84067	193
3.84433	195
3.84800	197
3.85167	199
3.85533	199
3.85900	198
3.86267	202
3.86633	209
3.87000	213
3.87367	208
3.87733	198
3.88100	190
3.88467	189
3.88833	194
3.89200	202
3.89567	206
3.89933	204
3.90300	201
3.90667	199
3.91033	197
3.91400	193
3.91767	192
3.92133	195
3.92500	202
3.92867	207
3.93233	212
3.93600	215
3.93967	209
3.94333	202
3.94700	200
3.95067	203
3.95433	209
3.95800	213
3.96167	212
3.96533	205
3.96900	195
3.97267	186
3.97633	181
3.98000	179
3.98367	176
3.98733	176
3.99100	177
3.99467	178
3.99833	178

[Chromatogram (Ch2)]
Interval(msec)	220
# of Points	1091
Start Time(min)	0.002
End Time(min)	3.998
R.Time (min)	Intensity
0.00167	-0
0.00533	-0
0.00900	-0
0.01267	-0
0.01633	-0
0.02000	0
0.02367	0
0.02733	1
0.03100	1
0.03467	1
0.03833	1
0.04200	1
0.04567	1
0.04933	2
0.05300	2
0.05667	2
0.06033	2
0.06400	2
0.06767	2
0.07133	2
0.07500	2
0.07867	2
0.08233	2
0.08600	2
0.08967	2
0.09333	2
0.09700	1
0.10067	1
0.10433	1
0.10800	1
0.11167	1
0.11533	1
0.11900	1
0.12267	0
0.12633	0
0.13000	0
0.13367	0
0.13733	0
0.14100	-0
0.14467	-0
0.14833	-0
0.15200	-0
0.15567	-0
0.15933	0
0.16300	0
0.16667	0
0.17033	0
0.17400	1
0.17767	1
0.18133	1
0.18500	2
0.18867	2
0.19233	2
0.19600	2
0.19967	3
0.20333	3
0.20700	3
0.21067	4
0.21433	3
0.21800	3
0.22167	3
0.22533	3
0.22900	3
0.23267	3
0.23633	3
0.24000	3
0.24367	2
0.24733	2
0.25100	2
0.25467	2
0.25833	2
0.26200	2
0.26567	2
0.26933	2
0.27300	2
0.27667	2
0.28033	2
0.28400	2
0.28767	1
0.29133	1
0.29500	1
0.29867	0
0.30233	0
0.30600	0
0.30967	0
0.31333	0
0.31700	0
0.32067	0
0.32433	0
0.32800	0
0.33167	-0
0.33533	-0
0.33900	-0
0.34267	-0
0.34633	-0
0.35000	-1
0.35367	-1
0.35733	-1
0.36100	-1
0.36467	-2
0.36833	-2
0.37200	-3
0.37567	-3
0.37933	-3
0.38300	-4
0.38667	-4
0.39033	-4
0.39400	-4
0.39767	-4
0.40133	-3
0.40500	-3
0.40867	-3
0.41233	-3
0.41600	-3
0.41967	-2
0.42333	-1
0.42700	-1
0.43067	-0
0.43433	0
0.43800	0
0.44167	1
0.44533	1
0.44900	1
0.45267	1
0.45633	2
0.46000	2
0.46367	3
0.46733	3
0.47100	3
0.47467	3
0.47833	3
0.48200	3
0.48567	3
0.48933	3
0.49300	2
0.49667	2
0.50033	2
0.50400	2
0.50767	2
0.51133	2
0.51500	2
0.51867	2
0.52233	2
0.52600	2
0.52967	2
0.53333	2
0.53700	2
0.54067	2
0.54433	2
0.54800	2
0.55167	2
0.55533	2
0.55900	2
0.56267	1
0.56633	1
0.57000	0
0.57367	-0
0.57733	-0
0.58100	-1
0.58467	-1
0.58833	-2
0.59200	-2
0.59567	-3
0.59933	-3
0.60300	-3
0.60667	-4
0.61033	-4
0.61400	-4
0.61767	-5
0.62133	-5
0.62500	-5
0.62867	-5
0.63233	-5
0.63600	-5
0.63967	-5
0.64333	-4
0.64700	-4
0.65067	-4
0.65433	-4
0.65800	-3
0.66167	-3
0.66533	-3
0.66900	-3
0.67267	-2
0.67633	-2
0.68000	-1
0.68367	-1
0.68733	-1
0.69100	-1
0.69467	-0
0.69833	-0
0.70200	-1
0.70567	-1
0.70933	-1
0.71300	-1
0.71667	-1
0.72033	-1
0.72400	-1
0.72767	-1
0.73133	-1
0.73500	-1
0.73867	-1
0.74233	-1
0.74600	-0
0.74967	-0
0.75333	0
0.75700	0
0.76067	0
0.76433	0
0.76800	0
0.77167	0
0.77533	0
0.77900	0
0.78267	0
0.78633	0
0.79000	-0
0.79367	-0
0.79733	-1
0.80100	-1
0.80467	-1
0.80833	-1
0.81200	-1
0.81567	-1
0.81933	-1
0.82300	-2
0.82667	-2
0.83033	-2
0.83400	-2
0.83767	-2
0.84133	-1
0.84500	-1
0.84867	-1
0.85233	-2
0.85600	-2
0.85967	-2
0.86333	-2
0.86700	-2
0.87067	-1
0.87433	-1
0.87800	-0
0.88167	-0
0.88533	0
0.88900	1
0.89267	1
0.89633	1
0.90000	1
0.90367	1
0.90733	1
0.91100	1
0.91467	1
0.91833	1
0.92200	1
0.92567	1
0.92933	1
0.93300	1
0.93667	1
0.94033	1
0.94400	0
0.94767	0
0.95133	-0
0.95500	-0
0.95867	-0
0.96233	-0
0.96600	-0
0.96967	-0
0.97333	-0
0.97700	-0
0.98067	-0
0.98433	-0
0.98800	0
0.99167	0
0.99533	0
0.99900	0
1.00267	0
1.00633	0
1.01000	0
1.01367	0
1.01733	0
1.02100	0
1.02467	0
1.02833	0
1.03200	-0
1.03567	-0
1.03933	-1
1.04300	-1
1.04667	-1
1.05033	-2
1.05400	-2
1.05767	-3
1.06133	-3
1.06500	-3
1.06867	-4
1.07233	-4
1.07600	-3
1.07967	-3
1.08333	-3
1.08700	-3
1.09067	-3
1.09433	-3
1.09800	-3
1.10167	-3
1.10533	-3
1.10900	-3
1.11267	-3
1.11633	-3
1.12000	-2
1.12367	-2
1.12733	-2
1.13100	-1
1.13467	-1
1.13833	-1
1.14200	-0
1.14567	-0
1.14933	0
1.15300	0
1.15667	1
1.16033	1
1.16400	1
1.16767	1
1.17133	1
1.17500	0
1.17867	0
1.18233	-0
1.18600	-0
1.18967	-1
1.19333	-1
1.19700	-1
1.20067	-1
1.20433	-1
1.20800	-2
1.21167	-2
1.21533	-2
1.21900	-2
1.22267	-2
1.22633	-1
1.23000	-1
1.23367	-1
1.23733	-0
1.24100	-0
1.24467	0
1.24833	0
1.25200	0
1.25567	0
1.25933	-0
1.26300	-0
1.26667	-0
1.27033	-1
1.27400	-1
1.27767	-1
1.28133	-1
1.28500	-0
1.28867	0
1.29233	1
1.29600	2
1.29967	2
1.30333	3
1.30700	3
1.31067	3
1.31433	3
1.31800	3
1.32167	4
1.32533	4
1.32900	4
1.33267	4
1.33633	4
1.34000	4
1.34367	3
1.34733	3
1.35100	3
1.35467	2
1.35833	2
1.36200	2
1.36567	1
1.36933	1
1.37300	0
1.37667	-0
1.38033	-0
1.38400	-1
1.38767	-1
1.39133	-2
1.39500	-2
1.39867	-2
1.40233	-3
1.40600	-3
1.40967	-3
1.41333	-3
1.41700	-3
1.42067	-3
1.42433	-3
1.42800	-2
1.43167	-2
1.43533	-2
1.43900	-3
1.44267	-3
1.44633	-4
1.45000	-4
1.45367	-4
1.45733	-4
1.46100	-4
1.46467	-4
1.46833	-4
1.47200	-4
1.47567	-3
1.47933	-3
1.48300	-3
1.48667	-2
1.49033	-2
1.49400	-2
1.49767	-1
1.50133	-1
1.50500	-1
1.50867	-1
1.51233	-0
1.51600	0
1.51967	1
1.52333	1
1.52700	1
1.53067	2
1.53433	2
1.53800	2
1.54167	2
1.54533	2
1.54900	2
1.55267	2
1.55633	2
1.56000	2
1.56367	2
1.56733	1
1.57100	1
1.57467	0
1.57833	0
1.58200	-0
1.58567	-0
1.58933	-1
1.59300	-1
1.59667	-1
1.60033	-2
1.60400	-3
1.60767	-4
1.61133	-6
1.61500	-8
1.61867	-11
1.62233	-14
1.62600	-17
1.62967	-21
1.63333	-25
1.63700	-29
1.64067	-33
1.64433	-37
1.64800	-41
1.65167	-44
1.65533	-48
1.65900	-52
1.66267	-56
1.66633	-60
1.67000	-64
1.67367	-69
1.67733	-74
1.68100	-79
1.68467	-84
1.68833	-88
1.69200	-92
1.69567	-95
1.69933	-98
1.70300	-100
1.70667	-102
1.71033	-104
1.71400	-105
1.71767	-105
1.72133	-105
1.72500	-105
1.72867	-105
1.73233	-105
1.73600	-105
1.73967	-105
1.74333	-106
1.74700	-106
1.75067	-107
1.75433	-108
1.75800	-108
1.76167	-108
1.76533	-109
1.76900	-109
1.77267	-110
1.77633	-111
1.78000	-112
1.78367	-113
1.78733	-114
1.79100	-114
1.79467	-115
1.79833	-114
1.80200	-114
1.80567	-113
1.80933	-112
1.81300	-112
1.81667	-111
1.82033	-110
1.82400	-110
1.82767	-110
1.83133	-111
1.83500	-112
1.83867	-112
1.84233	-113
1.84600	-114
1.84967	-114
1.85333	-115
1.85700	-116
1.86067	-116
1.86433	-116
1.86800	-116
1.87167	-116
1.87533	-116
1.87900	-115
1.88267	-115
1.88633	-115
1.89000	-115
1.89367	-115
1.89733	-115
1.90100	-115
1.90467	-114
1.90833	-114
1.91200	-113
1.91567	-113
1.91933	-112
1.92300	-112
1.92667	-112
1.93033	-112
1.93400	-112
1.93767	-112
1.94133	-112
1.94500	-112
1.94867	-112
1.95233	-112
1.95600	-112
1.95967	-112
1.96333	-111
1.96700	-111
1.97067	-111
1.97433	-110
1.97800	-110
1.98167	-109
1.98533	-109
1.98900	-108
1.99267	-108
1.99633	-107
2.00000	-106
2.00367	-106
2.00733	-105
2.01100	-105
2.01467	-105
2.01833	-104
2.02200	-104
2.02567	-104
2.02933	-104
2.03300	-103
2.03667	-103
2.04033	-103
2.04400	-103
2.04767	-103
2.05133	-103
2.05500	-102
2.05867	-102
2.06233	-101
2.06600	-101
2.06967	-101
2.07333	-101
2.07700	-101
2.08067	-101
2.08433	-101
2.08800	-101
2.09167	-102
2.09533	-102
2.09900	-102
2.10267	-101
2.10633	-100
2.11000	-100
2.11367	-99
2.11733	-98
2.12100	-97
2.12467	-96
2.12833	-95
2.13200	-95
2.13567	-94
2.13933	-94
2.14300	-93
2.14667	-93
2.15033	-92
2.15400	-92
2.15767	-92
2.16133	-92
2.16500	-92
2.16867	-93
2.17233	-92
2.17600	-92
2.17967	-92
2.18333	-92
2.18700	-91
2.19067	-91
2.19433	-91
2.19800	-91
2.20167	-91
2.20533	-91
2.20900	-91
2.21267	-91
2.21633	-90
2.22000	-90
2.22367	-90
2.22733	-91
2.23100	-90
2.23467	-90
2.23833	-90
2.24200	-89
2.24567	-88
2.24933	-87
2.25300	-86
2.25667	-86
2.26033	-85
2.26400	-85
2.26767	-86
2.27133	-86
2.27500	-86
2.27867	-86
2.28233	-86
2.28600	-86
2.28967	-86
2.29333	-86
2.29700	-85
2.30067	-85
2.30433	-85
2.30800	-84
2.31167	-83
2.31533	-82
2.31900	-81
2.32267	-80
2.32633	-79
2.33000	-79
2.33367	-79
2.33733	-79
2.34100	-80
2.34467	-80
2.34833	-80
2.35200	-80
2.35567	-80
2.35933	-79
2.36300	-77
2.36667	-74
2.37033	-72
2.37400	-68
2.37767	-65
2.38133	-60
2.38500	-56
2.38867	-51
2.39233	-46
2.39600	-41
2.39967	-36
2.40333	-31
2.40700	-27
2.41067	-23
2.41433	-20
2.41800	-18
2.42167	-15
2.42533	-14
2.42900	-12
2.43267	-10
2.43633	-9
2.44000	-8
2.44367	-7
2.44733	-6
2.45100	-6
2.45467	-6
2.45833	-6
2.46200	-5
2.46567	-5
2.46933	-4
2.47300	-3
2.47667	-3
2.48033	-2
2.48400	-1
2.48767	-0
2.49133	0
2.49500	1
2.49867	2
2.50233	2
2.50600	3
2.50967	4
2.51333	5
2.51700	6
2.52067	7
2.52433	8
2.52800	9
2.53167	10
2.53533	10
2.53900	11
2.54267	12
2.54633	12
2.55000	12
2.55367	12
2.55733	12
2.56100	12
2.56467	12
2.56833	13
2.57200	13
2.57567	14
2.57933	14
2.58300	14
2.58667	14
2.59033	14
2.59400	14
2.59767	14
2.60133	14
2.60500	14
2.60867	14
2.61233	15
2.61600	15
2.61967	16
2.62333	17
2.62700	18
2.63067	19
2.63433	20
2.63800	20
2.64167	20
2.64533	20
2.64900	19
2.65267	19
2.65633	18
2.66000	17
2.66367	17
2.66733	17
2.67100	17
2.67467	17
2.67833	17
2.68200	17
2.68567	18
2.68933	18
2.69300	19
2.69667	19
2.70033	20
2.70400	20
2.70767	20
2.71133	20
2.71500	20
2.71867	21
2.72233	21
2.72600	21
2.72967	21
2.73333	22
2.73700	22
2.74067	23
2.74433	23
2.74800	24
2.75167	24
2.75533	24
2.75900	25
2.76267	25
2.76633	25
2.77000	26
2.77367	26
2.77733	26
2.78100	26
2.78467	26
2.78833	26
2.79200	25
2.79567	25
2.79933	25
2.80300	24
2.80667	24
2.81033	24
2.81400	23
2.81767	23
2.82133	23
2.82500	23
2.82867	23
2.83233	23
2.83600	23
2.83967	23
2.84333	22
2.84700	20
2.85067	16
2.85433	9
2.85800	-2
2.86167	-16
2.86533	-35
2.86900	-59
2.87267	-88
2.87633	-123
2.88000	-164
2.88367	-210
2.88733	-261
2.89100	-318
2.89467	-379
2.89833	-445
2.90200	-514
2.90567	-587
2.90933	-664
2.91300	-743
2.91667	-824
2.92033	-908
2.92400	-994
2.92767	-1082
2.93133	-1171
2.93500	-1262
2.93867	-1353
2.94233	-1437
2.94600	-1502
2.94967	-1535
2.95333	-1532
2.95700	-1493
2.96067	-1426
2.96433	-1337
2.96800	-1234
2.97167	-1124
2.97533	-1012
2.97900	-903
2.98267	-800
2.98633	-704
2.99000	-615
2.99367	-535
2.99733	-464
3.00100	-400
3.00467	-345
3.00833	-296
3.01200	-253
3.01567	-216
3.01933	-184
3.02300	-157
3.02667	-133
3.03033	-113
3.03400	-96
3.03767	-81
3.04133	-68
3.04500	-57
3.04867	-47
3.05233	-39
3.05600	-33
3.05967	-27
3.06333	-22
3.06700	-17
3.07067	-14
3.07433	-10
3.07800	-7
3.08167	-5
3.08533	-3
3.08900	-1
3.09267	1
3.09633	2
3.10000	3
3.10367	4
3.10733	5
3.11100	6
3.11467	6
3.11833	7
3.12200	8
3.12567	8
3.12933	9
3.13300	9
3.13667	10
3.14033	10
3.14400	11
3.14767	11
3.15133	12
3.15500	12
3.15867	12
3.16233	12
3.16600	13
3.16967	13
3.17333	13
3.17700	13
3.18067	13
3.18433	13
3.18800	13
3.19167	14
3.19533	14
3.19900	15
3.20267	15
3.20633	16
3.21000	16
3.21367	16
3.21733	16
3.22100	17
3.22467	17
3.22833	17
3.23200	18
3.23567	18
3.23933	18
3.24300	18
3.24667	19
3.25033	19
3.25400	19
3.25767	19
3.26133	19
3.26500	19
3.26867	19
3.27233	19
3.27600	19
3.27967	19
3.28333	19
3.28700	20
3.29067	20
3.29433	20
3.29800	20
3.30167	21
3.30533	21
3.30900	21
3.31267	22
3.31633	22
3.32000	22
3.32367	23
3.32733	23
3.33100	23
3.33467	23
3.33833	24
3.34200	24
3.34567	24
3.34933	24
3.35300	25
3.35667	25
3.36033	25
3.36400	25
3.36767	25
3.37133	25
3.37500	25
3.37867	26
3.38233	25
3.38600	25
3.38967	26
3.39333	26
3.39700	26
3.40067	26
3.40433	26
3.40800	26
3.41167	26
3.41533	26
3.41900	26
3.42267	26
3.42633	26
3.43000	26
3.43367	26
3.43733	26
3.44100	26
3.44467	26
3.44833	26
3.45200	26
3.45567	26
3.45933	26
3.46300	26
3.46667	26
3.47033	26
3.47400	26
3.47767	26
3.48133	26
3.48500	25
3.48867	25
3.49233	25
3.49600	25
3.49967	25
3.50333	25
3.50700	25
3.51067	25
3.51433	25
3.51800	25
3.52167	25
3.52533	25
3.52900	25
3.53267	25
3.53633	26
3.54000	26
3.54367	26
3.54733	26
3.55100	26
3.55467	26
3.55833	26
3.56200	26
3.56567	26
3.56933	26
3.57300	25
3.57667	25
3.58033	25
3.58400	25
3.58767	25
3.59133	25
3.59500	25
3.59867	25
3.60233	25
3.60600	25
3.60967	25
3.61333	25
3.61700	25
3.62067	25
3.62433	25
3.62800	25
3.63167	25
3.63533	25
3.63900	24
3.64267	24
3.64633	24
3.65000	24
3.65367	24
3.65733	24
3.66100	24
3.66467	24
3.66833	24
3.67200	25
3.67567	25
3.67933	25
3.68300	25
3.68667	25
3.69033	25
3.69400	25
3.69767	25
3.70133	25
3.70500	25
3.70867	25
3.71233	25
3.71600	24
3.71967	24
3.72333	24
3.72700	24
3.73067	24
3.73433	24
3.73800	23
3.74167	23
3.74533	24
3.74900	24
3.75267	24
3.75633	24
3.76000	24
3.76367	25
3.76733	25
3.77100	25
3.77467	24
3.77833	24
3.78200	24
3.78567	24
3.78933	23
3.79300	23
3.79667	23
3.80033	23
3.80400	23
3.80767	23
3.81133	23
3.81500	23
3.81867	23
3.82233	23
3.82600	23
3.82967	23
3.83333	24
3.83700	24
3.84067	24
3.84433	24
3.84800	24
3.85167	24
3.85533	24
3.85900	24
3.86267	24
3.86633	24
3.87000	24
3.87367	24
3.87733	24
3.88100	24
3.88467	24
3.88833	24
3.89200	24
3.89567	24
3.89933	24
3.90300	24
3.90667	24
3.91033	24
3.91400	24
3.91767	24
3.92133	24
3.92500	25
3.92867	25
3.93233	25
3.93600	25
3.93967	25
3.94333	25
3.94700	25
3.95067	25
3.95433	26
3.95800	26
3.96167	26
3.96533	26
3.96900	26
3.97267	26
3.97633	26
3.98000	26
3.98367	26
3.98733	26
3.99100	25
3.99467	25
3.99833	25

[Chromatogram (Ch3)]
Interval(msec)	220
# of Points	1091
Start Time(min)	0.002
End Time(min)	3.998
R.Time (min)	Intensity
0.00167	-0
0.00533	-2
0.00900	-3
0.01267	-5
0.01633	-6
0.02000	-7
0.02367	-8
0.02733	-8
0.03100	-8
0.03467	-7
0.03833	-6
0.04200	-5
0.04567	-3
0.04933	-3
0.05300	-3
0.05667	-3
0.06033	-4
0.06400	-3
0.06767	-2
0.07133	-3
0.07500	-2
0.07867	-2
0.08233	-2
0.08600	-2
0.08967	-3
0.09333	-4
0.09700	-5
0.10067	-5
0.10433	-5
0.10800	-7
0.11167	-8
0.11533	-6
0.11900	-4
0.12267	-4
0.12633	-4
0.13000	-1
0.13367	-1
0.13733	-1
0.14100	-1
0.14467	-1
0.14833	-1
0.15200	-0
0.15567	-1
0.15933	-3
0.16300	-5
0.16667	-6
0.17033	-4
0.17400	-1
0.17767	-1
0.18133	-2
0.18500	-2
0.18867	-1
0.19233	-1
0.19600	-1
0.19967	-2
0.20333	-2
0.20700	-1
0.21067	-1
0.21433	-3
0.21800	-5
0.22167	-6
0.22533	-8
0.22900	-7
0.23267	-6
0.23633	-6
0.24000	-8
0.24367	-9
0.24733	-6
0.25100	-5
0.25467	-5
0.25833	-6
0.26200	-5
0.26567	-4
0.26933	-5
0.27300	-7
0.27667	-8
0.28033	-8
0.28400	-7
0.28767	-6
0.29133	-4
0.29500	-2
0.29867	-2
0.30233	-3
0.30600	-3
0.30967	-3
0.31333	-3
0.31700	-4
0.32067	-7
0.32433	-10
0.32800	-10
0.33167	-10
0.33533	-10
0.33900	-8
0.34267	-5
0.34633	-3
0.35000	-4
0.35367	-4
0.35733	-4
0.36100	-6
0.36467	-5
0.36833	-7
0.37200	-9
0.37567	-8
0.37933	-6
0.38300	-6
0.38667	-8
0.39033	-9
0.39400	-7
0.39767	-4
0.40133	-1
0.40500	2
0.40867	3
0.41233	2
0.41600	2
0.41967	2
0.42333	1
0.42700	0
0.43067	-1
0.43433	-3
0.43800	-4
0.44167	-4
0.44533	-4
0.44900	-3
0.45267	-1
0.45633	-1
0.46000	-2
0.46367	-3
0.46733	-4
0.47100	-4
0.47467	-4
0.47833	-3
0.48200	-2
0.48567	-2
0.48933	-3
0.49300	-6
0.49667	-6
0.50033	-6
0.50400	-4
0.50767	-3
0.51133	-5
0.51500	-5
0.51867	-4
0.52233	-3
0.52600	-2
0.52967	-2
0.53333	-2
0.53700	-3
0.54067	-4
0.54433	-4
0.54800	-3
0.55167	-3
0.55533	-4
0.55900	-2
0.56267	-2
0.56633	-3
0.57000	-3
0.57367	-2
0.57733	-2
0.58100	-2
0.58467	-3
0.58833	-3
0.59200	-2
0.59567	-1
0.59933	-1
0.60300	-1
0.60667	-1
0.61033	-2
0.61400	-2
0.61767	-4
0.62133	-4
0.62500	-4
0.62867	-4
0.63233	-4
0.63600	-3
0.63967	-2
0.64333	-2
0.64700	-2
0.65067	-1
0.65433	-2
0.65800	-0
0.66167	1
0.66533	1
0.66900	3
0.67267	6
0.67633	6
0.68000	3
0.68367	1
0.68733	-1
0.69100	-1
0.69467	-0
0.69833	1
0.70200	2
0.70567	3
0.70933	2
0.71300	1
0.71667	1
0.72033	1
0.72400	1
0.72767	4
0.73133	5
0.73500	4
0.73867	2
0.74233	2
0.74600	2
0.74967	6
0.75333	8
0.75700	8
0.76067	7
0.76433	3
0.76800	2
0.77167	1
0.77533	0
0.77900	1
0.78267	3
0.78633	4
0.79000	5
0.79367	6
0.79733	5
0.80100	2
0.80467	0
0.80833	2
0.81200	2
0.81567	1
0.81933	-0
0.82300	0
0.82667	3
0.83033	4
0.83400	4
0.83767	1
0.84133	1
0.84500	2
0.84867	2
0.85233	3
0.85600	4
0.85967	5
0.86333	3
0.86700	2
0.87067	2
0.87433	0
0.87800	1
0.88167	1
0.88533	-1
0.88900	-1
0.89267	-1
0.89633	-1
0.90000	1
0.90367	2
0.90733	2
0.91100	3
0.91467	5
0.91833	4
0.92200	3
0.92567	3
0.92933	3
0.93300	5
0.93667	4
0.94033	1
0.94400	-2
0.94767	-1
0.95133	-2
0.95500	-1
0.95867	1
0.96233	2
0.96600	3
0.96967	3
0.97333	4
0.97700	4
0.98067	3
0.98433	2
0.98800	1
0.99167	1
0.99533	3
0.99900	3
1.00267	3
1.00633	2
1.01000	1
1.01367	0
1.01733	2
1.02100	4
1.02467	4
1.02833	4
1.03200	4
1.03567	4
1.03933	2
1.04300	1
1.04667	1
1.05033	-0
1.05400	-0
1.05767	0
1.06133	1
1.06500	3
1.06867	3
1.07233	3
1.07600	2
1.07967	3
1.08333	3
1.08700	3
1.09067	1
1.09433	0
1.09800	-0
1.10167	0
1.10533	3
1.10900	5
1.11267	5
1.11633	4
1.12000	2
1.12367	1
1.12733	1
1.13100	1
1.13467	1
1.13833	1
1.14200	3
1.14567	4
1.14933	4
1.15300	3
1.15667	3
1.16033	3
1.16400	2
1.16767	1
1.17133	-0
1.17500	2
1.17867	6
1.18233	8
1.18600	8
1.18967	6
1.19333	4
1.19700	3
1.20067	2
1.20433	5
1.20800	5
1.21167	4
1.21533	4
1.21900	5
1.22267	6
1.22633	5
1.23000	4
1.23367	2
1.23733	2
1.24100	3
1.24467	4
1.24833	8
1.25200	10
1.25567	10
1.25933	9
1.26300	10
1.26667	10
1.27033	11
1.27400	12
1.27767	11
1.28133	10
1.28500	9
1.28867	8
1.29233	8
1.29600	9
1.29967	9
1.30333	7
1.30700	7
1.31067	9
1.31433	10
1.31800	10
1.32167	8
1.32533	7
1.32900	9
1.33267	9
1.33633	8
1.34000	7
1.34367	8
1.34733	8
1.35100	8
1.35467	6
1.35833	4
1.36200	3
1.36567	3
1.36933	3
1.37300	2
1.37667	3
1.38033	5
1.38400	7
1.38767	9
1.39133	10
1.39500	9
1.39867	10
1.40233	10
1.40600	9
1.40967	9
1.41333	8
1.41700	9
1.42067	9
1.42433	8
1.42800	10
1.43167	12
1.43533	13
1.43900	12
1.44267	9
1.44633	8
1.45000	8
1.45367	8
1.45733	7
1.46100	7
1.46467	7
1.46833	8
1.47200	9
1.47567	10
1.47933	9
1.48300	7
1.48667	5
1.49033	6
1.49400	7
1.49767	8
1.50133	8
1.50500	9
1.50867	9
1.51233	8
1.51600	8
1.51967	11
1.52333	12
1.52700	12
1.53067	12
1.53433	11
1.53800	11
1.54167	13
1.54533	14
1.54900	16
1.55267	19
1.55633	20
1.56000	18
1.56367	17
1.56733	12
1.57100	11
1.57467	10
1.57833	11
1.58200	12
1.58567	12
1.58933	12
1.59300	12
1.59667	9
1.60033	8
1.60400	9
1.60767	10
1.61133	10
1.61500	9
1.61867	11
1.62233	12
1.62600	12
1.62967	12
1.63333	13
1.63700	15
1.64067	15
1.64433	14
1.64800	14
1.65167	15
1.65533	17
1.65900	18
1.66267	18
1.66633	16
1.67000	16
1.67367	15
1.67733	17
1.68100	19
1.68467	20
1.68833	20
1.69200	20
1.69567	19
1.69933	18
1.70300	18
1.70667	18
1.71033	19
1.71400	20
1.71767	22
1.72133	22
1.72500	22
1.72867	22
1.73233	22
1.73600	21
1.73967	21
1.74333	21
1.74700	23
1.75067	24
1.75433	24
1.75800	24
1.76167	25
1.76533	26
1.76900	26
1.77267	27
1.77633	27
1.78000	28
1.78367	29
1.78733	29
1.79100	27
1.79467	26
1.79833	27
1.80200	27
1.80567	26
1.80933	24
1.81300	23
1.81667	26
1.82033	29
1.82400	30
1.82767	31
1.83133	31
1.83500	32
1.83867	32
1.84233	33
1.84600	33
1.84967	33
1.85333	34
1.85700	34
1.86067	33
1.86433	32
1.86800	32
1.87167	32
1.87533	34
1.87900	35
1.88267	35
1.88633	37
1.89000	37
1.89367	38
1.89733	40
1.90100	42
1.90467	44
1.90833	44
1.91200	45
1.91567	45
1.91933	46
1.92300	46
1.92667	45
1.93033	45
1.93400	47
1.93767	48
1.94133	50
1.94500	50
1.94867	52
1.95233	51
1.95600	52
1.95967	55
1.96333	59
1.96700	61
1.97067	61
1.97433	63
1.97800	65
1.98167	65
1.98533	65
1.98900	65
1.99267	65
1.99633	66
2.00000	67
2.00367	67
2.00733	65
2.01100	67
2.01467	71
2.01833	72
2.02200	73
2.02567	73
2.02933	72
2.03300	70
2.03667	70
2.04033	71
2.04400	73
2.04767	74
2.05133	75
2.05500	77
2.05867	80
2.06233	82
2.06600	82
2.06967	82
2.07333	83
2.07700	86
2.08067	90
2.08433	91
2.08800	93
2.09167	93
2.09533	92
2.09900	91
2.10267	91
2.10633	93
2.11000	96
2.11367	96
2.11733	94
2.12100	95
2.12467	97
2.12833	100
2.13200	102
2.13567	104
2.13933	107
2.14300	109
2.14667	110
2.15033	109
2.15400	109
2.15767	109
2.16133	111
2.16500	113
2.16867	113
2.17233	114
2.17600	115
2.17967	118
2.18333	122
2.18700	126
2.19067	129
2.19433	131
2.19800	131
2.20167	130
2.20533	129
2.20900	131
2.21267	134
2.21633	136
2.22000	139
2.22367	141
2.22733	141
2.23100	141
2.23467	140
2.23833	140
2.24200	142
2.24567	145
2.24933	146
2.25300	149
2.25667	151
2.26033	153
2.26400	154
2.26767	156
2.27133	158
2.27500	159
2.27867	160
2.28233	161
2.28600	163
2.28967	164
2.29333	166
2.29700	169
2.30067	173
2.30433	176
2.30800	178
2.31167	178
2.31533	177
2.31900	178
2.32267	181
2.32633	183
2.33000	186
2.33367	186
2.33733	185
2.34100	186
2.34467	186
2.34833	186
2.35200	189
2.35567	191
2.35933	194
2.36300	199
2.36667	202
2.37033	206
2.37400	209
2.37767	211
2.38133	211
2.38500	210
2.38867	207
2.39233	205
2.39600	205
2.39967	207
2.40333	212
2.40700	217
2.41067	221
2.41433	223
2.41800	227
2.42167	229
2.42533	230
2.42900	230
2.43267	229
2.43633	229
2.44000	232
2.44367	278
2.44733	411
2.45100	560
2.45467	685
2.45833	760
2.46200	773
2.46567	747
2.46933	712
2.47300	687
2.47667	673
2.48033	663
2.48400	642
2.48767	607
2.49133	566
2.49500	524
2.49867	489
2.50233	465
2.50600	450
2.50967	443
2.51333	446
2.51700	459
2.52067	480
2.52433	500
2.52800	514
2.53167	516
2.53533	506
2.53900	486
2.54267	458
2.54633	426
2.55000	397
2.55367	371
2.55733	350
2.56100	333
2.56467	322
2.56833	315
2.57200	310
2.57567	308
2.57933	307
2.58300	307
2.58667	307
2.59033	308
2.59400	307
2.59767	306
2.60133	306
2.60500	307
2.60867	305
2.61233	299
2.61600	290
2.61967	279
2.62333	268
2.62700	258
2.63067	250
2.63433	243
2.63800	234
2.64167	226
2.64533	217
2.64900	209
2.65267	201
2.65633	191
2.66000	181
2.66367	172
2.66733	163
2.67100	154
2.67467	145
2.67833	138
2.68200	133
2.68567	126
2.68933	121
2.69300	116
2.69667	114
2.70033	116
2.70400	120
2.70767	124
2.71133	127
2.71500	130
2.71867	132
2.72233	134
2.72600	134
2.72967	136
2.73333	137
2.73700	141
2.74067	145
2.74433	149
2.74800	151
2.75167	152
2.75533	153
2.75900	153
2.76267	154
2.76633	155
2.77000	157
2.77367	158
2.77733	159
2.78100	160
2.78467	163
2.78833	165
2.79200	167
2.79567	170
2.79933	174
2.80300	177
2.80667	181
2.81033	186
2.81400	190
2.81767	197
2.82133	217
2.82500	258
2.82867	351
2.83233	542
2.83600	889
2.83967	1454
2.84333	2285
2.84700	3409
2.85067	4810
2.85433	6426
2.85800	8165
2.86167	9897
2.86533	11490
2.86900	12821
2.87267	13793
2.87633	14363
2.88000	14521
2.88367	14307
2.88733	13787
2.89100	13041
2.89467	12145
2.89833	11168
2.90200	10162
2.90567	9167
2.90933	8211
2.91300	7316
2.91667	6491
2.92033	5740
2.92400	5061
2.92767	4454
2.93133	3913
2.93500	3436
2.93867	3013
2.94233	2641
2.94600	2316
2.94967	2032
2.95333	1782
2.95700	1563
2.96067	1374
2.96433	1209
2.96800	1065
2.97167	939
2.97533	832
2.97900	737
2.98267	657
2.98633	587
2.99000	527
2.99367	473
2.99733	428
3.00100	390
3.00467	357
3.00833	330
3.01200	306
3.01567	282
3.01933	262
3.02300	244
3.02667	230
3.03033	219
3.03400	209
3.03767	199
3.04133	191
3.04500	185
3.04867	179
3.05233	173
3.05600	167
3.05967	164
3.06333	163
3.06700	161
3.07067	158
3.07433	156
3.07800	153
3.08167	152
3.08533	151
3.08900	151
3.09267	150
3.09633	148
3.10000	148
3.10367	147
3.10733	146
3.11100	143
3.11467	142
3.11833	141
3.12200	140
3.12567	142
3.12933	142
3.13300	142
3.13667	142
3.14033	142
3.14400	141
3.14767	140
3.15133	141
3.15500	141
3.15867	141
3.16233	141
3.16600	141
3.16967	139
3.17333	139
3.17700	139
3.18067	137
3.18433	135
3.18800	134
3.19167	136
3.19533	139
3.19900	141
3.20267	142
3.20633	143
3.21000	144
3.21367	142
3.21733	140
3.22100	143
3.22467	147
3.22833	148
3.23200	148
3.23567	147
3.23933	147
3.24300	147
3.24667	145
3.25033	145
3.25400	148
3.25767	149
3.26133	149
3.26500	150
3.26867	152
3.27233	155
3.27600	159
3.27967	160
3.28333	160
3.28700	161
3.29067	163
3.29433	165
3.29800	165
3.30167	167
3.30533	168
3.30900	167
3.31267	168
3.31633	170
3.32000	173
3.32367	175
3.32733	175
3.33100	176
3.33467	177
3.33833	179
3.34200	181
3.34567	182
3.34933	183
3.35300	185
3.35667	187
3.36033	189
3.36400	190
3.36767	192
3.37133	194
3.37500	195
3.37867	196
3.38233	196
3.38600	198
3.38967	200
3.39333	201
3.39700	201
3.40067	202
3.40433	203
3.40800	205
3.41167	208
3.41533	212
3.41900	213
3.42267	213
3.42633	213
3.43000	216
3.43367	217
3.43733	218
3.44100	220
3.44467	221
3.44833	223
3.45200	224
3.45567	222
3.45933	222
3.46300	223
3.46667	225
3.47033	227
3.47400	228
3.47767	228
3.48133	227
3.48500	227
3.48867	227
3.49233	228
3.49600	227
3.49967	224
3.50333	222
3.50700	221
3.51067	223
3.51433	224
3.51800	225
3.52167	227
3.52533	226
3.52900	225
3.53267	224
3.53633	225
3.54000	224
3.54367	222
3.54733	220
3.55100	221
3.55467	221
3.55833	221
3.56200	223
3.56567	223
3.56933	222
3.57300	222
3.57667	221
3.58033	219
3.58400	218
3.58767	217
3.59133	216
3.59500	217
3.59867	218
3.60233	219
3.60600	218
3.60967	217
3.61333	216
3.61700	216
3.62067	216
3.62433	217
3.62800	219
3.63167	221
3.63533	221
3.63900	219
3.64267	218
3.64633	217
3.65000	216
3.65367	216
3.65733	218
3.66100	218
3.66467	217
3.66833	218
3.67200	216
3.67567	215
3.67933	213
3.68300	214
3.68667	215
3.69033	216
3.69400	217
3.69767	218
3.70133	218
3.70500	219
3.70867	221
3.71233	223
3.71600	227
3.71967	229
3.72333	229
3.72700	229
3.73067	227
3.73433	224
3.73800	221
3.74167	218
3.74533	217
3.74900	220
3.75267	228
3.75633	241
3.76000	254
3.76367	269
3.76733	285
3.77100	300
3.77467	314
3.77833	329
3.78200	347
3.78567	364
3.78933	381
3.79300	398
3.79667	416
3.80033	432
3.80400	444
3.80767	455
3.81133	464
3.81500	473
3.81867	482
3.82233	490
3.82600	498
3.82967	504
3.83333	505
3.83700	505
3.84067	508
3.84433	513
3.84800	517
3.85167	520
3.85533	524
3.85900	528
3.86267	529
3.86633	528
3.87000	528
3.87367	531
3.87733	533
3.88100	536
3.88467	539
3.88833	542
3.89200	544
3.89567	545
3.89933	545
3.90300	546
3.90667	548
3.91033	548
3.91400	548
3.91767	547
3.92133	548
3.92500	547
3.92867	547
3.93233	548
3.93600	550
3.93967	552
3.94333	554
3.94700	553
3.95067	551
3.95433	550
3.95800	551
3.96167	552
3.96533	552
3.96900	551
3.97267	548
3.97633	547
3.98000	547
3.98367	547
3.98733	547
3.99100	550
3.99467	550
3.99833	547

[Status Trace (Column Oven Temperature)]
Interval(msec)	1000
# of Points	240
Start Time(min)	0.008
End Time(min)	3.991
Intensity Units	
Intensity Multiplier	1
R.Time (min)	Intensity
0.00782	35.02
0.02448	35.02
0.04115	35.01
0.05782	35.01
0.07448	35.01
0.09115	35.01
0.10782	35.02
0.12448	35.02
0.14115	35.02
0.15782	35.03
0.17448	35.01
0.19115	35.01
0.20782	35.00
0.22448	34.99
0.24115	34.98
0.25782	34.99
0.27448	34.98
0.29115	34.98
0.30782	34.97
0.32448	34.97
0.34115	34.97
0.35782	34.99
0.37448	35.01
0.39115	35.03
0.40782	35.04
0.42448	35.03
0.44115	35.02
0.45782	35.01
0.47448	34.99
0.49115	34.98
0.50782	34.97
0.52448	34.97
0.54115	34.95
0.55782	34.96
0.57448	34.97
0.59115	34.99
0.60782	35.01
0.62448	35.02
0.64115	35.02
0.65782	35.03
0.67448	35.03
0.69115	35.02
0.70782	35.02
0.72448	35.02
0.74115	35.02
0.75782	35.01
0.77448	35.02
0.79115	35.02
0.80782	35.03
0.82448	35.03
0.84115	35.03
0.85782	35.03
0.87448	35.03
0.89115	35.02
0.90782	35.01
0.92448	35.00
0.94115	35.00
0.95782	35.00
0.97448	34.99
0.99115	34.99
1.00782	34.99
1.02448	35.00
1.04115	35.00
1.05782	35.00
1.07448	35.02
1.09115	35.03
1.10782	35.03
1.12448	35.03
1.14115	35.02
1.15782	35.02
1.17448	35.01
1.19115	35.01
1.20782	35.01
1.22448	35.02
1.24115	35.01
1.25782	35.01
1.27448	35.00
1.29115	34.98
1.30782	34.97
1.32448	34.96
1.34115	34.95
1.35782	34.95
1.37448	34.96
1.39115	34.97
1.40782	34.98
1.42448	34.99
1.44115	34.99
1.45782	35.01
1.47448	35.00
1.49115	35.01
1.50782	34.99
1.52448	34.98
1.54115	34.98
1.55782	34.96
1.57448	34.95
1.59115	34.96
1.60782	35.02
1.62448	35.15
1.64115	35.36
1.65782	35.62
1.67448	35.97
1.69115	36.35
1.70782	36.69
1.72448	37.00
1.74115	37.34
1.75782	37.67
1.77448	38.01
1.79115	38.35
1.80782	38.65
1.82448	38.99
1.84115	39.32
1.85782	39.67
1.87448	40.00
1.89115	40.32
1.90782	40.65
1.92448	40.99
1.94115	41.31
1.95782	41.66
1.97448	41.98
1.99115	42.31
2.00782	42.62
2.02448	42.93
2.04115	43.26
2.05782	43.59
2.07448	43.91
2.09115	44.25
2.10782	44.58
2.12448	44.90
2.14115	45.20
2.15782	45.54
2.17448	45.85
2.19115	46.19
2.20782	46.50
2.22448	46.86
2.24115	47.19
2.25782	47.49
2.27448	47.82
2.29115	48.16
2.30782	48.49
2.32448	48.80
2.34115	49.15
2.35782	49.46
2.37448	49.60
2.39115	49.63
2.40782	49.63
2.42448	49.64
2.44115	49.64
2.45782	49.65
2.47448	49.67
2.49115	49.70
2.50782	49.70
2.52448	49.71
2.54115	49.72
2.55782	49.74
2.57448	49.75
2.59115	49.78
2.60782	49.80
2.62448	49.79
2.64115	49.82
2.65782	49.85
2.67448	49.85
2.69115	49.86
2.70782	49.87
2.72448	49.87
2.74115	49.87
2.75782	49.86
2.77448	49.85
2.79115	49.86
2.80782	49.89
2.82448	49.90
2.84115	49.90
2.85782	49.91
2.87448	49.92
2.89115	49.93
2.90782	49.95
2.92448	49.95
2.94115	49.96
2.95782	49.97
2.97448	49.98
2.99115	49.99
3.00782	50.00
3.02448	50.00
3.04115	50.01
3.05782	50.02
3.07448	50.02
3.09115	50.02
3.10782	50.03
3.12448	50.04
3.14115	50.05
3.15782	50.06
3.17448	50.08
3.19115	50.09
3.20782	50.09
3.22448	50.08
3.24115	50.09
3.25782	50.10
3.27448	50.12
3.29115	50.12
3.30782	50.11
3.32448	50.10
3.34115	50.09
3.35782	50.08
3.37448	50.08
3.39115	50.06
3.40782	50.06
3.42448	50.05
3.44115	50.05
3.45782	50.04
3.47448	50.04
3.49115	50.04
3.50782	50.03
3.52448	50.03
3.54115	50.02
3.55782	50.02
3.57448	50.02
3.59115	50.02
3.60782	50.03
3.62448	50.03
3.64115	50.03
3.65782	50.03
3.67448	50.03
3.69115	50.04
3.70782	50.05
3.72448	50.06
3.74115	50.06
3.75782	50.05
3.77448	50.06
3.79115	50.06
3.80782	50.07
3.82448	50.07
3.84115	50.07
3.85782	50.07
3.87448	50.08
3.89115	50.08
3.90782	50.08
3.92448	50.09
3.94115	50.09
3.95782	50.08
3.97448	50.06
3.99115	50.06

[Status Trace (Injection Unit Temperature)]
Interval(msec)	1000
# of Points	240
Start Time(min)	0.008
End Time(min)	3.991
Intensity Units	
Intensity Multiplier	1
R.Time (min)	Intensity
0.00782	99.98
0.02448	99.98
0.04115	99.98
0.05782	99.98
0.07448	99.98
0.09115	99.97
0.10782	99.98
0.12448	99.98
0.14115	99.98
0.15782	99.98
0.17448	99.98
0.19115	99.98
0.20782	99.98
0.22448	99.98
0.24115	99.98
0.25782	99.98
0.27448	99.98
0.29115	99.98
0.30782	99.98
0.32448	99.98
0.34115	99.98
0.35782	99.98
0.37448	99.98
0.39115	99.98
0.40782	99.98
0.42448	99.98
0.44115	99.98
0.45782	99.98
0.47448	99.98
0.49115	99.98
0.50782	99.98
0.52448	99.98
0.54115	99.98
0.55782	99.98
0.57448	99.98
0.59115	99.98
0.60782	99.98
0.62448	99.98
0.64115	99.98
0.65782	99.98
0.67448	99.98
0.69115	99.98
0.70782	99.98
0.72448	99.98
0.74115	99.98
0.75782	99.98
0.77448	99.98
0.79115	99.98
0.80782	99.98
0.82448	99.98
0.84115	99.98
0.85782	99.98
0.87448	99.98
0.89115	99.98
0.90782	99.99
0.92448	99.98
0.94115	99.98
0.95782	99.99
0.97448	99.98
0.99115	99.98
1.00782	99.98
1.02448	99.98
1.04115	99.98
1.05782	99.98
1.07448	99.98
1.09115	99.98
1.10782	99.98
1.12448	99.99
1.14115	99.99
1.15782	99.98
1.17448	99.98
1.19115	99.98
1.20782	99.98
1.22448	99.98
1.24115	99.99
1.25782	99.99
1.27448	99.99
1.29115	99.99
1.30782	99.99
1.32448	99.98
1.34115	99.98
1.35782	99.99
1.37448	99.99
1.39115	99.99
1.40782	99.99
1.42448	99.99
1.44115	99.99
1.45782	99.99
1.47448	99.99
1.49115	99.98
1.50782	99.99
1.52448	99.99
1.54115	99.99
1.55782	99.99
1.57448	99.99
1.59115	99.98
1.60782	99.99
1.62448	99.99
1.64115	99.99
1.65782	99.98
1.67448	99.98
1.69115	99.99
1.70782	99.98
1.72448	99.99
1.74115	99.99
1.75782	99.99
1.77448	99.99
1.79115	99.99
1.80782	99.98
1.82448	99.98
1.84115	99.98
1.85782	99.98
1.87448	99.99
1.89115	99.98
1.90782	99.98
1.92448	99.98
1.94115	99.98
1.95782	99.98
1.97448	99.98
1.99115	99.98
2.00782	99.98
2.02448	99.98
2.04115	99.98
2.05782	99.97
2.07448	99.98
2.09115	99.98
2.10782	99.97
2.12448	99.98
2.14115	99.97
2.15782	99.98
2.17448	99.97
2.19115	99.97
2.20782	99.97
2.22448	99.97
2.24115	99.97
2.25782	99.97
2.27448	99.97
2.29115	99.97
2.30782	99.97
2.32448	99.97
2.34115	99.97
2.35782	99.97
2.37448	99.97
2.39115	99.97
2.40782	99.97
2.42448	99.96
2.44115	99.97
2.45782	99.97
2.47448	99.97
2.49115	99.96
2.50782	99.97
2.52448	99.97
2.54115	99.96
2.55782	99.97
2.57448	99.97
2.59115	99.97
2.60782	99.97
2.62448	99.97
2.64115	99.97
2.65782	99.97
2.67448	99.97
2.69115	99.97
2.70782	99.97
2.72448	99.98
2.74115	99.98
2.75782	99.98
2.77448	99.98
2.79115	99.98
2.80782	99.98
2.82448	99.98
2.84115	99.98
2.85782	99.99
2.87448	99.99
2.89115	99.99
2.90782	99.99
2.92448	99.99
2.94115	100.00
2.95782	100.00
2.97448	100.00
2.99115	100.00
3.00782	100.01
3.02448	100.01
3.04115	100.01
3.05782	100.01
3.07448	100.01
3.09115	100.01
3.10782	100.02
3.12448	100.02
3.14115	100.01
3.15782	100.02
3.17448	100.01
3.19115	100.03
3.20782	100.02
3.22448	100.03
3.24115	100.03
3.25782	100.03
3.27448	100.03
3.29115	100.03
3.30782	100.03
3.32448	100.04
3.34115	100.03
3.35782	100.03
3.37448	100.04
3.39115	100.04
3.40782	100.04
3.42448	100.04
3.44115	100.04
3.45782	100.05
3.47448	100.04
3.49115	100.04
3.50782	100.04
3.52448	100.04
3.54115	100.05
3.55782	100.05
3.57448	100.04
3.59115	100.05
3.60782	100.05
3.62448	100.05
3.64115	100.04
3.65782	100.04
3.67448	100.05
3.69115	100.05
3.70782	100.05
3.72448	100.05
3.74115	100.05
3.75782	100.04
3.77448	100.05
3.79115	100.05
3.80782	100.05
3.82448	100.05
3.84115	100.05
3.85782	100.05
3.87448	100.04
3.89115	100.04
3.90782	100.04
3.92448	100.04
3.94115	100.04
3.95782	100.04
3.97448	100.05
3.99115	100.04

[Status Trace (Carrier Gas Pressure)]
Interval(msec)	1000
# of Points	240
Start Time(min)	0.008
End Time(min)	3.991
Intensity Units	
Intensity Multiplier	1
R.Time (min)	Intensity
0.00782	58.00
0.02448	55.36
0.04115	57.07
0.05782	59.26
0.07448	59.38
0.09115	58.07
0.10782	57.98
0.12448	58.01
0.14115	58.01
0.15782	58.00
0.17448	58.00
0.19115	58.00
0.20782	58.00
0.22448	58.00
0.24115	58.00
0.25782	58.00
0.27448	58.00
0.29115	58.00
0.30782	58.00
0.32448	58.00
0.34115	58.00
0.35782	58.00
0.37448	58.00
0.39115	58.00
0.40782	58.00
0.42448	58.00
0.44115	58.00
0.45782	58.00
0.47448	58.00
0.49115	58.00
0.50782	58.00
0.52448	58.00
0.54115	58.00
0.55782	58.00
0.57448	58.00
0.59115	58.00
0.60782	58.00
0.62448	58.00
0.64115	58.00
0.65782	58.00
0.67448	58.00
0.69115	58.00
0.70782	58.00
0.72448	58.00
0.74115	58.00
0.75782	58.00
0.77448	58.00
0.79115	58.00
0.80782	58.00
0.82448	58.00
0.84115	58.00
0.85782	58.00
0.87448	58.00
0.89115	58.00
0.90782	58.00
0.92448	58.00
0.94115	58.00
0.95782	58.00
0.97448	58.00
0.99115	58.00
1.00782	58.00
1.02448	58.00
1.04115	58.00
1.05782	58.00
1.07448	58.00
1.09115	58.00
1.10782	58.00
1.12448	58.00
1.14115	58.00
1.15782	58.00
1.17448	58.00
1.19115	58.00
1.20782	58.00
1.22448	58.00
1.24115	58.00
1.25782	58.00
1.27448	58.00
1.29115	58.00
1.30782	58.00
1.32448	58.00
1.34115	58.00
1.35782	58.00
1.37448	58.00
1.39115	58.00
1.40782	58.00
1.42448	58.00
1.44115	58.00
1.45782	58.00
1.47448	58.00
1.49115	58.00
1.50782	58.00
1.52448	58.00
1.54115	58.00
1.55782	58.00
1.57448	58.00
1.59115	58.00
1.60782	58.00
1.62448	58.00
1.64115	58.01
1.65782	58.00
1.67448	58.01
1.69115	58.01
1.70782	58.00
1.72448	58.00
1.74115	58.00
1.75782	58.00
1.77448	58.00
1.79115	58.00
1.80782	58.00
1.82448	58.00
1.84115	58.00
1.85782	58.00
1.87448	58.00
1.89115	58.00
1.90782	58.00
1.92448	58.00
1.94115	58.00
1.95782	58.00
1.97448	58.00
1.99115	58.00
2.00782	58.00
2.02448	58.00
2.04115	58.00
2.05782	58.00
2.07448	58.00
2.09115	58.00
2.10782	58.00
2.12448	58.00
2.14115	58.00
2.15782	58.00
2.17448	58.00
2.19115	58.00
2.20782	58.00
2.22448	58.00
2.24115	58.00
2.25782	58.00
2.27448	58.00
2.29115	58.00
2.30782	58.00
2.32448	58.00
2.34115	58.00
2.35782	58.00
2.37448	57.99
2.39115	57.99
2.40782	58.00
2.42448	58.00
2.44115	58.00
2.45782	58.00
2.47448	58.00
2.49115	58.00
2.50782	57.99
2.52448	57.98
2.54115	58.00
2.55782	58.00
2.57448	58.00
2.59115	58.00
2.60782	58.00
2.62448	58.00
2.64115	58.00
2.65782	58.00
2.67448	58.00
2.69115	58.00
2.70782	58.00
2.72448	58.00
2.74115	58.00
2.75782	58.00
2.77448	58.00
2.79115	58.00
2.80782	58.00
2.82448	58.00
2.84115	58.00
2.85782	58.00
2.87448	58.00
2.89115	58.00
2.90782	58.00
2.92448	58.00
2.94115	58.00
2.95782	58.00
2.97448	58.00
2.99115	58.00
3.00782	58.00
3.02448	58.00
3.04115	58.00
3.05782	58.00
3.07448	58.00
3.09115	58.00
3.10782	58.00
3.12448	58.00
3.14115	58.00
3.15782	58.00
3.17448	58.00
3.19115	58.00
3.20782	58.00
3.22448	58.00
3.24115	58.00
3.25782	58.00
3.27448	58.00
3.29115	58.00
3.30782	58.00
3.32448	58.00
3.34115	58.00
3.35782	58.00
3.37448	58.00
3.39115	58.00
3.40782	58.00
3.42448	58.00
3.44115	58.00
3.45782	58.00
3.47448	58.00
3.49115	58.00
3.50782	58.00
3.52448	58.00
3.54115	58.00
3.55782	58.00
3.57448	58.00
3.59115	58.00
3.60782	58.00
3.62448	58.00
3.64115	58.00
3.65782	58.00
3.67448	58.00
3.69115	58.00
3.70782	58.00
3.72448	58.00
3.74115	58.00
3.75782	58.00
3.77448	58.00
3.79115	58.00
3.80782	58.00
3.82448	58.00
3.84115	58.00
3.85782	58.00
3.87448	58.00
3.89115	58.00
3.90782	58.00
3.92448	58.00
3.94115	58.00
3.95782	58.00
3.97448	58.00
3.99115	58.00

[Status Trace (Carrier Gas Flow)]
Interval(msec)	1000
# of Points	240
Start Time(min)	0.008
End Time(min)	3.991
Intensity Units	
Intensity Multiplier	1
R.Time (min)	Intensity
0.00782	34.52
0.02448	34.53
0.04115	34.55
0.05782	34.55
0.07448	34.50
0.09115	34.51
0.10782	34.52
0.12448	34.52
0.14115	34.51
0.15782	34.51
0.17448	34.52
0.19115	34.52
0.20782	34.52
0.22448	34.52
0.24115	34.52
0.25782	34.52
0.27448	34.52
0.29115	34.52
0.30782	34.52
0.32448	34.52
0.34115	34.51
0.35782	34.52
0.37448	34.52
0.39115	34.52
0.40782	34.52
0.42448	34.52
0.44115	34.52
0.45782	34.52
0.47448	34.52
0.49115	34.52
0.50782	34.52
0.52448	34.52
0.54115	34.52
0.55782	34.51
0.57448	34.52
0.59115	34.52
0.60782	34.52
0.62448	34.52
0.64115	34.52
0.65782	34.52
0.67448	34.52
0.69115	34.52
0.70782	34.52
0.72448	34.52
0.74115	34.52
0.75782	34.51
0.77448	34.52
0.79115	34.52
0.80782	34.52
0.82448	34.52
0.84115	34.52
0.85782	34.52
0.87448	34.51
0.89115	34.52
0.90782	34.52
0.92448	34.52
0.94115	34.52
0.95782	34.52
0.97448	34.52
0.99115	34.52
1.00782	34.52
1.02448	34.52
1.04115	34.51
1.05782	34.51
1.07448	34.52
1.09115	34.52
1.10782	34.51
1.12448	34.52
1.14115	34.52
1.15782	34.51
1.17448	34.52
1.19115	34.51
1.20782	34.52
1.22448	34.52
1.24115	34.52
1.25782	34.51
1.27448	34.52
1.29115	34.52
1.30782	34.52
1.32448	34.52
1.34115	34.52
1.35782	34.52
1.37448	34.52
1.39115	34.52
1.40782	34.51
1.42448	34.52
1.44115	34.52
1.45782	34.51
1.47448	34.52
1.49115	34.52
1.50782	34.52
1.52448	34.52
1.54115	34.52
1.55782	34.52
1.57448	34.52
1.59115	34.52
1.60782	34.52
1.62448	34.51
1.64115	34.52
1.65782	34.52
1.67448	34.52
1.69115	34.52
1.70782	34.51
1.72448	34.52
1.74115	34.52
1.75782	34.52
1.77448	34.52
1.79115	34.51
1.80782	34.51
1.82448	34.52
1.84115	34.53
1.85782	34.52
1.87448	34.52
1.89115	34.51
1.90782	34.52
1.92448	34.51
1.94115	34.52
1.95782	34.51
1.97448	34.53
1.99115	34.53
2.00782	34.53
2.02448	34.52
2.04115	34.51
2.05782	34.51
2.07448	34.52
2.09115	34.52
2.10782	34.51
2.12448	34.52
2.14115	34.52
2.15782	34.52
2.17448	34.52
2.19115	34.52
2.20782	34.51
2.22448	34.51
2.24115	34.52
2.25782	34.52
2.27448	34.52
2.29115	34.52
2.30782	34.52
2.32448	34.52
2.34115	34.52
2.35782	34.52
2.37448	34.52
2.39115	34.52
2.40782	34.52
2.42448	34.52
2.44115	34.52
2.45782	34.52
2.47448	34.52
2.49115	34.52
2.50782	34.40
2.52448	34.52
2.54115	34.51
2.55782	34.52
2.57448	34.52
2.59115	34.52
2.60782	34.51
2.62448	34.52
2.64115	34.52
2.65782	34.52
2.67448	34.52
2.69115	34.52
2.70782	34.52
2.72448	34.52
2.74115	34.52
2.75782	34.52
2.77448	34.52
2.79115	34.52
2.80782	34.52
2.82448	34.52
2.84115	34.52
2.85782	34.52
2.87448	34.52
2.89115	34.52
2.90782	34.52
2.92448	34.52
2.94115	34.52
2.95782	34.52
2.97448	34.52
2.99115	34.52
3.00782	34.52
3.02448	34.52
3.04115	34.52
3.05782	34.52
3.07448	34.51
3.09115	34.52
3.10782	34.51
3.12448	34.52
3.14115	34.52
3.15782	34.52
3.17448	34.52
3.19115	34.51
3.20782	34.51
3.22448	34.52
3.24115	34.52
3.25782	34.52
3.27448	34.52
3.29115	34.52
3.30782	34.51
3.32448	34.51
3.34115	34.52
3.35782	34.52
3.37448	34.52
3.39115	34.52
3.40782	34.52
3.42448	34.51
3.44115	34.52
3.45782	34.52
3.47448	34.52
3.49115	34.52
3.50782	34.52
3.52448	34.51
3.54115	34.51
3.55782	34.51
3.57448	34.52
3.59115	34.52
3.60782	34.52
3.62448	34.52
3.64115	34.52
3.65782	34.51
3.67448	34.52
3.69115	34.52
3.70782	34.52
3.72448	34.52
3.74115	34.52
3.75782	34.52
3.77448	34.52
3.79115	34.52
3.80782	34.52
3.82448	34.52
3.84115	34.52
3.85782	34.52
3.87448	34.52
3.89115	34.53
3.90782	34.53
3.92448	34.52
3.94115	34.52
3.95782	34.52
3.97448	34.51
3.99115	34.52

[Status Trace (Column Flow)]
Interval(msec)	1000
# of Points	240
Start Time(min)	0.008
End Time(min)	3.991
Intensity Units	
Intensity Multiplier	1
R.Time (min)	Intensity
0.00782	5.55
0.02448	5.25
0.04115	5.45
0.05782	5.70
0.07448	5.72
0.09115	5.56
0.10782	5.55
0.12448	5.56
0.14115	5.56
0.15782	5.56
0.17448	5.56
0.19115	5.56
0.20782	5.56
0.22448	5.56
0.24115	5.56
0.25782	5.56
0.27448	5.56
0.29115	5.56
0.30782	5.56
0.32448	5.56
0.34115	5.56
0.35782	5.56
0.37448	5.56
0.39115	5.55
0.40782	5.55
0.42448	5.55
0.44115	5.56
0.45782	5.56
0.47448	5.56
0.49115	5.56
0.50782	5.56
0.52448	5.56
0.54115	5.56
0.55782	5.56
0.57448	5.56
0.59115	5.56
0.60782	5.56
0.62448	5.56
0.64115	5.56
0.65782	5.56
0.67448	5.56
0.69115	5.56
0.70782	5.56
0.72448	5.56
0.74115	5.56
0.75782	5.56
0.77448	5.56
0.79115	5.56
0.80782	5.56
0.82448	5.56
0.84115	5.55
0.85782	5.55
0.87448	5.55
0.89115	5.56
0.90782	5.56
0.92448	5.56
0.94115	5.56
0.95782	5.56
0.97448	5.56
0.99115	5.56
1.00782	5.56
1.02448	5.56
1.04115	5.56
1.05782	5.56
1.07448	5.56
1.09115	5.55
1.10782	5.55
1.12448	5.55
1.14115	5.56
1.15782	5.56
1.17448	5.56
1.19115	5.56
1.20782	5.56
1.22448	5.56
1.24115	5.56
1.25782	5.56
1.27448	5.56
1.29115	5.56
1.30782	5.56
1.32448	5.56
1.34115	5.56
1.35782	5.56
1.37448	5.56
1.39115	5.56
1.40782	5.56
1.42448	5.56
1.44115	5.56
1.45782	5.56
1.47448	5.56
1.49115	5.56
1.50782	5.56
1.52448	5.56
1.54115	5.56
1.55782	5.56
1.57448	5.56
1.59115	5.56
1.60782	5.56
1.62448	5.55
1.64115	5.54
1.65782	5.54
1.67448	5.53
1.69115	5.51
1.70782	5.50
1.72448	5.49
1.74115	5.48
1.75782	5.47
1.77448	5.46
1.79115	5.45
1.80782	5.44
1.82448	5.43
1.84115	5.42
1.85782	5.41
1.87448	5.40
1.89115	5.39
1.90782	5.38
1.92448	5.37
1.94115	5.36
1.95782	5.35
1.97448	5.34
1.99115	5.33
2.00782	5.32
2.02448	5.31
2.04115	5.30
2.05782	5.29
2.07448	5.28
2.09115	5.27
2.10782	5.26
2.12448	5.25
2.14115	5.25
2.15782	5.24
2.17448	5.23
2.19115	5.22
2.20782	5.21
2.22448	5.20
2.24115	5.19
2.25782	5.18
2.27448	5.17
2.29115	5.16
2.30782	5.15
2.32448	5.14
2.34115	5.13
2.35782	5.12
2.37448	5.12
2.39115	5.12
2.40782	5.12
2.42448	5.12
2.44115	5.12
2.45782	5.12
2.47448	5.12
2.49115	5.12
2.50782	5.12
2.52448	5.12
2.54115	5.12
2.55782	5.12
2.57448	5.12
2.59115	5.12
2.60782	5.12
2.62448	5.12
2.64115	5.11
2.65782	5.11
2.67448	5.11
2.69115	5.11
2.70782	5.11
2.72448	5.11
2.74115	5.11
2.75782	5.11
2.77448	5.11
2.79115	5.11
2.80782	5.11
2.82448	5.11
2.84115	5.11
2.85782	5.11
2.87448	5.11
2.89115	5.11
2.90782	5.11
2.92448	5.11
2.94115	5.11
2.95782	5.11
2.97448	5.11
2.99115	5.11
3.00782	5.11
3.02448	5.11
3.04115	5.11
3.05782	5.11
3.07448	5.11
3.09115	5.11
3.10782	5.11
3.12448	5.11
3.14115	5.11
3.15782	5.11
3.17448	5.11
3.19115	5.11
3.20782	5.11
3.22448	5.11
3.24115	5.11
3.25782	5.11
3.27448	5.11
3.29115	5.11
3.30782	5.11
3.32448	5.11
3.34115	5.11
3.35782	5.11
3.37448	5.11
3.39115	5.11
3.40782	5.11
3.42448	5.11
3.44115	5.11
3.45782	5.11
3.47448	5.11
3.49115	5.11
3.50782	5.11
3.52448	5.11
3.54115	5.11
3.55782	5.11
3.57448	5.11
3.59115	5.11
3.60782	5.11
3.62448	5.11
3.64115	5.11
3.65782	5.11
3.67448	5.11
3.69115	5.11
3.70782	5.11
3.72448	5.11
3.74115	5.11
3.75782	5.11
3.77448	5.11
3.79115	5.11
3.80782	5.11
3.82448	5.11
3.84115	5.11
3.85782	5.11
3.87448	5.11
3.89115	5.11
3.90782	5.11
3.92448	5.11
3.94115	5.11
3.95782	5.11
3.97448	5.11
3.99115	5.11

[Status Trace (Linear Velocity)]
Interval(msec)	1000
# of Points	240
Start Time(min)	0.008
End Time(min)	3.991
Intensity Units	
Intensity Multiplier	1
R.Time (min)	Intensity
0.00782	39.02
0.02448	37.29
0.04115	38.41
0.05782	39.85
0.07448	39.93
0.09115	39.07
0.10782	39.01
0.12448	39.03
0.14115	39.03
0.15782	39.02
0.17448	39.03
0.19115	39.03
0.20782	39.03
0.22448	39.03
0.24115	39.03
0.25782	39.03
0.27448	39.03
0.29115	39.03
0.30782	39.03
0.32448	39.03
0.34115	39.03
0.35782	39.03
0.37448	39.02
0.39115	39.02
0.40782	39.02
0.42448	39.02
0.44115	39.02
0.45782	39.02
0.47448	39.03
0.49115	39.03
0.50782	39.03
0.52448	39.03
0.54115	39.03
0.55782	39.03
0.57448	39.03
0.59115	39.03
0.60782	39.02
0.62448	39.02
0.64115	39.02
0.65782	39.02
0.67448	39.02
0.69115	39.02
0.70782	39.02
0.72448	39.02
0.74115	39.02
0.75782	39.02
0.77448	39.02
0.79115	39.02
0.80782	39.02
0.82448	39.02
0.84115	39.02
0.85782	39.02
0.87448	39.02
0.89115	39.02
0.90782	39.02
0.92448	39.02
0.94115	39.02
0.95782	39.02
0.97448	39.02
0.99115	39.03
1.00782	39.03
1.02448	39.02
1.04115	39.03
1.05782	39.02
1.07448	39.02
1.09115	39.02
1.10782	39.02
1.12448	39.02
1.14115	39.02
1.15782	39.02
1.17448	39.02
1.19115	39.02
1.20782	39.02
1.22448	39.02
1.24115	39.02
1.25782	39.02
1.27448	39.02
1.29115	39.03
1.30782	39.03
1.32448	39.03
1.34115	39.03
1.35782	39.03
1.37448	39.03
1.39115	39.03
1.40782	39.03
1.42448	39.03
1.44115	39.03
1.45782	39.02
1.47448	39.02
1.49115	39.02
1.50782	39.03
1.52448	39.03
1.54115	39.03
1.55782	39.03
1.57448	39.03
1.59115	39.03
1.60782	39.02
1.62448	39.01
1.64115	38.99
1.65782	38.97
1.67448	38.93
1.69115	38.90
1.70782	38.86
1.72448	38.83
1.74115	38.80
1.75782	38.77
1.77448	38.74
1.79115	38.71
1.80782	38.67
1.82448	38.65
1.84115	38.61
1.85782	38.58
1.87448	38.55
1.89115	38.52
1.90782	38.49
1.92448	38.46
1.94115	38.43
1.95782	38.40
1.97448	38.36
1.99115	38.33
2.00782	38.31
2.02448	38.28
2.04115	38.25
2.05782	38.22
2.07448	38.19
2.09115	38.16
2.10782	38.13
2.12448	38.10
2.14115	38.07
2.15782	38.04
2.17448	38.01
2.19115	37.98
2.20782	37.95
2.22448	37.92
2.24115	37.89
2.25782	37.86
2.27448	37.83
2.29115	37.80
2.30782	37.77
2.32448	37.75
2.34115	37.72
2.35782	37.69
2.37448	37.67
2.39115	37.67
2.40782	37.67
2.42448	37.67
2.44115	37.67
2.45782	37.67
2.47448	37.67
2.49115	37.67
2.50782	37.66
2.52448	37.65
2.54115	37.66
2.55782	37.66
2.57448	37.66
2.59115	37.66
2.60782	37.66
2.62448	37.66
2.64115	37.66
2.65782	37.65
2.67448	37.65
2.69115	37.65
2.70782	37.65
2.72448	37.65
2.74115	37.65
2.75782	37.65
2.77448	37.65
2.79115	37.65
2.80782	37.65
2.82448	37.65
2.84115	37.65
2.85782	37.65
2.87448	37.65
2.89115	37.65
2.90782	37.64
2.92448	37.64
2.94115	37.64
2.95782	37.64
2.97448	37.64
2.99115	37.64
3.00782	37.64
3.02448	37.64
3.04115	37.64
3.05782	37.64
3.07448	37.64
3.09115	37.64
3.10782	37.64
3.12448	37.64
3.14115	37.64
3.15782	37.63
3.17448	37.63
3.19115	37.63
3.20782	37.63
3.22448	37.63
3.24115	37.63
3.25782	37.63
3.27448	37.63
3.29115	37.63
3.30782	37.63
3.32448	37.63
3.34115	37.63
3.35782	37.63
3.37448	37.63
3.39115	37.63
3.40782	37.64
3.42448	37.64
3.44115	37.64
3.45782	37.64
3.47448	37.64
3.49115	37.64
3.50782	37.64
3.52448	37.64
3.54115	37.64
3.55782	37.64
3.57448	37.64
3.59115	37.64
3.60782	37.64
3.62448	37.64
3.64115	37.64
3.65782	37.64
3.67448	37.64
3.69115	37.64
3.70782	37.64
3.72448	37.64
3.74115	37.63
3.75782	37.64
3.77448	37.63
3.79115	37.63
3.80782	37.63
3.82448	37.63
3.84115	37.63
3.85782	37.63
3.87448	37.63
3.89115	37.63
3.90782	37.63
3.92448	37.63
3.94115	37.63
3.95782	37.63
3.97448	37.63
3.99115	37.64

