[Header]
Application Name	LabSolutions
Version	5.110
Data File Name	C:\Users\User\Desktop\GC Analyses\Jack\Nachusa Grasslands Sampling\T4 Timepoint July 12th\T4_07122022_029.gcd
Output Date	3/17/2023
Output Time	12:04:52 PM

[File Information]
Type	Data File
Generated	3/14/2023 6:33:24 PM
Generated by	System Administrator
Modified	3/14/2023 6:40:15 PM
Modified by	System Administrator

[Sample Information]
Operator Name	System Administrator
Acquired	3/14/2023 6:36:14 PM
Sample Type	0:Unknown
Level	0
Sample Name	029
Sample ID	029
ISTD Amount1	1
ISTD Amount2	1
ISTD Amount3	1
ISTD Amount4	1
ISTD Amount5	1
ISTD Amount6	1
ISTD Amount7	1
ISTD Amount8	1
ISTD Amount9	1
ISTD Amount10	1
ISTD Amount11	1
ISTD Amount12	1
ISTD Amount13	1
ISTD Amount14	1
ISTD Amount15	1
ISTD Amount16	1
ISTD Amount17	1
ISTD Amount18	1
ISTD Amount19	1
ISTD Amount20	1
ISTD Amount21	1
ISTD Amount22	1
ISTD Amount23	1
ISTD Amount24	1
ISTD Amount25	1
ISTD Amount26	1
ISTD Amount27	1
ISTD Amount28	1
ISTD Amount29	1
ISTD Amount30	1
ISTD Amount31	1
ISTD Amount32	1
Sample Amount	1
Dilution Factor	1
Vial#	28
Injection Volume	1
Injection Count	1
Bar Code	

[Original Files]
Data File	C:\Users\User\Desktop\GC Analyses\Jack\Nachusa Grasslands Sampling\T4 Timepoint July 12th\T4_07122022_029.gcd
Method File	C:\LabSolutions\Data\GHG_4min_2022\ghg3_togas_w_acet_4 min_new_int.gcm
Batch File	C:\LabSolutions\Data\AutoSamplerTesting\T4_07122022.gcb
Report Format File	c:\LabSolutions\System\DEFAULT.lsr

[File Description]


[Configuration]
Instrument Name	C0B7VH3-Instrument1
Instrument #	1
Line #	1
# of Detectors	3
Detector ID	DET#1	DET#2	DET#3
Detector Name	FID	PTCD	ECD
# of Channels	1	1	1

[Peak Table(Ch1)]
# of Peaks	3
Peak#	R.Time	I.Time	F.Time	Area	Height	A/H	Conc.	Mark	ID#	Name	k'	Plate #	Plate Ht.	Tailing	Resolution	Sep.Factor	Area Ratio	Height Ratio	Conc. %	Norm Conc.
1	1.461	1.443	1.505	993	414	2.400	7.012	   	1	CO	0.000	8889	16.874	1.679	0.000	0.000	0	0	0.777	0.777
2	1.571	1.534	1.622	19307	9830	1.964	373.308	   	2	CH4	0.075	11625	12.904	1.111	1.829	0.000	0	0	41.370	41.370
3	1.996	1.952	2.359	2080049	995828	2.089	522.036	   	3	CO2	0.366	17411	8.615	1.329	7.160	4.867	0	0	57.853	57.853

[Peak Table(Ch2)]
# of Peaks	0

[Peak Table(Ch3)]
# of Peaks	5
Peak#	R.Time	I.Time	F.Time	Area	Height	A/H	Conc.	Mark	ID#	Name	k'	Plate #	Plate Ht.	Tailing	Resolution	Sep.Factor	Area Ratio	Height Ratio	Conc. %	Norm Conc.
1	2.462	2.323	2.510	1943	611	3.178	0.000	   			0.000	10178	14.738	0.000	0.000	0.000	0	0	0.000	0.000
2	2.532	2.510	2.583	996	331	3.004	0.000	 V 			0.028	6786	22.105	0.000	0.632	0.000	0	0	0.000	0.000
3	2.605	2.583	2.682	540	147	3.664	0.000	 V 			0.058	2368	63.337	0.000	0.435	2.053	0	0	0.000	0.000
4	2.880	2.704	3.104	56659	14479	3.913	1.447	   	1	N2O	0.170	12632	11.875	1.533	1.737	2.923	0	0	100.000	100.000
5	3.305	3.107	3.995	18097	572	31.640	0.000	   	2	SF6	0.343	213	704.805	2.158	0.843	2.018	0	0	0.000	0.000

[Compound Results(Ch1)]
# of IDs	6
ID#	Name	R.Time	Area	Height	Conc.	Curve	3rd	2nd	1st	Constant	Area Ratio	Height Ratio	Conc. %	Norm Conc.
1	CO	1.461	993	414	7.012	Linear	0.000000e+00	0.000000e+00	1.416423e+002	0.000000e+00	0	0	0.777	0.777
2	CH4	1.571	19307	9830	373.308	Linear	0.000000e+00	0.000000e+00	5.171738e+001	0.000000e+00	0	0	41.370	41.370
3	CO2	1.996	2080049	995828	522.036	Linear	0.000000e+00	0.000000e+00	3.984494e+003	0.000000e+00	0	0	57.853	57.853
4	Ethylene	0.000	0	0	0.000	Linear	0.000000e+00	0.000000e+00	0.000000e+00	0.000000e+00	0	0	0.000	0.000
5	Acetylene	0.000	0	0	0.000	Linear	0.000000e+00	0.000000e+00	0.000000e+00	0.000000e+00	0	0	0.000	0.000
6	Ethane	0.000	0	0	0.000	Linear	0.000000e+00	0.000000e+00	0.000000e+00	0.000000e+00	0	0	0.000	0.000

[Compound Results(Ch2)]
# of IDs	5
ID#	Name	R.Time	Area	Height	Conc.	Curve	3rd	2nd	1st	Constant	Area Ratio	Height Ratio	Conc. %	Norm Conc.
1	Hydrogen	0.000	0	0	0.000	Linear	0.000000e+00	0.000000e+00	0.000000e+00	0.000000e+00	0	0	0.000	0.000
2	Oxygen	0.000	0	0	0.000	Linear	0.000000e+00	0.000000e+00	0.000000e+00	0.000000e+00	0	0	0.000	0.000
3	Nitrogen	0.000	0	0	0.000	Linear	0.000000e+00	0.000000e+00	0.000000e+00	0.000000e+00	0	0	0.000	0.000
4	Methane	0.000	0	0	0.000	Linear	0.000000e+00	0.000000e+00	0.000000e+00	0.000000e+00	0	0	0.000	0.000
5	Carbon Monoxide	0.000	0	0	0.000	Linear	0.000000e+00	0.000000e+00	0.000000e+00	0.000000e+00	0	0	0.000	0.000

[Compound Results(Ch3)]
# of IDs	2
ID#	Name	R.Time	Area	Height	Conc.	Curve	3rd	2nd	1st	Constant	Area Ratio	Height Ratio	Conc. %	Norm Conc.
1	N2O	2.880	56659	14479	1.447	Linear	0.000000e+00	0.000000e+00	3.915173e+004	0.000000e+00	0	0	100.000	100.000
2	SF6	3.305	18097	572	0.000	Linear	0.000000e+00	0.000000e+00	0.000000e+00	0.000000e+00	0	0	0.000	0.000

[Group Results(Ch1)]
# of Groups	0

[Group Results(Ch2)]
# of Groups	0

[Group Results(Ch3)]
# of Groups	0

[Chromatogram (Ch1)]
Interval(msec)	220
# of Points	1091
Start Time(min)	0.002
End Time(min)	3.998
R.Time (min)	Intensity
0.00167	9
0.00533	3
0.00900	-6
0.01267	-8
0.01633	-3
0.02000	1
0.02367	6
0.02733	14
0.03100	21
0.03467	26
0.03833	29
0.04200	28
0.04567	25
0.04933	22
0.05300	23
0.05667	27
0.06033	33
0.06400	33
0.06767	29
0.07133	27
0.07500	25
0.07867	24
0.08233	29
0.08600	33
0.08967	49
0.09333	60
0.09700	64
0.10067	64
0.10433	65
0.10800	65
0.11167	65
0.11533	65
0.11900	64
0.12267	63
0.12633	63
0.13000	62
0.13367	64
0.13733	69
0.14100	76
0.14467	81
0.14833	79
0.15200	64
0.15567	53
0.15933	48
0.16300	48
0.16667	51
0.17033	45
0.17400	37
0.17767	32
0.18133	27
0.18500	22
0.18867	19
0.19233	23
0.19600	32
0.19967	36
0.20333	32
0.20700	30
0.21067	32
0.21433	33
0.21800	30
0.22167	25
0.22533	21
0.22900	16
0.23267	7
0.23633	-3
0.24000	-7
0.24367	-5
0.24733	-5
0.25100	-5
0.25467	-7
0.25833	-7
0.26200	-2
0.26567	2
0.26933	-1
0.27300	-6
0.27667	-10
0.28033	-12
0.28400	-13
0.28767	-12
0.29133	-11
0.29500	-8
0.29867	-2
0.30233	7
0.30600	17
0.30967	26
0.31333	37
0.31700	41
0.32067	34
0.32433	25
0.32800	19
0.33167	15
0.33533	3
0.33900	-10
0.34267	-16
0.34633	-20
0.35000	-24
0.35367	-21
0.35733	-16
0.36100	-15
0.36467	-20
0.36833	-29
0.37200	-41
0.37567	-49
0.37933	-54
0.38300	-52
0.38667	-51
0.39033	-51
0.39400	-51
0.39767	-44
0.40133	-37
0.40500	-27
0.40867	-16
0.41233	-9
0.41600	-6
0.41967	-8
0.42333	-11
0.42700	-14
0.43067	-14
0.43433	-19
0.43800	-26
0.44167	-29
0.44533	-30
0.44900	-21
0.45267	-11
0.45633	-12
0.46000	-20
0.46367	-26
0.46733	-30
0.47100	-27
0.47467	-21
0.47833	-14
0.48200	-10
0.48567	-7
0.48933	-1
0.49300	2
0.49667	1
0.50033	-6
0.50400	-13
0.50767	-14
0.51133	-11
0.51500	-7
0.51867	-3
0.52233	-3
0.52600	-13
0.52967	-26
0.53333	-32
0.53700	-33
0.54067	-28
0.54433	-21
0.54800	-16
0.55167	-19
0.55533	-23
0.55900	-26
0.56267	-26
0.56633	-26
0.57000	-26
0.57367	-21
0.57733	-14
0.58100	-8
0.58467	-5
0.58833	-5
0.59200	-8
0.59567	-17
0.59933	-29
0.60300	-35
0.60667	-42
0.61033	-48
0.61400	-52
0.61767	-57
0.62133	-54
0.62500	-51
0.62867	-45
0.63233	-36
0.63600	-30
0.63967	-24
0.64333	-19
0.64700	-19
0.65067	-22
0.65433	-21
0.65800	-11
0.66167	-9
0.66533	-9
0.66900	-7
0.67267	-5
0.67633	-9
0.68000	-4
0.68367	-4
0.68733	-7
0.69100	-6
0.69467	-4
0.69833	-8
0.70200	-17
0.70567	-25
0.70933	-34
0.71300	-45
0.71667	-57
0.72033	-62
0.72400	-66
0.72767	-64
0.73133	-59
0.73500	-57
0.73867	-57
0.74233	-53
0.74600	-48
0.74967	-46
0.75333	-41
0.75700	-35
0.76067	-33
0.76433	-30
0.76800	-25
0.77167	-22
0.77533	-25
0.77900	-32
0.78267	-33
0.78633	-30
0.79000	-26
0.79367	-27
0.79733	-31
0.80100	-31
0.80467	-28
0.80833	-14
0.81200	-1
0.81567	1
0.81933	-8
0.82300	-16
0.82667	-22
0.83033	-29
0.83400	-37
0.83767	-42
0.84133	-40
0.84500	-36
0.84867	-34
0.85233	-38
0.85600	-46
0.85967	-52
0.86333	-54
0.86700	-45
0.87067	-35
0.87433	-28
0.87800	-28
0.88167	-31
0.88533	-29
0.88900	-26
0.89267	-25
0.89633	-28
0.90000	-28
0.90367	-22
0.90733	-16
0.91100	-15
0.91467	-19
0.91833	-16
0.92200	-5
0.92567	8
0.92933	16
0.93300	17
0.93667	14
0.94033	11
0.94400	8
0.94767	3
0.95133	-2
0.95500	-3
0.95867	0
0.96233	5
0.96600	5
0.96967	12
0.97333	17
0.97700	18
0.98067	17
0.98433	8
0.98800	-1
0.99167	-7
0.99533	-11
0.99900	-12
1.00267	-11
1.00633	-11
1.01000	-13
1.01367	-19
1.01733	-27
1.02100	-28
1.02467	-24
1.02833	-19
1.03200	-17
1.03567	-13
1.03933	-9
1.04300	-3
1.04667	8
1.05033	16
1.05400	18
1.05767	11
1.06133	3
1.06500	1
1.06867	-1
1.07233	-7
1.07600	-15
1.07967	-17
1.08333	-13
1.08700	-11
1.09067	-12
1.09433	-13
1.09800	-14
1.10167	-14
1.10533	-9
1.10900	-3
1.11267	-0
1.11633	-2
1.12000	-6
1.12367	-9
1.12733	-9
1.13100	-8
1.13467	-9
1.13833	-12
1.14200	-11
1.14567	-7
1.14933	-5
1.15300	-12
1.15667	-21
1.16033	-19
1.16400	-18
1.16767	-18
1.17133	-18
1.17500	-12
1.17867	-8
1.18233	-8
1.18600	-10
1.18967	-9
1.19333	-4
1.19700	2
1.20067	0
1.20433	-0
1.20800	-4
1.21167	-10
1.21533	-16
1.21900	-20
1.22267	-19
1.22633	-14
1.23000	-9
1.23367	-8
1.23733	-8
1.24100	-11
1.24467	-19
1.24833	-24
1.25200	-24
1.25567	-24
1.25933	-25
1.26300	-22
1.26667	-21
1.27033	-20
1.27400	-18
1.27767	-13
1.28133	-10
1.28500	-9
1.28867	-10
1.29233	-17
1.29600	-26
1.29967	-31
1.30333	-32
1.30700	-24
1.31067	-19
1.31433	-20
1.31800	-22
1.32167	-21
1.32533	-17
1.32900	-17
1.33267	-19
1.33633	-24
1.34000	-26
1.34367	-27
1.34733	-33
1.35100	-40
1.35467	-37
1.35833	-26
1.36200	-14
1.36567	-10
1.36933	-6
1.37300	-5
1.37667	-7
1.38033	-14
1.38400	-19
1.38767	-19
1.39133	-19
1.39500	-27
1.39867	-31
1.40233	-28
1.40600	-24
1.40967	-25
1.41333	-24
1.41700	-22
1.42067	-23
1.42433	-20
1.42800	-21
1.43167	-22
1.43533	-22
1.43900	-21
1.44267	11
1.44633	111
1.45000	241
1.45367	333
1.45733	372
1.46100	374
1.46467	350
1.46833	313
1.47200	285
1.47567	276
1.47933	271
1.48300	242
1.48667	183
1.49033	105
1.49400	20
1.49767	-58
1.50133	-121
1.50500	-163
1.50867	-190
1.51233	-200
1.51600	-202
1.51967	-202
1.52333	-201
1.52700	-201
1.53067	-198
1.53433	-187
1.53800	-129
1.54167	125
1.54533	853
1.54900	2242
1.55267	4114
1.55633	6057
1.56000	7735
1.56367	8974
1.56733	9679
1.57100	9722
1.57467	9025
1.57833	7713
1.58200	6105
1.58567	4532
1.58933	3198
1.59300	2165
1.59667	1415
1.60033	901
1.60400	558
1.60767	333
1.61133	187
1.61500	91
1.61867	37
1.62233	2
1.62600	-25
1.62967	-44
1.63333	-58
1.63700	-62
1.64067	-60
1.64433	-58
1.64800	-61
1.65167	-67
1.65533	-70
1.65900	-70
1.66267	-66
1.66633	-61
1.67000	-63
1.67367	-71
1.67733	-82
1.68100	-93
1.68467	-106
1.68833	-106
1.69200	-102
1.69567	-98
1.69933	-95
1.70300	-91
1.70667	-87
1.71033	-80
1.71400	-73
1.71767	-70
1.72133	-69
1.72500	-65
1.72867	-61
1.73233	-59
1.73600	-59
1.73967	-60
1.74333	-62
1.74700	-65
1.75067	-61
1.75433	-59
1.75800	-64
1.76167	-64
1.76533	-58
1.76900	-58
1.77267	-52
1.77633	-46
1.78000	-40
1.78367	-36
1.78733	-36
1.79100	-38
1.79467	-41
1.79833	-40
1.80200	-36
1.80567	-32
1.80933	-34
1.81300	-39
1.81667	-43
1.82033	-46
1.82400	-48
1.82767	-45
1.83133	-43
1.83500	-43
1.83867	-42
1.84233	-41
1.84600	-42
1.84967	-43
1.85333	-44
1.85700	-45
1.86067	-44
1.86433	-38
1.86800	-35
1.87167	-40
1.87533	-51
1.87900	-66
1.88267	-81
1.88633	-89
1.89000	-93
1.89367	-98
1.89733	-99
1.90100	-95
1.90467	-87
1.90833	-79
1.91200	-71
1.91567	-63
1.91933	-54
1.92300	-49
1.92667	-43
1.93033	-39
1.93400	-40
1.93767	-43
1.94133	-48
1.94500	-49
1.94867	-53
1.95233	-44
1.95600	67
1.95967	758
1.96333	4126
1.96700	16534
1.97067	51533
1.97433	127718
1.97800	257061
1.98167	431453
1.98533	623216
1.98900	798538
1.99267	928930
1.99633	995813
2.00000	991606
2.00367	920926
2.00733	800466
2.01100	654589
2.01467	507482
2.01833	376615
2.02200	270428
2.02567	189877
2.02933	131634
2.03300	90887
2.03667	62978
2.04033	44091
2.04400	31379
2.04767	22813
2.05133	17000
2.05500	13007
2.05867	10218
2.06233	8234
2.06600	6788
2.06967	5717
2.07333	4902
2.07700	4269
2.08067	3762
2.08433	3345
2.08800	2998
2.09167	2710
2.09533	2467
2.09900	2262
2.10267	2095
2.10633	1955
2.11000	1827
2.11367	1708
2.11733	1594
2.12100	1491
2.12467	1396
2.12833	1306
2.13200	1225
2.13567	1157
2.13933	1098
2.14300	1044
2.14667	997
2.15033	958
2.15400	925
2.15767	892
2.16133	859
2.16500	827
2.16867	798
2.17233	767
2.17600	736
2.17967	705
2.18333	676
2.18700	652
2.19067	630
2.19433	609
2.19800	590
2.20167	576
2.20533	568
2.20900	560
2.21267	553
2.21633	542
2.22000	527
2.22367	510
2.22733	485
2.23100	461
2.23467	439
2.23833	422
2.24200	410
2.24567	402
2.24933	394
2.25300	386
2.25667	378
2.26033	372
2.26400	368
2.26767	360
2.27133	355
2.27500	352
2.27867	352
2.28233	347
2.28600	333
2.28967	325
2.29333	321
2.29700	321
2.30067	322
2.30433	319
2.30800	307
2.31167	295
2.31533	290
2.31900	289
2.32267	285
2.32633	275
2.33000	266
2.33367	266
2.33733	269
2.34100	265
2.34467	256
2.34833	246
2.35200	238
2.35567	230
2.35933	221
2.36300	221
2.36667	225
2.37033	234
2.37400	239
2.37767	239
2.38133	236
2.38500	237
2.38867	234
2.39233	227
2.39600	221
2.39967	218
2.40333	217
2.40700	211
2.41067	198
2.41433	186
2.41800	181
2.42167	182
2.42533	184
2.42900	185
2.43267	186
2.43633	189
2.44000	190
2.44367	189
2.44733	185
2.45100	180
2.45467	176
2.45833	171
2.46200	168
2.46567	170
2.46933	172
2.47300	173
2.47667	168
2.48033	164
2.48400	167
2.48767	170
2.49133	170
2.49500	170
2.49867	169
2.50233	168
2.50600	161
2.50967	155
2.51333	147
2.51700	137
2.52067	133
2.52433	135
2.52800	138
2.53167	141
2.53533	144
2.53900	143
2.54267	139
2.54633	136
2.55000	137
2.55367	135
2.55733	136
2.56100	138
2.56467	134
2.56833	129
2.57200	127
2.57567	124
2.57933	119
2.58300	117
2.58667	121
2.59033	128
2.59400	132
2.59767	130
2.60133	125
2.60500	123
2.60867	120
2.61233	114
2.61600	108
2.61967	108
2.62333	109
2.62700	103
2.63067	97
2.63433	90
2.63800	85
2.64167	82
2.64533	83
2.64900	85
2.65267	91
2.65633	101
2.66000	110
2.66367	115
2.66733	110
2.67100	105
2.67467	99
2.67833	94
2.68200	94
2.68567	95
2.68933	98
2.69300	106
2.69667	116
2.70033	121
2.70400	120
2.70767	115
2.71133	110
2.71500	110
2.71867	117
2.72233	122
2.72600	125
2.72967	124
2.73333	119
2.73700	115
2.74067	110
2.74433	103
2.74800	98
2.75167	99
2.75533	100
2.75900	100
2.76267	97
2.76633	93
2.77000	94
2.77367	103
2.77733	113
2.78100	119
2.78467	122
2.78833	126
2.79200	123
2.79567	110
2.79933	92
2.80300	77
2.80667	85
2.81033	95
2.81400	100
2.81767	103
2.82133	109
2.82500	117
2.82867	115
2.83233	108
2.83600	104
2.83967	105
2.84333	103
2.84700	97
2.85067	96
2.85433	94
2.85800	87
2.86167	77
2.86533	68
2.86900	65
2.87267	64
2.87633	55
2.88000	43
2.88367	40
2.88733	43
2.89100	48
2.89467	58
2.89833	66
2.90200	72
2.90567	74
2.90933	75
2.91300	77
2.91667	81
2.92033	89
2.92400	93
2.92767	93
2.93133	94
2.93500	94
2.93867	94
2.94233	98
2.94600	101
2.94967	105
2.95333	105
2.95700	102
2.96067	97
2.96433	92
2.96800	91
2.97167	93
2.97533	96
2.97900	96
2.98267	94
2.98633	95
2.99000	95
2.99367	92
2.99733	90
3.00100	89
3.00467	89
3.00833	92
3.01200	89
3.01567	83
3.01933	79
3.02300	80
3.02667	89
3.03033	94
3.03400	93
3.03767	89
3.04133	82
3.04500	80
3.04867	82
3.05233	82
3.05600	86
3.05967	89
3.06333	87
3.06700	82
3.07067	81
3.07433	82
3.07800	86
3.08167	93
3.08533	100
3.08900	97
3.09267	90
3.09633	83
3.10000	78
3.10367	77
3.10733	81
3.11100	85
3.11467	90
3.11833	94
3.12200	95
3.12567	89
3.12933	81
3.13300	72
3.13667	65
3.14033	66
3.14400	70
3.14767	75
3.15133	82
3.15500	87
3.15867	89
3.16233	92
3.16600	93
3.16967	89
3.17333	83
3.17700	79
3.18067	76
3.18433	77
3.18800	79
3.19167	80
3.19533	86
3.19900	89
3.20267	86
3.20633	81
3.21000	77
3.21367	75
3.21733	76
3.22100	76
3.22467	73
3.22833	66
3.23200	54
3.23567	42
3.23933	31
3.24300	28
3.24667	31
3.25033	43
3.25400	60
3.25767	69
3.26133	68
3.26500	59
3.26867	52
3.27233	48
3.27600	48
3.27967	51
3.28333	51
3.28700	50
3.29067	51
3.29433	56
3.29800	56
3.30167	53
3.30533	50
3.30900	50
3.31267	55
3.31633	60
3.32000	62
3.32367	62
3.32733	57
3.33100	54
3.33467	52
3.33833	52
3.34200	52
3.34567	56
3.34933	63
3.35300	68
3.35667	70
3.36033	71
3.36400	71
3.36767	70
3.37133	66
3.37500	65
3.37867	73
3.38233	75
3.38600	70
3.38967	66
3.39333	62
3.39700	57
3.40067	51
3.40433	52
3.40800	55
3.41167	57
3.41533	57
3.41900	57
3.42267	60
3.42633	64
3.43000	70
3.43367	74
3.43733	73
3.44100	68
3.44467	64
3.44833	58
3.45200	64
3.45567	72
3.45933	76
3.46300	72
3.46667	63
3.47033	59
3.47400	52
3.47767	46
3.48133	41
3.48500	40
3.48867	45
3.49233	54
3.49600	59
3.49967	56
3.50333	50
3.50700	43
3.51067	35
3.51433	29
3.51800	30
3.52167	35
3.52533	44
3.52900	53
3.53267	59
3.53633	58
3.54000	52
3.54367	46
3.54733	43
3.55100	42
3.55467	46
3.55833	53
3.56200	54
3.56567	50
3.56933	41
3.57300	33
3.57667	26
3.58033	19
3.58400	14
3.58767	10
3.59133	6
3.59500	4
3.59867	11
3.60233	22
3.60600	33
3.60967	42
3.61333	48
3.61700	50
3.62067	46
3.62433	39
3.62800	33
3.63167	32
3.63533	36
3.63900	40
3.64267	39
3.64633	41
3.65000	49
3.65367	61
3.65733	73
3.66100	75
3.66467	68
3.66833	60
3.67200	50
3.67567	41
3.67933	38
3.68300	30
3.68667	24
3.69033	19
3.69400	11
3.69767	-0
3.70133	-16
3.70500	-25
3.70867	-26
3.71233	-22
3.71600	-16
3.71967	-11
3.72333	-9
3.72700	-6
3.73067	-3
3.73433	3
3.73800	16
3.74167	24
3.74533	23
3.74900	17
3.75267	11
3.75633	10
3.76000	10
3.76367	14
3.76733	21
3.77100	26
3.77467	27
3.77833	25
3.78200	24
3.78567	27
3.78933	28
3.79300	27
3.79667	20
3.80033	15
3.80400	16
3.80767	19
3.81133	21
3.81500	19
3.81867	15
3.82233	12
3.82600	9
3.82967	4
3.83333	1
3.83700	-1
3.84067	-2
3.84433	-1
3.84800	2
3.85167	5
3.85533	7
3.85900	8
3.86267	11
3.86633	21
3.87000	37
3.87367	48
3.87733	47
3.88100	38
3.88467	28
3.88833	18
3.89200	11
3.89567	5
3.89933	3
3.90300	7
3.90667	11
3.91033	11
3.91400	7
3.91767	-1
3.92133	-11
3.92500	-17
3.92867	-19
3.93233	-20
3.93600	-24
3.93967	-27
3.94333	-27
3.94700	-27
3.95067	-25
3.95433	-24
3.95800	-19
3.96167	-12
3.96533	-6
3.96900	1
3.97267	5
3.97633	5
3.98000	3
3.98367	0
3.98733	-1
3.99100	-1
3.99467	-1
3.99833	-1

[Chromatogram (Ch2)]
Interval(msec)	220
# of Points	1091
Start Time(min)	0.002
End Time(min)	3.998
R.Time (min)	Intensity
0.00167	-0
0.00533	-0
0.00900	-0
0.01267	-0
0.01633	-0
0.02000	-0
0.02367	-0
0.02733	-0
0.03100	-0
0.03467	-0
0.03833	0
0.04200	0
0.04567	0
0.04933	1
0.05300	1
0.05667	1
0.06033	1
0.06400	1
0.06767	1
0.07133	1
0.07500	1
0.07867	1
0.08233	1
0.08600	0
0.08967	-0
0.09333	-0
0.09700	-0
0.10067	0
0.10433	0
0.10800	0
0.11167	1
0.11533	1
0.11900	1
0.12267	2
0.12633	2
0.13000	3
0.13367	3
0.13733	3
0.14100	3
0.14467	3
0.14833	3
0.15200	3
0.15567	3
0.15933	3
0.16300	2
0.16667	2
0.17033	2
0.17400	2
0.17767	1
0.18133	1
0.18500	1
0.18867	1
0.19233	1
0.19600	0
0.19967	0
0.20333	0
0.20700	-0
0.21067	-0
0.21433	0
0.21800	-0
0.22167	-0
0.22533	-0
0.22900	-0
0.23267	-0
0.23633	-1
0.24000	-1
0.24367	-1
0.24733	-1
0.25100	-0
0.25467	0
0.25833	1
0.26200	1
0.26567	2
0.26933	3
0.27300	3
0.27667	3
0.28033	4
0.28400	4
0.28767	4
0.29133	4
0.29500	4
0.29867	4
0.30233	4
0.30600	4
0.30967	3
0.31333	3
0.31700	3
0.32067	3
0.32433	3
0.32800	3
0.33167	3
0.33533	2
0.33900	2
0.34267	2
0.34633	2
0.35000	2
0.35367	2
0.35733	2
0.36100	2
0.36467	2
0.36833	2
0.37200	2
0.37567	2
0.37933	2
0.38300	2
0.38667	2
0.39033	2
0.39400	2
0.39767	2
0.40133	2
0.40500	1
0.40867	1
0.41233	1
0.41600	1
0.41967	2
0.42333	2
0.42700	2
0.43067	3
0.43433	3
0.43800	3
0.44167	4
0.44533	4
0.44900	4
0.45267	4
0.45633	4
0.46000	4
0.46367	4
0.46733	4
0.47100	4
0.47467	3
0.47833	3
0.48200	3
0.48567	2
0.48933	2
0.49300	2
0.49667	2
0.50033	1
0.50400	1
0.50767	1
0.51133	1
0.51500	1
0.51867	1
0.52233	1
0.52600	1
0.52967	1
0.53333	1
0.53700	2
0.54067	2
0.54433	2
0.54800	2
0.55167	2
0.55533	1
0.55900	1
0.56267	1
0.56633	0
0.57000	-0
0.57367	-0
0.57733	-0
0.58100	-0
0.58467	-0
0.58833	-0
0.59200	0
0.59567	0
0.59933	0
0.60300	0
0.60667	-0
0.61033	-0
0.61400	-0
0.61767	-1
0.62133	-1
0.62500	-1
0.62867	-1
0.63233	-1
0.63600	-1
0.63967	-1
0.64333	-1
0.64700	-1
0.65067	-1
0.65433	-1
0.65800	-1
0.66167	-1
0.66533	-1
0.66900	-1
0.67267	-1
0.67633	-1
0.68000	-1
0.68367	-1
0.68733	-1
0.69100	-1
0.69467	-1
0.69833	-1
0.70200	-1
0.70567	-1
0.70933	-1
0.71300	-1
0.71667	-1
0.72033	-0
0.72400	0
0.72767	0
0.73133	1
0.73500	1
0.73867	1
0.74233	0
0.74600	0
0.74967	-0
0.75333	-0
0.75700	-1
0.76067	-1
0.76433	-1
0.76800	-1
0.77167	-1
0.77533	-1
0.77900	-1
0.78267	-0
0.78633	-0
0.79000	-0
0.79367	0
0.79733	0
0.80100	0
0.80467	0
0.80833	0
0.81200	0
0.81567	1
0.81933	1
0.82300	1
0.82667	1
0.83033	1
0.83400	1
0.83767	2
0.84133	2
0.84500	2
0.84867	2
0.85233	2
0.85600	2
0.85967	2
0.86333	2
0.86700	2
0.87067	2
0.87433	2
0.87800	2
0.88167	2
0.88533	2
0.88900	2
0.89267	2
0.89633	2
0.90000	1
0.90367	1
0.90733	1
0.91100	1
0.91467	0
0.91833	0
0.92200	0
0.92567	-0
0.92933	-0
0.93300	-0
0.93667	-0
0.94033	-0
0.94400	-1
0.94767	-1
0.95133	-1
0.95500	-1
0.95867	-1
0.96233	-2
0.96600	-2
0.96967	-2
0.97333	-2
0.97700	-1
0.98067	-1
0.98433	-1
0.98800	-1
0.99167	-2
0.99533	-1
0.99900	-1
1.00267	-1
1.00633	-1
1.01000	-1
1.01367	-2
1.01733	-2
1.02100	-2
1.02467	-2
1.02833	-2
1.03200	-2
1.03567	-2
1.03933	-2
1.04300	-2
1.04667	-2
1.05033	-3
1.05400	-3
1.05767	-3
1.06133	-2
1.06500	-1
1.06867	-1
1.07233	-0
1.07600	0
1.07967	0
1.08333	0
1.08700	0
1.09067	0
1.09433	0
1.09800	0
1.10167	0
1.10533	0
1.10900	0
1.11267	1
1.11633	1
1.12000	1
1.12367	1
1.12733	1
1.13100	1
1.13467	1
1.13833	1
1.14200	1
1.14567	1
1.14933	1
1.15300	1
1.15667	1
1.16033	1
1.16400	1
1.16767	1
1.17133	1
1.17500	1
1.17867	1
1.18233	0
1.18600	0
1.18967	0
1.19333	0
1.19700	0
1.20067	0
1.20433	0
1.20800	0
1.21167	0
1.21533	0
1.21900	-0
1.22267	-0
1.22633	-0
1.23000	-1
1.23367	-1
1.23733	-1
1.24100	-1
1.24467	-0
1.24833	-0
1.25200	-0
1.25567	0
1.25933	0
1.26300	1
1.26667	1
1.27033	1
1.27400	1
1.27767	1
1.28133	0
1.28500	-0
1.28867	-1
1.29233	-2
1.29600	-3
1.29967	-3
1.30333	-4
1.30700	-4
1.31067	-4
1.31433	-4
1.31800	-4
1.32167	-4
1.32533	-3
1.32900	-3
1.33267	-3
1.33633	-3
1.34000	-3
1.34367	-3
1.34733	-3
1.35100	-3
1.35467	-3
1.35833	-3
1.36200	-3
1.36567	-3
1.36933	-3
1.37300	-3
1.37667	-3
1.38033	-3
1.38400	-3
1.38767	-2
1.39133	-2
1.39500	-2
1.39867	-2
1.40233	-3
1.40600	-3
1.40967	-3
1.41333	-3
1.41700	-3
1.42067	-3
1.42433	-3
1.42800	-2
1.43167	-2
1.43533	-2
1.43900	-2
1.44267	-2
1.44633	-1
1.45000	-1
1.45367	-1
1.45733	-1
1.46100	-2
1.46467	-2
1.46833	-2
1.47200	-2
1.47567	-2
1.47933	-2
1.48300	-2
1.48667	-2
1.49033	-2
1.49400	-2
1.49767	-2
1.50133	-2
1.50500	-2
1.50867	-1
1.51233	-1
1.51600	-1
1.51967	-1
1.52333	-1
1.52700	-1
1.53067	-1
1.53433	-1
1.53800	-1
1.54167	-1
1.54533	-1
1.54900	-1
1.55267	-1
1.55633	-1
1.56000	-2
1.56367	-2
1.56733	-2
1.57100	-3
1.57467	-3
1.57833	-3
1.58200	-3
1.58567	-3
1.58933	-3
1.59300	-3
1.59667	-4
1.60033	-5
1.60400	-6
1.60767	-7
1.61133	-9
1.61500	-11
1.61867	-13
1.62233	-16
1.62600	-18
1.62967	-21
1.63333	-24
1.63700	-28
1.64067	-31
1.64433	-34
1.64800	-38
1.65167	-42
1.65533	-46
1.65900	-50
1.66267	-54
1.66633	-58
1.67000	-62
1.67367	-67
1.67733	-72
1.68100	-76
1.68467	-81
1.68833	-86
1.69200	-90
1.69567	-93
1.69933	-96
1.70300	-98
1.70667	-100
1.71033	-102
1.71400	-103
1.71767	-104
1.72133	-104
1.72500	-105
1.72867	-105
1.73233	-104
1.73600	-104
1.73967	-103
1.74333	-102
1.74700	-102
1.75067	-102
1.75433	-103
1.75800	-104
1.76167	-105
1.76533	-107
1.76900	-109
1.77267	-111
1.77633	-112
1.78000	-114
1.78367	-115
1.78733	-115
1.79100	-115
1.79467	-115
1.79833	-115
1.80200	-114
1.80567	-113
1.80933	-113
1.81300	-112
1.81667	-112
1.82033	-111
1.82400	-112
1.82767	-112
1.83133	-113
1.83500	-114
1.83867	-114
1.84233	-115
1.84600	-115
1.84967	-115
1.85333	-115
1.85700	-115
1.86067	-115
1.86433	-115
1.86800	-114
1.87167	-114
1.87533	-114
1.87900	-114
1.88267	-113
1.88633	-112
1.89000	-111
1.89367	-110
1.89733	-110
1.90100	-110
1.90467	-109
1.90833	-110
1.91200	-110
1.91567	-110
1.91933	-110
1.92300	-110
1.92667	-110
1.93033	-110
1.93400	-110
1.93767	-110
1.94133	-110
1.94500	-109
1.94867	-109
1.95233	-109
1.95600	-109
1.95967	-110
1.96333	-110
1.96700	-109
1.97067	-109
1.97433	-109
1.97800	-108
1.98167	-108
1.98533	-107
1.98900	-107
1.99267	-107
1.99633	-107
2.00000	-107
2.00367	-107
2.00733	-106
2.01100	-105
2.01467	-105
2.01833	-104
2.02200	-103
2.02567	-103
2.02933	-103
2.03300	-102
2.03667	-102
2.04033	-102
2.04400	-102
2.04767	-102
2.05133	-102
2.05500	-102
2.05867	-102
2.06233	-102
2.06600	-102
2.06967	-101
2.07333	-101
2.07700	-101
2.08067	-101
2.08433	-100
2.08800	-100
2.09167	-100
2.09533	-99
2.09900	-99
2.10267	-99
2.10633	-98
2.11000	-98
2.11367	-98
2.11733	-98
2.12100	-98
2.12467	-99
2.12833	-98
2.13200	-98
2.13567	-97
2.13933	-96
2.14300	-96
2.14667	-96
2.15033	-95
2.15400	-95
2.15767	-95
2.16133	-95
2.16500	-96
2.16867	-96
2.17233	-96
2.17600	-95
2.17967	-95
2.18333	-94
2.18700	-93
2.19067	-93
2.19433	-92
2.19800	-92
2.20167	-91
2.20533	-91
2.20900	-91
2.21267	-91
2.21633	-91
2.22000	-91
2.22367	-90
2.22733	-90
2.23100	-89
2.23467	-89
2.23833	-88
2.24200	-88
2.24567	-87
2.24933	-87
2.25300	-87
2.25667	-86
2.26033	-86
2.26400	-85
2.26767	-85
2.27133	-85
2.27500	-84
2.27867	-84
2.28233	-84
2.28600	-85
2.28967	-85
2.29333	-85
2.29700	-84
2.30067	-84
2.30433	-83
2.30800	-82
2.31167	-81
2.31533	-80
2.31900	-79
2.32267	-78
2.32633	-77
2.33000	-77
2.33367	-77
2.33733	-77
2.34100	-77
2.34467	-77
2.34833	-76
2.35200	-76
2.35567	-74
2.35933	-73
2.36300	-71
2.36667	-69
2.37033	-67
2.37400	-64
2.37767	-62
2.38133	-58
2.38500	-55
2.38867	-51
2.39233	-47
2.39600	-43
2.39967	-39
2.40333	-34
2.40700	-30
2.41067	-26
2.41433	-22
2.41800	-19
2.42167	-17
2.42533	-15
2.42900	-13
2.43267	-12
2.43633	-10
2.44000	-9
2.44367	-8
2.44733	-7
2.45100	-6
2.45467	-5
2.45833	-4
2.46200	-4
2.46567	-3
2.46933	-2
2.47300	-2
2.47667	-1
2.48033	0
2.48400	1
2.48767	1
2.49133	2
2.49500	3
2.49867	4
2.50233	5
2.50600	7
2.50967	8
2.51333	9
2.51700	10
2.52067	11
2.52433	11
2.52800	11
2.53167	11
2.53533	12
2.53900	12
2.54267	13
2.54633	13
2.55000	14
2.55367	14
2.55733	15
2.56100	15
2.56467	15
2.56833	15
2.57200	15
2.57567	15
2.57933	16
2.58300	16
2.58667	16
2.59033	16
2.59400	16
2.59767	17
2.60133	17
2.60500	17
2.60867	17
2.61233	17
2.61600	17
2.61967	17
2.62333	18
2.62700	18
2.63067	19
2.63433	19
2.63800	19
2.64167	19
2.64533	19
2.64900	20
2.65267	20
2.65633	20
2.66000	21
2.66367	21
2.66733	21
2.67100	21
2.67467	21
2.67833	21
2.68200	21
2.68567	22
2.68933	22
2.69300	22
2.69667	22
2.70033	22
2.70400	22
2.70767	22
2.71133	22
2.71500	22
2.71867	23
2.72233	23
2.72600	23
2.72967	23
2.73333	23
2.73700	23
2.74067	22
2.74433	22
2.74800	22
2.75167	21
2.75533	21
2.75900	21
2.76267	22
2.76633	22
2.77000	22
2.77367	23
2.77733	23
2.78100	24
2.78467	24
2.78833	25
2.79200	25
2.79567	25
2.79933	26
2.80300	26
2.80667	26
2.81033	27
2.81400	27
2.81767	27
2.82133	28
2.82500	28
2.82867	28
2.83233	28
2.83600	28
2.83967	27
2.84333	26
2.84700	23
2.85067	19
2.85433	12
2.85800	2
2.86167	-12
2.86533	-31
2.86900	-55
2.87267	-83
2.87633	-118
2.88000	-158
2.88367	-204
2.88733	-255
2.89100	-312
2.89467	-373
2.89833	-439
2.90200	-509
2.90567	-583
2.90933	-659
2.91300	-739
2.91667	-821
2.92033	-906
2.92400	-993
2.92767	-1082
2.93133	-1172
2.93500	-1264
2.93867	-1357
2.94233	-1443
2.94600	-1509
2.94967	-1543
2.95333	-1542
2.95700	-1504
2.96067	-1437
2.96433	-1349
2.96800	-1246
2.97167	-1135
2.97533	-1023
2.97900	-913
2.98267	-809
2.98633	-712
2.99000	-622
2.99367	-542
2.99733	-469
3.00100	-405
3.00467	-349
3.00833	-299
3.01200	-256
3.01567	-219
3.01933	-186
3.02300	-159
3.02667	-135
3.03033	-114
3.03400	-96
3.03767	-81
3.04133	-68
3.04500	-57
3.04867	-47
3.05233	-39
3.05600	-32
3.05967	-27
3.06333	-21
3.06700	-17
3.07067	-13
3.07433	-10
3.07800	-7
3.08167	-5
3.08533	-3
3.08900	-1
3.09267	1
3.09633	2
3.10000	3
3.10367	4
3.10733	5
3.11100	6
3.11467	6
3.11833	7
3.12200	8
3.12567	8
3.12933	9
3.13300	9
3.13667	10
3.14033	11
3.14400	12
3.14767	13
3.15133	13
3.15500	14
3.15867	14
3.16233	15
3.16600	15
3.16967	15
3.17333	15
3.17700	15
3.18067	16
3.18433	16
3.18800	16
3.19167	16
3.19533	16
3.19900	17
3.20267	17
3.20633	17
3.21000	17
3.21367	17
3.21733	17
3.22100	18
3.22467	18
3.22833	18
3.23200	18
3.23567	19
3.23933	19
3.24300	19
3.24667	19
3.25033	19
3.25400	19
3.25767	20
3.26133	20
3.26500	20
3.26867	20
3.27233	20
3.27600	20
3.27967	21
3.28333	21
3.28700	21
3.29067	21
3.29433	21
3.29800	21
3.30167	22
3.30533	22
3.30900	22
3.31267	23
3.31633	23
3.32000	23
3.32367	24
3.32733	24
3.33100	24
3.33467	24
3.33833	25
3.34200	25
3.34567	26
3.34933	26
3.35300	26
3.35667	26
3.36033	26
3.36400	26
3.36767	26
3.37133	26
3.37500	26
3.37867	26
3.38233	26
3.38600	26
3.38967	26
3.39333	26
3.39700	26
3.40067	26
3.40433	26
3.40800	26
3.41167	27
3.41533	27
3.41900	27
3.42267	27
3.42633	27
3.43000	27
3.43367	27
3.43733	28
3.44100	28
3.44467	28
3.44833	28
3.45200	28
3.45567	28
3.45933	28
3.46300	28
3.46667	27
3.47033	27
3.47400	26
3.47767	26
3.48133	26
3.48500	25
3.48867	25
3.49233	25
3.49600	25
3.49967	25
3.50333	25
3.50700	25
3.51067	25
3.51433	24
3.51800	24
3.52167	24
3.52533	24
3.52900	24
3.53267	24
3.53633	24
3.54000	24
3.54367	24
3.54733	23
3.55100	23
3.55467	23
3.55833	23
3.56200	23
3.56567	24
3.56933	24
3.57300	24
3.57667	25
3.58033	25
3.58400	25
3.58767	26
3.59133	26
3.59500	26
3.59867	27
3.60233	27
3.60600	28
3.60967	28
3.61333	28
3.61700	28
3.62067	28
3.62433	28
3.62800	28
3.63167	28
3.63533	28
3.63900	28
3.64267	28
3.64633	28
3.65000	28
3.65367	27
3.65733	27
3.66100	27
3.66467	27
3.66833	27
3.67200	27
3.67567	27
3.67933	26
3.68300	26
3.68667	26
3.69033	26
3.69400	26
3.69767	26
3.70133	26
3.70500	26
3.70867	26
3.71233	26
3.71600	26
3.71967	26
3.72333	27
3.72700	27
3.73067	27
3.73433	26
3.73800	26
3.74167	26
3.74533	26
3.74900	26
3.75267	26
3.75633	26
3.76000	26
3.76367	26
3.76733	26
3.77100	26
3.77467	26
3.77833	26
3.78200	26
3.78567	26
3.78933	26
3.79300	26
3.79667	26
3.80033	25
3.80400	25
3.80767	25
3.81133	25
3.81500	25
3.81867	25
3.82233	25
3.82600	25
3.82967	24
3.83333	25
3.83700	25
3.84067	25
3.84433	25
3.84800	25
3.85167	25
3.85533	25
3.85900	25
3.86267	26
3.86633	26
3.87000	26
3.87367	26
3.87733	27
3.88100	27
3.88467	27
3.88833	27
3.89200	27
3.89567	27
3.89933	27
3.90300	26
3.90667	26
3.91033	26
3.91400	26
3.91767	27
3.92133	27
3.92500	27
3.92867	27
3.93233	27
3.93600	27
3.93967	27
3.94333	27
3.94700	26
3.95067	26
3.95433	26
3.95800	26
3.96167	27
3.96533	27
3.96900	27
3.97267	27
3.97633	27
3.98000	27
3.98367	27
3.98733	27
3.99100	26
3.99467	26
3.99833	26

[Chromatogram (Ch3)]
Interval(msec)	220
# of Points	1091
Start Time(min)	0.002
End Time(min)	3.998
R.Time (min)	Intensity
0.00167	-0
0.00533	-2
0.00900	-1
0.01267	-0
0.01633	-0
0.02000	1
0.02367	4
0.02733	6
0.03100	4
0.03467	1
0.03833	0
0.04200	1
0.04567	3
0.04933	2
0.05300	2
0.05667	3
0.06033	5
0.06400	6
0.06767	5
0.07133	7
0.07500	8
0.07867	8
0.08233	8
0.08600	7
0.08967	6
0.09333	6
0.09700	5
0.10067	4
0.10433	3
0.10800	3
0.11167	2
0.11533	0
0.11900	-2
0.12267	-2
0.12633	0
0.13000	0
0.13367	1
0.13733	2
0.14100	1
0.14467	-0
0.14833	-0
0.15200	0
0.15567	2
0.15933	5
0.16300	6
0.16667	7
0.17033	6
0.17400	3
0.17767	3
0.18133	4
0.18500	5
0.18867	6
0.19233	3
0.19600	1
0.19967	2
0.20333	3
0.20700	2
0.21067	1
0.21433	2
0.21800	2
0.22167	1
0.22533	-1
0.22900	-2
0.23267	-3
0.23633	-4
0.24000	-5
0.24367	-4
0.24733	-4
0.25100	-3
0.25467	-2
0.25833	-1
0.26200	-1
0.26567	-0
0.26933	-1
0.27300	-3
0.27667	-2
0.28033	-1
0.28400	1
0.28767	2
0.29133	1
0.29500	-0
0.29867	-0
0.30233	-1
0.30600	-4
0.30967	-6
0.31333	-6
0.31700	-7
0.32067	-6
0.32433	-5
0.32800	-4
0.33167	-5
0.33533	-4
0.33900	-0
0.34267	2
0.34633	3
0.35000	4
0.35367	5
0.35733	6
0.36100	6
0.36467	6
0.36833	7
0.37200	7
0.37567	8
0.37933	7
0.38300	4
0.38667	1
0.39033	1
0.39400	1
0.39767	2
0.40133	0
0.40500	-2
0.40867	-2
0.41233	-1
0.41600	1
0.41967	2
0.42333	2
0.42700	1
0.43067	2
0.43433	1
0.43800	-0
0.44167	-0
0.44533	1
0.44900	3
0.45267	6
0.45633	6
0.46000	4
0.46367	2
0.46733	3
0.47100	3
0.47467	2
0.47833	1
0.48200	2
0.48567	3
0.48933	4
0.49300	3
0.49667	3
0.50033	1
0.50400	-1
0.50767	-1
0.51133	-0
0.51500	1
0.51867	1
0.52233	-1
0.52600	-2
0.52967	-1
0.53333	1
0.53700	1
0.54067	1
0.54433	1
0.54800	4
0.55167	5
0.55533	4
0.55900	4
0.56267	5
0.56633	3
0.57000	-0
0.57367	-2
0.57733	-2
0.58100	-2
0.58467	-2
0.58833	-2
0.59200	-4
0.59567	-3
0.59933	-1
0.60300	1
0.60667	1
0.61033	1
0.61400	-1
0.61767	-3
0.62133	-3
0.62500	-1
0.62867	2
0.63233	3
0.63600	2
0.63967	-0
0.64333	-0
0.64700	0
0.65067	0
0.65433	-0
0.65800	-0
0.66167	0
0.66533	1
0.66900	1
0.67267	1
0.67633	1
0.68000	0
0.68367	1
0.68733	3
0.69100	3
0.69467	3
0.69833	3
0.70200	4
0.70567	5
0.70933	5
0.71300	5
0.71667	5
0.72033	4
0.72400	3
0.72767	2
0.73133	3
0.73500	5
0.73867	6
0.74233	7
0.74600	7
0.74967	6
0.75333	7
0.75700	7
0.76067	7
0.76433	6
0.76800	5
0.77167	7
0.77533	8
0.77900	7
0.78267	4
0.78633	4
0.79000	4
0.79367	3
0.79733	2
0.80100	3
0.80467	4
0.80833	7
0.81200	8
0.81567	7
0.81933	7
0.82300	7
0.82667	9
0.83033	10
0.83400	9
0.83767	8
0.84133	7
0.84500	7
0.84867	6
0.85233	6
0.85600	7
0.85967	6
0.86333	6
0.86700	6
0.87067	7
0.87433	5
0.87800	4
0.88167	5
0.88533	6
0.88900	7
0.89267	9
0.89633	10
0.90000	9
0.90367	8
0.90733	8
0.91100	9
0.91467	9
0.91833	8
0.92200	8
0.92567	8
0.92933	8
0.93300	8
0.93667	7
0.94033	5
0.94400	7
0.94767	9
0.95133	8
0.95500	6
0.95867	5
0.96233	5
0.96600	4
0.96967	5
0.97333	5
0.97700	7
0.98067	9
0.98433	10
0.98800	10
0.99167	9
0.99533	9
0.99900	9
1.00267	8
1.00633	8
1.01000	7
1.01367	5
1.01733	7
1.02100	7
1.02467	7
1.02833	8
1.03200	10
1.03567	11
1.03933	13
1.04300	12
1.04667	11
1.05033	10
1.05400	9
1.05767	9
1.06133	10
1.06500	12
1.06867	14
1.07233	15
1.07600	16
1.07967	16
1.08333	16
1.08700	16
1.09067	15
1.09433	15
1.09800	14
1.10167	15
1.10533	15
1.10900	15
1.11267	14
1.11633	14
1.12000	13
1.12367	12
1.12733	12
1.13100	12
1.13467	13
1.13833	14
1.14200	14
1.14567	14
1.14933	16
1.15300	17
1.15667	18
1.16033	17
1.16400	15
1.16767	14
1.17133	13
1.17500	14
1.17867	16
1.18233	18
1.18600	19
1.18967	21
1.19333	20
1.19700	19
1.20067	18
1.20433	18
1.20800	17
1.21167	15
1.21533	15
1.21900	13
1.22267	11
1.22633	12
1.23000	13
1.23367	16
1.23733	18
1.24100	19
1.24467	18
1.24833	15
1.25200	14
1.25567	13
1.25933	12
1.26300	11
1.26667	10
1.27033	10
1.27400	11
1.27767	13
1.28133	14
1.28500	14
1.28867	15
1.29233	17
1.29600	17
1.29967	18
1.30333	18
1.30700	18
1.31067	17
1.31433	14
1.31800	13
1.32167	13
1.32533	12
1.32900	11
1.33267	11
1.33633	11
1.34000	13
1.34367	15
1.34733	15
1.35100	15
1.35467	15
1.35833	13
1.36200	12
1.36567	13
1.36933	13
1.37300	12
1.37667	12
1.38033	11
1.38400	11
1.38767	10
1.39133	12
1.39500	14
1.39867	15
1.40233	17
1.40600	19
1.40967	20
1.41333	20
1.41700	18
1.42067	17
1.42433	15
1.42800	12
1.43167	12
1.43533	13
1.43900	16
1.44267	20
1.44633	23
1.45000	23
1.45367	22
1.45733	22
1.46100	22
1.46467	22
1.46833	23
1.47200	23
1.47567	21
1.47933	21
1.48300	19
1.48667	16
1.49033	15
1.49400	16
1.49767	18
1.50133	19
1.50500	20
1.50867	19
1.51233	18
1.51600	18
1.51967	20
1.52333	22
1.52700	22
1.53067	23
1.53433	21
1.53800	17
1.54167	15
1.54533	16
1.54900	17
1.55267	15
1.55633	15
1.56000	16
1.56367	16
1.56733	17
1.57100	17
1.57467	17
1.57833	18
1.58200	18
1.58567	17
1.58933	19
1.59300	19
1.59667	20
1.60033	21
1.60400	21
1.60767	22
1.61133	22
1.61500	21
1.61867	22
1.62233	24
1.62600	25
1.62967	25
1.63333	25
1.63700	25
1.64067	25
1.64433	26
1.64800	27
1.65167	26
1.65533	27
1.65900	28
1.66267	28
1.66633	29
1.67000	30
1.67367	31
1.67733	33
1.68100	35
1.68467	34
1.68833	33
1.69200	32
1.69567	30
1.69933	31
1.70300	30
1.70667	31
1.71033	32
1.71400	33
1.71767	35
1.72133	36
1.72500	37
1.72867	37
1.73233	37
1.73600	36
1.73967	36
1.74333	36
1.74700	39
1.75067	41
1.75433	41
1.75800	41
1.76167	41
1.76533	42
1.76900	42
1.77267	42
1.77633	42
1.78000	43
1.78367	43
1.78733	40
1.79100	38
1.79467	38
1.79833	39
1.80200	41
1.80567	43
1.80933	44
1.81300	46
1.81667	48
1.82033	49
1.82400	49
1.82767	51
1.83133	52
1.83500	52
1.83867	52
1.84233	51
1.84600	52
1.84967	53
1.85333	54
1.85700	54
1.86067	55
1.86433	56
1.86800	54
1.87167	54
1.87533	56
1.87900	57
1.88267	60
1.88633	62
1.89000	63
1.89367	64
1.89733	65
1.90100	67
1.90467	69
1.90833	69
1.91200	71
1.91567	73
1.91933	75
1.92300	78
1.92667	80
1.93033	79
1.93400	79
1.93767	80
1.94133	80
1.94500	80
1.94867	81
1.95233	83
1.95600	86
1.95967	88
1.96333	89
1.96700	91
1.97067	92
1.97433	95
1.97800	97
1.98167	97
1.98533	98
1.98900	99
1.99267	99
1.99633	99
2.00000	99
2.00367	101
2.00733	103
2.01100	106
2.01467	106
2.01833	106
2.02200	106
2.02567	106
2.02933	110
2.03300	113
2.03667	114
2.04033	116
2.04400	115
2.04767	114
2.05133	115
2.05500	116
2.05867	116
2.06233	118
2.06600	118
2.06967	118
2.07333	119
2.07700	120
2.08067	123
2.08433	126
2.08800	129
2.09167	132
2.09533	133
2.09900	135
2.10267	138
2.10633	139
2.11000	141
2.11367	141
2.11733	143
2.12100	143
2.12467	143
2.12833	144
2.13200	145
2.13567	147
2.13933	149
2.14300	151
2.14667	154
2.15033	155
2.15400	155
2.15767	156
2.16133	156
2.16500	158
2.16867	160
2.17233	160
2.17600	158
2.17967	158
2.18333	160
2.18700	161
2.19067	163
2.19433	168
2.19800	171
2.20167	172
2.20533	173
2.20900	174
2.21267	176
2.21633	178
2.22000	178
2.22367	178
2.22733	178
2.23100	180
2.23467	182
2.23833	183
2.24200	183
2.24567	183
2.24933	184
2.25300	184
2.25667	182
2.26033	184
2.26400	189
2.26767	190
2.27133	190
2.27500	190
2.27867	191
2.28233	193
2.28600	195
2.28967	196
2.29333	198
2.29700	199
2.30067	199
2.30433	200
2.30800	201
2.31167	203
2.31533	204
2.31900	204
2.32267	203
2.32633	204
2.33000	204
2.33367	206
2.33733	207
2.34100	209
2.34467	210
2.34833	210
2.35200	211
2.35567	212
2.35933	215
2.36300	217
2.36667	217
2.37033	216
2.37400	216
2.37767	216
2.38133	216
2.38500	215
2.38867	214
2.39233	216
2.39600	219
2.39967	224
2.40333	226
2.40700	228
2.41067	229
2.41433	231
2.41800	232
2.42167	232
2.42533	231
2.42900	230
2.43267	230
2.43633	232
2.44000	235
2.44367	286
2.44733	424
2.45100	574
2.45467	695
2.45833	763
2.46200	768
2.46567	735
2.46933	696
2.47300	663
2.47667	644
2.48033	629
2.48400	605
2.48767	566
2.49133	522
2.49500	479
2.49867	441
2.50233	412
2.50600	394
2.50967	388
2.51333	395
2.51700	410
2.52067	431
2.52433	453
2.52800	465
2.53167	464
2.53533	452
2.53900	431
2.54267	403
2.54633	373
2.55000	343
2.55367	316
2.55733	294
2.56100	278
2.56467	266
2.56833	256
2.57200	251
2.57567	247
2.57933	243
2.58300	241
2.58667	241
2.59033	242
2.59400	246
2.59767	251
2.60133	254
2.60500	256
2.60867	254
2.61233	249
2.61600	242
2.61967	234
2.62333	225
2.62700	216
2.63067	207
2.63433	198
2.63800	192
2.64167	185
2.64533	177
2.64900	165
2.65267	153
2.65633	141
2.66000	131
2.66367	122
2.66733	110
2.67100	99
2.67467	92
2.67833	87
2.68200	82
2.68567	79
2.68933	76
2.69300	75
2.69667	74
2.70033	75
2.70400	77
2.70767	80
2.71133	80
2.71500	81
2.71867	83
2.72233	87
2.72600	92
2.72967	95
2.73333	97
2.73700	100
2.74067	102
2.74433	106
2.74800	110
2.75167	112
2.75533	115
2.75900	119
2.76267	121
2.76633	123
2.77000	124
2.77367	125
2.77733	125
2.78100	127
2.78467	130
2.78833	134
2.79200	139
2.79567	145
2.79933	149
2.80300	154
2.80667	158
2.81033	164
2.81400	171
2.81767	183
2.82133	210
2.82500	266
2.82867	386
2.83233	622
2.83600	1032
2.83967	1681
2.84333	2617
2.84700	3844
2.85067	5331
2.85433	7003
2.85800	8756
2.86167	10465
2.86533	11994
2.86900	13227
2.87267	14087
2.87633	14529
2.88000	14565
2.88367	14247
2.88733	13644
2.89100	12835
2.89467	11897
2.89833	10894
2.90200	9882
2.90567	8897
2.90933	7962
2.91300	7089
2.91667	6284
2.92033	5553
2.92400	4895
2.92767	4307
2.93133	3786
2.93500	3323
2.93867	2915
2.94233	2555
2.94600	2240
2.94967	1964
2.95333	1722
2.95700	1512
2.96067	1329
2.96433	1168
2.96800	1030
2.97167	910
2.97533	806
2.97900	715
2.98267	638
2.98633	570
2.99000	510
2.99367	457
2.99733	413
3.00100	377
3.00467	346
3.00833	319
3.01200	296
3.01567	277
3.01933	260
3.02300	246
3.02667	232
3.03033	219
3.03400	208
3.03767	198
3.04133	189
3.04500	184
3.04867	180
3.05233	175
3.05600	171
3.05967	169
3.06333	168
3.06700	167
3.07067	165
3.07433	162
3.07800	161
3.08167	159
3.08533	158
3.08900	156
3.09267	153
3.09633	135
3.10000	110
3.10367	99
3.10733	108
3.11100	136
3.11467	176
3.11833	221
3.12200	267
3.12567	310
3.12933	350
3.13300	386
3.13667	418
3.14033	447
3.14400	474
3.14767	501
3.15133	522
3.15500	539
3.15867	556
3.16233	570
3.16600	583
3.16967	593
3.17333	602
3.17700	610
3.18067	620
3.18433	628
3.18800	637
3.19167	647
3.19533	655
3.19900	662
3.20267	670
3.20633	675
3.21000	680
3.21367	686
3.21733	692
3.22100	696
3.22467	700
3.22833	703
3.23200	707
3.23567	711
3.23933	715
3.24300	721
3.24667	726
3.25033	731
3.25400	736
3.25767	740
3.26133	742
3.26500	745
3.26867	747
3.27233	749
3.27600	750
3.27967	753
3.28333	757
3.28700	762
3.29067	764
3.29433	766
3.29800	769
3.30167	773
3.30533	776
3.30900	777
3.31267	779
3.31633	779
3.32000	781
3.32367	781
3.32733	784
3.33100	786
3.33467	787
3.33833	787
3.34200	788
3.34567	788
3.34933	788
3.35300	786
3.35667	786
3.36033	785
3.36400	783
3.36767	779
3.37133	775
3.37500	774
3.37867	774
3.38233	775
3.38600	774
3.38967	773
3.39333	771
3.39700	770
3.40067	769
3.40433	767
3.40800	765
3.41167	764
3.41533	764
3.41900	761
3.42267	756
3.42633	752
3.43000	751
3.43367	751
3.43733	751
3.44100	750
3.44467	748
3.44833	747
3.45200	747
3.45567	747
3.45933	747
3.46300	744
3.46667	743
3.47033	742
3.47400	740
3.47767	738
3.48133	736
3.48500	736
3.48867	737
3.49233	736
3.49600	736
3.49967	734
3.50333	732
3.50700	730
3.51067	726
3.51433	726
3.51800	726
3.52167	725
3.52533	723
3.52900	722
3.53267	721
3.53633	719
3.54000	718
3.54367	717
3.54733	717
3.55100	717
3.55467	718
3.55833	717
3.56200	715
3.56567	713
3.56933	713
3.57300	712
3.57667	713
3.58033	711
3.58400	709
3.58767	710
3.59133	709
3.59500	708
3.59867	708
3.60233	709
3.60600	708
3.60967	706
3.61333	703
3.61700	701
3.62067	700
3.62433	700
3.62800	699
3.63167	698
3.63533	697
3.63900	696
3.64267	697
3.64633	697
3.65000	696
3.65367	695
3.65733	694
3.66100	692
3.66467	689
3.66833	687
3.67200	684
3.67567	682
3.67933	680
3.68300	677
3.68667	675
3.69033	674
3.69400	672
3.69767	670
3.70133	670
3.70500	672
3.70867	671
3.71233	668
3.71600	667
3.71967	664
3.72333	661
3.72700	660
3.73067	659
3.73433	658
3.73800	657
3.74167	655
3.74533	654
3.74900	650
3.75267	647
3.75633	645
3.76000	646
3.76367	645
3.76733	641
3.77100	638
3.77467	635
3.77833	631
3.78200	628
3.78567	628
3.78933	625
3.79300	624
3.79667	625
3.80033	626
3.80400	627
3.80767	627
3.81133	624
3.81500	621
3.81867	616
3.82233	612
3.82600	610
3.82967	607
3.83333	604
3.83700	601
3.84067	599
3.84433	598
3.84800	597
3.85167	596
3.85533	595
3.85900	595
3.86267	594
3.86633	593
3.87000	589
3.87367	586
3.87733	584
3.88100	581
3.88467	578
3.88833	576
3.89200	574
3.89567	572
3.89933	570
3.90300	568
3.90667	568
3.91033	569
3.91400	569
3.91767	569
3.92133	570
3.92500	569
3.92867	565
3.93233	559
3.93600	553
3.93967	549
3.94333	546
3.94700	543
3.95067	542
3.95433	543
3.95800	545
3.96167	547
3.96533	548
3.96900	547
3.97267	547
3.97633	546
3.98000	544
3.98367	541
3.98733	540
3.99100	538
3.99467	536
3.99833	533

[Status Trace (Column Oven Temperature)]
Interval(msec)	1000
# of Points	240
Start Time(min)	0.008
End Time(min)	3.991
Intensity Units	
Intensity Multiplier	1
R.Time (min)	Intensity
0.00763	35.05
0.02430	35.05
0.04097	35.05
0.05763	35.05
0.07430	35.06
0.09097	35.08
0.10763	35.07
0.12430	35.07
0.14097	35.06
0.15763	35.06
0.17430	35.06
0.19097	35.07
0.20763	35.06
0.22430	35.06
0.24097	35.07
0.25763	35.06
0.27430	35.05
0.29097	35.04
0.30763	35.04
0.32430	35.03
0.34097	35.02
0.35763	35.00
0.37430	35.01
0.39097	35.02
0.40763	35.02
0.42430	35.01
0.44097	34.99
0.45763	34.99
0.47430	34.98
0.49097	34.99
0.50763	34.99
0.52430	34.99
0.54097	34.99
0.55763	34.98
0.57430	34.98
0.59097	34.98
0.60763	34.99
0.62430	34.99
0.64097	35.00
0.65763	35.01
0.67430	35.03
0.69097	35.02
0.70763	35.02
0.72430	35.03
0.74097	35.02
0.75763	35.02
0.77430	35.02
0.79097	35.02
0.80763	35.02
0.82430	35.02
0.84097	35.00
0.85763	34.99
0.87430	35.00
0.89097	34.99
0.90763	35.00
0.92430	34.99
0.94097	34.99
0.95763	35.00
0.97430	35.00
0.99097	35.01
1.00763	35.01
1.02430	35.01
1.04097	35.02
1.05763	35.02
1.07430	35.01
1.09097	35.01
1.10763	35.00
1.12430	34.99
1.14097	34.99
1.15763	34.99
1.17430	34.98
1.19097	34.97
1.20763	34.97
1.22430	34.97
1.24097	34.97
1.25763	34.97
1.27430	34.97
1.29097	34.99
1.30763	35.01
1.32430	35.01
1.34097	35.01
1.35763	35.01
1.37430	35.01
1.39097	35.01
1.40763	35.01
1.42430	35.02
1.44097	35.01
1.45763	35.02
1.47430	35.02
1.49097	35.01
1.50763	35.00
1.52430	35.00
1.54097	35.00
1.55763	35.00
1.57430	34.99
1.59097	35.00
1.60763	35.07
1.62430	35.20
1.64097	35.39
1.65763	35.64
1.67430	35.96
1.69097	36.34
1.70763	36.69
1.72430	37.01
1.74097	37.31
1.75763	37.64
1.77430	38.01
1.79097	38.34
1.80763	38.66
1.82430	38.98
1.84097	39.34
1.85763	39.66
1.87430	40.01
1.89097	40.31
1.90763	40.65
1.92430	40.98
1.94097	41.30
1.95763	41.63
1.97430	41.94
1.99097	42.28
2.00763	42.60
2.02430	42.91
2.04097	43.25
2.05763	43.57
2.07430	43.90
2.09097	44.20
2.10763	44.54
2.12430	44.87
2.14097	45.19
2.15763	45.52
2.17430	45.87
2.19097	46.18
2.20763	46.53
2.22430	46.87
2.24097	47.19
2.25763	47.52
2.27430	47.83
2.29097	48.20
2.30763	48.51
2.32430	48.83
2.34097	49.16
2.35763	49.41
2.37430	49.58
2.39097	49.64
2.40763	49.62
2.42430	49.64
2.44097	49.63
2.45763	49.65
2.47430	49.66
2.49097	49.69
2.50763	49.69
2.52430	49.71
2.54097	49.72
2.55763	49.73
2.57430	49.75
2.59097	49.76
2.60763	49.79
2.62430	49.80
2.64097	49.80
2.65763	49.82
2.67430	49.83
2.69097	49.83
2.70763	49.84
2.72430	49.85
2.74097	49.87
2.75763	49.88
2.77430	49.89
2.79097	49.89
2.80763	49.87
2.82430	49.85
2.84097	49.86
2.85763	49.88
2.87430	49.89
2.89097	49.91
2.90763	49.92
2.92430	49.93
2.94097	49.95
2.95763	49.96
2.97430	49.97
2.99097	49.97
3.00763	49.97
3.02430	49.98
3.04097	49.99
3.05763	50.00
3.07430	50.01
3.09097	50.02
3.10763	50.04
3.12430	50.05
3.14097	50.05
3.15763	50.06
3.17430	50.06
3.19097	50.07
3.20763	50.08
3.22430	50.09
3.24097	50.09
3.25763	50.10
3.27430	50.10
3.29097	50.11
3.30763	50.10
3.32430	50.09
3.34097	50.08
3.35763	50.08
3.37430	50.07
3.39097	50.06
3.40763	50.05
3.42430	50.03
3.44097	50.02
3.45763	50.01
3.47430	50.03
3.49097	50.04
3.50763	50.04
3.52430	50.05
3.54097	50.06
3.55763	50.06
3.57430	50.06
3.59097	50.05
3.60763	50.05
3.62430	50.04
3.64097	50.05
3.65763	50.05
3.67430	50.05
3.69097	50.05
3.70763	50.05
3.72430	50.05
3.74097	50.05
3.75763	50.05
3.77430	50.05
3.79097	50.06
3.80763	50.07
3.82430	50.06
3.84097	50.07
3.85763	50.07
3.87430	50.07
3.89097	50.06
3.90763	50.06
3.92430	50.06
3.94097	50.06
3.95763	50.05
3.97430	50.04
3.99097	50.04

[Status Trace (Injection Unit Temperature)]
Interval(msec)	1000
# of Points	240
Start Time(min)	0.008
End Time(min)	3.991
Intensity Units	
Intensity Multiplier	1
R.Time (min)	Intensity
0.00763	99.99
0.02430	99.99
0.04097	99.99
0.05763	99.98
0.07430	99.99
0.09097	99.99
0.10763	99.98
0.12430	99.99
0.14097	99.99
0.15763	99.98
0.17430	99.99
0.19097	99.98
0.20763	99.99
0.22430	99.98
0.24097	99.99
0.25763	99.98
0.27430	99.98
0.29097	99.98
0.30763	99.98
0.32430	99.98
0.34097	99.99
0.35763	99.98
0.37430	99.99
0.39097	99.98
0.40763	99.99
0.42430	99.98
0.44097	99.98
0.45763	99.98
0.47430	99.98
0.49097	99.98
0.50763	99.98
0.52430	99.98
0.54097	99.98
0.55763	99.98
0.57430	99.98
0.59097	99.99
0.60763	99.98
0.62430	99.97
0.64097	99.98
0.65763	99.98
0.67430	99.98
0.69097	99.98
0.70763	99.98
0.72430	99.99
0.74097	99.99
0.75763	99.98
0.77430	99.98
0.79097	99.98
0.80763	99.98
0.82430	99.99
0.84097	99.98
0.85763	99.99
0.87430	99.98
0.89097	99.99
0.90763	99.98
0.92430	99.99
0.94097	99.99
0.95763	99.99
0.97430	99.99
0.99097	99.98
1.00763	99.98
1.02430	99.98
1.04097	99.99
1.05763	99.99
1.07430	99.98
1.09097	99.99
1.10763	99.99
1.12430	99.98
1.14097	99.98
1.15763	99.99
1.17430	99.99
1.19097	99.98
1.20763	99.98
1.22430	99.98
1.24097	99.98
1.25763	99.98
1.27430	99.98
1.29097	99.98
1.30763	99.99
1.32430	99.98
1.34097	99.98
1.35763	99.98
1.37430	99.98
1.39097	99.98
1.40763	99.98
1.42430	99.98
1.44097	99.98
1.45763	99.98
1.47430	99.99
1.49097	99.99
1.50763	99.98
1.52430	99.99
1.54097	99.98
1.55763	99.98
1.57430	99.98
1.59097	99.98
1.60763	99.98
1.62430	99.98
1.64097	99.98
1.65763	99.98
1.67430	99.98
1.69097	99.98
1.70763	99.98
1.72430	99.98
1.74097	99.98
1.75763	99.98
1.77430	99.98
1.79097	99.99
1.80763	99.99
1.82430	99.98
1.84097	99.98
1.85763	99.99
1.87430	99.98
1.89097	99.99
1.90763	99.99
1.92430	99.98
1.94097	99.98
1.95763	99.98
1.97430	99.98
1.99097	99.98
2.00763	99.98
2.02430	99.98
2.04097	99.98
2.05763	99.98
2.07430	99.98
2.09097	99.98
2.10763	99.98
2.12430	99.98
2.14097	99.98
2.15763	99.97
2.17430	99.97
2.19097	99.97
2.20763	99.97
2.22430	99.97
2.24097	99.97
2.25763	99.97
2.27430	99.97
2.29097	99.97
2.30763	99.96
2.32430	99.97
2.34097	99.97
2.35763	99.96
2.37430	99.96
2.39097	99.96
2.40763	99.96
2.42430	99.96
2.44097	99.97
2.45763	99.96
2.47430	99.97
2.49097	99.96
2.50763	99.96
2.52430	99.96
2.54097	99.97
2.55763	99.97
2.57430	99.97
2.59097	99.97
2.60763	99.97
2.62430	99.97
2.64097	99.97
2.65763	99.97
2.67430	99.97
2.69097	99.98
2.70763	99.98
2.72430	99.98
2.74097	99.98
2.75763	99.99
2.77430	99.99
2.79097	99.99
2.80763	99.99
2.82430	100.00
2.84097	100.00
2.85763	99.99
2.87430	100.00
2.89097	100.00
2.90763	100.00
2.92430	100.01
2.94097	100.00
2.95763	100.01
2.97430	100.01
2.99097	100.01
3.00763	100.01
3.02430	100.01
3.04097	100.01
3.05763	100.02
3.07430	100.01
3.09097	100.02
3.10763	100.02
3.12430	100.02
3.14097	100.02
3.15763	100.03
3.17430	100.02
3.19097	100.03
3.20763	100.03
3.22430	100.03
3.24097	100.03
3.25763	100.03
3.27430	100.03
3.29097	100.04
3.30763	100.03
3.32430	100.04
3.34097	100.04
3.35763	100.04
3.37430	100.04
3.39097	100.04
3.40763	100.04
3.42430	100.04
3.44097	100.04
3.45763	100.04
3.47430	100.05
3.49097	100.04
3.50763	100.05
3.52430	100.05
3.54097	100.05
3.55763	100.05
3.57430	100.05
3.59097	100.05
3.60763	100.05
3.62430	100.05
3.64097	100.05
3.65763	100.05
3.67430	100.05
3.69097	100.05
3.70763	100.05
3.72430	100.05
3.74097	100.05
3.75763	100.05
3.77430	100.05
3.79097	100.05
3.80763	100.05
3.82430	100.05
3.84097	100.05
3.85763	100.05
3.87430	100.05
3.89097	100.05
3.90763	100.05
3.92430	100.04
3.94097	100.04
3.95763	100.04
3.97430	100.05
3.99097	100.05

[Status Trace (Carrier Gas Pressure)]
Interval(msec)	1000
# of Points	240
Start Time(min)	0.008
End Time(min)	3.991
Intensity Units	
Intensity Multiplier	1
R.Time (min)	Intensity
0.00763	58.00
0.02430	55.38
0.04097	57.05
0.05763	59.24
0.07430	59.39
0.09097	58.07
0.10763	57.98
0.12430	58.01
0.14097	58.01
0.15763	58.01
0.17430	58.00
0.19097	58.00
0.20763	58.00
0.22430	58.00
0.24097	58.00
0.25763	58.00
0.27430	58.00
0.29097	58.00
0.30763	58.00
0.32430	58.00
0.34097	58.00
0.35763	58.00
0.37430	58.00
0.39097	58.00
0.40763	58.00
0.42430	58.00
0.44097	58.00
0.45763	58.00
0.47430	58.00
0.49097	58.00
0.50763	58.00
0.52430	58.00
0.54097	58.00
0.55763	58.00
0.57430	58.00
0.59097	58.00
0.60763	58.00
0.62430	58.00
0.64097	58.00
0.65763	58.00
0.67430	58.00
0.69097	58.00
0.70763	58.00
0.72430	58.00
0.74097	58.00
0.75763	58.00
0.77430	58.00
0.79097	58.00
0.80763	58.00
0.82430	58.00
0.84097	58.00
0.85763	58.00
0.87430	58.00
0.89097	58.00
0.90763	58.00
0.92430	58.00
0.94097	58.00
0.95763	58.00
0.97430	58.00
0.99097	58.00
1.00763	58.00
1.02430	58.00
1.04097	58.00
1.05763	58.00
1.07430	58.00
1.09097	58.00
1.10763	58.00
1.12430	58.00
1.14097	58.00
1.15763	58.00
1.17430	58.00
1.19097	58.00
1.20763	58.00
1.22430	58.00
1.24097	58.00
1.25763	58.00
1.27430	58.00
1.29097	58.00
1.30763	58.00
1.32430	58.00
1.34097	58.00
1.35763	58.00
1.37430	58.00
1.39097	58.00
1.40763	58.00
1.42430	58.00
1.44097	58.00
1.45763	58.00
1.47430	58.00
1.49097	58.00
1.50763	58.00
1.52430	58.00
1.54097	58.00
1.55763	58.00
1.57430	58.00
1.59097	58.00
1.60763	58.00
1.62430	58.00
1.64097	58.00
1.65763	58.00
1.67430	58.01
1.69097	58.01
1.70763	58.00
1.72430	58.00
1.74097	58.00
1.75763	58.00
1.77430	58.00
1.79097	58.00
1.80763	58.00
1.82430	58.00
1.84097	58.00
1.85763	58.00
1.87430	58.00
1.89097	58.00
1.90763	58.00
1.92430	58.00
1.94097	58.00
1.95763	58.00
1.97430	58.00
1.99097	58.00
2.00763	58.00
2.02430	58.00
2.04097	58.00
2.05763	58.00
2.07430	58.00
2.09097	58.00
2.10763	58.00
2.12430	58.00
2.14097	58.00
2.15763	58.00
2.17430	58.00
2.19097	58.00
2.20763	58.00
2.22430	58.00
2.24097	58.00
2.25763	58.00
2.27430	58.00
2.29097	58.00
2.30763	58.00
2.32430	58.00
2.34097	58.00
2.35763	58.00
2.37430	58.00
2.39097	57.99
2.40763	57.99
2.42430	58.00
2.44097	58.00
2.45763	58.00
2.47430	58.00
2.49097	58.00
2.50763	57.99
2.52430	57.98
2.54097	58.00
2.55763	58.00
2.57430	58.00
2.59097	58.00
2.60763	58.00
2.62430	58.00
2.64097	58.00
2.65763	58.00
2.67430	58.00
2.69097	58.00
2.70763	58.00
2.72430	58.00
2.74097	58.00
2.75763	58.00
2.77430	58.00
2.79097	58.00
2.80763	58.00
2.82430	58.00
2.84097	58.00
2.85763	58.00
2.87430	58.00
2.89097	58.00
2.90763	58.00
2.92430	58.00
2.94097	58.00
2.95763	58.00
2.97430	58.00
2.99097	58.00
3.00763	58.00
3.02430	58.00
3.04097	58.00
3.05763	58.00
3.07430	58.00
3.09097	58.00
3.10763	58.00
3.12430	58.00
3.14097	58.00
3.15763	58.00
3.17430	58.00
3.19097	58.00
3.20763	58.00
3.22430	58.00
3.24097	58.00
3.25763	58.00
3.27430	58.00
3.29097	58.00
3.30763	58.00
3.32430	58.00
3.34097	58.00
3.35763	58.00
3.37430	58.00
3.39097	58.00
3.40763	58.00
3.42430	58.00
3.44097	58.00
3.45763	58.00
3.47430	58.00
3.49097	58.00
3.50763	58.00
3.52430	58.00
3.54097	58.00
3.55763	58.00
3.57430	58.00
3.59097	58.00
3.60763	58.00
3.62430	58.00
3.64097	58.00
3.65763	58.00
3.67430	58.00
3.69097	58.00
3.70763	58.00
3.72430	58.00
3.74097	58.00
3.75763	58.00
3.77430	58.00
3.79097	58.00
3.80763	58.00
3.82430	58.00
3.84097	58.00
3.85763	58.00
3.87430	58.00
3.89097	58.00
3.90763	58.00
3.92430	58.00
3.94097	58.00
3.95763	58.00
3.97430	58.00
3.99097	58.00

[Status Trace (Carrier Gas Flow)]
Interval(msec)	1000
# of Points	240
Start Time(min)	0.008
End Time(min)	3.991
Intensity Units	
Intensity Multiplier	1
R.Time (min)	Intensity
0.00763	34.51
0.02430	34.53
0.04097	34.55
0.05763	34.55
0.07430	34.51
0.09097	34.51
0.10763	34.52
0.12430	34.52
0.14097	34.52
0.15763	34.52
0.17430	34.51
0.19097	34.52
0.20763	34.52
0.22430	34.52
0.24097	34.52
0.25763	34.52
0.27430	34.52
0.29097	34.51
0.30763	34.52
0.32430	34.52
0.34097	34.52
0.35763	34.52
0.37430	34.52
0.39097	34.52
0.40763	34.52
0.42430	34.52
0.44097	34.52
0.45763	34.52
0.47430	34.52
0.49097	34.52
0.50763	34.52
0.52430	34.52
0.54097	34.51
0.55763	34.52
0.57430	34.51
0.59097	34.52
0.60763	34.52
0.62430	34.52
0.64097	34.52
0.65763	34.52
0.67430	34.52
0.69097	34.52
0.70763	34.52
0.72430	34.53
0.74097	34.52
0.75763	34.52
0.77430	34.52
0.79097	34.52
0.80763	34.52
0.82430	34.52
0.84097	34.53
0.85763	34.51
0.87430	34.51
0.89097	34.52
0.90763	34.52
0.92430	34.52
0.94097	34.52
0.95763	34.52
0.97430	34.52
0.99097	34.51
1.00763	34.51
1.02430	34.52
1.04097	34.52
1.05763	34.52
1.07430	34.52
1.09097	34.52
1.10763	34.52
1.12430	34.52
1.14097	34.52
1.15763	34.52
1.17430	34.52
1.19097	34.52
1.20763	34.51
1.22430	34.51
1.24097	34.52
1.25763	34.52
1.27430	34.51
1.29097	34.51
1.30763	34.52
1.32430	34.52
1.34097	34.52
1.35763	34.52
1.37430	34.52
1.39097	34.52
1.40763	34.52
1.42430	34.52
1.44097	34.52
1.45763	34.52
1.47430	34.52
1.49097	34.52
1.50763	34.52
1.52430	34.52
1.54097	34.52
1.55763	34.51
1.57430	34.52
1.59097	34.52
1.60763	34.52
1.62430	34.53
1.64097	34.52
1.65763	34.52
1.67430	34.52
1.69097	34.52
1.70763	34.52
1.72430	34.52
1.74097	34.52
1.75763	34.52
1.77430	34.52
1.79097	34.51
1.80763	34.52
1.82430	34.52
1.84097	34.52
1.85763	34.52
1.87430	34.52
1.89097	34.52
1.90763	34.52
1.92430	34.52
1.94097	34.52
1.95763	34.52
1.97430	34.52
1.99097	34.52
2.00763	34.52
2.02430	34.52
2.04097	34.51
2.05763	34.52
2.07430	34.52
2.09097	34.52
2.10763	34.52
2.12430	34.52
2.14097	34.52
2.15763	34.52
2.17430	34.52
2.19097	34.52
2.20763	34.51
2.22430	34.52
2.24097	34.52
2.25763	34.52
2.27430	34.52
2.29097	34.52
2.30763	34.52
2.32430	34.52
2.34097	34.52
2.35763	34.52
2.37430	34.51
2.39097	34.52
2.40763	34.52
2.42430	34.52
2.44097	34.52
2.45763	34.52
2.47430	34.52
2.49097	34.52
2.50763	34.36
2.52430	34.52
2.54097	34.52
2.55763	34.52
2.57430	34.52
2.59097	34.52
2.60763	34.52
2.62430	34.52
2.64097	34.52
2.65763	34.52
2.67430	34.52
2.69097	34.52
2.70763	34.52
2.72430	34.52
2.74097	34.52
2.75763	34.52
2.77430	34.52
2.79097	34.52
2.80763	34.52
2.82430	34.52
2.84097	34.52
2.85763	34.52
2.87430	34.52
2.89097	34.52
2.90763	34.52
2.92430	34.52
2.94097	34.52
2.95763	34.52
2.97430	34.51
2.99097	34.52
3.00763	34.52
3.02430	34.52
3.04097	34.52
3.05763	34.52
3.07430	34.52
3.09097	34.52
3.10763	34.52
3.12430	34.52
3.14097	34.52
3.15763	34.52
3.17430	34.53
3.19097	34.52
3.20763	34.52
3.22430	34.52
3.24097	34.52
3.25763	34.52
3.27430	34.52
3.29097	34.52
3.30763	34.52
3.32430	34.52
3.34097	34.52
3.35763	34.52
3.37430	34.52
3.39097	34.52
3.40763	34.52
3.42430	34.53
3.44097	34.52
3.45763	34.52
3.47430	34.52
3.49097	34.52
3.50763	34.52
3.52430	34.52
3.54097	34.52
3.55763	34.52
3.57430	34.52
3.59097	34.52
3.60763	34.52
3.62430	34.52
3.64097	34.52
3.65763	34.52
3.67430	34.52
3.69097	34.52
3.70763	34.52
3.72430	34.51
3.74097	34.52
3.75763	34.52
3.77430	34.52
3.79097	34.52
3.80763	34.52
3.82430	34.52
3.84097	34.51
3.85763	34.51
3.87430	34.52
3.89097	34.52
3.90763	34.52
3.92430	34.52
3.94097	34.52
3.95763	34.52
3.97430	34.52
3.99097	34.52

[Status Trace (Column Flow)]
Interval(msec)	1000
# of Points	240
Start Time(min)	0.008
End Time(min)	3.991
Intensity Units	
Intensity Multiplier	1
R.Time (min)	Intensity
0.00763	5.55
0.02430	5.25
0.04097	5.44
0.05763	5.70
0.07430	5.72
0.09097	5.56
0.10763	5.55
0.12430	5.55
0.14097	5.55
0.15763	5.55
0.17430	5.55
0.19097	5.55
0.20763	5.55
0.22430	5.55
0.24097	5.55
0.25763	5.55
0.27430	5.55
0.29097	5.55
0.30763	5.55
0.32430	5.55
0.34097	5.55
0.35763	5.55
0.37430	5.55
0.39097	5.55
0.40763	5.55
0.42430	5.55
0.44097	5.55
0.45763	5.55
0.47430	5.55
0.49097	5.55
0.50763	5.55
0.52430	5.55
0.54097	5.55
0.55763	5.55
0.57430	5.55
0.59097	5.55
0.60763	5.55
0.62430	5.55
0.64097	5.55
0.65763	5.55
0.67430	5.55
0.69097	5.55
0.70763	5.55
0.72430	5.55
0.74097	5.55
0.75763	5.55
0.77430	5.55
0.79097	5.55
0.80763	5.55
0.82430	5.55
0.84097	5.55
0.85763	5.55
0.87430	5.55
0.89097	5.55
0.90763	5.55
0.92430	5.55
0.94097	5.55
0.95763	5.55
0.97430	5.55
0.99097	5.55
1.00763	5.55
1.02430	5.55
1.04097	5.55
1.05763	5.55
1.07430	5.55
1.09097	5.55
1.10763	5.55
1.12430	5.55
1.14097	5.55
1.15763	5.55
1.17430	5.55
1.19097	5.55
1.20763	5.55
1.22430	5.55
1.24097	5.55
1.25763	5.55
1.27430	5.55
1.29097	5.55
1.30763	5.55
1.32430	5.55
1.34097	5.55
1.35763	5.55
1.37430	5.55
1.39097	5.55
1.40763	5.55
1.42430	5.55
1.44097	5.55
1.45763	5.55
1.47430	5.55
1.49097	5.55
1.50763	5.55
1.52430	5.55
1.54097	5.55
1.55763	5.55
1.57430	5.55
1.59097	5.55
1.60763	5.55
1.62430	5.55
1.64097	5.54
1.65763	5.53
1.67430	5.52
1.69097	5.51
1.70763	5.50
1.72430	5.49
1.74097	5.48
1.75763	5.47
1.77430	5.46
1.79097	5.45
1.80763	5.44
1.82430	5.43
1.84097	5.42
1.85763	5.41
1.87430	5.40
1.89097	5.39
1.90763	5.38
1.92430	5.37
1.94097	5.36
1.95763	5.35
1.97430	5.34
1.99097	5.33
2.00763	5.32
2.02430	5.31
2.04097	5.30
2.05763	5.29
2.07430	5.28
2.09097	5.27
2.10763	5.26
2.12430	5.25
2.14097	5.24
2.15763	5.24
2.17430	5.23
2.19097	5.22
2.20763	5.21
2.22430	5.20
2.24097	5.19
2.25763	5.18
2.27430	5.17
2.29097	5.16
2.30763	5.15
2.32430	5.14
2.34097	5.13
2.35763	5.12
2.37430	5.12
2.39097	5.12
2.40763	5.12
2.42430	5.12
2.44097	5.12
2.45763	5.12
2.47430	5.12
2.49097	5.12
2.50763	5.12
2.52430	5.11
2.54097	5.12
2.55763	5.12
2.57430	5.11
2.59097	5.11
2.60763	5.11
2.62430	5.11
2.64097	5.11
2.65763	5.11
2.67430	5.11
2.69097	5.11
2.70763	5.11
2.72430	5.11
2.74097	5.11
2.75763	5.11
2.77430	5.11
2.79097	5.11
2.80763	5.11
2.82430	5.11
2.84097	5.11
2.85763	5.11
2.87430	5.11
2.89097	5.11
2.90763	5.11
2.92430	5.11
2.94097	5.11
2.95763	5.11
2.97430	5.11
2.99097	5.11
3.00763	5.11
3.02430	5.11
3.04097	5.11
3.05763	5.11
3.07430	5.11
3.09097	5.11
3.10763	5.11
3.12430	5.11
3.14097	5.11
3.15763	5.11
3.17430	5.11
3.19097	5.11
3.20763	5.11
3.22430	5.11
3.24097	5.11
3.25763	5.11
3.27430	5.10
3.29097	5.10
3.30763	5.11
3.32430	5.11
3.34097	5.11
3.35763	5.11
3.37430	5.11
3.39097	5.11
3.40763	5.11
3.42430	5.11
3.44097	5.11
3.45763	5.11
3.47430	5.11
3.49097	5.11
3.50763	5.11
3.52430	5.11
3.54097	5.11
3.55763	5.11
3.57430	5.11
3.59097	5.11
3.60763	5.11
3.62430	5.11
3.64097	5.11
3.65763	5.11
3.67430	5.11
3.69097	5.11
3.70763	5.11
3.72430	5.11
3.74097	5.11
3.75763	5.11
3.77430	5.11
3.79097	5.11
3.80763	5.11
3.82430	5.11
3.84097	5.11
3.85763	5.11
3.87430	5.11
3.89097	5.11
3.90763	5.11
3.92430	5.11
3.94097	5.11
3.95763	5.11
3.97430	5.11
3.99097	5.11

[Status Trace (Linear Velocity)]
Interval(msec)	1000
# of Points	240
Start Time(min)	0.008
End Time(min)	3.991
Intensity Units	
Intensity Multiplier	1
R.Time (min)	Intensity
0.00763	39.02
0.02430	37.30
0.04097	38.40
0.05763	39.83
0.07430	39.93
0.09097	39.07
0.10763	39.00
0.12430	39.02
0.14097	39.02
0.15763	39.02
0.17430	39.02
0.19097	39.02
0.20763	39.02
0.22430	39.02
0.24097	39.02
0.25763	39.02
0.27430	39.02
0.29097	39.02
0.30763	39.02
0.32430	39.02
0.34097	39.02
0.35763	39.02
0.37430	39.02
0.39097	39.02
0.40763	39.02
0.42430	39.02
0.44097	39.03
0.45763	39.03
0.47430	39.03
0.49097	39.03
0.50763	39.03
0.52430	39.03
0.54097	39.03
0.55763	39.03
0.57430	39.03
0.59097	39.03
0.60763	39.03
0.62430	39.03
0.64097	39.02
0.65763	39.02
0.67430	39.02
0.69097	39.02
0.70763	39.02
0.72430	39.02
0.74097	39.02
0.75763	39.02
0.77430	39.02
0.79097	39.02
0.80763	39.02
0.82430	39.02
0.84097	39.02
0.85763	39.03
0.87430	39.02
0.89097	39.03
0.90763	39.02
0.92430	39.02
0.94097	39.03
0.95763	39.02
0.97430	39.02
0.99097	39.02
1.00763	39.02
1.02430	39.02
1.04097	39.02
1.05763	39.02
1.07430	39.02
1.09097	39.02
1.10763	39.02
1.12430	39.03
1.14097	39.03
1.15763	39.03
1.17430	39.03
1.19097	39.03
1.20763	39.03
1.22430	39.03
1.24097	39.03
1.25763	39.03
1.27430	39.03
1.29097	39.03
1.30763	39.02
1.32430	39.02
1.34097	39.02
1.35763	39.02
1.37430	39.02
1.39097	39.02
1.40763	39.02
1.42430	39.02
1.44097	39.02
1.45763	39.02
1.47430	39.02
1.49097	39.02
1.50763	39.02
1.52430	39.02
1.54097	39.02
1.55763	39.02
1.57430	39.02
1.59097	39.02
1.60763	39.02
1.62430	39.01
1.64097	38.99
1.65763	38.97
1.67430	38.94
1.69097	38.90
1.70763	38.86
1.72430	38.83
1.74097	38.80
1.75763	38.77
1.77430	38.74
1.79097	38.70
1.80763	38.67
1.82430	38.65
1.84097	38.61
1.85763	38.58
1.87430	38.55
1.89097	38.52
1.90763	38.49
1.92430	38.46
1.94097	38.43
1.95763	38.40
1.97430	38.37
1.99097	38.34
2.00763	38.31
2.02430	38.28
2.04097	38.25
2.05763	38.22
2.07430	38.19
2.09097	38.16
2.10763	38.13
2.12430	38.10
2.14097	38.07
2.15763	38.04
2.17430	38.01
2.19097	37.98
2.20763	37.95
2.22430	37.92
2.24097	37.89
2.25763	37.86
2.27430	37.83
2.29097	37.80
2.30763	37.77
2.32430	37.74
2.34097	37.72
2.35763	37.69
2.37430	37.67
2.39097	37.67
2.40763	37.67
2.42430	37.67
2.44097	37.67
2.45763	37.67
2.47430	37.67
2.49097	37.67
2.50763	37.66
2.52430	37.66
2.54097	37.66
2.55763	37.66
2.57430	37.66
2.59097	37.66
2.60763	37.66
2.62430	37.66
2.64097	37.66
2.65763	37.66
2.67430	37.65
2.69097	37.65
2.70763	37.65
2.72430	37.65
2.74097	37.65
2.75763	37.65
2.77430	37.65
2.79097	37.65
2.80763	37.65
2.82430	37.65
2.84097	37.65
2.85763	37.65
2.87430	37.65
2.89097	37.65
2.90763	37.65
2.92430	37.65
2.94097	37.64
2.95763	37.64
2.97430	37.64
2.99097	37.64
3.00763	37.64
3.02430	37.64
3.04097	37.64
3.05763	37.64
3.07430	37.64
3.09097	37.64
3.10763	37.64
3.12430	37.64
3.14097	37.64
3.15763	37.64
3.17430	37.63
3.19097	37.63
3.20763	37.63
3.22430	37.63
3.24097	37.63
3.25763	37.63
3.27430	37.63
3.29097	37.63
3.30763	37.63
3.32430	37.63
3.34097	37.63
3.35763	37.63
3.37430	37.63
3.39097	37.63
3.40763	37.64
3.42430	37.64
3.44097	37.64
3.45763	37.64
3.47430	37.64
3.49097	37.64
3.50763	37.64
3.52430	37.64
3.54097	37.63
3.55763	37.63
3.57430	37.63
3.59097	37.63
3.60763	37.64
3.62430	37.64
3.64097	37.64
3.65763	37.64
3.67430	37.64
3.69097	37.64
3.70763	37.63
3.72430	37.63
3.74097	37.64
3.75763	37.64
3.77430	37.64
3.79097	37.63
3.80763	37.63
3.82430	37.63
3.84097	37.63
3.85763	37.63
3.87430	37.63
3.89097	37.63
3.90763	37.63
3.92430	37.63
3.94097	37.63
3.95763	37.63
3.97430	37.64
3.99097	37.64

