[Header]
Application Name	LabSolutions
Version	5.110
Data File Name	C:\Users\User\Desktop\GC Analyses\Jack\Nachusa Grasslands Sampling\T4 Timepoint July 12th\T4_07122022_078.gcd
Output Date	3/17/2023
Output Time	12:04:56 PM

[File Information]
Type	Data File
Generated	3/15/2023 12:08:29 AM
Generated by	System Administrator
Modified	3/15/2023 12:15:02 AM
Modified by	System Administrator

[Sample Information]
Operator Name	System Administrator
Acquired	3/15/2023 12:11:01 AM
Sample Type	0:Unknown
Level	0
Sample Name	078
Sample ID	078
ISTD Amount1	1
ISTD Amount2	1
ISTD Amount3	1
ISTD Amount4	1
ISTD Amount5	1
ISTD Amount6	1
ISTD Amount7	1
ISTD Amount8	1
ISTD Amount9	1
ISTD Amount10	1
ISTD Amount11	1
ISTD Amount12	1
ISTD Amount13	1
ISTD Amount14	1
ISTD Amount15	1
ISTD Amount16	1
ISTD Amount17	1
ISTD Amount18	1
ISTD Amount19	1
ISTD Amount20	1
ISTD Amount21	1
ISTD Amount22	1
ISTD Amount23	1
ISTD Amount24	1
ISTD Amount25	1
ISTD Amount26	1
ISTD Amount27	1
ISTD Amount28	1
ISTD Amount29	1
ISTD Amount30	1
ISTD Amount31	1
ISTD Amount32	1
Sample Amount	1
Dilution Factor	1
Vial#	77
Injection Volume	1
Injection Count	1
Bar Code	

[Original Files]
Data File	C:\Users\User\Desktop\GC Analyses\Jack\Nachusa Grasslands Sampling\T4 Timepoint July 12th\T4_07122022_078.gcd
Method File	C:\LabSolutions\Data\GHG_4min_2022\ghg3_togas_w_acet_4 min_new_int.gcm
Batch File	C:\LabSolutions\Data\AutoSamplerTesting\T4_07122022.gcb
Report Format File	c:\LabSolutions\System\DEFAULT.lsr

[File Description]


[Configuration]
Instrument Name	C0B7VH3-Instrument1
Instrument #	1
Line #	1
# of Detectors	3
Detector ID	DET#1	DET#2	DET#3
Detector Name	FID	PTCD	ECD
# of Channels	1	1	1

[Peak Table(Ch1)]
# of Peaks	3
Peak#	R.Time	I.Time	F.Time	Area	Height	A/H	Conc.	Mark	ID#	Name	k'	Plate #	Plate Ht.	Tailing	Resolution	Sep.Factor	Area Ratio	Height Ratio	Conc. %	Norm Conc.
1	1.476	1.439	1.538	29665	14509	2.045	209.434	   	1	CO	0.000	9673	15.507	1.317	0.000	0.000	0	0	15.738	15.738
2	1.571	1.538	1.626	3878	1955	1.984	74.978	 V 	2	CH4	0.065	11526	13.014	1.127	1.608	0.000	0	0	5.634	5.634
3	1.996	1.949	2.513	4169061	1987168	2.098	1046.321	   	3	CO2	0.353	17184	8.729	1.341	7.122	5.462	0	0	78.627	78.627

[Peak Table(Ch2)]
# of Peaks	0

[Peak Table(Ch3)]
# of Peaks	5
Peak#	R.Time	I.Time	F.Time	Area	Height	A/H	Conc.	Mark	ID#	Name	k'	Plate #	Plate Ht.	Tailing	Resolution	Sep.Factor	Area Ratio	Height Ratio	Conc. %	Norm Conc.
1	2.462	2.348	2.510	2161	725	2.983	0.000	   			0.000	11368	13.195	0.000	0.000	0.000	0	0	0.000	0.000
2	2.532	2.510	2.572	911	335	2.720	0.000	 V 			0.028	7498	20.006	0.000	0.666	0.000	0	0	0.000	0.000
3	2.601	2.572	2.675	641	163	3.930	0.000	 V 			0.057	1933	77.599	0.000	0.394	2.000	0	0	0.000	0.000
4	2.880	2.704	3.115	19207	4866	3.947	0.491	   	1	N2O	0.170	12967	11.568	1.512	1.650	3.000	0	0	100.000	100.000
5	3.459	3.162	3.606	1945	111	17.563	0.000	   	2	SF6	0.405	1211	123.824	0.769	2.323	2.386	0	0	0.000	0.000

[Compound Results(Ch1)]
# of IDs	6
ID#	Name	R.Time	Area	Height	Conc.	Curve	3rd	2nd	1st	Constant	Area Ratio	Height Ratio	Conc. %	Norm Conc.
1	CO	1.476	29665	14509	209.434	Linear	0.000000e+00	0.000000e+00	1.416423e+002	0.000000e+00	0	0	15.738	15.738
2	CH4	1.571	3878	1955	74.978	Linear	0.000000e+00	0.000000e+00	5.171738e+001	0.000000e+00	0	0	5.634	5.634
3	CO2	1.996	4169061	1987168	1046.321	Linear	0.000000e+00	0.000000e+00	3.984494e+003	0.000000e+00	0	0	78.627	78.627
4	Ethylene	0.000	0	0	0.000	Linear	0.000000e+00	0.000000e+00	0.000000e+00	0.000000e+00	0	0	0.000	0.000
5	Acetylene	0.000	0	0	0.000	Linear	0.000000e+00	0.000000e+00	0.000000e+00	0.000000e+00	0	0	0.000	0.000
6	Ethane	0.000	0	0	0.000	Linear	0.000000e+00	0.000000e+00	0.000000e+00	0.000000e+00	0	0	0.000	0.000

[Compound Results(Ch2)]
# of IDs	5
ID#	Name	R.Time	Area	Height	Conc.	Curve	3rd	2nd	1st	Constant	Area Ratio	Height Ratio	Conc. %	Norm Conc.
1	Hydrogen	0.000	0	0	0.000	Linear	0.000000e+00	0.000000e+00	0.000000e+00	0.000000e+00	0	0	0.000	0.000
2	Oxygen	0.000	0	0	0.000	Linear	0.000000e+00	0.000000e+00	0.000000e+00	0.000000e+00	0	0	0.000	0.000
3	Nitrogen	0.000	0	0	0.000	Linear	0.000000e+00	0.000000e+00	0.000000e+00	0.000000e+00	0	0	0.000	0.000
4	Methane	0.000	0	0	0.000	Linear	0.000000e+00	0.000000e+00	0.000000e+00	0.000000e+00	0	0	0.000	0.000
5	Carbon Monoxide	0.000	0	0	0.000	Linear	0.000000e+00	0.000000e+00	0.000000e+00	0.000000e+00	0	0	0.000	0.000

[Compound Results(Ch3)]
# of IDs	2
ID#	Name	R.Time	Area	Height	Conc.	Curve	3rd	2nd	1st	Constant	Area Ratio	Height Ratio	Conc. %	Norm Conc.
1	N2O	2.880	19207	4866	0.491	Linear	0.000000e+00	0.000000e+00	3.915173e+004	0.000000e+00	0	0	100.000	100.000
2	SF6	3.459	1945	111	0.000	Linear	0.000000e+00	0.000000e+00	0.000000e+00	0.000000e+00	0	0	0.000	0.000

[Group Results(Ch1)]
# of Groups	0

[Group Results(Ch2)]
# of Groups	0

[Group Results(Ch3)]
# of Groups	0

[Chromatogram (Ch1)]
Interval(msec)	220
# of Points	1091
Start Time(min)	0.002
End Time(min)	3.998
R.Time (min)	Intensity
0.00167	-21
0.00533	-25
0.00900	-32
0.01267	-38
0.01633	-37
0.02000	-32
0.02367	-27
0.02733	-23
0.03100	-20
0.03467	-22
0.03833	-28
0.04200	-31
0.04567	-33
0.04933	-28
0.05300	-23
0.05667	-18
0.06033	-10
0.06400	-0
0.06767	9
0.07133	17
0.07500	19
0.07867	14
0.08233	2
0.08600	-11
0.08967	-19
0.09333	-22
0.09700	-24
0.10067	-26
0.10433	-27
0.10800	-29
0.11167	-29
0.11533	-24
0.11900	-19
0.12267	-19
0.12633	-21
0.13000	-22
0.13367	-21
0.13733	-16
0.14100	-5
0.14467	8
0.14833	17
0.15200	25
0.15567	31
0.15933	31
0.16300	25
0.16667	12
0.17033	-9
0.17400	-30
0.17767	-39
0.18133	-39
0.18500	-33
0.18867	-25
0.19233	-18
0.19600	-17
0.19967	-18
0.20333	-19
0.20700	-24
0.21067	-31
0.21433	-36
0.21800	-34
0.22167	-26
0.22533	-20
0.22900	-19
0.23267	-16
0.23633	-11
0.24000	-1
0.24367	9
0.24733	15
0.25100	14
0.25467	6
0.25833	-4
0.26200	-9
0.26567	-16
0.26933	-25
0.27300	-20
0.27667	-12
0.28033	-5
0.28400	-2
0.28767	-1
0.29133	-3
0.29500	-5
0.29867	-7
0.30233	-11
0.30600	-13
0.30967	-11
0.31333	-7
0.31700	-3
0.32067	0
0.32433	4
0.32800	6
0.33167	6
0.33533	7
0.33900	13
0.34267	23
0.34633	30
0.35000	33
0.35367	29
0.35733	21
0.36100	17
0.36467	16
0.36833	16
0.37200	16
0.37567	18
0.37933	19
0.38300	17
0.38667	8
0.39033	-2
0.39400	-11
0.39767	-17
0.40133	-17
0.40500	-14
0.40867	-10
0.41233	-9
0.41600	-7
0.41967	-8
0.42333	-10
0.42700	-13
0.43067	-13
0.43433	-10
0.43800	-7
0.44167	-3
0.44533	0
0.44900	-2
0.45267	-10
0.45633	-15
0.46000	-17
0.46367	-13
0.46733	-8
0.47100	-8
0.47467	-14
0.47833	-17
0.48200	-15
0.48567	-9
0.48933	-7
0.49300	-6
0.49667	-3
0.50033	1
0.50400	4
0.50767	4
0.51133	7
0.51500	7
0.51867	7
0.52233	10
0.52600	17
0.52967	26
0.53333	30
0.53700	26
0.54067	14
0.54433	3
0.54800	-3
0.55167	-7
0.55533	-6
0.55900	-0
0.56267	7
0.56633	11
0.57000	13
0.57367	16
0.57733	13
0.58100	6
0.58467	-1
0.58833	-6
0.59200	-4
0.59567	-1
0.59933	-1
0.60300	-7
0.60667	-18
0.61033	-25
0.61400	-19
0.61767	-9
0.62133	1
0.62500	10
0.62867	11
0.63233	5
0.63600	-6
0.63967	-16
0.64333	-20
0.64700	-23
0.65067	-21
0.65433	-18
0.65800	-15
0.66167	-13
0.66533	-15
0.66900	-19
0.67267	-22
0.67633	-22
0.68000	-22
0.68367	-21
0.68733	-22
0.69100	-17
0.69467	-3
0.69833	13
0.70200	20
0.70567	17
0.70933	10
0.71300	2
0.71667	-7
0.72033	-11
0.72400	-14
0.72767	-15
0.73133	-14
0.73500	-13
0.73867	-7
0.74233	0
0.74600	5
0.74967	4
0.75333	0
0.75700	5
0.76067	10
0.76433	11
0.76800	9
0.77167	3
0.77533	-7
0.77900	-13
0.78267	-17
0.78633	-19
0.79000	-16
0.79367	-9
0.79733	-1
0.80100	13
0.80467	24
0.80833	21
0.81200	11
0.81567	2
0.81933	-4
0.82300	-11
0.82667	-17
0.83033	-19
0.83400	-22
0.83767	-20
0.84133	-16
0.84500	-17
0.84867	-21
0.85233	-20
0.85600	-18
0.85967	-18
0.86333	-17
0.86700	-17
0.87067	-15
0.87433	-13
0.87800	-14
0.88167	-18
0.88533	-28
0.88900	-34
0.89267	-40
0.89633	-42
0.90000	-41
0.90367	-39
0.90733	-31
0.91100	-21
0.91467	-13
0.91833	-7
0.92200	-2
0.92567	1
0.92933	-2
0.93300	-10
0.93667	-17
0.94033	-21
0.94400	-25
0.94767	-30
0.95133	-35
0.95500	-34
0.95867	-33
0.96233	-30
0.96600	-25
0.96967	-23
0.97333	-25
0.97700	-23
0.98067	-17
0.98433	-15
0.98800	-19
0.99167	-24
0.99533	-24
0.99900	-18
1.00267	-8
1.00633	-2
1.01000	-3
1.01367	-9
1.01733	-15
1.02100	-19
1.02467	-22
1.02833	-22
1.03200	-22
1.03567	-23
1.03933	-23
1.04300	-26
1.04667	-33
1.05033	-40
1.05400	-42
1.05767	-37
1.06133	-33
1.06500	-27
1.06867	-24
1.07233	-26
1.07600	-27
1.07967	-28
1.08333	-28
1.08700	-24
1.09067	-20
1.09433	-20
1.09800	-19
1.10167	-17
1.10533	-18
1.10900	-24
1.11267	-27
1.11633	-25
1.12000	-16
1.12367	-16
1.12733	-24
1.13100	-34
1.13467	-42
1.13833	-47
1.14200	-48
1.14567	-48
1.14933	-45
1.15300	-39
1.15667	-34
1.16033	-33
1.16400	-33
1.16767	-26
1.17133	-19
1.17500	-17
1.17867	-20
1.18233	-22
1.18600	-22
1.18967	-23
1.19333	-23
1.19700	-23
1.20067	-23
1.20433	-29
1.20800	-42
1.21167	-53
1.21533	-59
1.21900	-59
1.22267	-59
1.22633	-56
1.23000	-53
1.23367	-49
1.23733	-48
1.24100	-54
1.24467	-61
1.24833	-62
1.25200	-55
1.25567	-45
1.25933	-37
1.26300	-33
1.26667	-30
1.27033	-25
1.27400	-26
1.27767	-32
1.28133	-37
1.28500	-36
1.28867	-35
1.29233	-35
1.29600	-38
1.29967	-40
1.30333	-40
1.30700	-38
1.31067	-32
1.31433	-22
1.31800	-15
1.32167	-12
1.32533	-11
1.32900	-7
1.33267	-7
1.33633	-12
1.34000	-21
1.34367	-27
1.34733	-31
1.35100	-31
1.35467	-30
1.35833	-26
1.36200	-24
1.36567	-22
1.36933	-17
1.37300	-11
1.37667	-5
1.38033	-4
1.38400	-8
1.38767	-13
1.39133	-17
1.39500	-18
1.39867	-21
1.40233	-22
1.40600	-21
1.40967	-19
1.41333	-15
1.41700	-14
1.42067	-18
1.42433	-27
1.42800	-36
1.43167	-42
1.43533	-44
1.43900	-36
1.44267	1
1.44633	122
1.45000	505
1.45367	1581
1.45733	3693
1.46100	6523
1.46467	9391
1.46833	11804
1.47200	13541
1.47567	14469
1.47933	14454
1.48300	13443
1.48667	11621
1.49033	9386
1.49400	7155
1.49767	5212
1.50133	3672
1.50500	2522
1.50867	1697
1.51233	1120
1.51600	724
1.51967	460
1.52333	288
1.52700	175
1.53067	99
1.53433	51
1.53800	29
1.54167	51
1.54533	160
1.54900	397
1.55267	741
1.55633	1123
1.56000	1465
1.56367	1718
1.56733	1868
1.57100	1902
1.57467	1791
1.57833	1544
1.58200	1221
1.58567	895
1.58933	620
1.59300	407
1.59667	253
1.60033	150
1.60400	88
1.60767	46
1.61133	12
1.61500	-18
1.61867	-40
1.62233	-53
1.62600	-60
1.62967	-65
1.63333	-68
1.63700	-68
1.64067	-67
1.64433	-63
1.64800	-53
1.65167	-48
1.65533	-48
1.65900	-49
1.66267	-48
1.66633	-47
1.67000	-41
1.67367	-37
1.67733	-40
1.68100	-47
1.68467	-55
1.68833	-60
1.69200	-59
1.69567	-61
1.69933	-61
1.70300	-60
1.70667	-63
1.71033	-63
1.71400	-57
1.71767	-51
1.72133	-46
1.72500	-42
1.72867	-46
1.73233	-55
1.73600	-60
1.73967	-60
1.74333	-57
1.74700	-56
1.75067	-57
1.75433	-62
1.75800	-67
1.76167	-67
1.76533	-63
1.76900	-53
1.77267	-42
1.77633	-38
1.78000	-40
1.78367	-48
1.78733	-61
1.79100	-73
1.79467	-83
1.79833	-86
1.80200	-86
1.80567	-79
1.80933	-63
1.81300	-45
1.81667	-34
1.82033	-32
1.82400	-38
1.82767	-46
1.83133	-50
1.83500	-49
1.83867	-46
1.84233	-47
1.84600	-51
1.84967	-55
1.85333	-55
1.85700	-55
1.86067	-50
1.86433	-48
1.86800	-50
1.87167	-49
1.87533	-42
1.87900	-32
1.88267	-26
1.88633	-25
1.89000	-28
1.89367	-26
1.89733	-20
1.90100	-16
1.90467	-18
1.90833	-23
1.91200	-29
1.91567	-33
1.91933	-38
1.92300	-42
1.92667	-44
1.93033	-43
1.93400	-39
1.93767	-32
1.94133	-23
1.94500	-16
1.94867	-16
1.95233	-3
1.95600	148
1.95967	1209
1.96333	6835
1.96700	29262
1.97067	97107
1.97433	252595
1.97800	523190
1.98167	887424
1.98533	1279577
1.98900	1625763
1.99267	1871751
1.99633	1987179
2.00000	1963828
2.00367	1816375
2.00733	1578685
2.01100	1295096
2.01467	1009113
2.01833	753131
2.02200	543667
2.02567	383434
2.02933	266734
2.03300	184616
2.03667	128137
2.04033	89813
2.04400	63962
2.04767	46510
2.05133	34648
2.05500	26491
2.05867	20792
2.06233	16728
2.06600	13767
2.06967	11567
2.07333	9900
2.07700	8610
2.08067	7587
2.08433	6756
2.08800	6073
2.09167	5505
2.09533	5026
2.09900	4620
2.10267	4270
2.10633	3961
2.11000	3685
2.11367	3443
2.11733	3226
2.12100	3032
2.12467	2856
2.12833	2696
2.13200	2549
2.13567	2415
2.13933	2293
2.14300	2184
2.14667	2096
2.15033	2015
2.15400	1933
2.15767	1850
2.16133	1772
2.16500	1697
2.16867	1628
2.17233	1565
2.17600	1507
2.17967	1453
2.18333	1407
2.18700	1363
2.19067	1322
2.19433	1282
2.19800	1237
2.20167	1192
2.20533	1145
2.20900	1102
2.21267	1064
2.21633	1032
2.22000	1007
2.22367	993
2.22733	982
2.23100	965
2.23467	942
2.23833	917
2.24200	890
2.24567	869
2.24933	856
2.25300	841
2.25667	822
2.26033	802
2.26400	783
2.26767	766
2.27133	746
2.27500	729
2.27867	715
2.28233	701
2.28600	684
2.28967	671
2.29333	658
2.29700	640
2.30067	619
2.30433	603
2.30800	592
2.31167	584
2.31533	575
2.31900	567
2.32267	557
2.32633	548
2.33000	542
2.33367	546
2.33733	546
2.34100	537
2.34467	523
2.34833	511
2.35200	502
2.35567	494
2.35933	489
2.36300	485
2.36667	481
2.37033	471
2.37400	461
2.37767	455
2.38133	450
2.38500	444
2.38867	437
2.39233	431
2.39600	426
2.39967	423
2.40333	423
2.40700	425
2.41067	426
2.41433	424
2.41800	417
2.42167	403
2.42533	390
2.42900	383
2.43267	379
2.43633	376
2.44000	376
2.44367	379
2.44733	383
2.45100	382
2.45467	382
2.45833	376
2.46200	370
2.46567	368
2.46933	368
2.47300	365
2.47667	357
2.48033	346
2.48400	339
2.48767	339
2.49133	341
2.49500	339
2.49867	335
2.50233	334
2.50600	329
2.50967	321
2.51333	312
2.51700	307
2.52067	303
2.52433	300
2.52800	302
2.53167	307
2.53533	315
2.53900	319
2.54267	315
2.54633	311
2.55000	307
2.55367	296
2.55733	284
2.56100	275
2.56467	271
2.56833	264
2.57200	255
2.57567	250
2.57933	244
2.58300	237
2.58667	235
2.59033	242
2.59400	246
2.59767	250
2.60133	251
2.60500	252
2.60867	249
2.61233	241
2.61600	239
2.61967	241
2.62333	241
2.62700	244
2.63067	245
2.63433	242
2.63800	237
2.64167	229
2.64533	228
2.64900	223
2.65267	214
2.65633	203
2.66000	197
2.66367	192
2.66733	190
2.67100	193
2.67467	199
2.67833	207
2.68200	213
2.68567	212
2.68933	208
2.69300	207
2.69667	204
2.70033	202
2.70400	199
2.70767	193
2.71133	187
2.71500	187
2.71867	190
2.72233	193
2.72600	193
2.72967	191
2.73333	188
2.73700	182
2.74067	176
2.74433	176
2.74800	180
2.75167	188
2.75533	191
2.75900	191
2.76267	187
2.76633	182
2.77000	180
2.77367	179
2.77733	182
2.78100	185
2.78467	188
2.78833	186
2.79200	180
2.79567	172
2.79933	165
2.80300	160
2.80667	163
2.81033	166
2.81400	165
2.81767	166
2.82133	169
2.82500	175
2.82867	179
2.83233	179
2.83600	177
2.83967	170
2.84333	168
2.84700	166
2.85067	165
2.85433	164
2.85800	161
2.86167	159
2.86533	159
2.86900	161
2.87267	162
2.87633	164
2.88000	162
2.88367	160
2.88733	162
2.89100	168
2.89467	171
2.89833	174
2.90200	174
2.90567	174
2.90933	171
2.91300	165
2.91667	159
2.92033	154
2.92400	153
2.92767	154
2.93133	155
2.93500	154
2.93867	152
2.94233	152
2.94600	156
2.94967	162
2.95333	168
2.95700	169
2.96067	159
2.96433	145
2.96800	134
2.97167	130
2.97533	132
2.97900	133
2.98267	133
2.98633	133
2.99000	136
2.99367	148
2.99733	160
3.00100	166
3.00467	170
3.00833	170
3.01200	165
3.01567	154
3.01933	145
3.02300	140
3.02667	135
3.03033	128
3.03400	125
3.03767	122
3.04133	120
3.04500	125
3.04867	127
3.05233	130
3.05600	133
3.05967	136
3.06333	137
3.06700	133
3.07067	134
3.07433	140
3.07800	141
3.08167	139
3.08533	138
3.08900	134
3.09267	129
3.09633	123
3.10000	121
3.10367	125
3.10733	126
3.11100	122
3.11467	124
3.11833	129
3.12200	132
3.12567	129
3.12933	122
3.13300	117
3.13667	113
3.14033	110
3.14400	109
3.14767	110
3.15133	112
3.15500	113
3.15867	114
3.16233	115
3.16600	117
3.16967	115
3.17333	112
3.17700	116
3.18067	120
3.18433	115
3.18800	109
3.19167	105
3.19533	101
3.19900	95
3.20267	91
3.20633	89
3.21000	90
3.21367	95
3.21733	97
3.22100	98
3.22467	99
3.22833	100
3.23200	103
3.23567	105
3.23933	106
3.24300	103
3.24667	95
3.25033	88
3.25400	85
3.25767	84
3.26133	84
3.26500	88
3.26867	93
3.27233	99
3.27600	104
3.27967	106
3.28333	105
3.28700	104
3.29067	97
3.29433	91
3.29800	90
3.30167	87
3.30533	78
3.30900	74
3.31267	75
3.31633	73
3.32000	70
3.32367	66
3.32733	74
3.33100	79
3.33467	79
3.33833	84
3.34200	95
3.34567	106
3.34933	114
3.35300	108
3.35667	102
3.36033	94
3.36400	94
3.36767	97
3.37133	90
3.37500	83
3.37867	79
3.38233	70
3.38600	60
3.38967	57
3.39333	55
3.39700	57
3.40067	63
3.40433	68
3.40800	71
3.41167	71
3.41533	75
3.41900	75
3.42267	71
3.42633	71
3.43000	71
3.43367	69
3.43733	64
3.44100	57
3.44467	54
3.44833	58
3.45200	68
3.45567	76
3.45933	76
3.46300	73
3.46667	69
3.47033	64
3.47400	64
3.47767	66
3.48133	69
3.48500	71
3.48867	67
3.49233	63
3.49600	60
3.49967	57
3.50333	56
3.50700	59
3.51067	63
3.51433	60
3.51800	55
3.52167	42
3.52533	31
3.52900	32
3.53267	40
3.53633	47
3.54000	51
3.54367	49
3.54733	50
3.55100	58
3.55467	65
3.55833	70
3.56200	65
3.56567	56
3.56933	50
3.57300	44
3.57667	42
3.58033	47
3.58400	50
3.58767	55
3.59133	59
3.59500	62
3.59867	56
3.60233	48
3.60600	40
3.60967	32
3.61333	30
3.61700	33
3.62067	39
3.62433	46
3.62800	55
3.63167	57
3.63533	63
3.63900	68
3.64267	62
3.64633	53
3.65000	45
3.65367	39
3.65733	41
3.66100	43
3.66467	40
3.66833	37
3.67200	35
3.67567	40
3.67933	46
3.68300	55
3.68667	63
3.69033	67
3.69400	68
3.69767	63
3.70133	56
3.70500	52
3.70867	51
3.71233	52
3.71600	54
3.71967	50
3.72333	43
3.72700	39
3.73067	39
3.73433	40
3.73800	47
3.74167	47
3.74533	38
3.74900	26
3.75267	24
3.75633	29
3.76000	32
3.76367	30
3.76733	23
3.77100	23
3.77467	25
3.77833	28
3.78200	36
3.78567	41
3.78933	40
3.79300	35
3.79667	32
3.80033	29
3.80400	31
3.80767	39
3.81133	46
3.81500	47
3.81867	46
3.82233	45
3.82600	48
3.82967	51
3.83333	50
3.83700	43
3.84067	37
3.84433	34
3.84800	35
3.85167	34
3.85533	30
3.85900	17
3.86267	4
3.86633	-4
3.87000	-7
3.87367	-5
3.87733	1
3.88100	4
3.88467	4
3.88833	-0
3.89200	-3
3.89567	-3
3.89933	-5
3.90300	-6
3.90667	4
3.91033	15
3.91400	13
3.91767	7
3.92133	2
3.92500	1
3.92867	4
3.93233	6
3.93600	4
3.93967	3
3.94333	9
3.94700	17
3.95067	27
3.95433	33
3.95800	31
3.96167	29
3.96533	25
3.96900	23
3.97267	28
3.97633	37
3.98000	38
3.98367	32
3.98733	23
3.99100	13
3.99467	3
3.99833	-6

[Chromatogram (Ch2)]
Interval(msec)	220
# of Points	1091
Start Time(min)	0.002
End Time(min)	3.998
R.Time (min)	Intensity
0.00167	1
0.00533	1
0.00900	0
0.01267	0
0.01633	-0
0.02000	-0
0.02367	-1
0.02733	-1
0.03100	-1
0.03467	-1
0.03833	-1
0.04200	-2
0.04567	-2
0.04933	-2
0.05300	-2
0.05667	-3
0.06033	-3
0.06400	-3
0.06767	-2
0.07133	-2
0.07500	-1
0.07867	-1
0.08233	-1
0.08600	-1
0.08967	-0
0.09333	-0
0.09700	0
0.10067	0
0.10433	0
0.10800	1
0.11167	1
0.11533	1
0.11900	1
0.12267	1
0.12633	1
0.13000	1
0.13367	1
0.13733	0
0.14100	-0
0.14467	-0
0.14833	-1
0.15200	-1
0.15567	-2
0.15933	-2
0.16300	-2
0.16667	-2
0.17033	-2
0.17400	-2
0.17767	-2
0.18133	-2
0.18500	-2
0.18867	-2
0.19233	-2
0.19600	-1
0.19967	-1
0.20333	-1
0.20700	-0
0.21067	-0
0.21433	0
0.21800	0
0.22167	1
0.22533	1
0.22900	1
0.23267	1
0.23633	1
0.24000	1
0.24367	1
0.24733	1
0.25100	0
0.25467	0
0.25833	-0
0.26200	-0
0.26567	-0
0.26933	-0
0.27300	-0
0.27667	-0
0.28033	-1
0.28400	-1
0.28767	-1
0.29133	-1
0.29500	-2
0.29867	-2
0.30233	-2
0.30600	-2
0.30967	-3
0.31333	-3
0.31700	-3
0.32067	-3
0.32433	-2
0.32800	-2
0.33167	-2
0.33533	-1
0.33900	-1
0.34267	-0
0.34633	0
0.35000	1
0.35367	1
0.35733	2
0.36100	2
0.36467	2
0.36833	2
0.37200	2
0.37567	2
0.37933	1
0.38300	1
0.38667	1
0.39033	1
0.39400	0
0.39767	0
0.40133	-0
0.40500	-0
0.40867	-1
0.41233	-1
0.41600	-1
0.41967	-1
0.42333	-1
0.42700	-1
0.43067	-1
0.43433	-1
0.43800	-0
0.44167	-0
0.44533	-0
0.44900	-0
0.45267	-0
0.45633	-0
0.46000	-0
0.46367	-1
0.46733	-1
0.47100	-1
0.47467	-1
0.47833	-1
0.48200	-1
0.48567	-1
0.48933	-1
0.49300	-1
0.49667	-1
0.50033	-1
0.50400	-1
0.50767	-2
0.51133	-2
0.51500	-2
0.51867	-2
0.52233	-3
0.52600	-3
0.52967	-3
0.53333	-4
0.53700	-4
0.54067	-4
0.54433	-3
0.54800	-3
0.55167	-3
0.55533	-3
0.55900	-3
0.56267	-3
0.56633	-2
0.57000	-2
0.57367	-2
0.57733	-2
0.58100	-2
0.58467	-2
0.58833	-2
0.59200	-2
0.59567	-2
0.59933	-2
0.60300	-2
0.60667	-2
0.61033	-1
0.61400	-1
0.61767	-1
0.62133	-1
0.62500	-1
0.62867	-1
0.63233	-1
0.63600	-1
0.63967	-1
0.64333	-0
0.64700	-0
0.65067	0
0.65433	0
0.65800	-0
0.66167	-0
0.66533	-1
0.66900	-1
0.67267	-1
0.67633	-2
0.68000	-2
0.68367	-3
0.68733	-3
0.69100	-3
0.69467	-3
0.69833	-2
0.70200	-2
0.70567	-2
0.70933	-2
0.71300	-1
0.71667	-1
0.72033	-1
0.72400	-1
0.72767	-1
0.73133	-0
0.73500	-0
0.73867	0
0.74233	-0
0.74600	-0
0.74967	-0
0.75333	-1
0.75700	-1
0.76067	-1
0.76433	-1
0.76800	-1
0.77167	-1
0.77533	-1
0.77900	-1
0.78267	-1
0.78633	-1
0.79000	-2
0.79367	-2
0.79733	-2
0.80100	-2
0.80467	-2
0.80833	-2
0.81200	-2
0.81567	-2
0.81933	-1
0.82300	-1
0.82667	-1
0.83033	-1
0.83400	-1
0.83767	-1
0.84133	-1
0.84500	-1
0.84867	-1
0.85233	-1
0.85600	-1
0.85967	-1
0.86333	-1
0.86700	-1
0.87067	-1
0.87433	-1
0.87800	-1
0.88167	-1
0.88533	-1
0.88900	-1
0.89267	-1
0.89633	-1
0.90000	-2
0.90367	-2
0.90733	-2
0.91100	-1
0.91467	-1
0.91833	-1
0.92200	-1
0.92567	-1
0.92933	-1
0.93300	-1
0.93667	-1
0.94033	-1
0.94400	-1
0.94767	-1
0.95133	-1
0.95500	-1
0.95867	-1
0.96233	-1
0.96600	-1
0.96967	-1
0.97333	-1
0.97700	-1
0.98067	-1
0.98433	-2
0.98800	-1
0.99167	-1
0.99533	-1
0.99900	-1
1.00267	-1
1.00633	-2
1.01000	-2
1.01367	-2
1.01733	-2
1.02100	-2
1.02467	-2
1.02833	-2
1.03200	-2
1.03567	-2
1.03933	-1
1.04300	-1
1.04667	-1
1.05033	-1
1.05400	-1
1.05767	-1
1.06133	-1
1.06500	-1
1.06867	-1
1.07233	-1
1.07600	-0
1.07967	-0
1.08333	-0
1.08700	-0
1.09067	-0
1.09433	-0
1.09800	-0
1.10167	-0
1.10533	-0
1.10900	-1
1.11267	-1
1.11633	-1
1.12000	-2
1.12367	-2
1.12733	-2
1.13100	-2
1.13467	-2
1.13833	-2
1.14200	-2
1.14567	-2
1.14933	-2
1.15300	-2
1.15667	-2
1.16033	-2
1.16400	-3
1.16767	-3
1.17133	-3
1.17500	-3
1.17867	-3
1.18233	-3
1.18600	-3
1.18967	-3
1.19333	-3
1.19700	-3
1.20067	-4
1.20433	-4
1.20800	-4
1.21167	-3
1.21533	-3
1.21900	-2
1.22267	-1
1.22633	-1
1.23000	-1
1.23367	-0
1.23733	-1
1.24100	-1
1.24467	-1
1.24833	-1
1.25200	-1
1.25567	-1
1.25933	-1
1.26300	-1
1.26667	-1
1.27033	-1
1.27400	-1
1.27767	-1
1.28133	-1
1.28500	-1
1.28867	-1
1.29233	-1
1.29600	-1
1.29967	-1
1.30333	-1
1.30700	-1
1.31067	-1
1.31433	-1
1.31800	-0
1.32167	-0
1.32533	0
1.32900	1
1.33267	1
1.33633	2
1.34000	2
1.34367	2
1.34733	2
1.35100	2
1.35467	2
1.35833	2
1.36200	1
1.36567	1
1.36933	1
1.37300	1
1.37667	1
1.38033	1
1.38400	1
1.38767	1
1.39133	1
1.39500	0
1.39867	-0
1.40233	-0
1.40600	-1
1.40967	-1
1.41333	-1
1.41700	-1
1.42067	-1
1.42433	-1
1.42800	-1
1.43167	-2
1.43533	-2
1.43900	-2
1.44267	-3
1.44633	-3
1.45000	-3
1.45367	-3
1.45733	-4
1.46100	-4
1.46467	-3
1.46833	-3
1.47200	-3
1.47567	-3
1.47933	-2
1.48300	-2
1.48667	-2
1.49033	-1
1.49400	-1
1.49767	-1
1.50133	-1
1.50500	-1
1.50867	-1
1.51233	-0
1.51600	-0
1.51967	-0
1.52333	-0
1.52700	-0
1.53067	-1
1.53433	-1
1.53800	-1
1.54167	-1
1.54533	-2
1.54900	-2
1.55267	-2
1.55633	-2
1.56000	-2
1.56367	-2
1.56733	-2
1.57100	-2
1.57467	-2
1.57833	-2
1.58200	-2
1.58567	-2
1.58933	-3
1.59300	-3
1.59667	-3
1.60033	-4
1.60400	-4
1.60767	-5
1.61133	-7
1.61500	-8
1.61867	-11
1.62233	-13
1.62600	-17
1.62967	-20
1.63333	-24
1.63700	-27
1.64067	-31
1.64433	-35
1.64800	-39
1.65167	-43
1.65533	-47
1.65900	-51
1.66267	-55
1.66633	-59
1.67000	-62
1.67367	-67
1.67733	-71
1.68100	-76
1.68467	-81
1.68833	-85
1.69200	-89
1.69567	-93
1.69933	-96
1.70300	-99
1.70667	-101
1.71033	-103
1.71400	-104
1.71767	-105
1.72133	-106
1.72500	-107
1.72867	-107
1.73233	-107
1.73600	-107
1.73967	-107
1.74333	-107
1.74700	-106
1.75067	-106
1.75433	-106
1.75800	-107
1.76167	-108
1.76533	-109
1.76900	-111
1.77267	-112
1.77633	-112
1.78000	-113
1.78367	-112
1.78733	-112
1.79100	-112
1.79467	-112
1.79833	-113
1.80200	-113
1.80567	-114
1.80933	-114
1.81300	-114
1.81667	-114
1.82033	-113
1.82400	-113
1.82767	-112
1.83133	-112
1.83500	-112
1.83867	-112
1.84233	-112
1.84600	-112
1.84967	-113
1.85333	-114
1.85700	-114
1.86067	-114
1.86433	-114
1.86800	-114
1.87167	-114
1.87533	-114
1.87900	-114
1.88267	-115
1.88633	-115
1.89000	-116
1.89367	-116
1.89733	-116
1.90100	-115
1.90467	-115
1.90833	-114
1.91200	-113
1.91567	-113
1.91933	-112
1.92300	-112
1.92667	-112
1.93033	-112
1.93400	-112
1.93767	-111
1.94133	-111
1.94500	-110
1.94867	-110
1.95233	-109
1.95600	-110
1.95967	-110
1.96333	-110
1.96700	-110
1.97067	-110
1.97433	-110
1.97800	-110
1.98167	-109
1.98533	-108
1.98900	-107
1.99267	-107
1.99633	-106
2.00000	-106
2.00367	-105
2.00733	-105
2.01100	-105
2.01467	-104
2.01833	-104
2.02200	-104
2.02567	-104
2.02933	-104
2.03300	-104
2.03667	-104
2.04033	-105
2.04400	-105
2.04767	-105
2.05133	-105
2.05500	-105
2.05867	-104
2.06233	-104
2.06600	-103
2.06967	-103
2.07333	-102
2.07700	-102
2.08067	-101
2.08433	-101
2.08800	-100
2.09167	-99
2.09533	-99
2.09900	-98
2.10267	-98
2.10633	-98
2.11000	-98
2.11367	-99
2.11733	-99
2.12100	-99
2.12467	-98
2.12833	-97
2.13200	-97
2.13567	-96
2.13933	-95
2.14300	-94
2.14667	-94
2.15033	-94
2.15400	-94
2.15767	-94
2.16133	-94
2.16500	-94
2.16867	-93
2.17233	-92
2.17600	-92
2.17967	-91
2.18333	-91
2.18700	-91
2.19067	-91
2.19433	-91
2.19800	-91
2.20167	-91
2.20533	-91
2.20900	-91
2.21267	-90
2.21633	-90
2.22000	-89
2.22367	-89
2.22733	-88
2.23100	-87
2.23467	-87
2.23833	-87
2.24200	-87
2.24567	-87
2.24933	-86
2.25300	-85
2.25667	-84
2.26033	-84
2.26400	-83
2.26767	-82
2.27133	-82
2.27500	-82
2.27867	-83
2.28233	-83
2.28600	-83
2.28967	-83
2.29333	-82
2.29700	-82
2.30067	-82
2.30433	-82
2.30800	-82
2.31167	-82
2.31533	-82
2.31900	-82
2.32267	-82
2.32633	-82
2.33000	-81
2.33367	-81
2.33733	-80
2.34100	-79
2.34467	-78
2.34833	-77
2.35200	-76
2.35567	-74
2.35933	-73
2.36300	-71
2.36667	-70
2.37033	-68
2.37400	-66
2.37767	-63
2.38133	-60
2.38500	-56
2.38867	-52
2.39233	-48
2.39600	-43
2.39967	-39
2.40333	-34
2.40700	-30
2.41067	-26
2.41433	-22
2.41800	-19
2.42167	-17
2.42533	-15
2.42900	-13
2.43267	-12
2.43633	-10
2.44000	-8
2.44367	-7
2.44733	-6
2.45100	-6
2.45467	-5
2.45833	-5
2.46200	-4
2.46567	-3
2.46933	-2
2.47300	-1
2.47667	0
2.48033	1
2.48400	3
2.48767	4
2.49133	4
2.49500	5
2.49867	6
2.50233	6
2.50600	7
2.50967	7
2.51333	8
2.51700	9
2.52067	10
2.52433	10
2.52800	11
2.53167	11
2.53533	11
2.53900	11
2.54267	11
2.54633	11
2.55000	12
2.55367	12
2.55733	13
2.56100	13
2.56467	14
2.56833	14
2.57200	15
2.57567	15
2.57933	14
2.58300	14
2.58667	14
2.59033	14
2.59400	15
2.59767	15
2.60133	15
2.60500	15
2.60867	16
2.61233	16
2.61600	15
2.61967	15
2.62333	15
2.62700	16
2.63067	16
2.63433	17
2.63800	17
2.64167	17
2.64533	18
2.64900	18
2.65267	18
2.65633	19
2.66000	19
2.66367	19
2.66733	20
2.67100	20
2.67467	20
2.67833	20
2.68200	20
2.68567	20
2.68933	20
2.69300	20
2.69667	20
2.70033	21
2.70400	21
2.70767	22
2.71133	22
2.71500	23
2.71867	23
2.72233	23
2.72600	24
2.72967	24
2.73333	24
2.73700	24
2.74067	24
2.74433	24
2.74800	25
2.75167	25
2.75533	25
2.75900	25
2.76267	26
2.76633	26
2.77000	27
2.77367	27
2.77733	27
2.78100	27
2.78467	28
2.78833	27
2.79200	27
2.79567	27
2.79933	26
2.80300	25
2.80667	25
2.81033	24
2.81400	24
2.81767	24
2.82133	24
2.82500	24
2.82867	24
2.83233	24
2.83600	25
2.83967	24
2.84333	24
2.84700	22
2.85067	19
2.85433	14
2.85800	6
2.86167	-6
2.86533	-21
2.86900	-41
2.87267	-65
2.87633	-94
2.88000	-127
2.88367	-164
2.88733	-205
2.89100	-249
2.89467	-297
2.89833	-347
2.90200	-400
2.90567	-454
2.90933	-509
2.91300	-565
2.91667	-621
2.92033	-676
2.92400	-731
2.92767	-783
2.93133	-835
2.93500	-887
2.93867	-943
2.94233	-1002
2.94600	-1055
2.94967	-1091
2.95333	-1103
2.95700	-1089
2.96067	-1052
2.96433	-995
2.96800	-925
2.97167	-848
2.97533	-767
2.97900	-686
2.98267	-609
2.98633	-536
2.99000	-468
2.99367	-407
2.99733	-352
3.00100	-303
3.00467	-259
3.00833	-221
3.01200	-188
3.01567	-158
3.01933	-133
3.02300	-112
3.02667	-93
3.03033	-77
3.03400	-64
3.03767	-52
3.04133	-42
3.04500	-34
3.04867	-27
3.05233	-21
3.05600	-16
3.05967	-12
3.06333	-8
3.06700	-5
3.07067	-2
3.07433	0
3.07800	2
3.08167	4
3.08533	5
3.08900	6
3.09267	7
3.09633	8
3.10000	9
3.10367	10
3.10733	11
3.11100	11
3.11467	12
3.11833	13
3.12200	13
3.12567	14
3.12933	14
3.13300	15
3.13667	15
3.14033	15
3.14400	15
3.14767	15
3.15133	15
3.15500	16
3.15867	16
3.16233	16
3.16600	16
3.16967	17
3.17333	17
3.17700	17
3.18067	18
3.18433	18
3.18800	18
3.19167	19
3.19533	19
3.19900	19
3.20267	20
3.20633	20
3.21000	20
3.21367	21
3.21733	21
3.22100	21
3.22467	21
3.22833	21
3.23200	22
3.23567	22
3.23933	22
3.24300	22
3.24667	22
3.25033	23
3.25400	23
3.25767	23
3.26133	24
3.26500	24
3.26867	24
3.27233	24
3.27600	23
3.27967	23
3.28333	23
3.28700	23
3.29067	23
3.29433	23
3.29800	23
3.30167	23
3.30533	24
3.30900	24
3.31267	25
3.31633	25
3.32000	25
3.32367	25
3.32733	25
3.33100	25
3.33467	25
3.33833	25
3.34200	25
3.34567	26
3.34933	26
3.35300	27
3.35667	27
3.36033	28
3.36400	28
3.36767	28
3.37133	29
3.37500	29
3.37867	29
3.38233	28
3.38600	28
3.38967	28
3.39333	28
3.39700	28
3.40067	28
3.40433	28
3.40800	28
3.41167	28
3.41533	28
3.41900	27
3.42267	27
3.42633	27
3.43000	27
3.43367	27
3.43733	27
3.44100	27
3.44467	27
3.44833	27
3.45200	28
3.45567	28
3.45933	28
3.46300	28
3.46667	29
3.47033	29
3.47400	29
3.47767	29
3.48133	29
3.48500	29
3.48867	29
3.49233	29
3.49600	29
3.49967	28
3.50333	28
3.50700	28
3.51067	28
3.51433	28
3.51800	28
3.52167	28
3.52533	28
3.52900	28
3.53267	28
3.53633	28
3.54000	28
3.54367	28
3.54733	27
3.55100	27
3.55467	27
3.55833	27
3.56200	27
3.56567	27
3.56933	27
3.57300	27
3.57667	27
3.58033	26
3.58400	26
3.58767	26
3.59133	26
3.59500	26
3.59867	26
3.60233	26
3.60600	26
3.60967	26
3.61333	26
3.61700	26
3.62067	26
3.62433	26
3.62800	26
3.63167	26
3.63533	26
3.63900	26
3.64267	26
3.64633	26
3.65000	25
3.65367	25
3.65733	25
3.66100	25
3.66467	25
3.66833	25
3.67200	25
3.67567	25
3.67933	25
3.68300	25
3.68667	25
3.69033	25
3.69400	25
3.69767	25
3.70133	26
3.70500	26
3.70867	26
3.71233	26
3.71600	26
3.71967	26
3.72333	26
3.72700	25
3.73067	25
3.73433	25
3.73800	25
3.74167	25
3.74533	25
3.74900	25
3.75267	25
3.75633	25
3.76000	25
3.76367	25
3.76733	25
3.77100	25
3.77467	25
3.77833	26
3.78200	26
3.78567	26
3.78933	26
3.79300	26
3.79667	26
3.80033	26
3.80400	26
3.80767	26
3.81133	26
3.81500	26
3.81867	26
3.82233	26
3.82600	26
3.82967	26
3.83333	26
3.83700	26
3.84067	26
3.84433	26
3.84800	26
3.85167	26
3.85533	26
3.85900	26
3.86267	26
3.86633	26
3.87000	26
3.87367	26
3.87733	26
3.88100	26
3.88467	26
3.88833	26
3.89200	26
3.89567	25
3.89933	26
3.90300	26
3.90667	26
3.91033	26
3.91400	26
3.91767	26
3.92133	26
3.92500	26
3.92867	26
3.93233	26
3.93600	26
3.93967	27
3.94333	27
3.94700	27
3.95067	26
3.95433	26
3.95800	26
3.96167	26
3.96533	26
3.96900	26
3.97267	26
3.97633	26
3.98000	26
3.98367	26
3.98733	25
3.99100	25
3.99467	25
3.99833	25

[Chromatogram (Ch3)]
Interval(msec)	220
# of Points	1091
Start Time(min)	0.002
End Time(min)	3.998
R.Time (min)	Intensity
0.00167	-1
0.00533	-2
0.00900	-0
0.01267	1
0.01633	2
0.02000	2
0.02367	1
0.02733	1
0.03100	3
0.03467	4
0.03833	4
0.04200	5
0.04567	5
0.04933	5
0.05300	3
0.05667	2
0.06033	3
0.06400	4
0.06767	4
0.07133	1
0.07500	1
0.07867	1
0.08233	1
0.08600	0
0.08967	1
0.09333	2
0.09700	3
0.10067	3
0.10433	5
0.10800	7
0.11167	7
0.11533	8
0.11900	8
0.12267	6
0.12633	4
0.13000	1
0.13367	0
0.13733	1
0.14100	1
0.14467	0
0.14833	-0
0.15200	-1
0.15567	-2
0.15933	-3
0.16300	-2
0.16667	-1
0.17033	0
0.17400	1
0.17767	1
0.18133	2
0.18500	2
0.18867	0
0.19233	-1
0.19600	-0
0.19967	-1
0.20333	-1
0.20700	0
0.21067	1
0.21433	1
0.21800	-1
0.22167	-3
0.22533	-4
0.22900	-6
0.23267	-7
0.23633	-6
0.24000	-4
0.24367	-5
0.24733	-6
0.25100	-6
0.25467	-6
0.25833	-4
0.26200	-2
0.26567	-2
0.26933	-3
0.27300	-3
0.27667	-2
0.28033	1
0.28400	1
0.28767	-0
0.29133	-2
0.29500	-4
0.29867	-6
0.30233	-7
0.30600	-6
0.30967	-4
0.31333	-2
0.31700	-0
0.32067	-0
0.32433	-0
0.32800	1
0.33167	3
0.33533	3
0.33900	1
0.34267	-1
0.34633	-0
0.35000	-1
0.35367	-1
0.35733	-1
0.36100	-0
0.36467	-2
0.36833	-3
0.37200	-2
0.37567	-1
0.37933	0
0.38300	1
0.38667	-0
0.39033	-3
0.39400	-4
0.39767	-3
0.40133	-2
0.40500	-0
0.40867	1
0.41233	1
0.41600	-1
0.41967	-4
0.42333	-3
0.42700	-2
0.43067	-2
0.43433	-3
0.43800	-3
0.44167	-2
0.44533	1
0.44900	2
0.45267	5
0.45633	5
0.46000	2
0.46367	1
0.46733	0
0.47100	0
0.47467	-1
0.47833	-1
0.48200	-0
0.48567	1
0.48933	2
0.49300	2
0.49667	2
0.50033	0
0.50400	-2
0.50767	-4
0.51133	-4
0.51500	-2
0.51867	-1
0.52233	1
0.52600	2
0.52967	1
0.53333	-0
0.53700	-1
0.54067	-1
0.54433	-0
0.54800	-1
0.55167	-3
0.55533	-4
0.55900	-3
0.56267	-1
0.56633	-3
0.57000	-4
0.57367	-4
0.57733	-3
0.58100	-4
0.58467	-5
0.58833	-5
0.59200	-4
0.59567	-3
0.59933	-2
0.60300	-2
0.60667	-1
0.61033	1
0.61400	1
0.61767	-1
0.62133	-1
0.62500	0
0.62867	2
0.63233	3
0.63600	2
0.63967	1
0.64333	-0
0.64700	0
0.65067	1
0.65433	1
0.65800	2
0.66167	2
0.66533	1
0.66900	1
0.67267	2
0.67633	3
0.68000	2
0.68367	2
0.68733	2
0.69100	2
0.69467	2
0.69833	1
0.70200	1
0.70567	1
0.70933	2
0.71300	4
0.71667	4
0.72033	5
0.72400	5
0.72767	3
0.73133	2
0.73500	0
0.73867	0
0.74233	2
0.74600	2
0.74967	3
0.75333	3
0.75700	3
0.76067	4
0.76433	2
0.76800	-0
0.77167	-1
0.77533	1
0.77900	3
0.78267	4
0.78633	2
0.79000	2
0.79367	2
0.79733	3
0.80100	5
0.80467	3
0.80833	2
0.81200	3
0.81567	3
0.81933	3
0.82300	2
0.82667	2
0.83033	3
0.83400	2
0.83767	2
0.84133	3
0.84500	5
0.84867	6
0.85233	5
0.85600	6
0.85967	6
0.86333	5
0.86700	4
0.87067	6
0.87433	6
0.87800	4
0.88167	3
0.88533	3
0.88900	5
0.89267	5
0.89633	5
0.90000	6
0.90367	8
0.90733	9
0.91100	8
0.91467	8
0.91833	9
0.92200	9
0.92567	9
0.92933	9
0.93300	10
0.93667	9
0.94033	7
0.94400	6
0.94767	5
0.95133	5
0.95500	6
0.95867	5
0.96233	4
0.96600	3
0.96967	2
0.97333	5
0.97700	5
0.98067	3
0.98433	3
0.98800	4
0.99167	4
0.99533	5
0.99900	5
1.00267	3
1.00633	1
1.01000	0
1.01367	2
1.01733	4
1.02100	3
1.02467	3
1.02833	4
1.03200	4
1.03567	2
1.03933	2
1.04300	2
1.04667	4
1.05033	4
1.05400	5
1.05767	5
1.06133	6
1.06500	6
1.06867	6
1.07233	9
1.07600	9
1.07967	9
1.08333	8
1.08700	7
1.09067	8
1.09433	10
1.09800	12
1.10167	11
1.10533	10
1.10900	11
1.11267	10
1.11633	8
1.12000	8
1.12367	9
1.12733	7
1.13100	7
1.13467	8
1.13833	8
1.14200	6
1.14567	4
1.14933	3
1.15300	3
1.15667	3
1.16033	3
1.16400	4
1.16767	6
1.17133	5
1.17500	5
1.17867	4
1.18233	4
1.18600	5
1.18967	4
1.19333	5
1.19700	8
1.20067	10
1.20433	10
1.20800	9
1.21167	7
1.21533	5
1.21900	5
1.22267	6
1.22633	6
1.23000	6
1.23367	4
1.23733	3
1.24100	4
1.24467	6
1.24833	7
1.25200	8
1.25567	9
1.25933	11
1.26300	12
1.26667	12
1.27033	10
1.27400	10
1.27767	10
1.28133	11
1.28500	10
1.28867	7
1.29233	7
1.29600	6
1.29967	7
1.30333	8
1.30700	8
1.31067	8
1.31433	9
1.31800	10
1.32167	10
1.32533	10
1.32900	10
1.33267	11
1.33633	13
1.34000	12
1.34367	13
1.34733	15
1.35100	17
1.35467	17
1.35833	17
1.36200	17
1.36567	16
1.36933	17
1.37300	17
1.37667	16
1.38033	14
1.38400	12
1.38767	13
1.39133	14
1.39500	14
1.39867	11
1.40233	9
1.40600	8
1.40967	9
1.41333	9
1.41700	9
1.42067	9
1.42433	11
1.42800	12
1.43167	12
1.43533	11
1.43900	10
1.44267	11
1.44633	12
1.45000	13
1.45367	14
1.45733	13
1.46100	14
1.46467	13
1.46833	12
1.47200	13
1.47567	14
1.47933	16
1.48300	15
1.48667	13
1.49033	12
1.49400	12
1.49767	12
1.50133	13
1.50500	14
1.50867	16
1.51233	17
1.51600	17
1.51967	17
1.52333	17
1.52700	16
1.53067	16
1.53433	15
1.53800	13
1.54167	13
1.54533	14
1.54900	16
1.55267	16
1.55633	16
1.56000	15
1.56367	15
1.56733	15
1.57100	14
1.57467	14
1.57833	16
1.58200	19
1.58567	20
1.58933	17
1.59300	15
1.59667	16
1.60033	17
1.60400	18
1.60767	19
1.61133	20
1.61500	20
1.61867	19
1.62233	17
1.62600	16
1.62967	16
1.63333	18
1.63700	18
1.64067	19
1.64433	19
1.64800	18
1.65167	17
1.65533	17
1.65900	18
1.66267	19
1.66633	21
1.67000	23
1.67367	26
1.67733	25
1.68100	25
1.68467	26
1.68833	26
1.69200	27
1.69567	30
1.69933	32
1.70300	34
1.70667	35
1.71033	34
1.71400	33
1.71767	31
1.72133	31
1.72500	33
1.72867	33
1.73233	32
1.73600	31
1.73967	32
1.74333	32
1.74700	32
1.75067	34
1.75433	36
1.75800	36
1.76167	36
1.76533	36
1.76900	37
1.77267	37
1.77633	36
1.78000	37
1.78367	37
1.78733	39
1.79100	40
1.79467	43
1.79833	44
1.80200	45
1.80567	45
1.80933	44
1.81300	44
1.81667	44
1.82033	45
1.82400	48
1.82767	50
1.83133	50
1.83500	50
1.83867	48
1.84233	47
1.84600	47
1.84967	49
1.85333	51
1.85700	53
1.86067	54
1.86433	54
1.86800	52
1.87167	51
1.87533	50
1.87900	51
1.88267	54
1.88633	58
1.89000	59
1.89367	61
1.89733	61
1.90100	61
1.90467	62
1.90833	63
1.91200	65
1.91567	65
1.91933	64
1.92300	64
1.92667	63
1.93033	62
1.93400	65
1.93767	67
1.94133	68
1.94500	71
1.94867	71
1.95233	71
1.95600	70
1.95967	69
1.96333	69
1.96700	71
1.97067	72
1.97433	72
1.97800	73
1.98167	73
1.98533	72
1.98900	74
1.99267	76
1.99633	76
2.00000	76
2.00367	79
2.00733	82
2.01100	84
2.01467	87
2.01833	90
2.02200	91
2.02567	93
2.02933	94
2.03300	94
2.03667	94
2.04033	93
2.04400	93
2.04767	95
2.05133	95
2.05500	95
2.05867	97
2.06233	100
2.06600	101
2.06967	102
2.07333	105
2.07700	108
2.08067	110
2.08433	111
2.08800	111
2.09167	111
2.09533	114
2.09900	115
2.10267	114
2.10633	114
2.11000	117
2.11367	121
2.11733	121
2.12100	122
2.12467	123
2.12833	124
2.13200	125
2.13567	127
2.13933	128
2.14300	128
2.14667	131
2.15033	134
2.15400	136
2.15767	139
2.16133	142
2.16500	143
2.16867	144
2.17233	144
2.17600	145
2.17967	146
2.18333	149
2.18700	150
2.19067	151
2.19433	154
2.19800	155
2.20167	155
2.20533	158
2.20900	159
2.21267	162
2.21633	166
2.22000	167
2.22367	166
2.22733	165
2.23100	166
2.23467	169
2.23833	171
2.24200	173
2.24567	175
2.24933	177
2.25300	179
2.25667	180
2.26033	182
2.26400	185
2.26767	186
2.27133	188
2.27500	190
2.27867	192
2.28233	193
2.28600	195
2.28967	199
2.29333	201
2.29700	203
2.30067	205
2.30433	204
2.30800	203
2.31167	205
2.31533	206
2.31900	208
2.32267	209
2.32633	213
2.33000	217
2.33367	219
2.33733	221
2.34100	222
2.34467	222
2.34833	223
2.35200	224
2.35567	226
2.35933	229
2.36300	232
2.36667	232
2.37033	231
2.37400	232
2.37767	233
2.38133	233
2.38500	231
2.38867	230
2.39233	231
2.39600	236
2.39967	242
2.40333	246
2.40700	248
2.41067	251
2.41433	253
2.41800	255
2.42167	256
2.42533	257
2.42900	260
2.43267	260
2.43633	261
2.44000	264
2.44367	320
2.44733	474
2.45100	642
2.45467	780
2.45833	858
2.46200	864
2.46567	819
2.46933	759
2.47300	700
2.47667	656
2.48033	622
2.48400	585
2.48767	539
2.49133	489
2.49500	440
2.49867	399
2.50233	371
2.50600	352
2.50967	344
2.51333	348
2.51700	362
2.52067	385
2.52433	407
2.52800	422
2.53167	423
2.53533	409
2.53900	387
2.54267	357
2.54633	325
2.55000	293
2.55367	264
2.55733	241
2.56100	221
2.56467	207
2.56833	198
2.57200	195
2.57567	194
2.57933	192
2.58300	193
2.58667	195
2.59033	197
2.59400	199
2.59767	199
2.60133	200
2.60500	197
2.60867	189
2.61233	178
2.61600	166
2.61967	155
2.62333	146
2.62700	135
2.63067	123
2.63433	110
2.63800	96
2.64167	85
2.64533	74
2.64900	61
2.65267	50
2.65633	37
2.66000	23
2.66367	12
2.66733	1
2.67100	-10
2.67467	-17
2.67833	-22
2.68200	-26
2.68567	-27
2.68933	-26
2.69300	-26
2.69667	-25
2.70033	-24
2.70400	-22
2.70767	-18
2.71133	-14
2.71500	-9
2.71867	-2
2.72233	6
2.72600	10
2.72967	15
2.73333	19
2.73700	23
2.74067	27
2.74433	31
2.74800	37
2.75167	41
2.75533	46
2.75900	51
2.76267	56
2.76633	59
2.77000	62
2.77367	66
2.77733	67
2.78100	70
2.78467	74
2.78833	77
2.79200	79
2.79567	83
2.79933	88
2.80300	95
2.80667	104
2.81033	111
2.81400	118
2.81767	125
2.82133	136
2.82500	153
2.82867	187
2.83233	249
2.83600	360
2.83967	542
2.84333	811
2.84700	1182
2.85067	1649
2.85433	2192
2.85800	2777
2.86167	3361
2.86533	3900
2.86900	4348
2.87267	4672
2.87633	4851
2.88000	4888
2.88367	4800
2.88733	4607
2.89100	4338
2.89467	4021
2.89833	3680
2.90200	3333
2.90567	2994
2.90933	2669
2.91300	2369
2.91667	2095
2.92033	1848
2.92400	1627
2.92767	1433
2.93133	1261
2.93500	1108
2.93867	972
2.94233	855
2.94600	754
2.94967	664
2.95333	584
2.95700	514
2.96067	455
2.96433	408
2.96800	366
2.97167	329
2.97533	296
2.97900	268
2.98267	241
2.98633	219
2.99000	201
2.99367	185
2.99733	170
3.00100	157
3.00467	145
3.00833	137
3.01200	130
3.01567	125
3.01933	118
3.02300	111
3.02667	105
3.03033	101
3.03400	99
3.03767	98
3.04133	96
3.04500	94
3.04867	92
3.05233	91
3.05600	90
3.05967	88
3.06333	83
3.06700	82
3.07067	81
3.07433	82
3.07800	83
3.08167	83
3.08533	84
3.08900	84
3.09267	84
3.09633	83
3.10000	84
3.10367	83
3.10733	82
3.11100	81
3.11467	81
3.11833	82
3.12200	85
3.12567	86
3.12933	85
3.13300	84
3.13667	83
3.14033	86
3.14400	88
3.14767	87
3.15133	87
3.15500	88
3.15867	89
3.16233	88
3.16600	88
3.16967	90
3.17333	92
3.17700	94
3.18067	94
3.18433	93
3.18800	94
3.19167	95
3.19533	97
3.19900	98
3.20267	100
3.20633	104
3.21000	108
3.21367	111
3.21733	112
3.22100	113
3.22467	115
3.22833	117
3.23200	117
3.23567	118
3.23933	120
3.24300	123
3.24667	126
3.25033	127
3.25400	129
3.25767	132
3.26133	134
3.26500	134
3.26867	134
3.27233	136
3.27600	138
3.27967	139
3.28333	142
3.28700	144
3.29067	148
3.29433	151
3.29800	153
3.30167	152
3.30533	153
3.30900	154
3.31267	155
3.31633	157
3.32000	160
3.32367	162
3.32733	162
3.33100	165
3.33467	169
3.33833	171
3.34200	172
3.34567	175
3.34933	176
3.35300	176
3.35667	175
3.36033	176
3.36400	178
3.36767	180
3.37133	180
3.37500	180
3.37867	182
3.38233	185
3.38600	187
3.38967	189
3.39333	188
3.39700	189
3.40067	189
3.40433	193
3.40800	198
3.41167	199
3.41533	200
3.41900	200
3.42267	201
3.42633	202
3.43000	201
3.43367	201
3.43733	200
3.44100	202
3.44467	203
3.44833	203
3.45200	205
3.45567	207
3.45933	209
3.46300	208
3.46667	207
3.47033	206
3.47400	208
3.47767	208
3.48133	207
3.48500	205
3.48867	206
3.49233	208
3.49600	208
3.49967	208
3.50333	207
3.50700	206
3.51067	206
3.51433	207
3.51800	208
3.52167	206
3.52533	203
3.52900	201
3.53267	203
3.53633	205
3.54000	206
3.54367	204
3.54733	205
3.55100	205
3.55467	204
3.55833	204
3.56200	205
3.56567	205
3.56933	206
3.57300	206
3.57667	205
3.58033	205
3.58400	205
3.58767	208
3.59133	203
3.59500	176
3.59867	143
3.60233	118
3.60600	103
3.60967	103
3.61333	114
3.61700	137
3.62067	165
3.62433	196
3.62800	229
3.63167	260
3.63533	291
3.63900	320
3.64267	347
3.64633	373
3.65000	396
3.65367	418
3.65733	438
3.66100	455
3.66467	471
3.66833	484
3.67200	495
3.67567	506
3.67933	514
3.68300	521
3.68667	529
3.69033	535
3.69400	541
3.69767	546
3.70133	552
3.70500	558
3.70867	563
3.71233	568
3.71600	573
3.71967	576
3.72333	578
3.72700	580
3.73067	583
3.73433	587
3.73800	592
3.74167	595
3.74533	595
3.74900	595
3.75267	597
3.75633	599
3.76000	599
3.76367	597
3.76733	596
3.77100	596
3.77467	598
3.77833	599
3.78200	599
3.78567	598
3.78933	599
3.79300	602
3.79667	605
3.80033	607
3.80400	606
3.80767	604
3.81133	601
3.81500	601
3.81867	602
3.82233	604
3.82600	607
3.82967	607
3.83333	606
3.83700	604
3.84067	603
3.84433	599
3.84800	599
3.85167	601
3.85533	603
3.85900	604
3.86267	604
3.86633	604
3.87000	604
3.87367	607
3.87733	607
3.88100	607
3.88467	607
3.88833	607
3.89200	605
3.89567	604
3.89933	606
3.90300	607
3.90667	606
3.91033	604
3.91400	605
3.91767	605
3.92133	605
3.92500	603
3.92867	602
3.93233	602
3.93600	600
3.93967	601
3.94333	601
3.94700	599
3.95067	598
3.95433	599
3.95800	600
3.96167	600
3.96533	597
3.96900	595
3.97267	594
3.97633	594
3.98000	593
3.98367	592
3.98733	593
3.99100	592
3.99467	589
3.99833	585

[Status Trace (Column Oven Temperature)]
Interval(msec)	1000
# of Points	240
Start Time(min)	0.011
End Time(min)	3.994
Intensity Units	
Intensity Multiplier	1
R.Time (min)	Intensity
0.01097	35.00
0.02763	35.01
0.04430	35.02
0.06097	35.03
0.07763	35.02
0.09430	35.02
0.11097	35.02
0.12763	35.02
0.14430	35.02
0.16097	35.02
0.17763	35.02
0.19430	35.01
0.21097	35.01
0.22763	34.99
0.24430	34.99
0.26097	35.00
0.27763	35.00
0.29430	35.01
0.31097	35.01
0.32763	35.01
0.34430	35.00
0.36097	34.98
0.37763	34.98
0.39430	34.98
0.41097	34.98
0.42763	34.98
0.44430	34.97
0.46097	34.98
0.47763	34.98
0.49430	34.99
0.51097	35.00
0.52763	35.01
0.54430	35.01
0.56097	35.00
0.57763	35.00
0.59430	35.01
0.61097	35.00
0.62763	35.01
0.64430	35.01
0.66097	35.01
0.67763	35.02
0.69430	35.02
0.71097	35.01
0.72763	35.01
0.74430	35.00
0.76097	35.00
0.77763	34.99
0.79430	35.00
0.81097	34.99
0.82763	35.01
0.84430	35.02
0.86097	35.01
0.87763	35.01
0.89430	35.02
0.91097	35.02
0.92763	35.02
0.94430	35.01
0.96097	35.00
0.97763	35.01
0.99430	35.01
1.01097	35.02
1.02763	35.02
1.04430	35.01
1.06097	35.00
1.07763	35.00
1.09430	35.00
1.11097	35.00
1.12763	35.01
1.14430	35.01
1.16097	35.01
1.17763	35.02
1.19430	35.02
1.21097	35.03
1.22763	35.01
1.24430	35.02
1.26097	35.01
1.27763	35.00
1.29430	35.01
1.31097	35.01
1.32763	35.00
1.34430	34.99
1.36097	34.99
1.37763	34.98
1.39430	34.98
1.41097	34.99
1.42763	35.00
1.44430	35.01
1.46097	35.02
1.47763	35.01
1.49430	35.01
1.51097	35.01
1.52763	35.02
1.54430	35.02
1.56097	35.02
1.57763	35.02
1.59430	35.04
1.61097	35.11
1.62763	35.24
1.64430	35.45
1.66097	35.70
1.67763	36.04
1.69430	36.41
1.71097	36.75
1.72763	37.08
1.74430	37.39
1.76097	37.73
1.77763	38.07
1.79430	38.41
1.81097	38.74
1.82763	39.05
1.84430	39.39
1.86097	39.71
1.87763	40.06
1.89430	40.40
1.91097	40.72
1.92763	41.06
1.94430	41.36
1.96097	41.70
1.97763	42.02
1.99430	42.35
2.01097	42.67
2.02763	43.00
2.04430	43.33
2.06097	43.65
2.07763	43.98
2.09430	44.30
2.11097	44.64
2.12763	44.96
2.14430	45.28
2.16097	45.61
2.17763	45.93
2.19430	46.26
2.21097	46.59
2.22763	46.92
2.24430	47.26
2.26097	47.57
2.27763	47.92
2.29430	48.24
2.31097	48.59
2.32763	48.90
2.34430	49.20
2.36097	49.47
2.37763	49.64
2.39430	49.67
2.41097	49.67
2.42763	49.68
2.44430	49.69
2.46097	49.69
2.47763	49.70
2.49430	49.71
2.51097	49.73
2.52763	49.74
2.54430	49.76
2.56097	49.78
2.57763	49.80
2.59430	49.80
2.61097	49.81
2.62763	49.82
2.64430	49.83
2.66097	49.83
2.67763	49.85
2.69430	49.85
2.71097	49.85
2.72763	49.85
2.74430	49.86
2.76097	49.85
2.77763	49.85
2.79430	49.87
2.81097	49.89
2.82763	49.89
2.84430	49.89
2.86097	49.89
2.87763	49.90
2.89430	49.91
2.91097	49.92
2.92763	49.94
2.94430	49.96
2.96097	49.97
2.97763	49.98
2.99430	49.97
3.01097	49.97
3.02763	49.97
3.04430	49.98
3.06097	49.99
3.07763	50.00
3.09430	50.02
3.11097	50.03
3.12763	50.05
3.14430	50.06
3.16097	50.08
3.17763	50.08
3.19430	50.09
3.21097	50.10
3.22763	50.10
3.24430	50.09
3.26097	50.09
3.27763	50.10
3.29430	50.11
3.31097	50.10
3.32763	50.10
3.34430	50.08
3.36097	50.07
3.37763	50.05
3.39430	50.03
3.41097	50.04
3.42763	50.03
3.44430	50.02
3.46097	50.01
3.47763	50.01
3.49430	50.00
3.51097	50.01
3.52763	50.00
3.54430	50.00
3.56097	50.01
3.57763	50.02
3.59430	50.02
3.61097	50.02
3.62763	50.02
3.64430	50.03
3.66097	50.05
3.67763	50.05
3.69430	50.05
3.71097	50.05
3.72763	50.06
3.74430	50.06
3.76097	50.07
3.77763	50.07
3.79430	50.06
3.81097	50.07
3.82763	50.06
3.84430	50.06
3.86097	50.06
3.87763	50.06
3.89430	50.06
3.91097	50.06
3.92763	50.05
3.94430	50.05
3.96097	50.06
3.97763	50.07
3.99430	50.07

[Status Trace (Injection Unit Temperature)]
Interval(msec)	1000
# of Points	240
Start Time(min)	0.011
End Time(min)	3.994
Intensity Units	
Intensity Multiplier	1
R.Time (min)	Intensity
0.01097	99.97
0.02763	99.97
0.04430	99.98
0.06097	99.97
0.07763	99.98
0.09430	99.98
0.11097	99.98
0.12763	99.98
0.14430	99.98
0.16097	99.98
0.17763	99.98
0.19430	99.98
0.21097	99.98
0.22763	99.98
0.24430	99.98
0.26097	99.98
0.27763	99.98
0.29430	99.98
0.31097	99.98
0.32763	99.98
0.34430	99.98
0.36097	99.98
0.37763	99.98
0.39430	99.98
0.41097	99.98
0.42763	99.98
0.44430	99.98
0.46097	99.98
0.47763	99.98
0.49430	99.99
0.51097	99.98
0.52763	99.98
0.54430	99.99
0.56097	99.98
0.57763	99.99
0.59430	99.99
0.61097	99.98
0.62763	99.99
0.64430	99.98
0.66097	99.98
0.67763	99.99
0.69430	99.99
0.71097	99.99
0.72763	99.98
0.74430	99.99
0.76097	99.99
0.77763	99.99
0.79430	99.98
0.81097	99.99
0.82763	99.99
0.84430	99.99
0.86097	99.99
0.87763	99.99
0.89430	99.98
0.91097	99.99
0.92763	99.98
0.94430	99.98
0.96097	99.99
0.97763	99.98
0.99430	99.98
1.01097	99.99
1.02763	99.99
1.04430	99.99
1.06097	99.98
1.07763	99.98
1.09430	99.98
1.11097	99.98
1.12763	99.98
1.14430	99.98
1.16097	99.98
1.17763	99.98
1.19430	99.98
1.21097	99.98
1.22763	99.98
1.24430	99.98
1.26097	99.98
1.27763	99.98
1.29430	99.98
1.31097	99.99
1.32763	99.98
1.34430	99.98
1.36097	99.98
1.37763	99.99
1.39430	99.98
1.41097	99.98
1.42763	99.99
1.44430	99.98
1.46097	99.98
1.47763	99.98
1.49430	99.99
1.51097	99.98
1.52763	99.98
1.54430	99.98
1.56097	99.98
1.57763	99.98
1.59430	99.99
1.61097	99.99
1.62763	99.98
1.64430	99.99
1.66097	99.98
1.67763	99.99
1.69430	99.98
1.71097	99.98
1.72763	99.99
1.74430	99.99
1.76097	99.98
1.77763	99.99
1.79430	99.99
1.81097	99.98
1.82763	99.99
1.84430	99.99
1.86097	99.98
1.87763	99.98
1.89430	99.98
1.91097	99.98
1.92763	99.98
1.94430	99.98
1.96097	99.98
1.97763	99.97
1.99430	99.98
2.01097	99.97
2.02763	99.98
2.04430	99.97
2.06097	99.98
2.07763	99.97
2.09430	99.97
2.11097	99.97
2.12763	99.97
2.14430	99.97
2.16097	99.97
2.17763	99.96
2.19430	99.97
2.21097	99.97
2.22763	99.97
2.24430	99.97
2.26097	99.97
2.27763	99.97
2.29430	99.96
2.31097	99.97
2.32763	99.97
2.34430	99.97
2.36097	99.97
2.37763	99.96
2.39430	99.97
2.41097	99.97
2.42763	99.97
2.44430	99.97
2.46097	99.97
2.47763	99.97
2.49430	99.97
2.51097	99.97
2.52763	99.97
2.54430	99.97
2.56097	99.97
2.57763	99.97
2.59430	99.98
2.61097	99.98
2.62763	99.98
2.64430	99.98
2.66097	99.98
2.67763	99.98
2.69430	99.99
2.71097	99.99
2.72763	99.99
2.74430	99.99
2.76097	99.99
2.77763	99.99
2.79430	99.99
2.81097	99.99
2.82763	99.99
2.84430	99.99
2.86097	100.00
2.87763	100.00
2.89430	100.01
2.91097	100.00
2.92763	100.01
2.94430	100.01
2.96097	100.01
2.97763	100.01
2.99430	100.01
3.01097	100.01
3.02763	100.01
3.04430	100.01
3.06097	100.01
3.07763	100.01
3.09430	100.02
3.11097	100.01
3.12763	100.01
3.14430	100.02
3.16097	100.01
3.17763	100.03
3.19430	100.02
3.21097	100.02
3.22763	100.02
3.24430	100.03
3.26097	100.02
3.27763	100.03
3.29430	100.02
3.31097	100.03
3.32763	100.02
3.34430	100.03
3.36097	100.03
3.37763	100.03
3.39430	100.03
3.41097	100.03
3.42763	100.03
3.44430	100.03
3.46097	100.03
3.47763	100.03
3.49430	100.03
3.51097	100.03
3.52763	100.03
3.54430	100.03
3.56097	100.03
3.57763	100.03
3.59430	100.03
3.61097	100.03
3.62763	100.04
3.64430	100.04
3.66097	100.04
3.67763	100.03
3.69430	100.04
3.71097	100.04
3.72763	100.04
3.74430	100.04
3.76097	100.04
3.77763	100.04
3.79430	100.04
3.81097	100.04
3.82763	100.04
3.84430	100.04
3.86097	100.04
3.87763	100.04
3.89430	100.04
3.91097	100.04
3.92763	100.04
3.94430	100.05
3.96097	100.04
3.97763	100.04
3.99430	100.04

[Status Trace (Carrier Gas Pressure)]
Interval(msec)	1000
# of Points	240
Start Time(min)	0.011
End Time(min)	3.994
Intensity Units	
Intensity Multiplier	1
R.Time (min)	Intensity
0.01097	58.00
0.02763	55.00
0.04430	57.49
0.06097	59.60
0.07763	59.01
0.09430	58.01
0.11097	57.99
0.12763	58.01
0.14430	58.01
0.16097	58.01
0.17763	58.00
0.19430	58.00
0.21097	58.00
0.22763	58.00
0.24430	58.00
0.26097	58.00
0.27763	58.00
0.29430	58.00
0.31097	58.00
0.32763	58.00
0.34430	58.00
0.36097	58.00
0.37763	58.00
0.39430	58.00
0.41097	58.00
0.42763	58.00
0.44430	58.00
0.46097	58.00
0.47763	58.00
0.49430	58.00
0.51097	58.00
0.52763	58.00
0.54430	58.00
0.56097	58.00
0.57763	58.00
0.59430	58.00
0.61097	58.00
0.62763	58.00
0.64430	58.00
0.66097	58.00
0.67763	58.00
0.69430	58.00
0.71097	58.00
0.72763	58.00
0.74430	58.00
0.76097	58.00
0.77763	58.00
0.79430	58.00
0.81097	58.00
0.82763	58.00
0.84430	58.00
0.86097	58.00
0.87763	58.00
0.89430	58.00
0.91097	58.00
0.92763	58.00
0.94430	58.00
0.96097	58.00
0.97763	58.00
0.99430	58.00
1.01097	58.00
1.02763	58.00
1.04430	58.00
1.06097	58.00
1.07763	58.00
1.09430	58.00
1.11097	58.00
1.12763	58.00
1.14430	58.00
1.16097	58.00
1.17763	58.00
1.19430	58.00
1.21097	58.00
1.22763	58.00
1.24430	58.00
1.26097	58.00
1.27763	58.00
1.29430	58.00
1.31097	58.00
1.32763	58.00
1.34430	58.00
1.36097	58.00
1.37763	58.00
1.39430	58.00
1.41097	58.00
1.42763	58.00
1.44430	58.00
1.46097	58.00
1.47763	58.00
1.49430	58.00
1.51097	58.00
1.52763	58.00
1.54430	58.00
1.56097	58.00
1.57763	58.00
1.59430	58.00
1.61097	58.00
1.62763	58.00
1.64430	58.01
1.66097	58.00
1.67763	58.01
1.69430	58.00
1.71097	58.00
1.72763	58.00
1.74430	58.00
1.76097	58.00
1.77763	58.00
1.79430	58.00
1.81097	58.00
1.82763	58.00
1.84430	58.00
1.86097	58.00
1.87763	58.00
1.89430	58.00
1.91097	58.00
1.92763	58.00
1.94430	58.00
1.96097	58.00
1.97763	58.00
1.99430	58.00
2.01097	58.00
2.02763	58.00
2.04430	58.00
2.06097	58.00
2.07763	58.00
2.09430	58.00
2.11097	58.00
2.12763	58.00
2.14430	58.00
2.16097	58.00
2.17763	58.00
2.19430	58.00
2.21097	58.00
2.22763	58.00
2.24430	58.00
2.26097	58.00
2.27763	58.00
2.29430	58.00
2.31097	58.00
2.32763	58.00
2.34430	58.00
2.36097	58.00
2.37763	58.00
2.39430	57.99
2.41097	58.00
2.42763	58.00
2.44430	58.00
2.46097	58.00
2.47763	58.00
2.49430	58.00
2.51097	58.00
2.52763	57.99
2.54430	58.00
2.56097	58.00
2.57763	58.00
2.59430	58.00
2.61097	58.00
2.62763	58.00
2.64430	58.00
2.66097	58.00
2.67763	58.00
2.69430	58.00
2.71097	58.00
2.72763	58.00
2.74430	58.00
2.76097	58.00
2.77763	58.00
2.79430	58.00
2.81097	58.00
2.82763	58.00
2.84430	58.00
2.86097	58.00
2.87763	58.00
2.89430	58.00
2.91097	58.00
2.92763	58.00
2.94430	58.00
2.96097	58.00
2.97763	58.00
2.99430	58.00
3.01097	58.00
3.02763	58.00
3.04430	58.00
3.06097	58.00
3.07763	58.00
3.09430	58.00
3.11097	58.00
3.12763	58.00
3.14430	58.00
3.16097	58.00
3.17763	58.00
3.19430	58.00
3.21097	58.00
3.22763	58.00
3.24430	58.00
3.26097	58.00
3.27763	58.00
3.29430	58.00
3.31097	58.00
3.32763	58.00
3.34430	58.00
3.36097	58.00
3.37763	58.00
3.39430	58.00
3.41097	58.00
3.42763	58.00
3.44430	58.00
3.46097	58.00
3.47763	58.00
3.49430	58.00
3.51097	58.00
3.52763	58.00
3.54430	58.00
3.56097	58.00
3.57763	58.00
3.59430	58.00
3.61097	58.00
3.62763	58.00
3.64430	58.00
3.66097	58.00
3.67763	58.00
3.69430	58.00
3.71097	58.00
3.72763	58.00
3.74430	58.00
3.76097	58.00
3.77763	58.00
3.79430	58.00
3.81097	58.00
3.82763	58.00
3.84430	58.00
3.86097	58.00
3.87763	58.00
3.89430	58.00
3.91097	58.00
3.92763	58.00
3.94430	58.00
3.96097	58.00
3.97763	58.00
3.99430	58.00

[Status Trace (Carrier Gas Flow)]
Interval(msec)	1000
# of Points	240
Start Time(min)	0.011
End Time(min)	3.994
Intensity Units	
Intensity Multiplier	1
R.Time (min)	Intensity
0.01097	34.51
0.02763	34.54
0.04430	34.55
0.06097	34.54
0.07763	34.50
0.09430	34.51
0.11097	34.52
0.12763	34.51
0.14430	34.52
0.16097	34.52
0.17763	34.52
0.19430	34.52
0.21097	34.52
0.22763	34.52
0.24430	34.52
0.26097	34.51
0.27763	34.52
0.29430	34.52
0.31097	34.52
0.32763	34.52
0.34430	34.52
0.36097	34.52
0.37763	34.52
0.39430	34.52
0.41097	34.52
0.42763	34.52
0.44430	34.52
0.46097	34.52
0.47763	34.52
0.49430	34.52
0.51097	34.52
0.52763	34.52
0.54430	34.52
0.56097	34.52
0.57763	34.52
0.59430	34.52
0.61097	34.52
0.62763	34.52
0.64430	34.52
0.66097	34.52
0.67763	34.52
0.69430	34.52
0.71097	34.52
0.72763	34.52
0.74430	34.52
0.76097	34.52
0.77763	34.52
0.79430	34.52
0.81097	34.52
0.82763	34.51
0.84430	34.52
0.86097	34.52
0.87763	34.52
0.89430	34.52
0.91097	34.51
0.92763	34.52
0.94430	34.52
0.96097	34.52
0.97763	34.52
0.99430	34.52
1.01097	34.52
1.02763	34.52
1.04430	34.52
1.06097	34.52
1.07763	34.52
1.09430	34.52
1.11097	34.52
1.12763	34.52
1.14430	34.52
1.16097	34.52
1.17763	34.52
1.19430	34.52
1.21097	34.52
1.22763	34.52
1.24430	34.52
1.26097	34.52
1.27763	34.52
1.29430	34.52
1.31097	34.52
1.32763	34.52
1.34430	34.52
1.36097	34.52
1.37763	34.52
1.39430	34.52
1.41097	34.51
1.42763	34.52
1.44430	34.52
1.46097	34.52
1.47763	34.52
1.49430	34.52
1.51097	34.52
1.52763	34.52
1.54430	34.52
1.56097	34.52
1.57763	34.52
1.59430	34.52
1.61097	34.52
1.62763	34.52
1.64430	34.52
1.66097	34.52
1.67763	34.52
1.69430	34.52
1.71097	34.51
1.72763	34.52
1.74430	34.52
1.76097	34.52
1.77763	34.52
1.79430	34.51
1.81097	34.53
1.82763	34.52
1.84430	34.52
1.86097	34.53
1.87763	34.51
1.89430	34.52
1.91097	34.50
1.92763	34.51
1.94430	34.52
1.96097	34.53
1.97763	34.52
1.99430	34.52
2.01097	34.52
2.02763	34.52
2.04430	34.52
2.06097	34.51
2.07763	34.52
2.09430	34.51
2.11097	34.52
2.12763	34.52
2.14430	34.52
2.16097	34.52
2.17763	34.52
2.19430	34.52
2.21097	34.52
2.22763	34.52
2.24430	34.52
2.26097	34.52
2.27763	34.51
2.29430	34.52
2.31097	34.52
2.32763	34.52
2.34430	34.52
2.36097	34.52
2.37763	34.52
2.39430	34.52
2.41097	34.51
2.42763	34.52
2.44430	34.52
2.46097	34.52
2.47763	34.52
2.49430	34.52
2.51097	34.51
2.52763	34.52
2.54430	34.53
2.56097	34.53
2.57763	34.52
2.59430	34.52
2.61097	34.51
2.62763	34.52
2.64430	34.52
2.66097	34.52
2.67763	34.53
2.69430	34.51
2.71097	34.52
2.72763	34.52
2.74430	34.52
2.76097	34.52
2.77763	34.52
2.79430	34.52
2.81097	34.52
2.82763	34.52
2.84430	34.52
2.86097	34.52
2.87763	34.52
2.89430	34.52
2.91097	34.52
2.92763	34.52
2.94430	34.52
2.96097	34.51
2.97763	34.52
2.99430	34.51
3.01097	34.52
3.02763	34.52
3.04430	34.53
3.06097	34.52
3.07763	34.52
3.09430	34.52
3.11097	34.52
3.12763	34.52
3.14430	34.52
3.16097	34.52
3.17763	34.52
3.19430	34.52
3.21097	34.52
3.22763	34.52
3.24430	34.52
3.26097	34.52
3.27763	34.52
3.29430	34.52
3.31097	34.52
3.32763	34.52
3.34430	34.53
3.36097	34.52
3.37763	34.52
3.39430	34.52
3.41097	34.53
3.42763	34.52
3.44430	34.51
3.46097	34.52
3.47763	34.52
3.49430	34.52
3.51097	34.51
3.52763	34.52
3.54430	34.52
3.56097	34.51
3.57763	34.51
3.59430	34.52
3.61097	34.52
3.62763	34.53
3.64430	34.52
3.66097	34.52
3.67763	34.53
3.69430	34.52
3.71097	34.51
3.72763	34.52
3.74430	34.52
3.76097	34.51
3.77763	34.52
3.79430	34.52
3.81097	34.52
3.82763	34.52
3.84430	34.51
3.86097	34.52
3.87763	34.52
3.89430	34.52
3.91097	34.51
3.92763	34.52
3.94430	34.53
3.96097	34.51
3.97763	34.52
3.99430	34.53

[Status Trace (Column Flow)]
Interval(msec)	1000
# of Points	240
Start Time(min)	0.011
End Time(min)	3.994
Intensity Units	
Intensity Multiplier	1
R.Time (min)	Intensity
0.01097	5.55
0.02763	5.20
0.04430	5.49
0.06097	5.74
0.07763	5.67
0.09430	5.55
0.11097	5.55
0.12763	5.55
0.14430	5.55
0.16097	5.55
0.17763	5.55
0.19430	5.55
0.21097	5.55
0.22763	5.55
0.24430	5.55
0.26097	5.55
0.27763	5.55
0.29430	5.55
0.31097	5.55
0.32763	5.55
0.34430	5.55
0.36097	5.55
0.37763	5.55
0.39430	5.55
0.41097	5.55
0.42763	5.55
0.44430	5.55
0.46097	5.55
0.47763	5.55
0.49430	5.55
0.51097	5.55
0.52763	5.55
0.54430	5.55
0.56097	5.55
0.57763	5.55
0.59430	5.55
0.61097	5.55
0.62763	5.55
0.64430	5.55
0.66097	5.55
0.67763	5.55
0.69430	5.55
0.71097	5.55
0.72763	5.55
0.74430	5.55
0.76097	5.55
0.77763	5.55
0.79430	5.55
0.81097	5.55
0.82763	5.55
0.84430	5.55
0.86097	5.55
0.87763	5.55
0.89430	5.55
0.91097	5.55
0.92763	5.55
0.94430	5.55
0.96097	5.55
0.97763	5.55
0.99430	5.55
1.01097	5.55
1.02763	5.55
1.04430	5.55
1.06097	5.55
1.07763	5.55
1.09430	5.55
1.11097	5.55
1.12763	5.55
1.14430	5.55
1.16097	5.55
1.17763	5.55
1.19430	5.55
1.21097	5.55
1.22763	5.55
1.24430	5.55
1.26097	5.55
1.27763	5.55
1.29430	5.55
1.31097	5.55
1.32763	5.55
1.34430	5.55
1.36097	5.55
1.37763	5.55
1.39430	5.55
1.41097	5.55
1.42763	5.55
1.44430	5.55
1.46097	5.55
1.47763	5.55
1.49430	5.55
1.51097	5.55
1.52763	5.55
1.54430	5.55
1.56097	5.55
1.57763	5.55
1.59430	5.55
1.61097	5.55
1.62763	5.54
1.64430	5.54
1.66097	5.53
1.67763	5.52
1.69430	5.51
1.71097	5.50
1.72763	5.49
1.74430	5.48
1.76097	5.47
1.77763	5.46
1.79430	5.44
1.81097	5.43
1.82763	5.42
1.84430	5.41
1.86097	5.40
1.87763	5.39
1.89430	5.38
1.91097	5.37
1.92763	5.36
1.94430	5.35
1.96097	5.34
1.97763	5.34
1.99430	5.33
2.01097	5.32
2.02763	5.31
2.04430	5.30
2.06097	5.29
2.07763	5.28
2.09430	5.27
2.11097	5.26
2.12763	5.25
2.14430	5.24
2.16097	5.23
2.17763	5.22
2.19430	5.21
2.21097	5.20
2.22763	5.19
2.24430	5.18
2.26097	5.17
2.27763	5.16
2.29430	5.15
2.31097	5.15
2.32763	5.14
2.34430	5.13
2.36097	5.12
2.37763	5.12
2.39430	5.11
2.41097	5.11
2.42763	5.11
2.44430	5.11
2.46097	5.11
2.47763	5.11
2.49430	5.11
2.51097	5.11
2.52763	5.11
2.54430	5.11
2.56097	5.11
2.57763	5.11
2.59430	5.11
2.61097	5.11
2.62763	5.11
2.64430	5.11
2.66097	5.11
2.67763	5.11
2.69430	5.11
2.71097	5.11
2.72763	5.11
2.74430	5.11
2.76097	5.11
2.77763	5.11
2.79430	5.11
2.81097	5.11
2.82763	5.11
2.84430	5.11
2.86097	5.11
2.87763	5.11
2.89430	5.11
2.91097	5.11
2.92763	5.11
2.94430	5.11
2.96097	5.11
2.97763	5.11
2.99430	5.11
3.01097	5.11
3.02763	5.11
3.04430	5.11
3.06097	5.11
3.07763	5.11
3.09430	5.10
3.11097	5.10
3.12763	5.10
3.14430	5.10
3.16097	5.10
3.17763	5.10
3.19430	5.10
3.21097	5.10
3.22763	5.10
3.24430	5.10
3.26097	5.10
3.27763	5.10
3.29430	5.10
3.31097	5.10
3.32763	5.10
3.34430	5.10
3.36097	5.10
3.37763	5.10
3.39430	5.10
3.41097	5.10
3.42763	5.10
3.44430	5.10
3.46097	5.10
3.47763	5.11
3.49430	5.11
3.51097	5.11
3.52763	5.11
3.54430	5.11
3.56097	5.11
3.57763	5.10
3.59430	5.10
3.61097	5.10
3.62763	5.10
3.64430	5.10
3.66097	5.10
3.67763	5.10
3.69430	5.10
3.71097	5.10
3.72763	5.10
3.74430	5.10
3.76097	5.10
3.77763	5.10
3.79430	5.10
3.81097	5.10
3.82763	5.10
3.84430	5.10
3.86097	5.10
3.87763	5.10
3.89430	5.10
3.91097	5.10
3.92763	5.10
3.94430	5.10
3.96097	5.10
3.97763	5.10
3.99430	5.10

[Status Trace (Linear Velocity)]
Interval(msec)	1000
# of Points	240
Start Time(min)	0.011
End Time(min)	3.994
Intensity Units	
Intensity Multiplier	1
R.Time (min)	Intensity
0.01097	39.02
0.02763	37.05
0.04430	38.69
0.06097	40.07
0.07763	39.68
0.09430	39.03
0.11097	39.01
0.12763	39.03
0.14430	39.03
0.16097	39.03
0.17763	39.02
0.19430	39.02
0.21097	39.02
0.22763	39.03
0.24430	39.03
0.26097	39.02
0.27763	39.02
0.29430	39.02
0.31097	39.02
0.32763	39.02
0.34430	39.02
0.36097	39.02
0.37763	39.02
0.39430	39.03
0.41097	39.03
0.42763	39.03
0.44430	39.03
0.46097	39.03
0.47763	39.03
0.49430	39.02
0.51097	39.02
0.52763	39.02
0.54430	39.02
0.56097	39.02
0.57763	39.02
0.59430	39.02
0.61097	39.02
0.62763	39.02
0.64430	39.02
0.66097	39.02
0.67763	39.02
0.69430	39.02
0.71097	39.02
0.72763	39.02
0.74430	39.02
0.76097	39.02
0.77763	39.02
0.79430	39.02
0.81097	39.02
0.82763	39.02
0.84430	39.02
0.86097	39.02
0.87763	39.02
0.89430	39.02
0.91097	39.02
0.92763	39.02
0.94430	39.02
0.96097	39.02
0.97763	39.02
0.99430	39.02
1.01097	39.02
1.02763	39.02
1.04430	39.02
1.06097	39.02
1.07763	39.02
1.09430	39.02
1.11097	39.02
1.12763	39.02
1.14430	39.02
1.16097	39.02
1.17763	39.02
1.19430	39.02
1.21097	39.02
1.22763	39.02
1.24430	39.02
1.26097	39.02
1.27763	39.02
1.29430	39.02
1.31097	39.02
1.32763	39.02
1.34430	39.02
1.36097	39.03
1.37763	39.03
1.39430	39.03
1.41097	39.03
1.42763	39.02
1.44430	39.02
1.46097	39.02
1.47763	39.02
1.49430	39.02
1.51097	39.02
1.52763	39.02
1.54430	39.02
1.56097	39.02
1.57763	39.02
1.59430	39.02
1.61097	39.02
1.62763	39.00
1.64430	38.98
1.66097	38.96
1.67763	38.93
1.69430	38.89
1.71097	38.86
1.72763	38.82
1.74430	38.80
1.76097	38.76
1.77763	38.73
1.79430	38.70
1.81097	38.67
1.82763	38.64
1.84430	38.61
1.86097	38.58
1.87763	38.54
1.89430	38.51
1.91097	38.48
1.92763	38.45
1.94430	38.42
1.96097	38.39
1.97763	38.36
1.99430	38.33
2.01097	38.30
2.02763	38.27
2.04430	38.24
2.06097	38.21
2.07763	38.18
2.09430	38.15
2.11097	38.12
2.12763	38.09
2.14430	38.06
2.16097	38.03
2.17763	38.00
2.19430	37.97
2.21097	37.94
2.22763	37.91
2.24430	37.88
2.26097	37.85
2.27763	37.82
2.29430	37.80
2.31097	37.76
2.32763	37.74
2.34430	37.71
2.36097	37.69
2.37763	37.67
2.39430	37.66
2.41097	37.67
2.42763	37.67
2.44430	37.67
2.46097	37.67
2.47763	37.66
2.49430	37.66
2.51097	37.66
2.52763	37.66
2.54430	37.66
2.56097	37.66
2.57763	37.66
2.59430	37.66
2.61097	37.66
2.62763	37.66
2.64430	37.65
2.66097	37.65
2.67763	37.65
2.69430	37.65
2.71097	37.65
2.72763	37.65
2.74430	37.65
2.76097	37.65
2.77763	37.65
2.79430	37.65
2.81097	37.65
2.82763	37.65
2.84430	37.65
2.86097	37.65
2.87763	37.65
2.89430	37.65
2.91097	37.65
2.92763	37.64
2.94430	37.64
2.96097	37.64
2.97763	37.64
2.99430	37.64
3.01097	37.64
3.02763	37.64
3.04430	37.64
3.06097	37.64
3.07763	37.64
3.09430	37.64
3.11097	37.64
3.12763	37.64
3.14430	37.63
3.16097	37.63
3.17763	37.63
3.19430	37.63
3.21097	37.63
3.22763	37.63
3.24430	37.63
3.26097	37.63
3.27763	37.63
3.29430	37.63
3.31097	37.63
3.32763	37.63
3.34430	37.63
3.36097	37.63
3.37763	37.64
3.39430	37.64
3.41097	37.64
3.42763	37.64
3.44430	37.64
3.46097	37.64
3.47763	37.64
3.49430	37.64
3.51097	37.64
3.52763	37.64
3.54430	37.64
3.56097	37.64
3.57763	37.64
3.59430	37.64
3.61097	37.64
3.62763	37.64
3.64430	37.64
3.66097	37.64
3.67763	37.63
3.69430	37.63
3.71097	37.64
3.72763	37.63
3.74430	37.63
3.76097	37.63
3.77763	37.63
3.79430	37.63
3.81097	37.63
3.82763	37.63
3.84430	37.63
3.86097	37.63
3.87763	37.63
3.89430	37.63
3.91097	37.63
3.92763	37.63
3.94430	37.63
3.96097	37.63
3.97763	37.63
3.99430	37.63

