[Header]
Application Name	LabSolutions
Version	5.110
Data File Name	C:\Users\User\Desktop\GC Analyses\Jack\Nachusa Grasslands Sampling\T4 Timepoint July 12th\T4_07122022_049.gcd
Output Date	3/17/2023
Output Time	12:04:54 PM

[File Information]
Type	Data File
Generated	3/14/2023 8:49:56 PM
Generated by	System Administrator
Modified	3/14/2023 8:56:35 PM
Modified by	System Administrator

[Sample Information]
Operator Name	System Administrator
Acquired	3/14/2023 8:52:35 PM
Sample Type	0:Unknown
Level	0
Sample Name	049
Sample ID	049
ISTD Amount1	1
ISTD Amount2	1
ISTD Amount3	1
ISTD Amount4	1
ISTD Amount5	1
ISTD Amount6	1
ISTD Amount7	1
ISTD Amount8	1
ISTD Amount9	1
ISTD Amount10	1
ISTD Amount11	1
ISTD Amount12	1
ISTD Amount13	1
ISTD Amount14	1
ISTD Amount15	1
ISTD Amount16	1
ISTD Amount17	1
ISTD Amount18	1
ISTD Amount19	1
ISTD Amount20	1
ISTD Amount21	1
ISTD Amount22	1
ISTD Amount23	1
ISTD Amount24	1
ISTD Amount25	1
ISTD Amount26	1
ISTD Amount27	1
ISTD Amount28	1
ISTD Amount29	1
ISTD Amount30	1
ISTD Amount31	1
ISTD Amount32	1
Sample Amount	1
Dilution Factor	1
Vial#	48
Injection Volume	1
Injection Count	1
Bar Code	

[Original Files]
Data File	C:\Users\User\Desktop\GC Analyses\Jack\Nachusa Grasslands Sampling\T4 Timepoint July 12th\T4_07122022_049.gcd
Method File	C:\LabSolutions\Data\GHG_4min_2022\ghg3_togas_w_acet_4 min_new_int.gcm
Batch File	C:\LabSolutions\Data\AutoSamplerTesting\T4_07122022.gcb
Report Format File	c:\LabSolutions\System\DEFAULT.lsr

[File Description]


[Configuration]
Instrument Name	C0B7VH3-Instrument1
Instrument #	1
Line #	1
# of Detectors	3
Detector ID	DET#1	DET#2	DET#3
Detector Name	FID	PTCD	ECD
# of Channels	1	1	1

[Peak Table(Ch1)]
# of Peaks	3
Peak#	R.Time	I.Time	F.Time	Area	Height	A/H	Conc.	Mark	ID#	Name	k'	Plate #	Plate Ht.	Tailing	Resolution	Sep.Factor	Area Ratio	Height Ratio	Conc. %	Norm Conc.
1	1.476	1.439	1.534	21276	10460	2.034	150.210	   	1	CO	0.000	9651	15.542	1.283	0.000	0.000	0	0	12.785	12.785
2	1.571	1.538	1.626	4266	2195	1.943	82.487	   	2	CH4	0.065	11827	12.683	1.150	1.618	0.000	0	0	7.021	7.021
3	1.996	1.945	2.466	3753997	1798796	2.087	942.152	   	3	CO2	0.353	17306	8.667	1.331	7.180	5.462	0	0	80.193	80.193

[Peak Table(Ch2)]
# of Peaks	0

[Peak Table(Ch3)]
# of Peaks	5
Peak#	R.Time	I.Time	F.Time	Area	Height	A/H	Conc.	Mark	ID#	Name	k'	Plate #	Plate Ht.	Tailing	Resolution	Sep.Factor	Area Ratio	Height Ratio	Conc. %	Norm Conc.
1	2.462	2.308	2.510	2283	676	3.378	0.000	   			0.000	8901	16.852	0.000	0.000	0.000	0	0	0.000	0.000
2	2.532	2.510	2.587	1273	392	3.250	0.000	 V 			0.028	5796	25.880	0.000	0.587	0.000	0	0	0.000	0.000
3	2.598	2.587	2.678	598	190	3.154	0.000	 V 			0.055	1227	122.221	0.000	0.307	1.947	0	0	0.000	0.000
4	2.880	2.700	3.082	18371	4705	3.904	0.469	   	1	N2O	0.170	13070	11.477	1.504	1.421	3.081	0	0	100.000	100.000
5	3.353	3.162	3.995	16576	615	26.951	0.000	   	2	SF6	0.362	263	570.361	2.150	1.020	2.132	0	0	0.000	0.000

[Compound Results(Ch1)]
# of IDs	6
ID#	Name	R.Time	Area	Height	Conc.	Curve	3rd	2nd	1st	Constant	Area Ratio	Height Ratio	Conc. %	Norm Conc.
1	CO	1.476	21276	10460	150.210	Linear	0.000000e+00	0.000000e+00	1.416423e+002	0.000000e+00	0	0	12.785	12.785
2	CH4	1.571	4266	2195	82.487	Linear	0.000000e+00	0.000000e+00	5.171738e+001	0.000000e+00	0	0	7.021	7.021
3	CO2	1.996	3753997	1798796	942.152	Linear	0.000000e+00	0.000000e+00	3.984494e+003	0.000000e+00	0	0	80.193	80.193
4	Ethylene	0.000	0	0	0.000	Linear	0.000000e+00	0.000000e+00	0.000000e+00	0.000000e+00	0	0	0.000	0.000
5	Acetylene	0.000	0	0	0.000	Linear	0.000000e+00	0.000000e+00	0.000000e+00	0.000000e+00	0	0	0.000	0.000
6	Ethane	0.000	0	0	0.000	Linear	0.000000e+00	0.000000e+00	0.000000e+00	0.000000e+00	0	0	0.000	0.000

[Compound Results(Ch2)]
# of IDs	5
ID#	Name	R.Time	Area	Height	Conc.	Curve	3rd	2nd	1st	Constant	Area Ratio	Height Ratio	Conc. %	Norm Conc.
1	Hydrogen	0.000	0	0	0.000	Linear	0.000000e+00	0.000000e+00	0.000000e+00	0.000000e+00	0	0	0.000	0.000
2	Oxygen	0.000	0	0	0.000	Linear	0.000000e+00	0.000000e+00	0.000000e+00	0.000000e+00	0	0	0.000	0.000
3	Nitrogen	0.000	0	0	0.000	Linear	0.000000e+00	0.000000e+00	0.000000e+00	0.000000e+00	0	0	0.000	0.000
4	Methane	0.000	0	0	0.000	Linear	0.000000e+00	0.000000e+00	0.000000e+00	0.000000e+00	0	0	0.000	0.000
5	Carbon Monoxide	0.000	0	0	0.000	Linear	0.000000e+00	0.000000e+00	0.000000e+00	0.000000e+00	0	0	0.000	0.000

[Compound Results(Ch3)]
# of IDs	2
ID#	Name	R.Time	Area	Height	Conc.	Curve	3rd	2nd	1st	Constant	Area Ratio	Height Ratio	Conc. %	Norm Conc.
1	N2O	2.880	18371	4705	0.469	Linear	0.000000e+00	0.000000e+00	3.915173e+004	0.000000e+00	0	0	100.000	100.000
2	SF6	3.353	16576	615	0.000	Linear	0.000000e+00	0.000000e+00	0.000000e+00	0.000000e+00	0	0	0.000	0.000

[Group Results(Ch1)]
# of Groups	0

[Group Results(Ch2)]
# of Groups	0

[Group Results(Ch3)]
# of Groups	0

[Chromatogram (Ch1)]
Interval(msec)	220
# of Points	1091
Start Time(min)	0.002
End Time(min)	3.998
R.Time (min)	Intensity
0.00167	-51
0.00533	-48
0.00900	-45
0.01267	-40
0.01633	-36
0.02000	-31
0.02367	-24
0.02733	-16
0.03100	-8
0.03467	1
0.03833	7
0.04200	8
0.04567	4
0.04933	-2
0.05300	-8
0.05667	-10
0.06033	-5
0.06400	1
0.06767	5
0.07133	6
0.07500	7
0.07867	8
0.08233	11
0.08600	13
0.08967	8
0.09333	-3
0.09700	-16
0.10067	-26
0.10433	-31
0.10800	-34
0.11167	-34
0.11533	-27
0.11900	-15
0.12267	-5
0.12633	-1
0.13000	-4
0.13367	-10
0.13733	-15
0.14100	-15
0.14467	-16
0.14833	-24
0.15200	-33
0.15567	-29
0.15933	-22
0.16300	-23
0.16667	-28
0.17033	-29
0.17400	-23
0.17767	-18
0.18133	-17
0.18500	-15
0.18867	-8
0.19233	-5
0.19600	-5
0.19967	-4
0.20333	1
0.20700	8
0.21067	15
0.21433	26
0.21800	33
0.22167	35
0.22533	39
0.22900	48
0.23267	57
0.23633	59
0.24000	58
0.24367	56
0.24733	56
0.25100	58
0.25467	60
0.25833	65
0.26200	67
0.26567	70
0.26933	79
0.27300	88
0.27667	90
0.28033	87
0.28400	85
0.28767	84
0.29133	85
0.29500	88
0.29867	94
0.30233	100
0.30600	105
0.30967	108
0.31333	110
0.31700	111
0.32067	112
0.32433	113
0.32800	109
0.33167	101
0.33533	89
0.33900	72
0.34267	58
0.34633	48
0.35000	47
0.35367	50
0.35733	53
0.36100	53
0.36467	49
0.36833	51
0.37200	54
0.37567	52
0.37933	49
0.38300	48
0.38667	46
0.39033	38
0.39400	23
0.39767	7
0.40133	-8
0.40500	-17
0.40867	-14
0.41233	-5
0.41600	8
0.41967	22
0.42333	33
0.42700	37
0.43067	36
0.43433	30
0.43800	16
0.44167	4
0.44533	-5
0.44900	-11
0.45267	-13
0.45633	-11
0.46000	-16
0.46367	-20
0.46733	-23
0.47100	-24
0.47467	-26
0.47833	-28
0.48200	-24
0.48567	-17
0.48933	-10
0.49300	-0
0.49667	2
0.50033	-2
0.50400	-9
0.50767	-13
0.51133	-15
0.51500	-11
0.51867	-10
0.52233	-14
0.52600	-20
0.52967	-21
0.53333	-16
0.53700	-12
0.54067	-11
0.54433	-9
0.54800	-6
0.55167	-3
0.55533	-1
0.55900	0
0.56267	-0
0.56633	-2
0.57000	-5
0.57367	-4
0.57733	0
0.58100	2
0.58467	3
0.58833	4
0.59200	1
0.59567	-1
0.59933	-7
0.60300	-13
0.60667	-17
0.61033	-19
0.61400	-15
0.61767	-10
0.62133	-8
0.62500	-9
0.62867	-12
0.63233	-14
0.63600	-10
0.63967	-6
0.64333	-0
0.64700	5
0.65067	5
0.65433	4
0.65800	2
0.66167	1
0.66533	-1
0.66900	-4
0.67267	-11
0.67633	-21
0.68000	-31
0.68367	-36
0.68733	-33
0.69100	-25
0.69467	-17
0.69833	-12
0.70200	-10
0.70567	-10
0.70933	-11
0.71300	-16
0.71667	-21
0.72033	-25
0.72400	-20
0.72767	-17
0.73133	-17
0.73500	-19
0.73867	-25
0.74233	-33
0.74600	-40
0.74967	-43
0.75333	-43
0.75700	-42
0.76067	-38
0.76433	-28
0.76800	-16
0.77167	-10
0.77533	-11
0.77900	-9
0.78267	-9
0.78633	-5
0.79000	2
0.79367	9
0.79733	14
0.80100	13
0.80467	3
0.80833	-6
0.81200	-13
0.81567	-21
0.81933	-29
0.82300	-35
0.82667	-37
0.83033	-34
0.83400	-22
0.83767	-13
0.84133	-7
0.84500	-0
0.84867	-0
0.85233	-5
0.85600	-13
0.85967	-17
0.86333	-18
0.86700	-19
0.87067	-17
0.87433	-17
0.87800	-16
0.88167	-19
0.88533	-20
0.88900	-21
0.89267	-22
0.89633	-23
0.90000	-19
0.90367	-12
0.90733	-4
0.91100	5
0.91467	6
0.91833	-2
0.92200	-10
0.92567	-16
0.92933	-21
0.93300	-21
0.93667	-17
0.94033	-16
0.94400	-11
0.94767	-7
0.95133	-8
0.95500	-13
0.95867	-21
0.96233	-27
0.96600	-31
0.96967	-28
0.97333	-22
0.97700	-17
0.98067	-12
0.98433	-12
0.98800	-16
0.99167	-21
0.99533	-23
0.99900	-24
1.00267	-23
1.00633	-21
1.01000	-17
1.01367	-14
1.01733	-13
1.02100	-15
1.02467	-20
1.02833	-22
1.03200	-16
1.03567	-14
1.03933	-13
1.04300	-17
1.04667	-28
1.05033	-42
1.05400	-54
1.05767	-54
1.06133	-43
1.06500	-33
1.06867	-29
1.07233	-27
1.07600	-29
1.07967	-30
1.08333	-28
1.08700	-25
1.09067	-23
1.09433	-23
1.09800	-23
1.10167	-26
1.10533	-32
1.10900	-35
1.11267	-35
1.11633	-33
1.12000	-25
1.12367	-13
1.12733	-11
1.13100	-16
1.13467	-26
1.13833	-40
1.14200	-49
1.14567	-53
1.14933	-54
1.15300	-52
1.15667	-47
1.16033	-42
1.16400	-33
1.16767	-27
1.17133	-26
1.17500	-29
1.17867	-31
1.18233	-29
1.18600	-33
1.18967	-27
1.19333	-21
1.19700	-18
1.20067	-18
1.20433	-19
1.20800	-22
1.21167	-24
1.21533	-26
1.21900	-24
1.22267	-25
1.22633	-27
1.23000	-28
1.23367	-31
1.23733	-36
1.24100	-40
1.24467	-42
1.24833	-46
1.25200	-46
1.25567	-37
1.25933	-25
1.26300	-18
1.26667	-17
1.27033	-16
1.27400	-19
1.27767	-27
1.28133	-42
1.28500	-55
1.28867	-62
1.29233	-64
1.29600	-63
1.29967	-64
1.30333	-64
1.30700	-64
1.31067	-64
1.31433	-65
1.31800	-69
1.32167	-72
1.32533	-69
1.32900	-65
1.33267	-61
1.33633	-57
1.34000	-57
1.34367	-57
1.34733	-55
1.35100	-51
1.35467	-48
1.35833	-43
1.36200	-34
1.36567	-29
1.36933	-28
1.37300	-29
1.37667	-34
1.38033	-36
1.38400	-38
1.38767	-36
1.39133	-34
1.39500	-34
1.39867	-35
1.40233	-32
1.40600	-27
1.40967	-25
1.41333	-25
1.41700	-26
1.42067	-26
1.42433	-24
1.42800	-25
1.43167	-26
1.43533	-25
1.43900	-23
1.44267	5
1.44633	112
1.45000	430
1.45367	1252
1.45733	2792
1.46100	4816
1.46467	6848
1.46833	8547
1.47200	9771
1.47567	10424
1.47933	10396
1.48300	9651
1.48667	8325
1.49033	6704
1.49400	5082
1.49767	3671
1.50133	2554
1.50500	1721
1.50867	1123
1.51233	707
1.51600	424
1.51967	236
1.52333	111
1.52700	30
1.53067	-26
1.53433	-58
1.53800	-63
1.54167	-27
1.54533	106
1.54900	387
1.55267	792
1.55633	1230
1.56000	1619
1.56367	1913
1.56733	2090
1.57100	2125
1.57467	1994
1.57833	1715
1.58200	1357
1.58567	995
1.58933	686
1.59300	446
1.59667	273
1.60033	153
1.60400	72
1.60767	14
1.61133	-25
1.61500	-52
1.61867	-67
1.62233	-74
1.62600	-82
1.62967	-88
1.63333	-91
1.63700	-95
1.64067	-93
1.64433	-87
1.64800	-79
1.65167	-74
1.65533	-73
1.65900	-71
1.66267	-69
1.66633	-70
1.67000	-71
1.67367	-76
1.67733	-86
1.68100	-97
1.68467	-105
1.68833	-106
1.69200	-101
1.69567	-95
1.69933	-91
1.70300	-89
1.70667	-88
1.71033	-88
1.71400	-86
1.71767	-85
1.72133	-83
1.72500	-79
1.72867	-74
1.73233	-72
1.73600	-70
1.73967	-72
1.74333	-75
1.74700	-79
1.75067	-78
1.75433	-77
1.75800	-77
1.76167	-76
1.76533	-68
1.76900	-61
1.77267	-58
1.77633	-59
1.78000	-62
1.78367	-63
1.78733	-62
1.79100	-59
1.79467	-59
1.79833	-56
1.80200	-49
1.80567	-41
1.80933	-40
1.81300	-46
1.81667	-56
1.82033	-63
1.82400	-66
1.82767	-66
1.83133	-65
1.83500	-62
1.83867	-57
1.84233	-56
1.84600	-61
1.84967	-64
1.85333	-65
1.85700	-62
1.86067	-56
1.86433	-49
1.86800	-42
1.87167	-39
1.87533	-42
1.87900	-49
1.88267	-54
1.88633	-55
1.89000	-57
1.89367	-57
1.89733	-55
1.90100	-55
1.90467	-56
1.90833	-54
1.91200	-48
1.91567	-42
1.91933	-41
1.92300	-45
1.92667	-47
1.93033	-55
1.93400	-63
1.93767	-65
1.94133	-62
1.94500	-55
1.94867	-43
1.95233	-13
1.95600	153
1.95967	1219
1.96333	6687
1.96700	27942
1.97067	90975
1.97433	232984
1.97800	477600
1.98167	806065
1.98533	1160497
1.98900	1474478
1.99267	1696619
1.99633	1798775
2.00000	1774230
2.00367	1636782
2.00733	1417899
2.01100	1158859
2.01467	899545
2.01833	668955
2.02200	481373
2.02567	338578
2.02933	234983
2.03300	162317
2.03667	112467
2.04033	78711
2.04400	55975
2.04767	40649
2.05133	30254
2.05500	23122
2.05867	18150
2.06233	14614
2.06600	12040
2.06967	10122
2.07333	8658
2.07700	7522
2.08067	6620
2.08433	5891
2.08800	5294
2.09167	4797
2.09533	4375
2.09900	4015
2.10267	3703
2.10633	3431
2.11000	3193
2.11367	2984
2.11733	2800
2.12100	2633
2.12467	2478
2.12833	2338
2.13200	2211
2.13567	2101
2.13933	2000
2.14300	1906
2.14667	1817
2.15033	1733
2.15400	1659
2.15767	1588
2.16133	1520
2.16500	1455
2.16867	1394
2.17233	1338
2.17600	1286
2.17967	1243
2.18333	1205
2.18700	1164
2.19067	1121
2.19433	1083
2.19800	1047
2.20167	1015
2.20533	985
2.20900	949
2.21267	909
2.21633	877
2.22000	854
2.22367	839
2.22733	825
2.23100	808
2.23467	788
2.23833	769
2.24200	757
2.24567	746
2.24933	734
2.25300	717
2.25667	699
2.26033	683
2.26400	672
2.26767	662
2.27133	643
2.27500	620
2.27867	599
2.28233	579
2.28600	561
2.28967	549
2.29333	547
2.29700	545
2.30067	535
2.30433	523
2.30800	509
2.31167	494
2.31533	484
2.31900	480
2.32267	470
2.32633	456
2.33000	446
2.33367	441
2.33733	434
2.34100	426
2.34467	415
2.34833	405
2.35200	403
2.35567	406
2.35933	405
2.36300	400
2.36667	396
2.37033	391
2.37400	392
2.37767	398
2.38133	405
2.38500	406
2.38867	403
2.39233	394
2.39600	382
2.39967	365
2.40333	348
2.40700	336
2.41067	327
2.41433	324
2.41800	325
2.42167	326
2.42533	327
2.42900	330
2.43267	328
2.43633	321
2.44000	311
2.44367	304
2.44733	306
2.45100	315
2.45467	320
2.45833	315
2.46200	304
2.46567	296
2.46933	290
2.47300	284
2.47667	276
2.48033	273
2.48400	276
2.48767	279
2.49133	285
2.49500	292
2.49867	298
2.50233	304
2.50600	307
2.50967	303
2.51333	297
2.51700	293
2.52067	295
2.52433	301
2.52800	305
2.53167	305
2.53533	307
2.53900	307
2.54267	301
2.54633	293
2.55000	290
2.55367	286
2.55733	277
2.56100	272
2.56467	272
2.56833	272
2.57200	268
2.57567	262
2.57933	259
2.58300	256
2.58667	255
2.59033	257
2.59400	266
2.59767	276
2.60133	280
2.60500	279
2.60867	273
2.61233	264
2.61600	255
2.61967	245
2.62333	241
2.62700	246
2.63067	249
2.63433	240
2.63800	229
2.64167	220
2.64533	215
2.64900	216
2.65267	217
2.65633	217
2.66000	221
2.66367	223
2.66733	221
2.67100	221
2.67467	222
2.67833	218
2.68200	209
2.68567	202
2.68933	200
2.69300	203
2.69667	207
2.70033	208
2.70400	211
2.70767	220
2.71133	228
2.71500	236
2.71867	242
2.72233	241
2.72600	235
2.72967	230
2.73333	221
2.73700	208
2.74067	199
2.74433	193
2.74800	192
2.75167	195
2.75533	198
2.75900	202
2.76267	205
2.76633	217
2.77000	235
2.77367	242
2.77733	236
2.78100	224
2.78467	212
2.78833	202
2.79200	193
2.79567	188
2.79933	190
2.80300	196
2.80667	202
2.81033	207
2.81400	211
2.81767	216
2.82133	217
2.82500	210
2.82867	203
2.83233	198
2.83600	192
2.83967	187
2.84333	188
2.84700	192
2.85067	191
2.85433	190
2.85800	189
2.86167	192
2.86533	195
2.86900	198
2.87267	195
2.87633	192
2.88000	188
2.88367	185
2.88733	182
2.89100	180
2.89467	174
2.89833	168
2.90200	168
2.90567	174
2.90933	175
2.91300	175
2.91667	178
2.92033	182
2.92400	184
2.92767	188
2.93133	191
2.93500	191
2.93867	186
2.94233	176
2.94600	170
2.94967	170
2.95333	168
2.95700	162
2.96067	159
2.96433	158
2.96800	164
2.97167	172
2.97533	177
2.97900	182
2.98267	186
2.98633	182
2.99000	174
2.99367	169
2.99733	167
3.00100	163
3.00467	155
3.00833	149
3.01200	148
3.01567	153
3.01933	156
3.02300	156
3.02667	157
3.03033	159
3.03400	158
3.03767	160
3.04133	162
3.04500	158
3.04867	153
3.05233	154
3.05600	155
3.05967	154
3.06333	151
3.06700	149
3.07067	154
3.07433	160
3.07800	163
3.08167	159
3.08533	153
3.08900	152
3.09267	151
3.09633	151
3.10000	157
3.10367	161
3.10733	162
3.11100	161
3.11467	163
3.11833	161
3.12200	154
3.12567	147
3.12933	138
3.13300	127
3.13667	116
3.14033	110
3.14400	103
3.14767	97
3.15133	97
3.15500	104
3.15867	112
3.16233	117
3.16600	121
3.16967	124
3.17333	129
3.17700	136
3.18067	141
3.18433	141
3.18800	134
3.19167	128
3.19533	134
3.19900	146
3.20267	154
3.20633	153
3.21000	142
3.21367	132
3.21733	127
3.22100	126
3.22467	126
3.22833	124
3.23200	119
3.23567	116
3.23933	116
3.24300	118
3.24667	120
3.25033	123
3.25400	123
3.25767	122
3.26133	122
3.26500	124
3.26867	127
3.27233	130
3.27600	131
3.27967	133
3.28333	138
3.28700	144
3.29067	144
3.29433	139
3.29800	128
3.30167	116
3.30533	108
3.30900	102
3.31267	93
3.31633	86
3.32000	86
3.32367	85
3.32733	82
3.33100	84
3.33467	90
3.33833	100
3.34200	113
3.34567	115
3.34933	109
3.35300	106
3.35667	105
3.36033	103
3.36400	100
3.36767	99
3.37133	93
3.37500	89
3.37867	87
3.38233	88
3.38600	95
3.38967	107
3.39333	116
3.39700	120
3.40067	119
3.40433	113
3.40800	110
3.41167	112
3.41533	112
3.41900	110
3.42267	108
3.42633	107
3.43000	104
3.43367	104
3.43733	103
3.44100	103
3.44467	106
3.44833	108
3.45200	107
3.45567	103
3.45933	100
3.46300	97
3.46667	98
3.47033	103
3.47400	107
3.47767	109
3.48133	106
3.48500	99
3.48867	93
3.49233	94
3.49600	98
3.49967	98
3.50333	97
3.50700	92
3.51067	88
3.51433	88
3.51800	93
3.52167	96
3.52533	94
3.52900	88
3.53267	84
3.53633	84
3.54000	80
3.54367	76
3.54733	77
3.55100	81
3.55467	85
3.55833	84
3.56200	80
3.56567	78
3.56933	78
3.57300	82
3.57667	90
3.58033	98
3.58400	103
3.58767	103
3.59133	99
3.59500	91
3.59867	79
3.60233	67
3.60600	55
3.60967	46
3.61333	43
3.61700	42
3.62067	44
3.62433	47
3.62800	53
3.63167	57
3.63533	59
3.63900	59
3.64267	60
3.64633	65
3.65000	73
3.65367	80
3.65733	82
3.66100	82
3.66467	81
3.66833	77
3.67200	72
3.67567	68
3.67933	65
3.68300	65
3.68667	73
3.69033	85
3.69400	89
3.69767	80
3.70133	68
3.70500	59
3.70867	52
3.71233	49
3.71600	50
3.71967	48
3.72333	41
3.72700	34
3.73067	27
3.73433	23
3.73800	27
3.74167	35
3.74533	41
3.74900	45
3.75267	47
3.75633	44
3.76000	43
3.76367	44
3.76733	46
3.77100	46
3.77467	45
3.77833	49
3.78200	52
3.78567	50
3.78933	49
3.79300	53
3.79667	56
3.80033	58
3.80400	57
3.80767	54
3.81133	52
3.81500	47
3.81867	36
3.82233	25
3.82600	20
3.82967	19
3.83333	21
3.83700	27
3.84067	39
3.84433	49
3.84800	52
3.85167	51
3.85533	51
3.85900	51
3.86267	48
3.86633	44
3.87000	42
3.87367	41
3.87733	40
3.88100	38
3.88467	30
3.88833	18
3.89200	6
3.89567	-2
3.89933	-3
3.90300	0
3.90667	6
3.91033	12
3.91400	19
3.91767	20
3.92133	19
3.92500	16
3.92867	12
3.93233	15
3.93600	23
3.93967	31
3.94333	36
3.94700	38
3.95067	34
3.95433	27
3.95800	25
3.96167	26
3.96533	26
3.96900	28
3.97267	31
3.97633	33
3.98000	34
3.98367	30
3.98733	25
3.99100	20
3.99467	18
3.99833	17

[Chromatogram (Ch2)]
Interval(msec)	220
# of Points	1091
Start Time(min)	0.002
End Time(min)	3.998
R.Time (min)	Intensity
0.00167	-1
0.00533	-2
0.00900	-2
0.01267	-3
0.01633	-3
0.02000	-4
0.02367	-4
0.02733	-4
0.03100	-4
0.03467	-4
0.03833	-3
0.04200	-3
0.04567	-3
0.04933	-2
0.05300	-2
0.05667	-2
0.06033	-2
0.06400	-1
0.06767	-1
0.07133	-0
0.07500	0
0.07867	0
0.08233	1
0.08600	1
0.08967	1
0.09333	0
0.09700	0
0.10067	0
0.10433	0
0.10800	-0
0.11167	-0
0.11533	-1
0.11900	-1
0.12267	-1
0.12633	-1
0.13000	-2
0.13367	-2
0.13733	-2
0.14100	-1
0.14467	-1
0.14833	-1
0.15200	-1
0.15567	-1
0.15933	-1
0.16300	-1
0.16667	-1
0.17033	-1
0.17400	-1
0.17767	-2
0.18133	-2
0.18500	-2
0.18867	-2
0.19233	-2
0.19600	-2
0.19967	-2
0.20333	-2
0.20700	-2
0.21067	-2
0.21433	-2
0.21800	-2
0.22167	-2
0.22533	-2
0.22900	-2
0.23267	-2
0.23633	-2
0.24000	-2
0.24367	-2
0.24733	-1
0.25100	-1
0.25467	-2
0.25833	-2
0.26200	-2
0.26567	-2
0.26933	-2
0.27300	-2
0.27667	-2
0.28033	-2
0.28400	-2
0.28767	-2
0.29133	-2
0.29500	-1
0.29867	-1
0.30233	-1
0.30600	-0
0.30967	-0
0.31333	-0
0.31700	-0
0.32067	-1
0.32433	-1
0.32800	-1
0.33167	-1
0.33533	-2
0.33900	-2
0.34267	-2
0.34633	-2
0.35000	-2
0.35367	-2
0.35733	-2
0.36100	-2
0.36467	-1
0.36833	-1
0.37200	-0
0.37567	-0
0.37933	0
0.38300	0
0.38667	0
0.39033	0
0.39400	0
0.39767	0
0.40133	1
0.40500	1
0.40867	1
0.41233	1
0.41600	1
0.41967	1
0.42333	1
0.42700	1
0.43067	1
0.43433	1
0.43800	1
0.44167	1
0.44533	1
0.44900	1
0.45267	0
0.45633	-0
0.46000	-0
0.46367	-1
0.46733	-1
0.47100	-2
0.47467	-2
0.47833	-2
0.48200	-3
0.48567	-3
0.48933	-3
0.49300	-3
0.49667	-3
0.50033	-3
0.50400	-3
0.50767	-2
0.51133	-2
0.51500	-2
0.51867	-3
0.52233	-3
0.52600	-3
0.52967	-2
0.53333	-2
0.53700	-2
0.54067	-1
0.54433	-1
0.54800	-1
0.55167	-0
0.55533	-0
0.55900	-0
0.56267	0
0.56633	0
0.57000	-0
0.57367	-0
0.57733	-0
0.58100	-0
0.58467	-0
0.58833	-0
0.59200	-1
0.59567	-1
0.59933	-1
0.60300	-2
0.60667	-2
0.61033	-2
0.61400	-1
0.61767	-1
0.62133	-1
0.62500	-1
0.62867	-1
0.63233	-1
0.63600	-1
0.63967	-1
0.64333	-1
0.64700	-1
0.65067	-1
0.65433	-2
0.65800	-2
0.66167	-2
0.66533	-3
0.66900	-3
0.67267	-3
0.67633	-4
0.68000	-5
0.68367	-5
0.68733	-5
0.69100	-5
0.69467	-5
0.69833	-5
0.70200	-5
0.70567	-4
0.70933	-4
0.71300	-4
0.71667	-4
0.72033	-4
0.72400	-4
0.72767	-4
0.73133	-4
0.73500	-4
0.73867	-4
0.74233	-3
0.74600	-3
0.74967	-3
0.75333	-3
0.75700	-3
0.76067	-3
0.76433	-2
0.76800	-2
0.77167	-2
0.77533	-2
0.77900	-2
0.78267	-1
0.78633	-1
0.79000	-1
0.79367	-0
0.79733	-0
0.80100	-0
0.80467	0
0.80833	0
0.81200	1
0.81567	1
0.81933	1
0.82300	1
0.82667	1
0.83033	1
0.83400	0
0.83767	0
0.84133	-0
0.84500	-0
0.84867	-1
0.85233	-1
0.85600	-1
0.85967	-2
0.86333	-2
0.86700	-2
0.87067	-3
0.87433	-3
0.87800	-4
0.88167	-4
0.88533	-4
0.88900	-4
0.89267	-4
0.89633	-4
0.90000	-5
0.90367	-5
0.90733	-5
0.91100	-5
0.91467	-5
0.91833	-5
0.92200	-4
0.92567	-4
0.92933	-4
0.93300	-4
0.93667	-4
0.94033	-4
0.94400	-4
0.94767	-4
0.95133	-4
0.95500	-4
0.95867	-4
0.96233	-4
0.96600	-4
0.96967	-3
0.97333	-3
0.97700	-3
0.98067	-3
0.98433	-3
0.98800	-3
0.99167	-3
0.99533	-3
0.99900	-3
1.00267	-3
1.00633	-2
1.01000	-2
1.01367	-2
1.01733	-2
1.02100	-3
1.02467	-3
1.02833	-3
1.03200	-3
1.03567	-3
1.03933	-2
1.04300	-2
1.04667	-1
1.05033	-1
1.05400	-0
1.05767	0
1.06133	1
1.06500	1
1.06867	1
1.07233	1
1.07600	1
1.07967	1
1.08333	1
1.08700	0
1.09067	-0
1.09433	-0
1.09800	-1
1.10167	-1
1.10533	-2
1.10900	-2
1.11267	-3
1.11633	-3
1.12000	-3
1.12367	-3
1.12733	-3
1.13100	-2
1.13467	-2
1.13833	-2
1.14200	-1
1.14567	-1
1.14933	-1
1.15300	-1
1.15667	-1
1.16033	-1
1.16400	-1
1.16767	-1
1.17133	-1
1.17500	-1
1.17867	-1
1.18233	-1
1.18600	-1
1.18967	-1
1.19333	-1
1.19700	-1
1.20067	-1
1.20433	-1
1.20800	-1
1.21167	-1
1.21533	-1
1.21900	-1
1.22267	-1
1.22633	-1
1.23000	-1
1.23367	-1
1.23733	-0
1.24100	-0
1.24467	-0
1.24833	-0
1.25200	-0
1.25567	-0
1.25933	-0
1.26300	-0
1.26667	-0
1.27033	-1
1.27400	-1
1.27767	-1
1.28133	-2
1.28500	-2
1.28867	-2
1.29233	-3
1.29600	-3
1.29967	-3
1.30333	-3
1.30700	-3
1.31067	-3
1.31433	-3
1.31800	-3
1.32167	-3
1.32533	-3
1.32900	-2
1.33267	-2
1.33633	-2
1.34000	-2
1.34367	-2
1.34733	-2
1.35100	-2
1.35467	-2
1.35833	-2
1.36200	-2
1.36567	-2
1.36933	-2
1.37300	-2
1.37667	-2
1.38033	-1
1.38400	-1
1.38767	-1
1.39133	-1
1.39500	-1
1.39867	-1
1.40233	-1
1.40600	-1
1.40967	-1
1.41333	-1
1.41700	-2
1.42067	-2
1.42433	-1
1.42800	-1
1.43167	-1
1.43533	-1
1.43900	-2
1.44267	-2
1.44633	-2
1.45000	-2
1.45367	-2
1.45733	-2
1.46100	-3
1.46467	-3
1.46833	-3
1.47200	-3
1.47567	-3
1.47933	-3
1.48300	-3
1.48667	-3
1.49033	-3
1.49400	-3
1.49767	-3
1.50133	-3
1.50500	-3
1.50867	-3
1.51233	-3
1.51600	-3
1.51967	-2
1.52333	-2
1.52700	-2
1.53067	-1
1.53433	-1
1.53800	-1
1.54167	-1
1.54533	-1
1.54900	-0
1.55267	-0
1.55633	-0
1.56000	-1
1.56367	-1
1.56733	-1
1.57100	-1
1.57467	-1
1.57833	-1
1.58200	-1
1.58567	-1
1.58933	-2
1.59300	-2
1.59667	-3
1.60033	-5
1.60400	-6
1.60767	-8
1.61133	-10
1.61500	-13
1.61867	-15
1.62233	-18
1.62600	-21
1.62967	-25
1.63333	-28
1.63700	-31
1.64067	-35
1.64433	-38
1.64800	-41
1.65167	-45
1.65533	-48
1.65900	-51
1.66267	-54
1.66633	-58
1.67000	-61
1.67367	-65
1.67733	-69
1.68100	-73
1.68467	-78
1.68833	-82
1.69200	-87
1.69567	-90
1.69933	-94
1.70300	-96
1.70667	-98
1.71033	-100
1.71400	-102
1.71767	-104
1.72133	-105
1.72500	-107
1.72867	-107
1.73233	-108
1.73600	-109
1.73967	-110
1.74333	-111
1.74700	-111
1.75067	-111
1.75433	-111
1.75800	-111
1.76167	-111
1.76533	-111
1.76900	-111
1.77267	-111
1.77633	-112
1.78000	-113
1.78367	-113
1.78733	-114
1.79100	-115
1.79467	-115
1.79833	-116
1.80200	-116
1.80567	-116
1.80933	-116
1.81300	-116
1.81667	-116
1.82033	-115
1.82400	-115
1.82767	-114
1.83133	-114
1.83500	-113
1.83867	-113
1.84233	-113
1.84600	-112
1.84967	-112
1.85333	-112
1.85700	-113
1.86067	-113
1.86433	-113
1.86800	-113
1.87167	-113
1.87533	-114
1.87900	-114
1.88267	-114
1.88633	-115
1.89000	-115
1.89367	-115
1.89733	-115
1.90100	-115
1.90467	-115
1.90833	-115
1.91200	-115
1.91567	-115
1.91933	-114
1.92300	-114
1.92667	-113
1.93033	-113
1.93400	-113
1.93767	-113
1.94133	-113
1.94500	-113
1.94867	-113
1.95233	-112
1.95600	-112
1.95967	-111
1.96333	-110
1.96700	-109
1.97067	-109
1.97433	-109
1.97800	-108
1.98167	-108
1.98533	-107
1.98900	-108
1.99267	-108
1.99633	-108
2.00000	-108
2.00367	-108
2.00733	-108
2.01100	-108
2.01467	-108
2.01833	-108
2.02200	-108
2.02567	-107
2.02933	-106
2.03300	-105
2.03667	-104
2.04033	-104
2.04400	-103
2.04767	-103
2.05133	-103
2.05500	-103
2.05867	-103
2.06233	-103
2.06600	-102
2.06967	-102
2.07333	-102
2.07700	-102
2.08067	-101
2.08433	-101
2.08800	-101
2.09167	-101
2.09533	-101
2.09900	-101
2.10267	-101
2.10633	-101
2.11000	-100
2.11367	-100
2.11733	-99
2.12100	-98
2.12467	-97
2.12833	-96
2.13200	-96
2.13567	-95
2.13933	-95
2.14300	-94
2.14667	-94
2.15033	-94
2.15400	-94
2.15767	-94
2.16133	-95
2.16500	-95
2.16867	-95
2.17233	-95
2.17600	-95
2.17967	-95
2.18333	-95
2.18700	-94
2.19067	-94
2.19433	-94
2.19800	-94
2.20167	-94
2.20533	-93
2.20900	-93
2.21267	-92
2.21633	-91
2.22000	-90
2.22367	-89
2.22733	-89
2.23100	-89
2.23467	-90
2.23833	-90
2.24200	-90
2.24567	-90
2.24933	-90
2.25300	-90
2.25667	-90
2.26033	-89
2.26400	-88
2.26767	-88
2.27133	-87
2.27500	-87
2.27867	-87
2.28233	-87
2.28600	-86
2.28967	-86
2.29333	-85
2.29700	-84
2.30067	-84
2.30433	-83
2.30800	-82
2.31167	-81
2.31533	-81
2.31900	-81
2.32267	-81
2.32633	-81
2.33000	-81
2.33367	-80
2.33733	-80
2.34100	-79
2.34467	-78
2.34833	-76
2.35200	-75
2.35567	-74
2.35933	-73
2.36300	-72
2.36667	-70
2.37033	-68
2.37400	-66
2.37767	-63
2.38133	-60
2.38500	-56
2.38867	-52
2.39233	-48
2.39600	-44
2.39967	-39
2.40333	-34
2.40700	-30
2.41067	-26
2.41433	-22
2.41800	-19
2.42167	-16
2.42533	-13
2.42900	-12
2.43267	-10
2.43633	-10
2.44000	-9
2.44367	-9
2.44733	-9
2.45100	-9
2.45467	-9
2.45833	-8
2.46200	-7
2.46567	-6
2.46933	-5
2.47300	-4
2.47667	-3
2.48033	-2
2.48400	-2
2.48767	-1
2.49133	1
2.49500	2
2.49867	3
2.50233	5
2.50600	6
2.50967	7
2.51333	8
2.51700	8
2.52067	9
2.52433	10
2.52800	10
2.53167	10
2.53533	10
2.53900	10
2.54267	11
2.54633	12
2.55000	13
2.55367	14
2.55733	14
2.56100	14
2.56467	14
2.56833	14
2.57200	14
2.57567	14
2.57933	14
2.58300	14
2.58667	14
2.59033	15
2.59400	15
2.59767	15
2.60133	15
2.60500	15
2.60867	15
2.61233	15
2.61600	15
2.61967	16
2.62333	16
2.62700	16
2.63067	16
2.63433	16
2.63800	17
2.64167	17
2.64533	17
2.64900	18
2.65267	18
2.65633	18
2.66000	18
2.66367	19
2.66733	19
2.67100	19
2.67467	20
2.67833	20
2.68200	20
2.68567	20
2.68933	20
2.69300	20
2.69667	21
2.70033	21
2.70400	21
2.70767	21
2.71133	21
2.71500	21
2.71867	21
2.72233	21
2.72600	21
2.72967	21
2.73333	21
2.73700	21
2.74067	22
2.74433	22
2.74800	22
2.75167	23
2.75533	23
2.75900	24
2.76267	24
2.76633	25
2.77000	25
2.77367	26
2.77733	26
2.78100	26
2.78467	27
2.78833	27
2.79200	27
2.79567	27
2.79933	27
2.80300	27
2.80667	27
2.81033	27
2.81400	26
2.81767	26
2.82133	25
2.82500	25
2.82867	24
2.83233	23
2.83600	22
2.83967	22
2.84333	21
2.84700	19
2.85067	15
2.85433	10
2.85800	2
2.86167	-9
2.86533	-24
2.86900	-44
2.87267	-68
2.87633	-96
2.88000	-129
2.88367	-166
2.88733	-207
2.89100	-251
2.89467	-299
2.89833	-349
2.90200	-402
2.90567	-455
2.90933	-510
2.91300	-565
2.91667	-620
2.92033	-675
2.92400	-729
2.92767	-782
2.93133	-833
2.93500	-884
2.93867	-939
2.94233	-998
2.94600	-1050
2.94967	-1086
2.95333	-1099
2.95700	-1085
2.96067	-1048
2.96433	-992
2.96800	-923
2.97167	-846
2.97533	-765
2.97900	-686
2.98267	-609
2.98633	-536
2.99000	-470
2.99367	-409
2.99733	-354
3.00100	-305
3.00467	-262
3.00833	-224
3.01200	-191
3.01567	-162
3.01933	-137
3.02300	-115
3.02667	-96
3.03033	-80
3.03400	-67
3.03767	-55
3.04133	-45
3.04500	-37
3.04867	-29
3.05233	-23
3.05600	-17
3.05967	-13
3.06333	-9
3.06700	-5
3.07067	-2
3.07433	0
3.07800	2
3.08167	4
3.08533	6
3.08900	7
3.09267	8
3.09633	9
3.10000	10
3.10367	11
3.10733	12
3.11100	12
3.11467	13
3.11833	13
3.12200	14
3.12567	14
3.12933	15
3.13300	15
3.13667	15
3.14033	16
3.14400	16
3.14767	16
3.15133	16
3.15500	16
3.15867	16
3.16233	17
3.16600	17
3.16967	17
3.17333	17
3.17700	18
3.18067	18
3.18433	18
3.18800	18
3.19167	18
3.19533	18
3.19900	19
3.20267	19
3.20633	19
3.21000	20
3.21367	20
3.21733	20
3.22100	20
3.22467	20
3.22833	21
3.23200	21
3.23567	21
3.23933	21
3.24300	21
3.24667	21
3.25033	21
3.25400	21
3.25767	21
3.26133	21
3.26500	21
3.26867	21
3.27233	21
3.27600	21
3.27967	22
3.28333	22
3.28700	22
3.29067	22
3.29433	23
3.29800	23
3.30167	23
3.30533	23
3.30900	23
3.31267	23
3.31633	23
3.32000	23
3.32367	23
3.32733	23
3.33100	23
3.33467	23
3.33833	23
3.34200	23
3.34567	23
3.34933	23
3.35300	24
3.35667	24
3.36033	24
3.36400	24
3.36767	24
3.37133	25
3.37500	25
3.37867	25
3.38233	25
3.38600	26
3.38967	26
3.39333	26
3.39700	27
3.40067	27
3.40433	27
3.40800	28
3.41167	28
3.41533	28
3.41900	27
3.42267	27
3.42633	27
3.43000	27
3.43367	27
3.43733	27
3.44100	27
3.44467	27
3.44833	27
3.45200	27
3.45567	27
3.45933	27
3.46300	27
3.46667	27
3.47033	27
3.47400	27
3.47767	27
3.48133	27
3.48500	27
3.48867	27
3.49233	27
3.49600	27
3.49967	27
3.50333	27
3.50700	27
3.51067	27
3.51433	27
3.51800	27
3.52167	27
3.52533	27
3.52900	27
3.53267	27
3.53633	27
3.54000	27
3.54367	27
3.54733	27
3.55100	27
3.55467	26
3.55833	26
3.56200	26
3.56567	26
3.56933	26
3.57300	26
3.57667	25
3.58033	25
3.58400	25
3.58767	25
3.59133	25
3.59500	25
3.59867	25
3.60233	25
3.60600	25
3.60967	25
3.61333	25
3.61700	25
3.62067	25
3.62433	25
3.62800	25
3.63167	25
3.63533	25
3.63900	25
3.64267	25
3.64633	25
3.65000	26
3.65367	26
3.65733	26
3.66100	26
3.66467	26
3.66833	26
3.67200	26
3.67567	26
3.67933	26
3.68300	26
3.68667	26
3.69033	26
3.69400	26
3.69767	25
3.70133	25
3.70500	26
3.70867	26
3.71233	26
3.71600	26
3.71967	26
3.72333	26
3.72700	26
3.73067	26
3.73433	26
3.73800	26
3.74167	26
3.74533	26
3.74900	26
3.75267	26
3.75633	26
3.76000	26
3.76367	26
3.76733	26
3.77100	26
3.77467	25
3.77833	25
3.78200	25
3.78567	24
3.78933	24
3.79300	24
3.79667	24
3.80033	24
3.80400	24
3.80767	24
3.81133	24
3.81500	24
3.81867	24
3.82233	24
3.82600	24
3.82967	24
3.83333	24
3.83700	24
3.84067	24
3.84433	24
3.84800	24
3.85167	24
3.85533	23
3.85900	23
3.86267	23
3.86633	24
3.87000	24
3.87367	24
3.87733	24
3.88100	24
3.88467	24
3.88833	24
3.89200	24
3.89567	24
3.89933	24
3.90300	24
3.90667	25
3.91033	25
3.91400	25
3.91767	25
3.92133	25
3.92500	25
3.92867	25
3.93233	25
3.93600	25
3.93967	25
3.94333	25
3.94700	25
3.95067	25
3.95433	25
3.95800	25
3.96167	25
3.96533	25
3.96900	25
3.97267	25
3.97633	25
3.98000	25
3.98367	25
3.98733	24
3.99100	24
3.99467	24
3.99833	24

[Chromatogram (Ch3)]
Interval(msec)	220
# of Points	1091
Start Time(min)	0.002
End Time(min)	3.998
R.Time (min)	Intensity
0.00167	-1
0.00533	-2
0.00900	-2
0.01267	-1
0.01633	-1
0.02000	0
0.02367	-0
0.02733	-4
0.03100	-5
0.03467	-5
0.03833	-4
0.04200	-2
0.04567	-2
0.04933	-2
0.05300	1
0.05667	2
0.06033	4
0.06400	3
0.06767	2
0.07133	3
0.07500	5
0.07867	5
0.08233	6
0.08600	5
0.08967	3
0.09333	1
0.09700	1
0.10067	0
0.10433	-0
0.10800	-1
0.11167	-0
0.11533	0
0.11900	1
0.12267	1
0.12633	1
0.13000	2
0.13367	2
0.13733	3
0.14100	5
0.14467	5
0.14833	4
0.15200	1
0.15567	1
0.15933	3
0.16300	5
0.16667	7
0.17033	7
0.17400	8
0.17767	7
0.18133	7
0.18500	8
0.18867	11
0.19233	13
0.19600	15
0.19967	14
0.20333	13
0.20700	11
0.21067	8
0.21433	7
0.21800	8
0.22167	8
0.22533	7
0.22900	7
0.23267	5
0.23633	4
0.24000	5
0.24367	6
0.24733	5
0.25100	3
0.25467	4
0.25833	5
0.26200	5
0.26567	4
0.26933	3
0.27300	3
0.27667	5
0.28033	6
0.28400	4
0.28767	2
0.29133	2
0.29500	4
0.29867	5
0.30233	6
0.30600	7
0.30967	8
0.31333	6
0.31700	5
0.32067	5
0.32433	5
0.32800	6
0.33167	6
0.33533	5
0.33900	5
0.34267	6
0.34633	8
0.35000	10
0.35367	9
0.35733	7
0.36100	5
0.36467	4
0.36833	3
0.37200	4
0.37567	6
0.37933	8
0.38300	9
0.38667	8
0.39033	8
0.39400	8
0.39767	7
0.40133	6
0.40500	6
0.40867	6
0.41233	7
0.41600	6
0.41967	7
0.42333	7
0.42700	7
0.43067	8
0.43433	6
0.43800	1
0.44167	-1
0.44533	-2
0.44900	-1
0.45267	3
0.45633	3
0.46000	2
0.46367	2
0.46733	5
0.47100	8
0.47467	9
0.47833	8
0.48200	8
0.48567	9
0.48933	8
0.49300	6
0.49667	6
0.50033	5
0.50400	3
0.50767	-0
0.51133	-2
0.51500	-2
0.51867	1
0.52233	3
0.52600	4
0.52967	5
0.53333	7
0.53700	9
0.54067	10
0.54433	10
0.54800	11
0.55167	9
0.55533	7
0.55900	4
0.56267	3
0.56633	2
0.57000	3
0.57367	2
0.57733	-0
0.58100	-1
0.58467	-0
0.58833	2
0.59200	3
0.59567	4
0.59933	4
0.60300	3
0.60667	5
0.61033	6
0.61400	6
0.61767	6
0.62133	4
0.62500	3
0.62867	1
0.63233	-1
0.63600	1
0.63967	2
0.64333	2
0.64700	2
0.65067	1
0.65433	1
0.65800	2
0.66167	2
0.66533	2
0.66900	2
0.67267	1
0.67633	2
0.68000	1
0.68367	1
0.68733	2
0.69100	5
0.69467	7
0.69833	6
0.70200	6
0.70567	7
0.70933	7
0.71300	6
0.71667	4
0.72033	4
0.72400	6
0.72767	6
0.73133	8
0.73500	10
0.73867	11
0.74233	12
0.74600	13
0.74967	11
0.75333	9
0.75700	9
0.76067	9
0.76433	10
0.76800	10
0.77167	10
0.77533	10
0.77900	12
0.78267	13
0.78633	13
0.79000	10
0.79367	8
0.79733	6
0.80100	6
0.80467	7
0.80833	8
0.81200	8
0.81567	9
0.81933	10
0.82300	10
0.82667	12
0.83033	13
0.83400	13
0.83767	11
0.84133	10
0.84500	10
0.84867	10
0.85233	10
0.85600	10
0.85967	11
0.86333	13
0.86700	12
0.87067	11
0.87433	8
0.87800	8
0.88167	8
0.88533	8
0.88900	8
0.89267	8
0.89633	9
0.90000	9
0.90367	10
0.90733	11
0.91100	11
0.91467	11
0.91833	12
0.92200	12
0.92567	11
0.92933	9
0.93300	8
0.93667	7
0.94033	7
0.94400	9
0.94767	12
0.95133	14
0.95500	14
0.95867	13
0.96233	13
0.96600	12
0.96967	12
0.97333	11
0.97700	12
0.98067	14
0.98433	15
0.98800	15
0.99167	14
0.99533	14
0.99900	13
1.00267	12
1.00633	12
1.01000	10
1.01367	10
1.01733	11
1.02100	12
1.02467	13
1.02833	14
1.03200	14
1.03567	13
1.03933	12
1.04300	10
1.04667	9
1.05033	9
1.05400	7
1.05767	8
1.06133	10
1.06500	11
1.06867	9
1.07233	11
1.07600	12
1.07967	13
1.08333	14
1.08700	14
1.09067	14
1.09433	11
1.09800	9
1.10167	11
1.10533	12
1.10900	13
1.11267	12
1.11633	13
1.12000	13
1.12367	13
1.12733	15
1.13100	16
1.13467	16
1.13833	16
1.14200	15
1.14567	16
1.14933	17
1.15300	18
1.15667	19
1.16033	19
1.16400	16
1.16767	14
1.17133	15
1.17500	15
1.17867	16
1.18233	17
1.18600	17
1.18967	16
1.19333	14
1.19700	12
1.20067	14
1.20433	14
1.20800	12
1.21167	11
1.21533	12
1.21900	12
1.22267	12
1.22633	11
1.23000	9
1.23367	11
1.23733	13
1.24100	14
1.24467	13
1.24833	12
1.25200	13
1.25567	13
1.25933	14
1.26300	13
1.26667	12
1.27033	12
1.27400	14
1.27767	16
1.28133	17
1.28500	19
1.28867	20
1.29233	20
1.29600	20
1.29967	17
1.30333	16
1.30700	18
1.31067	20
1.31433	20
1.31800	19
1.32167	18
1.32533	17
1.32900	16
1.33267	15
1.33633	14
1.34000	15
1.34367	16
1.34733	19
1.35100	19
1.35467	19
1.35833	18
1.36200	18
1.36567	18
1.36933	19
1.37300	19
1.37667	18
1.38033	17
1.38400	16
1.38767	17
1.39133	19
1.39500	21
1.39867	22
1.40233	21
1.40600	19
1.40967	17
1.41333	16
1.41700	18
1.42067	20
1.42433	21
1.42800	21
1.43167	20
1.43533	19
1.43900	20
1.44267	22
1.44633	24
1.45000	25
1.45367	22
1.45733	21
1.46100	22
1.46467	22
1.46833	22
1.47200	21
1.47567	21
1.47933	21
1.48300	22
1.48667	24
1.49033	25
1.49400	26
1.49767	28
1.50133	30
1.50500	30
1.50867	30
1.51233	31
1.51600	31
1.51967	31
1.52333	31
1.52700	29
1.53067	27
1.53433	25
1.53800	24
1.54167	24
1.54533	25
1.54900	24
1.55267	23
1.55633	21
1.56000	19
1.56367	20
1.56733	21
1.57100	22
1.57467	23
1.57833	25
1.58200	28
1.58567	30
1.58933	30
1.59300	29
1.59667	28
1.60033	26
1.60400	27
1.60767	28
1.61133	27
1.61500	27
1.61867	26
1.62233	27
1.62600	28
1.62967	27
1.63333	27
1.63700	27
1.64067	27
1.64433	28
1.64800	29
1.65167	29
1.65533	30
1.65900	30
1.66267	32
1.66633	33
1.67000	33
1.67367	34
1.67733	34
1.68100	34
1.68467	35
1.68833	37
1.69200	36
1.69567	35
1.69933	35
1.70300	36
1.70667	35
1.71033	35
1.71400	37
1.71767	35
1.72133	34
1.72500	34
1.72867	33
1.73233	35
1.73600	36
1.73967	36
1.74333	36
1.74700	36
1.75067	38
1.75433	39
1.75800	40
1.76167	40
1.76533	41
1.76900	41
1.77267	40
1.77633	36
1.78000	35
1.78367	35
1.78733	37
1.79100	40
1.79467	41
1.79833	41
1.80200	42
1.80567	43
1.80933	45
1.81300	45
1.81667	44
1.82033	45
1.82400	46
1.82767	47
1.83133	48
1.83500	48
1.83867	47
1.84233	48
1.84600	49
1.84967	50
1.85333	50
1.85700	49
1.86067	48
1.86433	47
1.86800	47
1.87167	50
1.87533	51
1.87900	53
1.88267	56
1.88633	56
1.89000	57
1.89367	56
1.89733	56
1.90100	55
1.90467	56
1.90833	56
1.91200	55
1.91567	55
1.91933	57
1.92300	60
1.92667	63
1.93033	64
1.93400	64
1.93767	67
1.94133	71
1.94500	72
1.94867	73
1.95233	73
1.95600	72
1.95967	73
1.96333	73
1.96700	71
1.97067	71
1.97433	72
1.97800	72
1.98167	73
1.98533	75
1.98900	76
1.99267	77
1.99633	77
2.00000	77
2.00367	78
2.00733	80
2.01100	82
2.01467	83
2.01833	86
2.02200	89
2.02567	91
2.02933	92
2.03300	92
2.03667	92
2.04033	94
2.04400	96
2.04767	96
2.05133	98
2.05500	99
2.05867	101
2.06233	103
2.06600	105
2.06967	108
2.07333	110
2.07700	110
2.08067	111
2.08433	114
2.08800	118
2.09167	119
2.09533	119
2.09900	118
2.10267	117
2.10633	116
2.11000	115
2.11367	117
2.11733	119
2.12100	120
2.12467	121
2.12833	123
2.13200	125
2.13567	127
2.13933	130
2.14300	132
2.14667	132
2.15033	131
2.15400	131
2.15767	135
2.16133	137
2.16500	137
2.16867	139
2.17233	141
2.17600	142
2.17967	143
2.18333	145
2.18700	148
2.19067	152
2.19433	152
2.19800	152
2.20167	154
2.20533	157
2.20900	159
2.21267	162
2.21633	164
2.22000	166
2.22367	167
2.22733	169
2.23100	170
2.23467	172
2.23833	173
2.24200	175
2.24567	176
2.24933	177
2.25300	175
2.25667	174
2.26033	176
2.26400	179
2.26767	180
2.27133	183
2.27500	186
2.27867	190
2.28233	192
2.28600	191
2.28967	191
2.29333	193
2.29700	194
2.30067	196
2.30433	198
2.30800	200
2.31167	199
2.31533	200
2.31900	202
2.32267	203
2.32633	204
2.33000	204
2.33367	206
2.33733	209
2.34100	210
2.34467	211
2.34833	212
2.35200	215
2.35567	217
2.35933	218
2.36300	221
2.36667	225
2.37033	228
2.37400	229
2.37767	227
2.38133	225
2.38500	223
2.38867	221
2.39233	220
2.39600	222
2.39967	225
2.40333	229
2.40700	234
2.41067	237
2.41433	239
2.41800	242
2.42167	244
2.42533	246
2.42900	248
2.43267	250
2.43633	250
2.44000	253
2.44367	306
2.44733	454
2.45100	614
2.45467	744
2.45833	818
2.46200	822
2.46567	787
2.46933	746
2.47300	712
2.47667	690
2.48033	672
2.48400	646
2.48767	609
2.49133	566
2.49500	520
2.49867	481
2.50233	454
2.50600	438
2.50967	431
2.51333	435
2.51700	452
2.52067	477
2.52433	501
2.52800	515
2.53167	514
2.53533	501
2.53900	477
2.54267	446
2.54633	414
2.55000	383
2.55367	356
2.55733	333
2.56100	318
2.56467	308
2.56833	300
2.57200	293
2.57567	289
2.57933	286
2.58300	286
2.58667	284
2.59033	284
2.59400	288
2.59767	289
2.60133	288
2.60500	284
2.60867	277
2.61233	268
2.61600	255
2.61967	241
2.62333	227
2.62700	215
2.63067	205
2.63433	195
2.63800	184
2.64167	173
2.64533	162
2.64900	150
2.65267	139
2.65633	127
2.66000	116
2.66367	105
2.66733	96
2.67100	86
2.67467	78
2.67833	72
2.68200	67
2.68567	65
2.68933	63
2.69300	65
2.69667	67
2.70033	70
2.70400	74
2.70767	77
2.71133	81
2.71500	84
2.71867	87
2.72233	92
2.72600	98
2.72967	103
2.73333	107
2.73700	111
2.74067	114
2.74433	117
2.74800	120
2.75167	123
2.75533	128
2.75900	131
2.76267	134
2.76633	138
2.77000	139
2.77367	140
2.77733	142
2.78100	149
2.78467	153
2.78833	156
2.79200	158
2.79567	158
2.79933	163
2.80300	169
2.80667	174
2.81033	179
2.81400	185
2.81767	192
2.82133	203
2.82500	223
2.82867	256
2.83233	317
2.83600	426
2.83967	602
2.84333	866
2.84700	1228
2.85067	1683
2.85433	2214
2.85800	2786
2.86167	3354
2.86533	3874
2.86900	4306
2.87267	4614
2.87633	4785
2.88000	4816
2.88367	4725
2.88733	4536
2.89100	4275
2.89467	3966
2.89833	3634
2.90200	3297
2.90567	2965
2.90933	2652
2.91300	2363
2.91667	2100
2.92033	1862
2.92400	1648
2.92767	1457
2.93133	1289
2.93500	1144
2.93867	1016
2.94233	903
2.94600	804
2.94967	719
2.95333	644
2.95700	580
2.96067	525
2.96433	475
2.96800	431
2.97167	392
2.97533	360
2.97900	333
2.98267	310
2.98633	289
2.99000	269
2.99367	253
2.99733	240
3.00100	228
3.00467	219
3.00833	210
3.01200	203
3.01567	196
3.01933	191
3.02300	187
3.02667	183
3.03033	180
3.03400	178
3.03767	176
3.04133	174
3.04500	170
3.04867	168
3.05233	169
3.05600	169
3.05967	168
3.06333	168
3.06700	166
3.07067	164
3.07433	162
3.07800	159
3.08167	156
3.08533	155
3.08900	156
3.09267	157
3.09633	159
3.10000	161
3.10367	162
3.10733	162
3.11100	162
3.11467	162
3.11833	162
3.12200	160
3.12567	158
3.12933	158
3.13300	158
3.13667	160
3.14033	161
3.14400	162
3.14767	164
3.15133	164
3.15500	162
3.15867	160
3.16233	166
3.16600	176
3.16967	190
3.17333	213
3.17700	245
3.18067	285
3.18433	327
3.18800	369
3.19167	409
3.19533	447
3.19900	482
3.20267	511
3.20633	535
3.21000	556
3.21367	575
3.21733	592
3.22100	608
3.22467	622
3.22833	636
3.23200	650
3.23567	661
3.23933	671
3.24300	681
3.24667	691
3.25033	700
3.25400	706
3.25767	712
3.26133	720
3.26500	728
3.26867	736
3.27233	744
3.27600	754
3.27967	761
3.28333	768
3.28700	775
3.29067	781
3.29433	786
3.29800	793
3.30167	801
3.30533	810
3.30900	818
3.31267	824
3.31633	830
3.32000	836
3.32367	842
3.32733	849
3.33100	853
3.33467	857
3.33833	862
3.34200	865
3.34567	869
3.34933	874
3.35300	878
3.35667	878
3.36033	877
3.36400	876
3.36767	874
3.37133	872
3.37500	873
3.37867	874
3.38233	876
3.38600	877
3.38967	875
3.39333	871
3.39700	868
3.40067	864
3.40433	861
3.40800	858
3.41167	856
3.41533	851
3.41900	843
3.42267	836
3.42633	831
3.43000	827
3.43367	825
3.43733	823
3.44100	820
3.44467	816
3.44833	812
3.45200	807
3.45567	804
3.45933	802
3.46300	799
3.46667	798
3.47033	795
3.47400	792
3.47767	791
3.48133	789
3.48500	785
3.48867	783
3.49233	782
3.49600	782
3.49967	779
3.50333	774
3.50700	773
3.51067	771
3.51433	770
3.51800	770
3.52167	770
3.52533	770
3.52900	767
3.53267	765
3.53633	764
3.54000	765
3.54367	765
3.54733	767
3.55100	769
3.55467	767
3.55833	766
3.56200	766
3.56567	766
3.56933	765
3.57300	763
3.57667	762
3.58033	763
3.58400	763
3.58767	763
3.59133	762
3.59500	764
3.59867	766
3.60233	767
3.60600	765
3.60967	763
3.61333	761
3.61700	758
3.62067	756
3.62433	755
3.62800	756
3.63167	756
3.63533	754
3.63900	753
3.64267	750
3.64633	748
3.65000	746
3.65367	747
3.65733	748
3.66100	748
3.66467	745
3.66833	742
3.67200	737
3.67567	735
3.67933	736
3.68300	735
3.68667	734
3.69033	733
3.69400	731
3.69767	729
3.70133	727
3.70500	724
3.70867	722
3.71233	721
3.71600	720
3.71967	718
3.72333	717
3.72700	715
3.73067	711
3.73433	709
3.73800	707
3.74167	708
3.74533	708
3.74900	705
3.75267	701
3.75633	698
3.76000	695
3.76367	692
3.76733	689
3.77100	688
3.77467	688
3.77833	688
3.78200	687
3.78567	684
3.78933	682
3.79300	680
3.79667	680
3.80033	680
3.80400	679
3.80767	676
3.81133	671
3.81500	667
3.81867	664
3.82233	661
3.82600	661
3.82967	660
3.83333	659
3.83700	657
3.84067	653
3.84433	650
3.84800	648
3.85167	646
3.85533	645
3.85900	643
3.86267	643
3.86633	641
3.87000	641
3.87367	641
3.87733	641
3.88100	639
3.88467	634
3.88833	630
3.89200	625
3.89567	622
3.89933	620
3.90300	619
3.90667	617
3.91033	616
3.91400	613
3.91767	609
3.92133	608
3.92500	607
3.92867	607
3.93233	606
3.93600	604
3.93967	603
3.94333	603
3.94700	601
3.95067	599
3.95433	597
3.95800	596
3.96167	594
3.96533	591
3.96900	590
3.97267	588
3.97633	588
3.98000	587
3.98367	586
3.98733	587
3.99100	590
3.99467	589
3.99833	583

[Status Trace (Column Oven Temperature)]
Interval(msec)	1000
# of Points	240
Start Time(min)	0.006
End Time(min)	3.990
Intensity Units	
Intensity Multiplier	1
R.Time (min)	Intensity
0.00630	35.00
0.02297	35.01
0.03963	35.02
0.05630	35.01
0.07297	35.00
0.08963	35.00
0.10630	35.00
0.12297	35.00
0.13963	35.00
0.15630	35.00
0.17297	35.00
0.18963	35.01
0.20630	35.02
0.22297	35.02
0.23963	35.02
0.25630	35.03
0.27297	35.02
0.28963	35.02
0.30630	35.02
0.32297	35.02
0.33963	35.01
0.35630	35.02
0.37297	35.00
0.38963	35.00
0.40630	34.99
0.42297	34.98
0.43963	34.97
0.45630	34.98
0.47297	34.99
0.48963	35.00
0.50630	35.01
0.52297	35.02
0.53963	35.00
0.55630	34.99
0.57297	34.99
0.58963	34.99
0.60630	34.99
0.62297	34.98
0.63963	34.98
0.65630	34.98
0.67297	35.00
0.68963	35.00
0.70630	35.01
0.72297	35.02
0.73963	35.02
0.75630	35.03
0.77297	35.03
0.78963	35.01
0.80630	35.00
0.82297	34.98
0.83963	34.98
0.85630	34.98
0.87297	35.00
0.88963	35.01
0.90630	35.02
0.92297	35.03
0.93963	35.03
0.95630	35.03
0.97297	35.03
0.98963	35.03
1.00630	35.03
1.02297	35.03
1.03963	35.02
1.05630	35.00
1.07297	35.00
1.08963	34.99
1.10630	35.01
1.12297	35.01
1.13963	35.00
1.15630	35.00
1.17297	35.01
1.18963	35.00
1.20630	35.00
1.22297	35.00
1.23963	34.99
1.25630	34.99
1.27297	34.99
1.28963	34.99
1.30630	35.00
1.32297	35.00
1.33963	34.99
1.35630	34.99
1.37297	34.99
1.38963	34.98
1.40630	34.98
1.42297	34.98
1.43963	34.99
1.45630	34.99
1.47297	35.00
1.48963	35.00
1.50630	35.01
1.52297	35.00
1.53963	34.99
1.55630	34.98
1.57297	34.98
1.58963	35.00
1.60630	35.06
1.62297	35.19
1.63963	35.38
1.65630	35.62
1.67297	35.92
1.68963	36.28
1.70630	36.63
1.72297	36.97
1.73963	37.32
1.75630	37.64
1.77297	37.96
1.78963	38.31
1.80630	38.66
1.82297	38.98
1.83963	39.30
1.85630	39.62
1.87297	39.97
1.88963	40.30
1.90630	40.64
1.92297	40.95
1.93963	41.30
1.95630	41.62
1.97297	41.94
1.98963	42.27
2.00630	42.60
2.02297	42.92
2.03963	43.23
2.05630	43.56
2.07297	43.88
2.08963	44.22
2.10630	44.55
2.12297	44.86
2.13963	45.18
2.15630	45.50
2.17297	45.83
2.18963	46.17
2.20630	46.50
2.22297	46.80
2.23963	47.16
2.25630	47.48
2.27297	47.83
2.28963	48.16
2.30630	48.48
2.32297	48.81
2.33963	49.13
2.35630	49.42
2.37297	49.62
2.38963	49.68
2.40630	49.69
2.42297	49.68
2.43963	49.71
2.45630	49.71
2.47297	49.72
2.48963	49.73
2.50630	49.73
2.52297	49.74
2.53963	49.76
2.55630	49.77
2.57297	49.79
2.58963	49.79
2.60630	49.81
2.62297	49.82
2.63963	49.83
2.65630	49.83
2.67297	49.84
2.68963	49.85
2.70630	49.85
2.72297	49.86
2.73963	49.86
2.75630	49.86
2.77297	49.85
2.78963	49.85
2.80630	49.84
2.82297	49.88
2.83963	49.91
2.85630	49.92
2.87297	49.92
2.88963	49.92
2.90630	49.93
2.92297	49.93
2.93963	49.94
2.95630	49.95
2.97297	49.95
2.98963	49.97
3.00630	49.98
3.02297	49.99
3.03963	50.00
3.05630	49.99
3.07297	50.00
3.08963	50.00
3.10630	50.00
3.12297	50.01
3.13963	50.02
3.15630	50.03
3.17297	50.04
3.18963	50.05
3.20630	50.06
3.22297	50.06
3.23963	50.07
3.25630	50.08
3.27297	50.08
3.28963	50.08
3.30630	50.09
3.32297	50.10
3.33963	50.11
3.35630	50.11
3.37297	50.10
3.38963	50.09
3.40630	50.07
3.42297	50.07
3.43963	50.05
3.45630	50.05
3.47297	50.04
3.48963	50.04
3.50630	50.03
3.52297	50.03
3.53963	50.03
3.55630	50.04
3.57297	50.04
3.58963	50.05
3.60630	50.05
3.62297	50.05
3.63963	50.05
3.65630	50.05
3.67297	50.04
3.68963	50.05
3.70630	50.04
3.72297	50.03
3.73963	50.03
3.75630	50.03
3.77297	50.04
3.78963	50.05
3.80630	50.06
3.82297	50.06
3.83963	50.07
3.85630	50.07
3.87297	50.07
3.88963	50.08
3.90630	50.07
3.92297	50.07
3.93963	50.07
3.95630	50.07
3.97297	50.07
3.98963	50.07

[Status Trace (Injection Unit Temperature)]
Interval(msec)	1000
# of Points	240
Start Time(min)	0.006
End Time(min)	3.990
Intensity Units	
Intensity Multiplier	1
R.Time (min)	Intensity
0.00630	99.98
0.02297	99.98
0.03963	99.98
0.05630	99.98
0.07297	99.99
0.08963	99.98
0.10630	99.98
0.12297	99.98
0.13963	99.99
0.15630	99.98
0.17297	99.98
0.18963	99.99
0.20630	99.99
0.22297	99.98
0.23963	99.99
0.25630	99.99
0.27297	99.98
0.28963	99.98
0.30630	99.98
0.32297	99.98
0.33963	99.98
0.35630	99.99
0.37297	99.98
0.38963	99.98
0.40630	99.98
0.42297	99.98
0.43963	99.99
0.45630	99.98
0.47297	99.99
0.48963	99.98
0.50630	99.98
0.52297	99.98
0.53963	99.98
0.55630	99.99
0.57297	99.98
0.58963	99.98
0.60630	99.98
0.62297	99.98
0.63963	99.98
0.65630	99.99
0.67297	99.98
0.68963	99.98
0.70630	99.98
0.72297	99.99
0.73963	99.98
0.75630	99.98
0.77297	99.99
0.78963	99.99
0.80630	99.98
0.82297	99.98
0.83963	99.99
0.85630	99.99
0.87297	99.99
0.88963	99.99
0.90630	99.98
0.92297	99.98
0.93963	99.99
0.95630	99.99
0.97297	99.99
0.98963	99.99
1.00630	99.99
1.02297	99.99
1.03963	99.99
1.05630	99.99
1.07297	99.99
1.08963	99.99
1.10630	99.98
1.12297	99.99
1.13963	99.99
1.15630	99.99
1.17297	99.99
1.18963	99.99
1.20630	99.99
1.22297	99.99
1.23963	99.99
1.25630	99.99
1.27297	99.99
1.28963	99.99
1.30630	99.99
1.32297	99.99
1.33963	99.99
1.35630	99.99
1.37297	99.99
1.38963	99.99
1.40630	99.99
1.42297	99.99
1.43963	99.99
1.45630	99.99
1.47297	99.99
1.48963	99.99
1.50630	99.99
1.52297	99.98
1.53963	99.98
1.55630	99.99
1.57297	99.98
1.58963	99.98
1.60630	99.98
1.62297	99.98
1.63963	99.98
1.65630	99.98
1.67297	99.98
1.68963	99.98
1.70630	99.98
1.72297	99.99
1.73963	99.98
1.75630	99.98
1.77297	99.98
1.78963	99.97
1.80630	99.98
1.82297	99.98
1.83963	99.98
1.85630	99.98
1.87297	99.98
1.88963	99.98
1.90630	99.98
1.92297	99.98
1.93963	99.98
1.95630	99.97
1.97297	99.97
1.98963	99.98
2.00630	99.97
2.02297	99.98
2.03963	99.97
2.05630	99.97
2.07297	99.98
2.08963	99.97
2.10630	99.97
2.12297	99.97
2.13963	99.98
2.15630	99.97
2.17297	99.97
2.18963	99.98
2.20630	99.97
2.22297	99.98
2.23963	99.98
2.25630	99.97
2.27297	99.97
2.28963	99.97
2.30630	99.97
2.32297	99.97
2.33963	99.98
2.35630	99.97
2.37297	99.97
2.38963	99.97
2.40630	99.97
2.42297	99.98
2.43963	99.97
2.45630	99.97
2.47297	99.98
2.48963	99.98
2.50630	99.98
2.52297	99.98
2.53963	99.98
2.55630	99.98
2.57297	99.98
2.58963	99.98
2.60630	99.98
2.62297	99.98
2.63963	99.98
2.65630	99.99
2.67297	99.99
2.68963	99.99
2.70630	99.98
2.72297	99.99
2.73963	99.99
2.75630	99.99
2.77297	100.00
2.78963	99.99
2.80630	100.00
2.82297	100.00
2.83963	100.00
2.85630	100.00
2.87297	100.01
2.88963	100.00
2.90630	100.00
2.92297	100.01
2.93963	100.01
2.95630	100.01
2.97297	100.01
2.98963	100.01
3.00630	100.01
3.02297	100.02
3.03963	100.02
3.05630	100.01
3.07297	100.01
3.08963	100.01
3.10630	100.02
3.12297	100.02
3.13963	100.02
3.15630	100.02
3.17297	100.02
3.18963	100.02
3.20630	100.02
3.22297	100.02
3.23963	100.03
3.25630	100.02
3.27297	100.03
3.28963	100.03
3.30630	100.03
3.32297	100.03
3.33963	100.03
3.35630	100.03
3.37297	100.03
3.38963	100.03
3.40630	100.03
3.42297	100.03
3.43963	100.03
3.45630	100.04
3.47297	100.04
3.48963	100.04
3.50630	100.04
3.52297	100.04
3.53963	100.04
3.55630	100.04
3.57297	100.04
3.58963	100.04
3.60630	100.04
3.62297	100.04
3.63963	100.04
3.65630	100.04
3.67297	100.04
3.68963	100.04
3.70630	100.04
3.72297	100.05
3.73963	100.04
3.75630	100.05
3.77297	100.05
3.78963	100.05
3.80630	100.04
3.82297	100.05
3.83963	100.05
3.85630	100.05
3.87297	100.05
3.88963	100.05
3.90630	100.05
3.92297	100.05
3.93963	100.04
3.95630	100.05
3.97297	100.05
3.98963	100.05

[Status Trace (Carrier Gas Pressure)]
Interval(msec)	1000
# of Points	240
Start Time(min)	0.006
End Time(min)	3.990
Intensity Units	
Intensity Multiplier	1
R.Time (min)	Intensity
0.00630	58.00
0.02297	55.57
0.03963	56.86
0.05630	59.08
0.07297	59.53
0.08963	58.12
0.10630	57.98
0.12297	58.01
0.13963	58.01
0.15630	58.01
0.17297	58.00
0.18963	58.00
0.20630	58.00
0.22297	58.00
0.23963	58.00
0.25630	58.00
0.27297	58.00
0.28963	58.00
0.30630	58.00
0.32297	58.00
0.33963	58.00
0.35630	58.00
0.37297	58.00
0.38963	58.00
0.40630	58.00
0.42297	58.00
0.43963	58.00
0.45630	58.00
0.47297	58.00
0.48963	58.00
0.50630	58.00
0.52297	58.00
0.53963	58.00
0.55630	58.00
0.57297	58.00
0.58963	58.00
0.60630	58.00
0.62297	58.00
0.63963	58.00
0.65630	58.00
0.67297	58.00
0.68963	58.00
0.70630	58.00
0.72297	58.00
0.73963	58.00
0.75630	58.00
0.77297	58.00
0.78963	58.00
0.80630	58.00
0.82297	58.00
0.83963	58.00
0.85630	58.00
0.87297	58.00
0.88963	58.00
0.90630	58.00
0.92297	58.00
0.93963	58.00
0.95630	58.00
0.97297	58.00
0.98963	58.00
1.00630	58.00
1.02297	58.00
1.03963	58.00
1.05630	58.00
1.07297	58.00
1.08963	58.00
1.10630	58.00
1.12297	58.00
1.13963	58.00
1.15630	58.00
1.17297	58.00
1.18963	58.00
1.20630	58.00
1.22297	58.00
1.23963	58.00
1.25630	58.00
1.27297	58.00
1.28963	58.00
1.30630	58.00
1.32297	58.00
1.33963	58.00
1.35630	58.00
1.37297	58.00
1.38963	58.00
1.40630	58.00
1.42297	58.00
1.43963	58.00
1.45630	58.00
1.47297	58.00
1.48963	58.00
1.50630	58.00
1.52297	58.00
1.53963	58.00
1.55630	58.00
1.57297	58.00
1.58963	58.00
1.60630	58.00
1.62297	58.00
1.63963	58.00
1.65630	58.00
1.67297	58.00
1.68963	58.01
1.70630	58.00
1.72297	58.00
1.73963	58.00
1.75630	58.00
1.77297	58.00
1.78963	58.00
1.80630	58.00
1.82297	58.00
1.83963	58.00
1.85630	58.00
1.87297	58.00
1.88963	58.00
1.90630	58.00
1.92297	58.00
1.93963	58.00
1.95630	58.00
1.97297	58.00
1.98963	58.00
2.00630	58.00
2.02297	58.00
2.03963	58.00
2.05630	58.00
2.07297	58.00
2.08963	58.00
2.10630	58.00
2.12297	58.00
2.13963	58.00
2.15630	58.00
2.17297	58.00
2.18963	58.00
2.20630	58.00
2.22297	58.00
2.23963	58.00
2.25630	58.00
2.27297	58.00
2.28963	58.00
2.30630	58.00
2.32297	58.00
2.33963	58.00
2.35630	58.00
2.37297	58.00
2.38963	57.99
2.40630	57.99
2.42297	58.00
2.43963	58.00
2.45630	58.00
2.47297	58.00
2.48963	58.00
2.50630	57.99
2.52297	57.99
2.53963	58.00
2.55630	58.00
2.57297	58.00
2.58963	58.00
2.60630	58.00
2.62297	58.00
2.63963	58.00
2.65630	58.00
2.67297	58.00
2.68963	58.00
2.70630	58.00
2.72297	58.00
2.73963	58.00
2.75630	58.00
2.77297	58.00
2.78963	58.00
2.80630	58.00
2.82297	58.00
2.83963	58.00
2.85630	58.00
2.87297	58.00
2.88963	58.00
2.90630	58.00
2.92297	58.00
2.93963	58.00
2.95630	58.00
2.97297	58.00
2.98963	58.00
3.00630	58.00
3.02297	58.00
3.03963	58.00
3.05630	58.00
3.07297	58.00
3.08963	58.00
3.10630	58.00
3.12297	58.00
3.13963	58.00
3.15630	58.00
3.17297	58.00
3.18963	58.00
3.20630	58.00
3.22297	58.00
3.23963	58.00
3.25630	58.00
3.27297	58.00
3.28963	58.00
3.30630	58.00
3.32297	58.00
3.33963	58.00
3.35630	58.00
3.37297	58.00
3.38963	58.00
3.40630	58.00
3.42297	58.00
3.43963	58.00
3.45630	58.00
3.47297	58.00
3.48963	58.00
3.50630	58.00
3.52297	58.00
3.53963	58.00
3.55630	58.00
3.57297	58.00
3.58963	58.00
3.60630	58.00
3.62297	58.00
3.63963	58.00
3.65630	58.00
3.67297	58.00
3.68963	58.00
3.70630	58.00
3.72297	58.00
3.73963	58.00
3.75630	58.00
3.77297	58.00
3.78963	58.00
3.80630	58.00
3.82297	58.00
3.83963	58.00
3.85630	58.00
3.87297	58.00
3.88963	58.00
3.90630	58.00
3.92297	58.00
3.93963	58.00
3.95630	58.00
3.97297	58.00
3.98963	58.00

[Status Trace (Carrier Gas Flow)]
Interval(msec)	1000
# of Points	240
Start Time(min)	0.006
End Time(min)	3.990
Intensity Units	
Intensity Multiplier	1
R.Time (min)	Intensity
0.00630	34.52
0.02297	34.54
0.03963	34.55
0.05630	34.54
0.07297	34.50
0.08963	34.53
0.10630	34.52
0.12297	34.53
0.13963	34.52
0.15630	34.52
0.17297	34.52
0.18963	34.52
0.20630	34.52
0.22297	34.51
0.23963	34.52
0.25630	34.52
0.27297	34.52
0.28963	34.51
0.30630	34.52
0.32297	34.52
0.33963	34.52
0.35630	34.52
0.37297	34.52
0.38963	34.52
0.40630	34.51
0.42297	34.52
0.43963	34.52
0.45630	34.52
0.47297	34.52
0.48963	34.52
0.50630	34.52
0.52297	34.53
0.53963	34.51
0.55630	34.52
0.57297	34.52
0.58963	34.52
0.60630	34.52
0.62297	34.52
0.63963	34.52
0.65630	34.52
0.67297	34.52
0.68963	34.52
0.70630	34.52
0.72297	34.52
0.73963	34.52
0.75630	34.52
0.77297	34.52
0.78963	34.52
0.80630	34.52
0.82297	34.52
0.83963	34.52
0.85630	34.52
0.87297	34.52
0.88963	34.52
0.90630	34.52
0.92297	34.52
0.93963	34.52
0.95630	34.52
0.97297	34.53
0.98963	34.52
1.00630	34.52
1.02297	34.52
1.03963	34.52
1.05630	34.52
1.07297	34.53
1.08963	34.52
1.10630	34.52
1.12297	34.52
1.13963	34.52
1.15630	34.52
1.17297	34.52
1.18963	34.52
1.20630	34.52
1.22297	34.52
1.23963	34.52
1.25630	34.52
1.27297	34.52
1.28963	34.52
1.30630	34.52
1.32297	34.52
1.33963	34.51
1.35630	34.51
1.37297	34.52
1.38963	34.52
1.40630	34.52
1.42297	34.51
1.43963	34.52
1.45630	34.52
1.47297	34.51
1.48963	34.52
1.50630	34.53
1.52297	34.52
1.53963	34.52
1.55630	34.52
1.57297	34.52
1.58963	34.52
1.60630	34.51
1.62297	34.52
1.63963	34.52
1.65630	34.52
1.67297	34.51
1.68963	34.52
1.70630	34.52
1.72297	34.51
1.73963	34.52
1.75630	34.52
1.77297	34.52
1.78963	34.52
1.80630	34.52
1.82297	34.52
1.83963	34.52
1.85630	34.52
1.87297	34.51
1.88963	34.52
1.90630	34.53
1.92297	34.52
1.93963	34.52
1.95630	34.52
1.97297	34.52
1.98963	34.52
2.00630	34.52
2.02297	34.52
2.03963	34.52
2.05630	34.51
2.07297	34.51
2.08963	34.52
2.10630	34.51
2.12297	34.51
2.13963	34.52
2.15630	34.52
2.17297	34.52
2.18963	34.52
2.20630	34.53
2.22297	34.52
2.23963	34.52
2.25630	34.52
2.27297	34.51
2.28963	34.52
2.30630	34.52
2.32297	34.52
2.33963	34.52
2.35630	34.52
2.37297	34.52
2.38963	34.51
2.40630	34.52
2.42297	34.52
2.43963	34.52
2.45630	34.52
2.47297	34.52
2.48963	34.52
2.50630	34.45
2.52297	34.52
2.53963	34.52
2.55630	34.52
2.57297	34.52
2.58963	34.52
2.60630	34.52
2.62297	34.52
2.63963	34.52
2.65630	34.52
2.67297	34.52
2.68963	34.52
2.70630	34.52
2.72297	34.52
2.73963	34.52
2.75630	34.52
2.77297	34.52
2.78963	34.52
2.80630	34.52
2.82297	34.52
2.83963	34.51
2.85630	34.52
2.87297	34.52
2.88963	34.52
2.90630	34.52
2.92297	34.52
2.93963	34.51
2.95630	34.52
2.97297	34.52
2.98963	34.52
3.00630	34.52
3.02297	34.52
3.03963	34.52
3.05630	34.52
3.07297	34.52
3.08963	34.52
3.10630	34.52
3.12297	34.52
3.13963	34.52
3.15630	34.52
3.17297	34.52
3.18963	34.52
3.20630	34.52
3.22297	34.51
3.23963	34.52
3.25630	34.52
3.27297	34.52
3.28963	34.52
3.30630	34.52
3.32297	34.52
3.33963	34.52
3.35630	34.52
3.37297	34.52
3.38963	34.52
3.40630	34.51
3.42297	34.52
3.43963	34.52
3.45630	34.52
3.47297	34.52
3.48963	34.52
3.50630	34.52
3.52297	34.52
3.53963	34.52
3.55630	34.52
3.57297	34.52
3.58963	34.51
3.60630	34.52
3.62297	34.52
3.63963	34.52
3.65630	34.52
3.67297	34.52
3.68963	34.52
3.70630	34.52
3.72297	34.52
3.73963	34.52
3.75630	34.52
3.77297	34.52
3.78963	34.52
3.80630	34.52
3.82297	34.52
3.83963	34.52
3.85630	34.52
3.87297	34.52
3.88963	34.52
3.90630	34.52
3.92297	34.52
3.93963	34.52
3.95630	34.52
3.97297	34.52
3.98963	34.52

[Status Trace (Column Flow)]
Interval(msec)	1000
# of Points	240
Start Time(min)	0.006
End Time(min)	3.990
Intensity Units	
Intensity Multiplier	1
R.Time (min)	Intensity
0.00630	5.55
0.02297	5.27
0.03963	5.42
0.05630	5.68
0.07297	5.73
0.08963	5.57
0.10630	5.55
0.12297	5.55
0.13963	5.55
0.15630	5.55
0.17297	5.55
0.18963	5.55
0.20630	5.55
0.22297	5.55
0.23963	5.55
0.25630	5.55
0.27297	5.55
0.28963	5.55
0.30630	5.55
0.32297	5.55
0.33963	5.55
0.35630	5.55
0.37297	5.55
0.38963	5.55
0.40630	5.55
0.42297	5.55
0.43963	5.55
0.45630	5.55
0.47297	5.55
0.48963	5.55
0.50630	5.55
0.52297	5.55
0.53963	5.55
0.55630	5.55
0.57297	5.55
0.58963	5.55
0.60630	5.55
0.62297	5.55
0.63963	5.55
0.65630	5.55
0.67297	5.55
0.68963	5.55
0.70630	5.55
0.72297	5.55
0.73963	5.55
0.75630	5.55
0.77297	5.55
0.78963	5.55
0.80630	5.55
0.82297	5.55
0.83963	5.55
0.85630	5.55
0.87297	5.55
0.88963	5.55
0.90630	5.55
0.92297	5.55
0.93963	5.55
0.95630	5.55
0.97297	5.55
0.98963	5.55
1.00630	5.55
1.02297	5.55
1.03963	5.55
1.05630	5.55
1.07297	5.55
1.08963	5.55
1.10630	5.55
1.12297	5.55
1.13963	5.55
1.15630	5.55
1.17297	5.55
1.18963	5.55
1.20630	5.55
1.22297	5.55
1.23963	5.55
1.25630	5.55
1.27297	5.55
1.28963	5.55
1.30630	5.55
1.32297	5.55
1.33963	5.55
1.35630	5.55
1.37297	5.55
1.38963	5.55
1.40630	5.55
1.42297	5.55
1.43963	5.55
1.45630	5.55
1.47297	5.55
1.48963	5.55
1.50630	5.55
1.52297	5.55
1.53963	5.55
1.55630	5.55
1.57297	5.55
1.58963	5.55
1.60630	5.55
1.62297	5.55
1.63963	5.54
1.65630	5.53
1.67297	5.52
1.68963	5.51
1.70630	5.50
1.72297	5.49
1.73963	5.48
1.75630	5.47
1.77297	5.46
1.78963	5.45
1.80630	5.44
1.82297	5.43
1.83963	5.42
1.85630	5.41
1.87297	5.40
1.88963	5.39
1.90630	5.38
1.92297	5.37
1.93963	5.36
1.95630	5.35
1.97297	5.34
1.98963	5.33
2.00630	5.32
2.02297	5.31
2.03963	5.30
2.05630	5.29
2.07297	5.28
2.08963	5.27
2.10630	5.26
2.12297	5.25
2.13963	5.24
2.15630	5.23
2.17297	5.23
2.18963	5.22
2.20630	5.21
2.22297	5.20
2.23963	5.19
2.25630	5.18
2.27297	5.17
2.28963	5.16
2.30630	5.15
2.32297	5.14
2.33963	5.13
2.35630	5.12
2.37297	5.12
2.38963	5.12
2.40630	5.12
2.42297	5.12
2.43963	5.12
2.45630	5.12
2.47297	5.12
2.48963	5.12
2.50630	5.11
2.52297	5.11
2.53963	5.11
2.55630	5.11
2.57297	5.11
2.58963	5.11
2.60630	5.11
2.62297	5.11
2.63963	5.11
2.65630	5.11
2.67297	5.11
2.68963	5.11
2.70630	5.11
2.72297	5.11
2.73963	5.11
2.75630	5.11
2.77297	5.11
2.78963	5.11
2.80630	5.11
2.82297	5.11
2.83963	5.11
2.85630	5.11
2.87297	5.11
2.88963	5.11
2.90630	5.11
2.92297	5.11
2.93963	5.11
2.95630	5.11
2.97297	5.11
2.98963	5.11
3.00630	5.11
3.02297	5.11
3.03963	5.11
3.05630	5.11
3.07297	5.11
3.08963	5.11
3.10630	5.11
3.12297	5.11
3.13963	5.11
3.15630	5.11
3.17297	5.11
3.18963	5.11
3.20630	5.11
3.22297	5.11
3.23963	5.11
3.25630	5.11
3.27297	5.11
3.28963	5.11
3.30630	5.11
3.32297	5.10
3.33963	5.10
3.35630	5.10
3.37297	5.10
3.38963	5.11
3.40630	5.11
3.42297	5.11
3.43963	5.11
3.45630	5.11
3.47297	5.11
3.48963	5.11
3.50630	5.11
3.52297	5.11
3.53963	5.11
3.55630	5.11
3.57297	5.11
3.58963	5.11
3.60630	5.11
3.62297	5.11
3.63963	5.11
3.65630	5.11
3.67297	5.11
3.68963	5.11
3.70630	5.11
3.72297	5.11
3.73963	5.11
3.75630	5.11
3.77297	5.11
3.78963	5.11
3.80630	5.11
3.82297	5.11
3.83963	5.11
3.85630	5.11
3.87297	5.11
3.88963	5.11
3.90630	5.11
3.92297	5.11
3.93963	5.11
3.95630	5.11
3.97297	5.11
3.98963	5.11

[Status Trace (Linear Velocity)]
Interval(msec)	1000
# of Points	240
Start Time(min)	0.006
End Time(min)	3.990
Intensity Units	
Intensity Multiplier	1
R.Time (min)	Intensity
0.00630	39.03
0.02297	37.43
0.03963	38.27
0.05630	39.73
0.07297	40.03
0.08963	39.10
0.10630	39.01
0.12297	39.03
0.13963	39.03
0.15630	39.03
0.17297	39.03
0.18963	39.03
0.20630	39.02
0.22297	39.02
0.23963	39.02
0.25630	39.02
0.27297	39.02
0.28963	39.02
0.30630	39.02
0.32297	39.02
0.33963	39.02
0.35630	39.02
0.37297	39.02
0.38963	39.02
0.40630	39.03
0.42297	39.03
0.43963	39.03
0.45630	39.03
0.47297	39.03
0.48963	39.02
0.50630	39.02
0.52297	39.02
0.53963	39.02
0.55630	39.02
0.57297	39.03
0.58963	39.03
0.60630	39.03
0.62297	39.03
0.63963	39.03
0.65630	39.03
0.67297	39.02
0.68963	39.02
0.70630	39.02
0.72297	39.02
0.73963	39.02
0.75630	39.02
0.77297	39.02
0.78963	39.02
0.80630	39.02
0.82297	39.03
0.83963	39.03
0.85630	39.03
0.87297	39.02
0.88963	39.02
0.90630	39.02
0.92297	39.02
0.93963	39.02
0.95630	39.02
0.97297	39.02
0.98963	39.02
1.00630	39.02
1.02297	39.02
1.03963	39.02
1.05630	39.02
1.07297	39.02
1.08963	39.02
1.10630	39.02
1.12297	39.02
1.13963	39.02
1.15630	39.02
1.17297	39.02
1.18963	39.02
1.20630	39.02
1.22297	39.02
1.23963	39.02
1.25630	39.03
1.27297	39.03
1.28963	39.03
1.30630	39.02
1.32297	39.02
1.33963	39.03
1.35630	39.02
1.37297	39.02
1.38963	39.03
1.40630	39.03
1.42297	39.03
1.43963	39.03
1.45630	39.03
1.47297	39.02
1.48963	39.02
1.50630	39.02
1.52297	39.02
1.53963	39.03
1.55630	39.03
1.57297	39.03
1.58963	39.03
1.60630	39.02
1.62297	39.01
1.63963	38.99
1.65630	38.97
1.67297	38.94
1.68963	38.91
1.70630	38.87
1.72297	38.84
1.73963	38.80
1.75630	38.77
1.77297	38.74
1.78963	38.71
1.80630	38.68
1.82297	38.64
1.83963	38.61
1.85630	38.59
1.87297	38.55
1.88963	38.52
1.90630	38.49
1.92297	38.46
1.93963	38.43
1.95630	38.40
1.97297	38.37
1.98963	38.34
2.00630	38.31
2.02297	38.28
2.03963	38.25
2.05630	38.22
2.07297	38.19
2.08963	38.16
2.10630	38.13
2.12297	38.10
2.13963	38.07
2.15630	38.04
2.17297	38.01
2.18963	37.98
2.20630	37.95
2.22297	37.92
2.23963	37.89
2.25630	37.86
2.27297	37.83
2.28963	37.80
2.30630	37.77
2.32297	37.75
2.33963	37.72
2.35630	37.69
2.37297	37.67
2.38963	37.66
2.40630	37.66
2.42297	37.67
2.43963	37.67
2.45630	37.66
2.47297	37.66
2.48963	37.66
2.50630	37.66
2.52297	37.65
2.53963	37.66
2.55630	37.66
2.57297	37.66
2.58963	37.66
2.60630	37.66
2.62297	37.66
2.63963	37.65
2.65630	37.65
2.67297	37.65
2.68963	37.65
2.70630	37.65
2.72297	37.65
2.73963	37.65
2.75630	37.65
2.77297	37.65
2.78963	37.65
2.80630	37.65
2.82297	37.65
2.83963	37.65
2.85630	37.65
2.87297	37.65
2.88963	37.65
2.90630	37.65
2.92297	37.65
2.93963	37.65
2.95630	37.64
2.97297	37.64
2.98963	37.64
3.00630	37.64
3.02297	37.64
3.03963	37.64
3.05630	37.64
3.07297	37.64
3.08963	37.64
3.10630	37.64
3.12297	37.64
3.13963	37.64
3.15630	37.64
3.17297	37.64
3.18963	37.64
3.20630	37.63
3.22297	37.63
3.23963	37.63
3.25630	37.63
3.27297	37.63
3.28963	37.63
3.30630	37.63
3.32297	37.63
3.33963	37.63
3.35630	37.63
3.37297	37.63
3.38963	37.63
3.40630	37.63
3.42297	37.63
3.43963	37.63
3.45630	37.64
3.47297	37.64
3.48963	37.64
3.50630	37.64
3.52297	37.64
3.53963	37.64
3.55630	37.64
3.57297	37.64
3.58963	37.64
3.60630	37.64
3.62297	37.64
3.63963	37.63
3.65630	37.64
3.67297	37.64
3.68963	37.64
3.70630	37.64
3.72297	37.64
3.73963	37.64
3.75630	37.64
3.77297	37.64
3.78963	37.64
3.80630	37.63
3.82297	37.63
3.83963	37.63
3.85630	37.63
3.87297	37.63
3.88963	37.63
3.90630	37.63
3.92297	37.63
3.93963	37.63
3.95630	37.63
3.97297	37.63
3.98963	37.63

