[Header]
Application Name	LabSolutions
Version	5.110
Data File Name	C:\Users\User\Desktop\GC Analyses\Jack\Nachusa Grasslands Sampling\T4 Timepoint July 12th\T4_07122022_060.gcd
Output Date	3/17/2023
Output Time	12:04:54 PM

[File Information]
Type	Data File
Generated	3/14/2023 10:05:10 PM
Generated by	System Administrator
Modified	3/14/2023 10:12:06 PM
Modified by	System Administrator

[Sample Information]
Operator Name	System Administrator
Acquired	3/14/2023 10:08:06 PM
Sample Type	0:Unknown
Level	0
Sample Name	060
Sample ID	060
ISTD Amount1	1
ISTD Amount2	1
ISTD Amount3	1
ISTD Amount4	1
ISTD Amount5	1
ISTD Amount6	1
ISTD Amount7	1
ISTD Amount8	1
ISTD Amount9	1
ISTD Amount10	1
ISTD Amount11	1
ISTD Amount12	1
ISTD Amount13	1
ISTD Amount14	1
ISTD Amount15	1
ISTD Amount16	1
ISTD Amount17	1
ISTD Amount18	1
ISTD Amount19	1
ISTD Amount20	1
ISTD Amount21	1
ISTD Amount22	1
ISTD Amount23	1
ISTD Amount24	1
ISTD Amount25	1
ISTD Amount26	1
ISTD Amount27	1
ISTD Amount28	1
ISTD Amount29	1
ISTD Amount30	1
ISTD Amount31	1
ISTD Amount32	1
Sample Amount	1
Dilution Factor	1
Vial#	59
Injection Volume	1
Injection Count	1
Bar Code	

[Original Files]
Data File	C:\Users\User\Desktop\GC Analyses\Jack\Nachusa Grasslands Sampling\T4 Timepoint July 12th\T4_07122022_060.gcd
Method File	C:\LabSolutions\Data\GHG_4min_2022\ghg3_togas_w_acet_4 min_new_int.gcm
Batch File	C:\LabSolutions\Data\AutoSamplerTesting\T4_07122022.gcb
Report Format File	c:\LabSolutions\System\DEFAULT.lsr

[File Description]


[Configuration]
Instrument Name	C0B7VH3-Instrument1
Instrument #	1
Line #	1
# of Detectors	3
Detector ID	DET#1	DET#2	DET#3
Detector Name	FID	PTCD	ECD
# of Channels	1	1	1

[Peak Table(Ch1)]
# of Peaks	3
Peak#	R.Time	I.Time	F.Time	Area	Height	A/H	Conc.	Mark	ID#	Name	k'	Plate #	Plate Ht.	Tailing	Resolution	Sep.Factor	Area Ratio	Height Ratio	Conc. %	Norm Conc.
1	1.476	1.439	1.534	21440	10565	2.029	151.366	   	1	CO	0.000	9609	15.611	1.270	0.000	0.000	0	0	12.835	12.835
2	1.571	1.538	1.615	4046	2089	1.937	78.242	   	2	CH4	0.065	11779	12.734	1.084	1.614	0.000	0	0	6.634	6.634
3	1.996	1.949	2.539	3784278	1814839	2.085	949.751	   	3	CO2	0.353	17193	8.724	1.304	7.160	5.462	0	0	80.531	80.531

[Peak Table(Ch2)]
# of Peaks	0

[Peak Table(Ch3)]
# of Peaks	5
Peak#	R.Time	I.Time	F.Time	Area	Height	A/H	Conc.	Mark	ID#	Name	k'	Plate #	Plate Ht.	Tailing	Resolution	Sep.Factor	Area Ratio	Height Ratio	Conc. %	Norm Conc.
1	2.462	2.293	2.510	2450	723	3.387	0.000	   			0.000	10009	14.986	0.000	0.000	0.000	0	0	0.000	0.000
2	2.532	2.510	2.579	1197	402	2.978	0.000	 V 			0.028	6235	24.059	0.000	0.615	0.000	0	0	0.000	0.000
3	2.601	2.579	2.682	686	181	3.786	0.000	 V 			0.057	1047	143.303	0.000	0.310	2.000	0	0	0.000	0.000
4	2.880	2.704	3.089	18577	4746	3.915	0.474	   	1	N2O	0.170	13048	11.496	1.482	1.319	3.000	0	0	100.000	100.000
5	3.511	3.390	3.965	7238	361	20.057	0.000	   			0.426	590	254.433	2.380	1.857	2.509	0	0	0.000	0.000

[Compound Results(Ch1)]
# of IDs	6
ID#	Name	R.Time	Area	Height	Conc.	Curve	3rd	2nd	1st	Constant	Area Ratio	Height Ratio	Conc. %	Norm Conc.
1	CO	1.476	21440	10565	151.366	Linear	0.000000e+00	0.000000e+00	1.416423e+002	0.000000e+00	0	0	12.835	12.835
2	CH4	1.571	4046	2089	78.242	Linear	0.000000e+00	0.000000e+00	5.171738e+001	0.000000e+00	0	0	6.634	6.634
3	CO2	1.996	3784278	1814839	949.751	Linear	0.000000e+00	0.000000e+00	3.984494e+003	0.000000e+00	0	0	80.531	80.531
4	Ethylene	0.000	0	0	0.000	Linear	0.000000e+00	0.000000e+00	0.000000e+00	0.000000e+00	0	0	0.000	0.000
5	Acetylene	0.000	0	0	0.000	Linear	0.000000e+00	0.000000e+00	0.000000e+00	0.000000e+00	0	0	0.000	0.000
6	Ethane	0.000	0	0	0.000	Linear	0.000000e+00	0.000000e+00	0.000000e+00	0.000000e+00	0	0	0.000	0.000

[Compound Results(Ch2)]
# of IDs	5
ID#	Name	R.Time	Area	Height	Conc.	Curve	3rd	2nd	1st	Constant	Area Ratio	Height Ratio	Conc. %	Norm Conc.
1	Hydrogen	0.000	0	0	0.000	Linear	0.000000e+00	0.000000e+00	0.000000e+00	0.000000e+00	0	0	0.000	0.000
2	Oxygen	0.000	0	0	0.000	Linear	0.000000e+00	0.000000e+00	0.000000e+00	0.000000e+00	0	0	0.000	0.000
3	Nitrogen	0.000	0	0	0.000	Linear	0.000000e+00	0.000000e+00	0.000000e+00	0.000000e+00	0	0	0.000	0.000
4	Methane	0.000	0	0	0.000	Linear	0.000000e+00	0.000000e+00	0.000000e+00	0.000000e+00	0	0	0.000	0.000
5	Carbon Monoxide	0.000	0	0	0.000	Linear	0.000000e+00	0.000000e+00	0.000000e+00	0.000000e+00	0	0	0.000	0.000

[Compound Results(Ch3)]
# of IDs	2
ID#	Name	R.Time	Area	Height	Conc.	Curve	3rd	2nd	1st	Constant	Area Ratio	Height Ratio	Conc. %	Norm Conc.
1	N2O	2.880	18577	4746	0.474	Linear	0.000000e+00	0.000000e+00	3.915173e+004	0.000000e+00	0	0	100.000	100.000
2	SF6	0.000	0	0	0.000	Linear	0.000000e+00	0.000000e+00	0.000000e+00	0.000000e+00	0	0	0.000	0.000

[Group Results(Ch1)]
# of Groups	0

[Group Results(Ch2)]
# of Groups	0

[Group Results(Ch3)]
# of Groups	0

[Chromatogram (Ch1)]
Interval(msec)	220
# of Points	1091
Start Time(min)	0.002
End Time(min)	3.998
R.Time (min)	Intensity
0.00167	-2
0.00533	1
0.00900	8
0.01267	15
0.01633	18
0.02000	16
0.02367	15
0.02733	17
0.03100	17
0.03467	16
0.03833	10
0.04200	5
0.04567	4
0.04933	6
0.05300	3
0.05667	-2
0.06033	-7
0.06400	-12
0.06767	-10
0.07133	-2
0.07500	11
0.07867	20
0.08233	21
0.08600	17
0.08967	11
0.09333	5
0.09700	6
0.10067	2
0.10433	-6
0.10800	-12
0.11167	-16
0.11533	-19
0.11900	-23
0.12267	-20
0.12633	-13
0.13000	-7
0.13367	-2
0.13733	-1
0.14100	-2
0.14467	1
0.14833	10
0.15200	19
0.15567	20
0.15933	14
0.16300	6
0.16667	0
0.17033	3
0.17400	9
0.17767	14
0.18133	19
0.18500	20
0.18867	9
0.19233	-11
0.19600	-29
0.19967	-42
0.20333	-50
0.20700	-49
0.21067	-41
0.21433	-28
0.21800	-19
0.22167	-15
0.22533	-14
0.22900	-15
0.23267	-19
0.23633	-23
0.24000	-23
0.24367	-18
0.24733	-10
0.25100	-5
0.25467	-2
0.25833	1
0.26200	5
0.26567	4
0.26933	1
0.27300	1
0.27667	7
0.28033	18
0.28400	27
0.28767	29
0.29133	26
0.29500	22
0.29867	16
0.30233	9
0.30600	5
0.30967	3
0.31333	-0
0.31700	0
0.32067	8
0.32433	20
0.32800	24
0.33167	21
0.33533	11
0.33900	-5
0.34267	-17
0.34633	-22
0.35000	-22
0.35367	-21
0.35733	-19
0.36100	-13
0.36467	-5
0.36833	-3
0.37200	-2
0.37567	0
0.37933	4
0.38300	4
0.38667	-4
0.39033	-12
0.39400	-14
0.39767	-11
0.40133	-8
0.40500	-8
0.40867	-8
0.41233	-6
0.41600	-3
0.41967	1
0.42333	2
0.42700	1
0.43067	4
0.43433	13
0.43800	26
0.44167	38
0.44533	41
0.44900	30
0.45267	14
0.45633	3
0.46000	-5
0.46367	-8
0.46733	-8
0.47100	-6
0.47467	-5
0.47833	-3
0.48200	-2
0.48567	-4
0.48933	-7
0.49300	-14
0.49667	-21
0.50033	-24
0.50400	-21
0.50767	-19
0.51133	-23
0.51500	-28
0.51867	-28
0.52233	-24
0.52600	-19
0.52967	-16
0.53333	-15
0.53700	-12
0.54067	-6
0.54433	2
0.54800	7
0.55167	10
0.55533	7
0.55900	4
0.56267	-1
0.56633	-7
0.57000	-14
0.57367	-17
0.57733	-16
0.58100	-14
0.58467	-11
0.58833	-11
0.59200	-13
0.59567	-15
0.59933	-18
0.60300	-17
0.60667	-16
0.61033	-15
0.61400	-11
0.61767	-5
0.62133	-2
0.62500	1
0.62867	2
0.63233	4
0.63600	6
0.63967	6
0.64333	3
0.64700	2
0.65067	1
0.65433	1
0.65800	1
0.66167	-1
0.66533	-3
0.66900	-6
0.67267	-9
0.67633	-13
0.68000	-13
0.68367	-11
0.68733	-14
0.69100	-14
0.69467	-11
0.69833	-5
0.70200	4
0.70567	14
0.70933	23
0.71300	25
0.71667	27
0.72033	26
0.72400	21
0.72767	14
0.73133	6
0.73500	-2
0.73867	-9
0.74233	-13
0.74600	-15
0.74967	-17
0.75333	-11
0.75700	-4
0.76067	-4
0.76433	-11
0.76800	-15
0.77167	-11
0.77533	-7
0.77900	-11
0.78267	-18
0.78633	-23
0.79000	-29
0.79367	-27
0.79733	-23
0.80100	-22
0.80467	-26
0.80833	-32
0.81200	-40
0.81567	-46
0.81933	-48
0.82300	-47
0.82667	-41
0.83033	-35
0.83400	-28
0.83767	-17
0.84133	-10
0.84500	-7
0.84867	-8
0.85233	-7
0.85600	-4
0.85967	-3
0.86333	-2
0.86700	-2
0.87067	-1
0.87433	1
0.87800	-0
0.88167	-1
0.88533	-0
0.88900	5
0.89267	12
0.89633	15
0.90000	21
0.90367	25
0.90733	18
0.91100	9
0.91467	7
0.91833	8
0.92200	7
0.92567	4
0.92933	2
0.93300	1
0.93667	2
0.94033	9
0.94400	17
0.94767	22
0.95133	29
0.95500	38
0.95867	45
0.96233	43
0.96600	34
0.96967	26
0.97333	14
0.97700	4
0.98067	-4
0.98433	-8
0.98800	-7
0.99167	-4
0.99533	-2
0.99900	-2
1.00267	-2
1.00633	0
1.01000	5
1.01367	2
1.01733	1
1.02100	-2
1.02467	-3
1.02833	-2
1.03200	-0
1.03567	1
1.03933	3
1.04300	4
1.04667	6
1.05033	6
1.05400	7
1.05767	8
1.06133	10
1.06500	9
1.06867	7
1.07233	4
1.07600	-1
1.07967	-6
1.08333	-10
1.08700	-13
1.09067	-14
1.09433	-16
1.09800	-15
1.10167	-13
1.10533	-11
1.10900	-12
1.11267	-11
1.11633	-8
1.12000	-8
1.12367	-11
1.12733	-15
1.13100	-12
1.13467	-4
1.13833	3
1.14200	3
1.14567	-2
1.14933	-11
1.15300	-16
1.15667	-14
1.16033	-14
1.16400	-13
1.16767	-9
1.17133	-5
1.17500	-6
1.17867	-13
1.18233	-21
1.18600	-31
1.18967	-37
1.19333	-36
1.19700	-34
1.20067	-32
1.20433	-33
1.20800	-32
1.21167	-29
1.21533	-24
1.21900	-16
1.22267	-8
1.22633	-4
1.23000	-6
1.23367	-11
1.23733	-18
1.24100	-23
1.24467	-24
1.24833	-25
1.25200	-27
1.25567	-30
1.25933	-32
1.26300	-34
1.26667	-36
1.27033	-35
1.27400	-31
1.27767	-28
1.28133	-27
1.28500	-26
1.28867	-28
1.29233	-33
1.29600	-36
1.29967	-33
1.30333	-31
1.30700	-30
1.31067	-26
1.31433	-24
1.31800	-22
1.32167	-19
1.32533	-18
1.32900	-20
1.33267	-23
1.33633	-28
1.34000	-37
1.34367	-46
1.34733	-53
1.35100	-54
1.35467	-48
1.35833	-39
1.36200	-31
1.36567	-26
1.36933	-25
1.37300	-24
1.37667	-23
1.38033	-25
1.38400	-30
1.38767	-42
1.39133	-48
1.39500	-49
1.39867	-47
1.40233	-43
1.40600	-44
1.40967	-40
1.41333	-38
1.41700	-38
1.42067	-34
1.42433	-30
1.42800	-29
1.43167	-33
1.43533	-38
1.43900	-34
1.44267	5
1.44633	142
1.45000	506
1.45367	1402
1.45733	3018
1.46100	5076
1.46467	7098
1.46833	8766
1.47200	9939
1.47567	10518
1.47933	10392
1.48300	9549
1.48667	8158
1.49033	6512
1.49400	4908
1.49767	3535
1.50133	2455
1.50500	1654
1.50867	1083
1.51233	691
1.51600	427
1.51967	245
1.52333	115
1.52700	27
1.53067	-31
1.53433	-67
1.53800	-75
1.54167	-28
1.54533	121
1.54900	407
1.55267	799
1.55633	1214
1.56000	1575
1.56367	1842
1.56733	1994
1.57100	2010
1.57467	1871
1.57833	1596
1.58200	1254
1.58567	913
1.58933	618
1.59300	387
1.59667	215
1.60033	93
1.60400	13
1.60767	-37
1.61133	-67
1.61500	-85
1.61867	-95
1.62233	-100
1.62600	-100
1.62967	-100
1.63333	-101
1.63700	-104
1.64067	-101
1.64433	-92
1.64800	-82
1.65167	-76
1.65533	-76
1.65900	-78
1.66267	-83
1.66633	-88
1.67000	-92
1.67367	-89
1.67733	-88
1.68100	-90
1.68467	-90
1.68833	-88
1.69200	-85
1.69567	-79
1.69933	-77
1.70300	-79
1.70667	-87
1.71033	-94
1.71400	-96
1.71767	-92
1.72133	-86
1.72500	-80
1.72867	-77
1.73233	-78
1.73600	-84
1.73967	-93
1.74333	-105
1.74700	-113
1.75067	-111
1.75433	-108
1.75800	-102
1.76167	-96
1.76533	-89
1.76900	-85
1.77267	-84
1.77633	-82
1.78000	-79
1.78367	-76
1.78733	-74
1.79100	-70
1.79467	-64
1.79833	-56
1.80200	-49
1.80567	-42
1.80933	-36
1.81300	-36
1.81667	-44
1.82033	-58
1.82400	-75
1.82767	-88
1.83133	-96
1.83500	-98
1.83867	-97
1.84233	-95
1.84600	-92
1.84967	-89
1.85333	-87
1.85700	-82
1.86067	-73
1.86433	-63
1.86800	-55
1.87167	-55
1.87533	-57
1.87900	-62
1.88267	-70
1.88633	-73
1.89000	-71
1.89367	-71
1.89733	-72
1.90100	-74
1.90467	-79
1.90833	-82
1.91200	-78
1.91567	-70
1.91933	-63
1.92300	-55
1.92667	-53
1.93033	-56
1.93400	-58
1.93767	-61
1.94133	-64
1.94500	-65
1.94867	-57
1.95233	-32
1.95600	165
1.95967	1463
1.96333	7967
1.96700	32579
1.97067	103616
1.97433	259328
1.97800	519108
1.98167	857109
1.98533	1211958
1.98900	1517889
1.99267	1727497
1.99633	1814804
2.00000	1775244
2.00367	1625390
2.00733	1398283
2.01100	1135654
2.01467	876795
2.01833	649278
2.02200	465784
2.02567	326980
2.02933	226733
2.03300	156637
2.03667	108641
2.04033	76161
2.04400	54279
2.04767	39515
2.05133	29483
2.05500	22584
2.05867	17762
2.06233	14332
2.06600	11829
2.06967	9956
2.07333	8527
2.07700	7416
2.08067	6534
2.08433	5825
2.08800	5240
2.09167	4751
2.09533	4337
2.09900	3980
2.10267	3671
2.10633	3402
2.11000	3168
2.11367	2962
2.11733	2778
2.12100	2610
2.12467	2458
2.12833	2323
2.13200	2200
2.13567	2090
2.13933	1994
2.14300	1904
2.14667	1812
2.15033	1722
2.15400	1637
2.15767	1559
2.16133	1489
2.16500	1425
2.16867	1367
2.17233	1315
2.17600	1270
2.17967	1227
2.18333	1187
2.18700	1148
2.19067	1114
2.19433	1079
2.19800	1045
2.20167	1007
2.20533	968
2.20900	935
2.21267	907
2.21633	880
2.22000	853
2.22367	828
2.22733	802
2.23100	777
2.23467	752
2.23833	730
2.24200	714
2.24567	702
2.24933	688
2.25300	669
2.25667	650
2.26033	638
2.26400	626
2.26767	612
2.27133	596
2.27500	579
2.27867	565
2.28233	556
2.28600	549
2.28967	542
2.29333	538
2.29700	535
2.30067	533
2.30433	528
2.30800	517
2.31167	502
2.31533	483
2.31900	467
2.32267	455
2.32633	443
2.33000	429
2.33367	418
2.33733	413
2.34100	411
2.34467	407
2.34833	401
2.35200	393
2.35567	385
2.35933	379
2.36300	378
2.36667	377
2.37033	373
2.37400	366
2.37767	363
2.38133	362
2.38500	358
2.38867	353
2.39233	348
2.39600	343
2.39967	333
2.40333	327
2.40700	324
2.41067	320
2.41433	322
2.41800	324
2.42167	320
2.42533	313
2.42900	308
2.43267	303
2.43633	296
2.44000	291
2.44367	287
2.44733	283
2.45100	276
2.45467	271
2.45833	271
2.46200	271
2.46567	270
2.46933	265
2.47300	264
2.47667	265
2.48033	263
2.48400	261
2.48767	259
2.49133	252
2.49500	243
2.49867	234
2.50233	226
2.50600	225
2.50967	228
2.51333	231
2.51700	228
2.52067	222
2.52433	215
2.52800	214
2.53167	218
2.53533	219
2.53900	216
2.54267	210
2.54633	204
2.55000	198
2.55367	193
2.55733	191
2.56100	194
2.56467	201
2.56833	204
2.57200	204
2.57567	204
2.57933	204
2.58300	199
2.58667	192
2.59033	184
2.59400	180
2.59767	179
2.60133	178
2.60500	175
2.60867	172
2.61233	170
2.61600	166
2.61967	165
2.62333	165
2.62700	162
2.63067	156
2.63433	149
2.63800	141
2.64167	132
2.64533	124
2.64900	118
2.65267	117
2.65633	120
2.66000	125
2.66367	125
2.66733	123
2.67100	122
2.67467	124
2.67833	126
2.68200	125
2.68567	121
2.68933	125
2.69300	132
2.69667	134
2.70033	131
2.70400	127
2.70767	126
2.71133	124
2.71500	122
2.71867	118
2.72233	113
2.72600	112
2.72967	118
2.73333	124
2.73700	131
2.74067	144
2.74433	157
2.74800	166
2.75167	165
2.75533	153
2.75900	136
2.76267	125
2.76633	120
2.77000	119
2.77367	118
2.77733	113
2.78100	106
2.78467	106
2.78833	107
2.79200	109
2.79567	111
2.79933	111
2.80300	111
2.80667	113
2.81033	120
2.81400	126
2.81767	126
2.82133	119
2.82500	114
2.82867	110
2.83233	103
2.83600	99
2.83967	100
2.84333	103
2.84700	110
2.85067	118
2.85433	124
2.85800	127
2.86167	122
2.86533	116
2.86900	114
2.87267	116
2.87633	115
2.88000	107
2.88367	100
2.88733	95
2.89100	93
2.89467	99
2.89833	105
2.90200	105
2.90567	98
2.90933	95
2.91300	96
2.91667	98
2.92033	101
2.92400	106
2.92767	109
2.93133	107
2.93500	105
2.93867	100
2.94233	93
2.94600	92
2.94967	98
2.95333	105
2.95700	108
2.96067	99
2.96433	87
2.96800	78
2.97167	82
2.97533	98
2.97900	112
2.98267	121
2.98633	119
2.99000	113
2.99367	106
2.99733	96
3.00100	88
3.00467	87
3.00833	89
3.01200	95
3.01567	102
3.01933	104
3.02300	105
3.02667	109
3.03033	114
3.03400	113
3.03767	110
3.04133	111
3.04500	114
3.04867	115
3.05233	106
3.05600	85
3.05967	67
3.06333	54
3.06700	46
3.07067	42
3.07433	46
3.07800	53
3.08167	58
3.08533	63
3.08900	69
3.09267	75
3.09633	78
3.10000	81
3.10367	80
3.10733	77
3.11100	73
3.11467	71
3.11833	72
3.12200	74
3.12567	77
3.12933	80
3.13300	82
3.13667	83
3.14033	84
3.14400	84
3.14767	82
3.15133	79
3.15500	79
3.15867	81
3.16233	89
3.16600	100
3.16967	109
3.17333	113
3.17700	111
3.18067	105
3.18433	98
3.18800	85
3.19167	66
3.19533	51
3.19900	40
3.20267	33
3.20633	29
3.21000	28
3.21367	33
3.21733	38
3.22100	44
3.22467	53
3.22833	65
3.23200	75
3.23567	82
3.23933	90
3.24300	96
3.24667	100
3.25033	99
3.25400	93
3.25767	80
3.26133	68
3.26500	57
3.26867	47
3.27233	38
3.27600	33
3.27967	32
3.28333	34
3.28700	42
3.29067	54
3.29433	62
3.29800	66
3.30167	63
3.30533	61
3.30900	60
3.31267	60
3.31633	59
3.32000	63
3.32367	67
3.32733	72
3.33100	73
3.33467	69
3.33833	65
3.34200	62
3.34567	61
3.34933	62
3.35300	63
3.35667	60
3.36033	54
3.36400	49
3.36767	43
3.37133	37
3.37500	32
3.37867	35
3.38233	43
3.38600	51
3.38967	53
3.39333	51
3.39700	47
3.40067	47
3.40433	47
3.40800	46
3.41167	47
3.41533	47
3.41900	47
3.42267	51
3.42633	59
3.43000	67
3.43367	72
3.43733	75
3.44100	72
3.44467	69
3.44833	67
3.45200	62
3.45567	56
3.45933	50
3.46300	44
3.46667	38
3.47033	41
3.47400	51
3.47767	65
3.48133	72
3.48500	72
3.48867	66
3.49233	54
3.49600	42
3.49967	36
3.50333	35
3.50700	38
3.51067	41
3.51433	48
3.51800	55
3.52167	58
3.52533	59
3.52900	63
3.53267	57
3.53633	48
3.54000	39
3.54367	28
3.54733	19
3.55100	13
3.55467	10
3.55833	6
3.56200	6
3.56567	7
3.56933	10
3.57300	18
3.57667	28
3.58033	35
3.58400	40
3.58767	43
3.59133	45
3.59500	42
3.59867	35
3.60233	28
3.60600	26
3.60967	30
3.61333	39
3.61700	45
3.62067	49
3.62433	47
3.62800	41
3.63167	36
3.63533	30
3.63900	25
3.64267	22
3.64633	16
3.65000	14
3.65367	13
3.65733	12
3.66100	8
3.66467	4
3.66833	10
3.67200	24
3.67567	35
3.67933	35
3.68300	26
3.68667	17
3.69033	12
3.69400	11
3.69767	11
3.70133	13
3.70500	14
3.70867	12
3.71233	12
3.71600	14
3.71967	21
3.72333	31
3.72700	34
3.73067	35
3.73433	41
3.73800	48
3.74167	48
3.74533	36
3.74900	21
3.75267	9
3.75633	6
3.76000	8
3.76367	13
3.76733	18
3.77100	21
3.77467	27
3.77833	31
3.78200	26
3.78567	21
3.78933	18
3.79300	17
3.79667	19
3.80033	22
3.80400	21
3.80767	21
3.81133	23
3.81500	23
3.81867	16
3.82233	9
3.82600	2
3.82967	4
3.83333	13
3.83700	21
3.84067	23
3.84433	23
3.84800	26
3.85167	30
3.85533	29
3.85900	27
3.86267	21
3.86633	13
3.87000	7
3.87367	7
3.87733	13
3.88100	15
3.88467	12
3.88833	6
3.89200	-1
3.89567	-8
3.89933	-16
3.90300	-20
3.90667	-19
3.91033	-14
3.91400	-7
3.91767	-4
3.92133	-6
3.92500	-7
3.92867	-8
3.93233	-9
3.93600	-11
3.93967	-13
3.94333	-14
3.94700	-14
3.95067	-13
3.95433	-13
3.95800	-12
3.96167	-8
3.96533	-5
3.96900	1
3.97267	5
3.97633	8
3.98000	11
3.98367	10
3.98733	9
3.99100	9
3.99467	7
3.99833	1

[Chromatogram (Ch2)]
Interval(msec)	220
# of Points	1091
Start Time(min)	0.002
End Time(min)	3.998
R.Time (min)	Intensity
0.00167	-0
0.00533	-0
0.00900	-0
0.01267	-1
0.01633	-1
0.02000	-1
0.02367	-1
0.02733	-0
0.03100	-0
0.03467	-0
0.03833	0
0.04200	0
0.04567	0
0.04933	0
0.05300	1
0.05667	1
0.06033	1
0.06400	1
0.06767	1
0.07133	1
0.07500	2
0.07867	2
0.08233	2
0.08600	2
0.08967	1
0.09333	1
0.09700	1
0.10067	1
0.10433	1
0.10800	1
0.11167	1
0.11533	1
0.11900	0
0.12267	0
0.12633	0
0.13000	0
0.13367	0
0.13733	0
0.14100	1
0.14467	1
0.14833	1
0.15200	1
0.15567	1
0.15933	1
0.16300	1
0.16667	2
0.17033	2
0.17400	2
0.17767	2
0.18133	2
0.18500	2
0.18867	2
0.19233	1
0.19600	1
0.19967	1
0.20333	1
0.20700	1
0.21067	1
0.21433	1
0.21800	1
0.22167	1
0.22533	1
0.22900	1
0.23267	0
0.23633	-0
0.24000	-1
0.24367	-1
0.24733	-2
0.25100	-2
0.25467	-2
0.25833	-2
0.26200	-2
0.26567	-2
0.26933	-2
0.27300	-2
0.27667	-2
0.28033	-2
0.28400	-2
0.28767	-2
0.29133	-2
0.29500	-1
0.29867	-1
0.30233	-1
0.30600	-0
0.30967	0
0.31333	1
0.31700	1
0.32067	1
0.32433	2
0.32800	2
0.33167	2
0.33533	2
0.33900	2
0.34267	2
0.34633	2
0.35000	2
0.35367	1
0.35733	1
0.36100	0
0.36467	0
0.36833	-0
0.37200	-1
0.37567	-1
0.37933	-1
0.38300	-2
0.38667	-2
0.39033	-2
0.39400	-2
0.39767	-2
0.40133	-1
0.40500	-1
0.40867	-1
0.41233	-1
0.41600	-1
0.41967	-1
0.42333	-1
0.42700	-1
0.43067	-1
0.43433	-1
0.43800	-1
0.44167	-1
0.44533	-1
0.44900	-1
0.45267	-1
0.45633	-1
0.46000	-1
0.46367	-1
0.46733	-1
0.47100	-1
0.47467	-1
0.47833	-1
0.48200	-1
0.48567	-1
0.48933	-1
0.49300	-1
0.49667	-1
0.50033	-1
0.50400	-1
0.50767	-2
0.51133	-2
0.51500	-2
0.51867	-2
0.52233	-2
0.52600	-2
0.52967	-2
0.53333	-2
0.53700	-2
0.54067	-2
0.54433	-2
0.54800	-2
0.55167	-2
0.55533	-2
0.55900	-2
0.56267	-2
0.56633	-2
0.57000	-2
0.57367	-2
0.57733	-2
0.58100	-2
0.58467	-3
0.58833	-2
0.59200	-2
0.59567	-2
0.59933	-2
0.60300	-2
0.60667	-2
0.61033	-2
0.61400	-2
0.61767	-1
0.62133	-1
0.62500	-1
0.62867	-1
0.63233	-0
0.63600	0
0.63967	1
0.64333	1
0.64700	1
0.65067	1
0.65433	1
0.65800	2
0.66167	2
0.66533	2
0.66900	1
0.67267	1
0.67633	1
0.68000	1
0.68367	0
0.68733	0
0.69100	-0
0.69467	-0
0.69833	-1
0.70200	-1
0.70567	-1
0.70933	-1
0.71300	-1
0.71667	-1
0.72033	-1
0.72400	-1
0.72767	-1
0.73133	-1
0.73500	-1
0.73867	-2
0.74233	-2
0.74600	-1
0.74967	-1
0.75333	-2
0.75700	-2
0.76067	-2
0.76433	-2
0.76800	-2
0.77167	-2
0.77533	-3
0.77900	-3
0.78267	-3
0.78633	-3
0.79000	-2
0.79367	-2
0.79733	-2
0.80100	-2
0.80467	-1
0.80833	-1
0.81200	-1
0.81567	-2
0.81933	-2
0.82300	-2
0.82667	-2
0.83033	-2
0.83400	-2
0.83767	-2
0.84133	-2
0.84500	-2
0.84867	-1
0.85233	-1
0.85600	-1
0.85967	-1
0.86333	-1
0.86700	-0
0.87067	-0
0.87433	-0
0.87800	-0
0.88167	-0
0.88533	-0
0.88900	0
0.89267	-0
0.89633	-0
0.90000	-0
0.90367	-0
0.90733	-0
0.91100	0
0.91467	0
0.91833	0
0.92200	0
0.92567	0
0.92933	-0
0.93300	-0
0.93667	-1
0.94033	-1
0.94400	-1
0.94767	-1
0.95133	-2
0.95500	-2
0.95867	-2
0.96233	-2
0.96600	-2
0.96967	-1
0.97333	-1
0.97700	-1
0.98067	-1
0.98433	-0
0.98800	-0
0.99167	-0
0.99533	-0
0.99900	-1
1.00267	-1
1.00633	-1
1.01000	-1
1.01367	-1
1.01733	-1
1.02100	-1
1.02467	-1
1.02833	-1
1.03200	-2
1.03567	-2
1.03933	-2
1.04300	-2
1.04667	-2
1.05033	-2
1.05400	-2
1.05767	-2
1.06133	-2
1.06500	-1
1.06867	-1
1.07233	-1
1.07600	-0
1.07967	-0
1.08333	-0
1.08700	-0
1.09067	-0
1.09433	-0
1.09800	-1
1.10167	-1
1.10533	-2
1.10900	-2
1.11267	-2
1.11633	-2
1.12000	-2
1.12367	-3
1.12733	-3
1.13100	-4
1.13467	-4
1.13833	-4
1.14200	-5
1.14567	-5
1.14933	-6
1.15300	-6
1.15667	-6
1.16033	-6
1.16400	-7
1.16767	-7
1.17133	-6
1.17500	-6
1.17867	-6
1.18233	-6
1.18600	-6
1.18967	-5
1.19333	-5
1.19700	-5
1.20067	-5
1.20433	-5
1.20800	-5
1.21167	-5
1.21533	-5
1.21900	-5
1.22267	-5
1.22633	-5
1.23000	-5
1.23367	-4
1.23733	-4
1.24100	-4
1.24467	-4
1.24833	-5
1.25200	-5
1.25567	-4
1.25933	-4
1.26300	-4
1.26667	-4
1.27033	-5
1.27400	-5
1.27767	-5
1.28133	-5
1.28500	-5
1.28867	-5
1.29233	-4
1.29600	-4
1.29967	-4
1.30333	-4
1.30700	-3
1.31067	-3
1.31433	-3
1.31800	-3
1.32167	-2
1.32533	-2
1.32900	-2
1.33267	-1
1.33633	-1
1.34000	-1
1.34367	-1
1.34733	-1
1.35100	-1
1.35467	-2
1.35833	-2
1.36200	-2
1.36567	-2
1.36933	-3
1.37300	-3
1.37667	-3
1.38033	-2
1.38400	-2
1.38767	-2
1.39133	-2
1.39500	-2
1.39867	-2
1.40233	-2
1.40600	-2
1.40967	-2
1.41333	-2
1.41700	-2
1.42067	-2
1.42433	-3
1.42800	-3
1.43167	-3
1.43533	-2
1.43900	-2
1.44267	-2
1.44633	-2
1.45000	-2
1.45367	-2
1.45733	-2
1.46100	-2
1.46467	-1
1.46833	-1
1.47200	-1
1.47567	-1
1.47933	-1
1.48300	-1
1.48667	-1
1.49033	-1
1.49400	-1
1.49767	-1
1.50133	-1
1.50500	-1
1.50867	-1
1.51233	-1
1.51600	-2
1.51967	-2
1.52333	-2
1.52700	-2
1.53067	-2
1.53433	-2
1.53800	-2
1.54167	-2
1.54533	-2
1.54900	-2
1.55267	-3
1.55633	-3
1.56000	-3
1.56367	-3
1.56733	-2
1.57100	-2
1.57467	-2
1.57833	-2
1.58200	-2
1.58567	-2
1.58933	-2
1.59300	-3
1.59667	-3
1.60033	-4
1.60400	-5
1.60767	-6
1.61133	-8
1.61500	-10
1.61867	-12
1.62233	-15
1.62600	-18
1.62967	-22
1.63333	-25
1.63700	-29
1.64067	-32
1.64433	-35
1.64800	-39
1.65167	-42
1.65533	-45
1.65900	-49
1.66267	-52
1.66633	-56
1.67000	-61
1.67367	-66
1.67733	-71
1.68100	-76
1.68467	-81
1.68833	-86
1.69200	-90
1.69567	-94
1.69933	-97
1.70300	-100
1.70667	-102
1.71033	-103
1.71400	-104
1.71767	-105
1.72133	-106
1.72500	-107
1.72867	-108
1.73233	-108
1.73600	-109
1.73967	-109
1.74333	-110
1.74700	-110
1.75067	-109
1.75433	-109
1.75800	-109
1.76167	-108
1.76533	-108
1.76900	-108
1.77267	-109
1.77633	-110
1.78000	-111
1.78367	-112
1.78733	-113
1.79100	-113
1.79467	-114
1.79833	-114
1.80200	-113
1.80567	-113
1.80933	-112
1.81300	-111
1.81667	-111
1.82033	-111
1.82400	-111
1.82767	-112
1.83133	-112
1.83500	-113
1.83867	-114
1.84233	-114
1.84600	-114
1.84967	-114
1.85333	-114
1.85700	-115
1.86067	-115
1.86433	-115
1.86800	-115
1.87167	-115
1.87533	-115
1.87900	-115
1.88267	-115
1.88633	-114
1.89000	-114
1.89367	-114
1.89733	-113
1.90100	-113
1.90467	-112
1.90833	-111
1.91200	-111
1.91567	-110
1.91933	-110
1.92300	-110
1.92667	-110
1.93033	-110
1.93400	-110
1.93767	-110
1.94133	-110
1.94500	-111
1.94867	-111
1.95233	-111
1.95600	-111
1.95967	-111
1.96333	-111
1.96700	-111
1.97067	-111
1.97433	-111
1.97800	-110
1.98167	-109
1.98533	-108
1.98900	-108
1.99267	-108
1.99633	-107
2.00000	-107
2.00367	-107
2.00733	-107
2.01100	-106
2.01467	-105
2.01833	-105
2.02200	-104
2.02567	-104
2.02933	-103
2.03300	-103
2.03667	-103
2.04033	-103
2.04400	-103
2.04767	-103
2.05133	-103
2.05500	-103
2.05867	-103
2.06233	-103
2.06600	-103
2.06967	-103
2.07333	-103
2.07700	-103
2.08067	-103
2.08433	-102
2.08800	-102
2.09167	-102
2.09533	-101
2.09900	-101
2.10267	-101
2.10633	-101
2.11000	-101
2.11367	-101
2.11733	-100
2.12100	-100
2.12467	-100
2.12833	-99
2.13200	-99
2.13567	-99
2.13933	-99
2.14300	-98
2.14667	-98
2.15033	-97
2.15400	-97
2.15767	-96
2.16133	-96
2.16500	-95
2.16867	-95
2.17233	-94
2.17600	-93
2.17967	-93
2.18333	-93
2.18700	-93
2.19067	-93
2.19433	-93
2.19800	-92
2.20167	-91
2.20533	-90
2.20900	-90
2.21267	-89
2.21633	-89
2.22000	-89
2.22367	-89
2.22733	-89
2.23100	-89
2.23467	-89
2.23833	-89
2.24200	-88
2.24567	-88
2.24933	-88
2.25300	-88
2.25667	-87
2.26033	-87
2.26400	-87
2.26767	-88
2.27133	-88
2.27500	-87
2.27867	-87
2.28233	-86
2.28600	-85
2.28967	-85
2.29333	-84
2.29700	-84
2.30067	-84
2.30433	-84
2.30800	-84
2.31167	-83
2.31533	-83
2.31900	-83
2.32267	-82
2.32633	-81
2.33000	-81
2.33367	-80
2.33733	-80
2.34100	-79
2.34467	-78
2.34833	-78
2.35200	-77
2.35567	-75
2.35933	-74
2.36300	-72
2.36667	-70
2.37033	-67
2.37400	-64
2.37767	-61
2.38133	-58
2.38500	-54
2.38867	-50
2.39233	-45
2.39600	-41
2.39967	-36
2.40333	-32
2.40700	-29
2.41067	-25
2.41433	-22
2.41800	-19
2.42167	-17
2.42533	-15
2.42900	-14
2.43267	-12
2.43633	-11
2.44000	-10
2.44367	-9
2.44733	-8
2.45100	-7
2.45467	-7
2.45833	-6
2.46200	-5
2.46567	-4
2.46933	-3
2.47300	-2
2.47667	-1
2.48033	0
2.48400	1
2.48767	2
2.49133	3
2.49500	4
2.49867	5
2.50233	5
2.50600	6
2.50967	7
2.51333	8
2.51700	9
2.52067	10
2.52433	10
2.52800	11
2.53167	11
2.53533	11
2.53900	11
2.54267	12
2.54633	13
2.55000	13
2.55367	14
2.55733	14
2.56100	14
2.56467	14
2.56833	14
2.57200	14
2.57567	14
2.57933	14
2.58300	14
2.58667	14
2.59033	14
2.59400	15
2.59767	15
2.60133	16
2.60500	16
2.60867	16
2.61233	15
2.61600	15
2.61967	15
2.62333	14
2.62700	14
2.63067	14
2.63433	14
2.63800	15
2.64167	15
2.64533	16
2.64900	16
2.65267	17
2.65633	17
2.66000	18
2.66367	19
2.66733	19
2.67100	20
2.67467	20
2.67833	21
2.68200	21
2.68567	21
2.68933	21
2.69300	21
2.69667	22
2.70033	22
2.70400	22
2.70767	22
2.71133	22
2.71500	22
2.71867	22
2.72233	22
2.72600	21
2.72967	21
2.73333	21
2.73700	22
2.74067	22
2.74433	22
2.74800	22
2.75167	23
2.75533	23
2.75900	24
2.76267	25
2.76633	25
2.77000	25
2.77367	25
2.77733	25
2.78100	25
2.78467	24
2.78833	24
2.79200	24
2.79567	24
2.79933	23
2.80300	23
2.80667	24
2.81033	24
2.81400	24
2.81767	24
2.82133	25
2.82500	25
2.82867	25
2.83233	25
2.83600	25
2.83967	25
2.84333	24
2.84700	22
2.85067	19
2.85433	13
2.85800	4
2.86167	-8
2.86533	-23
2.86900	-43
2.87267	-67
2.87633	-96
2.88000	-129
2.88367	-166
2.88733	-208
2.89100	-252
2.89467	-300
2.89833	-350
2.90200	-402
2.90567	-456
2.90933	-510
2.91300	-566
2.91667	-621
2.92033	-676
2.92400	-730
2.92767	-783
2.93133	-834
2.93500	-885
2.93867	-941
2.94233	-1000
2.94600	-1052
2.94967	-1088
2.95333	-1101
2.95700	-1087
2.96067	-1049
2.96433	-993
2.96800	-924
2.97167	-847
2.97533	-767
2.97900	-687
2.98267	-610
2.98633	-537
2.99000	-470
2.99367	-409
2.99733	-354
3.00100	-305
3.00467	-262
3.00833	-224
3.01200	-191
3.01567	-162
3.01933	-137
3.02300	-116
3.02667	-97
3.03033	-81
3.03400	-67
3.03767	-56
3.04133	-46
3.04500	-37
3.04867	-30
3.05233	-23
3.05600	-18
3.05967	-13
3.06333	-9
3.06700	-5
3.07067	-2
3.07433	1
3.07800	3
3.08167	5
3.08533	7
3.08900	8
3.09267	9
3.09633	11
3.10000	11
3.10367	12
3.10733	13
3.11100	13
3.11467	14
3.11833	14
3.12200	14
3.12567	14
3.12933	15
3.13300	15
3.13667	16
3.14033	16
3.14400	16
3.14767	17
3.15133	17
3.15500	17
3.15867	18
3.16233	18
3.16600	19
3.16967	19
3.17333	20
3.17700	20
3.18067	20
3.18433	20
3.18800	20
3.19167	20
3.19533	21
3.19900	21
3.20267	21
3.20633	21
3.21000	21
3.21367	21
3.21733	21
3.22100	21
3.22467	21
3.22833	21
3.23200	21
3.23567	21
3.23933	21
3.24300	22
3.24667	22
3.25033	23
3.25400	23
3.25767	23
3.26133	23
3.26500	23
3.26867	23
3.27233	23
3.27600	23
3.27967	23
3.28333	23
3.28700	23
3.29067	23
3.29433	23
3.29800	24
3.30167	24
3.30533	24
3.30900	24
3.31267	24
3.31633	24
3.32000	24
3.32367	24
3.32733	24
3.33100	24
3.33467	24
3.33833	24
3.34200	24
3.34567	24
3.34933	25
3.35300	25
3.35667	25
3.36033	26
3.36400	26
3.36767	26
3.37133	26
3.37500	26
3.37867	26
3.38233	26
3.38600	26
3.38967	26
3.39333	27
3.39700	27
3.40067	27
3.40433	28
3.40800	28
3.41167	28
3.41533	27
3.41900	27
3.42267	27
3.42633	27
3.43000	27
3.43367	27
3.43733	27
3.44100	27
3.44467	26
3.44833	26
3.45200	26
3.45567	26
3.45933	27
3.46300	27
3.46667	27
3.47033	27
3.47400	27
3.47767	27
3.48133	27
3.48500	28
3.48867	28
3.49233	28
3.49600	28
3.49967	28
3.50333	28
3.50700	28
3.51067	28
3.51433	28
3.51800	28
3.52167	28
3.52533	28
3.52900	28
3.53267	27
3.53633	27
3.54000	27
3.54367	27
3.54733	27
3.55100	27
3.55467	27
3.55833	27
3.56200	27
3.56567	26
3.56933	26
3.57300	26
3.57667	26
3.58033	26
3.58400	26
3.58767	26
3.59133	26
3.59500	26
3.59867	26
3.60233	26
3.60600	26
3.60967	26
3.61333	26
3.61700	26
3.62067	26
3.62433	26
3.62800	26
3.63167	26
3.63533	26
3.63900	26
3.64267	26
3.64633	26
3.65000	26
3.65367	25
3.65733	25
3.66100	25
3.66467	25
3.66833	25
3.67200	25
3.67567	25
3.67933	25
3.68300	25
3.68667	26
3.69033	26
3.69400	26
3.69767	26
3.70133	26
3.70500	26
3.70867	26
3.71233	26
3.71600	26
3.71967	26
3.72333	26
3.72700	26
3.73067	26
3.73433	26
3.73800	26
3.74167	26
3.74533	26
3.74900	26
3.75267	26
3.75633	26
3.76000	27
3.76367	27
3.76733	27
3.77100	27
3.77467	27
3.77833	27
3.78200	27
3.78567	27
3.78933	27
3.79300	27
3.79667	27
3.80033	28
3.80400	27
3.80767	27
3.81133	27
3.81500	27
3.81867	27
3.82233	27
3.82600	27
3.82967	27
3.83333	26
3.83700	26
3.84067	26
3.84433	26
3.84800	26
3.85167	27
3.85533	27
3.85900	27
3.86267	27
3.86633	27
3.87000	27
3.87367	26
3.87733	26
3.88100	26
3.88467	25
3.88833	25
3.89200	25
3.89567	25
3.89933	25
3.90300	24
3.90667	24
3.91033	24
3.91400	24
3.91767	23
3.92133	23
3.92500	24
3.92867	24
3.93233	24
3.93600	25
3.93967	25
3.94333	25
3.94700	25
3.95067	26
3.95433	26
3.95800	26
3.96167	26
3.96533	26
3.96900	26
3.97267	26
3.97633	26
3.98000	26
3.98367	26
3.98733	26
3.99100	26
3.99467	26
3.99833	26

[Chromatogram (Ch3)]
Interval(msec)	220
# of Points	1091
Start Time(min)	0.002
End Time(min)	3.998
R.Time (min)	Intensity
0.00167	1
0.00533	3
0.00900	6
0.01267	6
0.01633	5
0.02000	6
0.02367	5
0.02733	4
0.03100	4
0.03467	6
0.03833	7
0.04200	8
0.04567	8
0.04933	7
0.05300	7
0.05667	7
0.06033	6
0.06400	5
0.06767	6
0.07133	7
0.07500	8
0.07867	7
0.08233	6
0.08600	5
0.08967	3
0.09333	2
0.09700	4
0.10067	6
0.10433	7
0.10800	6
0.11167	5
0.11533	5
0.11900	3
0.12267	2
0.12633	3
0.13000	5
0.13367	7
0.13733	6
0.14100	4
0.14467	2
0.14833	0
0.15200	-1
0.15567	-2
0.15933	-3
0.16300	-3
0.16667	-3
0.17033	-2
0.17400	-1
0.17767	-0
0.18133	-0
0.18500	-2
0.18867	-2
0.19233	0
0.19600	0
0.19967	1
0.20333	1
0.20700	-0
0.21067	-0
0.21433	-0
0.21800	-2
0.22167	-4
0.22533	-6
0.22900	-6
0.23267	-4
0.23633	-3
0.24000	-4
0.24367	-4
0.24733	-5
0.25100	-4
0.25467	-2
0.25833	-0
0.26200	-2
0.26567	-1
0.26933	-0
0.27300	-1
0.27667	-3
0.28033	-3
0.28400	-1
0.28767	1
0.29133	2
0.29500	3
0.29867	5
0.30233	7
0.30600	7
0.30967	8
0.31333	7
0.31700	7
0.32067	6
0.32433	7
0.32800	5
0.33167	4
0.33533	4
0.33900	3
0.34267	3
0.34633	2
0.35000	3
0.35367	4
0.35733	5
0.36100	6
0.36467	6
0.36833	7
0.37200	8
0.37567	8
0.37933	8
0.38300	7
0.38667	6
0.39033	6
0.39400	4
0.39767	3
0.40133	1
0.40500	1
0.40867	2
0.41233	5
0.41600	6
0.41967	5
0.42333	3
0.42700	3
0.43067	4
0.43433	3
0.43800	1
0.44167	0
0.44533	3
0.44900	4
0.45267	4
0.45633	3
0.46000	0
0.46367	0
0.46733	2
0.47100	3
0.47467	2
0.47833	2
0.48200	1
0.48567	1
0.48933	1
0.49300	2
0.49667	1
0.50033	0
0.50400	1
0.50767	1
0.51133	1
0.51500	-0
0.51867	-1
0.52233	-2
0.52600	-3
0.52967	-3
0.53333	-2
0.53700	-2
0.54067	-2
0.54433	-3
0.54800	-5
0.55167	-5
0.55533	-4
0.55900	-3
0.56267	-1
0.56633	-1
0.57000	-0
0.57367	1
0.57733	1
0.58100	1
0.58467	0
0.58833	1
0.59200	2
0.59567	1
0.59933	-2
0.60300	-4
0.60667	-4
0.61033	-4
0.61400	-1
0.61767	2
0.62133	2
0.62500	2
0.62867	0
0.63233	-1
0.63600	-2
0.63967	-0
0.64333	1
0.64700	3
0.65067	5
0.65433	7
0.65800	8
0.66167	7
0.66533	5
0.66900	4
0.67267	3
0.67633	1
0.68000	-0
0.68367	-0
0.68733	1
0.69100	1
0.69467	-0
0.69833	0
0.70200	0
0.70567	1
0.70933	1
0.71300	2
0.71667	2
0.72033	2
0.72400	2
0.72767	1
0.73133	2
0.73500	3
0.73867	4
0.74233	5
0.74600	5
0.74967	4
0.75333	2
0.75700	3
0.76067	3
0.76433	2
0.76800	2
0.77167	2
0.77533	2
0.77900	-0
0.78267	-2
0.78633	-1
0.79000	0
0.79367	1
0.79733	1
0.80100	0
0.80467	0
0.80833	0
0.81200	1
0.81567	1
0.81933	0
0.82300	-0
0.82667	0
0.83033	1
0.83400	2
0.83767	1
0.84133	2
0.84500	3
0.84867	1
0.85233	1
0.85600	2
0.85967	2
0.86333	2
0.86700	2
0.87067	2
0.87433	2
0.87800	1
0.88167	-2
0.88533	-4
0.88900	-5
0.89267	-4
0.89633	-3
0.90000	-3
0.90367	-1
0.90733	0
0.91100	0
0.91467	-0
0.91833	-1
0.92200	-3
0.92567	-1
0.92933	-1
0.93300	-3
0.93667	-3
0.94033	-2
0.94400	-1
0.94767	-1
0.95133	-1
0.95500	-1
0.95867	-1
0.96233	-3
0.96600	-6
0.96967	-7
0.97333	-5
0.97700	-1
0.98067	2
0.98433	3
0.98800	4
0.99167	5
0.99533	5
0.99900	4
1.00267	4
1.00633	4
1.01000	3
1.01367	1
1.01733	-0
1.02100	-0
1.02467	1
1.02833	3
1.03200	6
1.03567	6
1.03933	4
1.04300	2
1.04667	1
1.05033	0
1.05400	1
1.05767	2
1.06133	2
1.06500	-0
1.06867	-2
1.07233	-3
1.07600	-2
1.07967	-1
1.08333	-0
1.08700	2
1.09067	4
1.09433	4
1.09800	3
1.10167	3
1.10533	1
1.10900	1
1.11267	1
1.11633	1
1.12000	1
1.12367	3
1.12733	4
1.13100	4
1.13467	5
1.13833	5
1.14200	5
1.14567	7
1.14933	6
1.15300	4
1.15667	5
1.16033	6
1.16400	6
1.16767	8
1.17133	7
1.17500	7
1.17867	5
1.18233	4
1.18600	4
1.18967	5
1.19333	6
1.19700	6
1.20067	6
1.20433	6
1.20800	6
1.21167	5
1.21533	4
1.21900	4
1.22267	2
1.22633	1
1.23000	2
1.23367	4
1.23733	5
1.24100	4
1.24467	3
1.24833	3
1.25200	3
1.25567	4
1.25933	4
1.26300	4
1.26667	4
1.27033	5
1.27400	7
1.27767	8
1.28133	9
1.28500	10
1.28867	9
1.29233	8
1.29600	8
1.29967	8
1.30333	8
1.30700	9
1.31067	8
1.31433	10
1.31800	11
1.32167	11
1.32533	10
1.32900	12
1.33267	13
1.33633	12
1.34000	11
1.34367	10
1.34733	7
1.35100	6
1.35467	7
1.35833	6
1.36200	6
1.36567	6
1.36933	6
1.37300	8
1.37667	9
1.38033	12
1.38400	12
1.38767	11
1.39133	11
1.39500	9
1.39867	10
1.40233	10
1.40600	10
1.40967	11
1.41333	11
1.41700	9
1.42067	8
1.42433	7
1.42800	7
1.43167	8
1.43533	11
1.43900	14
1.44267	13
1.44633	12
1.45000	12
1.45367	12
1.45733	12
1.46100	12
1.46467	13
1.46833	13
1.47200	14
1.47567	16
1.47933	16
1.48300	15
1.48667	13
1.49033	13
1.49400	13
1.49767	14
1.50133	13
1.50500	10
1.50867	7
1.51233	6
1.51600	7
1.51967	8
1.52333	7
1.52700	7
1.53067	8
1.53433	9
1.53800	11
1.54167	13
1.54533	13
1.54900	14
1.55267	15
1.55633	16
1.56000	16
1.56367	16
1.56733	16
1.57100	18
1.57467	19
1.57833	18
1.58200	19
1.58567	20
1.58933	21
1.59300	21
1.59667	21
1.60033	21
1.60400	20
1.60767	21
1.61133	22
1.61500	21
1.61867	19
1.62233	19
1.62600	21
1.62967	22
1.63333	22
1.63700	20
1.64067	19
1.64433	19
1.64800	20
1.65167	21
1.65533	23
1.65900	25
1.66267	24
1.66633	24
1.67000	24
1.67367	26
1.67733	27
1.68100	27
1.68467	27
1.68833	27
1.69200	29
1.69567	31
1.69933	30
1.70300	28
1.70667	29
1.71033	29
1.71400	30
1.71767	29
1.72133	30
1.72500	29
1.72867	31
1.73233	33
1.73600	34
1.73967	35
1.74333	38
1.74700	41
1.75067	42
1.75433	42
1.75800	40
1.76167	38
1.76533	36
1.76900	36
1.77267	38
1.77633	40
1.78000	42
1.78367	43
1.78733	42
1.79100	42
1.79467	42
1.79833	43
1.80200	44
1.80567	44
1.80933	43
1.81300	43
1.81667	43
1.82033	43
1.82400	43
1.82767	43
1.83133	43
1.83500	45
1.83867	47
1.84233	47
1.84600	47
1.84967	48
1.85333	49
1.85700	50
1.86067	52
1.86433	53
1.86800	53
1.87167	54
1.87533	54
1.87900	54
1.88267	53
1.88633	54
1.89000	56
1.89367	59
1.89733	62
1.90100	64
1.90467	65
1.90833	65
1.91200	65
1.91567	65
1.91933	66
1.92300	67
1.92667	69
1.93033	70
1.93400	69
1.93767	69
1.94133	70
1.94500	75
1.94867	77
1.95233	77
1.95600	77
1.95967	75
1.96333	78
1.96700	80
1.97067	81
1.97433	81
1.97800	83
1.98167	85
1.98533	86
1.98900	85
1.99267	86
1.99633	88
2.00000	88
2.00367	90
2.00733	89
2.01100	90
2.01467	93
2.01833	96
2.02200	98
2.02567	98
2.02933	96
2.03300	97
2.03667	99
2.04033	103
2.04400	104
2.04767	103
2.05133	105
2.05500	109
2.05867	114
2.06233	116
2.06600	119
2.06967	121
2.07333	122
2.07700	122
2.08067	122
2.08433	122
2.08800	122
2.09167	123
2.09533	123
2.09900	125
2.10267	126
2.10633	128
2.11000	130
2.11367	132
2.11733	134
2.12100	134
2.12467	136
2.12833	140
2.13200	142
2.13567	143
2.13933	145
2.14300	148
2.14667	151
2.15033	152
2.15400	151
2.15767	151
2.16133	153
2.16500	156
2.16867	159
2.17233	161
2.17600	162
2.17967	162
2.18333	163
2.18700	165
2.19067	167
2.19433	169
2.19800	172
2.20167	174
2.20533	174
2.20900	175
2.21267	176
2.21633	177
2.22000	177
2.22367	179
2.22733	182
2.23100	183
2.23467	183
2.23833	184
2.24200	185
2.24567	186
2.24933	186
2.25300	187
2.25667	190
2.26033	192
2.26400	194
2.26767	192
2.27133	192
2.27500	193
2.27867	195
2.28233	196
2.28600	196
2.28967	196
2.29333	196
2.29700	197
2.30067	197
2.30433	199
2.30800	202
2.31167	205
2.31533	207
2.31900	207
2.32267	206
2.32633	207
2.33000	207
2.33367	207
2.33733	209
2.34100	211
2.34467	210
2.34833	211
2.35200	214
2.35567	215
2.35933	218
2.36300	219
2.36667	219
2.37033	219
2.37400	217
2.37767	217
2.38133	218
2.38500	218
2.38867	216
2.39233	216
2.39600	220
2.39967	223
2.40333	225
2.40700	229
2.41067	229
2.41433	228
2.41800	228
2.42167	229
2.42533	230
2.42900	231
2.43267	232
2.43633	230
2.44000	232
2.44367	293
2.44733	452
2.45100	625
2.45467	768
2.45833	848
2.46200	854
2.46567	819
2.46933	774
2.47300	738
2.47667	715
2.48033	695
2.48400	665
2.48767	620
2.49133	566
2.49500	515
2.49867	474
2.50233	445
2.50600	426
2.50967	421
2.51333	428
2.51700	448
2.52067	473
2.52433	495
2.52800	507
2.53167	506
2.53533	491
2.53900	463
2.54267	428
2.54633	392
2.55000	357
2.55367	330
2.55733	309
2.56100	292
2.56467	278
2.56833	269
2.57200	262
2.57567	257
2.57933	253
2.58300	253
2.58667	255
2.59033	257
2.59400	258
2.59767	259
2.60133	258
2.60500	254
2.60867	247
2.61233	237
2.61600	228
2.61967	218
2.62333	210
2.62700	201
2.63067	191
2.63433	181
2.63800	172
2.64167	162
2.64533	151
2.64900	140
2.65267	126
2.65633	113
2.66000	101
2.66367	87
2.66733	74
2.67100	66
2.67467	59
2.67833	51
2.68200	46
2.68567	43
2.68933	41
2.69300	41
2.69667	42
2.70033	44
2.70400	47
2.70767	51
2.71133	54
2.71500	57
2.71867	60
2.72233	64
2.72600	68
2.72967	73
2.73333	76
2.73700	77
2.74067	80
2.74433	85
2.74800	88
2.75167	92
2.75533	93
2.75900	95
2.76267	98
2.76633	101
2.77000	105
2.77367	111
2.77733	114
2.78100	117
2.78467	121
2.78833	126
2.79200	131
2.79567	137
2.79933	142
2.80300	149
2.80667	156
2.81033	164
2.81400	172
2.81767	181
2.82133	194
2.82500	215
2.82867	253
2.83233	324
2.83600	451
2.83967	650
2.84333	939
2.84700	1326
2.85067	1805
2.85433	2355
2.85800	2938
2.86167	3508
2.86533	4015
2.86900	4420
2.87267	4699
2.87633	4838
2.88000	4841
2.88367	4727
2.88733	4519
2.89100	4243
2.89467	3926
2.89833	3587
2.90200	3245
2.90567	2915
2.90933	2605
2.91300	2319
2.91667	2059
2.92033	1826
2.92400	1617
2.92767	1431
2.93133	1269
2.93500	1125
2.93867	996
2.94233	881
2.94600	783
2.94967	699
2.95333	626
2.95700	563
2.96067	508
2.96433	459
2.96800	415
2.97167	378
2.97533	350
2.97900	324
2.98267	303
2.98633	285
2.99000	266
2.99367	249
2.99733	235
3.00100	224
3.00467	213
3.00833	202
3.01200	193
3.01567	187
3.01933	184
3.02300	181
3.02667	177
3.03033	174
3.03400	172
3.03767	169
3.04133	167
3.04500	166
3.04867	163
3.05233	161
3.05600	159
3.05967	158
3.06333	156
3.06700	156
3.07067	155
3.07433	156
3.07800	156
3.08167	155
3.08533	154
3.08900	154
3.09267	154
3.09633	156
3.10000	159
3.10367	159
3.10733	158
3.11100	160
3.11467	161
3.11833	160
3.12200	156
3.12567	156
3.12933	157
3.13300	159
3.13667	160
3.14033	159
3.14400	159
3.14767	161
3.15133	162
3.15500	163
3.15867	164
3.16233	164
3.16600	165
3.16967	166
3.17333	168
3.17700	171
3.18067	172
3.18433	174
3.18800	177
3.19167	179
3.19533	180
3.19900	182
3.20267	182
3.20633	182
3.21000	184
3.21367	185
3.21733	188
3.22100	191
3.22467	192
3.22833	194
3.23200	197
3.23567	201
3.23933	205
3.24300	208
3.24667	210
3.25033	211
3.25400	214
3.25767	215
3.26133	216
3.26500	220
3.26867	221
3.27233	220
3.27600	222
3.27967	227
3.28333	232
3.28700	235
3.29067	238
3.29433	238
3.29800	240
3.30167	244
3.30533	246
3.30900	246
3.31267	247
3.31633	248
3.32000	249
3.32367	253
3.32733	256
3.33100	258
3.33467	258
3.33833	261
3.34200	264
3.34567	266
3.34933	267
3.35300	265
3.35667	264
3.36033	266
3.36400	270
3.36767	271
3.37133	270
3.37500	268
3.37867	259
3.38233	247
3.38600	240
3.38967	245
3.39333	259
3.39700	278
3.40067	304
3.40433	331
3.40800	361
3.41167	389
3.41533	414
3.41900	439
3.42267	464
3.42633	486
3.43000	508
3.43367	525
3.43733	541
3.44100	555
3.44467	567
3.44833	578
3.45200	590
3.45567	600
3.45933	609
3.46300	616
3.46667	623
3.47033	630
3.47400	637
3.47767	643
3.48133	648
3.48500	654
3.48867	659
3.49233	661
3.49600	664
3.49967	665
3.50333	668
3.50700	671
3.51067	674
3.51433	675
3.51800	675
3.52167	676
3.52533	678
3.52900	679
3.53267	678
3.53633	675
3.54000	674
3.54367	673
3.54733	672
3.55100	673
3.55467	674
3.55833	675
3.56200	675
3.56567	674
3.56933	673
3.57300	671
3.57667	667
3.58033	665
3.58400	665
3.58767	664
3.59133	663
3.59500	661
3.59867	656
3.60233	654
3.60600	654
3.60967	655
3.61333	657
3.61700	659
3.62067	659
3.62433	659
3.62800	659
3.63167	656
3.63533	653
3.63900	651
3.64267	650
3.64633	649
3.65000	650
3.65367	650
3.65733	650
3.66100	650
3.66467	650
3.66833	652
3.67200	653
3.67567	653
3.67933	654
3.68300	652
3.68667	651
3.69033	653
3.69400	654
3.69767	654
3.70133	655
3.70500	655
3.70867	653
3.71233	651
3.71600	649
3.71967	647
3.72333	647
3.72700	647
3.73067	648
3.73433	649
3.73800	647
3.74167	644
3.74533	643
3.74900	644
3.75267	645
3.75633	647
3.76000	648
3.76367	647
3.76733	647
3.77100	645
3.77467	642
3.77833	640
3.78200	639
3.78567	638
3.78933	635
3.79300	633
3.79667	633
3.80033	635
3.80400	635
3.80767	634
3.81133	634
3.81500	633
3.81867	631
3.82233	629
3.82600	625
3.82967	623
3.83333	622
3.83700	620
3.84067	617
3.84433	615
3.84800	614
3.85167	615
3.85533	615
3.85900	615
3.86267	615
3.86633	612
3.87000	609
3.87367	606
3.87733	605
3.88100	604
3.88467	602
3.88833	604
3.89200	604
3.89567	603
3.89933	601
3.90300	599
3.90667	594
3.91033	590
3.91400	587
3.91767	585
3.92133	581
3.92500	579
3.92867	578
3.93233	576
3.93600	574
3.93967	573
3.94333	575
3.94700	574
3.95067	572
3.95433	569
3.95800	567
3.96167	566
3.96533	566
3.96900	565
3.97267	563
3.97633	560
3.98000	556
3.98367	554
3.98733	552
3.99100	552
3.99467	550
3.99833	546

[Status Trace (Column Oven Temperature)]
Interval(msec)	1000
# of Points	240
Start Time(min)	0.016
End Time(min)	4.000
Intensity Units	
Intensity Multiplier	1
R.Time (min)	Intensity
0.01620	35.07
0.03287	35.07
0.04953	35.07
0.06620	35.06
0.08287	35.07
0.09953	35.06
0.11620	35.07
0.13287	35.07
0.14953	35.06
0.16620	35.04
0.18287	35.04
0.19953	35.03
0.21620	35.03
0.23287	35.03
0.24953	35.05
0.26620	35.05
0.28287	35.05
0.29953	35.03
0.31620	35.02
0.33287	35.01
0.34953	35.02
0.36620	35.02
0.38287	35.03
0.39953	35.02
0.41620	35.02
0.43287	35.01
0.44953	35.01
0.46620	35.01
0.48287	35.01
0.49953	35.01
0.51620	35.02
0.53287	35.03
0.54953	35.03
0.56620	35.04
0.58287	35.04
0.59953	35.04
0.61620	35.03
0.63287	35.02
0.64953	35.01
0.66620	35.00
0.68287	34.99
0.69953	34.98
0.71620	34.99
0.73287	34.99
0.74953	34.99
0.76620	35.00
0.78287	35.01
0.79953	35.00
0.81620	35.01
0.83287	35.01
0.84953	34.99
0.86620	34.98
0.88287	34.97
0.89953	34.97
0.91620	34.97
0.93287	34.98
0.94953	34.98
0.96620	34.98
0.98287	34.97
0.99953	34.97
1.01620	34.97
1.03287	34.98
1.04953	34.98
1.06620	34.98
1.08287	34.96
1.09953	34.97
1.11620	34.98
1.13287	34.98
1.14953	34.99
1.16620	35.00
1.18287	35.02
1.19953	35.02
1.21620	35.02
1.23287	35.03
1.24953	35.03
1.26620	35.03
1.28287	35.03
1.29953	35.03
1.31620	35.02
1.33287	35.01
1.34953	35.01
1.36620	35.01
1.38287	35.01
1.39953	35.01
1.41620	35.01
1.43287	35.02
1.44953	35.00
1.46620	35.00
1.48287	35.00
1.49953	35.01
1.51620	35.00
1.53287	34.99
1.54953	34.99
1.56620	34.98
1.58287	34.99
1.59953	35.02
1.61620	35.12
1.63287	35.27
1.64953	35.48
1.66620	35.76
1.68287	36.14
1.69953	36.50
1.71620	36.84
1.73287	37.19
1.74953	37.51
1.76620	37.83
1.78287	38.18
1.79953	38.50
1.81620	38.80
1.83287	39.15
1.84953	39.47
1.86620	39.81
1.88287	40.14
1.89953	40.46
1.91620	40.78
1.93287	41.11
1.94953	41.45
1.96620	41.78
1.98287	42.09
1.99953	42.43
2.01620	42.74
2.03287	43.06
2.04953	43.40
2.06620	43.73
2.08287	44.06
2.09953	44.39
2.11620	44.72
2.13287	45.06
2.14953	45.39
2.16620	45.72
2.18287	46.06
2.19953	46.37
2.21620	46.70
2.23287	47.03
2.24953	47.34
2.26620	47.68
2.28287	47.99
2.29953	48.32
2.31620	48.65
2.33287	48.99
2.34953	49.30
2.36620	49.53
2.38287	49.64
2.39953	49.65
2.41620	49.65
2.43287	49.66
2.44953	49.67
2.46620	49.67
2.48287	49.68
2.49953	49.69
2.51620	49.69
2.53287	49.71
2.54953	49.73
2.56620	49.74
2.58287	49.76
2.59953	49.76
2.61620	49.80
2.63287	49.81
2.64953	49.81
2.66620	49.81
2.68287	49.82
2.69953	49.83
2.71620	49.85
2.73287	49.86
2.74953	49.85
2.76620	49.85
2.78287	49.88
2.79953	49.89
2.81620	49.89
2.83287	49.90
2.84953	49.90
2.86620	49.89
2.88287	49.89
2.89953	49.89
2.91620	49.90
2.93287	49.90
2.94953	49.93
2.96620	49.94
2.98287	49.96
2.99953	49.97
3.01620	49.98
3.03287	50.00
3.04953	50.01
3.06620	50.02
3.08287	50.02
3.09953	50.02
3.11620	50.04
3.13287	50.05
3.14953	50.05
3.16620	50.05
3.18287	50.06
3.19953	50.07
3.21620	50.08
3.23287	50.08
3.24953	50.08
3.26620	50.08
3.28287	50.09
3.29953	50.10
3.31620	50.10
3.33287	50.10
3.34953	50.09
3.36620	50.09
3.38287	50.08
3.39953	50.07
3.41620	50.06
3.43287	50.06
3.44953	50.05
3.46620	50.04
3.48287	50.03
3.49953	50.03
3.51620	50.02
3.53287	50.03
3.54953	50.02
3.56620	50.03
3.58287	50.03
3.59953	50.03
3.61620	50.04
3.63287	50.05
3.64953	50.05
3.66620	50.06
3.68287	50.06
3.69953	50.06
3.71620	50.06
3.73287	50.06
3.74953	50.06
3.76620	50.05
3.78287	50.05
3.79953	50.04
3.81620	50.03
3.83287	50.03
3.84953	50.03
3.86620	50.03
3.88287	50.04
3.89953	50.06
3.91620	50.08
3.93287	50.08
3.94953	50.08
3.96620	50.08
3.98287	50.07
3.99953	50.06

[Status Trace (Injection Unit Temperature)]
Interval(msec)	1000
# of Points	240
Start Time(min)	0.016
End Time(min)	4.000
Intensity Units	
Intensity Multiplier	1
R.Time (min)	Intensity
0.01620	99.98
0.03287	99.98
0.04953	99.98
0.06620	99.98
0.08287	99.98
0.09953	99.98
0.11620	99.98
0.13287	99.98
0.14953	99.98
0.16620	99.98
0.18287	99.98
0.19953	99.98
0.21620	99.98
0.23287	99.98
0.24953	99.98
0.26620	99.98
0.28287	99.98
0.29953	99.98
0.31620	99.98
0.33287	99.98
0.34953	99.98
0.36620	99.98
0.38287	99.98
0.39953	99.98
0.41620	99.98
0.43287	99.98
0.44953	99.98
0.46620	99.98
0.48287	99.98
0.49953	99.98
0.51620	99.98
0.53287	99.98
0.54953	99.98
0.56620	99.98
0.58287	99.98
0.59953	99.98
0.61620	99.98
0.63287	99.98
0.64953	99.98
0.66620	99.98
0.68287	99.98
0.69953	99.98
0.71620	99.98
0.73287	99.98
0.74953	99.98
0.76620	99.98
0.78287	99.98
0.79953	99.98
0.81620	99.98
0.83287	99.98
0.84953	99.98
0.86620	99.98
0.88287	99.98
0.89953	99.98
0.91620	99.98
0.93287	99.98
0.94953	99.98
0.96620	99.98
0.98287	99.98
0.99953	99.99
1.01620	99.98
1.03287	99.98
1.04953	99.98
1.06620	99.98
1.08287	99.98
1.09953	99.98
1.11620	99.99
1.13287	99.98
1.14953	99.98
1.16620	99.99
1.18287	99.98
1.19953	99.98
1.21620	99.98
1.23287	99.98
1.24953	99.98
1.26620	99.98
1.28287	99.98
1.29953	99.98
1.31620	99.98
1.33287	99.99
1.34953	99.99
1.36620	99.99
1.38287	99.99
1.39953	99.98
1.41620	99.99
1.43287	99.99
1.44953	99.99
1.46620	99.99
1.48287	99.99
1.49953	99.99
1.51620	99.99
1.53287	99.99
1.54953	99.99
1.56620	99.99
1.58287	99.99
1.59953	99.99
1.61620	99.99
1.63287	99.99
1.64953	99.99
1.66620	99.99
1.68287	99.99
1.69953	99.99
1.71620	99.99
1.73287	99.99
1.74953	99.99
1.76620	99.99
1.78287	99.99
1.79953	99.98
1.81620	99.98
1.83287	99.98
1.84953	99.98
1.86620	99.98
1.88287	99.98
1.89953	99.98
1.91620	99.98
1.93287	99.98
1.94953	99.98
1.96620	99.98
1.98287	99.97
1.99953	99.97
2.01620	99.97
2.03287	99.97
2.04953	99.97
2.06620	99.97
2.08287	99.97
2.09953	99.97
2.11620	99.97
2.13287	99.97
2.14953	99.97
2.16620	99.97
2.18287	99.97
2.19953	99.97
2.21620	99.97
2.23287	99.97
2.24953	99.96
2.26620	99.96
2.28287	99.96
2.29953	99.97
2.31620	99.97
2.33287	99.96
2.34953	99.96
2.36620	99.96
2.38287	99.97
2.39953	99.96
2.41620	99.96
2.43287	99.96
2.44953	99.96
2.46620	99.97
2.48287	99.97
2.49953	99.96
2.51620	99.97
2.53287	99.97
2.54953	99.97
2.56620	99.97
2.58287	99.97
2.59953	99.97
2.61620	99.98
2.63287	99.98
2.64953	99.98
2.66620	99.98
2.68287	99.98
2.69953	99.98
2.71620	99.99
2.73287	99.98
2.74953	99.99
2.76620	99.99
2.78287	99.99
2.79953	100.00
2.81620	100.00
2.83287	100.00
2.84953	100.00
2.86620	100.00
2.88287	100.00
2.89953	100.01
2.91620	100.00
2.93287	100.01
2.94953	100.01
2.96620	100.01
2.98287	100.01
2.99953	100.01
3.01620	100.01
3.03287	100.01
3.04953	100.01
3.06620	100.02
3.08287	100.01
3.09953	100.01
3.11620	100.02
3.13287	100.02
3.14953	100.02
3.16620	100.02
3.18287	100.02
3.19953	100.02
3.21620	100.02
3.23287	100.02
3.24953	100.02
3.26620	100.02
3.28287	100.03
3.29953	100.03
3.31620	100.03
3.33287	100.03
3.34953	100.03
3.36620	100.03
3.38287	100.03
3.39953	100.03
3.41620	100.03
3.43287	100.03
3.44953	100.03
3.46620	100.03
3.48287	100.03
3.49953	100.03
3.51620	100.04
3.53287	100.03
3.54953	100.03
3.56620	100.03
3.58287	100.03
3.59953	100.03
3.61620	100.03
3.63287	100.03
3.64953	100.03
3.66620	100.03
3.68287	100.03
3.69953	100.03
3.71620	100.03
3.73287	100.03
3.74953	100.03
3.76620	100.03
3.78287	100.03
3.79953	100.03
3.81620	100.03
3.83287	100.03
3.84953	100.03
3.86620	100.03
3.88287	100.03
3.89953	100.03
3.91620	100.03
3.93287	100.04
3.94953	100.03
3.96620	100.04
3.98287	100.03
3.99953	100.03

[Status Trace (Carrier Gas Pressure)]
Interval(msec)	1000
# of Points	240
Start Time(min)	0.016
End Time(min)	4.000
Intensity Units	
Intensity Multiplier	1
R.Time (min)	Intensity
0.01620	56.83
0.03287	55.81
0.04953	58.21
0.06620	59.90
0.08287	58.53
0.09953	57.97
0.11620	58.00
0.13287	58.01
0.14953	58.01
0.16620	58.00
0.18287	58.00
0.19953	58.00
0.21620	58.00
0.23287	58.00
0.24953	58.00
0.26620	58.00
0.28287	58.00
0.29953	58.00
0.31620	58.00
0.33287	58.00
0.34953	58.00
0.36620	58.00
0.38287	58.00
0.39953	58.00
0.41620	58.00
0.43287	58.00
0.44953	58.00
0.46620	58.00
0.48287	58.00
0.49953	58.00
0.51620	58.00
0.53287	58.00
0.54953	58.00
0.56620	58.00
0.58287	58.00
0.59953	58.00
0.61620	58.00
0.63287	58.00
0.64953	58.00
0.66620	58.00
0.68287	58.00
0.69953	58.00
0.71620	58.00
0.73287	58.00
0.74953	58.00
0.76620	58.00
0.78287	58.00
0.79953	58.00
0.81620	58.00
0.83287	58.00
0.84953	58.00
0.86620	58.00
0.88287	58.00
0.89953	58.00
0.91620	58.00
0.93287	58.00
0.94953	58.00
0.96620	58.00
0.98287	58.00
0.99953	58.00
1.01620	58.00
1.03287	58.00
1.04953	58.00
1.06620	58.00
1.08287	58.00
1.09953	58.00
1.11620	58.00
1.13287	58.00
1.14953	58.00
1.16620	58.00
1.18287	58.00
1.19953	58.00
1.21620	58.00
1.23287	58.00
1.24953	58.00
1.26620	58.00
1.28287	58.00
1.29953	58.00
1.31620	58.00
1.33287	58.00
1.34953	58.00
1.36620	58.00
1.38287	58.00
1.39953	58.00
1.41620	58.00
1.43287	58.00
1.44953	58.00
1.46620	58.00
1.48287	58.00
1.49953	58.00
1.51620	58.00
1.53287	58.00
1.54953	58.00
1.56620	58.00
1.58287	58.00
1.59953	58.00
1.61620	58.00
1.63287	58.00
1.64953	58.00
1.66620	58.00
1.68287	58.01
1.69953	58.00
1.71620	58.00
1.73287	58.00
1.74953	58.00
1.76620	58.00
1.78287	58.00
1.79953	58.00
1.81620	58.00
1.83287	58.00
1.84953	58.00
1.86620	58.00
1.88287	58.00
1.89953	58.00
1.91620	58.00
1.93287	58.00
1.94953	58.00
1.96620	58.00
1.98287	58.00
1.99953	58.00
2.01620	58.00
2.03287	58.00
2.04953	58.00
2.06620	58.00
2.08287	58.00
2.09953	58.00
2.11620	58.00
2.13287	58.00
2.14953	58.00
2.16620	58.00
2.18287	58.00
2.19953	58.00
2.21620	58.00
2.23287	58.00
2.24953	58.00
2.26620	58.00
2.28287	58.00
2.29953	58.00
2.31620	58.00
2.33287	58.00
2.34953	58.00
2.36620	58.00
2.38287	57.99
2.39953	57.99
2.41620	58.00
2.43287	58.00
2.44953	58.00
2.46620	58.00
2.48287	58.00
2.49953	58.00
2.51620	57.99
2.53287	57.99
2.54953	58.00
2.56620	58.00
2.58287	58.00
2.59953	58.00
2.61620	58.00
2.63287	58.00
2.64953	58.00
2.66620	58.00
2.68287	58.00
2.69953	58.00
2.71620	58.00
2.73287	58.00
2.74953	58.00
2.76620	58.00
2.78287	58.00
2.79953	58.00
2.81620	58.00
2.83287	58.00
2.84953	58.00
2.86620	58.00
2.88287	58.00
2.89953	58.00
2.91620	58.00
2.93287	58.00
2.94953	58.00
2.96620	58.00
2.98287	58.00
2.99953	58.00
3.01620	58.00
3.03287	58.00
3.04953	58.00
3.06620	58.00
3.08287	58.00
3.09953	58.00
3.11620	58.00
3.13287	58.00
3.14953	58.00
3.16620	58.00
3.18287	58.00
3.19953	58.00
3.21620	58.00
3.23287	58.00
3.24953	58.00
3.26620	58.00
3.28287	58.00
3.29953	58.00
3.31620	58.00
3.33287	58.00
3.34953	58.00
3.36620	58.00
3.38287	58.00
3.39953	58.00
3.41620	58.00
3.43287	58.00
3.44953	58.00
3.46620	58.00
3.48287	58.00
3.49953	58.00
3.51620	58.00
3.53287	58.00
3.54953	58.00
3.56620	58.00
3.58287	58.00
3.59953	58.00
3.61620	58.00
3.63287	58.00
3.64953	58.00
3.66620	58.00
3.68287	58.00
3.69953	58.00
3.71620	58.00
3.73287	58.00
3.74953	58.00
3.76620	58.00
3.78287	58.00
3.79953	58.00
3.81620	58.00
3.83287	58.00
3.84953	58.00
3.86620	58.00
3.88287	58.00
3.89953	58.00
3.91620	58.00
3.93287	58.00
3.94953	58.00
3.96620	58.00
3.98287	58.00
3.99953	58.00

[Status Trace (Carrier Gas Flow)]
Interval(msec)	1000
# of Points	240
Start Time(min)	0.016
End Time(min)	4.000
Intensity Units	
Intensity Multiplier	1
R.Time (min)	Intensity
0.01620	33.77
0.03287	34.54
0.04953	34.55
0.06620	34.50
0.08287	34.50
0.09953	34.52
0.11620	34.52
0.13287	34.52
0.14953	34.51
0.16620	34.51
0.18287	34.51
0.19953	34.52
0.21620	34.51
0.23287	34.52
0.24953	34.52
0.26620	34.52
0.28287	34.52
0.29953	34.52
0.31620	34.52
0.33287	34.52
0.34953	34.52
0.36620	34.51
0.38287	34.52
0.39953	34.52
0.41620	34.52
0.43287	34.52
0.44953	34.52
0.46620	34.52
0.48287	34.51
0.49953	34.52
0.51620	34.51
0.53287	34.52
0.54953	34.51
0.56620	34.51
0.58287	34.53
0.59953	34.51
0.61620	34.52
0.63287	34.52
0.64953	34.52
0.66620	34.52
0.68287	34.52
0.69953	34.52
0.71620	34.52
0.73287	34.51
0.74953	34.52
0.76620	34.52
0.78287	34.52
0.79953	34.52
0.81620	34.52
0.83287	34.53
0.84953	34.52
0.86620	34.52
0.88287	34.52
0.89953	34.52
0.91620	34.52
0.93287	34.52
0.94953	34.52
0.96620	34.52
0.98287	34.52
0.99953	34.52
1.01620	34.52
1.03287	34.52
1.04953	34.52
1.06620	34.52
1.08287	34.52
1.09953	34.53
1.11620	34.52
1.13287	34.52
1.14953	34.52
1.16620	34.52
1.18287	34.52
1.19953	34.52
1.21620	34.51
1.23287	34.52
1.24953	34.52
1.26620	34.52
1.28287	34.52
1.29953	34.52
1.31620	34.52
1.33287	34.52
1.34953	34.52
1.36620	34.51
1.38287	34.52
1.39953	34.52
1.41620	34.51
1.43287	34.52
1.44953	34.52
1.46620	34.52
1.48287	34.52
1.49953	34.52
1.51620	34.52
1.53287	34.52
1.54953	34.52
1.56620	34.52
1.58287	34.52
1.59953	34.52
1.61620	34.52
1.63287	34.52
1.64953	34.52
1.66620	34.52
1.68287	34.52
1.69953	34.52
1.71620	34.53
1.73287	34.52
1.74953	34.52
1.76620	34.52
1.78287	34.52
1.79953	34.52
1.81620	34.52
1.83287	34.52
1.84953	34.52
1.86620	34.52
1.88287	34.52
1.89953	34.52
1.91620	34.52
1.93287	34.51
1.94953	34.52
1.96620	34.52
1.98287	34.52
1.99953	34.52
2.01620	34.52
2.03287	34.52
2.04953	34.52
2.06620	34.52
2.08287	34.52
2.09953	34.52
2.11620	34.52
2.13287	34.52
2.14953	34.52
2.16620	34.52
2.18287	34.52
2.19953	34.52
2.21620	34.51
2.23287	34.52
2.24953	34.52
2.26620	34.52
2.28287	34.52
2.29953	34.52
2.31620	34.52
2.33287	34.52
2.34953	34.52
2.36620	34.52
2.38287	34.52
2.39953	34.52
2.41620	34.52
2.43287	34.52
2.44953	34.52
2.46620	34.52
2.48287	34.53
2.49953	34.53
2.51620	34.52
2.53287	34.52
2.54953	34.52
2.56620	34.52
2.58287	34.52
2.59953	34.52
2.61620	34.52
2.63287	34.52
2.64953	34.52
2.66620	34.51
2.68287	34.52
2.69953	34.52
2.71620	34.51
2.73287	34.52
2.74953	34.52
2.76620	34.52
2.78287	34.52
2.79953	34.51
2.81620	34.52
2.83287	34.52
2.84953	34.51
2.86620	34.52
2.88287	34.52
2.89953	34.52
2.91620	34.51
2.93287	34.52
2.94953	34.52
2.96620	34.52
2.98287	34.52
2.99953	34.52
3.01620	34.52
3.03287	34.52
3.04953	34.52
3.06620	34.52
3.08287	34.52
3.09953	34.52
3.11620	34.52
3.13287	34.52
3.14953	34.52
3.16620	34.52
3.18287	34.52
3.19953	34.52
3.21620	34.52
3.23287	34.52
3.24953	34.51
3.26620	34.52
3.28287	34.52
3.29953	34.52
3.31620	34.52
3.33287	34.52
3.34953	34.51
3.36620	34.52
3.38287	34.51
3.39953	34.52
3.41620	34.52
3.43287	34.52
3.44953	34.51
3.46620	34.52
3.48287	34.52
3.49953	34.52
3.51620	34.52
3.53287	34.52
3.54953	34.52
3.56620	34.52
3.58287	34.52
3.59953	34.52
3.61620	34.52
3.63287	34.51
3.64953	34.51
3.66620	34.52
3.68287	34.52
3.69953	34.51
3.71620	34.52
3.73287	34.51
3.74953	34.52
3.76620	34.52
3.78287	34.51
3.79953	34.52
3.81620	34.51
3.83287	34.52
3.84953	34.52
3.86620	34.52
3.88287	34.52
3.89953	34.53
3.91620	34.52
3.93287	34.53
3.94953	34.52
3.96620	34.52
3.98287	34.51
3.99953	34.51

[Status Trace (Column Flow)]
Interval(msec)	1000
# of Points	240
Start Time(min)	0.016
End Time(min)	4.000
Intensity Units	
Intensity Multiplier	1
R.Time (min)	Intensity
0.01620	5.41
0.03287	5.30
0.04953	5.57
0.06620	5.77
0.08287	5.61
0.09953	5.55
0.11620	5.55
0.13287	5.55
0.14953	5.55
0.16620	5.55
0.18287	5.55
0.19953	5.55
0.21620	5.55
0.23287	5.55
0.24953	5.55
0.26620	5.55
0.28287	5.55
0.29953	5.55
0.31620	5.55
0.33287	5.55
0.34953	5.55
0.36620	5.55
0.38287	5.55
0.39953	5.55
0.41620	5.55
0.43287	5.55
0.44953	5.55
0.46620	5.55
0.48287	5.55
0.49953	5.55
0.51620	5.55
0.53287	5.55
0.54953	5.55
0.56620	5.55
0.58287	5.55
0.59953	5.55
0.61620	5.55
0.63287	5.55
0.64953	5.55
0.66620	5.55
0.68287	5.55
0.69953	5.55
0.71620	5.55
0.73287	5.55
0.74953	5.55
0.76620	5.55
0.78287	5.55
0.79953	5.55
0.81620	5.55
0.83287	5.55
0.84953	5.55
0.86620	5.55
0.88287	5.55
0.89953	5.55
0.91620	5.55
0.93287	5.55
0.94953	5.55
0.96620	5.55
0.98287	5.55
0.99953	5.55
1.01620	5.55
1.03287	5.55
1.04953	5.55
1.06620	5.55
1.08287	5.55
1.09953	5.55
1.11620	5.55
1.13287	5.55
1.14953	5.55
1.16620	5.55
1.18287	5.55
1.19953	5.55
1.21620	5.55
1.23287	5.55
1.24953	5.55
1.26620	5.55
1.28287	5.55
1.29953	5.55
1.31620	5.55
1.33287	5.55
1.34953	5.55
1.36620	5.55
1.38287	5.55
1.39953	5.55
1.41620	5.55
1.43287	5.55
1.44953	5.55
1.46620	5.55
1.48287	5.55
1.49953	5.55
1.51620	5.55
1.53287	5.55
1.54953	5.55
1.56620	5.55
1.58287	5.55
1.59953	5.55
1.61620	5.55
1.63287	5.54
1.64953	5.54
1.66620	5.53
1.68287	5.52
1.69953	5.51
1.71620	5.49
1.73287	5.48
1.74953	5.47
1.76620	5.46
1.78287	5.45
1.79953	5.44
1.81620	5.43
1.83287	5.42
1.84953	5.41
1.86620	5.40
1.88287	5.39
1.89953	5.38
1.91620	5.37
1.93287	5.36
1.94953	5.35
1.96620	5.34
1.98287	5.33
1.99953	5.32
2.01620	5.32
2.03287	5.31
2.04953	5.30
2.06620	5.29
2.08287	5.28
2.09953	5.27
2.11620	5.26
2.13287	5.25
2.14953	5.24
2.16620	5.23
2.18287	5.22
2.19953	5.21
2.21620	5.20
2.23287	5.19
2.24953	5.18
2.26620	5.17
2.28287	5.16
2.29953	5.15
2.31620	5.14
2.33287	5.13
2.34953	5.13
2.36620	5.12
2.38287	5.12
2.39953	5.12
2.41620	5.12
2.43287	5.12
2.44953	5.12
2.46620	5.12
2.48287	5.12
2.49953	5.11
2.51620	5.11
2.53287	5.11
2.54953	5.11
2.56620	5.11
2.58287	5.11
2.59953	5.11
2.61620	5.11
2.63287	5.11
2.64953	5.11
2.66620	5.11
2.68287	5.11
2.69953	5.11
2.71620	5.11
2.73287	5.11
2.74953	5.11
2.76620	5.11
2.78287	5.11
2.79953	5.11
2.81620	5.11
2.83287	5.11
2.84953	5.11
2.86620	5.11
2.88287	5.11
2.89953	5.11
2.91620	5.11
2.93287	5.11
2.94953	5.11
2.96620	5.11
2.98287	5.11
2.99953	5.11
3.01620	5.11
3.03287	5.11
3.04953	5.11
3.06620	5.11
3.08287	5.11
3.09953	5.11
3.11620	5.11
3.13287	5.10
3.14953	5.10
3.16620	5.10
3.18287	5.10
3.19953	5.10
3.21620	5.10
3.23287	5.10
3.24953	5.10
3.26620	5.10
3.28287	5.10
3.29953	5.10
3.31620	5.10
3.33287	5.10
3.34953	5.10
3.36620	5.10
3.38287	5.10
3.39953	5.10
3.41620	5.11
3.43287	5.11
3.44953	5.11
3.46620	5.11
3.48287	5.11
3.49953	5.11
3.51620	5.11
3.53287	5.11
3.54953	5.11
3.56620	5.11
3.58287	5.11
3.59953	5.11
3.61620	5.11
3.63287	5.11
3.64953	5.11
3.66620	5.11
3.68287	5.11
3.69953	5.10
3.71620	5.11
3.73287	5.11
3.74953	5.11
3.76620	5.11
3.78287	5.11
3.79953	5.11
3.81620	5.11
3.83287	5.11
3.84953	5.11
3.86620	5.11
3.88287	5.11
3.89953	5.10
3.91620	5.10
3.93287	5.10
3.94953	5.10
3.96620	5.10
3.98287	5.10
3.99953	5.11

[Status Trace (Linear Velocity)]
Interval(msec)	1000
# of Points	240
Start Time(min)	0.016
End Time(min)	4.000
Intensity Units	
Intensity Multiplier	1
R.Time (min)	Intensity
0.01620	38.25
0.03287	37.58
0.04953	39.15
0.06620	40.26
0.08287	39.36
0.09953	39.00
0.11620	39.02
0.13287	39.02
0.14953	39.02
0.16620	39.02
0.18287	39.02
0.19953	39.02
0.21620	39.02
0.23287	39.02
0.24953	39.02
0.26620	39.02
0.28287	39.02
0.29953	39.02
0.31620	39.02
0.33287	39.02
0.34953	39.02
0.36620	39.02
0.38287	39.02
0.39953	39.02
0.41620	39.02
0.43287	39.02
0.44953	39.02
0.46620	39.02
0.48287	39.02
0.49953	39.02
0.51620	39.02
0.53287	39.02
0.54953	39.02
0.56620	39.02
0.58287	39.02
0.59953	39.02
0.61620	39.02
0.63287	39.02
0.64953	39.02
0.66620	39.02
0.68287	39.03
0.69953	39.03
0.71620	39.03
0.73287	39.03
0.74953	39.02
0.76620	39.02
0.78287	39.02
0.79953	39.02
0.81620	39.02
0.83287	39.02
0.84953	39.02
0.86620	39.03
0.88287	39.03
0.89953	39.03
0.91620	39.03
0.93287	39.03
0.94953	39.03
0.96620	39.03
0.98287	39.03
0.99953	39.03
1.01620	39.03
1.03287	39.03
1.04953	39.03
1.06620	39.03
1.08287	39.03
1.09953	39.03
1.11620	39.03
1.13287	39.03
1.14953	39.02
1.16620	39.02
1.18287	39.02
1.19953	39.02
1.21620	39.02
1.23287	39.02
1.24953	39.02
1.26620	39.02
1.28287	39.02
1.29953	39.02
1.31620	39.02
1.33287	39.02
1.34953	39.02
1.36620	39.02
1.38287	39.02
1.39953	39.02
1.41620	39.02
1.43287	39.02
1.44953	39.02
1.46620	39.02
1.48287	39.02
1.49953	39.02
1.51620	39.02
1.53287	39.02
1.54953	39.02
1.56620	39.03
1.58287	39.02
1.59953	39.02
1.61620	39.01
1.63287	39.00
1.64953	38.98
1.66620	38.95
1.68287	38.92
1.69953	38.88
1.71620	38.85
1.73287	38.82
1.74953	38.78
1.76620	38.75
1.78287	38.72
1.79953	38.69
1.81620	38.66
1.83287	38.63
1.84953	38.60
1.86620	38.57
1.88287	38.54
1.89953	38.51
1.91620	38.48
1.93287	38.45
1.94953	38.41
1.96620	38.38
1.98287	38.35
1.99953	38.32
2.01620	38.29
2.03287	38.26
2.04953	38.23
2.06620	38.20
2.08287	38.17
2.09953	38.14
2.11620	38.11
2.13287	38.08
2.14953	38.05
2.16620	38.02
2.18287	37.99
2.19953	37.96
2.21620	37.93
2.23287	37.90
2.24953	37.88
2.26620	37.85
2.28287	37.82
2.29953	37.79
2.31620	37.76
2.33287	37.73
2.34953	37.70
2.36620	37.68
2.38287	37.67
2.39953	37.67
2.41620	37.67
2.43287	37.67
2.44953	37.67
2.46620	37.67
2.48287	37.67
2.49953	37.67
2.51620	37.66
2.53287	37.66
2.54953	37.66
2.56620	37.66
2.58287	37.66
2.59953	37.66
2.61620	37.66
2.63287	37.66
2.64953	37.66
2.66620	37.66
2.68287	37.66
2.69953	37.65
2.71620	37.65
2.73287	37.65
2.74953	37.65
2.76620	37.65
2.78287	37.65
2.79953	37.65
2.81620	37.65
2.83287	37.65
2.84953	37.65
2.86620	37.65
2.88287	37.65
2.89953	37.65
2.91620	37.65
2.93287	37.65
2.94953	37.65
2.96620	37.64
2.98287	37.64
2.99953	37.64
3.01620	37.64
3.03287	37.64
3.04953	37.64
3.06620	37.64
3.08287	37.64
3.09953	37.64
3.11620	37.64
3.13287	37.64
3.14953	37.64
3.16620	37.63
3.18287	37.63
3.19953	37.63
3.21620	37.63
3.23287	37.63
3.24953	37.63
3.26620	37.63
3.28287	37.63
3.29953	37.63
3.31620	37.63
3.33287	37.63
3.34953	37.63
3.36620	37.63
3.38287	37.63
3.39953	37.63
3.41620	37.63
3.43287	37.63
3.44953	37.63
3.46620	37.64
3.48287	37.64
3.49953	37.64
3.51620	37.64
3.53287	37.64
3.54953	37.64
3.56620	37.64
3.58287	37.64
3.59953	37.64
3.61620	37.64
3.63287	37.64
3.64953	37.63
3.66620	37.63
3.68287	37.63
3.69953	37.63
3.71620	37.63
3.73287	37.63
3.74953	37.63
3.76620	37.63
3.78287	37.63
3.79953	37.64
3.81620	37.64
3.83287	37.64
3.84953	37.64
3.86620	37.64
3.88287	37.64
3.89953	37.63
3.91620	37.63
3.93287	37.63
3.94953	37.63
3.96620	37.63
3.98287	37.63
3.99953	37.63

