[Header]
Application Name	LabSolutions
Version	5.110
Data File Name	C:\Users\User\Desktop\GC Analyses\Jack\Nachusa Grasslands Sampling\T4 Timepoint July 12th\T4_07122022_056.gcd
Output Date	3/17/2023
Output Time	12:04:54 PM

[File Information]
Type	Data File
Generated	3/14/2023 9:37:50 PM
Generated by	System Administrator
Modified	3/14/2023 9:44:23 PM
Modified by	System Administrator

[Sample Information]
Operator Name	System Administrator
Acquired	3/14/2023 9:40:22 PM
Sample Type	0:Unknown
Level	0
Sample Name	056
Sample ID	056
ISTD Amount1	1
ISTD Amount2	1
ISTD Amount3	1
ISTD Amount4	1
ISTD Amount5	1
ISTD Amount6	1
ISTD Amount7	1
ISTD Amount8	1
ISTD Amount9	1
ISTD Amount10	1
ISTD Amount11	1
ISTD Amount12	1
ISTD Amount13	1
ISTD Amount14	1
ISTD Amount15	1
ISTD Amount16	1
ISTD Amount17	1
ISTD Amount18	1
ISTD Amount19	1
ISTD Amount20	1
ISTD Amount21	1
ISTD Amount22	1
ISTD Amount23	1
ISTD Amount24	1
ISTD Amount25	1
ISTD Amount26	1
ISTD Amount27	1
ISTD Amount28	1
ISTD Amount29	1
ISTD Amount30	1
ISTD Amount31	1
ISTD Amount32	1
Sample Amount	1
Dilution Factor	1
Vial#	55
Injection Volume	1
Injection Count	1
Bar Code	

[Original Files]
Data File	C:\Users\User\Desktop\GC Analyses\Jack\Nachusa Grasslands Sampling\T4 Timepoint July 12th\T4_07122022_056.gcd
Method File	C:\LabSolutions\Data\GHG_4min_2022\ghg3_togas_w_acet_4 min_new_int.gcm
Batch File	C:\LabSolutions\Data\AutoSamplerTesting\T4_07122022.gcb
Report Format File	c:\LabSolutions\System\DEFAULT.lsr

[File Description]


[Configuration]
Instrument Name	C0B7VH3-Instrument1
Instrument #	1
Line #	1
# of Detectors	3
Detector ID	DET#1	DET#2	DET#3
Detector Name	FID	PTCD	ECD
# of Channels	1	1	1

[Peak Table(Ch1)]
# of Peaks	3
Peak#	R.Time	I.Time	F.Time	Area	Height	A/H	Conc.	Mark	ID#	Name	k'	Plate #	Plate Ht.	Tailing	Resolution	Sep.Factor	Area Ratio	Height Ratio	Conc. %	Norm Conc.
1	1.476	1.428	1.538	22173	10864	2.041	156.540	   	1	CO	0.000	9614	15.602	1.288	0.000	0.000	0	0	13.247	13.247
2	1.571	1.538	1.644	4230	2095	2.019	81.789	 V 	2	CH4	0.065	11539	13.000	1.225	1.606	0.000	0	0	6.921	6.921
3	1.996	1.952	2.440	3758948	1799094	2.089	943.394	   	3	CO2	0.353	17269	8.686	1.328	7.132	5.462	0	0	79.832	79.832

[Peak Table(Ch2)]
# of Peaks	0

[Peak Table(Ch3)]
# of Peaks	5
Peak#	R.Time	I.Time	F.Time	Area	Height	A/H	Conc.	Mark	ID#	Name	k'	Plate #	Plate Ht.	Tailing	Resolution	Sep.Factor	Area Ratio	Height Ratio	Conc. %	Norm Conc.
1	2.462	2.213	2.510	3050	739	4.128	0.000	   			0.000	8645	17.351	0.000	0.000	0.000	0	0	0.000	0.000
2	2.532	2.510	2.583	1378	437	3.155	0.000	 V 			0.028	5097	29.432	0.000	0.562	0.000	0	0	0.000	0.000
3	2.601	2.583	2.686	788	222	3.552	0.000	 V 			0.057	2028	73.959	0.000	0.374	2.000	0	0	0.000	0.000
4	2.880	2.697	3.115	18424	4679	3.938	0.471	   	1	N2O	0.170	13010	11.530	1.501	1.678	3.000	0	0	100.000	100.000
5	3.408	3.258	3.995	15397	630	24.444	0.000	   	2	SF6	0.384	305	492.434	2.456	1.197	2.263	0	0	0.000	0.000

[Compound Results(Ch1)]
# of IDs	6
ID#	Name	R.Time	Area	Height	Conc.	Curve	3rd	2nd	1st	Constant	Area Ratio	Height Ratio	Conc. %	Norm Conc.
1	CO	1.476	22173	10864	156.540	Linear	0.000000e+00	0.000000e+00	1.416423e+002	0.000000e+00	0	0	13.247	13.247
2	CH4	1.571	4230	2095	81.789	Linear	0.000000e+00	0.000000e+00	5.171738e+001	0.000000e+00	0	0	6.921	6.921
3	CO2	1.996	3758948	1799094	943.394	Linear	0.000000e+00	0.000000e+00	3.984494e+003	0.000000e+00	0	0	79.832	79.832
4	Ethylene	0.000	0	0	0.000	Linear	0.000000e+00	0.000000e+00	0.000000e+00	0.000000e+00	0	0	0.000	0.000
5	Acetylene	0.000	0	0	0.000	Linear	0.000000e+00	0.000000e+00	0.000000e+00	0.000000e+00	0	0	0.000	0.000
6	Ethane	0.000	0	0	0.000	Linear	0.000000e+00	0.000000e+00	0.000000e+00	0.000000e+00	0	0	0.000	0.000

[Compound Results(Ch2)]
# of IDs	5
ID#	Name	R.Time	Area	Height	Conc.	Curve	3rd	2nd	1st	Constant	Area Ratio	Height Ratio	Conc. %	Norm Conc.
1	Hydrogen	0.000	0	0	0.000	Linear	0.000000e+00	0.000000e+00	0.000000e+00	0.000000e+00	0	0	0.000	0.000
2	Oxygen	0.000	0	0	0.000	Linear	0.000000e+00	0.000000e+00	0.000000e+00	0.000000e+00	0	0	0.000	0.000
3	Nitrogen	0.000	0	0	0.000	Linear	0.000000e+00	0.000000e+00	0.000000e+00	0.000000e+00	0	0	0.000	0.000
4	Methane	0.000	0	0	0.000	Linear	0.000000e+00	0.000000e+00	0.000000e+00	0.000000e+00	0	0	0.000	0.000
5	Carbon Monoxide	0.000	0	0	0.000	Linear	0.000000e+00	0.000000e+00	0.000000e+00	0.000000e+00	0	0	0.000	0.000

[Compound Results(Ch3)]
# of IDs	2
ID#	Name	R.Time	Area	Height	Conc.	Curve	3rd	2nd	1st	Constant	Area Ratio	Height Ratio	Conc. %	Norm Conc.
1	N2O	2.880	18424	4679	0.471	Linear	0.000000e+00	0.000000e+00	3.915173e+004	0.000000e+00	0	0	100.000	100.000
2	SF6	3.408	15397	630	0.000	Linear	0.000000e+00	0.000000e+00	0.000000e+00	0.000000e+00	0	0	0.000	0.000

[Group Results(Ch1)]
# of Groups	0

[Group Results(Ch2)]
# of Groups	0

[Group Results(Ch3)]
# of Groups	0

[Chromatogram (Ch1)]
Interval(msec)	220
# of Points	1091
Start Time(min)	0.002
End Time(min)	3.998
R.Time (min)	Intensity
0.00167	14
0.00533	13
0.00900	10
0.01267	8
0.01633	5
0.02000	-2
0.02367	-8
0.02733	-10
0.03100	-10
0.03467	-9
0.03833	-6
0.04200	-0
0.04567	6
0.04933	12
0.05300	17
0.05667	17
0.06033	10
0.06400	-0
0.06767	-5
0.07133	-2
0.07500	1
0.07867	3
0.08233	4
0.08600	6
0.08967	8
0.09333	7
0.09700	4
0.10067	-1
0.10433	-5
0.10800	-3
0.11167	1
0.11533	10
0.11900	18
0.12267	18
0.12633	18
0.13000	13
0.13367	8
0.13733	1
0.14100	-1
0.14467	-1
0.14833	0
0.15200	0
0.15567	0
0.15933	-1
0.16300	-1
0.16667	3
0.17033	5
0.17400	-0
0.17767	-5
0.18133	-9
0.18500	-10
0.18867	-5
0.19233	6
0.19600	10
0.19967	10
0.20333	12
0.20700	14
0.21067	16
0.21433	16
0.21800	16
0.22167	19
0.22533	21
0.22900	19
0.23267	16
0.23633	15
0.24000	15
0.24367	11
0.24733	5
0.25100	0
0.25467	-7
0.25833	-8
0.26200	3
0.26567	15
0.26933	18
0.27300	14
0.27667	8
0.28033	5
0.28400	2
0.28767	3
0.29133	9
0.29500	16
0.29867	20
0.30233	21
0.30600	20
0.30967	20
0.31333	22
0.31700	24
0.32067	27
0.32433	31
0.32800	36
0.33167	41
0.33533	51
0.33900	67
0.34267	80
0.34633	83
0.35000	82
0.35367	83
0.35733	87
0.36100	91
0.36467	99
0.36833	103
0.37200	98
0.37567	91
0.37933	85
0.38300	82
0.38667	82
0.39033	83
0.39400	83
0.39767	84
0.40133	89
0.40500	94
0.40867	100
0.41233	105
0.41600	103
0.41967	98
0.42333	93
0.42700	88
0.43067	84
0.43433	77
0.43800	75
0.44167	78
0.44533	83
0.44900	77
0.45267	64
0.45633	53
0.46000	47
0.46367	48
0.46733	52
0.47100	51
0.47467	46
0.47833	40
0.48200	40
0.48567	42
0.48933	42
0.49300	39
0.49667	31
0.50033	24
0.50400	19
0.50767	20
0.51133	27
0.51500	36
0.51867	39
0.52233	39
0.52600	36
0.52967	26
0.53333	12
0.53700	3
0.54067	0
0.54433	4
0.54800	10
0.55167	19
0.55533	24
0.55900	20
0.56267	13
0.56633	4
0.57000	-2
0.57367	-4
0.57733	0
0.58100	4
0.58467	3
0.58833	6
0.59200	13
0.59567	17
0.59933	18
0.60300	23
0.60667	24
0.61033	19
0.61400	14
0.61767	9
0.62133	6
0.62500	4
0.62867	2
0.63233	3
0.63600	8
0.63967	15
0.64333	18
0.64700	19
0.65067	20
0.65433	22
0.65800	24
0.66167	22
0.66533	20
0.66900	19
0.67267	14
0.67633	9
0.68000	10
0.68367	16
0.68733	24
0.69100	26
0.69467	22
0.69833	17
0.70200	13
0.70567	9
0.70933	6
0.71300	6
0.71667	3
0.72033	-3
0.72400	-8
0.72767	-13
0.73133	-15
0.73500	-15
0.73867	-14
0.74233	-14
0.74600	-10
0.74967	-4
0.75333	-6
0.75700	-14
0.76067	-20
0.76433	-26
0.76800	-31
0.77167	-35
0.77533	-36
0.77900	-36
0.78267	-32
0.78633	-24
0.79000	-20
0.79367	-21
0.79733	-19
0.80100	-17
0.80467	-13
0.80833	-8
0.81200	-4
0.81567	-1
0.81933	5
0.82300	9
0.82667	9
0.83033	13
0.83400	18
0.83767	19
0.84133	16
0.84500	7
0.84867	-4
0.85233	-9
0.85600	-9
0.85967	-8
0.86333	-10
0.86700	-13
0.87067	-14
0.87433	-12
0.87800	-10
0.88167	-6
0.88533	-2
0.88900	1
0.89267	4
0.89633	0
0.90000	-8
0.90367	-14
0.90733	-18
0.91100	-22
0.91467	-23
0.91833	-24
0.92200	-24
0.92567	-24
0.92933	-22
0.93300	-19
0.93667	-12
0.94033	-5
0.94400	-3
0.94767	-1
0.95133	-0
0.95500	-4
0.95867	-10
0.96233	-11
0.96600	-9
0.96967	-9
0.97333	-6
0.97700	1
0.98067	3
0.98433	-4
0.98800	-4
0.99167	-7
0.99533	-12
0.99900	-14
1.00267	-15
1.00633	-19
1.01000	-18
1.01367	-7
1.01733	7
1.02100	16
1.02467	18
1.02833	14
1.03200	6
1.03567	-1
1.03933	-6
1.04300	-12
1.04667	-22
1.05033	-30
1.05400	-35
1.05767	-34
1.06133	-33
1.06500	-39
1.06867	-43
1.07233	-38
1.07600	-34
1.07967	-38
1.08333	-45
1.08700	-48
1.09067	-49
1.09433	-48
1.09800	-47
1.10167	-44
1.10533	-35
1.10900	-23
1.11267	-14
1.11633	-13
1.12000	-13
1.12367	-17
1.12733	-25
1.13100	-29
1.13467	-30
1.13833	-28
1.14200	-26
1.14567	-29
1.14933	-29
1.15300	-28
1.15667	-24
1.16033	-19
1.16400	-20
1.16767	-20
1.17133	-20
1.17500	-16
1.17867	-12
1.18233	-10
1.18600	-11
1.18967	-11
1.19333	-9
1.19700	-8
1.20067	-12
1.20433	-22
1.20800	-31
1.21167	-34
1.21533	-29
1.21900	-18
1.22267	-8
1.22633	-6
1.23000	-12
1.23367	-15
1.23733	-18
1.24100	-27
1.24467	-36
1.24833	-40
1.25200	-46
1.25567	-50
1.25933	-53
1.26300	-53
1.26667	-49
1.27033	-44
1.27400	-40
1.27767	-39
1.28133	-41
1.28500	-44
1.28867	-40
1.29233	-36
1.29600	-31
1.29967	-29
1.30333	-30
1.30700	-32
1.31067	-31
1.31433	-28
1.31800	-23
1.32167	-15
1.32533	-8
1.32900	-3
1.33267	-2
1.33633	-2
1.34000	-6
1.34367	-10
1.34733	-14
1.35100	-24
1.35467	-36
1.35833	-47
1.36200	-55
1.36567	-58
1.36933	-55
1.37300	-50
1.37667	-45
1.38033	-42
1.38400	-37
1.38767	-30
1.39133	-22
1.39500	-17
1.39867	-15
1.40233	-15
1.40600	-23
1.40967	-34
1.41333	-46
1.41700	-57
1.42067	-63
1.42433	-61
1.42800	-58
1.43167	-54
1.43533	-44
1.43900	-33
1.44267	-2
1.44633	113
1.45000	446
1.45367	1310
1.45733	2926
1.46100	5034
1.46467	7138
1.46833	8898
1.47200	10155
1.47567	10804
1.47933	10740
1.48300	9938
1.48667	8548
1.49033	6868
1.49400	5203
1.49767	3762
1.50133	2626
1.50500	1783
1.50867	1180
1.51233	756
1.51600	467
1.51967	276
1.52333	149
1.52700	60
1.53067	1
1.53433	-33
1.53800	-44
1.54167	-5
1.54533	133
1.54900	404
1.55267	784
1.55633	1195
1.56000	1560
1.56367	1833
1.56733	1998
1.57100	2030
1.57467	1907
1.57833	1639
1.58200	1297
1.58567	955
1.58933	664
1.59300	444
1.59667	291
1.60033	189
1.60400	119
1.60767	72
1.61133	41
1.61500	20
1.61867	6
1.62233	-5
1.62600	-13
1.62967	-24
1.63333	-40
1.63700	-50
1.64067	-61
1.64433	-68
1.64800	-67
1.65167	-67
1.65533	-70
1.65900	-74
1.66267	-75
1.66633	-77
1.67000	-80
1.67367	-73
1.67733	-61
1.68100	-48
1.68467	-43
1.68833	-40
1.69200	-34
1.69567	-31
1.69933	-28
1.70300	-26
1.70667	-22
1.71033	-16
1.71400	-17
1.71767	-25
1.72133	-33
1.72500	-36
1.72867	-36
1.73233	-34
1.73600	-34
1.73967	-38
1.74333	-42
1.74700	-42
1.75067	-39
1.75433	-35
1.75800	-28
1.76167	-17
1.76533	-7
1.76900	-2
1.77267	-1
1.77633	-5
1.78000	-12
1.78367	-25
1.78733	-36
1.79100	-39
1.79467	-33
1.79833	-24
1.80200	-16
1.80567	-11
1.80933	-8
1.81300	-8
1.81667	-14
1.82033	-23
1.82400	-33
1.82767	-36
1.83133	-34
1.83500	-27
1.83867	-18
1.84233	-10
1.84600	-11
1.84967	-18
1.85333	-27
1.85700	-33
1.86067	-36
1.86433	-39
1.86800	-41
1.87167	-38
1.87533	-36
1.87900	-36
1.88267	-36
1.88633	-33
1.89000	-29
1.89367	-13
1.89733	-2
1.90100	-2
1.90467	-11
1.90833	-24
1.91200	-35
1.91567	-42
1.91933	-38
1.92300	-28
1.92667	-15
1.93033	-7
1.93400	-7
1.93767	-11
1.94133	-11
1.94500	-8
1.94867	-8
1.95233	5
1.95600	168
1.95967	1280
1.96333	6944
1.96700	28788
1.97067	92918
1.97433	236195
1.97800	481297
1.98167	809301
1.98533	1163131
1.98900	1476104
1.99267	1697381
1.99633	1799132
2.00000	1774783
2.00367	1637665
2.00733	1418991
2.01100	1159947
2.01467	900484
2.01833	669671
2.02200	481892
2.02567	338968
2.02933	235307
2.03300	162611
2.03667	112745
2.04033	78978
2.04400	56234
2.04767	40891
2.05133	30470
2.05500	23305
2.05867	18301
2.06233	14747
2.06600	12166
2.06967	10241
2.07333	8773
2.07700	7632
2.08067	6731
2.08433	6006
2.08800	5409
2.09167	4907
2.09533	4475
2.09900	4105
2.10267	3787
2.10633	3509
2.11000	3265
2.11367	3050
2.11733	2864
2.12100	2699
2.12467	2550
2.12833	2415
2.13200	2287
2.13567	2163
2.13933	2048
2.14300	1941
2.14667	1842
2.15033	1758
2.15400	1685
2.15767	1619
2.16133	1556
2.16500	1499
2.16867	1446
2.17233	1400
2.17600	1354
2.17967	1310
2.18333	1268
2.18700	1228
2.19067	1193
2.19433	1160
2.19800	1126
2.20167	1093
2.20533	1064
2.20900	1031
2.21267	992
2.21633	950
2.22000	911
2.22367	878
2.22733	852
2.23100	833
2.23467	814
2.23833	795
2.24200	775
2.24567	753
2.24933	731
2.25300	715
2.25667	701
2.26033	691
2.26400	683
2.26767	673
2.27133	656
2.27500	640
2.27867	629
2.28233	627
2.28600	625
2.28967	616
2.29333	606
2.29700	595
2.30067	584
2.30433	569
2.30800	548
2.31167	529
2.31533	519
2.31900	515
2.32267	510
2.32633	505
2.33000	504
2.33367	505
2.33733	509
2.34100	509
2.34467	500
2.34833	486
2.35200	469
2.35567	453
2.35933	440
2.36300	433
2.36667	427
2.37033	420
2.37400	417
2.37767	408
2.38133	396
2.38500	390
2.38867	387
2.39233	382
2.39600	382
2.39967	383
2.40333	385
2.40700	383
2.41067	380
2.41433	379
2.41800	379
2.42167	382
2.42533	386
2.42900	386
2.43267	383
2.43633	379
2.44000	371
2.44367	361
2.44733	350
2.45100	342
2.45467	337
2.45833	337
2.46200	340
2.46567	341
2.46933	332
2.47300	320
2.47667	310
2.48033	306
2.48400	311
2.48767	318
2.49133	319
2.49500	318
2.49867	314
2.50233	302
2.50600	289
2.50967	280
2.51333	276
2.51700	272
2.52067	267
2.52433	264
2.52800	265
2.53167	271
2.53533	277
2.53900	280
2.54267	281
2.54633	275
2.55000	275
2.55367	276
2.55733	270
2.56100	261
2.56467	254
2.56833	251
2.57200	246
2.57567	243
2.57933	240
2.58300	235
2.58667	230
2.59033	224
2.59400	216
2.59767	208
2.60133	204
2.60500	203
2.60867	207
2.61233	211
2.61600	211
2.61967	208
2.62333	210
2.62700	217
2.63067	227
2.63433	230
2.63800	221
2.64167	213
2.64533	211
2.64900	212
2.65267	215
2.65633	217
2.66000	212
2.66367	208
2.66733	206
2.67100	207
2.67467	205
2.67833	197
2.68200	187
2.68567	178
2.68933	173
2.69300	173
2.69667	176
2.70033	175
2.70400	175
2.70767	179
2.71133	180
2.71500	179
2.71867	180
2.72233	183
2.72600	184
2.72967	180
2.73333	174
2.73700	168
2.74067	168
2.74433	169
2.74800	171
2.75167	176
2.75533	179
2.75900	180
2.76267	184
2.76633	191
2.77000	198
2.77367	205
2.77733	209
2.78100	208
2.78467	205
2.78833	201
2.79200	198
2.79567	194
2.79933	189
2.80300	185
2.80667	181
2.81033	180
2.81400	180
2.81767	176
2.82133	177
2.82500	184
2.82867	185
2.83233	177
2.83600	165
2.83967	157
2.84333	157
2.84700	162
2.85067	167
2.85433	170
2.85800	170
2.86167	168
2.86533	167
2.86900	162
2.87267	160
2.87633	164
2.88000	167
2.88367	170
2.88733	168
2.89100	160
2.89467	146
2.89833	141
2.90200	141
2.90567	144
2.90933	152
2.91300	154
2.91667	152
2.92033	153
2.92400	157
2.92767	162
2.93133	161
2.93500	159
2.93867	158
2.94233	155
2.94600	153
2.94967	150
2.95333	147
2.95700	144
2.96067	142
2.96433	139
2.96800	136
2.97167	139
2.97533	145
2.97900	152
2.98267	157
2.98633	164
2.99000	168
2.99367	168
2.99733	168
3.00100	168
3.00467	170
3.00833	171
3.01200	175
3.01567	177
3.01933	169
3.02300	158
3.02667	150
3.03033	144
3.03400	142
3.03767	144
3.04133	150
3.04500	158
3.04867	166
3.05233	165
3.05600	156
3.05967	146
3.06333	139
3.06700	136
3.07067	132
3.07433	127
3.07800	125
3.08167	128
3.08533	131
3.08900	132
3.09267	136
3.09633	138
3.10000	135
3.10367	135
3.10733	133
3.11100	130
3.11467	125
3.11833	119
3.12200	112
3.12567	108
3.12933	110
3.13300	113
3.13667	118
3.14033	122
3.14400	121
3.14767	119
3.15133	118
3.15500	118
3.15867	116
3.16233	111
3.16600	106
3.16967	106
3.17333	111
3.17700	119
3.18067	128
3.18433	132
3.18800	127
3.19167	118
3.19533	111
3.19900	109
3.20267	114
3.20633	116
3.21000	111
3.21367	105
3.21733	106
3.22100	113
3.22467	121
3.22833	122
3.23200	117
3.23567	111
3.23933	110
3.24300	112
3.24667	112
3.25033	112
3.25400	115
3.25767	119
3.26133	122
3.26500	120
3.26867	116
3.27233	111
3.27600	106
3.27967	101
3.28333	101
3.28700	109
3.29067	122
3.29433	133
3.29800	136
3.30167	129
3.30533	121
3.30900	112
3.31267	102
3.31633	99
3.32000	100
3.32367	102
3.32733	108
3.33100	111
3.33467	107
3.33833	98
3.34200	89
3.34567	89
3.34933	96
3.35300	106
3.35667	117
3.36033	121
3.36400	115
3.36767	107
3.37133	103
3.37500	103
3.37867	105
3.38233	114
3.38600	123
3.38967	125
3.39333	118
3.39700	110
3.40067	104
3.40433	100
3.40800	100
3.41167	99
3.41533	93
3.41900	91
3.42267	97
3.42633	104
3.43000	110
3.43367	116
3.43733	118
3.44100	113
3.44467	103
3.44833	94
3.45200	84
3.45567	75
3.45933	70
3.46300	68
3.46667	69
3.47033	75
3.47400	80
3.47767	88
3.48133	96
3.48500	101
3.48867	101
3.49233	101
3.49600	103
3.49967	105
3.50333	104
3.50700	97
3.51067	92
3.51433	90
3.51800	84
3.52167	79
3.52533	79
3.52900	87
3.53267	99
3.53633	108
3.54000	111
3.54367	108
3.54733	102
3.55100	95
3.55467	89
3.55833	83
3.56200	77
3.56567	71
3.56933	65
3.57300	62
3.57667	62
3.58033	64
3.58400	63
3.58767	61
3.59133	61
3.59500	66
3.59867	70
3.60233	71
3.60600	74
3.60967	76
3.61333	79
3.61700	82
3.62067	85
3.62433	89
3.62800	89
3.63167	85
3.63533	80
3.63900	77
3.64267	76
3.64633	75
3.65000	75
3.65367	77
3.65733	79
3.66100	82
3.66467	86
3.66833	90
3.67200	91
3.67567	91
3.67933	93
3.68300	93
3.68667	93
3.69033	93
3.69400	92
3.69767	87
3.70133	81
3.70500	75
3.70867	70
3.71233	70
3.71600	73
3.71967	77
3.72333	78
3.72700	77
3.73067	79
3.73433	82
3.73800	83
3.74167	77
3.74533	69
3.74900	62
3.75267	59
3.75633	65
3.76000	71
3.76367	71
3.76733	70
3.77100	66
3.77467	61
3.77833	57
3.78200	56
3.78567	55
3.78933	55
3.79300	56
3.79667	52
3.80033	48
3.80400	48
3.80767	58
3.81133	70
3.81500	76
3.81867	76
3.82233	66
3.82600	52
3.82967	42
3.83333	38
3.83700	37
3.84067	37
3.84433	35
3.84800	32
3.85167	30
3.85533	31
3.85900	32
3.86267	37
3.86633	40
3.87000	36
3.87367	35
3.87733	38
3.88100	40
3.88467	43
3.88833	48
3.89200	52
3.89567	54
3.89933	52
3.90300	51
3.90667	53
3.91033	54
3.91400	51
3.91767	46
3.92133	42
3.92500	38
3.92867	35
3.93233	31
3.93600	32
3.93967	34
3.94333	36
3.94700	41
3.95067	46
3.95433	48
3.95800	53
3.96167	56
3.96533	58
3.96900	57
3.97267	52
3.97633	49
3.98000	43
3.98367	39
3.98733	41
3.99100	41
3.99467	37
3.99833	31

[Chromatogram (Ch2)]
Interval(msec)	220
# of Points	1091
Start Time(min)	0.002
End Time(min)	3.998
R.Time (min)	Intensity
0.00167	0
0.00533	0
0.00900	0
0.01267	-0
0.01633	-0
0.02000	-1
0.02367	-1
0.02733	-1
0.03100	-1
0.03467	-1
0.03833	-2
0.04200	-2
0.04567	-2
0.04933	-2
0.05300	-2
0.05667	-2
0.06033	-1
0.06400	-1
0.06767	-0
0.07133	0
0.07500	1
0.07867	1
0.08233	1
0.08600	1
0.08967	1
0.09333	1
0.09700	1
0.10067	1
0.10433	1
0.10800	1
0.11167	1
0.11533	1
0.11900	1
0.12267	1
0.12633	1
0.13000	1
0.13367	1
0.13733	1
0.14100	1
0.14467	1
0.14833	2
0.15200	2
0.15567	2
0.15933	3
0.16300	3
0.16667	3
0.17033	3
0.17400	4
0.17767	4
0.18133	4
0.18500	5
0.18867	5
0.19233	5
0.19600	6
0.19967	6
0.20333	6
0.20700	6
0.21067	6
0.21433	6
0.21800	6
0.22167	6
0.22533	6
0.22900	6
0.23267	6
0.23633	6
0.24000	5
0.24367	5
0.24733	5
0.25100	4
0.25467	4
0.25833	3
0.26200	3
0.26567	2
0.26933	2
0.27300	2
0.27667	2
0.28033	1
0.28400	1
0.28767	1
0.29133	1
0.29500	1
0.29867	1
0.30233	1
0.30600	1
0.30967	1
0.31333	0
0.31700	0
0.32067	-0
0.32433	-0
0.32800	-0
0.33167	0
0.33533	0
0.33900	0
0.34267	0
0.34633	0
0.35000	0
0.35367	0
0.35733	0
0.36100	0
0.36467	1
0.36833	1
0.37200	1
0.37567	1
0.37933	1
0.38300	1
0.38667	1
0.39033	0
0.39400	-0
0.39767	-1
0.40133	-1
0.40500	-2
0.40867	-2
0.41233	-3
0.41600	-4
0.41967	-4
0.42333	-4
0.42700	-4
0.43067	-3
0.43433	-3
0.43800	-3
0.44167	-2
0.44533	-2
0.44900	-1
0.45267	-1
0.45633	-0
0.46000	0
0.46367	0
0.46733	1
0.47100	0
0.47467	0
0.47833	0
0.48200	0
0.48567	0
0.48933	0
0.49300	0
0.49667	0
0.50033	0
0.50400	0
0.50767	1
0.51133	1
0.51500	1
0.51867	1
0.52233	1
0.52600	2
0.52967	2
0.53333	2
0.53700	2
0.54067	3
0.54433	3
0.54800	3
0.55167	3
0.55533	3
0.55900	3
0.56267	3
0.56633	3
0.57000	3
0.57367	2
0.57733	2
0.58100	2
0.58467	2
0.58833	2
0.59200	2
0.59567	2
0.59933	2
0.60300	1
0.60667	1
0.61033	1
0.61400	0
0.61767	0
0.62133	0
0.62500	1
0.62867	1
0.63233	1
0.63600	1
0.63967	1
0.64333	1
0.64700	1
0.65067	1
0.65433	1
0.65800	1
0.66167	1
0.66533	1
0.66900	1
0.67267	1
0.67633	1
0.68000	1
0.68367	2
0.68733	2
0.69100	2
0.69467	2
0.69833	2
0.70200	2
0.70567	1
0.70933	1
0.71300	1
0.71667	0
0.72033	-0
0.72400	0
0.72767	0
0.73133	-0
0.73500	-0
0.73867	-0
0.74233	-1
0.74600	-1
0.74967	-1
0.75333	-1
0.75700	-1
0.76067	-1
0.76433	-1
0.76800	-1
0.77167	-1
0.77533	-1
0.77900	-0
0.78267	0
0.78633	0
0.79000	1
0.79367	1
0.79733	1
0.80100	1
0.80467	1
0.80833	1
0.81200	1
0.81567	2
0.81933	2
0.82300	2
0.82667	3
0.83033	3
0.83400	3
0.83767	3
0.84133	3
0.84500	3
0.84867	3
0.85233	3
0.85600	3
0.85967	3
0.86333	2
0.86700	2
0.87067	2
0.87433	2
0.87800	2
0.88167	2
0.88533	1
0.88900	1
0.89267	1
0.89633	1
0.90000	1
0.90367	1
0.90733	0
0.91100	0
0.91467	0
0.91833	0
0.92200	1
0.92567	1
0.92933	0
0.93300	0
0.93667	0
0.94033	0
0.94400	0
0.94767	0
0.95133	0
0.95500	0
0.95867	0
0.96233	0
0.96600	0
0.96967	-0
0.97333	-0
0.97700	-0
0.98067	-0
0.98433	-0
0.98800	-0
0.99167	-0
0.99533	-0
0.99900	-0
1.00267	-0
1.00633	-0
1.01000	-0
1.01367	-0
1.01733	-1
1.02100	-1
1.02467	-1
1.02833	-1
1.03200	-1
1.03567	-1
1.03933	-0
1.04300	-0
1.04667	-0
1.05033	-0
1.05400	-1
1.05767	-1
1.06133	-1
1.06500	-0
1.06867	-0
1.07233	-0
1.07600	0
1.07967	0
1.08333	1
1.08700	1
1.09067	1
1.09433	1
1.09800	1
1.10167	1
1.10533	1
1.10900	1
1.11267	1
1.11633	0
1.12000	-0
1.12367	-1
1.12733	-1
1.13100	-1
1.13467	-1
1.13833	-1
1.14200	-1
1.14567	-1
1.14933	-1
1.15300	-0
1.15667	0
1.16033	0
1.16400	1
1.16767	1
1.17133	1
1.17500	0
1.17867	0
1.18233	0
1.18600	-0
1.18967	-0
1.19333	-1
1.19700	-1
1.20067	-1
1.20433	-1
1.20800	-1
1.21167	-1
1.21533	-1
1.21900	-1
1.22267	-1
1.22633	-1
1.23000	-1
1.23367	-1
1.23733	-0
1.24100	-0
1.24467	-0
1.24833	0
1.25200	0
1.25567	0
1.25933	1
1.26300	1
1.26667	2
1.27033	2
1.27400	2
1.27767	2
1.28133	2
1.28500	2
1.28867	1
1.29233	1
1.29600	1
1.29967	1
1.30333	1
1.30700	1
1.31067	1
1.31433	1
1.31800	1
1.32167	1
1.32533	1
1.32900	0
1.33267	0
1.33633	-0
1.34000	-1
1.34367	-1
1.34733	-1
1.35100	-1
1.35467	-1
1.35833	-1
1.36200	-1
1.36567	-1
1.36933	-1
1.37300	-1
1.37667	-1
1.38033	-1
1.38400	-1
1.38767	-1
1.39133	-1
1.39500	-2
1.39867	-2
1.40233	-2
1.40600	-2
1.40967	-2
1.41333	-2
1.41700	-2
1.42067	-2
1.42433	-3
1.42800	-3
1.43167	-3
1.43533	-3
1.43900	-3
1.44267	-2
1.44633	-2
1.45000	-2
1.45367	-2
1.45733	-2
1.46100	-2
1.46467	-1
1.46833	-1
1.47200	-1
1.47567	-0
1.47933	-0
1.48300	0
1.48667	0
1.49033	1
1.49400	1
1.49767	1
1.50133	2
1.50500	2
1.50867	2
1.51233	2
1.51600	2
1.51967	2
1.52333	1
1.52700	1
1.53067	1
1.53433	0
1.53800	0
1.54167	-0
1.54533	-0
1.54900	-0
1.55267	-1
1.55633	-1
1.56000	-1
1.56367	-1
1.56733	-1
1.57100	-1
1.57467	-2
1.57833	-2
1.58200	-2
1.58567	-2
1.58933	-2
1.59300	-3
1.59667	-3
1.60033	-3
1.60400	-4
1.60767	-5
1.61133	-7
1.61500	-8
1.61867	-11
1.62233	-13
1.62600	-15
1.62967	-18
1.63333	-21
1.63700	-24
1.64067	-28
1.64433	-32
1.64800	-35
1.65167	-39
1.65533	-42
1.65900	-46
1.66267	-50
1.66633	-54
1.67000	-59
1.67367	-64
1.67733	-69
1.68100	-74
1.68467	-78
1.68833	-83
1.69200	-87
1.69567	-90
1.69933	-93
1.70300	-96
1.70667	-98
1.71033	-100
1.71400	-101
1.71767	-102
1.72133	-103
1.72500	-104
1.72867	-104
1.73233	-105
1.73600	-105
1.73967	-106
1.74333	-106
1.74700	-106
1.75067	-106
1.75433	-107
1.75800	-107
1.76167	-108
1.76533	-109
1.76900	-110
1.77267	-111
1.77633	-112
1.78000	-113
1.78367	-113
1.78733	-114
1.79100	-114
1.79467	-114
1.79833	-113
1.80200	-112
1.80567	-112
1.80933	-111
1.81300	-111
1.81667	-111
1.82033	-111
1.82400	-111
1.82767	-112
1.83133	-112
1.83500	-113
1.83867	-113
1.84233	-113
1.84600	-113
1.84967	-112
1.85333	-112
1.85700	-111
1.86067	-111
1.86433	-112
1.86800	-112
1.87167	-112
1.87533	-113
1.87900	-113
1.88267	-113
1.88633	-112
1.89000	-112
1.89367	-111
1.89733	-111
1.90100	-111
1.90467	-111
1.90833	-111
1.91200	-111
1.91567	-111
1.91933	-112
1.92300	-112
1.92667	-112
1.93033	-112
1.93400	-112
1.93767	-111
1.94133	-110
1.94500	-109
1.94867	-109
1.95233	-108
1.95600	-108
1.95967	-108
1.96333	-108
1.96700	-108
1.97067	-108
1.97433	-108
1.97800	-108
1.98167	-107
1.98533	-107
1.98900	-106
1.99267	-105
1.99633	-105
2.00000	-105
2.00367	-104
2.00733	-105
2.01100	-105
2.01467	-105
2.01833	-105
2.02200	-105
2.02567	-105
2.02933	-105
2.03300	-105
2.03667	-105
2.04033	-104
2.04400	-103
2.04767	-102
2.05133	-101
2.05500	-100
2.05867	-99
2.06233	-99
2.06600	-98
2.06967	-98
2.07333	-98
2.07700	-98
2.08067	-99
2.08433	-99
2.08800	-99
2.09167	-99
2.09533	-99
2.09900	-98
2.10267	-98
2.10633	-98
2.11000	-97
2.11367	-98
2.11733	-98
2.12100	-98
2.12467	-98
2.12833	-97
2.13200	-97
2.13567	-96
2.13933	-96
2.14300	-95
2.14667	-95
2.15033	-95
2.15400	-95
2.15767	-94
2.16133	-94
2.16500	-94
2.16867	-93
2.17233	-93
2.17600	-92
2.17967	-91
2.18333	-91
2.18700	-90
2.19067	-90
2.19433	-90
2.19800	-90
2.20167	-89
2.20533	-89
2.20900	-88
2.21267	-88
2.21633	-87
2.22000	-87
2.22367	-87
2.22733	-86
2.23100	-86
2.23467	-86
2.23833	-86
2.24200	-85
2.24567	-85
2.24933	-84
2.25300	-83
2.25667	-82
2.26033	-82
2.26400	-81
2.26767	-81
2.27133	-82
2.27500	-82
2.27867	-82
2.28233	-83
2.28600	-83
2.28967	-83
2.29333	-83
2.29700	-82
2.30067	-81
2.30433	-80
2.30800	-79
2.31167	-79
2.31533	-78
2.31900	-78
2.32267	-78
2.32633	-78
2.33000	-77
2.33367	-77
2.33733	-77
2.34100	-77
2.34467	-76
2.34833	-76
2.35200	-75
2.35567	-75
2.35933	-74
2.36300	-73
2.36667	-71
2.37033	-68
2.37400	-65
2.37767	-62
2.38133	-58
2.38500	-54
2.38867	-50
2.39233	-45
2.39600	-40
2.39967	-35
2.40333	-31
2.40700	-26
2.41067	-23
2.41433	-19
2.41800	-16
2.42167	-13
2.42533	-11
2.42900	-10
2.43267	-9
2.43633	-8
2.44000	-8
2.44367	-7
2.44733	-7
2.45100	-6
2.45467	-5
2.45833	-4
2.46200	-3
2.46567	-2
2.46933	-1
2.47300	-0
2.47667	1
2.48033	2
2.48400	2
2.48767	3
2.49133	4
2.49500	5
2.49867	6
2.50233	7
2.50600	8
2.50967	9
2.51333	9
2.51700	10
2.52067	10
2.52433	10
2.52800	11
2.53167	11
2.53533	12
2.53900	13
2.54267	14
2.54633	14
2.55000	15
2.55367	16
2.55733	16
2.56100	17
2.56467	17
2.56833	17
2.57200	17
2.57567	17
2.57933	17
2.58300	17
2.58667	17
2.59033	17
2.59400	17
2.59767	16
2.60133	16
2.60500	16
2.60867	16
2.61233	16
2.61600	16
2.61967	16
2.62333	17
2.62700	17
2.63067	18
2.63433	18
2.63800	19
2.64167	19
2.64533	20
2.64900	20
2.65267	21
2.65633	21
2.66000	21
2.66367	21
2.66733	22
2.67100	22
2.67467	22
2.67833	22
2.68200	23
2.68567	23
2.68933	23
2.69300	23
2.69667	24
2.70033	24
2.70400	24
2.70767	24
2.71133	23
2.71500	23
2.71867	24
2.72233	24
2.72600	25
2.72967	25
2.73333	25
2.73700	26
2.74067	26
2.74433	27
2.74800	27
2.75167	27
2.75533	28
2.75900	28
2.76267	27
2.76633	27
2.77000	27
2.77367	26
2.77733	26
2.78100	26
2.78467	26
2.78833	26
2.79200	26
2.79567	26
2.79933	26
2.80300	26
2.80667	27
2.81033	27
2.81400	27
2.81767	28
2.82133	28
2.82500	28
2.82867	28
2.83233	28
2.83600	28
2.83967	27
2.84333	26
2.84700	24
2.85067	21
2.85433	15
2.85800	7
2.86167	-5
2.86533	-21
2.86900	-40
2.87267	-64
2.87633	-93
2.88000	-126
2.88367	-163
2.88733	-204
2.89100	-249
2.89467	-296
2.89833	-346
2.90200	-399
2.90567	-453
2.90933	-507
2.91300	-563
2.91667	-618
2.92033	-673
2.92400	-727
2.92767	-780
2.93133	-831
2.93500	-884
2.93867	-940
2.94233	-999
2.94600	-1051
2.94967	-1087
2.95333	-1098
2.95700	-1083
2.96067	-1045
2.96433	-988
2.96800	-918
2.97167	-841
2.97533	-761
2.97900	-681
2.98267	-604
2.98633	-532
2.99000	-465
2.99367	-404
2.99733	-349
3.00100	-301
3.00467	-258
3.00833	-220
3.01200	-187
3.01567	-158
3.01933	-134
3.02300	-112
3.02667	-94
3.03033	-78
3.03400	-65
3.03767	-53
3.04133	-43
3.04500	-34
3.04867	-27
3.05233	-21
3.05600	-16
3.05967	-11
3.06333	-7
3.06700	-4
3.07067	-1
3.07433	1
3.07800	3
3.08167	5
3.08533	7
3.08900	9
3.09267	10
3.09633	11
3.10000	12
3.10367	13
3.10733	14
3.11100	15
3.11467	15
3.11833	16
3.12200	16
3.12567	17
3.12933	17
3.13300	18
3.13667	19
3.14033	19
3.14400	20
3.14767	20
3.15133	21
3.15500	21
3.15867	21
3.16233	21
3.16600	21
3.16967	21
3.17333	21
3.17700	21
3.18067	21
3.18433	21
3.18800	21
3.19167	21
3.19533	21
3.19900	21
3.20267	21
3.20633	21
3.21000	21
3.21367	21
3.21733	22
3.22100	22
3.22467	22
3.22833	22
3.23200	22
3.23567	22
3.23933	22
3.24300	22
3.24667	23
3.25033	23
3.25400	23
3.25767	23
3.26133	23
3.26500	23
3.26867	24
3.27233	24
3.27600	24
3.27967	24
3.28333	24
3.28700	24
3.29067	24
3.29433	25
3.29800	25
3.30167	26
3.30533	26
3.30900	27
3.31267	28
3.31633	29
3.32000	29
3.32367	30
3.32733	30
3.33100	31
3.33467	31
3.33833	31
3.34200	31
3.34567	31
3.34933	31
3.35300	31
3.35667	31
3.36033	31
3.36400	31
3.36767	31
3.37133	31
3.37500	30
3.37867	30
3.38233	30
3.38600	30
3.38967	30
3.39333	30
3.39700	30
3.40067	30
3.40433	30
3.40800	30
3.41167	29
3.41533	29
3.41900	29
3.42267	29
3.42633	29
3.43000	29
3.43367	29
3.43733	29
3.44100	29
3.44467	29
3.44833	28
3.45200	28
3.45567	28
3.45933	27
3.46300	27
3.46667	27
3.47033	27
3.47400	26
3.47767	26
3.48133	26
3.48500	26
3.48867	26
3.49233	26
3.49600	26
3.49967	26
3.50333	26
3.50700	26
3.51067	26
3.51433	26
3.51800	26
3.52167	26
3.52533	26
3.52900	27
3.53267	27
3.53633	27
3.54000	27
3.54367	27
3.54733	28
3.55100	28
3.55467	28
3.55833	28
3.56200	28
3.56567	28
3.56933	28
3.57300	28
3.57667	29
3.58033	29
3.58400	29
3.58767	29
3.59133	29
3.59500	29
3.59867	29
3.60233	29
3.60600	29
3.60967	28
3.61333	28
3.61700	28
3.62067	28
3.62433	27
3.62800	27
3.63167	27
3.63533	27
3.63900	27
3.64267	27
3.64633	27
3.65000	27
3.65367	27
3.65733	27
3.66100	28
3.66467	28
3.66833	29
3.67200	29
3.67567	29
3.67933	29
3.68300	30
3.68667	30
3.69033	30
3.69400	30
3.69767	30
3.70133	30
3.70500	30
3.70867	30
3.71233	30
3.71600	30
3.71967	30
3.72333	30
3.72700	30
3.73067	30
3.73433	30
3.73800	30
3.74167	30
3.74533	30
3.74900	30
3.75267	30
3.75633	29
3.76000	29
3.76367	29
3.76733	29
3.77100	28
3.77467	28
3.77833	28
3.78200	28
3.78567	28
3.78933	28
3.79300	29
3.79667	29
3.80033	29
3.80400	29
3.80767	29
3.81133	29
3.81500	30
3.81867	30
3.82233	30
3.82600	30
3.82967	30
3.83333	30
3.83700	29
3.84067	29
3.84433	29
3.84800	29
3.85167	29
3.85533	29
3.85900	29
3.86267	28
3.86633	28
3.87000	28
3.87367	28
3.87733	29
3.88100	29
3.88467	29
3.88833	29
3.89200	29
3.89567	29
3.89933	29
3.90300	29
3.90667	29
3.91033	29
3.91400	29
3.91767	30
3.92133	30
3.92500	30
3.92867	30
3.93233	30
3.93600	30
3.93967	30
3.94333	30
3.94700	30
3.95067	31
3.95433	31
3.95800	30
3.96167	30
3.96533	30
3.96900	30
3.97267	30
3.97633	29
3.98000	29
3.98367	29
3.98733	28
3.99100	28
3.99467	28
3.99833	27

[Chromatogram (Ch3)]
Interval(msec)	220
# of Points	1091
Start Time(min)	0.002
End Time(min)	3.998
R.Time (min)	Intensity
0.00167	-0
0.00533	0
0.00900	1
0.01267	3
0.01633	5
0.02000	4
0.02367	2
0.02733	1
0.03100	2
0.03467	4
0.03833	6
0.04200	4
0.04567	4
0.04933	2
0.05300	-1
0.05667	-3
0.06033	-3
0.06400	-3
0.06767	-1
0.07133	1
0.07500	2
0.07867	0
0.08233	-0
0.08600	-0
0.08967	-1
0.09333	-2
0.09700	-1
0.10067	1
0.10433	3
0.10800	3
0.11167	2
0.11533	-1
0.11900	-2
0.12267	-2
0.12633	-3
0.13000	-5
0.13367	-7
0.13733	-7
0.14100	-6
0.14467	-7
0.14833	-7
0.15200	-8
0.15567	-8
0.15933	-6
0.16300	-5
0.16667	-3
0.17033	0
0.17400	1
0.17767	-1
0.18133	0
0.18500	0
0.18867	-1
0.19233	-2
0.19600	-2
0.19967	-3
0.20333	-6
0.20700	-8
0.21067	-6
0.21433	-2
0.21800	1
0.22167	2
0.22533	-0
0.22900	-1
0.23267	-3
0.23633	-4
0.24000	-4
0.24367	-6
0.24733	-9
0.25100	-10
0.25467	-9
0.25833	-6
0.26200	-6
0.26567	-6
0.26933	-6
0.27300	-6
0.27667	-6
0.28033	-5
0.28400	-6
0.28767	-5
0.29133	-4
0.29500	-5
0.29867	-5
0.30233	-4
0.30600	-1
0.30967	-1
0.31333	-3
0.31700	-4
0.32067	-6
0.32433	-7
0.32800	-6
0.33167	-5
0.33533	-4
0.33900	-3
0.34267	-4
0.34633	-4
0.35000	-4
0.35367	-4
0.35733	-5
0.36100	-5
0.36467	-2
0.36833	-0
0.37200	1
0.37567	-1
0.37933	-1
0.38300	-1
0.38667	-3
0.39033	-4
0.39400	-5
0.39767	-6
0.40133	-4
0.40500	-2
0.40867	-0
0.41233	-1
0.41600	-2
0.41967	-2
0.42333	-1
0.42700	-0
0.43067	1
0.43433	1
0.43800	1
0.44167	3
0.44533	3
0.44900	1
0.45267	0
0.45633	2
0.46000	5
0.46367	6
0.46733	4
0.47100	4
0.47467	4
0.47833	2
0.48200	-0
0.48567	-1
0.48933	-2
0.49300	-3
0.49667	-3
0.50033	-1
0.50400	1
0.50767	-1
0.51133	-3
0.51500	-4
0.51867	-4
0.52233	-3
0.52600	-1
0.52967	-1
0.53333	-3
0.53700	-2
0.54067	-1
0.54433	-0
0.54800	-0
0.55167	-2
0.55533	-2
0.55900	-3
0.56267	-4
0.56633	-3
0.57000	-3
0.57367	-4
0.57733	-3
0.58100	-2
0.58467	-2
0.58833	-1
0.59200	-1
0.59567	-2
0.59933	-3
0.60300	-3
0.60667	-2
0.61033	-3
0.61400	-2
0.61767	-2
0.62133	-2
0.62500	-4
0.62867	-6
0.63233	-6
0.63600	-5
0.63967	-2
0.64333	0
0.64700	2
0.65067	4
0.65433	4
0.65800	3
0.66167	3
0.66533	3
0.66900	2
0.67267	2
0.67633	2
0.68000	3
0.68367	3
0.68733	3
0.69100	3
0.69467	2
0.69833	2
0.70200	2
0.70567	2
0.70933	3
0.71300	6
0.71667	6
0.72033	4
0.72400	3
0.72767	2
0.73133	3
0.73500	3
0.73867	3
0.74233	2
0.74600	1
0.74967	2
0.75333	3
0.75700	4
0.76067	3
0.76433	3
0.76800	3
0.77167	3
0.77533	3
0.77900	1
0.78267	1
0.78633	2
0.79000	4
0.79367	5
0.79733	5
0.80100	3
0.80467	3
0.80833	3
0.81200	5
0.81567	6
0.81933	3
0.82300	1
0.82667	3
0.83033	4
0.83400	3
0.83767	2
0.84133	1
0.84500	1
0.84867	1
0.85233	2
0.85600	4
0.85967	4
0.86333	3
0.86700	3
0.87067	2
0.87433	2
0.87800	2
0.88167	3
0.88533	3
0.88900	2
0.89267	1
0.89633	3
0.90000	4
0.90367	4
0.90733	3
0.91100	4
0.91467	6
0.91833	8
0.92200	8
0.92567	10
0.92933	12
0.93300	11
0.93667	9
0.94033	7
0.94400	5
0.94767	4
0.95133	6
0.95500	9
0.95867	10
0.96233	9
0.96600	5
0.96967	2
0.97333	1
0.97700	3
0.98067	4
0.98433	7
0.98800	10
0.99167	8
0.99533	7
0.99900	7
1.00267	6
1.00633	6
1.01000	9
1.01367	11
1.01733	10
1.02100	9
1.02467	7
1.02833	5
1.03200	7
1.03567	8
1.03933	8
1.04300	8
1.04667	9
1.05033	8
1.05400	8
1.05767	9
1.06133	8
1.06500	7
1.06867	7
1.07233	10
1.07600	10
1.07967	10
1.08333	10
1.08700	9
1.09067	8
1.09433	8
1.09800	8
1.10167	7
1.10533	7
1.10900	6
1.11267	7
1.11633	9
1.12000	9
1.12367	8
1.12733	7
1.13100	4
1.13467	4
1.13833	6
1.14200	7
1.14567	6
1.14933	6
1.15300	6
1.15667	4
1.16033	2
1.16400	2
1.16767	4
1.17133	7
1.17500	7
1.17867	9
1.18233	13
1.18600	13
1.18967	13
1.19333	12
1.19700	12
1.20067	12
1.20433	12
1.20800	11
1.21167	11
1.21533	11
1.21900	11
1.22267	11
1.22633	12
1.23000	15
1.23367	16
1.23733	15
1.24100	15
1.24467	14
1.24833	12
1.25200	12
1.25567	12
1.25933	12
1.26300	11
1.26667	10
1.27033	10
1.27400	8
1.27767	10
1.28133	10
1.28500	10
1.28867	12
1.29233	13
1.29600	13
1.29967	12
1.30333	13
1.30700	13
1.31067	13
1.31433	14
1.31800	15
1.32167	15
1.32533	12
1.32900	10
1.33267	9
1.33633	11
1.34000	10
1.34367	12
1.34733	13
1.35100	15
1.35467	14
1.35833	13
1.36200	11
1.36567	10
1.36933	9
1.37300	9
1.37667	9
1.38033	11
1.38400	14
1.38767	14
1.39133	13
1.39500	13
1.39867	13
1.40233	14
1.40600	15
1.40967	13
1.41333	13
1.41700	13
1.42067	12
1.42433	13
1.42800	15
1.43167	16
1.43533	17
1.43900	18
1.44267	18
1.44633	18
1.45000	19
1.45367	19
1.45733	18
1.46100	15
1.46467	13
1.46833	11
1.47200	10
1.47567	10
1.47933	11
1.48300	13
1.48667	14
1.49033	13
1.49400	13
1.49767	13
1.50133	13
1.50500	13
1.50867	13
1.51233	13
1.51600	13
1.51967	13
1.52333	15
1.52700	15
1.53067	15
1.53433	16
1.53800	17
1.54167	17
1.54533	18
1.54900	19
1.55267	18
1.55633	17
1.56000	14
1.56367	12
1.56733	13
1.57100	15
1.57467	15
1.57833	16
1.58200	14
1.58567	13
1.58933	12
1.59300	12
1.59667	13
1.60033	12
1.60400	11
1.60767	11
1.61133	12
1.61500	13
1.61867	15
1.62233	17
1.62600	20
1.62967	21
1.63333	21
1.63700	21
1.64067	20
1.64433	20
1.64800	20
1.65167	19
1.65533	19
1.65900	20
1.66267	21
1.66633	22
1.67000	23
1.67367	25
1.67733	27
1.68100	28
1.68467	27
1.68833	26
1.69200	26
1.69567	29
1.69933	31
1.70300	32
1.70667	33
1.71033	34
1.71400	35
1.71767	35
1.72133	34
1.72500	32
1.72867	32
1.73233	34
1.73600	35
1.73967	36
1.74333	35
1.74700	37
1.75067	39
1.75433	37
1.75800	36
1.76167	37
1.76533	37
1.76900	36
1.77267	36
1.77633	36
1.78000	35
1.78367	35
1.78733	37
1.79100	37
1.79467	37
1.79833	36
1.80200	37
1.80567	38
1.80933	38
1.81300	40
1.81667	40
1.82033	40
1.82400	41
1.82767	40
1.83133	40
1.83500	41
1.83867	43
1.84233	46
1.84600	48
1.84967	47
1.85333	46
1.85700	47
1.86067	48
1.86433	51
1.86800	53
1.87167	54
1.87533	56
1.87900	56
1.88267	54
1.88633	51
1.89000	51
1.89367	53
1.89733	55
1.90100	56
1.90467	56
1.90833	55
1.91200	56
1.91567	57
1.91933	56
1.92300	54
1.92667	55
1.93033	55
1.93400	56
1.93767	58
1.94133	61
1.94500	63
1.94867	65
1.95233	66
1.95600	66
1.95967	64
1.96333	65
1.96700	67
1.97067	68
1.97433	67
1.97800	67
1.98167	69
1.98533	69
1.98900	69
1.99267	70
1.99633	72
2.00000	75
2.00367	76
2.00733	78
2.01100	80
2.01467	81
2.01833	81
2.02200	81
2.02567	83
2.02933	85
2.03300	87
2.03667	88
2.04033	90
2.04400	94
2.04767	96
2.05133	97
2.05500	97
2.05867	97
2.06233	97
2.06600	99
2.06967	100
2.07333	101
2.07700	102
2.08067	104
2.08433	108
2.08800	111
2.09167	113
2.09533	116
2.09900	116
2.10267	117
2.10633	118
2.11000	119
2.11367	120
2.11733	121
2.12100	123
2.12467	123
2.12833	124
2.13200	123
2.13567	123
2.13933	124
2.14300	126
2.14667	129
2.15033	132
2.15400	135
2.15767	137
2.16133	138
2.16500	140
2.16867	143
2.17233	144
2.17600	146
2.17967	147
2.18333	147
2.18700	147
2.19067	149
2.19433	150
2.19800	153
2.20167	154
2.20533	155
2.20900	156
2.21267	157
2.21633	159
2.22000	159
2.22367	159
2.22733	162
2.23100	165
2.23467	166
2.23833	168
2.24200	169
2.24567	172
2.24933	173
2.25300	174
2.25667	176
2.26033	176
2.26400	177
2.26767	177
2.27133	180
2.27500	183
2.27867	184
2.28233	185
2.28600	186
2.28967	186
2.29333	186
2.29700	189
2.30067	192
2.30433	194
2.30800	196
2.31167	198
2.31533	199
2.31900	200
2.32267	203
2.32633	206
2.33000	207
2.33367	207
2.33733	208
2.34100	210
2.34467	211
2.34833	215
2.35200	219
2.35567	220
2.35933	222
2.36300	223
2.36667	225
2.37033	226
2.37400	228
2.37767	231
2.38133	232
2.38500	230
2.38867	228
2.39233	229
2.39600	230
2.39967	232
2.40333	233
2.40700	234
2.41067	235
2.41433	238
2.41800	240
2.42167	245
2.42533	249
2.42900	250
2.43267	251
2.43633	252
2.44000	255
2.44367	310
2.44733	460
2.45100	628
2.45467	767
2.45833	845
2.46200	854
2.46567	821
2.46933	780
2.47300	746
2.47667	724
2.48033	706
2.48400	678
2.48767	637
2.49133	587
2.49500	541
2.49867	502
2.50233	474
2.50600	458
2.50967	452
2.51333	457
2.51700	475
2.52067	502
2.52433	526
2.52800	540
2.53167	540
2.53533	522
2.53900	493
2.54267	461
2.54633	427
2.55000	396
2.55367	369
2.55733	347
2.56100	331
2.56467	318
2.56833	308
2.57200	301
2.57567	297
2.57933	294
2.58300	293
2.58667	295
2.59033	299
2.59400	304
2.59767	311
2.60133	313
2.60500	311
2.60867	307
2.61233	299
2.61600	288
2.61967	276
2.62333	264
2.62700	252
2.63067	242
2.63433	233
2.63800	219
2.64167	202
2.64533	186
2.64900	173
2.65267	160
2.65633	146
2.66000	132
2.66367	120
2.66733	110
2.67100	100
2.67467	92
2.67833	86
2.68200	80
2.68567	77
2.68933	76
2.69300	76
2.69667	78
2.70033	83
2.70400	88
2.70767	93
2.71133	96
2.71500	100
2.71867	105
2.72233	109
2.72600	112
2.72967	115
2.73333	118
2.73700	121
2.74067	124
2.74433	126
2.74800	130
2.75167	135
2.75533	136
2.75900	138
2.76267	143
2.76633	148
2.77000	151
2.77367	154
2.77733	157
2.78100	160
2.78467	164
2.78833	171
2.79200	176
2.79567	181
2.79933	186
2.80300	189
2.80667	193
2.81033	199
2.81400	207
2.81767	215
2.82133	225
2.82500	240
2.82867	271
2.83233	334
2.83600	445
2.83967	623
2.84333	887
2.84700	1247
2.85067	1700
2.85433	2226
2.85800	2796
2.86167	3360
2.86533	3874
2.86900	4296
2.87267	4597
2.87633	4764
2.88000	4794
2.88367	4702
2.88733	4513
2.89100	4251
2.89467	3945
2.89833	3614
2.90200	3278
2.90567	2951
2.90933	2643
2.91300	2357
2.91667	2094
2.92033	1854
2.92400	1641
2.92767	1454
2.93133	1289
2.93500	1144
2.93867	1016
2.94233	905
2.94600	808
2.94967	723
2.95333	648
2.95700	583
2.96067	527
2.96433	477
2.96800	433
2.97167	396
2.97533	366
2.97900	338
2.98267	313
2.98633	292
2.99000	273
2.99367	257
2.99733	244
3.00100	234
3.00467	224
3.00833	216
3.01200	213
3.01567	208
3.01933	202
3.02300	197
3.02667	192
3.03033	187
3.03400	183
3.03767	181
3.04133	177
3.04500	172
3.04867	170
3.05233	172
3.05600	172
3.05967	169
3.06333	166
3.06700	164
3.07067	164
3.07433	164
3.07800	163
3.08167	165
3.08533	164
3.08900	163
3.09267	163
3.09633	163
3.10000	164
3.10367	164
3.10733	162
3.11100	162
3.11467	161
3.11833	160
3.12200	159
3.12567	161
3.12933	162
3.13300	162
3.13667	162
3.14033	163
3.14400	164
3.14767	164
3.15133	166
3.15500	166
3.15867	167
3.16233	167
3.16600	167
3.16967	167
3.17333	170
3.17700	172
3.18067	173
3.18433	174
3.18800	176
3.19167	177
3.19533	179
3.19900	181
3.20267	183
3.20633	186
3.21000	186
3.21367	185
3.21733	187
3.22100	189
3.22467	190
3.22833	193
3.23200	194
3.23567	195
3.23933	197
3.24300	197
3.24667	186
3.25033	162
3.25400	143
3.25767	139
3.26133	152
3.26500	178
3.26867	216
3.27233	265
3.27600	318
3.27967	369
3.28333	416
3.28700	459
3.29067	499
3.29433	533
3.29800	564
3.30167	592
3.30533	616
3.30900	636
3.31267	653
3.31633	669
3.32000	685
3.32367	699
3.32733	713
3.33100	725
3.33467	733
3.33833	742
3.34200	751
3.34567	758
3.34933	764
3.35300	773
3.35667	780
3.36033	787
3.36400	793
3.36767	800
3.37133	808
3.37500	816
3.37867	824
3.38233	829
3.38600	834
3.38967	837
3.39333	842
3.39700	847
3.40067	853
3.40433	861
3.40800	865
3.41167	865
3.41533	863
3.41900	861
3.42267	859
3.42633	858
3.43000	858
3.43367	855
3.43733	854
3.44100	856
3.44467	857
3.44833	855
3.45200	853
3.45567	849
3.45933	848
3.46300	846
3.46667	843
3.47033	837
3.47400	830
3.47767	829
3.48133	828
3.48500	824
3.48867	821
3.49233	817
3.49600	814
3.49967	812
3.50333	809
3.50700	807
3.51067	803
3.51433	799
3.51800	797
3.52167	798
3.52533	797
3.52900	795
3.53267	792
3.53633	790
3.54000	787
3.54367	786
3.54733	785
3.55100	784
3.55467	784
3.55833	781
3.56200	780
3.56567	779
3.56933	779
3.57300	779
3.57667	781
3.58033	781
3.58400	778
3.58767	775
3.59133	771
3.59500	770
3.59867	773
3.60233	776
3.60600	776
3.60967	775
3.61333	774
3.61700	774
3.62067	772
3.62433	772
3.62800	773
3.63167	774
3.63533	775
3.63900	776
3.64267	774
3.64633	771
3.65000	770
3.65367	770
3.65733	769
3.66100	768
3.66467	766
3.66833	765
3.67200	764
3.67567	764
3.67933	763
3.68300	761
3.68667	759
3.69033	760
3.69400	760
3.69767	760
3.70133	757
3.70500	755
3.70867	753
3.71233	751
3.71600	750
3.71967	751
3.72333	751
3.72700	752
3.73067	753
3.73433	752
3.73800	751
3.74167	749
3.74533	745
3.74900	741
3.75267	740
3.75633	739
3.76000	739
3.76367	738
3.76733	735
3.77100	733
3.77467	731
3.77833	729
3.78200	727
3.78567	725
3.78933	724
3.79300	722
3.79667	719
3.80033	718
3.80400	718
3.80767	717
3.81133	714
3.81500	709
3.81867	704
3.82233	699
3.82600	698
3.82967	696
3.83333	694
3.83700	693
3.84067	692
3.84433	689
3.84800	686
3.85167	686
3.85533	685
3.85900	683
3.86267	682
3.86633	680
3.87000	677
3.87367	673
3.87733	669
3.88100	667
3.88467	666
3.88833	665
3.89200	664
3.89567	662
3.89933	659
3.90300	656
3.90667	655
3.91033	652
3.91400	650
3.91767	649
3.92133	648
3.92500	646
3.92867	645
3.93233	644
3.93600	641
3.93967	637
3.94333	636
3.94700	635
3.95067	633
3.95433	633
3.95800	633
3.96167	632
3.96533	631
3.96900	628
3.97267	625
3.97633	623
3.98000	621
3.98367	619
3.98733	618
3.99100	616
3.99467	613
3.99833	609

[Status Trace (Column Oven Temperature)]
Interval(msec)	1000
# of Points	240
Start Time(min)	0.006
End Time(min)	3.989
Intensity Units	
Intensity Multiplier	1
R.Time (min)	Intensity
0.00615	35.05
0.02282	35.05
0.03948	35.07
0.05615	35.06
0.07282	35.05
0.08948	35.06
0.10615	35.06
0.12282	35.06
0.13948	35.06
0.15615	35.04
0.17282	35.03
0.18948	35.00
0.20615	34.98
0.22282	34.97
0.23948	34.96
0.25615	34.96
0.27282	34.96
0.28948	34.97
0.30615	34.97
0.32282	34.98
0.33948	34.98
0.35615	34.98
0.37282	34.98
0.38948	35.00
0.40615	35.02
0.42282	35.03
0.43948	35.03
0.45615	35.04
0.47282	35.04
0.48948	35.04
0.50615	35.03
0.52282	35.02
0.53948	35.02
0.55615	35.00
0.57282	35.01
0.58948	35.01
0.60615	35.03
0.62282	35.02
0.63948	35.01
0.65615	35.02
0.67282	35.00
0.68948	35.00
0.70615	35.01
0.72282	35.01
0.73948	35.02
0.75615	35.03
0.77282	35.03
0.78948	35.03
0.80615	35.03
0.82282	35.02
0.83948	35.01
0.85615	35.02
0.87282	35.00
0.88948	34.99
0.90615	34.99
0.92282	34.99
0.93948	34.99
0.95615	35.00
0.97282	35.00
0.98948	35.00
1.00615	35.01
1.02282	35.00
1.03948	35.00
1.05615	35.00
1.07282	35.00
1.08948	34.98
1.10615	34.98
1.12282	34.99
1.13948	35.00
1.15615	34.99
1.17282	34.99
1.18948	35.00
1.20615	35.00
1.22282	35.01
1.23948	35.01
1.25615	34.99
1.27282	34.99
1.28948	35.00
1.30615	34.99
1.32282	35.00
1.33948	35.00
1.35615	34.99
1.37282	34.99
1.38948	35.00
1.40615	35.00
1.42282	35.02
1.43948	35.02
1.45615	35.02
1.47282	35.01
1.48948	35.00
1.50615	35.00
1.52282	35.01
1.53948	35.01
1.55615	35.01
1.57282	35.02
1.58948	35.03
1.60615	35.07
1.62282	35.19
1.63948	35.37
1.65615	35.60
1.67282	35.92
1.68948	36.29
1.70615	36.63
1.72282	36.97
1.73948	37.31
1.75615	37.62
1.77282	37.98
1.78948	38.31
1.80615	38.63
1.82282	38.97
1.83948	39.31
1.85615	39.62
1.87282	39.97
1.88948	40.29
1.90615	40.61
1.92282	40.97
1.93948	41.28
1.95615	41.61
1.97282	41.94
1.98948	42.25
2.00615	42.58
2.02282	42.91
2.03948	43.23
2.05615	43.55
2.07282	43.87
2.08948	44.20
2.10615	44.54
2.12282	44.87
2.13948	45.19
2.15615	45.53
2.17282	45.85
2.18948	46.19
2.20615	46.51
2.22282	46.84
2.23948	47.18
2.25615	47.49
2.27282	47.83
2.28948	48.17
2.30615	48.49
2.32282	48.82
2.33948	49.13
2.35615	49.43
2.37282	49.62
2.38948	49.68
2.40615	49.67
2.42282	49.68
2.43948	49.71
2.45615	49.71
2.47282	49.71
2.48948	49.72
2.50615	49.73
2.52282	49.75
2.53948	49.76
2.55615	49.77
2.57282	49.78
2.58948	49.79
2.60615	49.81
2.62282	49.82
2.63948	49.81
2.65615	49.82
2.67282	49.83
2.68948	49.84
2.70615	49.86
2.72282	49.86
2.73948	49.84
2.75615	49.85
2.77282	49.88
2.78948	49.87
2.80615	49.87
2.82282	49.86
2.83948	49.86
2.85615	49.87
2.87282	49.87
2.88948	49.87
2.90615	49.88
2.92282	49.90
2.93948	49.92
2.95615	49.95
2.97282	49.97
2.98948	49.98
3.00615	49.99
3.02282	50.00
3.03948	50.00
3.05615	50.01
3.07282	50.02
3.08948	50.02
3.10615	50.03
3.12282	50.03
3.13948	50.01
3.15615	50.02
3.17282	50.04
3.18948	50.05
3.20615	50.06
3.22282	50.07
3.23948	50.09
3.25615	50.10
3.27282	50.10
3.28948	50.10
3.30615	50.08
3.32282	50.05
3.33948	50.03
3.35615	50.02
3.37282	50.01
3.38948	50.00
3.40615	50.00
3.42282	50.00
3.43948	50.01
3.45615	50.01
3.47282	50.03
3.48948	50.05
3.50615	50.05
3.52282	50.06
3.53948	50.07
3.55615	50.06
3.57282	50.06
3.58948	50.06
3.60615	50.07
3.62282	50.08
3.63948	50.08
3.65615	50.08
3.67282	50.08
3.68948	50.07
3.70615	50.07
3.72282	50.06
3.73948	50.06
3.75615	50.07
3.77282	50.07
3.78948	50.08
3.80615	50.07
3.82282	50.07
3.83948	50.07
3.85615	50.06
3.87282	50.06
3.88948	50.06
3.90615	50.05
3.92282	50.04
3.93948	50.03
3.95615	50.03
3.97282	50.03
3.98948	50.04

[Status Trace (Injection Unit Temperature)]
Interval(msec)	1000
# of Points	240
Start Time(min)	0.006
End Time(min)	3.989
Intensity Units	
Intensity Multiplier	1
R.Time (min)	Intensity
0.00615	99.97
0.02282	99.97
0.03948	99.98
0.05615	99.98
0.07282	99.98
0.08948	99.98
0.10615	99.98
0.12282	99.98
0.13948	99.98
0.15615	99.98
0.17282	99.98
0.18948	99.98
0.20615	99.98
0.22282	99.98
0.23948	99.98
0.25615	99.98
0.27282	99.98
0.28948	99.98
0.30615	99.98
0.32282	99.98
0.33948	99.99
0.35615	99.98
0.37282	99.99
0.38948	99.98
0.40615	99.98
0.42282	99.98
0.43948	99.98
0.45615	99.98
0.47282	99.98
0.48948	99.98
0.50615	99.98
0.52282	99.98
0.53948	99.98
0.55615	99.98
0.57282	99.98
0.58948	99.98
0.60615	99.98
0.62282	99.98
0.63948	99.98
0.65615	99.98
0.67282	99.97
0.68948	99.98
0.70615	99.98
0.72282	99.98
0.73948	99.98
0.75615	99.98
0.77282	99.97
0.78948	99.98
0.80615	99.98
0.82282	99.99
0.83948	99.98
0.85615	99.98
0.87282	99.98
0.88948	99.99
0.90615	99.98
0.92282	99.98
0.93948	99.98
0.95615	99.99
0.97282	99.98
0.98948	99.98
1.00615	99.98
1.02282	99.98
1.03948	99.98
1.05615	99.98
1.07282	99.98
1.08948	99.98
1.10615	99.99
1.12282	99.98
1.13948	99.99
1.15615	99.99
1.17282	99.99
1.18948	99.99
1.20615	99.98
1.22282	99.98
1.23948	99.98
1.25615	99.98
1.27282	99.98
1.28948	99.99
1.30615	99.99
1.32282	99.99
1.33948	99.99
1.35615	99.99
1.37282	99.99
1.38948	99.99
1.40615	99.99
1.42282	99.98
1.43948	99.97
1.45615	99.99
1.47282	99.98
1.48948	99.99
1.50615	99.99
1.52282	99.99
1.53948	99.99
1.55615	99.99
1.57282	99.99
1.58948	99.99
1.60615	99.99
1.62282	99.99
1.63948	99.99
1.65615	99.99
1.67282	99.99
1.68948	99.99
1.70615	99.99
1.72282	99.99
1.73948	99.99
1.75615	99.99
1.77282	99.98
1.78948	99.99
1.80615	99.99
1.82282	99.99
1.83948	99.99
1.85615	99.98
1.87282	99.99
1.88948	99.99
1.90615	99.98
1.92282	99.98
1.93948	99.98
1.95615	99.98
1.97282	99.98
1.98948	99.98
2.00615	99.98
2.02282	99.97
2.03948	99.98
2.05615	99.97
2.07282	99.97
2.08948	99.97
2.10615	99.97
2.12282	99.96
2.13948	99.97
2.15615	99.97
2.17282	99.97
2.18948	99.96
2.20615	99.97
2.22282	99.97
2.23948	99.97
2.25615	99.97
2.27282	99.97
2.28948	99.96
2.30615	99.97
2.32282	99.97
2.33948	99.96
2.35615	99.96
2.37282	99.96
2.38948	99.96
2.40615	99.97
2.42282	99.97
2.43948	99.96
2.45615	99.97
2.47282	99.97
2.48948	99.96
2.50615	99.97
2.52282	99.97
2.53948	99.97
2.55615	99.97
2.57282	99.97
2.58948	99.98
2.60615	99.98
2.62282	99.98
2.63948	99.98
2.65615	99.97
2.67282	99.98
2.68948	99.98
2.70615	99.99
2.72282	99.98
2.73948	99.98
2.75615	99.99
2.77282	99.99
2.78948	99.99
2.80615	99.99
2.82282	100.00
2.83948	100.00
2.85615	100.00
2.87282	100.00
2.88948	100.00
2.90615	100.00
2.92282	100.00
2.93948	100.01
2.95615	100.00
2.97282	100.01
2.98948	100.01
3.00615	100.01
3.02282	100.01
3.03948	100.01
3.05615	100.01
3.07282	100.01
3.08948	100.01
3.10615	100.02
3.12282	100.02
3.13948	100.02
3.15615	100.02
3.17282	100.02
3.18948	100.02
3.20615	100.02
3.22282	100.02
3.23948	100.03
3.25615	100.02
3.27282	100.03
3.28948	100.02
3.30615	100.02
3.32282	100.03
3.33948	100.03
3.35615	100.03
3.37282	100.03
3.38948	100.03
3.40615	100.03
3.42282	100.02
3.43948	100.03
3.45615	100.03
3.47282	100.03
3.48948	100.03
3.50615	100.03
3.52282	100.04
3.53948	100.03
3.55615	100.04
3.57282	100.04
3.58948	100.03
3.60615	100.03
3.62282	100.04
3.63948	100.04
3.65615	100.04
3.67282	100.03
3.68948	100.04
3.70615	100.03
3.72282	100.03
3.73948	100.04
3.75615	100.04
3.77282	100.04
3.78948	100.04
3.80615	100.04
3.82282	100.04
3.83948	100.04
3.85615	100.04
3.87282	100.04
3.88948	100.04
3.90615	100.04
3.92282	100.05
3.93948	100.04
3.95615	100.05
3.97282	100.04
3.98948	100.04

[Status Trace (Carrier Gas Pressure)]
Interval(msec)	1000
# of Points	240
Start Time(min)	0.006
End Time(min)	3.989
Intensity Units	
Intensity Multiplier	1
R.Time (min)	Intensity
0.00615	58.00
0.02282	55.63
0.03948	56.93
0.05615	59.01
0.07282	59.59
0.08948	58.10
0.10615	57.98
0.12282	58.01
0.13948	58.01
0.15615	58.01
0.17282	58.00
0.18948	58.00
0.20615	58.00
0.22282	58.00
0.23948	58.00
0.25615	58.00
0.27282	58.00
0.28948	58.00
0.30615	58.00
0.32282	58.00
0.33948	58.00
0.35615	58.00
0.37282	58.00
0.38948	58.00
0.40615	58.00
0.42282	58.00
0.43948	58.00
0.45615	58.00
0.47282	58.00
0.48948	58.00
0.50615	58.00
0.52282	58.00
0.53948	58.00
0.55615	58.00
0.57282	58.00
0.58948	58.00
0.60615	58.00
0.62282	58.00
0.63948	58.00
0.65615	58.00
0.67282	58.00
0.68948	58.00
0.70615	58.00
0.72282	58.00
0.73948	58.00
0.75615	58.00
0.77282	58.00
0.78948	58.00
0.80615	58.00
0.82282	58.00
0.83948	58.00
0.85615	58.00
0.87282	58.00
0.88948	58.00
0.90615	58.00
0.92282	58.00
0.93948	58.00
0.95615	58.00
0.97282	58.00
0.98948	58.00
1.00615	58.00
1.02282	58.00
1.03948	58.00
1.05615	58.00
1.07282	58.00
1.08948	58.00
1.10615	58.00
1.12282	58.00
1.13948	58.00
1.15615	58.00
1.17282	58.00
1.18948	58.00
1.20615	58.00
1.22282	58.00
1.23948	58.00
1.25615	58.00
1.27282	58.00
1.28948	58.00
1.30615	58.00
1.32282	58.00
1.33948	58.00
1.35615	58.00
1.37282	58.00
1.38948	58.00
1.40615	58.00
1.42282	58.00
1.43948	58.00
1.45615	58.00
1.47282	58.00
1.48948	58.00
1.50615	58.00
1.52282	58.00
1.53948	58.00
1.55615	58.00
1.57282	58.00
1.58948	58.00
1.60615	58.00
1.62282	58.00
1.63948	58.00
1.65615	58.00
1.67282	58.01
1.68948	58.01
1.70615	58.00
1.72282	58.00
1.73948	58.00
1.75615	58.00
1.77282	58.00
1.78948	58.00
1.80615	58.00
1.82282	58.00
1.83948	58.00
1.85615	58.00
1.87282	58.00
1.88948	58.00
1.90615	58.00
1.92282	58.00
1.93948	58.00
1.95615	58.00
1.97282	58.00
1.98948	58.00
2.00615	58.00
2.02282	58.00
2.03948	58.00
2.05615	58.00
2.07282	58.00
2.08948	58.00
2.10615	58.00
2.12282	58.00
2.13948	58.00
2.15615	58.00
2.17282	58.00
2.18948	58.00
2.20615	58.00
2.22282	58.00
2.23948	58.00
2.25615	58.00
2.27282	58.00
2.28948	58.00
2.30615	58.00
2.32282	58.00
2.33948	58.00
2.35615	58.00
2.37282	58.00
2.38948	57.99
2.40615	57.99
2.42282	58.00
2.43948	58.00
2.45615	58.00
2.47282	58.00
2.48948	58.00
2.50615	57.99
2.52282	57.99
2.53948	58.00
2.55615	58.00
2.57282	58.00
2.58948	58.00
2.60615	58.00
2.62282	58.00
2.63948	58.00
2.65615	58.00
2.67282	58.00
2.68948	58.00
2.70615	58.00
2.72282	58.00
2.73948	58.00
2.75615	58.00
2.77282	58.00
2.78948	58.00
2.80615	58.00
2.82282	58.00
2.83948	58.00
2.85615	58.00
2.87282	58.00
2.88948	58.00
2.90615	58.00
2.92282	58.00
2.93948	58.00
2.95615	58.00
2.97282	58.00
2.98948	58.00
3.00615	58.00
3.02282	58.00
3.03948	58.00
3.05615	58.00
3.07282	58.00
3.08948	58.00
3.10615	58.00
3.12282	58.00
3.13948	58.00
3.15615	58.00
3.17282	58.00
3.18948	58.00
3.20615	58.00
3.22282	58.00
3.23948	58.00
3.25615	58.00
3.27282	58.00
3.28948	58.00
3.30615	58.00
3.32282	58.00
3.33948	58.00
3.35615	58.00
3.37282	58.00
3.38948	58.00
3.40615	58.00
3.42282	58.00
3.43948	58.00
3.45615	58.00
3.47282	58.00
3.48948	58.00
3.50615	58.00
3.52282	58.00
3.53948	58.00
3.55615	58.00
3.57282	58.00
3.58948	58.00
3.60615	58.00
3.62282	58.00
3.63948	58.00
3.65615	58.00
3.67282	58.00
3.68948	58.00
3.70615	58.00
3.72282	58.00
3.73948	58.00
3.75615	58.00
3.77282	58.00
3.78948	58.00
3.80615	58.00
3.82282	58.00
3.83948	58.00
3.85615	58.00
3.87282	58.00
3.88948	58.00
3.90615	58.00
3.92282	58.00
3.93948	58.00
3.95615	58.00
3.97282	58.00
3.98948	58.00

[Status Trace (Carrier Gas Flow)]
Interval(msec)	1000
# of Points	240
Start Time(min)	0.006
End Time(min)	3.989
Intensity Units	
Intensity Multiplier	1
R.Time (min)	Intensity
0.00615	34.53
0.02282	34.54
0.03948	34.55
0.05615	34.54
0.07282	34.50
0.08948	34.52
0.10615	34.52
0.12282	34.52
0.13948	34.52
0.15615	34.52
0.17282	34.51
0.18948	34.52
0.20615	34.52
0.22282	34.52
0.23948	34.52
0.25615	34.52
0.27282	34.52
0.28948	34.52
0.30615	34.52
0.32282	34.52
0.33948	34.52
0.35615	34.52
0.37282	34.52
0.38948	34.52
0.40615	34.52
0.42282	34.52
0.43948	34.51
0.45615	34.52
0.47282	34.52
0.48948	34.52
0.50615	34.52
0.52282	34.52
0.53948	34.51
0.55615	34.52
0.57282	34.52
0.58948	34.52
0.60615	34.52
0.62282	34.52
0.63948	34.52
0.65615	34.52
0.67282	34.52
0.68948	34.52
0.70615	34.52
0.72282	34.52
0.73948	34.52
0.75615	34.52
0.77282	34.52
0.78948	34.52
0.80615	34.52
0.82282	34.52
0.83948	34.52
0.85615	34.52
0.87282	34.52
0.88948	34.52
0.90615	34.52
0.92282	34.52
0.93948	34.52
0.95615	34.52
0.97282	34.51
0.98948	34.52
1.00615	34.52
1.02282	34.52
1.03948	34.52
1.05615	34.52
1.07282	34.52
1.08948	34.52
1.10615	34.52
1.12282	34.52
1.13948	34.52
1.15615	34.51
1.17282	34.51
1.18948	34.52
1.20615	34.52
1.22282	34.52
1.23948	34.51
1.25615	34.52
1.27282	34.52
1.28948	34.52
1.30615	34.52
1.32282	34.51
1.33948	34.52
1.35615	34.52
1.37282	34.52
1.38948	34.52
1.40615	34.52
1.42282	34.51
1.43948	34.52
1.45615	34.52
1.47282	34.52
1.48948	34.52
1.50615	34.52
1.52282	34.52
1.53948	34.52
1.55615	34.51
1.57282	34.52
1.58948	34.52
1.60615	34.51
1.62282	34.53
1.63948	34.53
1.65615	34.52
1.67282	34.51
1.68948	34.52
1.70615	34.51
1.72282	34.52
1.73948	34.52
1.75615	34.52
1.77282	34.52
1.78948	34.51
1.80615	34.53
1.82282	34.52
1.83948	34.52
1.85615	34.52
1.87282	34.52
1.88948	34.51
1.90615	34.52
1.92282	34.52
1.93948	34.51
1.95615	34.52
1.97282	34.52
1.98948	34.52
2.00615	34.52
2.02282	34.51
2.03948	34.52
2.05615	34.52
2.07282	34.52
2.08948	34.52
2.10615	34.52
2.12282	34.52
2.13948	34.51
2.15615	34.52
2.17282	34.52
2.18948	34.52
2.20615	34.51
2.22282	34.52
2.23948	34.52
2.25615	34.51
2.27282	34.52
2.28948	34.53
2.30615	34.52
2.32282	34.52
2.33948	34.52
2.35615	34.52
2.37282	34.52
2.38948	34.51
2.40615	34.52
2.42282	34.52
2.43948	34.52
2.45615	34.52
2.47282	34.51
2.48948	34.52
2.50615	34.50
2.52282	34.52
2.53948	34.53
2.55615	34.52
2.57282	34.52
2.58948	34.52
2.60615	34.52
2.62282	34.52
2.63948	34.52
2.65615	34.52
2.67282	34.53
2.68948	34.52
2.70615	34.52
2.72282	34.52
2.73948	34.52
2.75615	34.52
2.77282	34.52
2.78948	34.52
2.80615	34.52
2.82282	34.52
2.83948	34.52
2.85615	34.52
2.87282	34.52
2.88948	34.52
2.90615	34.52
2.92282	34.52
2.93948	34.52
2.95615	34.52
2.97282	34.52
2.98948	34.52
3.00615	34.52
3.02282	34.52
3.03948	34.52
3.05615	34.52
3.07282	34.52
3.08948	34.52
3.10615	34.52
3.12282	34.52
3.13948	34.52
3.15615	34.52
3.17282	34.52
3.18948	34.52
3.20615	34.52
3.22282	34.52
3.23948	34.52
3.25615	34.52
3.27282	34.52
3.28948	34.52
3.30615	34.52
3.32282	34.52
3.33948	34.52
3.35615	34.51
3.37282	34.52
3.38948	34.52
3.40615	34.52
3.42282	34.52
3.43948	34.52
3.45615	34.52
3.47282	34.52
3.48948	34.52
3.50615	34.52
3.52282	34.52
3.53948	34.52
3.55615	34.52
3.57282	34.52
3.58948	34.51
3.60615	34.52
3.62282	34.52
3.63948	34.51
3.65615	34.52
3.67282	34.52
3.68948	34.52
3.70615	34.52
3.72282	34.52
3.73948	34.52
3.75615	34.52
3.77282	34.51
3.78948	34.52
3.80615	34.51
3.82282	34.52
3.83948	34.52
3.85615	34.52
3.87282	34.52
3.88948	34.52
3.90615	34.52
3.92282	34.52
3.93948	34.52
3.95615	34.52
3.97282	34.52
3.98948	34.52

[Status Trace (Column Flow)]
Interval(msec)	1000
# of Points	240
Start Time(min)	0.006
End Time(min)	3.989
Intensity Units	
Intensity Multiplier	1
R.Time (min)	Intensity
0.00615	5.55
0.02282	5.28
0.03948	5.43
0.05615	5.67
0.07282	5.74
0.08948	5.56
0.10615	5.55
0.12282	5.55
0.13948	5.55
0.15615	5.55
0.17282	5.55
0.18948	5.55
0.20615	5.55
0.22282	5.55
0.23948	5.55
0.25615	5.55
0.27282	5.55
0.28948	5.55
0.30615	5.55
0.32282	5.55
0.33948	5.55
0.35615	5.55
0.37282	5.55
0.38948	5.55
0.40615	5.55
0.42282	5.55
0.43948	5.55
0.45615	5.55
0.47282	5.55
0.48948	5.55
0.50615	5.55
0.52282	5.55
0.53948	5.55
0.55615	5.55
0.57282	5.55
0.58948	5.55
0.60615	5.55
0.62282	5.55
0.63948	5.55
0.65615	5.55
0.67282	5.55
0.68948	5.55
0.70615	5.55
0.72282	5.55
0.73948	5.55
0.75615	5.55
0.77282	5.55
0.78948	5.55
0.80615	5.55
0.82282	5.55
0.83948	5.55
0.85615	5.55
0.87282	5.55
0.88948	5.55
0.90615	5.55
0.92282	5.55
0.93948	5.55
0.95615	5.55
0.97282	5.55
0.98948	5.55
1.00615	5.55
1.02282	5.55
1.03948	5.55
1.05615	5.55
1.07282	5.55
1.08948	5.55
1.10615	5.55
1.12282	5.55
1.13948	5.55
1.15615	5.55
1.17282	5.55
1.18948	5.55
1.20615	5.55
1.22282	5.55
1.23948	5.55
1.25615	5.55
1.27282	5.55
1.28948	5.55
1.30615	5.55
1.32282	5.55
1.33948	5.55
1.35615	5.55
1.37282	5.55
1.38948	5.55
1.40615	5.55
1.42282	5.55
1.43948	5.55
1.45615	5.55
1.47282	5.55
1.48948	5.55
1.50615	5.55
1.52282	5.55
1.53948	5.55
1.55615	5.55
1.57282	5.55
1.58948	5.55
1.60615	5.55
1.62282	5.55
1.63948	5.54
1.65615	5.53
1.67282	5.52
1.68948	5.51
1.70615	5.50
1.72282	5.49
1.73948	5.48
1.75615	5.47
1.77282	5.46
1.78948	5.45
1.80615	5.44
1.82282	5.43
1.83948	5.42
1.85615	5.41
1.87282	5.40
1.88948	5.39
1.90615	5.38
1.92282	5.37
1.93948	5.36
1.95615	5.35
1.97282	5.34
1.98948	5.33
2.00615	5.32
2.02282	5.31
2.03948	5.30
2.05615	5.29
2.07282	5.28
2.08948	5.27
2.10615	5.26
2.12282	5.25
2.13948	5.24
2.15615	5.23
2.17282	5.22
2.18948	5.21
2.20615	5.21
2.22282	5.20
2.23948	5.19
2.25615	5.18
2.27282	5.17
2.28948	5.16
2.30615	5.15
2.32282	5.14
2.33948	5.13
2.35615	5.12
2.37282	5.12
2.38948	5.12
2.40615	5.12
2.42282	5.12
2.43948	5.12
2.45615	5.11
2.47282	5.11
2.48948	5.11
2.50615	5.11
2.52282	5.11
2.53948	5.11
2.55615	5.11
2.57282	5.11
2.58948	5.11
2.60615	5.11
2.62282	5.11
2.63948	5.11
2.65615	5.11
2.67282	5.11
2.68948	5.11
2.70615	5.11
2.72282	5.11
2.73948	5.11
2.75615	5.11
2.77282	5.11
2.78948	5.11
2.80615	5.11
2.82282	5.11
2.83948	5.11
2.85615	5.11
2.87282	5.11
2.88948	5.11
2.90615	5.11
2.92282	5.11
2.93948	5.11
2.95615	5.11
2.97282	5.11
2.98948	5.11
3.00615	5.11
3.02282	5.11
3.03948	5.11
3.05615	5.11
3.07282	5.11
3.08948	5.11
3.10615	5.11
3.12282	5.11
3.13948	5.11
3.15615	5.11
3.17282	5.11
3.18948	5.11
3.20615	5.11
3.22282	5.10
3.23948	5.10
3.25615	5.10
3.27282	5.10
3.28948	5.10
3.30615	5.10
3.32282	5.10
3.33948	5.11
3.35615	5.11
3.37282	5.11
3.38948	5.11
3.40615	5.11
3.42282	5.11
3.43948	5.11
3.45615	5.11
3.47282	5.11
3.48948	5.11
3.50615	5.11
3.52282	5.11
3.53948	5.10
3.55615	5.10
3.57282	5.11
3.58948	5.11
3.60615	5.11
3.62282	5.10
3.63948	5.10
3.65615	5.10
3.67282	5.10
3.68948	5.10
3.70615	5.10
3.72282	5.11
3.73948	5.11
3.75615	5.11
3.77282	5.11
3.78948	5.10
3.80615	5.10
3.82282	5.11
3.83948	5.11
3.85615	5.11
3.87282	5.11
3.88948	5.11
3.90615	5.11
3.92282	5.11
3.93948	5.11
3.95615	5.11
3.97282	5.11
3.98948	5.11

[Status Trace (Linear Velocity)]
Interval(msec)	1000
# of Points	240
Start Time(min)	0.006
End Time(min)	3.989
Intensity Units	
Intensity Multiplier	1
R.Time (min)	Intensity
0.00615	39.02
0.02282	37.47
0.03948	38.31
0.05615	39.68
0.07282	40.06
0.08948	39.08
0.10615	39.00
0.12282	39.02
0.13948	39.02
0.15615	39.02
0.17282	39.02
0.18948	39.03
0.20615	39.03
0.22282	39.03
0.23948	39.03
0.25615	39.03
0.27282	39.03
0.28948	39.03
0.30615	39.03
0.32282	39.03
0.33948	39.03
0.35615	39.03
0.37282	39.02
0.38948	39.02
0.40615	39.02
0.42282	39.02
0.43948	39.02
0.45615	39.02
0.47282	39.02
0.48948	39.02
0.50615	39.02
0.52282	39.02
0.53948	39.02
0.55615	39.02
0.57282	39.02
0.58948	39.02
0.60615	39.02
0.62282	39.02
0.63948	39.02
0.65615	39.02
0.67282	39.02
0.68948	39.02
0.70615	39.02
0.72282	39.02
0.73948	39.02
0.75615	39.02
0.77282	39.02
0.78948	39.02
0.80615	39.02
0.82282	39.02
0.83948	39.02
0.85615	39.02
0.87282	39.02
0.88948	39.03
0.90615	39.02
0.92282	39.02
0.93948	39.02
0.95615	39.02
0.97282	39.02
0.98948	39.02
1.00615	39.02
1.02282	39.02
1.03948	39.02
1.05615	39.02
1.07282	39.02
1.08948	39.03
1.10615	39.03
1.12282	39.03
1.13948	39.02
1.15615	39.02
1.17282	39.02
1.18948	39.02
1.20615	39.02
1.22282	39.02
1.23948	39.02
1.25615	39.02
1.27282	39.02
1.28948	39.02
1.30615	39.02
1.32282	39.02
1.33948	39.02
1.35615	39.02
1.37282	39.03
1.38948	39.02
1.40615	39.02
1.42282	39.02
1.43948	39.02
1.45615	39.02
1.47282	39.02
1.48948	39.02
1.50615	39.02
1.52282	39.02
1.53948	39.02
1.55615	39.02
1.57282	39.02
1.58948	39.02
1.60615	39.02
1.62282	39.01
1.63948	38.99
1.65615	38.97
1.67282	38.94
1.68948	38.90
1.70615	38.87
1.72282	38.84
1.73948	38.80
1.75615	38.77
1.77282	38.74
1.78948	38.71
1.80615	38.68
1.82282	38.65
1.83948	38.61
1.85615	38.58
1.87282	38.55
1.88948	38.52
1.90615	38.49
1.92282	38.46
1.93948	38.43
1.95615	38.40
1.97282	38.37
1.98948	38.34
2.00615	38.31
2.02282	38.28
2.03948	38.25
2.05615	38.22
2.07282	38.19
2.08948	38.16
2.10615	38.13
2.12282	38.10
2.13948	38.07
2.15615	38.04
2.17282	38.01
2.18948	37.98
2.20615	37.95
2.22282	37.92
2.23948	37.89
2.25615	37.86
2.27282	37.83
2.28948	37.80
2.30615	37.77
2.32282	37.74
2.33948	37.72
2.35615	37.69
2.37282	37.67
2.38948	37.66
2.40615	37.66
2.42282	37.67
2.43948	37.67
2.45615	37.66
2.47282	37.66
2.48948	37.66
2.50615	37.66
2.52282	37.65
2.53948	37.66
2.55615	37.66
2.57282	37.66
2.58948	37.66
2.60615	37.66
2.62282	37.65
2.63948	37.66
2.65615	37.66
2.67282	37.65
2.68948	37.65
2.70615	37.65
2.72282	37.65
2.73948	37.65
2.75615	37.65
2.77282	37.65
2.78948	37.65
2.80615	37.65
2.82282	37.65
2.83948	37.65
2.85615	37.65
2.87282	37.65
2.88948	37.65
2.90615	37.65
2.92282	37.65
2.93948	37.65
2.95615	37.64
2.97282	37.64
2.98948	37.64
3.00615	37.64
3.02282	37.64
3.03948	37.64
3.05615	37.64
3.07282	37.64
3.08948	37.64
3.10615	37.64
3.12282	37.64
3.13948	37.64
3.15615	37.64
3.17282	37.64
3.18948	37.63
3.20615	37.63
3.22282	37.63
3.23948	37.63
3.25615	37.63
3.27282	37.63
3.28948	37.63
3.30615	37.63
3.32282	37.63
3.33948	37.64
3.35615	37.64
3.37282	37.64
3.38948	37.64
3.40615	37.64
3.42282	37.64
3.43948	37.64
3.45615	37.64
3.47282	37.64
3.48948	37.64
3.50615	37.63
3.52282	37.63
3.53948	37.63
3.55615	37.63
3.57282	37.63
3.58948	37.63
3.60615	37.63
3.62282	37.63
3.63948	37.63
3.65615	37.63
3.67282	37.63
3.68948	37.63
3.70615	37.63
3.72282	37.63
3.73948	37.63
3.75615	37.63
3.77282	37.63
3.78948	37.63
3.80615	37.63
3.82282	37.63
3.83948	37.63
3.85615	37.63
3.87282	37.63
3.88948	37.63
3.90615	37.64
3.92282	37.64
3.93948	37.64
3.95615	37.64
3.97282	37.64
3.98948	37.64

