[Header]
Application Name	LabSolutions
Version	5.110
Data File Name	C:\Users\User\Desktop\GC Analyses\Jack\Nachusa Grasslands Sampling\T4 Timepoint July 12th\T4_07122022_037.gcd
Output Date	3/17/2023
Output Time	12:04:53 PM

[File Information]
Type	Data File
Generated	3/14/2023 7:28:02 PM
Generated by	System Administrator
Modified	3/14/2023 7:34:54 PM
Modified by	System Administrator

[Sample Information]
Operator Name	System Administrator
Acquired	3/14/2023 7:30:53 PM
Sample Type	0:Unknown
Level	0
Sample Name	037
Sample ID	037
ISTD Amount1	1
ISTD Amount2	1
ISTD Amount3	1
ISTD Amount4	1
ISTD Amount5	1
ISTD Amount6	1
ISTD Amount7	1
ISTD Amount8	1
ISTD Amount9	1
ISTD Amount10	1
ISTD Amount11	1
ISTD Amount12	1
ISTD Amount13	1
ISTD Amount14	1
ISTD Amount15	1
ISTD Amount16	1
ISTD Amount17	1
ISTD Amount18	1
ISTD Amount19	1
ISTD Amount20	1
ISTD Amount21	1
ISTD Amount22	1
ISTD Amount23	1
ISTD Amount24	1
ISTD Amount25	1
ISTD Amount26	1
ISTD Amount27	1
ISTD Amount28	1
ISTD Amount29	1
ISTD Amount30	1
ISTD Amount31	1
ISTD Amount32	1
Sample Amount	1
Dilution Factor	1
Vial#	36
Injection Volume	1
Injection Count	1
Bar Code	

[Original Files]
Data File	C:\Users\User\Desktop\GC Analyses\Jack\Nachusa Grasslands Sampling\T4 Timepoint July 12th\T4_07122022_037.gcd
Method File	C:\LabSolutions\Data\GHG_4min_2022\ghg3_togas_w_acet_4 min_new_int.gcm
Batch File	C:\LabSolutions\Data\AutoSamplerTesting\T4_07122022.gcb
Report Format File	c:\LabSolutions\System\DEFAULT.lsr

[File Description]


[Configuration]
Instrument Name	C0B7VH3-Instrument1
Instrument #	1
Line #	1
# of Detectors	3
Detector ID	DET#1	DET#2	DET#3
Detector Name	FID	PTCD	ECD
# of Channels	1	1	1

[Peak Table(Ch1)]
# of Peaks	3
Peak#	R.Time	I.Time	F.Time	Area	Height	A/H	Conc.	Mark	ID#	Name	k'	Plate #	Plate Ht.	Tailing	Resolution	Sep.Factor	Area Ratio	Height Ratio	Conc. %	Norm Conc.
1	1.476	1.439	1.534	24761	12260	2.020	174.815	   	1	CO	0.000	9667	15.516	1.271	0.000	0.000	0	0	24.924	24.924
2	1.571	1.538	1.622	3613	1847	1.956	69.862	   	2	CH4	0.065	11779	12.734	1.161	1.617	0.000	0	0	9.961	9.961
3	2.000	1.949	2.392	1819755	870158	2.091	456.709	   	3	CO2	0.355	17533	8.555	1.171	7.252	5.500	0	0	65.115	65.115

[Peak Table(Ch2)]
# of Peaks	0

[Peak Table(Ch3)]
# of Peaks	5
Peak#	R.Time	I.Time	F.Time	Area	Height	A/H	Conc.	Mark	ID#	Name	k'	Plate #	Plate Ht.	Tailing	Resolution	Sep.Factor	Area Ratio	Height Ratio	Conc. %	Norm Conc.
1	2.462	2.326	2.510	1980	629	3.149	0.000	   			0.000	10157	14.768	0.000	0.000	0.000	0	0	0.000	0.000
2	2.532	2.510	2.587	1036	339	3.054	0.000	 V 			0.028	6068	24.720	0.000	0.612	0.000	0	0	0.000	0.000
3	2.605	2.587	2.689	531	141	3.758	0.000	 V 			0.058	2692	55.722	0.000	0.443	2.053	0	0	0.000	0.000
4	2.880	2.807	3.056	18052	4793	3.766	0.461	   	1	N2O	0.170	13338	11.246	1.507	1.830	2.923	0	0	100.000	100.000
5	3.258	3.060	3.965	17732	561	31.627	0.000	   	2	SF6	0.323	191	785.730	2.266	0.724	1.904	0	0	0.000	0.000

[Compound Results(Ch1)]
# of IDs	6
ID#	Name	R.Time	Area	Height	Conc.	Curve	3rd	2nd	1st	Constant	Area Ratio	Height Ratio	Conc. %	Norm Conc.
1	CO	1.476	24761	12260	174.815	Linear	0.000000e+00	0.000000e+00	1.416423e+002	0.000000e+00	0	0	24.924	24.924
2	CH4	1.571	3613	1847	69.862	Linear	0.000000e+00	0.000000e+00	5.171738e+001	0.000000e+00	0	0	9.961	9.961
3	CO2	2.000	1819755	870158	456.709	Linear	0.000000e+00	0.000000e+00	3.984494e+003	0.000000e+00	0	0	65.115	65.115
4	Ethylene	0.000	0	0	0.000	Linear	0.000000e+00	0.000000e+00	0.000000e+00	0.000000e+00	0	0	0.000	0.000
5	Acetylene	0.000	0	0	0.000	Linear	0.000000e+00	0.000000e+00	0.000000e+00	0.000000e+00	0	0	0.000	0.000
6	Ethane	0.000	0	0	0.000	Linear	0.000000e+00	0.000000e+00	0.000000e+00	0.000000e+00	0	0	0.000	0.000

[Compound Results(Ch2)]
# of IDs	5
ID#	Name	R.Time	Area	Height	Conc.	Curve	3rd	2nd	1st	Constant	Area Ratio	Height Ratio	Conc. %	Norm Conc.
1	Hydrogen	0.000	0	0	0.000	Linear	0.000000e+00	0.000000e+00	0.000000e+00	0.000000e+00	0	0	0.000	0.000
2	Oxygen	0.000	0	0	0.000	Linear	0.000000e+00	0.000000e+00	0.000000e+00	0.000000e+00	0	0	0.000	0.000
3	Nitrogen	0.000	0	0	0.000	Linear	0.000000e+00	0.000000e+00	0.000000e+00	0.000000e+00	0	0	0.000	0.000
4	Methane	0.000	0	0	0.000	Linear	0.000000e+00	0.000000e+00	0.000000e+00	0.000000e+00	0	0	0.000	0.000
5	Carbon Monoxide	0.000	0	0	0.000	Linear	0.000000e+00	0.000000e+00	0.000000e+00	0.000000e+00	0	0	0.000	0.000

[Compound Results(Ch3)]
# of IDs	2
ID#	Name	R.Time	Area	Height	Conc.	Curve	3rd	2nd	1st	Constant	Area Ratio	Height Ratio	Conc. %	Norm Conc.
1	N2O	2.880	18052	4793	0.461	Linear	0.000000e+00	0.000000e+00	3.915173e+004	0.000000e+00	0	0	100.000	100.000
2	SF6	3.258	17732	561	0.000	Linear	0.000000e+00	0.000000e+00	0.000000e+00	0.000000e+00	0	0	0.000	0.000

[Group Results(Ch1)]
# of Groups	0

[Group Results(Ch2)]
# of Groups	0

[Group Results(Ch3)]
# of Groups	0

[Chromatogram (Ch1)]
Interval(msec)	220
# of Points	1091
Start Time(min)	0.002
End Time(min)	3.998
R.Time (min)	Intensity
0.00167	2
0.00533	4
0.00900	8
0.01267	17
0.01633	27
0.02000	36
0.02367	42
0.02733	46
0.03100	50
0.03467	55
0.03833	61
0.04200	66
0.04567	72
0.04933	80
0.05300	90
0.05667	102
0.06033	106
0.06400	107
0.06767	111
0.07133	117
0.07500	123
0.07867	120
0.08233	121
0.08600	125
0.08967	128
0.09333	131
0.09700	135
0.10067	133
0.10433	126
0.10800	117
0.11167	114
0.11533	114
0.11900	115
0.12267	112
0.12633	113
0.13000	112
0.13367	114
0.13733	115
0.14100	114
0.14467	108
0.14833	96
0.15200	82
0.15567	71
0.15933	64
0.16300	60
0.16667	58
0.17033	59
0.17400	60
0.17767	58
0.18133	55
0.18500	58
0.18867	64
0.19233	69
0.19600	69
0.19967	61
0.20333	50
0.20700	40
0.21067	29
0.21433	25
0.21800	24
0.22167	23
0.22533	28
0.22900	35
0.23267	39
0.23633	41
0.24000	41
0.24367	41
0.24733	41
0.25100	40
0.25467	37
0.25833	33
0.26200	34
0.26567	35
0.26933	35
0.27300	33
0.27667	33
0.28033	35
0.28400	33
0.28767	30
0.29133	27
0.29500	28
0.29867	26
0.30233	24
0.30600	26
0.30967	24
0.31333	21
0.31700	18
0.32067	21
0.32433	28
0.32800	32
0.33167	36
0.33533	41
0.33900	44
0.34267	43
0.34633	42
0.35000	41
0.35367	43
0.35733	47
0.36100	49
0.36467	46
0.36833	45
0.37200	37
0.37567	27
0.37933	17
0.38300	6
0.38667	-3
0.39033	-4
0.39400	-3
0.39767	-0
0.40133	3
0.40500	10
0.40867	19
0.41233	30
0.41600	39
0.41967	40
0.42333	31
0.42700	22
0.43067	13
0.43433	13
0.43800	22
0.44167	30
0.44533	32
0.44900	29
0.45267	19
0.45633	11
0.46000	7
0.46367	7
0.46733	5
0.47100	7
0.47467	14
0.47833	20
0.48200	22
0.48567	21
0.48933	24
0.49300	28
0.49667	32
0.50033	37
0.50400	42
0.50767	42
0.51133	35
0.51500	28
0.51867	18
0.52233	8
0.52600	2
0.52967	-0
0.53333	-0
0.53700	-1
0.54067	2
0.54433	9
0.54800	17
0.55167	18
0.55533	13
0.55900	10
0.56267	12
0.56633	15
0.57000	15
0.57367	14
0.57733	11
0.58100	14
0.58467	24
0.58833	34
0.59200	38
0.59567	33
0.59933	25
0.60300	18
0.60667	14
0.61033	13
0.61400	17
0.61767	19
0.62133	23
0.62500	34
0.62867	43
0.63233	49
0.63600	50
0.63967	44
0.64333	31
0.64700	17
0.65067	8
0.65433	2
0.65800	-1
0.66167	-1
0.66533	2
0.66900	8
0.67267	16
0.67633	23
0.68000	32
0.68367	36
0.68733	38
0.69100	39
0.69467	34
0.69833	26
0.70200	16
0.70567	15
0.70933	7
0.71300	4
0.71667	4
0.72033	2
0.72400	-1
0.72767	-2
0.73133	-6
0.73500	-9
0.73867	-10
0.74233	-12
0.74600	-11
0.74967	-8
0.75333	-3
0.75700	5
0.76067	12
0.76433	11
0.76800	13
0.77167	17
0.77533	19
0.77900	20
0.78267	20
0.78633	16
0.79000	15
0.79367	16
0.79733	17
0.80100	17
0.80467	15
0.80833	22
0.81200	28
0.81567	33
0.81933	32
0.82300	24
0.82667	16
0.83033	11
0.83400	7
0.83767	3
0.84133	1
0.84500	-4
0.84867	-11
0.85233	-13
0.85600	-9
0.85967	-6
0.86333	-8
0.86700	-9
0.87067	-8
0.87433	-7
0.87800	-7
0.88167	-4
0.88533	2
0.88900	12
0.89267	18
0.89633	18
0.90000	16
0.90367	12
0.90733	6
0.91100	1
0.91467	-0
0.91833	1
0.92200	-1
0.92567	-4
0.92933	-10
0.93300	-14
0.93667	-14
0.94033	-14
0.94400	-8
0.94767	2
0.95133	6
0.95500	4
0.95867	-1
0.96233	-7
0.96600	-12
0.96967	-12
0.97333	-8
0.97700	-6
0.98067	-6
0.98433	-1
0.98800	4
0.99167	6
0.99533	3
0.99900	-3
1.00267	-13
1.00633	-21
1.01000	-24
1.01367	-27
1.01733	-25
1.02100	-19
1.02467	-15
1.02833	-11
1.03200	-5
1.03567	0
1.03933	0
1.04300	-5
1.04667	-11
1.05033	-13
1.05400	-13
1.05767	-13
1.06133	-12
1.06500	-12
1.06867	-14
1.07233	-16
1.07600	-18
1.07967	-17
1.08333	-15
1.08700	-14
1.09067	-12
1.09433	-13
1.09800	-13
1.10167	-15
1.10533	-16
1.10900	-17
1.11267	-18
1.11633	-16
1.12000	-12
1.12367	-10
1.12733	-13
1.13100	-19
1.13467	-23
1.13833	-22
1.14200	-19
1.14567	-20
1.14933	-20
1.15300	-19
1.15667	-13
1.16033	-8
1.16400	-9
1.16767	-16
1.17133	-24
1.17500	-29
1.17867	-34
1.18233	-37
1.18600	-40
1.18967	-42
1.19333	-41
1.19700	-42
1.20067	-42
1.20433	-40
1.20800	-34
1.21167	-28
1.21533	-27
1.21900	-29
1.22267	-34
1.22633	-33
1.23000	-24
1.23367	-19
1.23733	-18
1.24100	-20
1.24467	-23
1.24833	-23
1.25200	-22
1.25567	-17
1.25933	-11
1.26300	-9
1.26667	-14
1.27033	-25
1.27400	-35
1.27767	-37
1.28133	-32
1.28500	-25
1.28867	-22
1.29233	-25
1.29600	-32
1.29967	-40
1.30333	-46
1.30700	-49
1.31067	-50
1.31433	-52
1.31800	-52
1.32167	-43
1.32533	-33
1.32900	-22
1.33267	-11
1.33633	-7
1.34000	-15
1.34367	-30
1.34733	-41
1.35100	-48
1.35467	-52
1.35833	-55
1.36200	-56
1.36567	-54
1.36933	-51
1.37300	-48
1.37667	-47
1.38033	-46
1.38400	-46
1.38767	-48
1.39133	-46
1.39500	-44
1.39867	-41
1.40233	-35
1.40600	-28
1.40967	-21
1.41333	-13
1.41700	-9
1.42067	-15
1.42433	-27
1.42800	-38
1.43167	-42
1.43533	-43
1.43900	-40
1.44267	-8
1.44633	123
1.45000	526
1.45367	1569
1.45733	3465
1.46100	5876
1.46467	8235
1.46833	10176
1.47200	11538
1.47567	12204
1.47933	12053
1.48300	11069
1.48667	9449
1.49033	7537
1.49400	5671
1.49767	4072
1.50133	2821
1.50500	1897
1.50867	1237
1.51233	775
1.51600	458
1.51967	243
1.52333	101
1.52700	9
1.53067	-49
1.53433	-80
1.53800	-87
1.54167	-50
1.54533	74
1.54900	323
1.55267	670
1.55633	1036
1.56000	1358
1.56367	1602
1.56733	1744
1.57100	1755
1.57467	1624
1.57833	1376
1.58200	1072
1.58567	775
1.58933	525
1.59300	335
1.59667	200
1.60033	106
1.60400	42
1.60767	-5
1.61133	-40
1.61500	-63
1.61867	-82
1.62233	-99
1.62600	-106
1.62967	-106
1.63333	-103
1.63700	-103
1.64067	-105
1.64433	-109
1.64800	-109
1.65167	-105
1.65533	-101
1.65900	-98
1.66267	-97
1.66633	-96
1.67000	-94
1.67367	-89
1.67733	-86
1.68100	-87
1.68467	-91
1.68833	-89
1.69200	-86
1.69567	-90
1.69933	-96
1.70300	-98
1.70667	-94
1.71033	-91
1.71400	-89
1.71767	-91
1.72133	-93
1.72500	-90
1.72867	-86
1.73233	-90
1.73600	-93
1.73967	-90
1.74333	-83
1.74700	-73
1.75067	-67
1.75433	-67
1.75800	-68
1.76167	-67
1.76533	-68
1.76900	-71
1.77267	-80
1.77633	-89
1.78000	-97
1.78367	-93
1.78733	-93
1.79100	-92
1.79467	-91
1.79833	-87
1.80200	-86
1.80567	-88
1.80933	-84
1.81300	-79
1.81667	-78
1.82033	-77
1.82400	-73
1.82767	-72
1.83133	-75
1.83500	-76
1.83867	-75
1.84233	-66
1.84600	-61
1.84967	-60
1.85333	-62
1.85700	-67
1.86067	-72
1.86433	-75
1.86800	-78
1.87167	-83
1.87533	-87
1.87900	-83
1.88267	-77
1.88633	-76
1.89000	-80
1.89367	-82
1.89733	-79
1.90100	-73
1.90467	-67
1.90833	-63
1.91200	-61
1.91567	-59
1.91933	-63
1.92300	-71
1.92667	-77
1.93033	-78
1.93400	-78
1.93767	-79
1.94133	-80
1.94500	-78
1.94867	-72
1.95233	-54
1.95600	45
1.95967	622
1.96333	3432
1.96700	13838
1.97067	43374
1.97433	108117
1.97800	218769
1.98167	369262
1.98533	536332
1.98900	690706
1.99267	807546
1.99633	869983
2.00000	870116
2.00367	810998
2.00733	706701
2.01100	578752
2.01467	449060
2.01833	333449
2.02200	239547
2.02567	168266
2.02933	116695
2.03300	80597
2.03667	55871
2.04033	39136
2.04400	27867
2.04767	20270
2.05133	15112
2.05500	11568
2.05867	9093
2.06233	7329
2.06600	6046
2.06967	5090
2.07333	4358
2.07700	3781
2.08067	3319
2.08433	2945
2.08800	2641
2.09167	2391
2.09533	2179
2.09900	1999
2.10267	1843
2.10633	1707
2.11000	1589
2.11367	1484
2.11733	1391
2.12100	1315
2.12467	1251
2.12833	1188
2.13200	1127
2.13567	1066
2.13933	1008
2.14300	952
2.14667	904
2.15033	858
2.15400	814
2.15767	779
2.16133	745
2.16500	705
2.16867	667
2.17233	630
2.17600	601
2.17967	580
2.18333	559
2.18700	540
2.19067	525
2.19433	513
2.19800	501
2.20167	486
2.20533	471
2.20900	463
2.21267	457
2.21633	445
2.22000	437
2.22367	431
2.22733	420
2.23100	407
2.23467	389
2.23833	369
2.24200	354
2.24567	345
2.24933	340
2.25300	336
2.25667	335
2.26033	330
2.26400	325
2.26767	318
2.27133	311
2.27500	302
2.27867	291
2.28233	281
2.28600	276
2.28967	279
2.29333	280
2.29700	279
2.30067	277
2.30433	273
2.30800	270
2.31167	266
2.31533	255
2.31900	243
2.32267	235
2.32633	230
2.33000	231
2.33367	235
2.33733	237
2.34100	233
2.34467	227
2.34833	220
2.35200	216
2.35567	216
2.35933	219
2.36300	218
2.36667	212
2.37033	211
2.37400	209
2.37767	201
2.38133	195
2.38500	190
2.38867	188
2.39233	186
2.39600	184
2.39967	186
2.40333	190
2.40700	191
2.41067	188
2.41433	188
2.41800	191
2.42167	191
2.42533	190
2.42900	185
2.43267	175
2.43633	168
2.44000	164
2.44367	162
2.44733	161
2.45100	161
2.45467	161
2.45833	160
2.46200	158
2.46567	154
2.46933	153
2.47300	153
2.47667	152
2.48033	148
2.48400	141
2.48767	135
2.49133	134
2.49500	136
2.49867	140
2.50233	144
2.50600	151
2.50967	158
2.51333	157
2.51700	149
2.52067	140
2.52433	130
2.52800	124
2.53167	125
2.53533	126
2.53900	123
2.54267	128
2.54633	130
2.55000	124
2.55367	118
2.55733	110
2.56100	109
2.56467	114
2.56833	122
2.57200	125
2.57567	122
2.57933	118
2.58300	115
2.58667	113
2.59033	111
2.59400	110
2.59767	106
2.60133	99
2.60500	92
2.60867	89
2.61233	88
2.61600	87
2.61967	93
2.62333	103
2.62700	112
2.63067	115
2.63433	107
2.63800	97
2.64167	93
2.64533	98
2.64900	102
2.65267	102
2.65633	101
2.66000	100
2.66367	98
2.66733	94
2.67100	90
2.67467	88
2.67833	91
2.68200	95
2.68567	97
2.68933	99
2.69300	107
2.69667	114
2.70033	115
2.70400	111
2.70767	101
2.71133	87
2.71500	77
2.71867	70
2.72233	67
2.72600	67
2.72967	68
2.73333	69
2.73700	70
2.74067	76
2.74433	86
2.74800	91
2.75167	90
2.75533	81
2.75900	76
2.76267	72
2.76633	68
2.77000	65
2.77367	63
2.77733	62
2.78100	64
2.78467	72
2.78833	85
2.79200	93
2.79567	96
2.79933	97
2.80300	95
2.80667	94
2.81033	93
2.81400	95
2.81767	96
2.82133	97
2.82500	97
2.82867	95
2.83233	90
2.83600	85
2.83967	82
2.84333	77
2.84700	73
2.85067	71
2.85433	70
2.85800	72
2.86167	71
2.86533	67
2.86900	65
2.87267	63
2.87633	62
2.88000	62
2.88367	65
2.88733	72
2.89100	81
2.89467	83
2.89833	79
2.90200	73
2.90567	64
2.90933	58
2.91300	54
2.91667	59
2.92033	62
2.92400	65
2.92767	75
2.93133	90
2.93500	97
2.93867	93
2.94233	84
2.94600	78
2.94967	72
2.95333	69
2.95700	68
2.96067	64
2.96433	62
2.96800	60
2.97167	60
2.97533	65
2.97900	68
2.98267	67
2.98633	69
2.99000	75
2.99367	77
2.99733	78
3.00100	76
3.00467	73
3.00833	71
3.01200	69
3.01567	70
3.01933	72
3.02300	83
3.02667	94
3.03033	96
3.03400	89
3.03767	81
3.04133	78
3.04500	80
3.04867	84
3.05233	87
3.05600	88
3.05967	89
3.06333	92
3.06700	90
3.07067	85
3.07433	86
3.07800	91
3.08167	89
3.08533	78
3.08900	66
3.09267	57
3.09633	49
3.10000	42
3.10367	37
3.10733	33
3.11100	34
3.11467	41
3.11833	48
3.12200	56
3.12567	66
3.12933	72
3.13300	75
3.13667	78
3.14033	80
3.14400	78
3.14767	72
3.15133	69
3.15500	69
3.15867	68
3.16233	65
3.16600	65
3.16967	66
3.17333	67
3.17700	71
3.18067	72
3.18433	72
3.18800	72
3.19167	70
3.19533	71
3.19900	74
3.20267	76
3.20633	76
3.21000	73
3.21367	72
3.21733	73
3.22100	74
3.22467	72
3.22833	68
3.23200	68
3.23567	72
3.23933	73
3.24300	65
3.24667	56
3.25033	48
3.25400	46
3.25767	53
3.26133	64
3.26500	70
3.26867	68
3.27233	63
3.27600	57
3.27967	54
3.28333	50
3.28700	47
3.29067	50
3.29433	58
3.29800	71
3.30167	77
3.30533	76
3.30900	73
3.31267	67
3.31633	61
3.32000	60
3.32367	60
3.32733	60
3.33100	60
3.33467	61
3.33833	62
3.34200	61
3.34567	59
3.34933	60
3.35300	65
3.35667	73
3.36033	84
3.36400	90
3.36767	90
3.37133	85
3.37500	78
3.37867	74
3.38233	65
3.38600	60
3.38967	65
3.39333	69
3.39700	70
3.40067	70
3.40433	70
3.40800	70
3.41167	68
3.41533	64
3.41900	59
3.42267	56
3.42633	55
3.43000	52
3.43367	50
3.43733	59
3.44100	69
3.44467	75
3.44833	78
3.45200	76
3.45567	72
3.45933	62
3.46300	48
3.46667	38
3.47033	38
3.47400	47
3.47767	57
3.48133	64
3.48500	68
3.48867	67
3.49233	64
3.49600	63
3.49967	62
3.50333	65
3.50700	73
3.51067	84
3.51433	91
3.51800	91
3.52167	83
3.52533	74
3.52900	62
3.53267	53
3.53633	52
3.54000	60
3.54367	73
3.54733	77
3.55100	75
3.55467	70
3.55833	62
3.56200	59
3.56567	54
3.56933	49
3.57300	44
3.57667	41
3.58033	41
3.58400	42
3.58767	40
3.59133	39
3.59500	37
3.59867	39
3.60233	45
3.60600	52
3.60967	56
3.61333	62
3.61700	70
3.62067	71
3.62433	70
3.62800	60
3.63167	50
3.63533	42
3.63900	35
3.64267	32
3.64633	34
3.65000	37
3.65367	43
3.65733	49
3.66100	55
3.66467	56
3.66833	53
3.67200	47
3.67567	39
3.67933	31
3.68300	25
3.68667	25
3.69033	31
3.69400	39
3.69767	48
3.70133	56
3.70500	57
3.70867	54
3.71233	54
3.71600	53
3.71967	48
3.72333	46
3.72700	47
3.73067	53
3.73433	63
3.73800	74
3.74167	78
3.74533	79
3.74900	78
3.75267	74
3.75633	66
3.76000	56
3.76367	44
3.76733	35
3.77100	29
3.77467	23
3.77833	19
3.78200	18
3.78567	21
3.78933	30
3.79300	38
3.79667	47
3.80033	52
3.80400	50
3.80767	45
3.81133	38
3.81500	33
3.81867	27
3.82233	25
3.82600	25
3.82967	29
3.83333	37
3.83700	43
3.84067	40
3.84433	30
3.84800	25
3.85167	23
3.85533	22
3.85900	26
3.86267	34
3.86633	38
3.87000	37
3.87367	34
3.87733	30
3.88100	24
3.88467	21
3.88833	22
3.89200	28
3.89567	35
3.89933	42
3.90300	46
3.90667	49
3.91033	50
3.91400	51
3.91767	48
3.92133	41
3.92500	31
3.92867	20
3.93233	18
3.93600	24
3.93967	28
3.94333	31
3.94700	36
3.95067	42
3.95433	48
3.95800	47
3.96167	43
3.96533	37
3.96900	31
3.97267	31
3.97633	36
3.98000	44
3.98367	45
3.98733	39
3.99100	35
3.99467	30
3.99833	24

[Chromatogram (Ch2)]
Interval(msec)	220
# of Points	1091
Start Time(min)	0.002
End Time(min)	3.998
R.Time (min)	Intensity
0.00167	-0
0.00533	-0
0.00900	-0
0.01267	-1
0.01633	-1
0.02000	-1
0.02367	-1
0.02733	-1
0.03100	-1
0.03467	-0
0.03833	-0
0.04200	-0
0.04567	0
0.04933	0
0.05300	0
0.05667	0
0.06033	0
0.06400	0
0.06767	0
0.07133	1
0.07500	0
0.07867	0
0.08233	0
0.08600	0
0.08967	0
0.09333	1
0.09700	1
0.10067	1
0.10433	2
0.10800	2
0.11167	2
0.11533	3
0.11900	3
0.12267	3
0.12633	3
0.13000	3
0.13367	3
0.13733	3
0.14100	3
0.14467	3
0.14833	2
0.15200	2
0.15567	1
0.15933	1
0.16300	0
0.16667	-0
0.17033	-1
0.17400	-1
0.17767	-1
0.18133	-0
0.18500	0
0.18867	0
0.19233	1
0.19600	1
0.19967	1
0.20333	1
0.20700	1
0.21067	1
0.21433	1
0.21800	1
0.22167	1
0.22533	1
0.22900	1
0.23267	0
0.23633	0
0.24000	0
0.24367	0
0.24733	0
0.25100	0
0.25467	1
0.25833	1
0.26200	1
0.26567	1
0.26933	1
0.27300	2
0.27667	2
0.28033	1
0.28400	1
0.28767	1
0.29133	0
0.29500	-0
0.29867	-1
0.30233	-1
0.30600	-1
0.30967	-1
0.31333	-0
0.31700	-0
0.32067	-0
0.32433	-0
0.32800	-0
0.33167	0
0.33533	0
0.33900	1
0.34267	0
0.34633	0
0.35000	-0
0.35367	-1
0.35733	-1
0.36100	-1
0.36467	-1
0.36833	-1
0.37200	-1
0.37567	-1
0.37933	-2
0.38300	-2
0.38667	-2
0.39033	-2
0.39400	-3
0.39767	-3
0.40133	-3
0.40500	-3
0.40867	-3
0.41233	-4
0.41600	-4
0.41967	-4
0.42333	-4
0.42700	-4
0.43067	-4
0.43433	-4
0.43800	-4
0.44167	-4
0.44533	-3
0.44900	-3
0.45267	-3
0.45633	-2
0.46000	-2
0.46367	-2
0.46733	-2
0.47100	-1
0.47467	-1
0.47833	-1
0.48200	-1
0.48567	-1
0.48933	-1
0.49300	-1
0.49667	-1
0.50033	-1
0.50400	-1
0.50767	-1
0.51133	-1
0.51500	-1
0.51867	-1
0.52233	-1
0.52600	-1
0.52967	-2
0.53333	-2
0.53700	-2
0.54067	-2
0.54433	-3
0.54800	-3
0.55167	-3
0.55533	-3
0.55900	-3
0.56267	-3
0.56633	-3
0.57000	-3
0.57367	-3
0.57733	-3
0.58100	-3
0.58467	-3
0.58833	-3
0.59200	-3
0.59567	-2
0.59933	-2
0.60300	-2
0.60667	-2
0.61033	-2
0.61400	-2
0.61767	-2
0.62133	-2
0.62500	-2
0.62867	-2
0.63233	-2
0.63600	-2
0.63967	-2
0.64333	-2
0.64700	-2
0.65067	-2
0.65433	-2
0.65800	-2
0.66167	-2
0.66533	-2
0.66900	-2
0.67267	-3
0.67633	-3
0.68000	-3
0.68367	-3
0.68733	-3
0.69100	-3
0.69467	-3
0.69833	-3
0.70200	-3
0.70567	-3
0.70933	-3
0.71300	-3
0.71667	-3
0.72033	-4
0.72400	-4
0.72767	-4
0.73133	-4
0.73500	-4
0.73867	-4
0.74233	-4
0.74600	-5
0.74967	-5
0.75333	-5
0.75700	-5
0.76067	-5
0.76433	-5
0.76800	-4
0.77167	-4
0.77533	-4
0.77900	-3
0.78267	-3
0.78633	-2
0.79000	-2
0.79367	-2
0.79733	-2
0.80100	-2
0.80467	-2
0.80833	-2
0.81200	-2
0.81567	-2
0.81933	-2
0.82300	-2
0.82667	-2
0.83033	-2
0.83400	-2
0.83767	-2
0.84133	-2
0.84500	-2
0.84867	-2
0.85233	-2
0.85600	-2
0.85967	-3
0.86333	-3
0.86700	-3
0.87067	-2
0.87433	-2
0.87800	-2
0.88167	-2
0.88533	-2
0.88900	-2
0.89267	-2
0.89633	-2
0.90000	-2
0.90367	-3
0.90733	-3
0.91100	-3
0.91467	-3
0.91833	-3
0.92200	-2
0.92567	-2
0.92933	-1
0.93300	-1
0.93667	-1
0.94033	-1
0.94400	-0
0.94767	-0
0.95133	-0
0.95500	-0
0.95867	-0
0.96233	-0
0.96600	-0
0.96967	-0
0.97333	-0
0.97700	-1
0.98067	-1
0.98433	-1
0.98800	-1
0.99167	-2
0.99533	-2
0.99900	-2
1.00267	-2
1.00633	-3
1.01000	-3
1.01367	-4
1.01733	-4
1.02100	-5
1.02467	-5
1.02833	-5
1.03200	-5
1.03567	-5
1.03933	-5
1.04300	-5
1.04667	-5
1.05033	-5
1.05400	-4
1.05767	-4
1.06133	-3
1.06500	-3
1.06867	-2
1.07233	-2
1.07600	-2
1.07967	-1
1.08333	-1
1.08700	-1
1.09067	-1
1.09433	-1
1.09800	-1
1.10167	-1
1.10533	-1
1.10900	-1
1.11267	-1
1.11633	-0
1.12000	-0
1.12367	-0
1.12733	-0
1.13100	-0
1.13467	-0
1.13833	-0
1.14200	-0
1.14567	-1
1.14933	-1
1.15300	-2
1.15667	-2
1.16033	-3
1.16400	-4
1.16767	-4
1.17133	-4
1.17500	-4
1.17867	-4
1.18233	-4
1.18600	-5
1.18967	-5
1.19333	-5
1.19700	-6
1.20067	-6
1.20433	-6
1.20800	-7
1.21167	-7
1.21533	-7
1.21900	-6
1.22267	-6
1.22633	-6
1.23000	-6
1.23367	-5
1.23733	-5
1.24100	-5
1.24467	-4
1.24833	-4
1.25200	-4
1.25567	-4
1.25933	-4
1.26300	-3
1.26667	-3
1.27033	-3
1.27400	-3
1.27767	-3
1.28133	-3
1.28500	-3
1.28867	-3
1.29233	-3
1.29600	-3
1.29967	-3
1.30333	-4
1.30700	-4
1.31067	-3
1.31433	-3
1.31800	-4
1.32167	-4
1.32533	-4
1.32900	-4
1.33267	-4
1.33633	-4
1.34000	-3
1.34367	-3
1.34733	-3
1.35100	-3
1.35467	-3
1.35833	-3
1.36200	-2
1.36567	-2
1.36933	-2
1.37300	-2
1.37667	-2
1.38033	-2
1.38400	-2
1.38767	-2
1.39133	-2
1.39500	-1
1.39867	-1
1.40233	-2
1.40600	-2
1.40967	-2
1.41333	-2
1.41700	-3
1.42067	-3
1.42433	-3
1.42800	-3
1.43167	-4
1.43533	-4
1.43900	-4
1.44267	-4
1.44633	-5
1.45000	-5
1.45367	-5
1.45733	-6
1.46100	-6
1.46467	-7
1.46833	-7
1.47200	-7
1.47567	-8
1.47933	-8
1.48300	-8
1.48667	-8
1.49033	-8
1.49400	-8
1.49767	-8
1.50133	-7
1.50500	-7
1.50867	-6
1.51233	-6
1.51600	-6
1.51967	-6
1.52333	-5
1.52700	-5
1.53067	-5
1.53433	-5
1.53800	-4
1.54167	-4
1.54533	-4
1.54900	-4
1.55267	-4
1.55633	-4
1.56000	-4
1.56367	-4
1.56733	-4
1.57100	-4
1.57467	-4
1.57833	-4
1.58200	-4
1.58567	-4
1.58933	-4
1.59300	-4
1.59667	-4
1.60033	-5
1.60400	-6
1.60767	-7
1.61133	-9
1.61500	-11
1.61867	-13
1.62233	-16
1.62600	-18
1.62967	-21
1.63333	-24
1.63700	-28
1.64067	-31
1.64433	-34
1.64800	-38
1.65167	-42
1.65533	-46
1.65900	-50
1.66267	-54
1.66633	-59
1.67000	-64
1.67367	-69
1.67733	-74
1.68100	-80
1.68467	-84
1.68833	-89
1.69200	-93
1.69567	-96
1.69933	-99
1.70300	-102
1.70667	-104
1.71033	-106
1.71400	-107
1.71767	-108
1.72133	-108
1.72500	-109
1.72867	-109
1.73233	-109
1.73600	-109
1.73967	-109
1.74333	-110
1.74700	-110
1.75067	-111
1.75433	-112
1.75800	-113
1.76167	-114
1.76533	-115
1.76900	-116
1.77267	-116
1.77633	-116
1.78000	-115
1.78367	-115
1.78733	-114
1.79100	-113
1.79467	-112
1.79833	-112
1.80200	-112
1.80567	-112
1.80933	-113
1.81300	-113
1.81667	-114
1.82033	-115
1.82400	-116
1.82767	-116
1.83133	-117
1.83500	-117
1.83867	-117
1.84233	-117
1.84600	-117
1.84967	-116
1.85333	-116
1.85700	-116
1.86067	-116
1.86433	-115
1.86800	-115
1.87167	-116
1.87533	-116
1.87900	-116
1.88267	-116
1.88633	-116
1.89000	-116
1.89367	-115
1.89733	-115
1.90100	-114
1.90467	-114
1.90833	-114
1.91200	-113
1.91567	-113
1.91933	-113
1.92300	-112
1.92667	-112
1.93033	-112
1.93400	-111
1.93767	-111
1.94133	-112
1.94500	-112
1.94867	-112
1.95233	-112
1.95600	-111
1.95967	-111
1.96333	-110
1.96700	-110
1.97067	-110
1.97433	-110
1.97800	-111
1.98167	-111
1.98533	-111
1.98900	-111
1.99267	-110
1.99633	-110
2.00000	-109
2.00367	-108
2.00733	-108
2.01100	-108
2.01467	-108
2.01833	-109
2.02200	-109
2.02567	-110
2.02933	-110
2.03300	-109
2.03667	-109
2.04033	-108
2.04400	-107
2.04767	-107
2.05133	-106
2.05500	-105
2.05867	-105
2.06233	-105
2.06600	-104
2.06967	-104
2.07333	-104
2.07700	-103
2.08067	-103
2.08433	-102
2.08800	-102
2.09167	-101
2.09533	-101
2.09900	-101
2.10267	-101
2.10633	-101
2.11000	-101
2.11367	-101
2.11733	-101
2.12100	-101
2.12467	-101
2.12833	-101
2.13200	-100
2.13567	-100
2.13933	-99
2.14300	-99
2.14667	-98
2.15033	-98
2.15400	-97
2.15767	-96
2.16133	-96
2.16500	-95
2.16867	-94
2.17233	-94
2.17600	-94
2.17967	-94
2.18333	-94
2.18700	-93
2.19067	-93
2.19433	-93
2.19800	-92
2.20167	-92
2.20533	-92
2.20900	-92
2.21267	-92
2.21633	-92
2.22000	-92
2.22367	-92
2.22733	-92
2.23100	-91
2.23467	-91
2.23833	-91
2.24200	-90
2.24567	-89
2.24933	-89
2.25300	-88
2.25667	-88
2.26033	-87
2.26400	-87
2.26767	-86
2.27133	-86
2.27500	-86
2.27867	-85
2.28233	-85
2.28600	-85
2.28967	-85
2.29333	-85
2.29700	-85
2.30067	-84
2.30433	-84
2.30800	-84
2.31167	-84
2.31533	-84
2.31900	-83
2.32267	-83
2.32633	-82
2.33000	-81
2.33367	-80
2.33733	-80
2.34100	-79
2.34467	-80
2.34833	-81
2.35200	-81
2.35567	-81
2.35933	-81
2.36300	-79
2.36667	-77
2.37033	-75
2.37400	-72
2.37767	-69
2.38133	-65
2.38500	-60
2.38867	-56
2.39233	-51
2.39600	-46
2.39967	-41
2.40333	-36
2.40700	-32
2.41067	-28
2.41433	-24
2.41800	-21
2.42167	-18
2.42533	-16
2.42900	-14
2.43267	-12
2.43633	-10
2.44000	-9
2.44367	-8
2.44733	-7
2.45100	-6
2.45467	-6
2.45833	-6
2.46200	-5
2.46567	-5
2.46933	-5
2.47300	-4
2.47667	-3
2.48033	-2
2.48400	-1
2.48767	0
2.49133	1
2.49500	2
2.49867	3
2.50233	3
2.50600	4
2.50967	5
2.51333	5
2.51700	6
2.52067	7
2.52433	7
2.52800	8
2.53167	9
2.53533	10
2.53900	10
2.54267	11
2.54633	12
2.55000	13
2.55367	13
2.55733	13
2.56100	13
2.56467	13
2.56833	13
2.57200	13
2.57567	14
2.57933	14
2.58300	14
2.58667	14
2.59033	14
2.59400	14
2.59767	13
2.60133	13
2.60500	13
2.60867	13
2.61233	13
2.61600	13
2.61967	13
2.62333	13
2.62700	13
2.63067	13
2.63433	13
2.63800	14
2.64167	14
2.64533	15
2.64900	15
2.65267	16
2.65633	16
2.66000	16
2.66367	16
2.66733	16
2.67100	16
2.67467	16
2.67833	17
2.68200	17
2.68567	18
2.68933	18
2.69300	18
2.69667	19
2.70033	19
2.70400	19
2.70767	20
2.71133	20
2.71500	20
2.71867	21
2.72233	21
2.72600	21
2.72967	21
2.73333	21
2.73700	21
2.74067	21
2.74433	21
2.74800	21
2.75167	21
2.75533	21
2.75900	21
2.76267	21
2.76633	22
2.77000	22
2.77367	23
2.77733	23
2.78100	23
2.78467	24
2.78833	24
2.79200	24
2.79567	24
2.79933	25
2.80300	25
2.80667	25
2.81033	25
2.81400	25
2.81767	26
2.82133	26
2.82500	27
2.82867	27
2.83233	27
2.83600	27
2.83967	26
2.84333	26
2.84700	24
2.85067	20
2.85433	14
2.85800	6
2.86167	-7
2.86533	-22
2.86900	-43
2.87267	-67
2.87633	-96
2.88000	-130
2.88367	-168
2.88733	-209
2.89100	-254
2.89467	-303
2.89833	-354
2.90200	-407
2.90567	-462
2.90933	-517
2.91300	-574
2.91667	-630
2.92033	-685
2.92400	-740
2.92767	-793
2.93133	-845
2.93500	-897
2.93867	-953
2.94233	-1011
2.94600	-1064
2.94967	-1101
2.95333	-1114
2.95700	-1101
2.96067	-1063
2.96433	-1007
2.96800	-937
2.97167	-859
2.97533	-778
2.97900	-697
2.98267	-619
2.98633	-545
2.99000	-477
2.99367	-416
2.99733	-360
3.00100	-311
3.00467	-267
3.00833	-229
3.01200	-195
3.01567	-166
3.01933	-141
3.02300	-119
3.02667	-100
3.03033	-83
3.03400	-70
3.03767	-58
3.04133	-48
3.04500	-39
3.04867	-32
3.05233	-25
3.05600	-20
3.05967	-15
3.06333	-11
3.06700	-7
3.07067	-5
3.07433	-2
3.07800	0
3.08167	2
3.08533	4
3.08900	6
3.09267	7
3.09633	8
3.10000	9
3.10367	10
3.10733	10
3.11100	11
3.11467	12
3.11833	12
3.12200	13
3.12567	13
3.12933	13
3.13300	14
3.13667	14
3.14033	14
3.14400	15
3.14767	15
3.15133	15
3.15500	15
3.15867	15
3.16233	15
3.16600	15
3.16967	15
3.17333	15
3.17700	16
3.18067	16
3.18433	16
3.18800	16
3.19167	17
3.19533	17
3.19900	17
3.20267	18
3.20633	18
3.21000	18
3.21367	18
3.21733	19
3.22100	19
3.22467	19
3.22833	20
3.23200	20
3.23567	20
3.23933	20
3.24300	20
3.24667	21
3.25033	21
3.25400	21
3.25767	21
3.26133	21
3.26500	20
3.26867	20
3.27233	20
3.27600	20
3.27967	21
3.28333	21
3.28700	21
3.29067	21
3.29433	21
3.29800	21
3.30167	21
3.30533	21
3.30900	21
3.31267	21
3.31633	21
3.32000	21
3.32367	20
3.32733	20
3.33100	20
3.33467	20
3.33833	20
3.34200	20
3.34567	21
3.34933	21
3.35300	21
3.35667	21
3.36033	21
3.36400	22
3.36767	22
3.37133	22
3.37500	23
3.37867	23
3.38233	24
3.38600	24
3.38967	25
3.39333	25
3.39700	25
3.40067	26
3.40433	26
3.40800	26
3.41167	26
3.41533	26
3.41900	26
3.42267	26
3.42633	26
3.43000	26
3.43367	26
3.43733	26
3.44100	25
3.44467	25
3.44833	25
3.45200	25
3.45567	25
3.45933	25
3.46300	25
3.46667	25
3.47033	25
3.47400	25
3.47767	25
3.48133	25
3.48500	24
3.48867	24
3.49233	24
3.49600	24
3.49967	24
3.50333	24
3.50700	24
3.51067	24
3.51433	24
3.51800	24
3.52167	24
3.52533	24
3.52900	24
3.53267	24
3.53633	24
3.54000	24
3.54367	24
3.54733	24
3.55100	24
3.55467	23
3.55833	23
3.56200	23
3.56567	23
3.56933	23
3.57300	24
3.57667	24
3.58033	24
3.58400	23
3.58767	23
3.59133	24
3.59500	23
3.59867	23
3.60233	23
3.60600	23
3.60967	22
3.61333	22
3.61700	22
3.62067	22
3.62433	22
3.62800	22
3.63167	22
3.63533	22
3.63900	22
3.64267	23
3.64633	23
3.65000	23
3.65367	23
3.65733	23
3.66100	24
3.66467	24
3.66833	24
3.67200	24
3.67567	24
3.67933	24
3.68300	24
3.68667	24
3.69033	24
3.69400	24
3.69767	24
3.70133	24
3.70500	24
3.70867	24
3.71233	23
3.71600	23
3.71967	23
3.72333	23
3.72700	23
3.73067	23
3.73433	23
3.73800	23
3.74167	22
3.74533	22
3.74900	22
3.75267	22
3.75633	22
3.76000	22
3.76367	22
3.76733	23
3.77100	23
3.77467	23
3.77833	23
3.78200	23
3.78567	23
3.78933	23
3.79300	24
3.79667	24
3.80033	24
3.80400	24
3.80767	24
3.81133	24
3.81500	24
3.81867	24
3.82233	24
3.82600	24
3.82967	24
3.83333	24
3.83700	24
3.84067	24
3.84433	23
3.84800	23
3.85167	23
3.85533	23
3.85900	23
3.86267	23
3.86633	23
3.87000	23
3.87367	23
3.87733	23
3.88100	23
3.88467	23
3.88833	23
3.89200	23
3.89567	23
3.89933	23
3.90300	23
3.90667	23
3.91033	23
3.91400	23
3.91767	23
3.92133	22
3.92500	22
3.92867	22
3.93233	22
3.93600	22
3.93967	22
3.94333	22
3.94700	22
3.95067	22
3.95433	22
3.95800	22
3.96167	23
3.96533	23
3.96900	23
3.97267	23
3.97633	23
3.98000	24
3.98367	24
3.98733	24
3.99100	24
3.99467	24
3.99833	24

[Chromatogram (Ch3)]
Interval(msec)	220
# of Points	1091
Start Time(min)	0.002
End Time(min)	3.998
R.Time (min)	Intensity
0.00167	-0
0.00533	1
0.00900	2
0.01267	2
0.01633	2
0.02000	4
0.02367	2
0.02733	0
0.03100	-1
0.03467	-0
0.03833	1
0.04200	0
0.04567	-1
0.04933	-1
0.05300	-0
0.05667	1
0.06033	1
0.06400	1
0.06767	0
0.07133	-1
0.07500	-2
0.07867	-3
0.08233	-2
0.08600	-1
0.08967	1
0.09333	1
0.09700	1
0.10067	2
0.10433	1
0.10800	0
0.11167	1
0.11533	3
0.11900	5
0.12267	6
0.12633	7
0.13000	6
0.13367	7
0.13733	6
0.14100	4
0.14467	0
0.14833	-2
0.15200	-1
0.15567	-1
0.15933	-1
0.16300	0
0.16667	2
0.17033	2
0.17400	2
0.17767	1
0.18133	0
0.18500	1
0.18867	0
0.19233	-1
0.19600	-2
0.19967	-2
0.20333	-0
0.20700	1
0.21067	2
0.21433	4
0.21800	5
0.22167	3
0.22533	1
0.22900	-2
0.23267	-4
0.23633	-4
0.24000	-1
0.24367	2
0.24733	4
0.25100	3
0.25467	1
0.25833	-1
0.26200	-1
0.26567	0
0.26933	1
0.27300	2
0.27667	2
0.28033	0
0.28400	-0
0.28767	1
0.29133	1
0.29500	0
0.29867	-0
0.30233	1
0.30600	1
0.30967	1
0.31333	2
0.31700	3
0.32067	6
0.32433	6
0.32800	7
0.33167	5
0.33533	2
0.33900	2
0.34267	2
0.34633	2
0.35000	2
0.35367	1
0.35733	0
0.36100	-0
0.36467	-1
0.36833	-0
0.37200	1
0.37567	1
0.37933	0
0.38300	2
0.38667	4
0.39033	5
0.39400	4
0.39767	3
0.40133	2
0.40500	0
0.40867	-2
0.41233	-3
0.41600	-3
0.41967	-1
0.42333	0
0.42700	2
0.43067	1
0.43433	2
0.43800	2
0.44167	3
0.44533	4
0.44900	5
0.45267	4
0.45633	3
0.46000	1
0.46367	1
0.46733	1
0.47100	1
0.47467	2
0.47833	1
0.48200	1
0.48567	0
0.48933	0
0.49300	1
0.49667	1
0.50033	1
0.50400	1
0.50767	3
0.51133	4
0.51500	4
0.51867	4
0.52233	5
0.52600	4
0.52967	3
0.53333	4
0.53700	4
0.54067	3
0.54433	2
0.54800	3
0.55167	3
0.55533	3
0.55900	3
0.56267	3
0.56633	3
0.57000	2
0.57367	1
0.57733	-0
0.58100	-1
0.58467	-2
0.58833	-1
0.59200	1
0.59567	2
0.59933	2
0.60300	3
0.60667	3
0.61033	4
0.61400	6
0.61767	8
0.62133	8
0.62500	8
0.62867	6
0.63233	5
0.63600	6
0.63967	7
0.64333	7
0.64700	6
0.65067	7
0.65433	5
0.65800	3
0.66167	5
0.66533	7
0.66900	9
0.67267	10
0.67633	12
0.68000	13
0.68367	13
0.68733	12
0.69100	11
0.69467	11
0.69833	10
0.70200	9
0.70567	9
0.70933	8
0.71300	7
0.71667	5
0.72033	5
0.72400	5
0.72767	6
0.73133	9
0.73500	10
0.73867	8
0.74233	7
0.74600	6
0.74967	7
0.75333	8
0.75700	11
0.76067	14
0.76433	14
0.76800	14
0.77167	12
0.77533	11
0.77900	14
0.78267	15
0.78633	16
0.79000	15
0.79367	14
0.79733	15
0.80100	14
0.80467	13
0.80833	14
0.81200	15
0.81567	15
0.81933	13
0.82300	12
0.82667	11
0.83033	12
0.83400	13
0.83767	12
0.84133	11
0.84500	12
0.84867	12
0.85233	11
0.85600	11
0.85967	9
0.86333	9
0.86700	10
0.87067	13
0.87433	15
0.87800	15
0.88167	15
0.88533	16
0.88900	17
0.89267	18
0.89633	16
0.90000	13
0.90367	11
0.90733	9
0.91100	10
0.91467	12
0.91833	13
0.92200	12
0.92567	12
0.92933	14
0.93300	18
0.93667	19
0.94033	18
0.94400	16
0.94767	15
0.95133	12
0.95500	11
0.95867	11
0.96233	11
0.96600	12
0.96967	13
0.97333	14
0.97700	14
0.98067	14
0.98433	14
0.98800	14
0.99167	13
0.99533	13
0.99900	14
1.00267	13
1.00633	13
1.01000	13
1.01367	14
1.01733	13
1.02100	12
1.02467	12
1.02833	12
1.03200	14
1.03567	16
1.03933	18
1.04300	18
1.04667	17
1.05033	18
1.05400	18
1.05767	17
1.06133	16
1.06500	14
1.06867	14
1.07233	15
1.07600	18
1.07967	19
1.08333	19
1.08700	20
1.09067	20
1.09433	22
1.09800	21
1.10167	20
1.10533	18
1.10900	16
1.11267	17
1.11633	17
1.12000	17
1.12367	17
1.12733	18
1.13100	19
1.13467	18
1.13833	16
1.14200	16
1.14567	16
1.14933	17
1.15300	19
1.15667	18
1.16033	16
1.16400	16
1.16767	17
1.17133	18
1.17500	21
1.17867	23
1.18233	24
1.18600	21
1.18967	17
1.19333	15
1.19700	15
1.20067	15
1.20433	16
1.20800	18
1.21167	20
1.21533	21
1.21900	19
1.22267	16
1.22633	17
1.23000	17
1.23367	17
1.23733	16
1.24100	17
1.24467	19
1.24833	20
1.25200	21
1.25567	19
1.25933	16
1.26300	14
1.26667	11
1.27033	12
1.27400	15
1.27767	17
1.28133	18
1.28500	18
1.28867	19
1.29233	19
1.29600	18
1.29967	18
1.30333	19
1.30700	19
1.31067	18
1.31433	17
1.31800	18
1.32167	20
1.32533	21
1.32900	21
1.33267	20
1.33633	20
1.34000	19
1.34367	19
1.34733	20
1.35100	21
1.35467	20
1.35833	20
1.36200	20
1.36567	22
1.36933	23
1.37300	26
1.37667	26
1.38033	26
1.38400	27
1.38767	25
1.39133	24
1.39500	25
1.39867	23
1.40233	22
1.40600	22
1.40967	22
1.41333	21
1.41700	21
1.42067	22
1.42433	23
1.42800	21
1.43167	21
1.43533	22
1.43900	23
1.44267	23
1.44633	24
1.45000	25
1.45367	24
1.45733	23
1.46100	25
1.46467	25
1.46833	26
1.47200	27
1.47567	27
1.47933	26
1.48300	24
1.48667	22
1.49033	22
1.49400	23
1.49767	23
1.50133	22
1.50500	21
1.50867	20
1.51233	20
1.51600	21
1.51967	23
1.52333	23
1.52700	22
1.53067	21
1.53433	23
1.53800	25
1.54167	25
1.54533	24
1.54900	24
1.55267	25
1.55633	24
1.56000	23
1.56367	23
1.56733	25
1.57100	27
1.57467	28
1.57833	28
1.58200	27
1.58567	26
1.58933	26
1.59300	26
1.59667	26
1.60033	22
1.60400	19
1.60767	19
1.61133	21
1.61500	24
1.61867	27
1.62233	30
1.62600	33
1.62967	35
1.63333	34
1.63700	33
1.64067	33
1.64433	32
1.64800	32
1.65167	30
1.65533	28
1.65900	30
1.66267	33
1.66633	35
1.67000	37
1.67367	39
1.67733	41
1.68100	42
1.68467	42
1.68833	42
1.69200	43
1.69567	46
1.69933	47
1.70300	46
1.70667	43
1.71033	42
1.71400	40
1.71767	39
1.72133	40
1.72500	40
1.72867	41
1.73233	42
1.73600	43
1.73967	43
1.74333	43
1.74700	42
1.75067	41
1.75433	42
1.75800	44
1.76167	46
1.76533	48
1.76900	49
1.77267	49
1.77633	50
1.78000	49
1.78367	47
1.78733	44
1.79100	43
1.79467	45
1.79833	45
1.80200	48
1.80567	50
1.80933	50
1.81300	52
1.81667	53
1.82033	54
1.82400	53
1.82767	54
1.83133	54
1.83500	54
1.83867	55
1.84233	56
1.84600	55
1.84967	55
1.85333	55
1.85700	55
1.86067	54
1.86433	55
1.86800	56
1.87167	57
1.87533	58
1.87900	60
1.88267	61
1.88633	60
1.89000	60
1.89367	62
1.89733	63
1.90100	63
1.90467	64
1.90833	63
1.91200	63
1.91567	64
1.91933	67
1.92300	69
1.92667	69
1.93033	70
1.93400	71
1.93767	75
1.94133	78
1.94500	79
1.94867	78
1.95233	80
1.95600	82
1.95967	83
1.96333	85
1.96700	84
1.97067	83
1.97433	81
1.97800	80
1.98167	84
1.98533	88
1.98900	90
1.99267	90
1.99633	89
2.00000	90
2.00367	90
2.00733	91
2.01100	94
2.01467	96
2.01833	98
2.02200	101
2.02567	102
2.02933	101
2.03300	102
2.03667	103
2.04033	107
2.04400	111
2.04767	111
2.05133	110
2.05500	111
2.05867	112
2.06233	113
2.06600	114
2.06967	114
2.07333	115
2.07700	117
2.08067	118
2.08433	117
2.08800	118
2.09167	121
2.09533	124
2.09900	125
2.10267	124
2.10633	126
2.11000	128
2.11367	130
2.11733	131
2.12100	134
2.12467	137
2.12833	138
2.13200	139
2.13567	139
2.13933	140
2.14300	141
2.14667	141
2.15033	142
2.15400	144
2.15767	148
2.16133	151
2.16500	155
2.16867	155
2.17233	156
2.17600	155
2.17967	156
2.18333	156
2.18700	156
2.19067	155
2.19433	156
2.19800	159
2.20167	160
2.20533	161
2.20900	164
2.21267	167
2.21633	171
2.22000	172
2.22367	172
2.22733	174
2.23100	174
2.23467	175
2.23833	176
2.24200	177
2.24567	178
2.24933	179
2.25300	180
2.25667	181
2.26033	181
2.26400	181
2.26767	184
2.27133	186
2.27500	189
2.27867	191
2.28233	191
2.28600	192
2.28967	196
2.29333	199
2.29700	201
2.30067	202
2.30433	202
2.30800	200
2.31167	200
2.31533	201
2.31900	203
2.32267	204
2.32633	204
2.33000	206
2.33367	208
2.33733	209
2.34100	210
2.34467	211
2.34833	212
2.35200	214
2.35567	215
2.35933	216
2.36300	217
2.36667	219
2.37033	221
2.37400	220
2.37767	220
2.38133	220
2.38500	222
2.38867	221
2.39233	222
2.39600	224
2.39967	228
2.40333	231
2.40700	233
2.41067	236
2.41433	237
2.41800	236
2.42167	235
2.42533	236
2.42900	239
2.43267	240
2.43633	239
2.44000	241
2.44367	295
2.44733	440
2.45100	596
2.45467	724
2.45833	794
2.46200	799
2.46567	766
2.46933	726
2.47300	695
2.47667	677
2.48033	662
2.48400	635
2.48767	598
2.49133	551
2.49500	506
2.49867	470
2.50233	444
2.50600	429
2.50967	422
2.51333	425
2.51700	440
2.52067	460
2.52433	480
2.52800	491
2.53167	491
2.53533	480
2.53900	457
2.54267	427
2.54633	393
2.55000	362
2.55367	336
2.55733	314
2.56100	296
2.56467	283
2.56833	275
2.57200	270
2.57567	266
2.57933	265
2.58300	263
2.58667	263
2.59033	264
2.59400	267
2.59767	272
2.60133	275
2.60500	275
2.60867	274
2.61233	271
2.61600	264
2.61967	256
2.62333	250
2.62700	245
2.63067	239
2.63433	234
2.63800	227
2.64167	220
2.64533	211
2.64900	204
2.65267	195
2.65633	185
2.66000	174
2.66367	162
2.66733	150
2.67100	139
2.67467	129
2.67833	120
2.68200	117
2.68567	115
2.68933	112
2.69300	109
2.69667	108
2.70033	106
2.70400	106
2.70767	107
2.71133	109
2.71500	111
2.71867	114
2.72233	116
2.72600	119
2.72967	123
2.73333	126
2.73700	128
2.74067	132
2.74433	135
2.74800	137
2.75167	138
2.75533	139
2.75900	140
2.76267	142
2.76633	144
2.77000	146
2.77367	146
2.77733	148
2.78100	149
2.78467	150
2.78833	154
2.79200	158
2.79567	163
2.79933	168
2.80300	172
2.80667	173
2.81033	177
2.81400	183
2.81767	189
2.82133	201
2.82500	223
2.82867	261
2.83233	331
2.83600	456
2.83967	655
2.84333	946
2.84700	1340
2.85067	1828
2.85433	2390
2.85800	2987
2.86167	3572
2.86533	4094
2.86900	4515
2.87267	4809
2.87633	4957
2.88000	4965
2.88367	4850
2.88733	4638
2.89100	4356
2.89467	4029
2.89833	3685
2.90200	3340
2.90567	3002
2.90933	2683
2.91300	2390
2.91667	2122
2.92033	1881
2.92400	1667
2.92767	1477
2.93133	1308
2.93500	1159
2.93867	1028
2.94233	915
2.94600	816
2.94967	731
2.95333	656
2.95700	592
2.96067	536
2.96433	484
2.96800	440
2.97167	403
2.97533	372
2.97900	345
2.98267	320
2.98633	299
2.99000	282
2.99367	267
2.99733	254
3.00100	242
3.00467	232
3.00833	222
3.01200	212
3.01567	206
3.01933	202
3.02300	199
3.02667	195
3.03033	193
3.03400	191
3.03767	187
3.04133	182
3.04500	179
3.04867	177
3.05233	173
3.05600	165
3.05967	164
3.06333	175
3.06700	197
3.07067	227
3.07433	260
3.07800	297
3.08167	334
3.08533	371
3.08900	404
3.09267	434
3.09633	459
3.10000	484
3.10367	508
3.10733	529
3.11100	547
3.11467	562
3.11833	574
3.12200	587
3.12567	601
3.12933	613
3.13300	623
3.13667	631
3.14033	639
3.14400	647
3.14767	657
3.15133	665
3.15500	671
3.15867	677
3.16233	683
3.16600	691
3.16967	698
3.17333	702
3.17700	706
3.18067	712
3.18433	720
3.18800	725
3.19167	731
3.19533	735
3.19900	740
3.20267	745
3.20633	751
3.21000	758
3.21367	763
3.21733	769
3.22100	773
3.22467	777
3.22833	781
3.23200	786
3.23567	792
3.23933	795
3.24300	798
3.24667	803
3.25033	807
3.25400	810
3.25767	813
3.26133	815
3.26500	817
3.26867	817
3.27233	817
3.27600	818
3.27967	819
3.28333	821
3.28700	823
3.29067	824
3.29433	823
3.29800	823
3.30167	826
3.30533	828
3.30900	831
3.31267	831
3.31633	829
3.32000	828
3.32367	827
3.32733	828
3.33100	829
3.33467	829
3.33833	828
3.34200	827
3.34567	825
3.34933	823
3.35300	821
3.35667	817
3.36033	814
3.36400	812
3.36767	808
3.37133	805
3.37500	802
3.37867	800
3.38233	799
3.38600	797
3.38967	796
3.39333	795
3.39700	794
3.40067	791
3.40433	789
3.40800	788
3.41167	786
3.41533	785
3.41900	784
3.42267	784
3.42633	783
3.43000	781
3.43367	779
3.43733	777
3.44100	776
3.44467	775
3.44833	773
3.45200	771
3.45567	768
3.45933	767
3.46300	765
3.46667	764
3.47033	765
3.47400	764
3.47767	762
3.48133	760
3.48500	759
3.48867	758
3.49233	758
3.49600	758
3.49967	756
3.50333	753
3.50700	752
3.51067	751
3.51433	750
3.51800	749
3.52167	747
3.52533	745
3.52900	744
3.53267	742
3.53633	741
3.54000	742
3.54367	743
3.54733	742
3.55100	743
3.55467	743
3.55833	742
3.56200	739
3.56567	739
3.56933	738
3.57300	739
3.57667	737
3.58033	733
3.58400	730
3.58767	730
3.59133	730
3.59500	732
3.59867	734
3.60233	732
3.60600	730
3.60967	729
3.61333	728
3.61700	728
3.62067	726
3.62433	724
3.62800	722
3.63167	721
3.63533	721
3.63900	719
3.64267	718
3.64633	716
3.65000	715
3.65367	710
3.65733	710
3.66100	710
3.66467	711
3.66833	710
3.67200	707
3.67567	704
3.67933	702
3.68300	702
3.68667	702
3.69033	700
3.69400	698
3.69767	697
3.70133	694
3.70500	691
3.70867	688
3.71233	686
3.71600	684
3.71967	679
3.72333	675
3.72700	673
3.73067	673
3.73433	674
3.73800	673
3.74167	670
3.74533	668
3.74900	669
3.75267	668
3.75633	663
3.76000	658
3.76367	656
3.76733	657
3.77100	656
3.77467	653
3.77833	652
3.78200	652
3.78567	650
3.78933	646
3.79300	641
3.79667	640
3.80033	640
3.80400	637
3.80767	634
3.81133	632
3.81500	631
3.81867	629
3.82233	628
3.82600	626
3.82967	626
3.83333	626
3.83700	623
3.84067	622
3.84433	621
3.84800	618
3.85167	617
3.85533	616
3.85900	617
3.86267	616
3.86633	615
3.87000	612
3.87367	610
3.87733	609
3.88100	605
3.88467	603
3.88833	601
3.89200	599
3.89567	597
3.89933	594
3.90300	593
3.90667	592
3.91033	591
3.91400	590
3.91767	586
3.92133	585
3.92500	585
3.92867	585
3.93233	584
3.93600	583
3.93967	581
3.94333	578
3.94700	576
3.95067	574
3.95433	573
3.95800	574
3.96167	574
3.96533	571
3.96900	570
3.97267	572
3.97633	571
3.98000	568
3.98367	567
3.98733	566
3.99100	565
3.99467	564
3.99833	561

[Status Trace (Column Oven Temperature)]
Interval(msec)	1000
# of Points	240
Start Time(min)	0.009
End Time(min)	3.993
Intensity Units	
Intensity Multiplier	1
R.Time (min)	Intensity
0.00932	35.06
0.02598	35.05
0.04265	35.05
0.05932	35.05
0.07598	35.06
0.09265	35.05
0.10932	35.04
0.12598	35.03
0.14265	35.03
0.15932	35.04
0.17598	35.04
0.19265	35.02
0.20932	35.01
0.22598	35.02
0.24265	35.02
0.25932	35.01
0.27598	35.01
0.29265	35.01
0.30932	35.00
0.32598	34.99
0.34265	35.00
0.35932	34.99
0.37598	35.00
0.39265	35.00
0.40932	35.00
0.42598	35.01
0.44265	35.01
0.45932	35.00
0.47598	35.00
0.49265	34.99
0.50932	34.99
0.52598	34.99
0.54265	34.99
0.55932	35.00
0.57598	35.00
0.59265	35.01
0.60932	35.00
0.62598	35.01
0.64265	35.01
0.65932	35.00
0.67598	35.00
0.69265	35.01
0.70932	35.02
0.72598	35.02
0.74265	35.03
0.75932	35.03
0.77598	35.04
0.79265	35.03
0.80932	35.03
0.82598	35.03
0.84265	35.03
0.85932	35.02
0.87598	35.03
0.89265	35.04
0.90932	35.03
0.92598	35.01
0.94265	35.00
0.95932	34.99
0.97598	34.98
0.99265	34.98
1.00932	34.99
1.02598	35.01
1.04265	35.01
1.05932	35.00
1.07598	35.00
1.09265	34.99
1.10932	34.97
1.12598	34.96
1.14265	34.97
1.15932	34.98
1.17598	34.99
1.19265	35.00
1.20932	35.02
1.22598	35.01
1.24265	35.00
1.25932	35.00
1.27598	35.00
1.29265	35.00
1.30932	34.99
1.32598	34.99
1.34265	34.99
1.35932	34.98
1.37598	34.98
1.39265	34.97
1.40932	34.97
1.42598	34.98
1.44265	34.99
1.45932	35.02
1.47598	35.03
1.49265	35.03
1.50932	35.03
1.52598	35.02
1.54265	35.01
1.55932	35.01
1.57598	35.00
1.59265	35.01
1.60932	35.06
1.62598	35.18
1.64265	35.37
1.65932	35.63
1.67598	35.99
1.69265	36.36
1.70932	36.71
1.72598	37.04
1.74265	37.36
1.75932	37.73
1.77598	38.04
1.79265	38.34
1.80932	38.67
1.82598	39.02
1.84265	39.35
1.85932	39.68
1.87598	40.01
1.89265	40.33
1.90932	40.66
1.92598	40.97
1.94265	41.31
1.95932	41.62
1.97598	41.96
1.99265	42.27
2.00932	42.59
2.02598	42.93
2.04265	43.26
2.05932	43.59
2.07598	43.93
2.09265	44.25
2.10932	44.59
2.12598	44.92
2.14265	45.25
2.15932	45.56
2.17598	45.90
2.19265	46.21
2.20932	46.54
2.22598	46.88
2.24265	47.22
2.25932	47.55
2.27598	47.87
2.29265	48.19
2.30932	48.51
2.32598	48.83
2.34265	49.18
2.35932	49.48
2.37598	49.63
2.39265	49.66
2.40932	49.67
2.42598	49.68
2.44265	49.68
2.45932	49.68
2.47598	49.69
2.49265	49.71
2.50932	49.73
2.52598	49.73
2.54265	49.73
2.55932	49.76
2.57598	49.77
2.59265	49.79
2.60932	49.80
2.62598	49.82
2.64265	49.81
2.65932	49.83
2.67598	49.85
2.69265	49.86
2.70932	49.85
2.72598	49.85
2.74265	49.87
2.75932	49.88
2.77598	49.88
2.79265	49.87
2.80932	49.86
2.82598	49.86
2.84265	49.85
2.85932	49.88
2.87598	49.92
2.89265	49.93
2.90932	49.94
2.92598	49.95
2.94265	49.96
2.95932	49.97
2.97598	49.98
2.99265	49.99
3.00932	49.99
3.02598	49.99
3.04265	49.99
3.05932	50.00
3.07598	50.00
3.09265	50.00
3.10932	50.01
3.12598	50.01
3.14265	50.03
3.15932	50.05
3.17598	50.05
3.19265	50.06
3.20932	50.07
3.22598	50.06
3.24265	50.06
3.25932	50.08
3.27598	50.08
3.29265	50.08
3.30932	50.09
3.32598	50.10
3.34265	50.11
3.35932	50.10
3.37598	50.09
3.39265	50.07
3.40932	50.05
3.42598	50.04
3.44265	50.03
3.45932	50.03
3.47598	50.03
3.49265	50.03
3.50932	50.03
3.52598	50.03
3.54265	50.04
3.55932	50.04
3.57598	50.03
3.59265	50.03
3.60932	50.04
3.62598	50.05
3.64265	50.04
3.65932	50.04
3.67598	50.03
3.69265	50.03
3.70932	50.03
3.72598	50.04
3.74265	50.04
3.75932	50.04
3.77598	50.04
3.79265	50.04
3.80932	50.03
3.82598	50.03
3.84265	50.04
3.85932	50.04
3.87598	50.04
3.89265	50.05
3.90932	50.06
3.92598	50.06
3.94265	50.07
3.95932	50.07
3.97598	50.06
3.99265	50.06

[Status Trace (Injection Unit Temperature)]
Interval(msec)	1000
# of Points	240
Start Time(min)	0.009
End Time(min)	3.993
Intensity Units	
Intensity Multiplier	1
R.Time (min)	Intensity
0.00932	99.98
0.02598	99.98
0.04265	99.98
0.05932	99.98
0.07598	99.98
0.09265	99.98
0.10932	99.98
0.12598	99.98
0.14265	99.98
0.15932	99.98
0.17598	99.98
0.19265	99.98
0.20932	99.98
0.22598	99.98
0.24265	99.98
0.25932	99.98
0.27598	99.98
0.29265	99.98
0.30932	99.98
0.32598	99.98
0.34265	99.98
0.35932	99.98
0.37598	99.98
0.39265	99.98
0.40932	99.98
0.42598	99.98
0.44265	99.98
0.45932	99.98
0.47598	99.98
0.49265	99.97
0.50932	99.98
0.52598	99.98
0.54265	99.98
0.55932	99.98
0.57598	99.98
0.59265	99.97
0.60932	99.98
0.62598	99.98
0.64265	99.98
0.65932	99.98
0.67598	99.98
0.69265	99.98
0.70932	99.98
0.72598	99.98
0.74265	99.98
0.75932	99.98
0.77598	99.98
0.79265	99.98
0.80932	99.97
0.82598	99.98
0.84265	99.97
0.85932	99.97
0.87598	99.98
0.89265	99.97
0.90932	99.98
0.92598	99.97
0.94265	99.97
0.95932	99.98
0.97598	99.98
0.99265	99.98
1.00932	99.98
1.02598	99.98
1.04265	99.98
1.05932	99.98
1.07598	99.98
1.09265	99.98
1.10932	99.98
1.12598	99.98
1.14265	99.98
1.15932	99.98
1.17598	99.98
1.19265	99.98
1.20932	99.98
1.22598	99.98
1.24265	99.99
1.25932	99.98
1.27598	99.98
1.29265	99.98
1.30932	99.98
1.32598	99.99
1.34265	99.98
1.35932	99.98
1.37598	99.99
1.39265	99.99
1.40932	99.99
1.42598	99.99
1.44265	99.99
1.45932	99.99
1.47598	99.99
1.49265	99.99
1.50932	99.98
1.52598	99.99
1.54265	99.99
1.55932	99.99
1.57598	99.99
1.59265	99.99
1.60932	99.99
1.62598	99.98
1.64265	99.99
1.65932	99.99
1.67598	99.99
1.69265	99.99
1.70932	99.99
1.72598	99.99
1.74265	99.99
1.75932	99.99
1.77598	99.99
1.79265	99.99
1.80932	99.99
1.82598	99.98
1.84265	99.98
1.85932	99.98
1.87598	99.98
1.89265	99.98
1.90932	99.98
1.92598	99.99
1.94265	99.98
1.95932	99.98
1.97598	99.98
1.99265	99.98
2.00932	99.98
2.02598	99.97
2.04265	99.98
2.05932	99.98
2.07598	99.97
2.09265	99.98
2.10932	99.97
2.12598	99.97
2.14265	99.97
2.15932	99.97
2.17598	99.97
2.19265	99.97
2.20932	99.97
2.22598	99.97
2.24265	99.96
2.25932	99.97
2.27598	99.96
2.29265	99.97
2.30932	99.97
2.32598	99.97
2.34265	99.96
2.35932	99.97
2.37598	99.97
2.39265	99.97
2.40932	99.96
2.42598	99.96
2.44265	99.97
2.45932	99.97
2.47598	99.97
2.49265	99.96
2.50932	99.97
2.52598	99.97
2.54265	99.97
2.55932	99.97
2.57598	99.98
2.59265	99.97
2.60932	99.98
2.62598	99.97
2.64265	99.98
2.65932	99.98
2.67598	99.98
2.69265	99.98
2.70932	99.98
2.72598	99.99
2.74265	99.99
2.75932	99.99
2.77598	99.99
2.79265	99.99
2.80932	100.00
2.82598	99.99
2.84265	99.99
2.85932	100.00
2.87598	100.01
2.89265	100.00
2.90932	100.00
2.92598	100.00
2.94265	100.00
2.95932	100.01
2.97598	100.01
2.99265	100.01
3.00932	100.01
3.02598	100.01
3.04265	100.02
3.05932	100.02
3.07598	100.01
3.09265	100.02
3.10932	100.02
3.12598	100.02
3.14265	100.02
3.15932	100.03
3.17598	100.03
3.19265	100.03
3.20932	100.03
3.22598	100.03
3.24265	100.03
3.25932	100.03
3.27598	100.03
3.29265	100.03
3.30932	100.04
3.32598	100.04
3.34265	100.04
3.35932	100.04
3.37598	100.04
3.39265	100.04
3.40932	100.05
3.42598	100.05
3.44265	100.05
3.45932	100.04
3.47598	100.05
3.49265	100.05
3.50932	100.04
3.52598	100.05
3.54265	100.04
3.55932	100.04
3.57598	100.05
3.59265	100.05
3.60932	100.05
3.62598	100.05
3.64265	100.05
3.65932	100.05
3.67598	100.05
3.69265	100.04
3.70932	100.05
3.72598	100.05
3.74265	100.05
3.75932	100.05
3.77598	100.05
3.79265	100.05
3.80932	100.05
3.82598	100.05
3.84265	100.05
3.85932	100.05
3.87598	100.05
3.89265	100.05
3.90932	100.05
3.92598	100.05
3.94265	100.05
3.95932	100.05
3.97598	100.05
3.99265	100.04

[Status Trace (Carrier Gas Pressure)]
Interval(msec)	1000
# of Points	240
Start Time(min)	0.009
End Time(min)	3.993
Intensity Units	
Intensity Multiplier	1
R.Time (min)	Intensity
0.00932	58.00
0.02598	55.17
0.04265	57.28
0.05932	59.43
0.07598	59.19
0.09265	58.04
0.10932	57.98
0.12598	58.01
0.14265	58.01
0.15932	58.01
0.17598	58.00
0.19265	58.00
0.20932	58.00
0.22598	58.00
0.24265	58.00
0.25932	58.00
0.27598	58.00
0.29265	58.00
0.30932	58.00
0.32598	58.00
0.34265	58.00
0.35932	58.00
0.37598	58.00
0.39265	58.00
0.40932	58.00
0.42598	58.00
0.44265	58.00
0.45932	58.00
0.47598	58.00
0.49265	58.00
0.50932	58.00
0.52598	58.00
0.54265	58.00
0.55932	58.00
0.57598	58.00
0.59265	58.00
0.60932	58.00
0.62598	58.00
0.64265	58.00
0.65932	58.00
0.67598	58.00
0.69265	58.00
0.70932	58.00
0.72598	58.00
0.74265	58.00
0.75932	58.00
0.77598	58.00
0.79265	58.00
0.80932	58.00
0.82598	58.00
0.84265	58.00
0.85932	58.00
0.87598	58.00
0.89265	58.00
0.90932	58.00
0.92598	58.00
0.94265	58.00
0.95932	58.00
0.97598	58.00
0.99265	58.00
1.00932	58.00
1.02598	58.00
1.04265	58.00
1.05932	58.00
1.07598	58.00
1.09265	58.00
1.10932	58.00
1.12598	58.00
1.14265	58.00
1.15932	58.00
1.17598	58.00
1.19265	58.00
1.20932	58.00
1.22598	58.00
1.24265	58.00
1.25932	58.00
1.27598	58.00
1.29265	58.00
1.30932	58.00
1.32598	58.00
1.34265	58.00
1.35932	58.00
1.37598	58.00
1.39265	58.00
1.40932	58.00
1.42598	58.00
1.44265	58.00
1.45932	58.00
1.47598	58.00
1.49265	58.00
1.50932	58.00
1.52598	58.00
1.54265	58.00
1.55932	58.00
1.57598	58.00
1.59265	58.00
1.60932	58.00
1.62598	58.00
1.64265	58.00
1.65932	58.00
1.67598	58.01
1.69265	58.00
1.70932	58.00
1.72598	58.00
1.74265	58.00
1.75932	58.00
1.77598	58.00
1.79265	58.00
1.80932	58.00
1.82598	58.00
1.84265	58.00
1.85932	58.00
1.87598	58.00
1.89265	58.00
1.90932	58.00
1.92598	58.00
1.94265	58.00
1.95932	58.00
1.97598	58.00
1.99265	58.00
2.00932	58.00
2.02598	58.00
2.04265	58.00
2.05932	58.00
2.07598	58.00
2.09265	58.00
2.10932	58.00
2.12598	58.00
2.14265	58.00
2.15932	58.00
2.17598	58.00
2.19265	58.00
2.20932	58.00
2.22598	58.00
2.24265	58.00
2.25932	58.00
2.27598	58.00
2.29265	58.00
2.30932	58.00
2.32598	58.00
2.34265	58.00
2.35932	58.00
2.37598	57.99
2.39265	57.99
2.40932	57.99
2.42598	58.00
2.44265	58.00
2.45932	58.00
2.47598	58.00
2.49265	58.00
2.50932	57.99
2.52598	57.98
2.54265	58.00
2.55932	58.00
2.57598	58.00
2.59265	58.00
2.60932	58.00
2.62598	58.00
2.64265	58.00
2.65932	58.00
2.67598	58.00
2.69265	58.00
2.70932	58.00
2.72598	58.00
2.74265	58.00
2.75932	58.00
2.77598	58.00
2.79265	58.00
2.80932	58.00
2.82598	58.00
2.84265	58.00
2.85932	58.00
2.87598	58.00
2.89265	58.00
2.90932	58.00
2.92598	58.00
2.94265	58.00
2.95932	58.00
2.97598	58.00
2.99265	58.00
3.00932	58.00
3.02598	58.00
3.04265	58.00
3.05932	58.00
3.07598	58.00
3.09265	58.00
3.10932	58.00
3.12598	58.00
3.14265	58.00
3.15932	58.00
3.17598	58.00
3.19265	58.00
3.20932	58.00
3.22598	58.00
3.24265	58.00
3.25932	58.00
3.27598	58.00
3.29265	58.00
3.30932	58.00
3.32598	58.00
3.34265	58.00
3.35932	58.00
3.37598	58.00
3.39265	58.00
3.40932	58.00
3.42598	58.00
3.44265	58.00
3.45932	58.00
3.47598	58.00
3.49265	58.00
3.50932	58.00
3.52598	58.00
3.54265	58.00
3.55932	58.00
3.57598	58.00
3.59265	58.00
3.60932	58.00
3.62598	58.00
3.64265	58.00
3.65932	58.00
3.67598	58.00
3.69265	58.00
3.70932	58.00
3.72598	58.00
3.74265	58.00
3.75932	58.00
3.77598	58.00
3.79265	58.00
3.80932	58.00
3.82598	58.00
3.84265	58.00
3.85932	58.00
3.87598	58.00
3.89265	58.00
3.90932	58.00
3.92598	58.00
3.94265	58.00
3.95932	58.00
3.97598	58.00
3.99265	58.00

[Status Trace (Carrier Gas Flow)]
Interval(msec)	1000
# of Points	240
Start Time(min)	0.009
End Time(min)	3.993
Intensity Units	
Intensity Multiplier	1
R.Time (min)	Intensity
0.00932	34.52
0.02598	34.53
0.04265	34.55
0.05932	34.55
0.07598	34.50
0.09265	34.52
0.10932	34.52
0.12598	34.52
0.14265	34.52
0.15932	34.51
0.17598	34.52
0.19265	34.51
0.20932	34.52
0.22598	34.51
0.24265	34.53
0.25932	34.51
0.27598	34.52
0.29265	34.51
0.30932	34.52
0.32598	34.52
0.34265	34.52
0.35932	34.52
0.37598	34.52
0.39265	34.52
0.40932	34.52
0.42598	34.52
0.44265	34.52
0.45932	34.52
0.47598	34.51
0.49265	34.52
0.50932	34.52
0.52598	34.52
0.54265	34.51
0.55932	34.52
0.57598	34.51
0.59265	34.52
0.60932	34.52
0.62598	34.52
0.64265	34.52
0.65932	34.52
0.67598	34.51
0.69265	34.52
0.70932	34.52
0.72598	34.52
0.74265	34.52
0.75932	34.52
0.77598	34.52
0.79265	34.52
0.80932	34.52
0.82598	34.52
0.84265	34.52
0.85932	34.52
0.87598	34.52
0.89265	34.51
0.90932	34.51
0.92598	34.53
0.94265	34.52
0.95932	34.51
0.97598	34.52
0.99265	34.52
1.00932	34.51
1.02598	34.52
1.04265	34.52
1.05932	34.52
1.07598	34.52
1.09265	34.52
1.10932	34.52
1.12598	34.53
1.14265	34.51
1.15932	34.52
1.17598	34.52
1.19265	34.52
1.20932	34.52
1.22598	34.51
1.24265	34.52
1.25932	34.51
1.27598	34.52
1.29265	34.51
1.30932	34.52
1.32598	34.53
1.34265	34.52
1.35932	34.52
1.37598	34.51
1.39265	34.52
1.40932	34.52
1.42598	34.52
1.44265	34.52
1.45932	34.52
1.47598	34.52
1.49265	34.52
1.50932	34.52
1.52598	34.52
1.54265	34.52
1.55932	34.52
1.57598	34.51
1.59265	34.52
1.60932	34.52
1.62598	34.51
1.64265	34.51
1.65932	34.52
1.67598	34.52
1.69265	34.52
1.70932	34.52
1.72598	34.52
1.74265	34.52
1.75932	34.52
1.77598	34.52
1.79265	34.52
1.80932	34.52
1.82598	34.52
1.84265	34.51
1.85932	34.52
1.87598	34.53
1.89265	34.52
1.90932	34.52
1.92598	34.52
1.94265	34.52
1.95932	34.52
1.97598	34.52
1.99265	34.52
2.00932	34.52
2.02598	34.52
2.04265	34.52
2.05932	34.52
2.07598	34.52
2.09265	34.52
2.10932	34.52
2.12598	34.52
2.14265	34.52
2.15932	34.51
2.17598	34.52
2.19265	34.51
2.20932	34.52
2.22598	34.52
2.24265	34.51
2.25932	34.52
2.27598	34.52
2.29265	34.52
2.30932	34.51
2.32598	34.51
2.34265	34.52
2.35932	34.52
2.37598	34.52
2.39265	34.51
2.40932	34.52
2.42598	34.52
2.44265	34.52
2.45932	34.52
2.47598	34.51
2.49265	34.52
2.50932	34.50
2.52598	34.52
2.54265	34.53
2.55932	34.51
2.57598	34.52
2.59265	34.51
2.60932	34.52
2.62598	34.51
2.64265	34.52
2.65932	34.52
2.67598	34.51
2.69265	34.53
2.70932	34.51
2.72598	34.51
2.74265	34.52
2.75932	34.51
2.77598	34.51
2.79265	34.52
2.80932	34.52
2.82598	34.52
2.84265	34.52
2.85932	34.52
2.87598	34.51
2.89265	34.52
2.90932	34.52
2.92598	34.52
2.94265	34.52
2.95932	34.52
2.97598	34.52
2.99265	34.52
3.00932	34.52
3.02598	34.52
3.04265	34.52
3.05932	34.52
3.07598	34.52
3.09265	34.52
3.10932	34.52
3.12598	34.52
3.14265	34.52
3.15932	34.51
3.17598	34.52
3.19265	34.51
3.20932	34.52
3.22598	34.52
3.24265	34.52
3.25932	34.52
3.27598	34.52
3.29265	34.52
3.30932	34.52
3.32598	34.52
3.34265	34.52
3.35932	34.52
3.37598	34.52
3.39265	34.52
3.40932	34.51
3.42598	34.52
3.44265	34.52
3.45932	34.52
3.47598	34.52
3.49265	34.52
3.50932	34.52
3.52598	34.52
3.54265	34.52
3.55932	34.52
3.57598	34.53
3.59265	34.52
3.60932	34.52
3.62598	34.52
3.64265	34.52
3.65932	34.51
3.67598	34.52
3.69265	34.53
3.70932	34.52
3.72598	34.51
3.74265	34.52
3.75932	34.52
3.77598	34.52
3.79265	34.52
3.80932	34.52
3.82598	34.52
3.84265	34.52
3.85932	34.51
3.87598	34.51
3.89265	34.52
3.90932	34.51
3.92598	34.52
3.94265	34.52
3.95932	34.52
3.97598	34.52
3.99265	34.53

[Status Trace (Column Flow)]
Interval(msec)	1000
# of Points	240
Start Time(min)	0.009
End Time(min)	3.993
Intensity Units	
Intensity Multiplier	1
R.Time (min)	Intensity
0.00932	5.55
0.02598	5.22
0.04265	5.47
0.05932	5.72
0.07598	5.69
0.09265	5.55
0.10932	5.55
0.12598	5.55
0.14265	5.55
0.15932	5.55
0.17598	5.55
0.19265	5.55
0.20932	5.55
0.22598	5.55
0.24265	5.55
0.25932	5.55
0.27598	5.55
0.29265	5.55
0.30932	5.55
0.32598	5.55
0.34265	5.55
0.35932	5.55
0.37598	5.55
0.39265	5.55
0.40932	5.55
0.42598	5.55
0.44265	5.55
0.45932	5.55
0.47598	5.55
0.49265	5.55
0.50932	5.55
0.52598	5.55
0.54265	5.55
0.55932	5.55
0.57598	5.55
0.59265	5.55
0.60932	5.55
0.62598	5.55
0.64265	5.55
0.65932	5.55
0.67598	5.55
0.69265	5.55
0.70932	5.55
0.72598	5.55
0.74265	5.55
0.75932	5.55
0.77598	5.55
0.79265	5.55
0.80932	5.55
0.82598	5.55
0.84265	5.55
0.85932	5.55
0.87598	5.55
0.89265	5.55
0.90932	5.55
0.92598	5.55
0.94265	5.55
0.95932	5.55
0.97598	5.55
0.99265	5.55
1.00932	5.55
1.02598	5.55
1.04265	5.55
1.05932	5.55
1.07598	5.55
1.09265	5.55
1.10932	5.55
1.12598	5.55
1.14265	5.55
1.15932	5.55
1.17598	5.55
1.19265	5.55
1.20932	5.55
1.22598	5.55
1.24265	5.55
1.25932	5.55
1.27598	5.55
1.29265	5.55
1.30932	5.55
1.32598	5.55
1.34265	5.55
1.35932	5.55
1.37598	5.55
1.39265	5.55
1.40932	5.55
1.42598	5.55
1.44265	5.55
1.45932	5.55
1.47598	5.55
1.49265	5.55
1.50932	5.55
1.52598	5.55
1.54265	5.55
1.55932	5.55
1.57598	5.55
1.59265	5.55
1.60932	5.55
1.62598	5.55
1.64265	5.54
1.65932	5.53
1.67598	5.52
1.69265	5.51
1.70932	5.50
1.72598	5.49
1.74265	5.48
1.75932	5.47
1.77598	5.46
1.79265	5.45
1.80932	5.44
1.82598	5.43
1.84265	5.42
1.85932	5.41
1.87598	5.40
1.89265	5.39
1.90932	5.38
1.92598	5.37
1.94265	5.36
1.95932	5.35
1.97598	5.34
1.99265	5.33
2.00932	5.32
2.02598	5.31
2.04265	5.30
2.05932	5.29
2.07598	5.28
2.09265	5.27
2.10932	5.26
2.12598	5.25
2.14265	5.24
2.15932	5.23
2.17598	5.22
2.19265	5.21
2.20932	5.20
2.22598	5.19
2.24265	5.18
2.25932	5.17
2.27598	5.17
2.29265	5.16
2.30932	5.15
2.32598	5.14
2.34265	5.13
2.35932	5.12
2.37598	5.12
2.39265	5.11
2.40932	5.11
2.42598	5.11
2.44265	5.11
2.45932	5.11
2.47598	5.11
2.49265	5.11
2.50932	5.11
2.52598	5.11
2.54265	5.11
2.55932	5.11
2.57598	5.11
2.59265	5.11
2.60932	5.11
2.62598	5.11
2.64265	5.11
2.65932	5.11
2.67598	5.11
2.69265	5.11
2.70932	5.11
2.72598	5.11
2.74265	5.11
2.75932	5.11
2.77598	5.11
2.79265	5.11
2.80932	5.11
2.82598	5.11
2.84265	5.11
2.85932	5.11
2.87598	5.11
2.89265	5.11
2.90932	5.11
2.92598	5.11
2.94265	5.11
2.95932	5.11
2.97598	5.11
2.99265	5.11
3.00932	5.11
3.02598	5.11
3.04265	5.11
3.05932	5.11
3.07598	5.11
3.09265	5.11
3.10932	5.11
3.12598	5.11
3.14265	5.11
3.15932	5.10
3.17598	5.10
3.19265	5.10
3.20932	5.10
3.22598	5.10
3.24265	5.10
3.25932	5.10
3.27598	5.10
3.29265	5.10
3.30932	5.10
3.32598	5.10
3.34265	5.10
3.35932	5.10
3.37598	5.10
3.39265	5.10
3.40932	5.10
3.42598	5.10
3.44265	5.11
3.45932	5.11
3.47598	5.11
3.49265	5.11
3.50932	5.11
3.52598	5.11
3.54265	5.11
3.55932	5.10
3.57598	5.11
3.59265	5.11
3.60932	5.10
3.62598	5.10
3.64265	5.10
3.65932	5.10
3.67598	5.11
3.69265	5.11
3.70932	5.10
3.72598	5.10
3.74265	5.10
3.75932	5.10
3.77598	5.10
3.79265	5.10
3.80932	5.10
3.82598	5.11
3.84265	5.11
3.85932	5.11
3.87598	5.10
3.89265	5.10
3.90932	5.10
3.92598	5.10
3.94265	5.10
3.95932	5.10
3.97598	5.10
3.99265	5.10

[Status Trace (Linear Velocity)]
Interval(msec)	1000
# of Points	240
Start Time(min)	0.009
End Time(min)	3.993
Intensity Units	
Intensity Multiplier	1
R.Time (min)	Intensity
0.00932	39.02
0.02598	37.16
0.04265	38.54
0.05932	39.95
0.07598	39.80
0.09265	39.04
0.10932	39.01
0.12598	39.03
0.14265	39.03
0.15932	39.02
0.17598	39.02
0.19265	39.02
0.20932	39.02
0.22598	39.02
0.24265	39.02
0.25932	39.02
0.27598	39.02
0.29265	39.02
0.30932	39.02
0.32598	39.03
0.34265	39.02
0.35932	39.02
0.37598	39.02
0.39265	39.02
0.40932	39.02
0.42598	39.02
0.44265	39.02
0.45932	39.02
0.47598	39.02
0.49265	39.03
0.50932	39.03
0.52598	39.02
0.54265	39.02
0.55932	39.02
0.57598	39.02
0.59265	39.02
0.60932	39.02
0.62598	39.02
0.64265	39.02
0.65932	39.02
0.67598	39.02
0.69265	39.02
0.70932	39.02
0.72598	39.02
0.74265	39.02
0.75932	39.02
0.77598	39.02
0.79265	39.02
0.80932	39.02
0.82598	39.02
0.84265	39.02
0.85932	39.02
0.87598	39.02
0.89265	39.02
0.90932	39.02
0.92598	39.02
0.94265	39.02
0.95932	39.02
0.97598	39.03
0.99265	39.03
1.00932	39.02
1.02598	39.02
1.04265	39.02
1.05932	39.02
1.07598	39.02
1.09265	39.02
1.10932	39.03
1.12598	39.03
1.14265	39.03
1.15932	39.03
1.17598	39.02
1.19265	39.02
1.20932	39.02
1.22598	39.02
1.24265	39.02
1.25932	39.02
1.27598	39.02
1.29265	39.02
1.30932	39.03
1.32598	39.03
1.34265	39.02
1.35932	39.03
1.37598	39.03
1.39265	39.03
1.40932	39.03
1.42598	39.03
1.44265	39.03
1.45932	39.02
1.47598	39.02
1.49265	39.02
1.50932	39.02
1.52598	39.02
1.54265	39.02
1.55932	39.02
1.57598	39.02
1.59265	39.02
1.60932	39.02
1.62598	39.01
1.64265	38.99
1.65932	38.97
1.67598	38.93
1.69265	38.90
1.70932	38.86
1.72598	38.83
1.74265	38.80
1.75932	38.76
1.77598	38.73
1.79265	38.70
1.80932	38.67
1.82598	38.64
1.84265	38.61
1.85932	38.58
1.87598	38.55
1.89265	38.52
1.90932	38.49
1.92598	38.46
1.94265	38.43
1.95932	38.40
1.97598	38.37
1.99265	38.34
2.00932	38.31
2.02598	38.28
2.04265	38.25
2.05932	38.22
2.07598	38.19
2.09265	38.16
2.10932	38.13
2.12598	38.09
2.14265	38.06
2.15932	38.04
2.17598	38.01
2.19265	37.98
2.20932	37.95
2.22598	37.92
2.24265	37.89
2.25932	37.86
2.27598	37.83
2.29265	37.80
2.30932	37.77
2.32598	37.74
2.34265	37.71
2.35932	37.69
2.37598	37.67
2.39265	37.66
2.40932	37.66
2.42598	37.67
2.44265	37.67
2.45932	37.67
2.47598	37.67
2.49265	37.66
2.50932	37.66
2.52598	37.65
2.54265	37.66
2.55932	37.66
2.57598	37.66
2.59265	37.66
2.60932	37.66
2.62598	37.65
2.64265	37.66
2.65932	37.65
2.67598	37.65
2.69265	37.65
2.70932	37.65
2.72598	37.65
2.74265	37.65
2.75932	37.65
2.77598	37.65
2.79265	37.65
2.80932	37.65
2.82598	37.65
2.84265	37.65
2.85932	37.65
2.87598	37.65
2.89265	37.64
2.90932	37.64
2.92598	37.64
2.94265	37.64
2.95932	37.64
2.97598	37.64
2.99265	37.64
3.00932	37.64
3.02598	37.64
3.04265	37.64
3.05932	37.64
3.07598	37.64
3.09265	37.64
3.10932	37.64
3.12598	37.64
3.14265	37.64
3.15932	37.64
3.17598	37.63
3.19265	37.63
3.20932	37.63
3.22598	37.63
3.24265	37.63
3.25932	37.63
3.27598	37.63
3.29265	37.63
3.30932	37.63
3.32598	37.63
3.34265	37.63
3.35932	37.63
3.37598	37.63
3.39265	37.63
3.40932	37.64
3.42598	37.64
3.44265	37.64
3.45932	37.64
3.47598	37.64
3.49265	37.64
3.50932	37.64
3.52598	37.64
3.54265	37.64
3.55932	37.64
3.57598	37.64
3.59265	37.64
3.60932	37.64
3.62598	37.64
3.64265	37.64
3.65932	37.64
3.67598	37.64
3.69265	37.64
3.70932	37.64
3.72598	37.64
3.74265	37.64
3.75932	37.64
3.77598	37.63
3.79265	37.64
3.80932	37.64
3.82598	37.64
3.84265	37.64
3.85932	37.64
3.87598	37.64
3.89265	37.64
3.90932	37.63
3.92598	37.63
3.94265	37.63
3.95932	37.63
3.97598	37.63
3.99265	37.63

