[Header]
Application Name	LabSolutions
Version	5.110
Data File Name	C:\Users\User\Desktop\GC Analyses\Jack\Nachusa Grasslands Sampling\T4 Timepoint July 12th\T4_07122022_031.gcd
Output Date	3/17/2023
Output Time	12:04:52 PM

[File Information]
Type	Data File
Generated	3/14/2023 6:47:20 PM
Generated by	System Administrator
Modified	3/14/2023 6:54:04 PM
Modified by	System Administrator

[Sample Information]
Operator Name	System Administrator
Acquired	3/14/2023 6:50:02 PM
Sample Type	0:Unknown
Level	0
Sample Name	031
Sample ID	031
ISTD Amount1	1
ISTD Amount2	1
ISTD Amount3	1
ISTD Amount4	1
ISTD Amount5	1
ISTD Amount6	1
ISTD Amount7	1
ISTD Amount8	1
ISTD Amount9	1
ISTD Amount10	1
ISTD Amount11	1
ISTD Amount12	1
ISTD Amount13	1
ISTD Amount14	1
ISTD Amount15	1
ISTD Amount16	1
ISTD Amount17	1
ISTD Amount18	1
ISTD Amount19	1
ISTD Amount20	1
ISTD Amount21	1
ISTD Amount22	1
ISTD Amount23	1
ISTD Amount24	1
ISTD Amount25	1
ISTD Amount26	1
ISTD Amount27	1
ISTD Amount28	1
ISTD Amount29	1
ISTD Amount30	1
ISTD Amount31	1
ISTD Amount32	1
Sample Amount	1
Dilution Factor	1
Vial#	30
Injection Volume	1
Injection Count	1
Bar Code	

[Original Files]
Data File	C:\Users\User\Desktop\GC Analyses\Jack\Nachusa Grasslands Sampling\T4 Timepoint July 12th\T4_07122022_031.gcd
Method File	C:\LabSolutions\Data\GHG_4min_2022\ghg3_togas_w_acet_4 min_new_int.gcm
Batch File	C:\LabSolutions\Data\AutoSamplerTesting\T4_07122022.gcb
Report Format File	c:\LabSolutions\System\DEFAULT.lsr

[File Description]


[Configuration]
Instrument Name	C0B7VH3-Instrument1
Instrument #	1
Line #	1
# of Detectors	3
Detector ID	DET#1	DET#2	DET#3
Detector Name	FID	PTCD	ECD
# of Channels	1	1	1

[Peak Table(Ch1)]
# of Peaks	3
Peak#	R.Time	I.Time	F.Time	Area	Height	A/H	Conc.	Mark	ID#	Name	k'	Plate #	Plate Ht.	Tailing	Resolution	Sep.Factor	Area Ratio	Height Ratio	Conc. %	Norm Conc.
1	1.476	1.421	1.534	21024	10292	2.043	148.427	   	1	CO	0.000	9619	15.594	1.285	0.000	0.000	0	0	14.035	14.035
2	1.571	1.538	1.615	4088	2119	1.930	79.051	   	2	CH4	0.065	11820	12.690	1.122	1.616	0.000	0	0	7.475	7.475
3	1.996	1.949	2.381	3307323	1582703	2.090	830.048	   	3	CO2	0.353	17373	8.634	1.344	7.186	5.462	0	0	78.490	78.490

[Peak Table(Ch2)]
# of Peaks	0

[Peak Table(Ch3)]
# of Peaks	4
Peak#	R.Time	I.Time	F.Time	Area	Height	A/H	Conc.	Mark	ID#	Name	k'	Plate #	Plate Ht.	Tailing	Resolution	Sep.Factor	Area Ratio	Height Ratio	Conc. %	Norm Conc.
1	2.462	2.334	2.510	2026	625	3.245	0.000	   			0.000	9177	16.345	0.000	0.000	0.000	0	0	0.000	0.000
2	2.532	2.510	2.678	1645	356	4.619	0.000	 V 			0.028	5226	28.703	0.000	0.574	0.000	0	0	0.000	0.000
3	2.880	2.708	3.118	18644	4760	3.917	0.476	   	1	N2O	0.170	13044	11.500	1.522	2.891	6.000	0	0	100.000	100.000
4	3.316	3.144	3.995	16484	578	28.530	0.000	   	2	SF6	0.347	189	795.004	2.420	0.818	2.044	0	0	0.000	0.000

[Compound Results(Ch1)]
# of IDs	6
ID#	Name	R.Time	Area	Height	Conc.	Curve	3rd	2nd	1st	Constant	Area Ratio	Height Ratio	Conc. %	Norm Conc.
1	CO	1.476	21024	10292	148.427	Linear	0.000000e+00	0.000000e+00	1.416423e+002	0.000000e+00	0	0	14.035	14.035
2	CH4	1.571	4088	2119	79.051	Linear	0.000000e+00	0.000000e+00	5.171738e+001	0.000000e+00	0	0	7.475	7.475
3	CO2	1.996	3307323	1582703	830.048	Linear	0.000000e+00	0.000000e+00	3.984494e+003	0.000000e+00	0	0	78.490	78.490
4	Ethylene	0.000	0	0	0.000	Linear	0.000000e+00	0.000000e+00	0.000000e+00	0.000000e+00	0	0	0.000	0.000
5	Acetylene	0.000	0	0	0.000	Linear	0.000000e+00	0.000000e+00	0.000000e+00	0.000000e+00	0	0	0.000	0.000
6	Ethane	0.000	0	0	0.000	Linear	0.000000e+00	0.000000e+00	0.000000e+00	0.000000e+00	0	0	0.000	0.000

[Compound Results(Ch2)]
# of IDs	5
ID#	Name	R.Time	Area	Height	Conc.	Curve	3rd	2nd	1st	Constant	Area Ratio	Height Ratio	Conc. %	Norm Conc.
1	Hydrogen	0.000	0	0	0.000	Linear	0.000000e+00	0.000000e+00	0.000000e+00	0.000000e+00	0	0	0.000	0.000
2	Oxygen	0.000	0	0	0.000	Linear	0.000000e+00	0.000000e+00	0.000000e+00	0.000000e+00	0	0	0.000	0.000
3	Nitrogen	0.000	0	0	0.000	Linear	0.000000e+00	0.000000e+00	0.000000e+00	0.000000e+00	0	0	0.000	0.000
4	Methane	0.000	0	0	0.000	Linear	0.000000e+00	0.000000e+00	0.000000e+00	0.000000e+00	0	0	0.000	0.000
5	Carbon Monoxide	0.000	0	0	0.000	Linear	0.000000e+00	0.000000e+00	0.000000e+00	0.000000e+00	0	0	0.000	0.000

[Compound Results(Ch3)]
# of IDs	2
ID#	Name	R.Time	Area	Height	Conc.	Curve	3rd	2nd	1st	Constant	Area Ratio	Height Ratio	Conc. %	Norm Conc.
1	N2O	2.880	18644	4760	0.476	Linear	0.000000e+00	0.000000e+00	3.915173e+004	0.000000e+00	0	0	100.000	100.000
2	SF6	3.316	16484	578	0.000	Linear	0.000000e+00	0.000000e+00	0.000000e+00	0.000000e+00	0	0	0.000	0.000

[Group Results(Ch1)]
# of Groups	0

[Group Results(Ch2)]
# of Groups	0

[Group Results(Ch3)]
# of Groups	0

[Chromatogram (Ch1)]
Interval(msec)	220
# of Points	1091
Start Time(min)	0.002
End Time(min)	3.998
R.Time (min)	Intensity
0.00167	-7
0.00533	-3
0.00900	-4
0.01267	-3
0.01633	-3
0.02000	-7
0.02367	-12
0.02733	-17
0.03100	-17
0.03467	-14
0.03833	-15
0.04200	-18
0.04567	-21
0.04933	-23
0.05300	-18
0.05667	-14
0.06033	-11
0.06400	-10
0.06767	-8
0.07133	-5
0.07500	-4
0.07867	-2
0.08233	-2
0.08600	-1
0.08967	-5
0.09333	-10
0.09700	-11
0.10067	-9
0.10433	-4
0.10800	-3
0.11167	-6
0.11533	-8
0.11900	-6
0.12267	-4
0.12633	-2
0.13000	2
0.13367	11
0.13733	23
0.14100	36
0.14467	47
0.14833	51
0.15200	51
0.15567	48
0.15933	45
0.16300	41
0.16667	38
0.17033	31
0.17400	26
0.17767	26
0.18133	34
0.18500	48
0.18867	61
0.19233	64
0.19600	63
0.19967	64
0.20333	66
0.20700	66
0.21067	67
0.21433	66
0.21800	65
0.22167	65
0.22533	66
0.22900	71
0.23267	79
0.23633	84
0.24000	84
0.24367	86
0.24733	86
0.25100	83
0.25467	81
0.25833	74
0.26200	71
0.26567	69
0.26933	66
0.27300	62
0.27667	57
0.28033	50
0.28400	47
0.28767	40
0.29133	34
0.29500	24
0.29867	21
0.30233	21
0.30600	22
0.30967	23
0.31333	27
0.31700	33
0.32067	36
0.32433	35
0.32800	34
0.33167	32
0.33533	29
0.33900	20
0.34267	15
0.34633	12
0.35000	10
0.35367	9
0.35733	8
0.36100	8
0.36467	9
0.36833	10
0.37200	7
0.37567	-1
0.37933	-10
0.38300	-14
0.38667	-14
0.39033	-16
0.39400	-21
0.39767	-22
0.40133	-20
0.40500	-17
0.40867	-14
0.41233	-8
0.41600	-3
0.41967	-3
0.42333	-8
0.42700	-13
0.43067	-15
0.43433	-13
0.43800	-6
0.44167	2
0.44533	1
0.44900	-2
0.45267	-3
0.45633	-2
0.46000	-2
0.46367	5
0.46733	10
0.47100	9
0.47467	3
0.47833	-1
0.48200	-1
0.48567	-1
0.48933	-1
0.49300	-2
0.49667	-4
0.50033	-4
0.50400	-2
0.50767	-6
0.51133	-13
0.51500	-19
0.51867	-24
0.52233	-22
0.52600	-17
0.52967	-18
0.53333	-23
0.53700	-27
0.54067	-29
0.54433	-27
0.54800	-24
0.55167	-16
0.55533	-10
0.55900	-17
0.56267	-24
0.56633	-23
0.57000	-21
0.57367	-19
0.57733	-18
0.58100	-16
0.58467	-15
0.58833	-7
0.59200	2
0.59567	7
0.59933	8
0.60300	10
0.60667	14
0.61033	14
0.61400	9
0.61767	-2
0.62133	-14
0.62500	-26
0.62867	-26
0.63233	-15
0.63600	-12
0.63967	-16
0.64333	-18
0.64700	-18
0.65067	-15
0.65433	-9
0.65800	-4
0.66167	-9
0.66533	-20
0.66900	-27
0.67267	-33
0.67633	-42
0.68000	-48
0.68367	-45
0.68733	-30
0.69100	-12
0.69467	-3
0.69833	-4
0.70200	-10
0.70567	-15
0.70933	-16
0.71300	-12
0.71667	-10
0.72033	-14
0.72400	-16
0.72767	-21
0.73133	-27
0.73500	-29
0.73867	-26
0.74233	-28
0.74600	-28
0.74967	-29
0.75333	-31
0.75700	-29
0.76067	-30
0.76433	-38
0.76800	-52
0.77167	-62
0.77533	-62
0.77900	-54
0.78267	-51
0.78633	-54
0.79000	-55
0.79367	-54
0.79733	-52
0.80100	-47
0.80467	-44
0.80833	-44
0.81200	-41
0.81567	-35
0.81933	-34
0.82300	-41
0.82667	-45
0.83033	-47
0.83400	-46
0.83767	-44
0.84133	-39
0.84500	-38
0.84867	-38
0.85233	-38
0.85600	-41
0.85967	-44
0.86333	-46
0.86700	-50
0.87067	-54
0.87433	-53
0.87800	-48
0.88167	-41
0.88533	-31
0.88900	-25
0.89267	-17
0.89633	-7
0.90000	-0
0.90367	4
0.90733	7
0.91100	6
0.91467	1
0.91833	-13
0.92200	-35
0.92567	-55
0.92933	-66
0.93300	-62
0.93667	-55
0.94033	-56
0.94400	-58
0.94767	-55
0.95133	-59
0.95500	-63
0.95867	-65
0.96233	-64
0.96600	-60
0.96967	-57
0.97333	-53
0.97700	-53
0.98067	-49
0.98433	-46
0.98800	-48
0.99167	-54
0.99533	-64
0.99900	-70
1.00267	-73
1.00633	-71
1.01000	-64
1.01367	-59
1.01733	-53
1.02100	-52
1.02467	-49
1.02833	-44
1.03200	-50
1.03567	-59
1.03933	-66
1.04300	-67
1.04667	-70
1.05033	-75
1.05400	-75
1.05767	-66
1.06133	-52
1.06500	-31
1.06867	-13
1.07233	-4
1.07600	3
1.07967	-4
1.08333	-14
1.08700	-29
1.09067	-46
1.09433	-59
1.09800	-67
1.10167	-68
1.10533	-72
1.10900	-74
1.11267	-79
1.11633	-85
1.12000	-86
1.12367	-84
1.12733	-80
1.13100	-75
1.13467	-74
1.13833	-78
1.14200	-83
1.14567	-81
1.14933	-72
1.15300	-59
1.15667	-48
1.16033	-45
1.16400	-51
1.16767	-59
1.17133	-66
1.17500	-70
1.17867	-76
1.18233	-79
1.18600	-78
1.18967	-74
1.19333	-70
1.19700	-70
1.20067	-68
1.20433	-65
1.20800	-59
1.21167	-55
1.21533	-53
1.21900	-50
1.22267	-51
1.22633	-56
1.23000	-59
1.23367	-61
1.23733	-62
1.24100	-63
1.24467	-70
1.24833	-66
1.25200	-59
1.25567	-54
1.25933	-59
1.26300	-61
1.26667	-58
1.27033	-55
1.27400	-56
1.27767	-63
1.28133	-69
1.28500	-72
1.28867	-67
1.29233	-65
1.29600	-68
1.29967	-72
1.30333	-76
1.30700	-81
1.31067	-83
1.31433	-80
1.31800	-79
1.32167	-77
1.32533	-73
1.32900	-72
1.33267	-73
1.33633	-72
1.34000	-74
1.34367	-75
1.34733	-73
1.35100	-69
1.35467	-66
1.35833	-62
1.36200	-59
1.36567	-58
1.36933	-62
1.37300	-68
1.37667	-74
1.38033	-79
1.38400	-81
1.38767	-80
1.39133	-79
1.39500	-75
1.39867	-73
1.40233	-73
1.40600	-78
1.40967	-88
1.41333	-95
1.41700	-96
1.42067	-93
1.42433	-86
1.42800	-81
1.43167	-81
1.43533	-77
1.43900	-65
1.44267	-36
1.44633	68
1.45000	381
1.45367	1185
1.45733	2691
1.46100	4681
1.46467	6682
1.46833	8359
1.47200	9559
1.47567	10189
1.47933	10156
1.48300	9423
1.48667	8117
1.49033	6520
1.49400	4931
1.49767	3554
1.50133	2466
1.50500	1653
1.50867	1071
1.51233	662
1.51600	379
1.51967	191
1.52333	64
1.52700	-22
1.53067	-78
1.53433	-114
1.53800	-129
1.54167	-93
1.54533	42
1.54900	319
1.55267	710
1.55633	1132
1.56000	1508
1.56367	1792
1.56733	1964
1.57100	2000
1.57467	1870
1.57833	1600
1.58200	1257
1.58567	913
1.58933	621
1.59300	394
1.59667	224
1.60033	103
1.60400	16
1.60767	-44
1.61133	-81
1.61500	-104
1.61867	-116
1.62233	-115
1.62600	-111
1.62967	-110
1.63333	-111
1.63700	-112
1.64067	-107
1.64433	-100
1.64800	-99
1.65167	-108
1.65533	-122
1.65900	-126
1.66267	-124
1.66633	-130
1.67000	-139
1.67367	-150
1.67733	-155
1.68100	-151
1.68467	-144
1.68833	-139
1.69200	-136
1.69567	-133
1.69933	-126
1.70300	-120
1.70667	-120
1.71033	-117
1.71400	-113
1.71767	-105
1.72133	-99
1.72500	-98
1.72867	-97
1.73233	-103
1.73600	-112
1.73967	-119
1.74333	-121
1.74700	-118
1.75067	-114
1.75433	-110
1.75800	-107
1.76167	-107
1.76533	-105
1.76900	-107
1.77267	-117
1.77633	-123
1.78000	-128
1.78367	-129
1.78733	-126
1.79100	-125
1.79467	-122
1.79833	-119
1.80200	-118
1.80567	-112
1.80933	-99
1.81300	-93
1.81667	-93
1.82033	-93
1.82400	-94
1.82767	-97
1.83133	-98
1.83500	-107
1.83867	-117
1.84233	-120
1.84600	-118
1.84967	-110
1.85333	-102
1.85700	-97
1.86067	-95
1.86433	-92
1.86800	-88
1.87167	-84
1.87533	-81
1.87900	-83
1.88267	-85
1.88633	-87
1.89000	-91
1.89367	-91
1.89733	-88
1.90100	-85
1.90467	-81
1.90833	-78
1.91200	-73
1.91567	-69
1.91933	-71
1.92300	-75
1.92667	-78
1.93033	-84
1.93400	-93
1.93767	-102
1.94133	-104
1.94500	-104
1.94867	-101
1.95233	-84
1.95600	48
1.95967	903
1.96333	5308
1.96700	22553
1.97067	74048
1.97433	191467
1.97800	397066
1.98167	678458
1.98533	988489
1.98900	1270046
1.99267	1477698
1.99633	1582644
2.00000	1574818
2.00367	1463778
2.00733	1275712
2.01100	1047421
2.01467	815687
2.01833	607859
2.02200	437877
2.02567	308051
2.02933	213675
2.03300	147400
2.03667	101915
2.04033	71124
2.04400	50415
2.04767	36476
2.05133	27036
2.05500	20572
2.05867	16077
2.06233	12892
2.06600	10580
2.06967	8859
2.07333	7548
2.07700	6529
2.08067	5723
2.08433	5074
2.08800	4542
2.09167	4100
2.09533	3731
2.09900	3419
2.10267	3142
2.10633	2896
2.11000	2693
2.11367	2509
2.11733	2343
2.12100	2196
2.12467	2068
2.12833	1961
2.13200	1866
2.13567	1772
2.13933	1676
2.14300	1584
2.14667	1502
2.15033	1430
2.15400	1367
2.15767	1311
2.16133	1255
2.16500	1197
2.16867	1143
2.17233	1094
2.17600	1051
2.17967	1012
2.18333	976
2.18700	943
2.19067	910
2.19433	879
2.19800	852
2.20167	828
2.20533	809
2.20900	783
2.21267	750
2.21633	714
2.22000	685
2.22367	663
2.22733	648
2.23100	635
2.23467	619
2.23833	604
2.24200	593
2.24567	578
2.24933	556
2.25300	532
2.25667	514
2.26033	502
2.26400	491
2.26767	480
2.27133	468
2.27500	455
2.27867	445
2.28233	440
2.28600	435
2.28967	429
2.29333	417
2.29700	398
2.30067	379
2.30433	371
2.30800	374
2.31167	377
2.31533	379
2.31900	374
2.32267	362
2.32633	352
2.33000	350
2.33367	345
2.33733	334
2.34100	325
2.34467	318
2.34833	311
2.35200	303
2.35567	294
2.35933	286
2.36300	282
2.36667	277
2.37033	277
2.37400	283
2.37767	285
2.38133	282
2.38500	280
2.38867	275
2.39233	277
2.39600	281
2.39967	282
2.40333	278
2.40700	274
2.41067	272
2.41433	274
2.41800	282
2.42167	290
2.42533	296
2.42900	298
2.43267	294
2.43633	289
2.44000	284
2.44367	271
2.44733	253
2.45100	239
2.45467	227
2.45833	220
2.46200	217
2.46567	212
2.46933	207
2.47300	204
2.47667	204
2.48033	208
2.48400	214
2.48767	219
2.49133	221
2.49500	219
2.49867	212
2.50233	204
2.50600	201
2.50967	204
2.51333	208
2.51700	208
2.52067	201
2.52433	194
2.52800	189
2.53167	191
2.53533	197
2.53900	200
2.54267	201
2.54633	200
2.55000	196
2.55367	187
2.55733	183
2.56100	180
2.56467	176
2.56833	170
2.57200	165
2.57567	166
2.57933	170
2.58300	168
2.58667	160
2.59033	155
2.59400	155
2.59767	156
2.60133	154
2.60500	153
2.60867	151
2.61233	149
2.61600	155
2.61967	160
2.62333	159
2.62700	156
2.63067	152
2.63433	148
2.63800	147
2.64167	145
2.64533	144
2.64900	146
2.65267	144
2.65633	144
2.66000	146
2.66367	148
2.66733	146
2.67100	139
2.67467	129
2.67833	120
2.68200	117
2.68567	118
2.68933	122
2.69300	125
2.69667	121
2.70033	118
2.70400	116
2.70767	118
2.71133	118
2.71500	115
2.71867	115
2.72233	119
2.72600	130
2.72967	141
2.73333	143
2.73700	134
2.74067	123
2.74433	123
2.74800	127
2.75167	128
2.75533	127
2.75900	119
2.76267	106
2.76633	90
2.77000	79
2.77367	77
2.77733	83
2.78100	88
2.78467	92
2.78833	97
2.79200	97
2.79567	98
2.79933	100
2.80300	105
2.80667	110
2.81033	114
2.81400	113
2.81767	111
2.82133	106
2.82500	104
2.82867	104
2.83233	105
2.83600	108
2.83967	108
2.84333	108
2.84700	113
2.85067	119
2.85433	121
2.85800	119
2.86167	113
2.86533	111
2.86900	111
2.87267	113
2.87633	111
2.88000	104
2.88367	101
2.88733	100
2.89100	104
2.89467	112
2.89833	123
2.90200	127
2.90567	124
2.90933	116
2.91300	104
2.91667	89
2.92033	79
2.92400	83
2.92767	84
2.93133	80
2.93500	77
2.93867	69
2.94233	63
2.94600	61
2.94967	65
2.95333	67
2.95700	70
2.96067	79
2.96433	90
2.96800	96
2.97167	96
2.97533	93
2.97900	91
2.98267	93
2.98633	90
2.99000	83
2.99367	76
2.99733	69
3.00100	72
3.00467	77
3.00833	81
3.01200	82
3.01567	82
3.01933	82
3.02300	85
3.02667	91
3.03033	98
3.03400	103
3.03767	103
3.04133	105
3.04500	105
3.04867	105
3.05233	104
3.05600	98
3.05967	93
3.06333	86
3.06700	81
3.07067	85
3.07433	84
3.07800	78
3.08167	68
3.08533	62
3.08900	69
3.09267	78
3.09633	81
3.10000	79
3.10367	77
3.10733	77
3.11100	80
3.11467	82
3.11833	80
3.12200	79
3.12567	80
3.12933	84
3.13300	89
3.13667	91
3.14033	90
3.14400	90
3.14767	93
3.15133	89
3.15500	80
3.15867	71
3.16233	66
3.16600	63
3.16967	62
3.17333	56
3.17700	53
3.18067	50
3.18433	45
3.18800	46
3.19167	50
3.19533	55
3.19900	59
3.20267	58
3.20633	54
3.21000	54
3.21367	58
3.21733	72
3.22100	78
3.22467	80
3.22833	78
3.23200	77
3.23567	72
3.23933	68
3.24300	67
3.24667	71
3.25033	77
3.25400	79
3.25767	75
3.26133	69
3.26500	64
3.26867	58
3.27233	55
3.27600	59
3.27967	64
3.28333	71
3.28700	78
3.29067	78
3.29433	75
3.29800	72
3.30167	67
3.30533	61
3.30900	57
3.31267	52
3.31633	54
3.32000	60
3.32367	64
3.32733	63
3.33100	58
3.33467	57
3.33833	61
3.34200	63
3.34567	61
3.34933	56
3.35300	51
3.35667	52
3.36033	58
3.36400	66
3.36767	72
3.37133	69
3.37500	61
3.37867	54
3.38233	53
3.38600	51
3.38967	45
3.39333	41
3.39700	42
3.40067	45
3.40433	47
3.40800	51
3.41167	54
3.41533	56
3.41900	58
3.42267	60
3.42633	56
3.43000	62
3.43367	68
3.43733	71
3.44100	71
3.44467	70
3.44833	71
3.45200	66
3.45567	64
3.45933	60
3.46300	56
3.46667	50
3.47033	47
3.47400	51
3.47767	57
3.48133	58
3.48500	54
3.48867	46
3.49233	40
3.49600	39
3.49967	43
3.50333	43
3.50700	39
3.51067	32
3.51433	33
3.51800	36
3.52167	38
3.52533	38
3.52900	38
3.53267	42
3.53633	48
3.54000	54
3.54367	56
3.54733	54
3.55100	49
3.55467	42
3.55833	37
3.56200	31
3.56567	23
3.56933	18
3.57300	20
3.57667	24
3.58033	29
3.58400	32
3.58767	34
3.59133	38
3.59500	41
3.59867	41
3.60233	39
3.60600	40
3.60967	41
3.61333	42
3.61700	45
3.62067	45
3.62433	41
3.62800	39
3.63167	40
3.63533	40
3.63900	35
3.64267	29
3.64633	27
3.65000	27
3.65367	27
3.65733	30
3.66100	35
3.66467	40
3.66833	38
3.67200	29
3.67567	21
3.67933	13
3.68300	11
3.68667	14
3.69033	16
3.69400	18
3.69767	21
3.70133	24
3.70500	22
3.70867	17
3.71233	11
3.71600	6
3.71967	7
3.72333	10
3.72700	18
3.73067	23
3.73433	22
3.73800	22
3.74167	26
3.74533	28
3.74900	20
3.75267	8
3.75633	2
3.76000	4
3.76367	6
3.76733	7
3.77100	9
3.77467	10
3.77833	11
3.78200	11
3.78567	8
3.78933	6
3.79300	3
3.79667	4
3.80033	8
3.80400	15
3.80767	25
3.81133	30
3.81500	25
3.81867	19
3.82233	11
3.82600	4
3.82967	4
3.83333	6
3.83700	10
3.84067	13
3.84433	16
3.84800	16
3.85167	10
3.85533	3
3.85900	-2
3.86267	-6
3.86633	-10
3.87000	-4
3.87367	3
3.87733	8
3.88100	10
3.88467	11
3.88833	13
3.89200	9
3.89567	2
3.89933	-7
3.90300	-13
3.90667	-18
3.91033	-21
3.91400	-20
3.91767	-23
3.92133	-27
3.92500	-29
3.92867	-27
3.93233	-21
3.93600	-14
3.93967	-3
3.94333	9
3.94700	14
3.95067	13
3.95433	9
3.95800	4
3.96167	4
3.96533	1
3.96900	-1
3.97267	-4
3.97633	-5
3.98000	-5
3.98367	-7
3.98733	-8
3.99100	-6
3.99467	-5
3.99833	-8

[Chromatogram (Ch2)]
Interval(msec)	220
# of Points	1091
Start Time(min)	0.002
End Time(min)	3.998
R.Time (min)	Intensity
0.00167	1
0.00533	1
0.00900	2
0.01267	2
0.01633	2
0.02000	2
0.02367	2
0.02733	2
0.03100	2
0.03467	2
0.03833	2
0.04200	1
0.04567	1
0.04933	1
0.05300	1
0.05667	1
0.06033	1
0.06400	1
0.06767	1
0.07133	1
0.07500	1
0.07867	1
0.08233	1
0.08600	1
0.08967	2
0.09333	2
0.09700	2
0.10067	2
0.10433	2
0.10800	2
0.11167	2
0.11533	2
0.11900	1
0.12267	0
0.12633	-0
0.13000	-1
0.13367	-1
0.13733	-2
0.14100	-2
0.14467	-2
0.14833	-2
0.15200	-2
0.15567	-2
0.15933	-2
0.16300	-2
0.16667	-2
0.17033	-2
0.17400	-2
0.17767	-2
0.18133	-2
0.18500	-3
0.18867	-3
0.19233	-3
0.19600	-3
0.19967	-4
0.20333	-4
0.20700	-4
0.21067	-3
0.21433	-3
0.21800	-3
0.22167	-3
0.22533	-2
0.22900	-2
0.23267	-2
0.23633	-2
0.24000	-1
0.24367	-1
0.24733	-1
0.25100	-0
0.25467	0
0.25833	1
0.26200	1
0.26567	1
0.26933	2
0.27300	2
0.27667	1
0.28033	1
0.28400	1
0.28767	1
0.29133	0
0.29500	0
0.29867	-0
0.30233	-1
0.30600	-1
0.30967	-1
0.31333	-1
0.31700	-1
0.32067	-1
0.32433	-1
0.32800	-1
0.33167	-1
0.33533	-2
0.33900	-2
0.34267	-2
0.34633	-1
0.35000	-1
0.35367	-1
0.35733	-1
0.36100	-1
0.36467	-1
0.36833	-1
0.37200	-1
0.37567	-2
0.37933	-2
0.38300	-2
0.38667	-2
0.39033	-2
0.39400	-2
0.39767	-1
0.40133	-1
0.40500	-1
0.40867	-1
0.41233	-1
0.41600	-1
0.41967	-0
0.42333	0
0.42700	1
0.43067	1
0.43433	1
0.43800	1
0.44167	0
0.44533	0
0.44900	0
0.45267	0
0.45633	0
0.46000	0
0.46367	1
0.46733	1
0.47100	1
0.47467	1
0.47833	1
0.48200	1
0.48567	2
0.48933	2
0.49300	2
0.49667	2
0.50033	2
0.50400	2
0.50767	2
0.51133	1
0.51500	1
0.51867	0
0.52233	-0
0.52600	-0
0.52967	-0
0.53333	-1
0.53700	-1
0.54067	-1
0.54433	-1
0.54800	-1
0.55167	-1
0.55533	-1
0.55900	-1
0.56267	-0
0.56633	-0
0.57000	-0
0.57367	-0
0.57733	-0
0.58100	0
0.58467	0
0.58833	0
0.59200	0
0.59567	0
0.59933	0
0.60300	1
0.60667	1
0.61033	1
0.61400	1
0.61767	1
0.62133	1
0.62500	1
0.62867	1
0.63233	0
0.63600	-0
0.63967	-1
0.64333	-2
0.64700	-2
0.65067	-2
0.65433	-3
0.65800	-3
0.66167	-3
0.66533	-3
0.66900	-3
0.67267	-2
0.67633	-2
0.68000	-1
0.68367	-1
0.68733	-0
0.69100	0
0.69467	1
0.69833	1
0.70200	1
0.70567	1
0.70933	1
0.71300	0
0.71667	0
0.72033	0
0.72400	-0
0.72767	-0
0.73133	-0
0.73500	-0
0.73867	-0
0.74233	-0
0.74600	-0
0.74967	-0
0.75333	-0
0.75700	-0
0.76067	-1
0.76433	-1
0.76800	-2
0.77167	-2
0.77533	-3
0.77900	-3
0.78267	-3
0.78633	-4
0.79000	-4
0.79367	-5
0.79733	-5
0.80100	-5
0.80467	-5
0.80833	-5
0.81200	-5
0.81567	-5
0.81933	-4
0.82300	-4
0.82667	-4
0.83033	-3
0.83400	-3
0.83767	-3
0.84133	-2
0.84500	-2
0.84867	-2
0.85233	-2
0.85600	-2
0.85967	-1
0.86333	-1
0.86700	-2
0.87067	-1
0.87433	-1
0.87800	-2
0.88167	-2
0.88533	-1
0.88900	-1
0.89267	-1
0.89633	-1
0.90000	-1
0.90367	-1
0.90733	-1
0.91100	-1
0.91467	-1
0.91833	-1
0.92200	-1
0.92567	-1
0.92933	-1
0.93300	-1
0.93667	-1
0.94033	-1
0.94400	-1
0.94767	-1
0.95133	-1
0.95500	-0
0.95867	-0
0.96233	0
0.96600	0
0.96967	0
0.97333	0
0.97700	1
0.98067	1
0.98433	1
0.98800	1
0.99167	1
0.99533	1
0.99900	1
1.00267	1
1.00633	1
1.01000	1
1.01367	1
1.01733	0
1.02100	-0
1.02467	-1
1.02833	-1
1.03200	-1
1.03567	-2
1.03933	-2
1.04300	-2
1.04667	-3
1.05033	-3
1.05400	-3
1.05767	-3
1.06133	-3
1.06500	-3
1.06867	-3
1.07233	-3
1.07600	-3
1.07967	-3
1.08333	-3
1.08700	-2
1.09067	-2
1.09433	-2
1.09800	-2
1.10167	-1
1.10533	-1
1.10900	-1
1.11267	-1
1.11633	-1
1.12000	-1
1.12367	-1
1.12733	-1
1.13100	-2
1.13467	-2
1.13833	-2
1.14200	-2
1.14567	-3
1.14933	-3
1.15300	-3
1.15667	-3
1.16033	-3
1.16400	-3
1.16767	-3
1.17133	-3
1.17500	-3
1.17867	-3
1.18233	-3
1.18600	-3
1.18967	-3
1.19333	-3
1.19700	-4
1.20067	-3
1.20433	-3
1.20800	-2
1.21167	-2
1.21533	-1
1.21900	-1
1.22267	-1
1.22633	-1
1.23000	-1
1.23367	-1
1.23733	-0
1.24100	0
1.24467	0
1.24833	1
1.25200	1
1.25567	0
1.25933	-0
1.26300	-0
1.26667	-1
1.27033	-1
1.27400	-2
1.27767	-2
1.28133	-2
1.28500	-2
1.28867	-2
1.29233	-2
1.29600	-1
1.29967	-1
1.30333	-1
1.30700	-1
1.31067	-1
1.31433	-1
1.31800	-2
1.32167	-2
1.32533	-2
1.32900	-2
1.33267	-2
1.33633	-2
1.34000	-2
1.34367	-2
1.34733	-2
1.35100	-2
1.35467	-2
1.35833	-2
1.36200	-2
1.36567	-2
1.36933	-3
1.37300	-3
1.37667	-3
1.38033	-3
1.38400	-2
1.38767	-2
1.39133	-2
1.39500	-1
1.39867	-1
1.40233	-1
1.40600	-2
1.40967	-2
1.41333	-3
1.41700	-3
1.42067	-4
1.42433	-4
1.42800	-5
1.43167	-6
1.43533	-6
1.43900	-6
1.44267	-7
1.44633	-7
1.45000	-7
1.45367	-7
1.45733	-7
1.46100	-7
1.46467	-6
1.46833	-6
1.47200	-6
1.47567	-5
1.47933	-5
1.48300	-4
1.48667	-4
1.49033	-3
1.49400	-3
1.49767	-3
1.50133	-2
1.50500	-2
1.50867	-2
1.51233	-1
1.51600	-1
1.51967	-1
1.52333	-1
1.52700	-1
1.53067	-1
1.53433	-1
1.53800	-1
1.54167	-1
1.54533	-2
1.54900	-2
1.55267	-2
1.55633	-2
1.56000	-3
1.56367	-4
1.56733	-4
1.57100	-5
1.57467	-5
1.57833	-6
1.58200	-6
1.58567	-6
1.58933	-6
1.59300	-6
1.59667	-6
1.60033	-6
1.60400	-7
1.60767	-8
1.61133	-10
1.61500	-11
1.61867	-13
1.62233	-16
1.62600	-19
1.62967	-22
1.63333	-25
1.63700	-29
1.64067	-32
1.64433	-36
1.64800	-39
1.65167	-43
1.65533	-46
1.65900	-50
1.66267	-53
1.66633	-57
1.67000	-61
1.67367	-65
1.67733	-70
1.68100	-75
1.68467	-80
1.68833	-85
1.69200	-90
1.69567	-93
1.69933	-97
1.70300	-99
1.70667	-101
1.71033	-103
1.71400	-105
1.71767	-106
1.72133	-108
1.72500	-108
1.72867	-109
1.73233	-109
1.73600	-109
1.73967	-109
1.74333	-109
1.74700	-109
1.75067	-109
1.75433	-108
1.75800	-108
1.76167	-109
1.76533	-110
1.76900	-111
1.77267	-112
1.77633	-113
1.78000	-114
1.78367	-114
1.78733	-114
1.79100	-114
1.79467	-114
1.79833	-113
1.80200	-112
1.80567	-112
1.80933	-111
1.81300	-111
1.81667	-111
1.82033	-111
1.82400	-112
1.82767	-113
1.83133	-113
1.83500	-114
1.83867	-115
1.84233	-115
1.84600	-116
1.84967	-116
1.85333	-116
1.85700	-116
1.86067	-116
1.86433	-116
1.86800	-116
1.87167	-116
1.87533	-116
1.87900	-115
1.88267	-115
1.88633	-114
1.89000	-114
1.89367	-113
1.89733	-113
1.90100	-113
1.90467	-113
1.90833	-112
1.91200	-112
1.91567	-111
1.91933	-111
1.92300	-111
1.92667	-111
1.93033	-111
1.93400	-111
1.93767	-111
1.94133	-111
1.94500	-111
1.94867	-111
1.95233	-111
1.95600	-111
1.95967	-110
1.96333	-110
1.96700	-110
1.97067	-109
1.97433	-109
1.97800	-110
1.98167	-110
1.98533	-110
1.98900	-110
1.99267	-110
1.99633	-109
2.00000	-109
2.00367	-108
2.00733	-108
2.01100	-107
2.01467	-107
2.01833	-106
2.02200	-105
2.02567	-105
2.02933	-104
2.03300	-103
2.03667	-102
2.04033	-102
2.04400	-101
2.04767	-101
2.05133	-101
2.05500	-100
2.05867	-100
2.06233	-100
2.06600	-100
2.06967	-99
2.07333	-99
2.07700	-99
2.08067	-99
2.08433	-99
2.08800	-99
2.09167	-100
2.09533	-100
2.09900	-99
2.10267	-99
2.10633	-98
2.11000	-98
2.11367	-98
2.11733	-98
2.12100	-98
2.12467	-98
2.12833	-97
2.13200	-97
2.13567	-96
2.13933	-96
2.14300	-95
2.14667	-95
2.15033	-95
2.15400	-95
2.15767	-96
2.16133	-96
2.16500	-96
2.16867	-95
2.17233	-94
2.17600	-93
2.17967	-91
2.18333	-90
2.18700	-90
2.19067	-90
2.19433	-90
2.19800	-90
2.20167	-90
2.20533	-91
2.20900	-91
2.21267	-91
2.21633	-91
2.22000	-91
2.22367	-90
2.22733	-90
2.23100	-90
2.23467	-89
2.23833	-89
2.24200	-90
2.24567	-91
2.24933	-92
2.25300	-92
2.25667	-92
2.26033	-92
2.26400	-91
2.26767	-90
2.27133	-88
2.27500	-87
2.27867	-86
2.28233	-85
2.28600	-84
2.28967	-84
2.29333	-83
2.29700	-83
2.30067	-82
2.30433	-82
2.30800	-81
2.31167	-81
2.31533	-81
2.31900	-80
2.32267	-80
2.32633	-80
2.33000	-80
2.33367	-80
2.33733	-80
2.34100	-80
2.34467	-80
2.34833	-79
2.35200	-78
2.35567	-76
2.35933	-75
2.36300	-73
2.36667	-71
2.37033	-69
2.37400	-66
2.37767	-62
2.38133	-58
2.38500	-54
2.38867	-50
2.39233	-45
2.39600	-41
2.39967	-36
2.40333	-32
2.40700	-28
2.41067	-24
2.41433	-21
2.41800	-19
2.42167	-17
2.42533	-15
2.42900	-14
2.43267	-13
2.43633	-12
2.44000	-11
2.44367	-10
2.44733	-8
2.45100	-7
2.45467	-6
2.45833	-5
2.46200	-4
2.46567	-4
2.46933	-3
2.47300	-3
2.47667	-2
2.48033	-1
2.48400	1
2.48767	2
2.49133	3
2.49500	3
2.49867	4
2.50233	4
2.50600	4
2.50967	5
2.51333	6
2.51700	7
2.52067	8
2.52433	9
2.52800	10
2.53167	11
2.53533	11
2.53900	12
2.54267	13
2.54633	13
2.55000	13
2.55367	13
2.55733	13
2.56100	13
2.56467	13
2.56833	13
2.57200	13
2.57567	14
2.57933	14
2.58300	14
2.58667	15
2.59033	15
2.59400	15
2.59767	15
2.60133	15
2.60500	15
2.60867	15
2.61233	15
2.61600	16
2.61967	16
2.62333	17
2.62700	17
2.63067	17
2.63433	17
2.63800	17
2.64167	17
2.64533	17
2.64900	17
2.65267	17
2.65633	18
2.66000	18
2.66367	19
2.66733	19
2.67100	20
2.67467	20
2.67833	20
2.68200	21
2.68567	21
2.68933	22
2.69300	22
2.69667	22
2.70033	22
2.70400	22
2.70767	23
2.71133	23
2.71500	22
2.71867	22
2.72233	22
2.72600	22
2.72967	22
2.73333	22
2.73700	22
2.74067	22
2.74433	22
2.74800	22
2.75167	23
2.75533	23
2.75900	24
2.76267	24
2.76633	24
2.77000	25
2.77367	26
2.77733	26
2.78100	26
2.78467	26
2.78833	27
2.79200	27
2.79567	27
2.79933	26
2.80300	26
2.80667	27
2.81033	27
2.81400	27
2.81767	26
2.82133	25
2.82500	25
2.82867	24
2.83233	23
2.83600	23
2.83967	22
2.84333	20
2.84700	18
2.85067	14
2.85433	9
2.85800	0
2.86167	-11
2.86533	-27
2.86900	-47
2.87267	-71
2.87633	-100
2.88000	-133
2.88367	-170
2.88733	-211
2.89100	-256
2.89467	-303
2.89833	-354
2.90200	-406
2.90567	-460
2.90933	-515
2.91300	-569
2.91667	-624
2.92033	-679
2.92400	-732
2.92767	-784
2.93133	-834
2.93500	-885
2.93867	-939
2.94233	-997
2.94600	-1049
2.94967	-1087
2.95333	-1101
2.95700	-1089
2.96067	-1054
2.96433	-999
2.96800	-930
2.97167	-853
2.97533	-773
2.97900	-693
2.98267	-615
2.98633	-542
2.99000	-474
2.99367	-413
2.99733	-357
3.00100	-307
3.00467	-264
3.00833	-225
3.01200	-192
3.01567	-163
3.01933	-138
3.02300	-117
3.02667	-98
3.03033	-82
3.03400	-69
3.03767	-57
3.04133	-47
3.04500	-38
3.04867	-31
3.05233	-25
3.05600	-20
3.05967	-15
3.06333	-11
3.06700	-7
3.07067	-4
3.07433	-2
3.07800	0
3.08167	2
3.08533	4
3.08900	6
3.09267	7
3.09633	8
3.10000	9
3.10367	10
3.10733	10
3.11100	11
3.11467	12
3.11833	12
3.12200	13
3.12567	14
3.12933	14
3.13300	15
3.13667	15
3.14033	16
3.14400	16
3.14767	17
3.15133	17
3.15500	17
3.15867	17
3.16233	18
3.16600	18
3.16967	18
3.17333	19
3.17700	19
3.18067	19
3.18433	20
3.18800	20
3.19167	20
3.19533	20
3.19900	20
3.20267	20
3.20633	20
3.21000	20
3.21367	20
3.21733	21
3.22100	21
3.22467	21
3.22833	21
3.23200	21
3.23567	21
3.23933	21
3.24300	21
3.24667	21
3.25033	21
3.25400	21
3.25767	21
3.26133	21
3.26500	21
3.26867	21
3.27233	21
3.27600	21
3.27967	21
3.28333	21
3.28700	21
3.29067	21
3.29433	21
3.29800	21
3.30167	21
3.30533	21
3.30900	21
3.31267	21
3.31633	21
3.32000	21
3.32367	21
3.32733	21
3.33100	21
3.33467	21
3.33833	21
3.34200	22
3.34567	22
3.34933	23
3.35300	23
3.35667	24
3.36033	24
3.36400	24
3.36767	25
3.37133	25
3.37500	25
3.37867	25
3.38233	25
3.38600	25
3.38967	25
3.39333	25
3.39700	25
3.40067	25
3.40433	25
3.40800	26
3.41167	26
3.41533	26
3.41900	26
3.42267	26
3.42633	26
3.43000	26
3.43367	26
3.43733	26
3.44100	26
3.44467	26
3.44833	26
3.45200	26
3.45567	26
3.45933	26
3.46300	26
3.46667	26
3.47033	27
3.47400	27
3.47767	27
3.48133	27
3.48500	27
3.48867	28
3.49233	28
3.49600	28
3.49967	28
3.50333	28
3.50700	29
3.51067	29
3.51433	29
3.51800	29
3.52167	29
3.52533	29
3.52900	29
3.53267	29
3.53633	29
3.54000	29
3.54367	29
3.54733	29
3.55100	29
3.55467	29
3.55833	29
3.56200	28
3.56567	27
3.56933	27
3.57300	26
3.57667	26
3.58033	26
3.58400	26
3.58767	25
3.59133	25
3.59500	25
3.59867	25
3.60233	25
3.60600	25
3.60967	24
3.61333	24
3.61700	24
3.62067	23
3.62433	23
3.62800	23
3.63167	23
3.63533	23
3.63900	23
3.64267	23
3.64633	23
3.65000	23
3.65367	23
3.65733	24
3.66100	24
3.66467	24
3.66833	24
3.67200	24
3.67567	25
3.67933	25
3.68300	25
3.68667	25
3.69033	25
3.69400	25
3.69767	25
3.70133	25
3.70500	25
3.70867	25
3.71233	25
3.71600	24
3.71967	24
3.72333	24
3.72700	24
3.73067	24
3.73433	24
3.73800	24
3.74167	24
3.74533	24
3.74900	24
3.75267	25
3.75633	25
3.76000	25
3.76367	25
3.76733	25
3.77100	25
3.77467	25
3.77833	25
3.78200	24
3.78567	24
3.78933	24
3.79300	24
3.79667	24
3.80033	24
3.80400	24
3.80767	25
3.81133	25
3.81500	25
3.81867	25
3.82233	25
3.82600	25
3.82967	25
3.83333	25
3.83700	25
3.84067	25
3.84433	25
3.84800	25
3.85167	25
3.85533	25
3.85900	25
3.86267	25
3.86633	25
3.87000	25
3.87367	25
3.87733	25
3.88100	25
3.88467	25
3.88833	25
3.89200	26
3.89567	26
3.89933	26
3.90300	26
3.90667	26
3.91033	26
3.91400	26
3.91767	26
3.92133	26
3.92500	26
3.92867	26
3.93233	26
3.93600	26
3.93967	26
3.94333	26
3.94700	26
3.95067	26
3.95433	26
3.95800	26
3.96167	26
3.96533	26
3.96900	25
3.97267	25
3.97633	25
3.98000	24
3.98367	24
3.98733	24
3.99100	24
3.99467	24
3.99833	24

[Chromatogram (Ch3)]
Interval(msec)	220
# of Points	1091
Start Time(min)	0.002
End Time(min)	3.998
R.Time (min)	Intensity
0.00167	0
0.00533	2
0.00900	4
0.01267	5
0.01633	5
0.02000	5
0.02367	5
0.02733	4
0.03100	2
0.03467	1
0.03833	-1
0.04200	-1
0.04567	1
0.04933	3
0.05300	4
0.05667	5
0.06033	4
0.06400	2
0.06767	-0
0.07133	-0
0.07500	0
0.07867	-1
0.08233	-2
0.08600	-1
0.08967	-1
0.09333	-0
0.09700	-0
0.10067	0
0.10433	2
0.10800	3
0.11167	0
0.11533	-2
0.11900	-2
0.12267	0
0.12633	1
0.13000	2
0.13367	2
0.13733	3
0.14100	4
0.14467	4
0.14833	4
0.15200	5
0.15567	4
0.15933	3
0.16300	1
0.16667	-2
0.17033	-4
0.17400	-5
0.17767	-4
0.18133	-2
0.18500	-1
0.18867	1
0.19233	1
0.19600	1
0.19967	-0
0.20333	-2
0.20700	-4
0.21067	-6
0.21433	-7
0.21800	-7
0.22167	-6
0.22533	-5
0.22900	-1
0.23267	-0
0.23633	1
0.24000	1
0.24367	0
0.24733	1
0.25100	2
0.25467	1
0.25833	0
0.26200	0
0.26567	-0
0.26933	-1
0.27300	-2
0.27667	-1
0.28033	-3
0.28400	-4
0.28767	-6
0.29133	-6
0.29500	-5
0.29867	-4
0.30233	-2
0.30600	-0
0.30967	-1
0.31333	0
0.31700	2
0.32067	2
0.32433	1
0.32800	1
0.33167	-0
0.33533	-2
0.33900	-2
0.34267	-1
0.34633	-0
0.35000	-2
0.35367	-2
0.35733	-2
0.36100	-3
0.36467	-6
0.36833	-6
0.37200	-4
0.37567	-3
0.37933	-1
0.38300	1
0.38667	2
0.39033	1
0.39400	1
0.39767	2
0.40133	2
0.40500	2
0.40867	2
0.41233	1
0.41600	0
0.41967	1
0.42333	0
0.42700	-1
0.43067	-1
0.43433	-1
0.43800	1
0.44167	3
0.44533	3
0.44900	3
0.45267	5
0.45633	6
0.46000	5
0.46367	2
0.46733	2
0.47100	2
0.47467	2
0.47833	1
0.48200	1
0.48567	-1
0.48933	-0
0.49300	2
0.49667	2
0.50033	2
0.50400	1
0.50767	-2
0.51133	-2
0.51500	-3
0.51867	-1
0.52233	0
0.52600	0
0.52967	-0
0.53333	1
0.53700	1
0.54067	1
0.54433	-1
0.54800	-2
0.55167	-1
0.55533	0
0.55900	2
0.56267	2
0.56633	1
0.57000	2
0.57367	2
0.57733	1
0.58100	1
0.58467	2
0.58833	3
0.59200	3
0.59567	2
0.59933	-0
0.60300	-1
0.60667	-1
0.61033	-2
0.61400	-1
0.61767	2
0.62133	5
0.62500	6
0.62867	6
0.63233	7
0.63600	7
0.63967	6
0.64333	6
0.64700	4
0.65067	3
0.65433	2
0.65800	2
0.66167	0
0.66533	-0
0.66900	0
0.67267	1
0.67633	3
0.68000	4
0.68367	4
0.68733	4
0.69100	3
0.69467	3
0.69833	4
0.70200	3
0.70567	4
0.70933	4
0.71300	2
0.71667	1
0.72033	-1
0.72400	-1
0.72767	-1
0.73133	-1
0.73500	1
0.73867	3
0.74233	3
0.74600	2
0.74967	4
0.75333	3
0.75700	3
0.76067	3
0.76433	3
0.76800	4
0.77167	4
0.77533	6
0.77900	8
0.78267	8
0.78633	8
0.79000	9
0.79367	9
0.79733	9
0.80100	8
0.80467	8
0.80833	9
0.81200	9
0.81567	8
0.81933	8
0.82300	8
0.82667	7
0.83033	9
0.83400	11
0.83767	12
0.84133	11
0.84500	10
0.84867	7
0.85233	5
0.85600	5
0.85967	7
0.86333	10
0.86700	10
0.87067	9
0.87433	10
0.87800	12
0.88167	10
0.88533	10
0.88900	10
0.89267	9
0.89633	9
0.90000	11
0.90367	13
0.90733	13
0.91100	13
0.91467	13
0.91833	13
0.92200	12
0.92567	12
0.92933	13
0.93300	13
0.93667	13
0.94033	14
0.94400	14
0.94767	13
0.95133	12
0.95500	12
0.95867	13
0.96233	14
0.96600	15
0.96967	15
0.97333	15
0.97700	16
0.98067	15
0.98433	12
0.98800	10
0.99167	11
0.99533	11
0.99900	8
1.00267	6
1.00633	7
1.01000	6
1.01367	7
1.01733	8
1.02100	10
1.02467	10
1.02833	10
1.03200	10
1.03567	9
1.03933	9
1.04300	10
1.04667	11
1.05033	13
1.05400	15
1.05767	14
1.06133	14
1.06500	13
1.06867	11
1.07233	11
1.07600	11
1.07967	11
1.08333	11
1.08700	9
1.09067	10
1.09433	10
1.09800	10
1.10167	8
1.10533	8
1.10900	11
1.11267	12
1.11633	11
1.12000	12
1.12367	12
1.12733	11
1.13100	10
1.13467	10
1.13833	11
1.14200	12
1.14567	13
1.14933	11
1.15300	10
1.15667	10
1.16033	11
1.16400	11
1.16767	9
1.17133	8
1.17500	6
1.17867	5
1.18233	4
1.18600	5
1.18967	7
1.19333	8
1.19700	11
1.20067	13
1.20433	13
1.20800	12
1.21167	12
1.21533	13
1.21900	15
1.22267	16
1.22633	14
1.23000	11
1.23367	10
1.23733	10
1.24100	10
1.24467	11
1.24833	11
1.25200	9
1.25567	9
1.25933	8
1.26300	8
1.26667	8
1.27033	8
1.27400	8
1.27767	11
1.28133	13
1.28500	14
1.28867	14
1.29233	13
1.29600	13
1.29967	11
1.30333	8
1.30700	7
1.31067	10
1.31433	14
1.31800	17
1.32167	17
1.32533	16
1.32900	15
1.33267	14
1.33633	14
1.34000	14
1.34367	13
1.34733	13
1.35100	13
1.35467	14
1.35833	15
1.36200	15
1.36567	15
1.36933	16
1.37300	18
1.37667	20
1.38033	19
1.38400	17
1.38767	15
1.39133	12
1.39500	11
1.39867	11
1.40233	12
1.40600	13
1.40967	13
1.41333	13
1.41700	13
1.42067	14
1.42433	15
1.42800	17
1.43167	18
1.43533	17
1.43900	17
1.44267	17
1.44633	14
1.45000	13
1.45367	12
1.45733	12
1.46100	16
1.46467	18
1.46833	19
1.47200	19
1.47567	17
1.47933	17
1.48300	18
1.48667	19
1.49033	18
1.49400	18
1.49767	18
1.50133	17
1.50500	17
1.50867	16
1.51233	15
1.51600	15
1.51967	14
1.52333	14
1.52700	12
1.53067	10
1.53433	10
1.53800	12
1.54167	14
1.54533	14
1.54900	14
1.55267	13
1.55633	12
1.56000	11
1.56367	12
1.56733	12
1.57100	13
1.57467	16
1.57833	17
1.58200	17
1.58567	18
1.58933	21
1.59300	22
1.59667	21
1.60033	18
1.60400	15
1.60767	15
1.61133	16
1.61500	18
1.61867	21
1.62233	22
1.62600	20
1.62967	19
1.63333	19
1.63700	20
1.64067	21
1.64433	21
1.64800	20
1.65167	18
1.65533	18
1.65900	21
1.66267	23
1.66633	24
1.67000	26
1.67367	27
1.67733	26
1.68100	26
1.68467	28
1.68833	29
1.69200	30
1.69567	29
1.69933	28
1.70300	27
1.70667	27
1.71033	28
1.71400	29
1.71767	28
1.72133	29
1.72500	31
1.72867	33
1.73233	33
1.73600	32
1.73967	34
1.74333	34
1.74700	35
1.75067	37
1.75433	37
1.75800	37
1.76167	36
1.76533	35
1.76900	34
1.77267	33
1.77633	33
1.78000	35
1.78367	35
1.78733	36
1.79100	37
1.79467	36
1.79833	36
1.80200	37
1.80567	36
1.80933	35
1.81300	36
1.81667	39
1.82033	42
1.82400	44
1.82767	46
1.83133	46
1.83500	46
1.83867	45
1.84233	45
1.84600	44
1.84967	43
1.85333	43
1.85700	44
1.86067	47
1.86433	49
1.86800	52
1.87167	54
1.87533	55
1.87900	55
1.88267	56
1.88633	55
1.89000	54
1.89367	53
1.89733	52
1.90100	53
1.90467	55
1.90833	55
1.91200	55
1.91567	54
1.91933	55
1.92300	56
1.92667	56
1.93033	58
1.93400	62
1.93767	64
1.94133	65
1.94500	64
1.94867	63
1.95233	62
1.95600	65
1.95967	69
1.96333	71
1.96700	70
1.97067	68
1.97433	67
1.97800	69
1.98167	71
1.98533	73
1.98900	74
1.99267	73
1.99633	73
2.00000	73
2.00367	75
2.00733	76
2.01100	78
2.01467	79
2.01833	82
2.02200	85
2.02567	87
2.02933	87
2.03300	88
2.03667	88
2.04033	89
2.04400	90
2.04767	91
2.05133	92
2.05500	92
2.05867	92
2.06233	94
2.06600	97
2.06967	99
2.07333	99
2.07700	101
2.08067	101
2.08433	100
2.08800	100
2.09167	101
2.09533	101
2.09900	102
2.10267	106
2.10633	109
2.11000	111
2.11367	111
2.11733	112
2.12100	116
2.12467	119
2.12833	122
2.13200	122
2.13567	122
2.13933	122
2.14300	122
2.14667	122
2.15033	125
2.15400	127
2.15767	128
2.16133	131
2.16500	134
2.16867	137
2.17233	138
2.17600	137
2.17967	137
2.18333	137
2.18700	140
2.19067	143
2.19433	145
2.19800	144
2.20167	144
2.20533	144
2.20900	145
2.21267	146
2.21633	150
2.22000	154
2.22367	155
2.22733	158
2.23100	159
2.23467	159
2.23833	162
2.24200	162
2.24567	164
2.24933	166
2.25300	166
2.25667	168
2.26033	169
2.26400	169
2.26767	167
2.27133	166
2.27500	168
2.27867	171
2.28233	174
2.28600	177
2.28967	178
2.29333	179
2.29700	180
2.30067	183
2.30433	185
2.30800	187
2.31167	187
2.31533	185
2.31900	184
2.32267	187
2.32633	192
2.33000	196
2.33367	197
2.33733	198
2.34100	200
2.34467	202
2.34833	205
2.35200	206
2.35567	206
2.35933	204
2.36300	204
2.36667	203
2.37033	203
2.37400	205
2.37767	210
2.38133	212
2.38500	212
2.38867	209
2.39233	209
2.39600	211
2.39967	213
2.40333	215
2.40700	217
2.41067	220
2.41433	224
2.41800	226
2.42167	228
2.42533	230
2.42900	232
2.43267	233
2.43633	234
2.44000	237
2.44367	288
2.44733	424
2.45100	572
2.45467	691
2.45833	759
2.46200	764
2.46567	731
2.46933	690
2.47300	659
2.47667	640
2.48033	626
2.48400	602
2.48767	564
2.49133	521
2.49500	480
2.49867	445
2.50233	418
2.50600	399
2.50967	389
2.51333	391
2.51700	403
2.52067	423
2.52433	444
2.52800	459
2.53167	464
2.53533	455
2.53900	433
2.54267	406
2.54633	375
2.55000	348
2.55367	323
2.55733	300
2.56100	280
2.56467	266
2.56833	259
2.57200	252
2.57567	247
2.57933	244
2.58300	242
2.58667	242
2.59033	241
2.59400	241
2.59767	241
2.60133	239
2.60500	234
2.60867	227
2.61233	219
2.61600	207
2.61967	195
2.62333	181
2.62700	170
2.63067	158
2.63433	148
2.63800	138
2.64167	128
2.64533	116
2.64900	106
2.65267	98
2.65633	91
2.66000	83
2.66367	73
2.66733	64
2.67100	56
2.67467	48
2.67833	43
2.68200	37
2.68567	35
2.68933	34
2.69300	32
2.69667	32
2.70033	33
2.70400	35
2.70767	38
2.71133	44
2.71500	48
2.71867	52
2.72233	55
2.72600	59
2.72967	62
2.73333	66
2.73700	71
2.74067	74
2.74433	78
2.74800	82
2.75167	87
2.75533	91
2.75900	96
2.76267	98
2.76633	101
2.77000	103
2.77367	105
2.77733	107
2.78100	109
2.78467	113
2.78833	118
2.79200	118
2.79567	119
2.79933	124
2.80300	130
2.80667	134
2.81033	140
2.81400	148
2.81767	157
2.82133	167
2.82500	183
2.82867	213
2.83233	275
2.83600	387
2.83967	569
2.84333	840
2.84700	1211
2.85067	1678
2.85433	2220
2.85800	2805
2.86167	3384
2.86533	3911
2.86900	4341
2.87267	4645
2.87633	4809
2.88000	4836
2.88367	4740
2.88733	4547
2.89100	4280
2.89467	3969
2.89833	3634
2.90200	3294
2.90567	2962
2.90933	2648
2.91300	2357
2.91667	2090
2.92033	1847
2.92400	1631
2.92767	1440
2.93133	1270
2.93500	1122
2.93867	993
2.94233	880
2.94600	780
2.94967	693
2.95333	619
2.95700	555
2.96067	501
2.96433	453
2.96800	409
2.97167	371
2.97533	337
2.97900	312
2.98267	289
2.98633	266
2.99000	247
2.99367	232
2.99733	218
3.00100	207
3.00467	197
3.00833	189
3.01200	181
3.01567	172
3.01933	163
3.02300	156
3.02667	151
3.03033	148
3.03400	147
3.03767	144
3.04133	142
3.04500	142
3.04867	143
3.05233	143
3.05600	142
3.05967	139
3.06333	135
3.06700	133
3.07067	132
3.07433	131
3.07800	131
3.08167	130
3.08533	128
3.08900	128
3.09267	130
3.09633	129
3.10000	129
3.10367	129
3.10733	129
3.11100	129
3.11467	129
3.11833	129
3.12200	129
3.12567	131
3.12933	131
3.13300	131
3.13667	128
3.14033	125
3.14400	130
3.14767	147
3.15133	173
3.15500	205
3.15867	240
3.16233	280
3.16600	321
3.16967	360
3.17333	396
3.17700	428
3.18067	458
3.18433	484
3.18800	505
3.19167	524
3.19533	542
3.19900	558
3.20267	572
3.20633	584
3.21000	596
3.21367	609
3.21733	618
3.22100	628
3.22467	637
3.22833	644
3.23200	650
3.23567	656
3.23933	664
3.24300	674
3.24667	683
3.25033	691
3.25400	699
3.25767	705
3.26133	711
3.26500	718
3.26867	724
3.27233	729
3.27600	734
3.27967	740
3.28333	747
3.28700	755
3.29067	763
3.29433	769
3.29800	774
3.30167	779
3.30533	784
3.30900	789
3.31267	793
3.31633	795
3.32000	795
3.32367	796
3.32733	798
3.33100	800
3.33467	802
3.33833	805
3.34200	805
3.34567	804
3.34933	805
3.35300	804
3.35667	803
3.36033	802
3.36400	802
3.36767	800
3.37133	798
3.37500	796
3.37867	793
3.38233	792
3.38600	793
3.38967	793
3.39333	792
3.39700	789
3.40067	787
3.40433	785
3.40800	782
3.41167	778
3.41533	776
3.41900	775
3.42267	773
3.42633	771
3.43000	770
3.43367	768
3.43733	766
3.44100	763
3.44467	760
3.44833	756
3.45200	753
3.45567	752
3.45933	749
3.46300	748
3.46667	747
3.47033	746
3.47400	748
3.47767	747
3.48133	745
3.48500	741
3.48867	738
3.49233	737
3.49600	735
3.49967	732
3.50333	729
3.50700	728
3.51067	727
3.51433	727
3.51800	727
3.52167	725
3.52533	725
3.52900	723
3.53267	721
3.53633	719
3.54000	719
3.54367	719
3.54733	719
3.55100	719
3.55467	717
3.55833	715
3.56200	713
3.56567	712
3.56933	713
3.57300	712
3.57667	711
3.58033	712
3.58400	713
3.58767	714
3.59133	715
3.59500	713
3.59867	711
3.60233	709
3.60600	709
3.60967	709
3.61333	710
3.61700	711
3.62067	709
3.62433	707
3.62800	706
3.63167	705
3.63533	705
3.63900	704
3.64267	702
3.64633	699
3.65000	698
3.65367	696
3.65733	694
3.66100	694
3.66467	693
3.66833	693
3.67200	694
3.67567	692
3.67933	689
3.68300	690
3.68667	689
3.69033	688
3.69400	687
3.69767	684
3.70133	681
3.70500	681
3.70867	682
3.71233	683
3.71600	682
3.71967	679
3.72333	676
3.72700	672
3.73067	671
3.73433	669
3.73800	668
3.74167	667
3.74533	665
3.74900	661
3.75267	657
3.75633	654
3.76000	652
3.76367	652
3.76733	653
3.77100	653
3.77467	653
3.77833	652
3.78200	648
3.78567	645
3.78933	645
3.79300	644
3.79667	643
3.80033	642
3.80400	639
3.80767	636
3.81133	635
3.81500	635
3.81867	636
3.82233	633
3.82600	627
3.82967	624
3.83333	623
3.83700	623
3.84067	623
3.84433	622
3.84800	620
3.85167	619
3.85533	617
3.85900	614
3.86267	609
3.86633	605
3.87000	602
3.87367	603
3.87733	603
3.88100	603
3.88467	602
3.88833	601
3.89200	597
3.89567	593
3.89933	591
3.90300	587
3.90667	583
3.91033	581
3.91400	579
3.91767	579
3.92133	578
3.92500	577
3.92867	573
3.93233	573
3.93600	571
3.93967	570
3.94333	569
3.94700	569
3.95067	570
3.95433	570
3.95800	566
3.96167	563
3.96533	563
3.96900	564
3.97267	565
3.97633	566
3.98000	565
3.98367	563
3.98733	562
3.99100	561
3.99467	559
3.99833	554

[Status Trace (Column Oven Temperature)]
Interval(msec)	1000
# of Points	240
Start Time(min)	0.003
End Time(min)	3.986
Intensity Units	
Intensity Multiplier	1
R.Time (min)	Intensity
0.00263	35.03
0.01930	35.01
0.03597	35.01
0.05263	35.01
0.06930	35.00
0.08597	34.99
0.10263	35.00
0.11930	35.02
0.13597	35.04
0.15263	35.03
0.16930	35.03
0.18597	35.04
0.20263	35.06
0.21930	35.05
0.23597	35.05
0.25263	35.04
0.26930	35.04
0.28597	35.03
0.30263	35.03
0.31930	35.03
0.33597	35.03
0.35263	35.03
0.36930	35.04
0.38597	35.05
0.40263	35.04
0.41930	35.03
0.43597	35.02
0.45263	35.01
0.46930	35.00
0.48597	34.99
0.50263	34.98
0.51930	34.99
0.53597	34.99
0.55263	35.00
0.56930	34.98
0.58597	34.98
0.60263	34.98
0.61930	34.98
0.63597	34.99
0.65263	35.01
0.66930	35.00
0.68597	34.98
0.70263	34.97
0.71930	34.97
0.73597	34.96
0.75263	34.97
0.76930	34.98
0.78597	35.00
0.80263	35.02
0.81930	35.02
0.83597	35.03
0.85263	35.02
0.86930	35.02
0.88597	35.01
0.90263	35.01
0.91930	35.01
0.93597	35.00
0.95263	35.00
0.96930	34.99
0.98597	34.98
1.00263	34.97
1.01930	34.97
1.03597	34.99
1.05263	34.99
1.06930	35.00
1.08597	35.00
1.10263	34.98
1.11930	34.98
1.13597	34.99
1.15263	34.99
1.16930	34.99
1.18597	35.00
1.20263	35.01
1.21930	35.00
1.23597	35.00
1.25263	34.99
1.26930	34.99
1.28597	34.99
1.30263	34.98
1.31930	34.97
1.33597	34.97
1.35263	34.98
1.36930	34.96
1.38597	34.97
1.40263	34.98
1.41930	34.99
1.43597	35.01
1.45263	35.02
1.46930	35.02
1.48597	35.01
1.50263	35.00
1.51930	34.99
1.53597	34.98
1.55263	34.99
1.56930	34.99
1.58597	35.01
1.60263	35.04
1.61930	35.15
1.63597	35.32
1.65263	35.54
1.66930	35.84
1.68597	36.21
1.70263	36.57
1.71930	36.92
1.73597	37.25
1.75263	37.56
1.76930	37.92
1.78597	38.25
1.80263	38.55
1.81930	38.88
1.83597	39.23
1.85263	39.56
1.86930	39.89
1.88597	40.21
1.90263	40.55
1.91930	40.87
1.93597	41.21
1.95263	41.54
1.96930	41.86
1.98597	42.20
2.00263	42.53
2.01930	42.83
2.03597	43.16
2.05263	43.47
2.06930	43.79
2.08597	44.13
2.10263	44.43
2.11930	44.78
2.13597	45.10
2.15263	45.44
2.16930	45.74
2.18597	46.05
2.20263	46.39
2.21930	46.71
2.23597	47.04
2.25263	47.43
2.26930	47.73
2.28597	48.07
2.30263	48.38
2.31930	48.71
2.33597	49.06
2.35263	49.36
2.36930	49.56
2.38597	49.63
2.40263	49.63
2.41930	49.65
2.43597	49.66
2.45263	49.65
2.46930	49.66
2.48597	49.67
2.50263	49.70
2.51930	49.71
2.53597	49.72
2.55263	49.74
2.56930	49.77
2.58597	49.77
2.60263	49.79
2.61930	49.79
2.63597	49.81
2.65263	49.82
2.66930	49.83
2.68597	49.83
2.70263	49.84
2.71930	49.86
2.73597	49.88
2.75263	49.88
2.76930	49.87
2.78597	49.86
2.80263	49.84
2.81930	49.86
2.83597	49.91
2.85263	49.94
2.86930	49.96
2.88597	49.97
2.90263	49.96
2.91930	49.94
2.93597	49.94
2.95263	49.93
2.96930	49.93
2.98597	49.94
3.00263	49.94
3.01930	49.95
3.03597	49.96
3.05263	49.98
3.06930	49.99
3.08597	49.99
3.10263	49.99
3.11930	49.99
3.13597	50.00
3.15263	50.00
3.16930	50.00
3.18597	50.00
3.20263	50.01
3.21930	50.02
3.23597	50.03
3.25263	50.05
3.26930	50.06
3.28597	50.07
3.30263	50.10
3.31930	50.11
3.33597	50.11
3.35263	50.10
3.36930	50.09
3.38597	50.08
3.40263	50.08
3.41930	50.07
3.43597	50.08
3.45263	50.07
3.46930	50.06
3.48597	50.05
3.50263	50.04
3.51930	50.02
3.53597	50.00
3.55263	49.99
3.56930	49.99
3.58597	49.99
3.60263	50.01
3.61930	50.03
3.63597	50.04
3.65263	50.04
3.66930	50.04
3.68597	50.05
3.70263	50.05
3.71930	50.06
3.73597	50.06
3.75263	50.05
3.76930	50.05
3.78597	50.06
3.80263	50.07
3.81930	50.06
3.83597	50.06
3.85263	50.06
3.86930	50.06
3.88597	50.05
3.90263	50.04
3.91930	50.04
3.93597	50.04
3.95263	50.04
3.96930	50.04
3.98597	50.04

[Status Trace (Injection Unit Temperature)]
Interval(msec)	1000
# of Points	240
Start Time(min)	0.003
End Time(min)	3.986
Intensity Units	
Intensity Multiplier	1
R.Time (min)	Intensity
0.00263	99.98
0.01930	99.98
0.03597	99.98
0.05263	99.98
0.06930	99.98
0.08597	99.98
0.10263	99.98
0.11930	99.98
0.13597	99.98
0.15263	99.98
0.16930	99.98
0.18597	99.98
0.20263	99.99
0.21930	99.98
0.23597	99.98
0.25263	99.98
0.26930	99.98
0.28597	99.98
0.30263	99.98
0.31930	99.98
0.33597	99.98
0.35263	99.98
0.36930	99.99
0.38597	99.98
0.40263	99.99
0.41930	99.98
0.43597	99.98
0.45263	99.99
0.46930	99.98
0.48597	99.98
0.50263	99.98
0.51930	99.98
0.53597	99.98
0.55263	99.98
0.56930	99.98
0.58597	99.98
0.60263	99.97
0.61930	99.97
0.63597	99.98
0.65263	99.98
0.66930	99.97
0.68597	99.98
0.70263	99.97
0.71930	99.98
0.73597	99.98
0.75263	99.98
0.76930	99.97
0.78597	99.98
0.80263	99.98
0.81930	99.97
0.83597	99.97
0.85263	99.98
0.86930	99.98
0.88597	99.97
0.90263	99.97
0.91930	99.98
0.93597	99.97
0.95263	99.98
0.96930	99.98
0.98597	99.98
1.00263	99.98
1.01930	99.97
1.03597	99.97
1.05263	99.98
1.06930	99.98
1.08597	99.98
1.10263	99.98
1.11930	99.98
1.13597	99.98
1.15263	99.98
1.16930	99.98
1.18597	99.98
1.20263	99.98
1.21930	99.97
1.23597	99.97
1.25263	99.98
1.26930	99.98
1.28597	99.98
1.30263	99.98
1.31930	99.98
1.33597	99.98
1.35263	99.98
1.36930	99.98
1.38597	99.98
1.40263	99.98
1.41930	99.98
1.43597	99.98
1.45263	99.98
1.46930	99.98
1.48597	99.98
1.50263	99.98
1.51930	99.98
1.53597	99.98
1.55263	99.98
1.56930	99.98
1.58597	99.98
1.60263	99.98
1.61930	99.98
1.63597	99.98
1.65263	99.98
1.66930	99.98
1.68597	99.98
1.70263	99.99
1.71930	99.98
1.73597	99.98
1.75263	99.98
1.76930	99.98
1.78597	99.99
1.80263	99.99
1.81930	99.99
1.83597	99.98
1.85263	99.98
1.86930	99.98
1.88597	99.98
1.90263	99.98
1.91930	99.98
1.93597	99.98
1.95263	99.97
1.96930	99.98
1.98597	99.98
2.00263	99.98
2.01930	99.98
2.03597	99.98
2.05263	99.98
2.06930	99.97
2.08597	99.98
2.10263	99.98
2.11930	99.97
2.13597	99.97
2.15263	99.97
2.16930	99.97
2.18597	99.97
2.20263	99.96
2.21930	99.97
2.23597	99.97
2.25263	99.96
2.26930	99.97
2.28597	99.97
2.30263	99.97
2.31930	99.97
2.33597	99.97
2.35263	99.97
2.36930	99.97
2.38597	99.97
2.40263	99.97
2.41930	99.97
2.43597	99.97
2.45263	99.97
2.46930	99.97
2.48597	99.97
2.50263	99.97
2.51930	99.97
2.53597	99.96
2.55263	99.98
2.56930	99.97
2.58597	99.97
2.60263	99.97
2.61930	99.98
2.63597	99.97
2.65263	99.97
2.66930	99.98
2.68597	99.98
2.70263	99.98
2.71930	99.98
2.73597	99.98
2.75263	99.98
2.76930	99.98
2.78597	99.98
2.80263	99.99
2.81930	99.98
2.83597	99.99
2.85263	99.99
2.86930	99.99
2.88597	100.00
2.90263	100.00
2.91930	100.00
2.93597	100.00
2.95263	100.00
2.96930	100.00
2.98597	100.00
3.00263	100.01
3.01930	100.01
3.03597	100.01
3.05263	100.01
3.06930	100.01
3.08597	100.01
3.10263	100.01
3.11930	100.02
3.13597	100.02
3.15263	100.02
3.16930	100.02
3.18597	100.02
3.20263	100.01
3.21930	100.03
3.23597	100.02
3.25263	100.02
3.26930	100.03
3.28597	100.02
3.30263	100.03
3.31930	100.03
3.33597	100.03
3.35263	100.03
3.36930	100.03
3.38597	100.03
3.40263	100.03
3.41930	100.03
3.43597	100.04
3.45263	100.03
3.46930	100.03
3.48597	100.03
3.50263	100.04
3.51930	100.04
3.53597	100.04
3.55263	100.03
3.56930	100.04
3.58597	100.03
3.60263	100.04
3.61930	100.04
3.63597	100.04
3.65263	100.04
3.66930	100.04
3.68597	100.04
3.70263	100.04
3.71930	100.04
3.73597	100.04
3.75263	100.04
3.76930	100.04
3.78597	100.04
3.80263	100.04
3.81930	100.04
3.83597	100.04
3.85263	100.04
3.86930	100.05
3.88597	100.05
3.90263	100.04
3.91930	100.04
3.93597	100.05
3.95263	100.04
3.96930	100.05
3.98597	100.04

[Status Trace (Carrier Gas Pressure)]
Interval(msec)	1000
# of Points	240
Start Time(min)	0.003
End Time(min)	3.986
Intensity Units	
Intensity Multiplier	1
R.Time (min)	Intensity
0.00263	58.00
0.01930	56.16
0.03597	56.31
0.05263	58.60
0.06930	59.84
0.08597	58.30
0.10263	57.97
0.11930	58.01
0.13597	58.01
0.15263	58.01
0.16930	58.00
0.18597	58.00
0.20263	58.00
0.21930	58.00
0.23597	58.00
0.25263	58.00
0.26930	58.00
0.28597	58.00
0.30263	58.00
0.31930	58.00
0.33597	58.00
0.35263	58.00
0.36930	58.00
0.38597	58.00
0.40263	58.00
0.41930	58.00
0.43597	58.00
0.45263	58.00
0.46930	58.00
0.48597	58.00
0.50263	58.00
0.51930	58.00
0.53597	58.00
0.55263	58.00
0.56930	58.00
0.58597	58.00
0.60263	58.00
0.61930	58.00
0.63597	58.00
0.65263	58.00
0.66930	58.00
0.68597	58.00
0.70263	58.00
0.71930	58.00
0.73597	58.00
0.75263	58.00
0.76930	58.00
0.78597	58.00
0.80263	58.00
0.81930	58.00
0.83597	58.00
0.85263	58.00
0.86930	58.00
0.88597	58.00
0.90263	58.00
0.91930	58.00
0.93597	58.00
0.95263	58.00
0.96930	58.00
0.98597	58.00
1.00263	58.00
1.01930	58.00
1.03597	58.00
1.05263	58.00
1.06930	58.00
1.08597	58.00
1.10263	58.00
1.11930	58.00
1.13597	58.00
1.15263	58.00
1.16930	58.00
1.18597	58.00
1.20263	58.00
1.21930	58.00
1.23597	58.00
1.25263	58.00
1.26930	58.00
1.28597	58.00
1.30263	58.00
1.31930	58.00
1.33597	58.00
1.35263	58.00
1.36930	58.00
1.38597	58.00
1.40263	58.00
1.41930	58.00
1.43597	58.00
1.45263	58.00
1.46930	58.00
1.48597	58.00
1.50263	58.00
1.51930	58.00
1.53597	58.00
1.55263	58.00
1.56930	58.00
1.58597	58.00
1.60263	58.00
1.61930	58.00
1.63597	58.01
1.65263	58.00
1.66930	58.00
1.68597	58.01
1.70263	58.00
1.71930	58.00
1.73597	58.00
1.75263	58.00
1.76930	58.00
1.78597	58.00
1.80263	58.00
1.81930	58.00
1.83597	58.00
1.85263	58.00
1.86930	58.00
1.88597	58.00
1.90263	58.00
1.91930	58.00
1.93597	58.00
1.95263	58.00
1.96930	58.00
1.98597	58.00
2.00263	58.00
2.01930	58.00
2.03597	58.00
2.05263	58.00
2.06930	58.00
2.08597	58.00
2.10263	58.00
2.11930	58.00
2.13597	58.00
2.15263	58.00
2.16930	58.00
2.18597	58.00
2.20263	58.00
2.21930	58.00
2.23597	58.00
2.25263	58.00
2.26930	58.00
2.28597	58.00
2.30263	58.00
2.31930	58.00
2.33597	58.00
2.35263	58.00
2.36930	58.00
2.38597	57.99
2.40263	57.99
2.41930	58.00
2.43597	58.00
2.45263	58.00
2.46930	58.00
2.48597	58.00
2.50263	57.97
2.51930	58.01
2.53597	57.99
2.55263	58.00
2.56930	58.00
2.58597	58.00
2.60263	58.00
2.61930	58.00
2.63597	58.00
2.65263	58.00
2.66930	58.00
2.68597	58.00
2.70263	58.00
2.71930	58.00
2.73597	58.00
2.75263	58.00
2.76930	58.00
2.78597	58.00
2.80263	58.00
2.81930	58.00
2.83597	58.00
2.85263	58.00
2.86930	58.00
2.88597	58.00
2.90263	58.00
2.91930	58.00
2.93597	58.00
2.95263	58.00
2.96930	58.00
2.98597	58.00
3.00263	58.00
3.01930	58.00
3.03597	58.00
3.05263	58.00
3.06930	58.00
3.08597	58.00
3.10263	58.00
3.11930	58.00
3.13597	58.00
3.15263	58.00
3.16930	58.00
3.18597	58.00
3.20263	58.00
3.21930	58.00
3.23597	58.00
3.25263	58.00
3.26930	58.00
3.28597	58.00
3.30263	58.00
3.31930	58.00
3.33597	58.00
3.35263	58.00
3.36930	58.00
3.38597	58.00
3.40263	58.00
3.41930	58.00
3.43597	58.00
3.45263	58.00
3.46930	58.00
3.48597	58.00
3.50263	58.00
3.51930	58.00
3.53597	58.00
3.55263	58.00
3.56930	58.00
3.58597	58.00
3.60263	58.00
3.61930	58.00
3.63597	58.00
3.65263	58.00
3.66930	58.00
3.68597	58.00
3.70263	58.00
3.71930	58.00
3.73597	58.00
3.75263	58.00
3.76930	58.00
3.78597	58.00
3.80263	58.00
3.81930	58.00
3.83597	58.00
3.85263	58.00
3.86930	58.00
3.88597	58.00
3.90263	58.00
3.91930	58.00
3.93597	58.00
3.95263	58.00
3.96930	58.00
3.98597	58.00

[Status Trace (Carrier Gas Flow)]
Interval(msec)	1000
# of Points	240
Start Time(min)	0.003
End Time(min)	3.986
Intensity Units	
Intensity Multiplier	1
R.Time (min)	Intensity
0.00263	34.52
0.01930	34.60
0.03597	34.54
0.05263	34.55
0.06930	34.50
0.08597	34.51
0.10263	34.52
0.11930	34.52
0.13597	34.52
0.15263	34.52
0.16930	34.52
0.18597	34.52
0.20263	34.52
0.21930	34.52
0.23597	34.52
0.25263	34.52
0.26930	34.52
0.28597	34.51
0.30263	34.52
0.31930	34.52
0.33597	34.52
0.35263	34.52
0.36930	34.52
0.38597	34.52
0.40263	34.52
0.41930	34.52
0.43597	34.52
0.45263	34.52
0.46930	34.52
0.48597	34.52
0.50263	34.52
0.51930	34.52
0.53597	34.52
0.55263	34.52
0.56930	34.52
0.58597	34.52
0.60263	34.52
0.61930	34.52
0.63597	34.52
0.65263	34.52
0.66930	34.52
0.68597	34.52
0.70263	34.52
0.71930	34.52
0.73597	34.52
0.75263	34.52
0.76930	34.52
0.78597	34.52
0.80263	34.52
0.81930	34.52
0.83597	34.51
0.85263	34.52
0.86930	34.52
0.88597	34.52
0.90263	34.52
0.91930	34.52
0.93597	34.52
0.95263	34.51
0.96930	34.52
0.98597	34.52
1.00263	34.52
1.01930	34.52
1.03597	34.52
1.05263	34.52
1.06930	34.52
1.08597	34.52
1.10263	34.52
1.11930	34.51
1.13597	34.52
1.15263	34.52
1.16930	34.52
1.18597	34.52
1.20263	34.52
1.21930	34.52
1.23597	34.52
1.25263	34.52
1.26930	34.52
1.28597	34.52
1.30263	34.52
1.31930	34.52
1.33597	34.51
1.35263	34.52
1.36930	34.52
1.38597	34.52
1.40263	34.52
1.41930	34.52
1.43597	34.52
1.45263	34.52
1.46930	34.52
1.48597	34.52
1.50263	34.52
1.51930	34.53
1.53597	34.52
1.55263	34.52
1.56930	34.52
1.58597	34.52
1.60263	34.52
1.61930	34.52
1.63597	34.52
1.65263	34.52
1.66930	34.52
1.68597	34.52
1.70263	34.52
1.71930	34.52
1.73597	34.52
1.75263	34.52
1.76930	34.52
1.78597	34.52
1.80263	34.52
1.81930	34.52
1.83597	34.52
1.85263	34.52
1.86930	34.52
1.88597	34.52
1.90263	34.52
1.91930	34.52
1.93597	34.52
1.95263	34.51
1.96930	34.52
1.98597	34.52
2.00263	34.52
2.01930	34.52
2.03597	34.52
2.05263	34.52
2.06930	34.52
2.08597	34.51
2.10263	34.52
2.11930	34.52
2.13597	34.52
2.15263	34.52
2.16930	34.52
2.18597	34.52
2.20263	34.52
2.21930	34.52
2.23597	34.52
2.25263	34.52
2.26930	34.52
2.28597	34.51
2.30263	34.52
2.31930	34.52
2.33597	34.52
2.35263	34.52
2.36930	34.52
2.38597	34.53
2.40263	34.52
2.41930	34.52
2.43597	34.51
2.45263	34.52
2.46930	34.52
2.48597	34.52
2.50263	34.62
2.51930	34.52
2.53597	34.52
2.55263	34.52
2.56930	34.52
2.58597	34.52
2.60263	34.52
2.61930	34.52
2.63597	34.52
2.65263	34.52
2.66930	34.52
2.68597	34.52
2.70263	34.52
2.71930	34.52
2.73597	34.52
2.75263	34.52
2.76930	34.52
2.78597	34.52
2.80263	34.52
2.81930	34.52
2.83597	34.52
2.85263	34.52
2.86930	34.52
2.88597	34.52
2.90263	34.52
2.91930	34.52
2.93597	34.52
2.95263	34.52
2.96930	34.51
2.98597	34.52
3.00263	34.52
3.01930	34.52
3.03597	34.52
3.05263	34.52
3.06930	34.52
3.08597	34.52
3.10263	34.52
3.11930	34.52
3.13597	34.52
3.15263	34.52
3.16930	34.52
3.18597	34.52
3.20263	34.52
3.21930	34.52
3.23597	34.52
3.25263	34.51
3.26930	34.52
3.28597	34.52
3.30263	34.52
3.31930	34.52
3.33597	34.52
3.35263	34.52
3.36930	34.52
3.38597	34.52
3.40263	34.51
3.41930	34.52
3.43597	34.52
3.45263	34.52
3.46930	34.51
3.48597	34.53
3.50263	34.52
3.51930	34.51
3.53597	34.52
3.55263	34.52
3.56930	34.52
3.58597	34.52
3.60263	34.53
3.61930	34.52
3.63597	34.52
3.65263	34.52
3.66930	34.52
3.68597	34.52
3.70263	34.52
3.71930	34.52
3.73597	34.52
3.75263	34.52
3.76930	34.52
3.78597	34.52
3.80263	34.52
3.81930	34.52
3.83597	34.52
3.85263	34.52
3.86930	34.52
3.88597	34.52
3.90263	34.52
3.91930	34.52
3.93597	34.52
3.95263	34.51
3.96930	34.52
3.98597	34.52

[Status Trace (Column Flow)]
Interval(msec)	1000
# of Points	240
Start Time(min)	0.003
End Time(min)	3.986
Intensity Units	
Intensity Multiplier	1
R.Time (min)	Intensity
0.00263	5.55
0.01930	5.34
0.03597	5.36
0.05263	5.62
0.06930	5.77
0.08597	5.59
0.10263	5.55
0.11930	5.55
0.13597	5.55
0.15263	5.55
0.16930	5.55
0.18597	5.55
0.20263	5.55
0.21930	5.55
0.23597	5.55
0.25263	5.55
0.26930	5.55
0.28597	5.55
0.30263	5.55
0.31930	5.55
0.33597	5.55
0.35263	5.55
0.36930	5.55
0.38597	5.55
0.40263	5.55
0.41930	5.55
0.43597	5.55
0.45263	5.55
0.46930	5.55
0.48597	5.55
0.50263	5.55
0.51930	5.55
0.53597	5.55
0.55263	5.55
0.56930	5.55
0.58597	5.55
0.60263	5.55
0.61930	5.55
0.63597	5.55
0.65263	5.55
0.66930	5.55
0.68597	5.55
0.70263	5.55
0.71930	5.55
0.73597	5.55
0.75263	5.55
0.76930	5.55
0.78597	5.55
0.80263	5.55
0.81930	5.55
0.83597	5.55
0.85263	5.55
0.86930	5.55
0.88597	5.55
0.90263	5.55
0.91930	5.55
0.93597	5.55
0.95263	5.55
0.96930	5.55
0.98597	5.55
1.00263	5.55
1.01930	5.55
1.03597	5.55
1.05263	5.55
1.06930	5.55
1.08597	5.55
1.10263	5.55
1.11930	5.55
1.13597	5.55
1.15263	5.55
1.16930	5.55
1.18597	5.55
1.20263	5.55
1.21930	5.55
1.23597	5.55
1.25263	5.55
1.26930	5.55
1.28597	5.55
1.30263	5.55
1.31930	5.55
1.33597	5.55
1.35263	5.55
1.36930	5.55
1.38597	5.55
1.40263	5.55
1.41930	5.55
1.43597	5.55
1.45263	5.55
1.46930	5.55
1.48597	5.55
1.50263	5.55
1.51930	5.55
1.53597	5.55
1.55263	5.55
1.56930	5.55
1.58597	5.55
1.60263	5.55
1.61930	5.55
1.63597	5.54
1.65263	5.54
1.66930	5.53
1.68597	5.52
1.70263	5.50
1.71930	5.49
1.73597	5.48
1.75263	5.47
1.76930	5.46
1.78597	5.45
1.80263	5.44
1.81930	5.43
1.83597	5.42
1.85263	5.41
1.86930	5.40
1.88597	5.39
1.90263	5.38
1.91930	5.37
1.93597	5.36
1.95263	5.35
1.96930	5.34
1.98597	5.33
2.00263	5.32
2.01930	5.31
2.03597	5.30
2.05263	5.29
2.06930	5.28
2.08597	5.27
2.10263	5.27
2.11930	5.26
2.13597	5.25
2.15263	5.24
2.16930	5.23
2.18597	5.22
2.20263	5.21
2.21930	5.20
2.23597	5.19
2.25263	5.18
2.26930	5.17
2.28597	5.16
2.30263	5.15
2.31930	5.14
2.33597	5.13
2.35263	5.13
2.36930	5.12
2.38597	5.12
2.40263	5.12
2.41930	5.12
2.43597	5.12
2.45263	5.12
2.46930	5.12
2.48597	5.12
2.50263	5.11
2.51930	5.12
2.53597	5.11
2.55263	5.11
2.56930	5.11
2.58597	5.11
2.60263	5.11
2.61930	5.11
2.63597	5.11
2.65263	5.11
2.66930	5.11
2.68597	5.11
2.70263	5.11
2.71930	5.11
2.73597	5.11
2.75263	5.11
2.76930	5.11
2.78597	5.11
2.80263	5.11
2.81930	5.11
2.83597	5.11
2.85263	5.11
2.86930	5.11
2.88597	5.11
2.90263	5.11
2.91930	5.11
2.93597	5.11
2.95263	5.11
2.96930	5.11
2.98597	5.11
3.00263	5.11
3.01930	5.11
3.03597	5.11
3.05263	5.11
3.06930	5.11
3.08597	5.11
3.10263	5.11
3.11930	5.11
3.13597	5.11
3.15263	5.11
3.16930	5.11
3.18597	5.11
3.20263	5.11
3.21930	5.11
3.23597	5.11
3.25263	5.11
3.26930	5.11
3.28597	5.11
3.30263	5.10
3.31930	5.10
3.33597	5.10
3.35263	5.10
3.36930	5.11
3.38597	5.11
3.40263	5.11
3.41930	5.11
3.43597	5.11
3.45263	5.11
3.46930	5.11
3.48597	5.11
3.50263	5.11
3.51930	5.11
3.53597	5.11
3.55263	5.11
3.56930	5.11
3.58597	5.11
3.60263	5.11
3.61930	5.11
3.63597	5.11
3.65263	5.11
3.66930	5.11
3.68597	5.11
3.70263	5.11
3.71930	5.11
3.73597	5.11
3.75263	5.11
3.76930	5.11
3.78597	5.11
3.80263	5.11
3.81930	5.11
3.83597	5.11
3.85263	5.11
3.86930	5.11
3.88597	5.11
3.90263	5.11
3.91930	5.11
3.93597	5.11
3.95263	5.11
3.96930	5.11
3.98597	5.11

[Status Trace (Linear Velocity)]
Interval(msec)	1000
# of Points	240
Start Time(min)	0.003
End Time(min)	3.986
Intensity Units	
Intensity Multiplier	1
R.Time (min)	Intensity
0.00263	39.02
0.01930	37.82
0.03597	37.91
0.05263	39.42
0.06930	40.23
0.08597	39.22
0.10263	39.00
0.11930	39.03
0.13597	39.03
0.15263	39.02
0.16930	39.02
0.18597	39.02
0.20263	39.02
0.21930	39.02
0.23597	39.02
0.25263	39.02
0.26930	39.02
0.28597	39.02
0.30263	39.02
0.31930	39.02
0.33597	39.02
0.35263	39.02
0.36930	39.02
0.38597	39.02
0.40263	39.02
0.41930	39.02
0.43597	39.02
0.45263	39.02
0.46930	39.02
0.48597	39.03
0.50263	39.03
0.51930	39.03
0.53597	39.03
0.55263	39.02
0.56930	39.03
0.58597	39.03
0.60263	39.03
0.61930	39.03
0.63597	39.03
0.65263	39.02
0.66930	39.02
0.68597	39.02
0.70263	39.03
0.71930	39.03
0.73597	39.03
0.75263	39.03
0.76930	39.03
0.78597	39.02
0.80263	39.02
0.81930	39.02
0.83597	39.02
0.85263	39.02
0.86930	39.02
0.88597	39.02
0.90263	39.02
0.91930	39.02
0.93597	39.02
0.95263	39.02
0.96930	39.03
0.98597	39.03
1.00263	39.03
1.01930	39.03
1.03597	39.03
1.05263	39.02
1.06930	39.02
1.08597	39.02
1.10263	39.03
1.11930	39.03
1.13597	39.03
1.15263	39.03
1.16930	39.03
1.18597	39.02
1.20263	39.02
1.21930	39.02
1.23597	39.02
1.25263	39.03
1.26930	39.03
1.28597	39.03
1.30263	39.03
1.31930	39.03
1.33597	39.03
1.35263	39.03
1.36930	39.03
1.38597	39.03
1.40263	39.03
1.41930	39.03
1.43597	39.02
1.45263	39.02
1.46930	39.02
1.48597	39.02
1.50263	39.02
1.51930	39.02
1.53597	39.03
1.55263	39.03
1.56930	39.02
1.58597	39.02
1.60263	39.02
1.61930	39.01
1.63597	39.00
1.65263	38.97
1.66930	38.95
1.68597	38.91
1.70263	38.88
1.71930	38.84
1.73597	38.81
1.75263	38.78
1.76930	38.75
1.78597	38.71
1.80263	38.68
1.81930	38.65
1.83597	38.62
1.85263	38.59
1.86930	38.56
1.88597	38.53
1.90263	38.50
1.91930	38.47
1.93597	38.44
1.95263	38.41
1.96930	38.38
1.98597	38.35
2.00263	38.31
2.01930	38.29
2.03597	38.26
2.05263	38.23
2.06930	38.20
2.08597	38.17
2.10263	38.14
2.11930	38.11
2.13597	38.08
2.15263	38.05
2.16930	38.02
2.18597	37.99
2.20263	37.96
2.21930	37.93
2.23597	37.90
2.25263	37.87
2.26930	37.84
2.28597	37.81
2.30263	37.78
2.31930	37.75
2.33597	37.72
2.35263	37.70
2.36930	37.68
2.38597	37.67
2.40263	37.67
2.41930	37.67
2.43597	37.67
2.45263	37.67
2.46930	37.67
2.48597	37.67
2.50263	37.65
2.51930	37.67
2.53597	37.66
2.55263	37.66
2.56930	37.66
2.58597	37.66
2.60263	37.66
2.61930	37.66
2.63597	37.66
2.65263	37.65
2.66930	37.65
2.68597	37.65
2.70263	37.65
2.71930	37.65
2.73597	37.65
2.75263	37.65
2.76930	37.65
2.78597	37.65
2.80263	37.65
2.81930	37.65
2.83597	37.65
2.85263	37.64
2.86930	37.64
2.88597	37.64
2.90263	37.64
2.91930	37.64
2.93597	37.65
2.95263	37.65
2.96930	37.65
2.98597	37.65
3.00263	37.64
3.01930	37.64
3.03597	37.64
3.05263	37.64
3.06930	37.64
3.08597	37.64
3.10263	37.64
3.11930	37.64
3.13597	37.64
3.15263	37.64
3.16930	37.64
3.18597	37.64
3.20263	37.64
3.21930	37.64
3.23597	37.64
3.25263	37.64
3.26930	37.64
3.28597	37.63
3.30263	37.63
3.31930	37.63
3.33597	37.63
3.35263	37.63
3.36930	37.63
3.38597	37.63
3.40263	37.63
3.41930	37.63
3.43597	37.63
3.45263	37.63
3.46930	37.63
3.48597	37.64
3.50263	37.64
3.51930	37.64
3.53597	37.64
3.55263	37.64
3.56930	37.64
3.58597	37.64
3.60263	37.64
3.61930	37.64
3.63597	37.64
3.65263	37.64
3.66930	37.64
3.68597	37.64
3.70263	37.64
3.71930	37.63
3.73597	37.63
3.75263	37.63
3.76930	37.63
3.78597	37.63
3.80263	37.63
3.81930	37.63
3.83597	37.63
3.85263	37.63
3.86930	37.63
3.88597	37.63
3.90263	37.64
3.91930	37.64
3.93597	37.64
3.95263	37.64
3.96930	37.64
3.98597	37.64

