[Header]
Application Name	LabSolutions
Version	5.110
Data File Name	C:\Users\User\Desktop\GC Analyses\Jack\Nachusa Grasslands Sampling\T4 Timepoint July 12th\T4_07122022_001.gcd
Output Date	3/17/2023
Output Time	12:04:50 PM

[File Information]
Type	Data File
Generated	3/14/2023 3:26:30 PM
Generated by	System Administrator
Modified	3/14/2023 3:30:35 PM
Modified by	System Administrator

[Sample Information]
Operator Name	System Administrator
Acquired	3/14/2023 3:26:34 PM
Sample Type	0:Unknown
Level	0
Sample Name	001
Sample ID	001
ISTD Amount1	1
ISTD Amount2	1
ISTD Amount3	1
ISTD Amount4	1
ISTD Amount5	1
ISTD Amount6	1
ISTD Amount7	1
ISTD Amount8	1
ISTD Amount9	1
ISTD Amount10	1
ISTD Amount11	1
ISTD Amount12	1
ISTD Amount13	1
ISTD Amount14	1
ISTD Amount15	1
ISTD Amount16	1
ISTD Amount17	1
ISTD Amount18	1
ISTD Amount19	1
ISTD Amount20	1
ISTD Amount21	1
ISTD Amount22	1
ISTD Amount23	1
ISTD Amount24	1
ISTD Amount25	1
ISTD Amount26	1
ISTD Amount27	1
ISTD Amount28	1
ISTD Amount29	1
ISTD Amount30	1
ISTD Amount31	1
ISTD Amount32	1
Sample Amount	1
Dilution Factor	1
Vial#	0
Injection Volume	1
Injection Count	1
Bar Code	

[Original Files]
Data File	C:\Users\User\Desktop\GC Analyses\Jack\Nachusa Grasslands Sampling\T4 Timepoint July 12th\T4_07122022_001.gcd
Method File	C:\LabSolutions\Data\GHG_4min_2022\ghg3_togas_w_acet_4 min_new_int.gcm
Batch File	C:\LabSolutions\Data\AutoSamplerTesting\T4_07122022.gcb
Report Format File	c:\LabSolutions\System\DEFAULT.lsr

[File Description]


[Configuration]
Instrument Name	C0B7VH3-Instrument1
Instrument #	1
Line #	1
# of Detectors	3
Detector ID	DET#1	DET#2	DET#3
Detector Name	FID	PTCD	ECD
# of Channels	1	1	1

[Peak Table(Ch1)]
# of Peaks	0

[Peak Table(Ch2)]
# of Peaks	0

[Peak Table(Ch3)]
# of Peaks	5
Peak#	R.Time	I.Time	F.Time	Area	Height	A/H	Conc.	Mark	ID#	Name	k'	Plate #	Plate Ht.	Tailing	Resolution	Sep.Factor	Area Ratio	Height Ratio	Conc. %	Norm Conc.
1	2.462	2.293	2.510	1532	536	2.859	0.000	   			0.000	12044	12.454	0.000	0.000	0.000	0	0	0.000	0.000
2	2.532	2.510	2.583	789	283	2.785	0.000	 V 			0.028	8629	17.384	0.000	0.701	0.000	0	0	0.000	0.000
3	2.645	2.583	2.755	1117	218	5.125	0.000	 V 			0.074	6559	22.868	0.000	0.949	2.632	0	0	0.000	0.000
4	2.906	2.755	3.173	1869	155	12.030	0.048	 V 	1	N2O	0.180	2001	74.948	0.000	1.334	2.420	0	0	100.000	100.000
5	3.478	3.173	3.914	1899	89	21.312	0.000	 V 			0.413	659	227.562	0.000	1.427	2.289	0	0	0.000	0.000

[Compound Results(Ch1)]
# of IDs	6
ID#	Name	R.Time	Area	Height	Conc.	Curve	3rd	2nd	1st	Constant	Area Ratio	Height Ratio	Conc. %	Norm Conc.
1	CO	0.000	0	0	0.000	Linear	0.000000e+00	0.000000e+00	1.416423e+002	0.000000e+00	0	0	0.000	0.000
2	CH4	0.000	0	0	0.000	Linear	0.000000e+00	0.000000e+00	5.171738e+001	0.000000e+00	0	0	0.000	0.000
3	CO2	0.000	0	0	0.000	Linear	0.000000e+00	0.000000e+00	3.984494e+003	0.000000e+00	0	0	0.000	0.000
4	Ethylene	0.000	0	0	0.000	Linear	0.000000e+00	0.000000e+00	0.000000e+00	0.000000e+00	0	0	0.000	0.000
5	Acetylene	0.000	0	0	0.000	Linear	0.000000e+00	0.000000e+00	0.000000e+00	0.000000e+00	0	0	0.000	0.000
6	Ethane	0.000	0	0	0.000	Linear	0.000000e+00	0.000000e+00	0.000000e+00	0.000000e+00	0	0	0.000	0.000

[Compound Results(Ch2)]
# of IDs	5
ID#	Name	R.Time	Area	Height	Conc.	Curve	3rd	2nd	1st	Constant	Area Ratio	Height Ratio	Conc. %	Norm Conc.
1	Hydrogen	0.000	0	0	0.000	Linear	0.000000e+00	0.000000e+00	0.000000e+00	0.000000e+00	0	0	0.000	0.000
2	Oxygen	0.000	0	0	0.000	Linear	0.000000e+00	0.000000e+00	0.000000e+00	0.000000e+00	0	0	0.000	0.000
3	Nitrogen	0.000	0	0	0.000	Linear	0.000000e+00	0.000000e+00	0.000000e+00	0.000000e+00	0	0	0.000	0.000
4	Methane	0.000	0	0	0.000	Linear	0.000000e+00	0.000000e+00	0.000000e+00	0.000000e+00	0	0	0.000	0.000
5	Carbon Monoxide	0.000	0	0	0.000	Linear	0.000000e+00	0.000000e+00	0.000000e+00	0.000000e+00	0	0	0.000	0.000

[Compound Results(Ch3)]
# of IDs	2
ID#	Name	R.Time	Area	Height	Conc.	Curve	3rd	2nd	1st	Constant	Area Ratio	Height Ratio	Conc. %	Norm Conc.
1	N2O	2.906	1869	155	0.048	Linear	0.000000e+00	0.000000e+00	3.915173e+004	0.000000e+00	0	0	100.000	100.000
2	SF6	0.000	0	0	0.000	Linear	0.000000e+00	0.000000e+00	0.000000e+00	0.000000e+00	0	0	0.000	0.000

[Group Results(Ch1)]
# of Groups	0

[Group Results(Ch2)]
# of Groups	0

[Group Results(Ch3)]
# of Groups	0

[Chromatogram (Ch1)]
Interval(msec)	220
# of Points	1091
Start Time(min)	0.002
End Time(min)	3.998
R.Time (min)	Intensity
0.00167	-47
0.00533	-39
0.00900	-29
0.01267	-17
0.01633	-8
0.02000	-2
0.02367	2
0.02733	8
0.03100	15
0.03467	20
0.03833	21
0.04200	14
0.04567	7
0.04933	5
0.05300	1
0.05667	-6
0.06033	-11
0.06400	-12
0.06767	-8
0.07133	-7
0.07500	-9
0.07867	-12
0.08233	-10
0.08600	-2
0.08967	5
0.09333	8
0.09700	8
0.10067	9
0.10433	10
0.10800	7
0.11167	7
0.11533	9
0.11900	15
0.12267	20
0.12633	23
0.13000	19
0.13367	11
0.13733	1
0.14100	-6
0.14467	-13
0.14833	-21
0.15200	-23
0.15567	-21
0.15933	-19
0.16300	-18
0.16667	-18
0.17033	-21
0.17400	-23
0.17767	-25
0.18133	-25
0.18500	-23
0.18867	-20
0.19233	-17
0.19600	-9
0.19967	-1
0.20333	2
0.20700	4
0.21067	9
0.21433	16
0.21800	15
0.22167	20
0.22533	26
0.22900	26
0.23267	26
0.23633	18
0.24000	5
0.24367	-6
0.24733	-13
0.25100	-15
0.25467	-12
0.25833	-3
0.26200	10
0.26567	17
0.26933	13
0.27300	7
0.27667	5
0.28033	0
0.28400	-6
0.28767	-9
0.29133	-7
0.29500	-4
0.29867	-3
0.30233	-9
0.30600	-14
0.30967	-15
0.31333	-14
0.31700	-14
0.32067	-15
0.32433	-14
0.32800	-9
0.33167	-4
0.33533	-2
0.33900	-4
0.34267	-7
0.34633	-11
0.35000	-11
0.35367	-6
0.35733	2
0.36100	11
0.36467	16
0.36833	18
0.37200	14
0.37567	13
0.37933	13
0.38300	12
0.38667	9
0.39033	5
0.39400	-2
0.39767	-12
0.40133	-20
0.40500	-25
0.40867	-29
0.41233	-26
0.41600	-19
0.41967	-11
0.42333	-6
0.42700	-2
0.43067	5
0.43433	8
0.43800	11
0.44167	16
0.44533	23
0.44900	29
0.45267	31
0.45633	28
0.46000	25
0.46367	21
0.46733	15
0.47100	6
0.47467	-4
0.47833	-6
0.48200	1
0.48567	10
0.48933	11
0.49300	4
0.49667	-8
0.50033	-19
0.50400	-24
0.50767	-27
0.51133	-27
0.51500	-22
0.51867	-20
0.52233	-23
0.52600	-21
0.52967	-17
0.53333	-14
0.53700	-10
0.54067	1
0.54433	9
0.54800	10
0.55167	12
0.55533	15
0.55900	17
0.56267	12
0.56633	7
0.57000	4
0.57367	-1
0.57733	-4
0.58100	-6
0.58467	-8
0.58833	-10
0.59200	-12
0.59567	-12
0.59933	-14
0.60300	-10
0.60667	0
0.61033	11
0.61400	19
0.61767	23
0.62133	22
0.62500	14
0.62867	4
0.63233	-3
0.63600	-2
0.63967	1
0.64333	-2
0.64700	-3
0.65067	-1
0.65433	-4
0.65800	-8
0.66167	-7
0.66533	2
0.66900	10
0.67267	11
0.67633	7
0.68000	2
0.68367	-1
0.68733	-6
0.69100	-9
0.69467	-8
0.69833	-6
0.70200	2
0.70567	6
0.70933	5
0.71300	1
0.71667	-2
0.72033	-2
0.72400	-4
0.72767	-4
0.73133	-4
0.73500	-8
0.73867	-9
0.74233	-3
0.74600	3
0.74967	6
0.75333	8
0.75700	13
0.76067	17
0.76433	21
0.76800	24
0.77167	24
0.77533	24
0.77900	21
0.78267	15
0.78633	12
0.79000	7
0.79367	2
0.79733	-1
0.80100	1
0.80467	14
0.80833	32
0.81200	42
0.81567	44
0.81933	40
0.82300	31
0.82667	20
0.83033	5
0.83400	-8
0.83767	-19
0.84133	-32
0.84500	-45
0.84867	-48
0.85233	-43
0.85600	-40
0.85967	-44
0.86333	-48
0.86700	-48
0.87067	-41
0.87433	-36
0.87800	-38
0.88167	-38
0.88533	-34
0.88900	-22
0.89267	-9
0.89633	-3
0.90000	2
0.90367	11
0.90733	18
0.91100	21
0.91467	22
0.91833	23
0.92200	22
0.92567	17
0.92933	11
0.93300	3
0.93667	-2
0.94033	-1
0.94400	7
0.94767	15
0.95133	15
0.95500	4
0.95867	-6
0.96233	-15
0.96600	-21
0.96967	-28
0.97333	-28
0.97700	-22
0.98067	-13
0.98433	-4
0.98800	4
0.99167	8
0.99533	8
0.99900	11
1.00267	23
1.00633	36
1.01000	42
1.01367	41
1.01733	28
1.02100	8
1.02467	-9
1.02833	-19
1.03200	-26
1.03567	-31
1.03933	-35
1.04300	-34
1.04667	-27
1.05033	-20
1.05400	-17
1.05767	-17
1.06133	-16
1.06500	-11
1.06867	-7
1.07233	-5
1.07600	-2
1.07967	2
1.08333	6
1.08700	15
1.09067	21
1.09433	21
1.09800	23
1.10167	30
1.10533	35
1.10900	33
1.11267	28
1.11633	20
1.12000	11
1.12367	4
1.12733	-2
1.13100	-6
1.13467	-6
1.13833	-4
1.14200	-1
1.14567	2
1.14933	8
1.15300	9
1.15667	6
1.16033	4
1.16400	5
1.16767	10
1.17133	12
1.17500	11
1.17867	11
1.18233	11
1.18600	13
1.18967	16
1.19333	19
1.19700	18
1.20067	7
1.20433	-3
1.20800	-6
1.21167	-6
1.21533	-4
1.21900	3
1.22267	12
1.22633	13
1.23000	7
1.23367	2
1.23733	3
1.24100	6
1.24467	8
1.24833	8
1.25200	8
1.25567	9
1.25933	11
1.26300	12
1.26667	12
1.27033	12
1.27400	9
1.27767	1
1.28133	-6
1.28500	-9
1.28867	-9
1.29233	-4
1.29600	2
1.29967	8
1.30333	19
1.30700	21
1.31067	23
1.31433	26
1.31800	29
1.32167	32
1.32533	30
1.32900	21
1.33267	13
1.33633	6
1.34000	-2
1.34367	-7
1.34733	-6
1.35100	-2
1.35467	3
1.35833	10
1.36200	16
1.36567	14
1.36933	6
1.37300	-0
1.37667	1
1.38033	10
1.38400	17
1.38767	20
1.39133	20
1.39500	17
1.39867	10
1.40233	3
1.40600	-6
1.40967	-13
1.41333	-15
1.41700	-14
1.42067	-13
1.42433	-10
1.42800	-5
1.43167	1
1.43533	6
1.43900	9
1.44267	16
1.44633	20
1.45000	20
1.45367	14
1.45733	6
1.46100	5
1.46467	11
1.46833	18
1.47200	20
1.47567	17
1.47933	12
1.48300	9
1.48667	7
1.49033	3
1.49400	4
1.49767	9
1.50133	11
1.50500	10
1.50867	6
1.51233	4
1.51600	5
1.51967	5
1.52333	7
1.52700	9
1.53067	10
1.53433	8
1.53800	5
1.54167	3
1.54533	-2
1.54900	-3
1.55267	-7
1.55633	-16
1.56000	-19
1.56367	-14
1.56733	-5
1.57100	5
1.57467	12
1.57833	15
1.58200	16
1.58567	17
1.58933	17
1.59300	15
1.59667	12
1.60033	9
1.60400	10
1.60767	14
1.61133	17
1.61500	14
1.61867	8
1.62233	3
1.62600	-1
1.62967	-4
1.63333	-7
1.63700	-12
1.64067	-15
1.64433	-15
1.64800	-16
1.65167	-18
1.65533	-17
1.65900	-11
1.66267	-7
1.66633	-4
1.67000	4
1.67367	14
1.67733	21
1.68100	21
1.68467	20
1.68833	18
1.69200	13
1.69567	5
1.69933	-4
1.70300	-16
1.70667	-22
1.71033	-23
1.71400	-22
1.71767	-15
1.72133	-2
1.72500	12
1.72867	23
1.73233	30
1.73600	30
1.73967	23
1.74333	12
1.74700	5
1.75067	1
1.75433	-1
1.75800	-3
1.76167	-3
1.76533	-1
1.76900	1
1.77267	2
1.77633	6
1.78000	8
1.78367	5
1.78733	-3
1.79100	-13
1.79467	-19
1.79833	-13
1.80200	-3
1.80567	5
1.80933	17
1.81300	24
1.81667	27
1.82033	28
1.82400	23
1.82767	14
1.83133	11
1.83500	15
1.83867	19
1.84233	25
1.84600	30
1.84967	30
1.85333	29
1.85700	31
1.86067	29
1.86433	28
1.86800	23
1.87167	15
1.87533	6
1.87900	-4
1.88267	-11
1.88633	-14
1.89000	-14
1.89367	-9
1.89733	0
1.90100	11
1.90467	22
1.90833	31
1.91200	37
1.91567	41
1.91933	43
1.92300	44
1.92667	44
1.93033	49
1.93400	46
1.93767	40
1.94133	31
1.94500	24
1.94867	20
1.95233	11
1.95600	2
1.95967	-2
1.96333	-1
1.96700	9
1.97067	19
1.97433	27
1.97800	39
1.98167	50
1.98533	54
1.98900	50
1.99267	40
1.99633	31
2.00000	26
2.00367	20
2.00733	14
2.01100	10
2.01467	11
2.01833	12
2.02200	16
2.02567	19
2.02933	24
2.03300	32
2.03667	36
2.04033	36
2.04400	36
2.04767	33
2.05133	27
2.05500	21
2.05867	17
2.06233	21
2.06600	23
2.06967	20
2.07333	20
2.07700	22
2.08067	28
2.08433	30
2.08800	31
2.09167	31
2.09533	31
2.09900	33
2.10267	36
2.10633	41
2.11000	49
2.11367	60
2.11733	65
2.12100	59
2.12467	51
2.12833	43
2.13200	40
2.13567	39
2.13933	41
2.14300	48
2.14667	52
2.15033	49
2.15400	45
2.15767	38
2.16133	33
2.16500	31
2.16867	35
2.17233	44
2.17600	54
2.17967	61
2.18333	61
2.18700	57
2.19067	50
2.19433	44
2.19800	42
2.20167	45
2.20533	46
2.20900	47
2.21267	41
2.21633	32
2.22000	29
2.22367	26
2.22733	23
2.23100	25
2.23467	30
2.23833	35
2.24200	40
2.24567	44
2.24933	49
2.25300	55
2.25667	59
2.26033	58
2.26400	60
2.26767	63
2.27133	63
2.27500	59
2.27867	54
2.28233	51
2.28600	51
2.28967	53
2.29333	56
2.29700	60
2.30067	65
2.30433	69
2.30800	67
2.31167	63
2.31533	64
2.31900	61
2.32267	59
2.32633	61
2.33000	66
2.33367	73
2.33733	76
2.34100	78
2.34467	79
2.34833	79
2.35200	77
2.35567	77
2.35933	80
2.36300	79
2.36667	74
2.37033	67
2.37400	69
2.37767	76
2.38133	83
2.38500	83
2.38867	79
2.39233	78
2.39600	86
2.39967	91
2.40333	88
2.40700	87
2.41067	85
2.41433	82
2.41800	81
2.42167	78
2.42533	72
2.42900	71
2.43267	75
2.43633	80
2.44000	90
2.44367	102
2.44733	114
2.45100	117
2.45467	113
2.45833	111
2.46200	110
2.46567	112
2.46933	113
2.47300	112
2.47667	108
2.48033	102
2.48400	93
2.48767	83
2.49133	82
2.49500	84
2.49867	83
2.50233	84
2.50600	89
2.50967	95
2.51333	100
2.51700	111
2.52067	123
2.52433	128
2.52800	127
2.53167	128
2.53533	128
2.53900	129
2.54267	132
2.54633	128
2.55000	120
2.55367	111
2.55733	106
2.56100	107
2.56467	115
2.56833	123
2.57200	128
2.57567	130
2.57933	132
2.58300	134
2.58667	139
2.59033	147
2.59400	150
2.59767	145
2.60133	137
2.60500	130
2.60867	127
2.61233	126
2.61600	127
2.61967	127
2.62333	126
2.62700	126
2.63067	127
2.63433	129
2.63800	131
2.64167	133
2.64533	138
2.64900	140
2.65267	140
2.65633	139
2.66000	136
2.66367	137
2.66733	140
2.67100	143
2.67467	146
2.67833	146
2.68200	144
2.68567	143
2.68933	144
2.69300	148
2.69667	155
2.70033	163
2.70400	172
2.70767	180
2.71133	181
2.71500	175
2.71867	170
2.72233	168
2.72600	166
2.72967	164
2.73333	167
2.73700	169
2.74067	170
2.74433	173
2.74800	180
2.75167	185
2.75533	189
2.75900	191
2.76267	188
2.76633	183
2.77000	179
2.77367	176
2.77733	174
2.78100	175
2.78467	182
2.78833	190
2.79200	196
2.79567	201
2.79933	202
2.80300	195
2.80667	186
2.81033	178
2.81400	176
2.81767	179
2.82133	188
2.82500	196
2.82867	197
2.83233	193
2.83600	188
2.83967	184
2.84333	182
2.84700	186
2.85067	193
2.85433	193
2.85800	192
2.86167	195
2.86533	202
2.86900	207
2.87267	210
2.87633	215
2.88000	218
2.88367	217
2.88733	215
2.89100	214
2.89467	216
2.89833	221
2.90200	224
2.90567	225
2.90933	223
2.91300	216
2.91667	208
2.92033	201
2.92400	199
2.92767	200
2.93133	201
2.93500	201
2.93867	200
2.94233	198
2.94600	199
2.94967	204
2.95333	214
2.95700	229
2.96067	241
2.96433	241
2.96800	233
2.97167	227
2.97533	226
2.97900	227
2.98267	229
2.98633	229
2.99000	229
2.99367	234
2.99733	243
3.00100	249
3.00467	250
3.00833	252
3.01200	250
3.01567	244
3.01933	234
3.02300	225
3.02667	219
3.03033	214
3.03400	212
3.03767	218
3.04133	226
3.04500	236
3.04867	246
3.05233	256
3.05600	261
3.05967	265
3.06333	263
3.06700	258
3.07067	257
3.07433	259
3.07800	262
3.08167	259
3.08533	253
3.08900	249
3.09267	249
3.09633	254
3.10000	261
3.10367	264
3.10733	264
3.11100	262
3.11467	258
3.11833	253
3.12200	254
3.12567	260
3.12933	265
3.13300	269
3.13667	268
3.14033	265
3.14400	268
3.14767	271
3.15133	267
3.15500	259
3.15867	253
3.16233	254
3.16600	262
3.16967	271
3.17333	278
3.17700	283
3.18067	290
3.18433	294
3.18800	288
3.19167	286
3.19533	288
3.19900	284
3.20267	274
3.20633	264
3.21000	261
3.21367	265
3.21733	272
3.22100	275
3.22467	279
3.22833	282
3.23200	284
3.23567	288
3.23933	293
3.24300	292
3.24667	289
3.25033	283
3.25400	278
3.25767	277
3.26133	279
3.26500	272
3.26867	264
3.27233	261
3.27600	265
3.27967	272
3.28333	278
3.28700	282
3.29067	282
3.29433	281
3.29800	278
3.30167	279
3.30533	284
3.30900	290
3.31267	287
3.31633	282
3.32000	281
3.32367	282
3.32733	289
3.33100	301
3.33467	308
3.33833	304
3.34200	293
3.34567	281
3.34933	275
3.35300	269
3.35667	266
3.36033	274
3.36400	285
3.36767	291
3.37133	293
3.37500	292
3.37867	287
3.38233	282
3.38600	282
3.38967	288
3.39333	298
3.39700	306
3.40067	310
3.40433	309
3.40800	307
3.41167	302
3.41533	296
3.41900	291
3.42267	286
3.42633	283
3.43000	286
3.43367	294
3.43733	306
3.44100	313
3.44467	313
3.44833	311
3.45200	308
3.45567	302
3.45933	299
3.46300	300
3.46667	301
3.47033	297
3.47400	287
3.47767	279
3.48133	273
3.48500	271
3.48867	276
3.49233	284
3.49600	289
3.49967	292
3.50333	293
3.50700	294
3.51067	295
3.51433	299
3.51800	309
3.52167	314
3.52533	310
3.52900	307
3.53267	308
3.53633	309
3.54000	313
3.54367	315
3.54733	314
3.55100	313
3.55467	310
3.55833	300
3.56200	285
3.56567	273
3.56933	267
3.57300	271
3.57667	281
3.58033	287
3.58400	289
3.58767	289
3.59133	290
3.59500	288
3.59867	293
3.60233	299
3.60600	303
3.60967	304
3.61333	305
3.61700	301
3.62067	300
3.62433	301
3.62800	300
3.63167	300
3.63533	300
3.63900	303
3.64267	308
3.64633	305
3.65000	298
3.65367	298
3.65733	299
3.66100	293
3.66467	287
3.66833	287
3.67200	293
3.67567	297
3.67933	298
3.68300	295
3.68667	292
3.69033	296
3.69400	301
3.69767	299
3.70133	298
3.70500	303
3.70867	307
3.71233	309
3.71600	313
3.71967	320
3.72333	326
3.72700	330
3.73067	332
3.73433	328
3.73800	321
3.74167	311
3.74533	299
3.74900	286
3.75267	277
3.75633	274
3.76000	274
3.76367	278
3.76733	282
3.77100	282
3.77467	285
3.77833	287
3.78200	287
3.78567	286
3.78933	286
3.79300	289
3.79667	292
3.80033	290
3.80400	289
3.80767	291
3.81133	292
3.81500	293
3.81867	293
3.82233	293
3.82600	293
3.82967	293
3.83333	289
3.83700	287
3.84067	291
3.84433	301
3.84800	304
3.85167	303
3.85533	300
3.85900	291
3.86267	286
3.86633	286
3.87000	288
3.87367	289
3.87733	289
3.88100	290
3.88467	294
3.88833	300
3.89200	309
3.89567	313
3.89933	312
3.90300	309
3.90667	304
3.91033	300
3.91400	295
3.91767	287
3.92133	281
3.92500	282
3.92867	286
3.93233	289
3.93600	289
3.93967	288
3.94333	287
3.94700	287
3.95067	288
3.95433	293
3.95800	297
3.96167	298
3.96533	295
3.96900	288
3.97267	284
3.97633	287
3.98000	293
3.98367	298
3.98733	299
3.99100	294
3.99467	291
3.99833	291

[Chromatogram (Ch2)]
Interval(msec)	220
# of Points	1091
Start Time(min)	0.002
End Time(min)	3.998
R.Time (min)	Intensity
0.00167	-1
0.00533	-1
0.00900	-1
0.01267	-2
0.01633	-2
0.02000	-2
0.02367	-1
0.02733	-1
0.03100	-1
0.03467	-1
0.03833	-1
0.04200	-1
0.04567	-1
0.04933	-1
0.05300	-1
0.05667	-1
0.06033	-0
0.06400	-0
0.06767	-0
0.07133	-0
0.07500	-0
0.07867	-1
0.08233	-1
0.08600	-1
0.08967	-1
0.09333	-1
0.09700	-1
0.10067	-2
0.10433	-2
0.10800	-2
0.11167	-2
0.11533	-2
0.11900	-2
0.12267	-2
0.12633	-2
0.13000	-1
0.13367	-1
0.13733	-1
0.14100	-1
0.14467	-0
0.14833	-0
0.15200	0
0.15567	0
0.15933	0
0.16300	1
0.16667	1
0.17033	1
0.17400	1
0.17767	1
0.18133	1
0.18500	2
0.18867	2
0.19233	3
0.19600	3
0.19967	4
0.20333	4
0.20700	4
0.21067	4
0.21433	4
0.21800	4
0.22167	4
0.22533	4
0.22900	4
0.23267	4
0.23633	4
0.24000	4
0.24367	4
0.24733	4
0.25100	4
0.25467	5
0.25833	5
0.26200	5
0.26567	5
0.26933	5
0.27300	5
0.27667	4
0.28033	4
0.28400	4
0.28767	4
0.29133	3
0.29500	3
0.29867	3
0.30233	3
0.30600	2
0.30967	2
0.31333	2
0.31700	1
0.32067	1
0.32433	1
0.32800	1
0.33167	1
0.33533	1
0.33900	1
0.34267	1
0.34633	1
0.35000	1
0.35367	1
0.35733	1
0.36100	2
0.36467	2
0.36833	2
0.37200	2
0.37567	2
0.37933	2
0.38300	2
0.38667	2
0.39033	2
0.39400	2
0.39767	1
0.40133	1
0.40500	1
0.40867	1
0.41233	1
0.41600	1
0.41967	1
0.42333	1
0.42700	1
0.43067	1
0.43433	1
0.43800	1
0.44167	1
0.44533	0
0.44900	0
0.45267	1
0.45633	1
0.46000	1
0.46367	1
0.46733	2
0.47100	2
0.47467	3
0.47833	3
0.48200	3
0.48567	3
0.48933	3
0.49300	3
0.49667	3
0.50033	3
0.50400	2
0.50767	2
0.51133	2
0.51500	2
0.51867	2
0.52233	1
0.52600	1
0.52967	1
0.53333	1
0.53700	0
0.54067	-0
0.54433	-1
0.54800	-1
0.55167	-1
0.55533	-1
0.55900	-1
0.56267	-1
0.56633	-0
0.57000	-0
0.57367	0
0.57733	1
0.58100	1
0.58467	1
0.58833	2
0.59200	2
0.59567	2
0.59933	2
0.60300	2
0.60667	2
0.61033	1
0.61400	1
0.61767	1
0.62133	1
0.62500	1
0.62867	0
0.63233	0
0.63600	-0
0.63967	-0
0.64333	-0
0.64700	-0
0.65067	-1
0.65433	-1
0.65800	-1
0.66167	-1
0.66533	-0
0.66900	-0
0.67267	0
0.67633	1
0.68000	1
0.68367	1
0.68733	1
0.69100	1
0.69467	1
0.69833	1
0.70200	1
0.70567	1
0.70933	1
0.71300	1
0.71667	2
0.72033	2
0.72400	2
0.72767	3
0.73133	3
0.73500	3
0.73867	3
0.74233	3
0.74600	3
0.74967	3
0.75333	4
0.75700	4
0.76067	3
0.76433	3
0.76800	3
0.77167	3
0.77533	3
0.77900	3
0.78267	3
0.78633	3
0.79000	3
0.79367	2
0.79733	2
0.80100	2
0.80467	2
0.80833	1
0.81200	1
0.81567	1
0.81933	1
0.82300	2
0.82667	2
0.83033	2
0.83400	2
0.83767	2
0.84133	2
0.84500	2
0.84867	2
0.85233	2
0.85600	2
0.85967	1
0.86333	1
0.86700	1
0.87067	0
0.87433	0
0.87800	-0
0.88167	-0
0.88533	-0
0.88900	-0
0.89267	-1
0.89633	-1
0.90000	-1
0.90367	-1
0.90733	-1
0.91100	-1
0.91467	-1
0.91833	-1
0.92200	-1
0.92567	-1
0.92933	-1
0.93300	-0
0.93667	-0
0.94033	0
0.94400	0
0.94767	0
0.95133	0
0.95500	0
0.95867	1
0.96233	1
0.96600	1
0.96967	1
0.97333	1
0.97700	2
0.98067	2
0.98433	2
0.98800	2
0.99167	2
0.99533	2
0.99900	2
1.00267	2
1.00633	2
1.01000	2
1.01367	2
1.01733	2
1.02100	2
1.02467	2
1.02833	1
1.03200	1
1.03567	1
1.03933	1
1.04300	1
1.04667	0
1.05033	0
1.05400	0
1.05767	0
1.06133	0
1.06500	0
1.06867	0
1.07233	0
1.07600	0
1.07967	0
1.08333	0
1.08700	0
1.09067	0
1.09433	0
1.09800	0
1.10167	1
1.10533	1
1.10900	1
1.11267	1
1.11633	1
1.12000	1
1.12367	1
1.12733	1
1.13100	0
1.13467	0
1.13833	0
1.14200	0
1.14567	1
1.14933	1
1.15300	1
1.15667	1
1.16033	0
1.16400	0
1.16767	1
1.17133	1
1.17500	1
1.17867	1
1.18233	1
1.18600	1
1.18967	1
1.19333	1
1.19700	1
1.20067	1
1.20433	1
1.20800	1
1.21167	1
1.21533	2
1.21900	2
1.22267	2
1.22633	2
1.23000	3
1.23367	3
1.23733	4
1.24100	4
1.24467	4
1.24833	4
1.25200	4
1.25567	4
1.25933	4
1.26300	4
1.26667	4
1.27033	4
1.27400	4
1.27767	5
1.28133	5
1.28500	6
1.28867	6
1.29233	6
1.29600	6
1.29967	6
1.30333	6
1.30700	6
1.31067	6
1.31433	6
1.31800	6
1.32167	5
1.32533	5
1.32900	4
1.33267	4
1.33633	3
1.34000	3
1.34367	2
1.34733	2
1.35100	1
1.35467	1
1.35833	0
1.36200	0
1.36567	0
1.36933	-0
1.37300	0
1.37667	0
1.38033	0
1.38400	0
1.38767	0
1.39133	0
1.39500	0
1.39867	0
1.40233	-0
1.40600	-0
1.40967	-0
1.41333	-0
1.41700	-1
1.42067	-1
1.42433	-1
1.42800	-1
1.43167	-1
1.43533	-1
1.43900	-1
1.44267	-1
1.44633	-0
1.45000	-0
1.45367	0
1.45733	0
1.46100	1
1.46467	1
1.46833	1
1.47200	1
1.47567	1
1.47933	1
1.48300	1
1.48667	1
1.49033	1
1.49400	1
1.49767	1
1.50133	1
1.50500	0
1.50867	0
1.51233	0
1.51600	0
1.51967	0
1.52333	0
1.52700	1
1.53067	1
1.53433	1
1.53800	1
1.54167	0
1.54533	0
1.54900	0
1.55267	0
1.55633	0
1.56000	0
1.56367	0
1.56733	1
1.57100	1
1.57467	1
1.57833	1
1.58200	2
1.58567	2
1.58933	2
1.59300	2
1.59667	2
1.60033	2
1.60400	1
1.60767	0
1.61133	-1
1.61500	-3
1.61867	-6
1.62233	-8
1.62600	-11
1.62967	-14
1.63333	-18
1.63700	-21
1.64067	-25
1.64433	-29
1.64800	-32
1.65167	-37
1.65533	-41
1.65900	-46
1.66267	-51
1.66633	-56
1.67000	-62
1.67367	-67
1.67733	-73
1.68100	-77
1.68467	-81
1.68833	-85
1.69200	-88
1.69567	-91
1.69933	-94
1.70300	-96
1.70667	-98
1.71033	-100
1.71400	-101
1.71767	-102
1.72133	-103
1.72500	-104
1.72867	-104
1.73233	-104
1.73600	-104
1.73967	-104
1.74333	-104
1.74700	-104
1.75067	-104
1.75433	-104
1.75800	-105
1.76167	-106
1.76533	-107
1.76900	-108
1.77267	-109
1.77633	-109
1.78000	-109
1.78367	-109
1.78733	-110
1.79100	-110
1.79467	-111
1.79833	-111
1.80200	-112
1.80567	-112
1.80933	-113
1.81300	-113
1.81667	-113
1.82033	-113
1.82400	-113
1.82767	-112
1.83133	-110
1.83500	-109
1.83867	-108
1.84233	-106
1.84600	-106
1.84967	-105
1.85333	-105
1.85700	-105
1.86067	-106
1.86433	-106
1.86800	-107
1.87167	-108
1.87533	-108
1.87900	-108
1.88267	-108
1.88633	-108
1.89000	-108
1.89367	-109
1.89733	-109
1.90100	-109
1.90467	-109
1.90833	-109
1.91200	-109
1.91567	-108
1.91933	-108
1.92300	-108
1.92667	-108
1.93033	-108
1.93400	-108
1.93767	-108
1.94133	-108
1.94500	-108
1.94867	-108
1.95233	-108
1.95600	-108
1.95967	-108
1.96333	-108
1.96700	-108
1.97067	-108
1.97433	-107
1.97800	-107
1.98167	-106
1.98533	-105
1.98900	-104
1.99267	-104
1.99633	-103
2.00000	-103
2.00367	-103
2.00733	-103
2.01100	-103
2.01467	-103
2.01833	-103
2.02200	-102
2.02567	-101
2.02933	-101
2.03300	-101
2.03667	-100
2.04033	-100
2.04400	-100
2.04767	-100
2.05133	-100
2.05500	-99
2.05867	-99
2.06233	-99
2.06600	-99
2.06967	-99
2.07333	-99
2.07700	-98
2.08067	-98
2.08433	-97
2.08800	-97
2.09167	-97
2.09533	-96
2.09900	-96
2.10267	-96
2.10633	-96
2.11000	-96
2.11367	-96
2.11733	-96
2.12100	-96
2.12467	-95
2.12833	-94
2.13200	-93
2.13567	-93
2.13933	-92
2.14300	-92
2.14667	-91
2.15033	-91
2.15400	-90
2.15767	-90
2.16133	-90
2.16500	-90
2.16867	-90
2.17233	-90
2.17600	-90
2.17967	-90
2.18333	-90
2.18700	-89
2.19067	-89
2.19433	-88
2.19800	-87
2.20167	-86
2.20533	-85
2.20900	-85
2.21267	-85
2.21633	-84
2.22000	-84
2.22367	-84
2.22733	-84
2.23100	-84
2.23467	-83
2.23833	-82
2.24200	-82
2.24567	-82
2.24933	-81
2.25300	-81
2.25667	-81
2.26033	-80
2.26400	-80
2.26767	-79
2.27133	-79
2.27500	-79
2.27867	-80
2.28233	-80
2.28600	-80
2.28967	-79
2.29333	-79
2.29700	-78
2.30067	-77
2.30433	-77
2.30800	-76
2.31167	-76
2.31533	-76
2.31900	-75
2.32267	-74
2.32633	-74
2.33000	-73
2.33367	-73
2.33733	-72
2.34100	-72
2.34467	-71
2.34833	-70
2.35200	-69
2.35567	-67
2.35933	-65
2.36300	-63
2.36667	-61
2.37033	-58
2.37400	-55
2.37767	-52
2.38133	-49
2.38500	-45
2.38867	-40
2.39233	-36
2.39600	-32
2.39967	-28
2.40333	-24
2.40700	-20
2.41067	-16
2.41433	-12
2.41800	-9
2.42167	-7
2.42533	-5
2.42900	-3
2.43267	-2
2.43633	-1
2.44000	0
2.44367	1
2.44733	3
2.45100	5
2.45467	6
2.45833	7
2.46200	8
2.46567	9
2.46933	9
2.47300	10
2.47667	10
2.48033	11
2.48400	12
2.48767	12
2.49133	13
2.49500	14
2.49867	14
2.50233	14
2.50600	14
2.50967	15
2.51333	15
2.51700	15
2.52067	16
2.52433	17
2.52800	18
2.53167	19
2.53533	19
2.53900	20
2.54267	20
2.54633	20
2.55000	20
2.55367	20
2.55733	20
2.56100	20
2.56467	20
2.56833	21
2.57200	21
2.57567	21
2.57933	22
2.58300	22
2.58667	23
2.59033	24
2.59400	24
2.59767	24
2.60133	25
2.60500	25
2.60867	26
2.61233	26
2.61600	26
2.61967	26
2.62333	26
2.62700	25
2.63067	25
2.63433	24
2.63800	24
2.64167	24
2.64533	24
2.64900	24
2.65267	25
2.65633	26
2.66000	26
2.66367	27
2.66733	27
2.67100	27
2.67467	27
2.67833	28
2.68200	28
2.68567	28
2.68933	28
2.69300	28
2.69667	28
2.70033	28
2.70400	28
2.70767	28
2.71133	28
2.71500	29
2.71867	29
2.72233	29
2.72600	29
2.72967	29
2.73333	29
2.73700	29
2.74067	30
2.74433	30
2.74800	31
2.75167	31
2.75533	32
2.75900	32
2.76267	32
2.76633	33
2.77000	33
2.77367	33
2.77733	32
2.78100	32
2.78467	31
2.78833	31
2.79200	31
2.79567	30
2.79933	30
2.80300	31
2.80667	31
2.81033	31
2.81400	31
2.81767	31
2.82133	32
2.82500	32
2.82867	32
2.83233	32
2.83600	32
2.83967	32
2.84333	32
2.84700	32
2.85067	32
2.85433	31
2.85800	31
2.86167	31
2.86533	31
2.86900	31
2.87267	31
2.87633	31
2.88000	31
2.88367	31
2.88733	32
2.89100	32
2.89467	32
2.89833	32
2.90200	31
2.90567	31
2.90933	31
2.91300	30
2.91667	30
2.92033	30
2.92400	30
2.92767	30
2.93133	31
2.93500	31
2.93867	31
2.94233	31
2.94600	31
2.94967	31
2.95333	31
2.95700	31
2.96067	30
2.96433	30
2.96800	30
2.97167	31
2.97533	31
2.97900	31
2.98267	31
2.98633	31
2.99000	31
2.99367	31
2.99733	31
3.00100	31
3.00467	31
3.00833	31
3.01200	31
3.01567	31
3.01933	31
3.02300	31
3.02667	31
3.03033	31
3.03400	31
3.03767	31
3.04133	32
3.04500	32
3.04867	32
3.05233	32
3.05600	32
3.05967	33
3.06333	33
3.06700	33
3.07067	34
3.07433	34
3.07800	34
3.08167	34
3.08533	34
3.08900	34
3.09267	34
3.09633	34
3.10000	34
3.10367	34
3.10733	34
3.11100	34
3.11467	34
3.11833	33
3.12200	33
3.12567	32
3.12933	32
3.13300	32
3.13667	31
3.14033	31
3.14400	31
3.14767	31
3.15133	31
3.15500	31
3.15867	31
3.16233	31
3.16600	31
3.16967	31
3.17333	31
3.17700	31
3.18067	31
3.18433	32
3.18800	32
3.19167	32
3.19533	32
3.19900	32
3.20267	32
3.20633	32
3.21000	32
3.21367	32
3.21733	32
3.22100	31
3.22467	31
3.22833	31
3.23200	31
3.23567	31
3.23933	31
3.24300	31
3.24667	31
3.25033	31
3.25400	31
3.25767	31
3.26133	30
3.26500	30
3.26867	30
3.27233	30
3.27600	31
3.27967	31
3.28333	32
3.28700	32
3.29067	33
3.29433	33
3.29800	34
3.30167	34
3.30533	34
3.30900	34
3.31267	35
3.31633	35
3.32000	35
3.32367	35
3.32733	36
3.33100	36
3.33467	36
3.33833	36
3.34200	36
3.34567	36
3.34933	36
3.35300	36
3.35667	36
3.36033	36
3.36400	36
3.36767	36
3.37133	36
3.37500	36
3.37867	35
3.38233	35
3.38600	35
3.38967	35
3.39333	35
3.39700	34
3.40067	34
3.40433	34
3.40800	34
3.41167	33
3.41533	33
3.41900	33
3.42267	33
3.42633	33
3.43000	33
3.43367	33
3.43733	33
3.44100	33
3.44467	33
3.44833	33
3.45200	33
3.45567	33
3.45933	34
3.46300	34
3.46667	34
3.47033	35
3.47400	35
3.47767	35
3.48133	35
3.48500	35
3.48867	35
3.49233	35
3.49600	36
3.49967	36
3.50333	35
3.50700	35
3.51067	35
3.51433	35
3.51800	35
3.52167	35
3.52533	35
3.52900	35
3.53267	35
3.53633	35
3.54000	35
3.54367	35
3.54733	35
3.55100	35
3.55467	35
3.55833	35
3.56200	35
3.56567	35
3.56933	35
3.57300	35
3.57667	35
3.58033	34
3.58400	34
3.58767	34
3.59133	34
3.59500	33
3.59867	33
3.60233	33
3.60600	34
3.60967	34
3.61333	34
3.61700	34
3.62067	34
3.62433	34
3.62800	34
3.63167	34
3.63533	34
3.63900	35
3.64267	35
3.64633	35
3.65000	35
3.65367	36
3.65733	36
3.66100	36
3.66467	36
3.66833	36
3.67200	36
3.67567	36
3.67933	36
3.68300	36
3.68667	36
3.69033	35
3.69400	35
3.69767	34
3.70133	34
3.70500	33
3.70867	33
3.71233	32
3.71600	32
3.71967	31
3.72333	31
3.72700	31
3.73067	31
3.73433	31
3.73800	31
3.74167	31
3.74533	31
3.74900	32
3.75267	32
3.75633	33
3.76000	33
3.76367	33
3.76733	34
3.77100	34
3.77467	34
3.77833	34
3.78200	33
3.78567	33
3.78933	33
3.79300	33
3.79667	33
3.80033	33
3.80400	33
3.80767	34
3.81133	34
3.81500	34
3.81867	35
3.82233	35
3.82600	35
3.82967	35
3.83333	35
3.83700	35
3.84067	35
3.84433	35
3.84800	35
3.85167	35
3.85533	34
3.85900	34
3.86267	35
3.86633	35
3.87000	35
3.87367	35
3.87733	35
3.88100	36
3.88467	36
3.88833	36
3.89200	35
3.89567	35
3.89933	35
3.90300	34
3.90667	34
3.91033	33
3.91400	33
3.91767	33
3.92133	33
3.92500	33
3.92867	33
3.93233	33
3.93600	34
3.93967	34
3.94333	34
3.94700	35
3.95067	35
3.95433	36
3.95800	36
3.96167	36
3.96533	36
3.96900	36
3.97267	36
3.97633	36
3.98000	36
3.98367	36
3.98733	36
3.99100	36
3.99467	36
3.99833	36

[Chromatogram (Ch3)]
Interval(msec)	220
# of Points	1091
Start Time(min)	0.002
End Time(min)	3.998
R.Time (min)	Intensity
0.00167	0
0.00533	-0
0.00900	-1
0.01267	-2
0.01633	-3
0.02000	-2
0.02367	-0
0.02733	-0
0.03100	0
0.03467	-0
0.03833	-0
0.04200	-2
0.04567	-3
0.04933	-3
0.05300	-4
0.05667	-5
0.06033	-5
0.06400	-9
0.06767	-11
0.07133	-10
0.07500	-7
0.07867	-6
0.08233	-4
0.08600	-2
0.08967	-2
0.09333	-2
0.09700	-0
0.10067	-0
0.10433	-1
0.10800	-2
0.11167	-3
0.11533	-1
0.11900	1
0.12267	4
0.12633	4
0.13000	2
0.13367	1
0.13733	-0
0.14100	1
0.14467	0
0.14833	-1
0.15200	-2
0.15567	-3
0.15933	-1
0.16300	-0
0.16667	1
0.17033	1
0.17400	-2
0.17767	-5
0.18133	-5
0.18500	-4
0.18867	-3
0.19233	-3
0.19600	-1
0.19967	1
0.20333	2
0.20700	2
0.21067	1
0.21433	-3
0.21800	-4
0.22167	-1
0.22533	-1
0.22900	-1
0.23267	-2
0.23633	-3
0.24000	-4
0.24367	-3
0.24733	-1
0.25100	2
0.25467	-0
0.25833	-2
0.26200	-3
0.26567	-3
0.26933	-3
0.27300	-5
0.27667	-5
0.28033	-6
0.28400	-5
0.28767	-2
0.29133	1
0.29500	4
0.29867	3
0.30233	-0
0.30600	-3
0.30967	-3
0.31333	-2
0.31700	2
0.32067	3
0.32433	2
0.32800	1
0.33167	1
0.33533	-0
0.33900	-0
0.34267	1
0.34633	-1
0.35000	-3
0.35367	-3
0.35733	-1
0.36100	-1
0.36467	0
0.36833	0
0.37200	1
0.37567	1
0.37933	1
0.38300	1
0.38667	0
0.39033	-1
0.39400	-1
0.39767	-1
0.40133	0
0.40500	-1
0.40867	-4
0.41233	-7
0.41600	-9
0.41967	-7
0.42333	-3
0.42700	-2
0.43067	-2
0.43433	-3
0.43800	-3
0.44167	-2
0.44533	-0
0.44900	-1
0.45267	-3
0.45633	-5
0.46000	-4
0.46367	-3
0.46733	-2
0.47100	-1
0.47467	-1
0.47833	0
0.48200	-0
0.48567	1
0.48933	2
0.49300	1
0.49667	-0
0.50033	0
0.50400	-1
0.50767	-2
0.51133	-3
0.51500	-1
0.51867	0
0.52233	1
0.52600	2
0.52967	1
0.53333	-0
0.53700	-1
0.54067	-1
0.54433	1
0.54800	1
0.55167	0
0.55533	1
0.55900	1
0.56267	-1
0.56633	-1
0.57000	-2
0.57367	-2
0.57733	-3
0.58100	-3
0.58467	-2
0.58833	-1
0.59200	-1
0.59567	-3
0.59933	-3
0.60300	-2
0.60667	-2
0.61033	-4
0.61400	-5
0.61767	-5
0.62133	-4
0.62500	-4
0.62867	-4
0.63233	-5
0.63600	-6
0.63967	-5
0.64333	-5
0.64700	-4
0.65067	-4
0.65433	-4
0.65800	-5
0.66167	-5
0.66533	-5
0.66900	-4
0.67267	-4
0.67633	-3
0.68000	-1
0.68367	-2
0.68733	-3
0.69100	-3
0.69467	-2
0.69833	-2
0.70200	-4
0.70567	-4
0.70933	-2
0.71300	0
0.71667	0
0.72033	1
0.72400	0
0.72767	-0
0.73133	-3
0.73500	-3
0.73867	-2
0.74233	-4
0.74600	-5
0.74967	-6
0.75333	-8
0.75700	-8
0.76067	-7
0.76433	-8
0.76800	-7
0.77167	-4
0.77533	-0
0.77900	1
0.78267	2
0.78633	3
0.79000	2
0.79367	3
0.79733	1
0.80100	-3
0.80467	-4
0.80833	-5
0.81200	-5
0.81567	-4
0.81933	-4
0.82300	-6
0.82667	-6
0.83033	-5
0.83400	-4
0.83767	-4
0.84133	-3
0.84500	-4
0.84867	-5
0.85233	-5
0.85600	-6
0.85967	-7
0.86333	-7
0.86700	-6
0.87067	-5
0.87433	-5
0.87800	-3
0.88167	-1
0.88533	1
0.88900	3
0.89267	5
0.89633	5
0.90000	3
0.90367	-0
0.90733	-0
0.91100	0
0.91467	0
0.91833	1
0.92200	0
0.92567	1
0.92933	-1
0.93300	-4
0.93667	-3
0.94033	-2
0.94400	-3
0.94767	-5
0.95133	-6
0.95500	-7
0.95867	-7
0.96233	-7
0.96600	-7
0.96967	-6
0.97333	-4
0.97700	-4
0.98067	-4
0.98433	-6
0.98800	-7
0.99167	-8
0.99533	-8
0.99900	-7
1.00267	-4
1.00633	-2
1.01000	-2
1.01367	-3
1.01733	-3
1.02100	-2
1.02467	0
1.02833	0
1.03200	-2
1.03567	-2
1.03933	-3
1.04300	-4
1.04667	-3
1.05033	-3
1.05400	-3
1.05767	-1
1.06133	1
1.06500	1
1.06867	1
1.07233	0
1.07600	-1
1.07967	-4
1.08333	-7
1.08700	-6
1.09067	-4
1.09433	-3
1.09800	-4
1.10167	-4
1.10533	-4
1.10900	-5
1.11267	-5
1.11633	-6
1.12000	-4
1.12367	-2
1.12733	-3
1.13100	-4
1.13467	-6
1.13833	-4
1.14200	-3
1.14567	-3
1.14933	-5
1.15300	-6
1.15667	-5
1.16033	-5
1.16400	-6
1.16767	-7
1.17133	-6
1.17500	-4
1.17867	-4
1.18233	-6
1.18600	-8
1.18967	-9
1.19333	-7
1.19700	-5
1.20067	-3
1.20433	-2
1.20800	-3
1.21167	-2
1.21533	-3
1.21900	-5
1.22267	-8
1.22633	-10
1.23000	-7
1.23367	-6
1.23733	-7
1.24100	-8
1.24467	-7
1.24833	-7
1.25200	-7
1.25567	-7
1.25933	-8
1.26300	-7
1.26667	-5
1.27033	-3
1.27400	-4
1.27767	-6
1.28133	-7
1.28500	-6
1.28867	-5
1.29233	-5
1.29600	-6
1.29967	-6
1.30333	-6
1.30700	-4
1.31067	-4
1.31433	-4
1.31800	-5
1.32167	-6
1.32533	-8
1.32900	-9
1.33267	-11
1.33633	-10
1.34000	-11
1.34367	-9
1.34733	-5
1.35100	-4
1.35467	-3
1.35833	-2
1.36200	-3
1.36567	-3
1.36933	-3
1.37300	-5
1.37667	-6
1.38033	-7
1.38400	-8
1.38767	-8
1.39133	-8
1.39500	-7
1.39867	-7
1.40233	-9
1.40600	-8
1.40967	-5
1.41333	-4
1.41700	-4
1.42067	-5
1.42433	-7
1.42800	-7
1.43167	-6
1.43533	-7
1.43900	-5
1.44267	-2
1.44633	-1
1.45000	-2
1.45367	-4
1.45733	-5
1.46100	-6
1.46467	-8
1.46833	-8
1.47200	-8
1.47567	-9
1.47933	-11
1.48300	-13
1.48667	-13
1.49033	-9
1.49400	-6
1.49767	-5
1.50133	-5
1.50500	-6
1.50867	-7
1.51233	-6
1.51600	-4
1.51967	-3
1.52333	-4
1.52700	-5
1.53067	-5
1.53433	-6
1.53800	-8
1.54167	-10
1.54533	-10
1.54900	-10
1.55267	-8
1.55633	-6
1.56000	-6
1.56367	-6
1.56733	-6
1.57100	-7
1.57467	-7
1.57833	-8
1.58200	-8
1.58567	-7
1.58933	-5
1.59300	-3
1.59667	-4
1.60033	-6
1.60400	-6
1.60767	-6
1.61133	-4
1.61500	-5
1.61867	-5
1.62233	-5
1.62600	-5
1.62967	-5
1.63333	-5
1.63700	-4
1.64067	-3
1.64433	-3
1.64800	-4
1.65167	-4
1.65533	-6
1.65900	-6
1.66267	-3
1.66633	-2
1.67000	-1
1.67367	2
1.67733	4
1.68100	4
1.68467	2
1.68833	2
1.69200	1
1.69567	1
1.69933	3
1.70300	4
1.70667	2
1.71033	-0
1.71400	1
1.71767	-1
1.72133	-3
1.72500	-2
1.72867	-1
1.73233	-0
1.73600	3
1.73967	6
1.74333	8
1.74700	8
1.75067	7
1.75433	8
1.75800	9
1.76167	10
1.76533	12
1.76900	12
1.77267	9
1.77633	7
1.78000	6
1.78367	9
1.78733	12
1.79100	14
1.79467	13
1.79833	13
1.80200	11
1.80567	10
1.80933	9
1.81300	9
1.81667	9
1.82033	8
1.82400	9
1.82767	13
1.83133	15
1.83500	15
1.83867	15
1.84233	15
1.84600	16
1.84967	17
1.85333	19
1.85700	18
1.86067	15
1.86433	14
1.86800	13
1.87167	12
1.87533	12
1.87900	14
1.88267	16
1.88633	18
1.89000	18
1.89367	19
1.89733	21
1.90100	22
1.90467	22
1.90833	19
1.91200	17
1.91567	16
1.91933	16
1.92300	17
1.92667	15
1.93033	14
1.93400	15
1.93767	16
1.94133	16
1.94500	19
1.94867	22
1.95233	24
1.95600	23
1.95967	23
1.96333	23
1.96700	22
1.97067	22
1.97433	22
1.97800	22
1.98167	22
1.98533	22
1.98900	22
1.99267	23
1.99633	23
2.00000	25
2.00367	27
2.00733	26
2.01100	27
2.01467	24
2.01833	23
2.02200	22
2.02567	23
2.02933	24
2.03300	25
2.03667	26
2.04033	26
2.04400	27
2.04767	27
2.05133	27
2.05500	28
2.05867	29
2.06233	30
2.06600	31
2.06967	31
2.07333	29
2.07700	29
2.08067	31
2.08433	33
2.08800	34
2.09167	34
2.09533	34
2.09900	36
2.10267	37
2.10633	38
2.11000	37
2.11367	36
2.11733	34
2.12100	34
2.12467	36
2.12833	38
2.13200	40
2.13567	43
2.13933	45
2.14300	47
2.14667	48
2.15033	45
2.15400	43
2.15767	44
2.16133	44
2.16500	43
2.16867	44
2.17233	44
2.17600	44
2.17967	45
2.18333	45
2.18700	45
2.19067	47
2.19433	49
2.19800	49
2.20167	50
2.20533	51
2.20900	51
2.21267	52
2.21633	53
2.22000	54
2.22367	54
2.22733	55
2.23100	58
2.23467	58
2.23833	59
2.24200	59
2.24567	58
2.24933	57
2.25300	57
2.25667	58
2.26033	59
2.26400	60
2.26767	61
2.27133	62
2.27500	63
2.27867	63
2.28233	62
2.28600	61
2.28967	60
2.29333	62
2.29700	63
2.30067	65
2.30433	65
2.30800	64
2.31167	64
2.31533	64
2.31900	66
2.32267	66
2.32633	65
2.33000	67
2.33367	68
2.33733	69
2.34100	70
2.34467	67
2.34833	67
2.35200	70
2.35567	73
2.35933	75
2.36300	75
2.36667	75
2.37033	76
2.37400	76
2.37767	74
2.38133	73
2.38500	72
2.38867	73
2.39233	72
2.39600	71
2.39967	73
2.40333	74
2.40700	76
2.41067	78
2.41433	79
2.41800	79
2.42167	78
2.42533	79
2.42900	81
2.43267	81
2.43633	80
2.44000	82
2.44367	126
2.44733	252
2.45100	394
2.45467	514
2.45833	587
2.46200	599
2.46567	576
2.46933	542
2.47300	518
2.47667	505
2.48033	495
2.48400	471
2.48767	434
2.49133	390
2.49500	348
2.49867	314
2.50233	288
2.50600	272
2.50967	267
2.51333	273
2.51700	290
2.52067	312
2.52433	332
2.52800	346
2.53167	347
2.53533	338
2.53900	319
2.54267	293
2.54633	264
2.55000	237
2.55367	212
2.55733	191
2.56100	175
2.56467	163
2.56833	153
2.57200	145
2.57567	140
2.57933	138
2.58300	138
2.58667	139
2.59033	138
2.59400	139
2.59767	142
2.60133	148
2.60500	156
2.60867	167
2.61233	178
2.61600	190
2.61967	205
2.62333	220
2.62700	236
2.63067	250
2.63433	264
2.63800	274
2.64167	281
2.64533	284
2.64900	280
2.65267	274
2.65633	270
2.66000	260
2.66367	247
2.66733	235
2.67100	221
2.67467	206
2.67833	192
2.68200	178
2.68567	166
2.68933	155
2.69300	146
2.69667	136
2.70033	129
2.70400	123
2.70767	119
2.71133	117
2.71500	114
2.71867	110
2.72233	108
2.72600	107
2.72967	106
2.73333	106
2.73700	106
2.74067	107
2.74433	108
2.74800	108
2.75167	107
2.75533	106
2.75900	106
2.76267	107
2.76633	106
2.77000	107
2.77367	108
2.77733	109
2.78100	110
2.78467	110
2.78833	110
2.79200	110
2.79567	111
2.79933	112
2.80300	114
2.80667	115
2.81033	119
2.81400	120
2.81767	122
2.82133	126
2.82500	131
2.82867	135
2.83233	141
2.83600	147
2.83967	153
2.84333	159
2.84700	164
2.85067	171
2.85433	177
2.85800	181
2.86167	187
2.86533	191
2.86900	195
2.87267	200
2.87633	204
2.88000	208
2.88367	210
2.88733	214
2.89100	219
2.89467	222
2.89833	223
2.90200	223
2.90567	224
2.90933	224
2.91300	222
2.91667	220
2.92033	219
2.92400	216
2.92767	214
2.93133	213
2.93500	211
2.93867	207
2.94233	202
2.94600	197
2.94967	192
2.95333	188
2.95700	186
2.96067	183
2.96433	178
2.96800	173
2.97167	167
2.97533	162
2.97900	157
2.98267	153
2.98633	148
2.99000	146
2.99367	143
2.99733	140
3.00100	136
3.00467	133
3.00833	132
3.01200	132
3.01567	131
3.01933	130
3.02300	129
3.02667	129
3.03033	128
3.03400	125
3.03767	122
3.04133	120
3.04500	117
3.04867	116
3.05233	115
3.05600	110
3.05967	108
3.06333	108
3.06700	107
3.07067	105
3.07433	106
3.07800	108
3.08167	109
3.08533	109
3.08900	110
3.09267	110
3.09633	109
3.10000	108
3.10367	109
3.10733	108
3.11100	106
3.11467	105
3.11833	104
3.12200	103
3.12567	104
3.12933	105
3.13300	106
3.13667	107
3.14033	108
3.14400	107
3.14767	106
3.15133	104
3.15500	102
3.15867	103
3.16233	102
3.16600	101
3.16967	101
3.17333	101
3.17700	102
3.18067	103
3.18433	105
3.18800	107
3.19167	106
3.19533	104
3.19900	102
3.20267	104
3.20633	107
3.21000	109
3.21367	109
3.21733	108
3.22100	107
3.22467	106
3.22833	103
3.23200	102
3.23567	102
3.23933	102
3.24300	102
3.24667	102
3.25033	105
3.25400	108
3.25767	109
3.26133	111
3.26500	113
3.26867	116
3.27233	116
3.27600	117
3.27967	118
3.28333	118
3.28700	117
3.29067	117
3.29433	118
3.29800	118
3.30167	118
3.30533	120
3.30900	120
3.31267	121
3.31633	121
3.32000	121
3.32367	123
3.32733	125
3.33100	126
3.33467	126
3.33833	126
3.34200	128
3.34567	131
3.34933	132
3.35300	134
3.35667	134
3.36033	135
3.36400	136
3.36767	134
3.37133	132
3.37500	133
3.37867	135
3.38233	136
3.38600	137
3.38967	138
3.39333	140
3.39700	141
3.40067	142
3.40433	146
3.40800	149
3.41167	151
3.41533	151
3.41900	152
3.42267	152
3.42633	152
3.43000	151
3.43367	152
3.43733	153
3.44100	153
3.44467	155
3.44833	158
3.45200	159
3.45567	160
3.45933	159
3.46300	157
3.46667	159
3.47033	162
3.47400	163
3.47767	164
3.48133	162
3.48500	160
3.48867	157
3.49233	156
3.49600	156
3.49967	156
3.50333	153
3.50700	152
3.51067	150
3.51433	148
3.51800	147
3.52167	147
3.52533	148
3.52900	149
3.53267	148
3.53633	146
3.54000	144
3.54367	144
3.54733	145
3.55100	146
3.55467	143
3.55833	139
3.56200	140
3.56567	143
3.56933	144
3.57300	143
3.57667	142
3.58033	141
3.58400	139
3.58767	138
3.59133	137
3.59500	135
3.59867	132
3.60233	130
3.60600	128
3.60967	128
3.61333	128
3.61700	128
3.62067	127
3.62433	125
3.62800	126
3.63167	126
3.63533	123
3.63900	122
3.64267	120
3.64633	117
3.65000	116
3.65367	115
3.65733	116
3.66100	115
3.66467	112
3.66833	111
3.67200	109
3.67567	108
3.67933	107
3.68300	108
3.68667	107
3.69033	107
3.69400	106
3.69767	104
3.70133	105
3.70500	104
3.70867	101
3.71233	97
3.71600	96
3.71967	96
3.72333	96
3.72700	96
3.73067	96
3.73433	97
3.73800	97
3.74167	96
3.74533	96
3.74900	96
3.75267	96
3.75633	97
3.76000	96
3.76367	96
3.76733	96
3.77100	94
3.77467	91
3.77833	88
3.78200	85
3.78567	85
3.78933	88
3.79300	90
3.79667	91
3.80033	92
3.80400	90
3.80767	88
3.81133	87
3.81500	85
3.81867	85
3.82233	85
3.82600	84
3.82967	84
3.83333	84
3.83700	83
3.84067	81
3.84433	81
3.84800	80
3.85167	80
3.85533	79
3.85900	82
3.86267	85
3.86633	84
3.87000	84
3.87367	85
3.87733	85
3.88100	83
3.88467	82
3.88833	83
3.89200	83
3.89567	81
3.89933	81
3.90300	80
3.90667	79
3.91033	79
3.91400	79
3.91767	79
3.92133	78
3.92500	80
3.92867	79
3.93233	79
3.93600	79
3.93967	80
3.94333	81
3.94700	80
3.95067	78
3.95433	76
3.95800	76
3.96167	77
3.96533	78
3.96900	81
3.97267	83
3.97633	84
3.98000	84
3.98367	84
3.98733	84
3.99100	83
3.99467	82
3.99833	79

[Status Trace (Column Oven Temperature)]
Interval(msec)	1000
# of Points	240
Start Time(min)	0.002
End Time(min)	3.985
Intensity Units	
Intensity Multiplier	1
R.Time (min)	Intensity
0.00157	35.00
0.01823	35.01
0.03490	35.01
0.05157	35.01
0.06823	35.01
0.08490	35.03
0.10157	35.04
0.11823	35.04
0.13490	35.05
0.15157	35.05
0.16823	35.05
0.18490	35.03
0.20157	35.03
0.21823	35.01
0.23490	35.00
0.25157	34.99
0.26823	34.99
0.28490	34.98
0.30157	34.98
0.31823	34.98
0.33490	34.99
0.35157	34.99
0.36823	34.98
0.38490	34.99
0.40157	35.00
0.41823	35.00
0.43490	35.00
0.45157	35.00
0.46823	34.99
0.48490	34.98
0.50157	34.98
0.51823	34.99
0.53490	34.99
0.55157	35.00
0.56823	35.00
0.58490	35.00
0.60157	35.00
0.61823	35.00
0.63490	35.01
0.65157	35.01
0.66823	35.00
0.68490	35.01
0.70157	35.01
0.71823	35.00
0.73490	34.99
0.75157	34.99
0.76823	34.99
0.78490	34.99
0.80157	34.99
0.81823	34.99
0.83490	34.99
0.85157	34.99
0.86823	35.00
0.88490	35.01
0.90157	35.02
0.91823	35.03
0.93490	35.02
0.95157	35.03
0.96823	35.03
0.98490	35.02
1.00157	35.02
1.01823	35.02
1.03490	35.02
1.05157	35.02
1.06823	35.04
1.08490	35.03
1.10157	35.03
1.11823	35.03
1.13490	35.04
1.15157	35.04
1.16823	35.04
1.18490	35.03
1.20157	35.03
1.21823	35.02
1.23490	35.01
1.25157	35.01
1.26823	34.99
1.28490	34.98
1.30157	34.97
1.31823	34.96
1.33490	34.97
1.35157	34.97
1.36823	34.97
1.38490	34.97
1.40157	34.98
1.41823	34.99
1.43490	35.00
1.45157	34.99
1.46823	35.00
1.48490	34.99
1.50157	35.00
1.51823	35.00
1.53490	35.00
1.55157	35.00
1.56823	35.00
1.58490	34.99
1.60157	35.01
1.61823	35.09
1.63490	35.25
1.65157	35.47
1.66823	35.81
1.68490	36.18
1.70157	36.55
1.71823	36.90
1.73490	37.21
1.75157	37.54
1.76823	37.88
1.78490	38.21
1.80157	38.56
1.81823	38.91
1.83490	39.19
1.85157	39.50
1.86823	39.83
1.88490	40.17
1.90157	40.50
1.91823	40.82
1.93490	41.16
1.95157	41.50
1.96823	41.82
1.98490	42.14
2.00157	42.48
2.01823	42.79
2.03490	43.12
2.05157	43.45
2.06823	43.79
2.08490	44.13
2.10157	44.46
2.11823	44.81
2.13490	45.11
2.15157	45.43
2.16823	45.78
2.18490	46.13
2.20157	46.44
2.21823	46.77
2.23490	47.09
2.25157	47.41
2.26823	47.74
2.28490	48.08
2.30157	48.40
2.31823	48.74
2.33490	49.06
2.35157	49.34
2.36823	49.54
2.38490	49.60
2.40157	49.61
2.41823	49.61
2.43490	49.64
2.45157	49.64
2.46823	49.66
2.48490	49.66
2.50157	49.69
2.51823	49.70
2.53490	49.71
2.55157	49.74
2.56823	49.76
2.58490	49.77
2.60157	49.78
2.61823	49.80
2.63490	49.82
2.65157	49.82
2.66823	49.82
2.68490	49.84
2.70157	49.84
2.71823	49.86
2.73490	49.87
2.75157	49.86
2.76823	49.85
2.78490	49.86
2.80157	49.86
2.81823	49.86
2.83490	49.86
2.85157	49.87
2.86823	49.88
2.88490	49.89
2.90157	49.90
2.91823	49.91
2.93490	49.92
2.95157	49.93
2.96823	49.94
2.98490	49.95
3.00157	49.96
3.01823	49.98
3.03490	49.97
3.05157	49.97
3.06823	49.96
3.08490	49.96
3.10157	49.96
3.11823	49.98
3.13490	50.00
3.15157	50.02
3.16823	50.02
3.18490	50.04
3.20157	50.05
3.21823	50.08
3.23490	50.09
3.25157	50.10
3.26823	50.11
3.28490	50.10
3.30157	50.09
3.31823	50.08
3.33490	50.07
3.35157	50.06
3.36823	50.06
3.38490	50.06
3.40157	50.06
3.41823	50.07
3.43490	50.08
3.45157	50.08
3.46823	50.06
3.48490	50.05
3.50157	50.05
3.51823	50.05
3.53490	50.05
3.55157	50.05
3.56823	50.06
3.58490	50.05
3.60157	50.05
3.61823	50.05
3.63490	50.05
3.65157	50.05
3.66823	50.04
3.68490	50.04
3.70157	50.06
3.71823	50.08
3.73490	50.09
3.75157	50.10
3.76823	50.09
3.78490	50.10
3.80157	50.10
3.81823	50.09
3.83490	50.08
3.85157	50.09
3.86823	50.07
3.88490	50.07
3.90157	50.08
3.91823	50.09
3.93490	50.08
3.95157	50.07
3.96823	50.07
3.98490	50.06

[Status Trace (Injection Unit Temperature)]
Interval(msec)	1000
# of Points	240
Start Time(min)	0.002
End Time(min)	3.985
Intensity Units	
Intensity Multiplier	1
R.Time (min)	Intensity
0.00157	99.99
0.01823	100.00
0.03490	100.00
0.05157	100.00
0.06823	100.00
0.08490	100.00
0.10157	100.00
0.11823	100.00
0.13490	100.00
0.15157	100.00
0.16823	100.00
0.18490	100.00
0.20157	100.00
0.21823	99.99
0.23490	100.00
0.25157	100.00
0.26823	100.00
0.28490	100.00
0.30157	100.00
0.31823	100.00
0.33490	100.00
0.35157	100.00
0.36823	100.00
0.38490	100.00
0.40157	100.00
0.41823	100.00
0.43490	100.00
0.45157	100.00
0.46823	100.00
0.48490	100.00
0.50157	100.00
0.51823	100.00
0.53490	100.00
0.55157	100.00
0.56823	100.00
0.58490	100.00
0.60157	100.00
0.61823	100.00
0.63490	100.00
0.65157	100.00
0.66823	100.00
0.68490	100.00
0.70157	100.00
0.71823	100.00
0.73490	100.00
0.75157	100.00
0.76823	99.99
0.78490	100.00
0.80157	100.00
0.81823	100.00
0.83490	100.01
0.85157	100.00
0.86823	100.01
0.88490	100.00
0.90157	100.01
0.91823	100.00
0.93490	100.00
0.95157	100.00
0.96823	100.00
0.98490	100.00
1.00157	100.00
1.01823	100.00
1.03490	100.00
1.05157	100.00
1.06823	100.00
1.08490	100.00
1.10157	100.00
1.11823	100.00
1.13490	100.00
1.15157	100.00
1.16823	100.00
1.18490	100.00
1.20157	100.00
1.21823	100.00
1.23490	100.00
1.25157	100.00
1.26823	100.00
1.28490	100.00
1.30157	100.00
1.31823	99.99
1.33490	100.00
1.35157	100.00
1.36823	100.00
1.38490	100.00
1.40157	100.00
1.41823	99.99
1.43490	99.99
1.45157	99.99
1.46823	100.00
1.48490	99.99
1.50157	100.00
1.51823	99.99
1.53490	100.00
1.55157	99.99
1.56823	99.99
1.58490	100.00
1.60157	99.99
1.61823	100.00
1.63490	100.00
1.65157	100.00
1.66823	100.00
1.68490	99.99
1.70157	100.00
1.71823	100.00
1.73490	99.99
1.75157	99.99
1.76823	99.99
1.78490	99.99
1.80157	99.99
1.81823	100.00
1.83490	99.99
1.85157	100.00
1.86823	99.99
1.88490	99.99
1.90157	99.99
1.91823	99.99
1.93490	99.99
1.95157	99.99
1.96823	99.99
1.98490	99.99
2.00157	99.98
2.01823	99.99
2.03490	99.98
2.05157	99.99
2.06823	99.99
2.08490	99.99
2.10157	99.99
2.11823	99.99
2.13490	99.99
2.15157	99.99
2.16823	99.99
2.18490	99.99
2.20157	99.98
2.21823	99.99
2.23490	99.99
2.25157	99.99
2.26823	99.98
2.28490	99.98
2.30157	99.98
2.31823	99.98
2.33490	99.98
2.35157	99.99
2.36823	99.98
2.38490	99.98
2.40157	99.99
2.41823	99.98
2.43490	99.99
2.45157	99.98
2.46823	99.98
2.48490	99.99
2.50157	99.99
2.51823	99.99
2.53490	99.98
2.55157	99.99
2.56823	99.99
2.58490	99.98
2.60157	99.99
2.61823	99.99
2.63490	99.99
2.65157	99.99
2.66823	99.99
2.68490	99.99
2.70157	99.99
2.71823	99.99
2.73490	100.00
2.75157	100.00
2.76823	100.00
2.78490	100.00
2.80157	100.00
2.81823	100.01
2.83490	100.01
2.85157	100.01
2.86823	100.01
2.88490	100.01
2.90157	100.01
2.91823	100.02
2.93490	100.02
2.95157	100.02
2.96823	100.02
2.98490	100.03
3.00157	100.03
3.01823	100.03
3.03490	100.03
3.05157	100.03
3.06823	100.03
3.08490	100.03
3.10157	100.03
3.11823	100.04
3.13490	100.03
3.15157	100.04
3.16823	100.04
3.18490	100.04
3.20157	100.04
3.21823	100.04
3.23490	100.04
3.25157	100.04
3.26823	100.05
3.28490	100.05
3.30157	100.04
3.31823	100.05
3.33490	100.05
3.35157	100.05
3.36823	100.05
3.38490	100.05
3.40157	100.05
3.41823	100.05
3.43490	100.05
3.45157	100.05
3.46823	100.05
3.48490	100.05
3.50157	100.05
3.51823	100.05
3.53490	100.05
3.55157	100.05
3.56823	100.06
3.58490	100.06
3.60157	100.06
3.61823	100.06
3.63490	100.06
3.65157	100.06
3.66823	100.06
3.68490	100.06
3.70157	100.05
3.71823	100.06
3.73490	100.05
3.75157	100.06
3.76823	100.06
3.78490	100.06
3.80157	100.06
3.81823	100.06
3.83490	100.06
3.85157	100.05
3.86823	100.06
3.88490	100.06
3.90157	100.06
3.91823	100.05
3.93490	100.06
3.95157	100.05
3.96823	100.05
3.98490	100.06

[Status Trace (Carrier Gas Pressure)]
Interval(msec)	1000
# of Points	240
Start Time(min)	0.002
End Time(min)	3.985
Intensity Units	
Intensity Multiplier	1
R.Time (min)	Intensity
0.00157	58.00
0.01823	58.00
0.03490	58.00
0.05157	58.00
0.06823	58.00
0.08490	58.00
0.10157	58.00
0.11823	58.00
0.13490	58.00
0.15157	58.00
0.16823	58.00
0.18490	58.00
0.20157	58.00
0.21823	58.00
0.23490	58.00
0.25157	58.00
0.26823	58.00
0.28490	58.00
0.30157	58.00
0.31823	58.00
0.33490	58.00
0.35157	58.00
0.36823	58.00
0.38490	58.00
0.40157	58.00
0.41823	58.00
0.43490	58.00
0.45157	58.00
0.46823	58.00
0.48490	58.00
0.50157	58.00
0.51823	58.00
0.53490	58.00
0.55157	58.00
0.56823	58.00
0.58490	58.00
0.60157	58.00
0.61823	58.00
0.63490	58.00
0.65157	58.00
0.66823	58.00
0.68490	58.00
0.70157	58.00
0.71823	58.00
0.73490	58.00
0.75157	58.00
0.76823	58.00
0.78490	58.00
0.80157	58.00
0.81823	58.00
0.83490	58.00
0.85157	58.00
0.86823	58.00
0.88490	58.00
0.90157	58.00
0.91823	58.00
0.93490	58.00
0.95157	58.00
0.96823	58.00
0.98490	58.00
1.00157	58.00
1.01823	58.00
1.03490	58.00
1.05157	58.00
1.06823	58.00
1.08490	58.00
1.10157	58.00
1.11823	58.00
1.13490	58.00
1.15157	58.00
1.16823	58.00
1.18490	58.00
1.20157	58.00
1.21823	58.00
1.23490	58.00
1.25157	58.00
1.26823	58.00
1.28490	58.00
1.30157	58.00
1.31823	58.00
1.33490	58.00
1.35157	58.00
1.36823	58.00
1.38490	58.00
1.40157	58.00
1.41823	58.00
1.43490	58.00
1.45157	58.00
1.46823	58.00
1.48490	58.00
1.50157	58.00
1.51823	58.00
1.53490	58.00
1.55157	58.00
1.56823	58.00
1.58490	58.00
1.60157	58.00
1.61823	58.00
1.63490	58.01
1.65157	58.01
1.66823	58.01
1.68490	58.01
1.70157	58.00
1.71823	58.00
1.73490	58.00
1.75157	58.00
1.76823	58.00
1.78490	58.00
1.80157	58.00
1.81823	58.00
1.83490	58.00
1.85157	58.00
1.86823	58.00
1.88490	58.00
1.90157	58.00
1.91823	58.00
1.93490	58.00
1.95157	58.00
1.96823	58.00
1.98490	58.00
2.00157	58.00
2.01823	58.00
2.03490	58.00
2.05157	58.00
2.06823	58.00
2.08490	58.00
2.10157	58.00
2.11823	58.00
2.13490	58.00
2.15157	58.00
2.16823	58.00
2.18490	58.00
2.20157	58.00
2.21823	58.00
2.23490	58.00
2.25157	58.00
2.26823	58.00
2.28490	58.00
2.30157	58.00
2.31823	58.00
2.33490	58.00
2.35157	58.00
2.36823	58.00
2.38490	57.99
2.40157	57.99
2.41823	58.00
2.43490	58.00
2.45157	58.00
2.46823	58.00
2.48490	58.00
2.50157	58.00
2.51823	57.98
2.53490	57.99
2.55157	58.00
2.56823	58.00
2.58490	58.00
2.60157	58.00
2.61823	58.00
2.63490	58.00
2.65157	58.00
2.66823	58.00
2.68490	58.00
2.70157	58.00
2.71823	58.00
2.73490	58.00
2.75157	58.00
2.76823	58.00
2.78490	58.00
2.80157	58.00
2.81823	58.00
2.83490	58.00
2.85157	58.00
2.86823	58.00
2.88490	58.00
2.90157	58.00
2.91823	58.00
2.93490	58.00
2.95157	58.00
2.96823	58.00
2.98490	58.00
3.00157	58.00
3.01823	58.00
3.03490	58.00
3.05157	58.00
3.06823	58.00
3.08490	58.00
3.10157	58.00
3.11823	58.00
3.13490	58.00
3.15157	58.00
3.16823	58.00
3.18490	58.00
3.20157	58.00
3.21823	58.00
3.23490	58.00
3.25157	58.00
3.26823	58.00
3.28490	58.00
3.30157	58.00
3.31823	58.00
3.33490	58.00
3.35157	58.00
3.36823	58.00
3.38490	58.00
3.40157	58.00
3.41823	58.00
3.43490	58.00
3.45157	58.00
3.46823	58.00
3.48490	58.00
3.50157	58.00
3.51823	58.00
3.53490	58.00
3.55157	58.00
3.56823	58.00
3.58490	58.00
3.60157	58.00
3.61823	58.00
3.63490	58.00
3.65157	58.00
3.66823	58.00
3.68490	58.00
3.70157	58.00
3.71823	58.00
3.73490	58.00
3.75157	58.00
3.76823	58.00
3.78490	58.00
3.80157	58.00
3.81823	58.00
3.83490	58.00
3.85157	58.00
3.86823	58.00
3.88490	58.00
3.90157	58.00
3.91823	58.00
3.93490	58.00
3.95157	58.00
3.96823	58.00
3.98490	58.00

[Status Trace (Carrier Gas Flow)]
Interval(msec)	1000
# of Points	240
Start Time(min)	0.002
End Time(min)	3.985
Intensity Units	
Intensity Multiplier	1
R.Time (min)	Intensity
0.00157	34.52
0.01823	34.52
0.03490	34.53
0.05157	34.52
0.06823	34.52
0.08490	34.52
0.10157	34.51
0.11823	34.52
0.13490	34.52
0.15157	34.52
0.16823	34.52
0.18490	34.52
0.20157	34.52
0.21823	34.52
0.23490	34.51
0.25157	34.51
0.26823	34.52
0.28490	34.52
0.30157	34.51
0.31823	34.52
0.33490	34.52
0.35157	34.52
0.36823	34.53
0.38490	34.52
0.40157	34.52
0.41823	34.51
0.43490	34.52
0.45157	34.52
0.46823	34.52
0.48490	34.52
0.50157	34.52
0.51823	34.52
0.53490	34.52
0.55157	34.52
0.56823	34.52
0.58490	34.52
0.60157	34.52
0.61823	34.52
0.63490	34.51
0.65157	34.52
0.66823	34.52
0.68490	34.52
0.70157	34.51
0.71823	34.51
0.73490	34.52
0.75157	34.52
0.76823	34.52
0.78490	34.52
0.80157	34.51
0.81823	34.52
0.83490	34.52
0.85157	34.52
0.86823	34.52
0.88490	34.52
0.90157	34.51
0.91823	34.52
0.93490	34.52
0.95157	34.52
0.96823	34.52
0.98490	34.52
1.00157	34.52
1.01823	34.52
1.03490	34.52
1.05157	34.52
1.06823	34.52
1.08490	34.52
1.10157	34.52
1.11823	34.52
1.13490	34.52
1.15157	34.52
1.16823	34.52
1.18490	34.52
1.20157	34.51
1.21823	34.52
1.23490	34.52
1.25157	34.52
1.26823	34.52
1.28490	34.52
1.30157	34.52
1.31823	34.52
1.33490	34.52
1.35157	34.51
1.36823	34.52
1.38490	34.52
1.40157	34.52
1.41823	34.52
1.43490	34.52
1.45157	34.52
1.46823	34.52
1.48490	34.52
1.50157	34.52
1.51823	34.52
1.53490	34.52
1.55157	34.52
1.56823	34.52
1.58490	34.52
1.60157	34.53
1.61823	34.52
1.63490	34.52
1.65157	34.51
1.66823	34.52
1.68490	34.52
1.70157	34.52
1.71823	34.52
1.73490	34.53
1.75157	34.52
1.76823	34.52
1.78490	34.52
1.80157	34.53
1.81823	34.51
1.83490	34.51
1.85157	34.53
1.86823	34.53
1.88490	34.52
1.90157	34.51
1.91823	34.52
1.93490	34.52
1.95157	34.52
1.96823	34.52
1.98490	34.52
2.00157	34.52
2.01823	34.52
2.03490	34.51
2.05157	34.51
2.06823	34.51
2.08490	34.52
2.10157	34.51
2.11823	34.52
2.13490	34.52
2.15157	34.52
2.16823	34.52
2.18490	34.52
2.20157	34.52
2.21823	34.52
2.23490	34.51
2.25157	34.52
2.26823	34.52
2.28490	34.52
2.30157	34.52
2.31823	34.52
2.33490	34.52
2.35157	34.52
2.36823	34.51
2.38490	34.52
2.40157	34.52
2.41823	34.52
2.43490	34.52
2.45157	34.51
2.46823	34.52
2.48490	34.52
2.50157	34.52
2.51823	34.51
2.53490	34.52
2.55157	34.52
2.56823	34.52
2.58490	34.52
2.60157	34.52
2.61823	34.52
2.63490	34.52
2.65157	34.52
2.66823	34.51
2.68490	34.51
2.70157	34.52
2.71823	34.51
2.73490	34.52
2.75157	34.53
2.76823	34.52
2.78490	34.51
2.80157	34.52
2.81823	34.52
2.83490	34.52
2.85157	34.51
2.86823	34.52
2.88490	34.52
2.90157	34.52
2.91823	34.52
2.93490	34.52
2.95157	34.52
2.96823	34.52
2.98490	34.52
3.00157	34.51
3.01823	34.52
3.03490	34.51
3.05157	34.52
3.06823	34.52
3.08490	34.52
3.10157	34.52
3.11823	34.52
3.13490	34.52
3.15157	34.52
3.16823	34.52
3.18490	34.52
3.20157	34.52
3.21823	34.51
3.23490	34.52
3.25157	34.51
3.26823	34.52
3.28490	34.52
3.30157	34.52
3.31823	34.51
3.33490	34.51
3.35157	34.52
3.36823	34.52
3.38490	34.52
3.40157	34.51
3.41823	34.52
3.43490	34.52
3.45157	34.52
3.46823	34.51
3.48490	34.52
3.50157	34.52
3.51823	34.51
3.53490	34.51
3.55157	34.52
3.56823	34.52
3.58490	34.52
3.60157	34.52
3.61823	34.52
3.63490	34.52
3.65157	34.51
3.66823	34.52
3.68490	34.51
3.70157	34.52
3.71823	34.52
3.73490	34.52
3.75157	34.52
3.76823	34.51
3.78490	34.52
3.80157	34.51
3.81823	34.52
3.83490	34.52
3.85157	34.52
3.86823	34.52
3.88490	34.52
3.90157	34.52
3.91823	34.52
3.93490	34.52
3.95157	34.51
3.96823	34.52
3.98490	34.52

[Status Trace (Column Flow)]
Interval(msec)	1000
# of Points	240
Start Time(min)	0.002
End Time(min)	3.985
Intensity Units	
Intensity Multiplier	1
R.Time (min)	Intensity
0.00157	5.56
0.01823	5.56
0.03490	5.56
0.05157	5.56
0.06823	5.56
0.08490	5.56
0.10157	5.55
0.11823	5.55
0.13490	5.55
0.15157	5.55
0.16823	5.55
0.18490	5.55
0.20157	5.55
0.21823	5.56
0.23490	5.56
0.25157	5.56
0.26823	5.56
0.28490	5.56
0.30157	5.56
0.31823	5.56
0.33490	5.56
0.35157	5.56
0.36823	5.56
0.38490	5.56
0.40157	5.56
0.41823	5.56
0.43490	5.56
0.45157	5.56
0.46823	5.56
0.48490	5.56
0.50157	5.56
0.51823	5.56
0.53490	5.56
0.55157	5.56
0.56823	5.56
0.58490	5.56
0.60157	5.56
0.61823	5.56
0.63490	5.56
0.65157	5.56
0.66823	5.56
0.68490	5.56
0.70157	5.56
0.71823	5.56
0.73490	5.56
0.75157	5.56
0.76823	5.56
0.78490	5.56
0.80157	5.56
0.81823	5.56
0.83490	5.56
0.85157	5.56
0.86823	5.56
0.88490	5.56
0.90157	5.56
0.91823	5.56
0.93490	5.56
0.95157	5.55
0.96823	5.55
0.98490	5.55
1.00157	5.56
1.01823	5.56
1.03490	5.56
1.05157	5.56
1.06823	5.55
1.08490	5.55
1.10157	5.55
1.11823	5.55
1.13490	5.55
1.15157	5.55
1.16823	5.55
1.18490	5.55
1.20157	5.55
1.21823	5.56
1.23490	5.56
1.25157	5.56
1.26823	5.56
1.28490	5.56
1.30157	5.56
1.31823	5.56
1.33490	5.56
1.35157	5.56
1.36823	5.56
1.38490	5.56
1.40157	5.56
1.41823	5.56
1.43490	5.56
1.45157	5.56
1.46823	5.56
1.48490	5.56
1.50157	5.56
1.51823	5.56
1.53490	5.56
1.55157	5.56
1.56823	5.56
1.58490	5.56
1.60157	5.56
1.61823	5.55
1.63490	5.55
1.65157	5.54
1.66823	5.53
1.68490	5.52
1.70157	5.51
1.71823	5.50
1.73490	5.49
1.75157	5.48
1.76823	5.47
1.78490	5.46
1.80157	5.44
1.81823	5.43
1.83490	5.43
1.85157	5.42
1.86823	5.41
1.88490	5.40
1.90157	5.39
1.91823	5.38
1.93490	5.37
1.95157	5.36
1.96823	5.35
1.98490	5.34
2.00157	5.33
2.01823	5.32
2.03490	5.31
2.05157	5.30
2.06823	5.29
2.08490	5.28
2.10157	5.27
2.11823	5.26
2.13490	5.25
2.15157	5.24
2.16823	5.23
2.18490	5.22
2.20157	5.21
2.21823	5.20
2.23490	5.19
2.25157	5.18
2.26823	5.17
2.28490	5.16
2.30157	5.15
2.31823	5.15
2.33490	5.14
2.35157	5.13
2.36823	5.12
2.38490	5.12
2.40157	5.12
2.41823	5.12
2.43490	5.12
2.45157	5.12
2.46823	5.12
2.48490	5.12
2.50157	5.12
2.51823	5.12
2.53490	5.12
2.55157	5.12
2.56823	5.12
2.58490	5.12
2.60157	5.12
2.61823	5.12
2.63490	5.11
2.65157	5.11
2.66823	5.11
2.68490	5.11
2.70157	5.11
2.71823	5.11
2.73490	5.11
2.75157	5.11
2.76823	5.11
2.78490	5.11
2.80157	5.11
2.81823	5.11
2.83490	5.11
2.85157	5.11
2.86823	5.11
2.88490	5.11
2.90157	5.11
2.91823	5.11
2.93490	5.11
2.95157	5.11
2.96823	5.11
2.98490	5.11
3.00157	5.11
3.01823	5.11
3.03490	5.11
3.05157	5.11
3.06823	5.11
3.08490	5.11
3.10157	5.11
3.11823	5.11
3.13490	5.11
3.15157	5.11
3.16823	5.11
3.18490	5.11
3.20157	5.11
3.21823	5.11
3.23490	5.11
3.25157	5.11
3.26823	5.11
3.28490	5.11
3.30157	5.11
3.31823	5.11
3.33490	5.11
3.35157	5.11
3.36823	5.11
3.38490	5.11
3.40157	5.11
3.41823	5.11
3.43490	5.11
3.45157	5.11
3.46823	5.11
3.48490	5.11
3.50157	5.11
3.51823	5.11
3.53490	5.11
3.55157	5.11
3.56823	5.11
3.58490	5.11
3.60157	5.11
3.61823	5.11
3.63490	5.11
3.65157	5.11
3.66823	5.11
3.68490	5.11
3.70157	5.11
3.71823	5.11
3.73490	5.11
3.75157	5.11
3.76823	5.11
3.78490	5.11
3.80157	5.11
3.81823	5.11
3.83490	5.11
3.85157	5.11
3.86823	5.11
3.88490	5.11
3.90157	5.11
3.91823	5.11
3.93490	5.11
3.95157	5.11
3.96823	5.11
3.98490	5.11

[Status Trace (Linear Velocity)]
Interval(msec)	1000
# of Points	240
Start Time(min)	0.002
End Time(min)	3.985
Intensity Units	
Intensity Multiplier	1
R.Time (min)	Intensity
0.00157	39.03
0.01823	39.02
0.03490	39.02
0.05157	39.02
0.06823	39.02
0.08490	39.02
0.10157	39.02
0.11823	39.02
0.13490	39.02
0.15157	39.02
0.16823	39.02
0.18490	39.02
0.20157	39.02
0.21823	39.02
0.23490	39.02
0.25157	39.03
0.26823	39.03
0.28490	39.03
0.30157	39.03
0.31823	39.03
0.33490	39.03
0.35157	39.03
0.36823	39.03
0.38490	39.03
0.40157	39.02
0.41823	39.02
0.43490	39.03
0.45157	39.02
0.46823	39.03
0.48490	39.03
0.50157	39.03
0.51823	39.03
0.53490	39.03
0.55157	39.02
0.56823	39.02
0.58490	39.02
0.60157	39.03
0.61823	39.02
0.63490	39.02
0.65157	39.02
0.66823	39.02
0.68490	39.02
0.70157	39.02
0.71823	39.02
0.73490	39.03
0.75157	39.03
0.76823	39.02
0.78490	39.03
0.80157	39.03
0.81823	39.03
0.83490	39.03
0.85157	39.03
0.86823	39.03
0.88490	39.02
0.90157	39.02
0.91823	39.02
0.93490	39.02
0.95157	39.02
0.96823	39.02
0.98490	39.02
1.00157	39.02
1.01823	39.02
1.03490	39.02
1.05157	39.02
1.06823	39.02
1.08490	39.02
1.10157	39.02
1.11823	39.02
1.13490	39.02
1.15157	39.02
1.16823	39.02
1.18490	39.02
1.20157	39.02
1.21823	39.02
1.23490	39.02
1.25157	39.02
1.26823	39.03
1.28490	39.03
1.30157	39.03
1.31823	39.03
1.33490	39.03
1.35157	39.03
1.36823	39.03
1.38490	39.03
1.40157	39.03
1.41823	39.03
1.43490	39.02
1.45157	39.03
1.46823	39.02
1.48490	39.03
1.50157	39.02
1.51823	39.02
1.53490	39.02
1.55157	39.02
1.56823	39.02
1.58490	39.03
1.60157	39.02
1.61823	39.02
1.63490	39.00
1.65157	38.98
1.66823	38.95
1.68490	38.91
1.70157	38.88
1.71823	38.84
1.73490	38.81
1.75157	38.78
1.76823	38.75
1.78490	38.72
1.80157	38.69
1.81823	38.65
1.83490	38.62
1.85157	38.60
1.86823	38.57
1.88490	38.53
1.90157	38.50
1.91823	38.47
1.93490	38.44
1.95157	38.41
1.96823	38.38
1.98490	38.35
2.00157	38.32
2.01823	38.29
2.03490	38.26
2.05157	38.23
2.06823	38.20
2.08490	38.17
2.10157	38.14
2.11823	38.11
2.13490	38.08
2.15157	38.05
2.16823	38.02
2.18490	37.99
2.20157	37.96
2.21823	37.93
2.23490	37.90
2.25157	37.87
2.26823	37.84
2.28490	37.81
2.30157	37.78
2.31823	37.75
2.33490	37.72
2.35157	37.70
2.36823	37.68
2.38490	37.67
2.40157	37.67
2.41823	37.67
2.43490	37.67
2.45157	37.67
2.46823	37.67
2.48490	37.67
2.50157	37.67
2.51823	37.66
2.53490	37.66
2.55157	37.67
2.56823	37.66
2.58490	37.66
2.60157	37.66
2.61823	37.66
2.63490	37.66
2.65157	37.66
2.66823	37.66
2.68490	37.65
2.70157	37.65
2.71823	37.65
2.73490	37.65
2.75157	37.65
2.76823	37.65
2.78490	37.65
2.80157	37.65
2.81823	37.65
2.83490	37.65
2.85157	37.65
2.86823	37.65
2.88490	37.65
2.90157	37.65
2.91823	37.65
2.93490	37.65
2.95157	37.65
2.96823	37.65
2.98490	37.64
3.00157	37.64
3.01823	37.64
3.03490	37.64
3.05157	37.64
3.06823	37.64
3.08490	37.64
3.10157	37.64
3.11823	37.64
3.13490	37.64
3.15157	37.64
3.16823	37.64
3.18490	37.64
3.20157	37.64
3.21823	37.63
3.23490	37.63
3.25157	37.63
3.26823	37.63
3.28490	37.63
3.30157	37.63
3.31823	37.63
3.33490	37.63
3.35157	37.64
3.36823	37.64
3.38490	37.64
3.40157	37.63
3.41823	37.63
3.43490	37.63
3.45157	37.63
3.46823	37.63
3.48490	37.64
3.50157	37.64
3.51823	37.64
3.53490	37.64
3.55157	37.64
3.56823	37.64
3.58490	37.64
3.60157	37.64
3.61823	37.64
3.63490	37.64
3.65157	37.64
3.66823	37.64
3.68490	37.64
3.70157	37.64
3.71823	37.63
3.73490	37.63
3.75157	37.63
3.76823	37.63
3.78490	37.63
3.80157	37.63
3.81823	37.63
3.83490	37.63
3.85157	37.63
3.86823	37.63
3.88490	37.63
3.90157	37.63
3.91823	37.63
3.93490	37.63
3.95157	37.63
3.96823	37.63
3.98490	37.63

