[Header]
Application Name	LabSolutions
Version	5.110
Data File Name	C:\Users\User\Desktop\GC Analyses\Jack\Nachusa Grasslands Sampling\T4 Timepoint July 12th\T4_07122022_021.gcd
Output Date	3/17/2023
Output Time	12:04:52 PM

[File Information]
Type	Data File
Generated	3/14/2023 5:38:51 PM
Generated by	System Administrator
Modified	3/14/2023 5:45:40 PM
Modified by	System Administrator

[Sample Information]
Operator Name	System Administrator
Acquired	3/14/2023 5:41:40 PM
Sample Type	0:Unknown
Level	0
Sample Name	021
Sample ID	021
ISTD Amount1	1
ISTD Amount2	1
ISTD Amount3	1
ISTD Amount4	1
ISTD Amount5	1
ISTD Amount6	1
ISTD Amount7	1
ISTD Amount8	1
ISTD Amount9	1
ISTD Amount10	1
ISTD Amount11	1
ISTD Amount12	1
ISTD Amount13	1
ISTD Amount14	1
ISTD Amount15	1
ISTD Amount16	1
ISTD Amount17	1
ISTD Amount18	1
ISTD Amount19	1
ISTD Amount20	1
ISTD Amount21	1
ISTD Amount22	1
ISTD Amount23	1
ISTD Amount24	1
ISTD Amount25	1
ISTD Amount26	1
ISTD Amount27	1
ISTD Amount28	1
ISTD Amount29	1
ISTD Amount30	1
ISTD Amount31	1
ISTD Amount32	1
Sample Amount	1
Dilution Factor	1
Vial#	20
Injection Volume	1
Injection Count	1
Bar Code	

[Original Files]
Data File	C:\Users\User\Desktop\GC Analyses\Jack\Nachusa Grasslands Sampling\T4 Timepoint July 12th\T4_07122022_021.gcd
Method File	C:\LabSolutions\Data\GHG_4min_2022\ghg3_togas_w_acet_4 min_new_int.gcm
Batch File	C:\LabSolutions\Data\AutoSamplerTesting\T4_07122022.gcb
Report Format File	c:\LabSolutions\System\DEFAULT.lsr

[File Description]


[Configuration]
Instrument Name	C0B7VH3-Instrument1
Instrument #	1
Line #	1
# of Detectors	3
Detector ID	DET#1	DET#2	DET#3
Detector Name	FID	PTCD	ECD
# of Channels	1	1	1

[Peak Table(Ch1)]
# of Peaks	3
Peak#	R.Time	I.Time	F.Time	Area	Height	A/H	Conc.	Mark	ID#	Name	k'	Plate #	Plate Ht.	Tailing	Resolution	Sep.Factor	Area Ratio	Height Ratio	Conc. %	Norm Conc.
1	1.476	1.439	1.538	25400	12540	2.025	179.323	   	1	CO	0.000	9657	15.533	1.269	0.000	0.000	0	0	18.672	18.672
2	1.571	1.538	1.615	3958	2097	1.888	76.538	   	2	CH4	0.065	12283	12.212	1.106	1.633	0.000	0	0	7.969	7.969
3	1.996	1.949	2.396	2807230	1345903	2.086	704.539	   	3	CO2	0.353	17383	8.629	1.331	7.254	5.462	0	0	73.359	73.359

[Peak Table(Ch2)]
# of Peaks	0

[Peak Table(Ch3)]
# of Peaks	5
Peak#	R.Time	I.Time	F.Time	Area	Height	A/H	Conc.	Mark	ID#	Name	k'	Plate #	Plate Ht.	Tailing	Resolution	Sep.Factor	Area Ratio	Height Ratio	Conc. %	Norm Conc.
1	2.462	2.334	2.510	1868	597	3.132	0.000	   			0.000	10016	14.976	0.000	0.000	0.000	0	0	0.000	0.000
2	2.528	2.510	2.579	1003	335	2.994	0.000	 V 			0.027	6066	24.728	0.000	0.578	0.000	0	0	0.000	0.000
3	2.598	2.579	2.678	551	159	3.453	0.000	 V 			0.055	1218	123.185	0.000	0.326	2.056	0	0	0.000	0.000
4	2.880	2.799	3.030	17249	4624	3.730	0.441	   	1	N2O	0.170	13396	11.198	1.496	1.421	3.081	0	0	100.000	100.000
5	3.353	3.155	3.877	14590	561	26.005	0.000	   	2	SF6	0.362	382	392.688	1.791	1.204	2.132	0	0	0.000	0.000

[Compound Results(Ch1)]
# of IDs	6
ID#	Name	R.Time	Area	Height	Conc.	Curve	3rd	2nd	1st	Constant	Area Ratio	Height Ratio	Conc. %	Norm Conc.
1	CO	1.476	25400	12540	179.323	Linear	0.000000e+00	0.000000e+00	1.416423e+002	0.000000e+00	0	0	18.672	18.672
2	CH4	1.571	3958	2097	76.538	Linear	0.000000e+00	0.000000e+00	5.171738e+001	0.000000e+00	0	0	7.969	7.969
3	CO2	1.996	2807230	1345903	704.539	Linear	0.000000e+00	0.000000e+00	3.984494e+003	0.000000e+00	0	0	73.359	73.359
4	Ethylene	0.000	0	0	0.000	Linear	0.000000e+00	0.000000e+00	0.000000e+00	0.000000e+00	0	0	0.000	0.000
5	Acetylene	0.000	0	0	0.000	Linear	0.000000e+00	0.000000e+00	0.000000e+00	0.000000e+00	0	0	0.000	0.000
6	Ethane	0.000	0	0	0.000	Linear	0.000000e+00	0.000000e+00	0.000000e+00	0.000000e+00	0	0	0.000	0.000

[Compound Results(Ch2)]
# of IDs	5
ID#	Name	R.Time	Area	Height	Conc.	Curve	3rd	2nd	1st	Constant	Area Ratio	Height Ratio	Conc. %	Norm Conc.
1	Hydrogen	0.000	0	0	0.000	Linear	0.000000e+00	0.000000e+00	0.000000e+00	0.000000e+00	0	0	0.000	0.000
2	Oxygen	0.000	0	0	0.000	Linear	0.000000e+00	0.000000e+00	0.000000e+00	0.000000e+00	0	0	0.000	0.000
3	Nitrogen	0.000	0	0	0.000	Linear	0.000000e+00	0.000000e+00	0.000000e+00	0.000000e+00	0	0	0.000	0.000
4	Methane	0.000	0	0	0.000	Linear	0.000000e+00	0.000000e+00	0.000000e+00	0.000000e+00	0	0	0.000	0.000
5	Carbon Monoxide	0.000	0	0	0.000	Linear	0.000000e+00	0.000000e+00	0.000000e+00	0.000000e+00	0	0	0.000	0.000

[Compound Results(Ch3)]
# of IDs	2
ID#	Name	R.Time	Area	Height	Conc.	Curve	3rd	2nd	1st	Constant	Area Ratio	Height Ratio	Conc. %	Norm Conc.
1	N2O	2.880	17249	4624	0.441	Linear	0.000000e+00	0.000000e+00	3.915173e+004	0.000000e+00	0	0	100.000	100.000
2	SF6	3.353	14590	561	0.000	Linear	0.000000e+00	0.000000e+00	0.000000e+00	0.000000e+00	0	0	0.000	0.000

[Group Results(Ch1)]
# of Groups	0

[Group Results(Ch2)]
# of Groups	0

[Group Results(Ch3)]
# of Groups	0

[Chromatogram (Ch1)]
Interval(msec)	220
# of Points	1091
Start Time(min)	0.002
End Time(min)	3.998
R.Time (min)	Intensity
0.00167	-18
0.00533	-21
0.00900	-19
0.01267	-19
0.01633	-21
0.02000	-15
0.02367	-9
0.02733	-13
0.03100	-19
0.03467	-23
0.03833	-20
0.04200	-19
0.04567	-18
0.04933	-17
0.05300	-15
0.05667	-11
0.06033	-6
0.06400	-1
0.06767	3
0.07133	8
0.07500	20
0.07867	30
0.08233	33
0.08600	31
0.08967	26
0.09333	18
0.09700	12
0.10067	12
0.10433	16
0.10800	15
0.11167	10
0.11533	8
0.11900	5
0.12267	4
0.12633	-0
0.13000	-1
0.13367	2
0.13733	7
0.14100	12
0.14467	14
0.14833	13
0.15200	17
0.15567	20
0.15933	23
0.16300	23
0.16667	21
0.17033	13
0.17400	7
0.17767	4
0.18133	2
0.18500	3
0.18867	6
0.19233	12
0.19600	23
0.19967	28
0.20333	25
0.20700	17
0.21067	7
0.21433	0
0.21800	-7
0.22167	-14
0.22533	-15
0.22900	-12
0.23267	-10
0.23633	-11
0.24000	-9
0.24367	-7
0.24733	-7
0.25100	-9
0.25467	-11
0.25833	-9
0.26200	-8
0.26567	-12
0.26933	-20
0.27300	-17
0.27667	-12
0.28033	-11
0.28400	-11
0.28767	-8
0.29133	-7
0.29500	-7
0.29867	-6
0.30233	-6
0.30600	-6
0.30967	-13
0.31333	-24
0.31700	-32
0.32067	-35
0.32433	-36
0.32800	-32
0.33167	-27
0.33533	-19
0.33900	-8
0.34267	-1
0.34633	2
0.35000	-0
0.35367	-7
0.35733	-7
0.36100	-3
0.36467	12
0.36833	24
0.37200	22
0.37567	15
0.37933	8
0.38300	5
0.38667	3
0.39033	-4
0.39400	-10
0.39767	-12
0.40133	-12
0.40500	-12
0.40867	-11
0.41233	-9
0.41600	-7
0.41967	1
0.42333	14
0.42700	24
0.43067	24
0.43433	15
0.43800	4
0.44167	-9
0.44533	-15
0.44900	-13
0.45267	-14
0.45633	-21
0.46000	-29
0.46367	-32
0.46733	-32
0.47100	-31
0.47467	-27
0.47833	-20
0.48200	-8
0.48567	-1
0.48933	-4
0.49300	-10
0.49667	-13
0.50033	-15
0.50400	-19
0.50767	-20
0.51133	-24
0.51500	-31
0.51867	-34
0.52233	-34
0.52600	-31
0.52967	-21
0.53333	-8
0.53700	0
0.54067	1
0.54433	-1
0.54800	-5
0.55167	-9
0.55533	-16
0.55900	-23
0.56267	-30
0.56633	-31
0.57000	-24
0.57367	-15
0.57733	-8
0.58100	-3
0.58467	-5
0.58833	-2
0.59200	4
0.59567	4
0.59933	2
0.60300	-2
0.60667	-3
0.61033	-5
0.61400	-9
0.61767	-10
0.62133	-6
0.62500	-5
0.62867	-2
0.63233	3
0.63600	8
0.63967	13
0.64333	19
0.64700	22
0.65067	19
0.65433	15
0.65800	9
0.66167	7
0.66533	2
0.66900	1
0.67267	5
0.67633	9
0.68000	10
0.68367	11
0.68733	3
0.69100	-8
0.69467	-10
0.69833	-8
0.70200	-8
0.70567	-10
0.70933	-12
0.71300	-12
0.71667	-10
0.72033	-7
0.72400	-7
0.72767	-5
0.73133	0
0.73500	11
0.73867	27
0.74233	39
0.74600	41
0.74967	38
0.75333	37
0.75700	33
0.76067	30
0.76433	31
0.76800	38
0.77167	46
0.77533	52
0.77900	53
0.78267	51
0.78633	49
0.79000	45
0.79367	40
0.79733	35
0.80100	31
0.80467	28
0.80833	29
0.81200	32
0.81567	35
0.81933	37
0.82300	44
0.82667	46
0.83033	43
0.83400	39
0.83767	39
0.84133	44
0.84500	47
0.84867	52
0.85233	53
0.85600	50
0.85967	43
0.86333	34
0.86700	33
0.87067	38
0.87433	43
0.87800	45
0.88167	43
0.88533	39
0.88900	35
0.89267	31
0.89633	28
0.90000	31
0.90367	40
0.90733	46
0.91100	49
0.91467	46
0.91833	38
0.92200	32
0.92567	29
0.92933	29
0.93300	33
0.93667	44
0.94033	42
0.94400	34
0.94767	27
0.95133	24
0.95500	23
0.95867	21
0.96233	18
0.96600	18
0.96967	22
0.97333	32
0.97700	41
0.98067	41
0.98433	35
0.98800	31
0.99167	33
0.99533	34
0.99900	31
1.00267	26
1.00633	21
1.01000	14
1.01367	7
1.01733	7
1.02100	14
1.02467	19
1.02833	26
1.03200	29
1.03567	31
1.03933	36
1.04300	38
1.04667	32
1.05033	29
1.05400	30
1.05767	24
1.06133	11
1.06500	0
1.06867	-1
1.07233	3
1.07600	8
1.07967	13
1.08333	18
1.08700	18
1.09067	15
1.09433	17
1.09800	19
1.10167	14
1.10533	9
1.10900	9
1.11267	17
1.11633	25
1.12000	25
1.12367	17
1.12733	9
1.13100	-0
1.13467	-2
1.13833	0
1.14200	4
1.14567	3
1.14933	-1
1.15300	-6
1.15667	-9
1.16033	-9
1.16400	-3
1.16767	2
1.17133	3
1.17500	7
1.17867	12
1.18233	13
1.18600	13
1.18967	14
1.19333	15
1.19700	17
1.20067	16
1.20433	13
1.20800	5
1.21167	-7
1.21533	-15
1.21900	-18
1.22267	-14
1.22633	-7
1.23000	3
1.23367	15
1.23733	22
1.24100	23
1.24467	20
1.24833	14
1.25200	12
1.25567	11
1.25933	10
1.26300	7
1.26667	4
1.27033	-1
1.27400	-5
1.27767	-8
1.28133	-12
1.28500	-13
1.28867	-12
1.29233	-9
1.29600	-13
1.29967	-16
1.30333	-20
1.30700	-24
1.31067	-23
1.31433	-19
1.31800	-16
1.32167	-10
1.32533	-10
1.32900	-11
1.33267	-7
1.33633	-2
1.34000	-0
1.34367	7
1.34733	14
1.35100	17
1.35467	19
1.35833	20
1.36200	22
1.36567	21
1.36933	15
1.37300	12
1.37667	8
1.38033	1
1.38400	-9
1.38767	-20
1.39133	-34
1.39500	-37
1.39867	-34
1.40233	-33
1.40600	-33
1.40967	-33
1.41333	-32
1.41700	-31
1.42067	-31
1.42433	-29
1.42800	-27
1.43167	-25
1.43533	-23
1.43900	-17
1.44267	27
1.44633	172
1.45000	585
1.45367	1637
1.45733	3552
1.46100	6004
1.46467	8423
1.46833	10421
1.47200	11823
1.47567	12518
1.47933	12383
1.48300	11403
1.48667	9764
1.49033	7812
1.49400	5892
1.49767	4240
1.50133	2946
1.50500	1987
1.50867	1305
1.51233	833
1.51600	514
1.51967	304
1.52333	169
1.52700	80
1.53067	26
1.53433	-10
1.53800	-32
1.54167	-9
1.54533	119
1.54900	393
1.55267	784
1.55633	1205
1.56000	1577
1.56367	1861
1.56733	2034
1.57100	2061
1.57467	1921
1.57833	1642
1.58200	1291
1.58567	937
1.58933	632
1.59300	399
1.59667	237
1.60033	128
1.60400	61
1.60767	11
1.61133	-25
1.61500	-41
1.61867	-45
1.62233	-46
1.62600	-47
1.62967	-53
1.63333	-59
1.63700	-61
1.64067	-59
1.64433	-60
1.64800	-65
1.65167	-70
1.65533	-78
1.65900	-85
1.66267	-91
1.66633	-91
1.67000	-87
1.67367	-84
1.67733	-79
1.68100	-72
1.68467	-66
1.68833	-64
1.69200	-61
1.69567	-57
1.69933	-54
1.70300	-52
1.70667	-51
1.71033	-49
1.71400	-46
1.71767	-45
1.72133	-51
1.72500	-60
1.72867	-64
1.73233	-63
1.73600	-63
1.73967	-69
1.74333	-80
1.74700	-82
1.75067	-74
1.75433	-64
1.75800	-56
1.76167	-54
1.76533	-57
1.76900	-56
1.77267	-53
1.77633	-44
1.78000	-38
1.78367	-37
1.78733	-39
1.79100	-43
1.79467	-45
1.79833	-45
1.80200	-48
1.80567	-49
1.80933	-45
1.81300	-34
1.81667	-22
1.82033	-16
1.82400	-13
1.82767	-17
1.83133	-26
1.83500	-37
1.83867	-46
1.84233	-50
1.84600	-48
1.84967	-48
1.85333	-50
1.85700	-54
1.86067	-54
1.86433	-44
1.86800	-30
1.87167	-22
1.87533	-23
1.87900	-29
1.88267	-35
1.88633	-40
1.89000	-45
1.89367	-52
1.89733	-52
1.90100	-46
1.90467	-41
1.90833	-38
1.91200	-35
1.91567	-32
1.91933	-29
1.92300	-25
1.92667	-19
1.93033	-11
1.93400	-5
1.93767	1
1.94133	3
1.94500	6
1.94867	9
1.95233	26
1.95600	151
1.95967	1007
1.96333	5322
1.96700	21596
1.97067	68484
1.97433	172191
1.97800	349525
1.98167	588737
1.98533	850465
1.98900	1087124
1.99267	1260211
1.99633	1345943
2.00000	1335600
2.00367	1237473
2.00733	1074724
2.01100	879076
2.01467	681999
2.01833	506504
2.02200	363861
2.02567	255457
2.02933	176964
2.03300	122012
2.03667	84382
2.04033	58945
2.04400	41839
2.04767	30329
2.05133	22535
2.05500	17192
2.05867	13463
2.06233	10813
2.06600	8893
2.06967	7473
2.07333	6396
2.07700	5559
2.08067	4892
2.08433	4349
2.08800	3903
2.09167	3539
2.09533	3231
2.09900	2962
2.10267	2726
2.10633	2519
2.11000	2334
2.11367	2171
2.11733	2027
2.12100	1905
2.12467	1805
2.12833	1723
2.13200	1648
2.13567	1571
2.13933	1493
2.14300	1415
2.14667	1342
2.15033	1275
2.15400	1214
2.15767	1156
2.16133	1104
2.16500	1055
2.16867	1014
2.17233	978
2.17600	946
2.17967	916
2.18333	888
2.18700	860
2.19067	829
2.19433	802
2.19800	779
2.20167	758
2.20533	736
2.20900	714
2.21267	698
2.21633	683
2.22000	668
2.22367	650
2.22733	640
2.23100	632
2.23467	616
2.23833	597
2.24200	576
2.24567	553
2.24933	534
2.25300	521
2.25667	515
2.26033	509
2.26400	503
2.26767	494
2.27133	486
2.27500	479
2.27867	472
2.28233	463
2.28600	450
2.28967	435
2.29333	420
2.29700	408
2.30067	401
2.30433	396
2.30800	393
2.31167	389
2.31533	387
2.31900	387
2.32267	392
2.32633	399
2.33000	399
2.33367	392
2.33733	383
2.34100	374
2.34467	364
2.34833	353
2.35200	345
2.35567	338
2.35933	343
2.36300	350
2.36667	347
2.37033	339
2.37400	329
2.37767	325
2.38133	323
2.38500	316
2.38867	306
2.39233	299
2.39600	290
2.39967	280
2.40333	277
2.40700	285
2.41067	294
2.41433	302
2.41800	310
2.42167	311
2.42533	302
2.42900	292
2.43267	285
2.43633	279
2.44000	274
2.44367	271
2.44733	275
2.45100	282
2.45467	282
2.45833	278
2.46200	272
2.46567	266
2.46933	255
2.47300	244
2.47667	243
2.48033	248
2.48400	252
2.48767	248
2.49133	243
2.49500	237
2.49867	235
2.50233	237
2.50600	238
2.50967	241
2.51333	244
2.51700	249
2.52067	250
2.52433	249
2.52800	250
2.53167	253
2.53533	254
2.53900	255
2.54267	258
2.54633	261
2.55000	263
2.55367	260
2.55733	244
2.56100	220
2.56467	202
2.56833	196
2.57200	193
2.57567	193
2.57933	195
2.58300	195
2.58667	196
2.59033	195
2.59400	193
2.59767	194
2.60133	198
2.60500	201
2.60867	204
2.61233	206
2.61600	208
2.61967	214
2.62333	221
2.62700	225
2.63067	225
2.63433	218
2.63800	209
2.64167	204
2.64533	196
2.64900	187
2.65267	183
2.65633	184
2.66000	184
2.66367	183
2.66733	180
2.67100	177
2.67467	178
2.67833	184
2.68200	192
2.68567	193
2.68933	194
2.69300	195
2.69667	192
2.70033	191
2.70400	196
2.70767	198
2.71133	195
2.71500	187
2.71867	176
2.72233	172
2.72600	175
2.72967	175
2.73333	176
2.73700	178
2.74067	181
2.74433	187
2.74800	194
2.75167	196
2.75533	193
2.75900	190
2.76267	187
2.76633	184
2.77000	186
2.77367	190
2.77733	191
2.78100	191
2.78467	190
2.78833	192
2.79200	194
2.79567	196
2.79933	198
2.80300	200
2.80667	200
2.81033	199
2.81400	207
2.81767	212
2.82133	210
2.82500	200
2.82867	185
2.83233	175
2.83600	171
2.83967	173
2.84333	175
2.84700	178
2.85067	184
2.85433	189
2.85800	193
2.86167	199
2.86533	204
2.86900	207
2.87267	206
2.87633	201
2.88000	193
2.88367	184
2.88733	180
2.89100	172
2.89467	170
2.89833	182
2.90200	190
2.90567	191
2.90933	201
2.91300	201
2.91667	200
2.92033	197
2.92400	190
2.92767	183
2.93133	177
2.93500	174
2.93867	169
2.94233	166
2.94600	173
2.94967	177
2.95333	178
2.95700	180
2.96067	182
2.96433	183
2.96800	184
2.97167	184
2.97533	185
2.97900	183
2.98267	180
2.98633	170
2.99000	177
2.99367	180
2.99733	177
3.00100	174
3.00467	176
3.00833	178
3.01200	180
3.01567	182
3.01933	177
3.02300	170
3.02667	171
3.03033	181
3.03400	190
3.03767	194
3.04133	201
3.04500	205
3.04867	208
3.05233	210
3.05600	209
3.05967	210
3.06333	214
3.06700	210
3.07067	197
3.07433	182
3.07800	169
3.08167	162
3.08533	159
3.08900	160
3.09267	161
3.09633	163
3.10000	164
3.10367	166
3.10733	170
3.11100	169
3.11467	166
3.11833	168
3.12200	173
3.12567	180
3.12933	183
3.13300	182
3.13667	179
3.14033	177
3.14400	181
3.14767	179
3.15133	175
3.15500	172
3.15867	173
3.16233	178
3.16600	185
3.16967	185
3.17333	179
3.17700	175
3.18067	174
3.18433	171
3.18800	168
3.19167	162
3.19533	166
3.19900	179
3.20267	188
3.20633	195
3.21000	193
3.21367	185
3.21733	177
3.22100	175
3.22467	176
3.22833	172
3.23200	167
3.23567	163
3.23933	161
3.24300	161
3.24667	161
3.25033	159
3.25400	159
3.25767	159
3.26133	163
3.26500	166
3.26867	164
3.27233	160
3.27600	156
3.27967	155
3.28333	156
3.28700	158
3.29067	160
3.29433	166
3.29800	173
3.30167	176
3.30533	172
3.30900	169
3.31267	173
3.31633	177
3.32000	180
3.32367	178
3.32733	177
3.33100	175
3.33467	173
3.33833	175
3.34200	178
3.34567	184
3.34933	192
3.35300	196
3.35667	190
3.36033	184
3.36400	183
3.36767	181
3.37133	176
3.37500	177
3.37867	176
3.38233	173
3.38600	168
3.38967	164
3.39333	158
3.39700	151
3.40067	144
3.40433	134
3.40800	129
3.41167	130
3.41533	135
3.41900	139
3.42267	142
3.42633	144
3.43000	145
3.43367	144
3.43733	143
3.44100	146
3.44467	147
3.44833	147
3.45200	149
3.45567	151
3.45933	147
3.46300	145
3.46667	145
3.47033	143
3.47400	145
3.47767	146
3.48133	144
3.48500	148
3.48867	152
3.49233	154
3.49600	151
3.49967	154
3.50333	155
3.50700	154
3.51067	153
3.51433	151
3.51800	147
3.52167	142
3.52533	142
3.52900	148
3.53267	155
3.53633	161
3.54000	161
3.54367	152
3.54733	139
3.55100	126
3.55467	119
3.55833	115
3.56200	114
3.56567	117
3.56933	124
3.57300	132
3.57667	140
3.58033	144
3.58400	148
3.58767	156
3.59133	163
3.59500	168
3.59867	161
3.60233	148
3.60600	141
3.60967	140
3.61333	137
3.61700	132
3.62067	128
3.62433	125
3.62800	122
3.63167	119
3.63533	116
3.63900	114
3.64267	118
3.64633	124
3.65000	131
3.65367	130
3.65733	127
3.66100	123
3.66467	116
3.66833	108
3.67200	102
3.67567	105
3.67933	114
3.68300	115
3.68667	110
3.69033	108
3.69400	114
3.69767	126
3.70133	134
3.70500	134
3.70867	133
3.71233	132
3.71600	125
3.71967	115
3.72333	108
3.72700	106
3.73067	111
3.73433	111
3.73800	105
3.74167	101
3.74533	100
3.74900	100
3.75267	103
3.75633	113
3.76000	123
3.76367	130
3.76733	135
3.77100	139
3.77467	129
3.77833	108
3.78200	90
3.78567	73
3.78933	67
3.79300	67
3.79667	71
3.80033	76
3.80400	79
3.80767	79
3.81133	79
3.81500	82
3.81867	82
3.82233	81
3.82600	82
3.82967	87
3.83333	95
3.83700	104
3.84067	110
3.84433	110
3.84800	107
3.85167	105
3.85533	103
3.85900	102
3.86267	104
3.86633	105
3.87000	104
3.87367	96
3.87733	87
3.88100	80
3.88467	72
3.88833	69
3.89200	71
3.89567	77
3.89933	87
3.90300	96
3.90667	105
3.91033	109
3.91400	109
3.91767	107
3.92133	107
3.92500	110
3.92867	113
3.93233	112
3.93600	108
3.93967	102
3.94333	95
3.94700	91
3.95067	91
3.95433	89
3.95800	85
3.96167	87
3.96533	91
3.96900	93
3.97267	93
3.97633	97
3.98000	98
3.98367	95
3.98733	94
3.99100	93
3.99467	94
3.99833	94

[Chromatogram (Ch2)]
Interval(msec)	220
# of Points	1091
Start Time(min)	0.002
End Time(min)	3.998
R.Time (min)	Intensity
0.00167	-1
0.00533	-2
0.00900	-2
0.01267	-3
0.01633	-3
0.02000	-3
0.02367	-3
0.02733	-3
0.03100	-3
0.03467	-2
0.03833	-2
0.04200	-2
0.04567	-2
0.04933	-2
0.05300	-2
0.05667	-2
0.06033	-2
0.06400	-2
0.06767	-3
0.07133	-3
0.07500	-3
0.07867	-3
0.08233	-3
0.08600	-2
0.08967	-2
0.09333	-2
0.09700	-1
0.10067	-0
0.10433	0
0.10800	1
0.11167	1
0.11533	1
0.11900	1
0.12267	1
0.12633	1
0.13000	1
0.13367	0
0.13733	-0
0.14100	-0
0.14467	-0
0.14833	-1
0.15200	-1
0.15567	-1
0.15933	-1
0.16300	-1
0.16667	-1
0.17033	-1
0.17400	-1
0.17767	-1
0.18133	-1
0.18500	-1
0.18867	-1
0.19233	-1
0.19600	-1
0.19967	-1
0.20333	-1
0.20700	-1
0.21067	-0
0.21433	-0
0.21800	-0
0.22167	-0
0.22533	-0
0.22900	-0
0.23267	0
0.23633	0
0.24000	0
0.24367	0
0.24733	0
0.25100	0
0.25467	0
0.25833	1
0.26200	1
0.26567	0
0.26933	0
0.27300	0
0.27667	0
0.28033	0
0.28400	-0
0.28767	-0
0.29133	-1
0.29500	-1
0.29867	-1
0.30233	-2
0.30600	-2
0.30967	-2
0.31333	-2
0.31700	-3
0.32067	-3
0.32433	-3
0.32800	-2
0.33167	-2
0.33533	-2
0.33900	-2
0.34267	-2
0.34633	-2
0.35000	-2
0.35367	-2
0.35733	-2
0.36100	-2
0.36467	-1
0.36833	-1
0.37200	-1
0.37567	-1
0.37933	-1
0.38300	-1
0.38667	-1
0.39033	-1
0.39400	-1
0.39767	-1
0.40133	-1
0.40500	-1
0.40867	-1
0.41233	-1
0.41600	-1
0.41967	-1
0.42333	-2
0.42700	-2
0.43067	-2
0.43433	-2
0.43800	-2
0.44167	-2
0.44533	-2
0.44900	-2
0.45267	-2
0.45633	-2
0.46000	-2
0.46367	-2
0.46733	-2
0.47100	-2
0.47467	-1
0.47833	-1
0.48200	-1
0.48567	-1
0.48933	-1
0.49300	-1
0.49667	-1
0.50033	-1
0.50400	-1
0.50767	-1
0.51133	-1
0.51500	-1
0.51867	-1
0.52233	-1
0.52600	-1
0.52967	-1
0.53333	-0
0.53700	-0
0.54067	-1
0.54433	-0
0.54800	-1
0.55167	-1
0.55533	-1
0.55900	-1
0.56267	-1
0.56633	-0
0.57000	-0
0.57367	-1
0.57733	-1
0.58100	-1
0.58467	-1
0.58833	-1
0.59200	-1
0.59567	-1
0.59933	-1
0.60300	-1
0.60667	-1
0.61033	-0
0.61400	-0
0.61767	-0
0.62133	-0
0.62500	-0
0.62867	-0
0.63233	-0
0.63600	-1
0.63967	-1
0.64333	-1
0.64700	-0
0.65067	-0
0.65433	-0
0.65800	-0
0.66167	-0
0.66533	-0
0.66900	-0
0.67267	-0
0.67633	0
0.68000	-0
0.68367	-0
0.68733	-0
0.69100	-1
0.69467	-1
0.69833	-1
0.70200	-1
0.70567	-0
0.70933	-0
0.71300	-0
0.71667	0
0.72033	0
0.72400	1
0.72767	0
0.73133	0
0.73500	0
0.73867	-0
0.74233	-1
0.74600	-1
0.74967	-1
0.75333	-2
0.75700	-2
0.76067	-2
0.76433	-3
0.76800	-3
0.77167	-3
0.77533	-3
0.77900	-4
0.78267	-4
0.78633	-4
0.79000	-4
0.79367	-4
0.79733	-4
0.80100	-4
0.80467	-4
0.80833	-4
0.81200	-3
0.81567	-3
0.81933	-3
0.82300	-3
0.82667	-3
0.83033	-3
0.83400	-3
0.83767	-3
0.84133	-3
0.84500	-3
0.84867	-3
0.85233	-3
0.85600	-3
0.85967	-2
0.86333	-2
0.86700	-2
0.87067	-2
0.87433	-2
0.87800	-2
0.88167	-2
0.88533	-2
0.88900	-2
0.89267	-2
0.89633	-2
0.90000	-2
0.90367	-2
0.90733	-1
0.91100	-1
0.91467	-0
0.91833	-0
0.92200	-0
0.92567	-0
0.92933	-1
0.93300	-1
0.93667	-2
0.94033	-2
0.94400	-3
0.94767	-3
0.95133	-3
0.95500	-4
0.95867	-4
0.96233	-4
0.96600	-4
0.96967	-4
0.97333	-4
0.97700	-4
0.98067	-3
0.98433	-3
0.98800	-3
0.99167	-3
0.99533	-3
0.99900	-4
1.00267	-4
1.00633	-4
1.01000	-4
1.01367	-4
1.01733	-4
1.02100	-5
1.02467	-5
1.02833	-5
1.03200	-5
1.03567	-4
1.03933	-4
1.04300	-4
1.04667	-4
1.05033	-4
1.05400	-4
1.05767	-4
1.06133	-4
1.06500	-4
1.06867	-3
1.07233	-3
1.07600	-3
1.07967	-2
1.08333	-2
1.08700	-2
1.09067	-2
1.09433	-2
1.09800	-2
1.10167	-2
1.10533	-2
1.10900	-1
1.11267	-1
1.11633	-1
1.12000	-1
1.12367	-0
1.12733	-0
1.13100	-0
1.13467	-0
1.13833	-0
1.14200	-0
1.14567	-0
1.14933	-1
1.15300	-1
1.15667	-2
1.16033	-2
1.16400	-2
1.16767	-2
1.17133	-2
1.17500	-2
1.17867	-2
1.18233	-2
1.18600	-2
1.18967	-2
1.19333	-2
1.19700	-2
1.20067	-2
1.20433	-1
1.20800	-1
1.21167	-0
1.21533	0
1.21900	1
1.22267	1
1.22633	1
1.23000	1
1.23367	0
1.23733	0
1.24100	-0
1.24467	-1
1.24833	-1
1.25200	-1
1.25567	-2
1.25933	-2
1.26300	-2
1.26667	-3
1.27033	-3
1.27400	-3
1.27767	-4
1.28133	-4
1.28500	-4
1.28867	-4
1.29233	-4
1.29600	-4
1.29967	-4
1.30333	-4
1.30700	-4
1.31067	-4
1.31433	-4
1.31800	-4
1.32167	-4
1.32533	-3
1.32900	-3
1.33267	-3
1.33633	-3
1.34000	-3
1.34367	-2
1.34733	-2
1.35100	-2
1.35467	-2
1.35833	-1
1.36200	-1
1.36567	-1
1.36933	-0
1.37300	-0
1.37667	-1
1.38033	-1
1.38400	-1
1.38767	-2
1.39133	-2
1.39500	-2
1.39867	-3
1.40233	-3
1.40600	-3
1.40967	-3
1.41333	-3
1.41700	-3
1.42067	-4
1.42433	-4
1.42800	-4
1.43167	-4
1.43533	-3
1.43900	-3
1.44267	-3
1.44633	-2
1.45000	-2
1.45367	-2
1.45733	-2
1.46100	-2
1.46467	-2
1.46833	-2
1.47200	-3
1.47567	-3
1.47933	-3
1.48300	-3
1.48667	-3
1.49033	-3
1.49400	-3
1.49767	-3
1.50133	-3
1.50500	-3
1.50867	-3
1.51233	-3
1.51600	-3
1.51967	-3
1.52333	-2
1.52700	-3
1.53067	-2
1.53433	-2
1.53800	-2
1.54167	-2
1.54533	-2
1.54900	-2
1.55267	-2
1.55633	-2
1.56000	-2
1.56367	-2
1.56733	-2
1.57100	-2
1.57467	-2
1.57833	-2
1.58200	-2
1.58567	-3
1.58933	-3
1.59300	-4
1.59667	-5
1.60033	-6
1.60400	-7
1.60767	-9
1.61133	-11
1.61500	-13
1.61867	-16
1.62233	-19
1.62600	-22
1.62967	-25
1.63333	-29
1.63700	-32
1.64067	-36
1.64433	-40
1.64800	-44
1.65167	-47
1.65533	-51
1.65900	-55
1.66267	-58
1.66633	-62
1.67000	-66
1.67367	-70
1.67733	-74
1.68100	-79
1.68467	-83
1.68833	-87
1.69200	-91
1.69567	-94
1.69933	-97
1.70300	-100
1.70667	-102
1.71033	-103
1.71400	-104
1.71767	-105
1.72133	-105
1.72500	-105
1.72867	-105
1.73233	-105
1.73600	-105
1.73967	-105
1.74333	-106
1.74700	-107
1.75067	-107
1.75433	-109
1.75800	-110
1.76167	-111
1.76533	-112
1.76900	-113
1.77267	-113
1.77633	-113
1.78000	-113
1.78367	-112
1.78733	-112
1.79100	-113
1.79467	-113
1.79833	-114
1.80200	-115
1.80567	-116
1.80933	-117
1.81300	-117
1.81667	-118
1.82033	-118
1.82400	-117
1.82767	-117
1.83133	-116
1.83500	-115
1.83867	-113
1.84233	-112
1.84600	-111
1.84967	-110
1.85333	-110
1.85700	-110
1.86067	-110
1.86433	-110
1.86800	-110
1.87167	-111
1.87533	-111
1.87900	-112
1.88267	-112
1.88633	-113
1.89000	-113
1.89367	-114
1.89733	-114
1.90100	-114
1.90467	-113
1.90833	-113
1.91200	-112
1.91567	-111
1.91933	-110
1.92300	-109
1.92667	-109
1.93033	-109
1.93400	-109
1.93767	-109
1.94133	-110
1.94500	-110
1.94867	-110
1.95233	-110
1.95600	-110
1.95967	-110
1.96333	-110
1.96700	-110
1.97067	-110
1.97433	-110
1.97800	-109
1.98167	-109
1.98533	-108
1.98900	-107
1.99267	-107
1.99633	-107
2.00000	-106
2.00367	-107
2.00733	-107
2.01100	-107
2.01467	-107
2.01833	-107
2.02200	-107
2.02567	-107
2.02933	-107
2.03300	-107
2.03667	-106
2.04033	-106
2.04400	-105
2.04767	-105
2.05133	-104
2.05500	-104
2.05867	-104
2.06233	-103
2.06600	-103
2.06967	-103
2.07333	-102
2.07700	-102
2.08067	-102
2.08433	-102
2.08800	-102
2.09167	-102
2.09533	-102
2.09900	-101
2.10267	-101
2.10633	-100
2.11000	-100
2.11367	-99
2.11733	-98
2.12100	-98
2.12467	-97
2.12833	-96
2.13200	-95
2.13567	-95
2.13933	-94
2.14300	-95
2.14667	-95
2.15033	-95
2.15400	-95
2.15767	-95
2.16133	-95
2.16500	-95
2.16867	-95
2.17233	-95
2.17600	-95
2.17967	-95
2.18333	-94
2.18700	-93
2.19067	-93
2.19433	-92
2.19800	-92
2.20167	-92
2.20533	-91
2.20900	-91
2.21267	-91
2.21633	-91
2.22000	-91
2.22367	-91
2.22733	-91
2.23100	-90
2.23467	-89
2.23833	-88
2.24200	-87
2.24567	-86
2.24933	-86
2.25300	-86
2.25667	-86
2.26033	-87
2.26400	-88
2.26767	-89
2.27133	-90
2.27500	-90
2.27867	-90
2.28233	-89
2.28600	-88
2.28967	-87
2.29333	-86
2.29700	-86
2.30067	-85
2.30433	-85
2.30800	-84
2.31167	-84
2.31533	-84
2.31900	-84
2.32267	-84
2.32633	-84
2.33000	-84
2.33367	-83
2.33733	-82
2.34100	-81
2.34467	-81
2.34833	-80
2.35200	-79
2.35567	-78
2.35933	-77
2.36300	-75
2.36667	-73
2.37033	-71
2.37400	-67
2.37767	-64
2.38133	-60
2.38500	-55
2.38867	-51
2.39233	-47
2.39600	-42
2.39967	-38
2.40333	-34
2.40700	-29
2.41067	-26
2.41433	-22
2.41800	-19
2.42167	-16
2.42533	-13
2.42900	-11
2.43267	-10
2.43633	-9
2.44000	-8
2.44367	-7
2.44733	-7
2.45100	-7
2.45467	-6
2.45833	-6
2.46200	-6
2.46567	-5
2.46933	-5
2.47300	-4
2.47667	-3
2.48033	-2
2.48400	-0
2.48767	1
2.49133	2
2.49500	3
2.49867	4
2.50233	5
2.50600	6
2.50967	7
2.51333	8
2.51700	8
2.52067	9
2.52433	10
2.52800	10
2.53167	11
2.53533	12
2.53900	12
2.54267	13
2.54633	14
2.55000	14
2.55367	14
2.55733	13
2.56100	13
2.56467	13
2.56833	13
2.57200	13
2.57567	14
2.57933	14
2.58300	14
2.58667	15
2.59033	15
2.59400	15
2.59767	16
2.60133	16
2.60500	17
2.60867	17
2.61233	18
2.61600	18
2.61967	17
2.62333	17
2.62700	16
2.63067	15
2.63433	15
2.63800	14
2.64167	14
2.64533	14
2.64900	14
2.65267	14
2.65633	15
2.66000	15
2.66367	15
2.66733	16
2.67100	16
2.67467	17
2.67833	18
2.68200	18
2.68567	19
2.68933	19
2.69300	20
2.69667	20
2.70033	20
2.70400	21
2.70767	21
2.71133	22
2.71500	22
2.71867	23
2.72233	24
2.72600	24
2.72967	25
2.73333	25
2.73700	25
2.74067	24
2.74433	24
2.74800	24
2.75167	23
2.75533	23
2.75900	22
2.76267	22
2.76633	22
2.77000	22
2.77367	23
2.77733	23
2.78100	23
2.78467	24
2.78833	24
2.79200	24
2.79567	25
2.79933	25
2.80300	26
2.80667	26
2.81033	27
2.81400	27
2.81767	27
2.82133	28
2.82500	28
2.82867	28
2.83233	28
2.83600	28
2.83967	27
2.84333	26
2.84700	24
2.85067	21
2.85433	15
2.85800	7
2.86167	-5
2.86533	-20
2.86900	-39
2.87267	-63
2.87633	-91
2.88000	-124
2.88367	-161
2.88733	-202
2.89100	-246
2.89467	-294
2.89833	-344
2.90200	-397
2.90567	-451
2.90933	-506
2.91300	-562
2.91667	-618
2.92033	-673
2.92400	-728
2.92767	-781
2.93133	-833
2.93500	-885
2.93867	-941
2.94233	-1000
2.94600	-1054
2.94967	-1091
2.95333	-1104
2.95700	-1091
2.96067	-1055
2.96433	-999
2.96800	-929
2.97167	-852
2.97533	-771
2.97900	-691
2.98267	-613
2.98633	-540
2.99000	-473
2.99367	-412
2.99733	-356
3.00100	-307
3.00467	-263
3.00833	-225
3.01200	-191
3.01567	-162
3.01933	-137
3.02300	-116
3.02667	-97
3.03033	-81
3.03400	-67
3.03767	-55
3.04133	-45
3.04500	-36
3.04867	-29
3.05233	-23
3.05600	-18
3.05967	-14
3.06333	-10
3.06700	-7
3.07067	-4
3.07433	-2
3.07800	1
3.08167	2
3.08533	4
3.08900	5
3.09267	6
3.09633	7
3.10000	8
3.10367	9
3.10733	9
3.11100	10
3.11467	11
3.11833	11
3.12200	12
3.12567	12
3.12933	12
3.13300	13
3.13667	13
3.14033	14
3.14400	14
3.14767	14
3.15133	15
3.15500	16
3.15867	16
3.16233	16
3.16600	17
3.16967	17
3.17333	17
3.17700	17
3.18067	17
3.18433	18
3.18800	18
3.19167	18
3.19533	18
3.19900	18
3.20267	18
3.20633	19
3.21000	19
3.21367	19
3.21733	19
3.22100	19
3.22467	20
3.22833	20
3.23200	20
3.23567	20
3.23933	20
3.24300	20
3.24667	20
3.25033	20
3.25400	20
3.25767	20
3.26133	20
3.26500	20
3.26867	20
3.27233	20
3.27600	20
3.27967	20
3.28333	20
3.28700	20
3.29067	20
3.29433	20
3.29800	20
3.30167	21
3.30533	21
3.30900	21
3.31267	22
3.31633	22
3.32000	22
3.32367	22
3.32733	23
3.33100	23
3.33467	23
3.33833	23
3.34200	23
3.34567	24
3.34933	24
3.35300	24
3.35667	25
3.36033	25
3.36400	25
3.36767	25
3.37133	26
3.37500	26
3.37867	26
3.38233	26
3.38600	26
3.38967	27
3.39333	27
3.39700	27
3.40067	27
3.40433	26
3.40800	26
3.41167	26
3.41533	27
3.41900	27
3.42267	27
3.42633	27
3.43000	27
3.43367	27
3.43733	27
3.44100	27
3.44467	27
3.44833	27
3.45200	27
3.45567	27
3.45933	26
3.46300	26
3.46667	27
3.47033	27
3.47400	26
3.47767	26
3.48133	25
3.48500	25
3.48867	25
3.49233	25
3.49600	25
3.49967	24
3.50333	24
3.50700	25
3.51067	25
3.51433	25
3.51800	25
3.52167	25
3.52533	25
3.52900	25
3.53267	25
3.53633	25
3.54000	25
3.54367	25
3.54733	25
3.55100	26
3.55467	26
3.55833	26
3.56200	26
3.56567	26
3.56933	26
3.57300	25
3.57667	25
3.58033	25
3.58400	25
3.58767	25
3.59133	25
3.59500	24
3.59867	24
3.60233	24
3.60600	24
3.60967	24
3.61333	24
3.61700	24
3.62067	24
3.62433	25
3.62800	25
3.63167	25
3.63533	25
3.63900	24
3.64267	24
3.64633	24
3.65000	24
3.65367	24
3.65733	24
3.66100	24
3.66467	24
3.66833	24
3.67200	24
3.67567	24
3.67933	24
3.68300	24
3.68667	23
3.69033	23
3.69400	23
3.69767	24
3.70133	24
3.70500	24
3.70867	24
3.71233	24
3.71600	24
3.71967	25
3.72333	25
3.72700	25
3.73067	25
3.73433	25
3.73800	25
3.74167	25
3.74533	25
3.74900	24
3.75267	24
3.75633	24
3.76000	24
3.76367	23
3.76733	23
3.77100	23
3.77467	23
3.77833	23
3.78200	22
3.78567	22
3.78933	23
3.79300	23
3.79667	23
3.80033	23
3.80400	23
3.80767	24
3.81133	24
3.81500	24
3.81867	24
3.82233	24
3.82600	24
3.82967	24
3.83333	24
3.83700	24
3.84067	24
3.84433	24
3.84800	24
3.85167	24
3.85533	25
3.85900	25
3.86267	25
3.86633	25
3.87000	25
3.87367	25
3.87733	25
3.88100	25
3.88467	25
3.88833	25
3.89200	25
3.89567	25
3.89933	25
3.90300	25
3.90667	25
3.91033	25
3.91400	25
3.91767	25
3.92133	25
3.92500	25
3.92867	25
3.93233	25
3.93600	25
3.93967	25
3.94333	25
3.94700	25
3.95067	25
3.95433	25
3.95800	25
3.96167	25
3.96533	25
3.96900	25
3.97267	25
3.97633	25
3.98000	25
3.98367	25
3.98733	25
3.99100	24
3.99467	24
3.99833	24

[Chromatogram (Ch3)]
Interval(msec)	220
# of Points	1091
Start Time(min)	0.002
End Time(min)	3.998
R.Time (min)	Intensity
0.00167	1
0.00533	1
0.00900	0
0.01267	-2
0.01633	-3
0.02000	-2
0.02367	-3
0.02733	-5
0.03100	-5
0.03467	-5
0.03833	-5
0.04200	-4
0.04567	-5
0.04933	-6
0.05300	-4
0.05667	-2
0.06033	-0
0.06400	1
0.06767	3
0.07133	6
0.07500	4
0.07867	1
0.08233	0
0.08600	1
0.08967	1
0.09333	3
0.09700	2
0.10067	1
0.10433	-0
0.10800	-1
0.11167	-1
0.11533	-2
0.11900	-2
0.12267	-4
0.12633	-3
0.13000	-1
0.13367	1
0.13733	2
0.14100	2
0.14467	0
0.14833	-1
0.15200	0
0.15567	1
0.15933	0
0.16300	1
0.16667	1
0.17033	1
0.17400	1
0.17767	-2
0.18133	-3
0.18500	-1
0.18867	0
0.19233	-0
0.19600	-1
0.19967	-1
0.20333	0
0.20700	2
0.21067	3
0.21433	4
0.21800	4
0.22167	2
0.22533	-2
0.22900	-5
0.23267	-8
0.23633	-8
0.24000	-7
0.24367	-5
0.24733	-4
0.25100	-5
0.25467	-4
0.25833	-2
0.26200	-4
0.26567	-5
0.26933	-5
0.27300	-7
0.27667	-4
0.28033	-1
0.28400	1
0.28767	1
0.29133	1
0.29500	2
0.29867	0
0.30233	-2
0.30600	-3
0.30967	-3
0.31333	-5
0.31700	-7
0.32067	-5
0.32433	-4
0.32800	-4
0.33167	-6
0.33533	-7
0.33900	-6
0.34267	-4
0.34633	-2
0.35000	-0
0.35367	-1
0.35733	-1
0.36100	-2
0.36467	-5
0.36833	-5
0.37200	-2
0.37567	-2
0.37933	-1
0.38300	1
0.38667	1
0.39033	1
0.39400	1
0.39767	0
0.40133	0
0.40500	2
0.40867	3
0.41233	2
0.41600	2
0.41967	4
0.42333	4
0.42700	3
0.43067	1
0.43433	1
0.43800	1
0.44167	2
0.44533	1
0.44900	-0
0.45267	-1
0.45633	2
0.46000	3
0.46367	6
0.46733	7
0.47100	5
0.47467	2
0.47833	0
0.48200	0
0.48567	-1
0.48933	-1
0.49300	-1
0.49667	0
0.50033	1
0.50400	0
0.50767	-1
0.51133	-1
0.51500	-3
0.51867	-4
0.52233	-3
0.52600	-1
0.52967	1
0.53333	2
0.53700	-0
0.54067	0
0.54433	2
0.54800	3
0.55167	4
0.55533	4
0.55900	4
0.56267	4
0.56633	4
0.57000	3
0.57367	2
0.57733	1
0.58100	1
0.58467	2
0.58833	1
0.59200	1
0.59567	-1
0.59933	-0
0.60300	2
0.60667	4
0.61033	4
0.61400	3
0.61767	3
0.62133	4
0.62500	6
0.62867	6
0.63233	6
0.63600	6
0.63967	6
0.64333	7
0.64700	7
0.65067	7
0.65433	6
0.65800	6
0.66167	7
0.66533	6
0.66900	6
0.67267	8
0.67633	8
0.68000	8
0.68367	9
0.68733	9
0.69100	7
0.69467	6
0.69833	6
0.70200	7
0.70567	7
0.70933	6
0.71300	6
0.71667	4
0.72033	3
0.72400	2
0.72767	1
0.73133	2
0.73500	4
0.73867	6
0.74233	7
0.74600	7
0.74967	7
0.75333	5
0.75700	4
0.76067	4
0.76433	4
0.76800	6
0.77167	9
0.77533	10
0.77900	10
0.78267	9
0.78633	7
0.79000	6
0.79367	5
0.79733	5
0.80100	5
0.80467	6
0.80833	5
0.81200	4
0.81567	4
0.81933	7
0.82300	8
0.82667	7
0.83033	7
0.83400	6
0.83767	6
0.84133	8
0.84500	9
0.84867	9
0.85233	10
0.85600	8
0.85967	6
0.86333	5
0.86700	3
0.87067	3
0.87433	4
0.87800	5
0.88167	6
0.88533	8
0.88900	10
0.89267	9
0.89633	8
0.90000	8
0.90367	8
0.90733	8
0.91100	7
0.91467	8
0.91833	9
0.92200	10
0.92567	8
0.92933	7
0.93300	5
0.93667	5
0.94033	6
0.94400	9
0.94767	10
0.95133	11
0.95500	13
0.95867	13
0.96233	14
0.96600	15
0.96967	14
0.97333	12
0.97700	11
0.98067	12
0.98433	14
0.98800	17
0.99167	18
0.99533	17
0.99900	15
1.00267	11
1.00633	12
1.01000	14
1.01367	16
1.01733	16
1.02100	15
1.02467	14
1.02833	14
1.03200	15
1.03567	16
1.03933	18
1.04300	17
1.04667	15
1.05033	14
1.05400	14
1.05767	15
1.06133	15
1.06500	15
1.06867	16
1.07233	18
1.07600	19
1.07967	17
1.08333	14
1.08700	13
1.09067	12
1.09433	12
1.09800	13
1.10167	12
1.10533	9
1.10900	8
1.11267	9
1.11633	11
1.12000	13
1.12367	15
1.12733	15
1.13100	13
1.13467	12
1.13833	10
1.14200	10
1.14567	11
1.14933	12
1.15300	12
1.15667	12
1.16033	12
1.16400	13
1.16767	14
1.17133	16
1.17500	15
1.17867	14
1.18233	12
1.18600	10
1.18967	10
1.19333	12
1.19700	14
1.20067	15
1.20433	15
1.20800	14
1.21167	14
1.21533	14
1.21900	11
1.22267	11
1.22633	12
1.23000	14
1.23367	15
1.23733	15
1.24100	17
1.24467	17
1.24833	15
1.25200	12
1.25567	13
1.25933	15
1.26300	13
1.26667	11
1.27033	11
1.27400	14
1.27767	14
1.28133	11
1.28500	9
1.28867	10
1.29233	12
1.29600	13
1.29967	14
1.30333	14
1.30700	14
1.31067	14
1.31433	15
1.31800	17
1.32167	19
1.32533	20
1.32900	20
1.33267	21
1.33633	19
1.34000	17
1.34367	16
1.34733	15
1.35100	14
1.35467	12
1.35833	11
1.36200	12
1.36567	13
1.36933	15
1.37300	16
1.37667	14
1.38033	15
1.38400	15
1.38767	15
1.39133	14
1.39500	16
1.39867	19
1.40233	20
1.40600	20
1.40967	20
1.41333	19
1.41700	18
1.42067	18
1.42433	19
1.42800	18
1.43167	17
1.43533	19
1.43900	20
1.44267	20
1.44633	18
1.45000	18
1.45367	16
1.45733	15
1.46100	15
1.46467	17
1.46833	16
1.47200	16
1.47567	17
1.47933	19
1.48300	21
1.48667	22
1.49033	22
1.49400	21
1.49767	20
1.50133	21
1.50500	22
1.50867	22
1.51233	20
1.51600	21
1.51967	21
1.52333	22
1.52700	23
1.53067	22
1.53433	22
1.53800	24
1.54167	25
1.54533	23
1.54900	22
1.55267	22
1.55633	24
1.56000	25
1.56367	26
1.56733	27
1.57100	26
1.57467	25
1.57833	24
1.58200	22
1.58567	21
1.58933	23
1.59300	23
1.59667	23
1.60033	24
1.60400	24
1.60767	25
1.61133	26
1.61500	27
1.61867	28
1.62233	28
1.62600	28
1.62967	27
1.63333	28
1.63700	28
1.64067	28
1.64433	26
1.64800	26
1.65167	27
1.65533	27
1.65900	26
1.66267	28
1.66633	30
1.67000	29
1.67367	30
1.67733	31
1.68100	32
1.68467	33
1.68833	33
1.69200	31
1.69567	31
1.69933	31
1.70300	31
1.70667	32
1.71033	33
1.71400	33
1.71767	34
1.72133	36
1.72500	37
1.72867	38
1.73233	39
1.73600	41
1.73967	41
1.74333	39
1.74700	38
1.75067	38
1.75433	38
1.75800	39
1.76167	41
1.76533	41
1.76900	39
1.77267	39
1.77633	39
1.78000	39
1.78367	41
1.78733	43
1.79100	44
1.79467	45
1.79833	46
1.80200	46
1.80567	45
1.80933	47
1.81300	47
1.81667	47
1.82033	49
1.82400	50
1.82767	49
1.83133	49
1.83500	49
1.83867	50
1.84233	51
1.84600	51
1.84967	50
1.85333	50
1.85700	51
1.86067	52
1.86433	52
1.86800	52
1.87167	52
1.87533	54
1.87900	56
1.88267	58
1.88633	59
1.89000	59
1.89367	60
1.89733	63
1.90100	66
1.90467	68
1.90833	70
1.91200	71
1.91567	71
1.91933	69
1.92300	67
1.92667	68
1.93033	70
1.93400	72
1.93767	74
1.94133	77
1.94500	79
1.94867	82
1.95233	84
1.95600	85
1.95967	86
1.96333	85
1.96700	85
1.97067	86
1.97433	87
1.97800	87
1.98167	89
1.98533	90
1.98900	92
1.99267	94
1.99633	95
2.00000	93
2.00367	93
2.00733	96
2.01100	98
2.01467	100
2.01833	102
2.02200	104
2.02567	107
2.02933	110
2.03300	110
2.03667	109
2.04033	109
2.04400	111
2.04767	113
2.05133	115
2.05500	118
2.05867	121
2.06233	121
2.06600	121
2.06967	122
2.07333	121
2.07700	121
2.08067	121
2.08433	122
2.08800	123
2.09167	125
2.09533	125
2.09900	126
2.10267	129
2.10633	130
2.11000	130
2.11367	130
2.11733	132
2.12100	136
2.12467	139
2.12833	141
2.13200	143
2.13567	144
2.13933	144
2.14300	144
2.14667	145
2.15033	144
2.15400	146
2.15767	148
2.16133	149
2.16500	149
2.16867	152
2.17233	155
2.17600	157
2.17967	155
2.18333	155
2.18700	156
2.19067	158
2.19433	159
2.19800	161
2.20167	165
2.20533	167
2.20900	171
2.21267	173
2.21633	174
2.22000	174
2.22367	177
2.22733	180
2.23100	182
2.23467	184
2.23833	185
2.24200	185
2.24567	185
2.24933	186
2.25300	188
2.25667	188
2.26033	186
2.26400	185
2.26767	187
2.27133	190
2.27500	194
2.27867	197
2.28233	199
2.28600	201
2.28967	204
2.29333	206
2.29700	205
2.30067	205
2.30433	207
2.30800	210
2.31167	213
2.31533	215
2.31900	216
2.32267	216
2.32633	215
2.33000	215
2.33367	216
2.33733	215
2.34100	213
2.34467	212
2.34833	214
2.35200	218
2.35567	221
2.35933	221
2.36300	220
2.36667	218
2.37033	217
2.37400	219
2.37767	222
2.38133	225
2.38500	226
2.38867	223
2.39233	223
2.39600	224
2.39967	225
2.40333	225
2.40700	226
2.41067	227
2.41433	230
2.41800	233
2.42167	236
2.42533	236
2.42900	235
2.43267	234
2.43633	234
2.44000	237
2.44367	288
2.44733	422
2.45100	569
2.45467	687
2.45833	752
2.46200	759
2.46567	729
2.46933	692
2.47300	663
2.47667	645
2.48033	629
2.48400	603
2.48767	566
2.49133	522
2.49500	479
2.49867	446
2.50233	420
2.50600	404
2.50967	398
2.51333	405
2.51700	422
2.52067	441
2.52433	459
2.52800	470
2.53167	466
2.53533	451
2.53900	428
2.54267	400
2.54633	371
2.55000	346
2.55367	324
2.55733	304
2.56100	290
2.56467	279
2.56833	271
2.57200	266
2.57567	264
2.57933	261
2.58300	261
2.58667	261
2.59033	263
2.59400	265
2.59767	265
2.60133	262
2.60500	257
2.60867	250
2.61233	241
2.61600	231
2.61967	221
2.62333	209
2.62700	196
2.63067	185
2.63433	175
2.63800	165
2.64167	156
2.64533	145
2.64900	133
2.65267	123
2.65633	115
2.66000	106
2.66367	97
2.66733	90
2.67100	83
2.67467	76
2.67833	72
2.68200	68
2.68567	68
2.68933	69
2.69300	71
2.69667	73
2.70033	74
2.70400	75
2.70767	75
2.71133	77
2.71500	82
2.71867	86
2.72233	91
2.72600	95
2.72967	102
2.73333	108
2.73700	111
2.74067	114
2.74433	118
2.74800	119
2.75167	119
2.75533	123
2.75900	127
2.76267	129
2.76633	133
2.77000	136
2.77367	141
2.77733	146
2.78100	150
2.78467	153
2.78833	157
2.79200	161
2.79567	164
2.79933	167
2.80300	171
2.80667	176
2.81033	181
2.81400	188
2.81767	195
2.82133	206
2.82500	225
2.82867	258
2.83233	322
2.83600	437
2.83967	624
2.84333	901
2.84700	1277
2.85067	1745
2.85433	2282
2.85800	2854
2.86167	3419
2.86533	3932
2.86900	4347
2.87267	4638
2.87633	4788
2.88000	4801
2.88367	4696
2.88733	4493
2.89100	4225
2.89467	3913
2.89833	3580
2.90200	3244
2.90567	2919
2.90933	2611
2.91300	2326
2.91667	2067
2.92033	1832
2.92400	1620
2.92767	1433
2.93133	1268
2.93500	1124
2.93867	999
2.94233	888
2.94600	792
2.94967	709
2.95333	637
2.95700	576
2.96067	521
2.96433	475
2.96800	435
2.97167	402
2.97533	371
2.97900	343
2.98267	318
2.98633	298
2.99000	282
2.99367	270
2.99733	258
3.00100	246
3.00467	236
3.00833	227
3.01200	219
3.01567	211
3.01933	205
3.02300	200
3.02667	196
3.03033	195
3.03400	192
3.03767	190
3.04133	190
3.04500	190
3.04867	191
3.05233	191
3.05600	189
3.05967	188
3.06333	185
3.06700	182
3.07067	181
3.07433	180
3.07800	180
3.08167	180
3.08533	180
3.08900	180
3.09267	179
3.09633	180
3.10000	182
3.10367	185
3.10733	186
3.11100	185
3.11467	184
3.11833	184
3.12200	184
3.12567	185
3.12933	189
3.13300	192
3.13667	193
3.14033	186
3.14400	157
3.14767	124
3.15133	111
3.15500	122
3.15867	151
3.16233	191
3.16600	237
3.16967	285
3.17333	331
3.17700	374
3.18067	414
3.18433	450
3.18800	481
3.19167	507
3.19533	530
3.19900	551
3.20267	571
3.20633	589
3.21000	603
3.21367	619
3.21733	635
3.22100	645
3.22467	654
3.22833	661
3.23200	668
3.23567	677
3.23933	686
3.24300	694
3.24667	699
3.25033	706
3.25400	713
3.25767	720
3.26133	724
3.26500	730
3.26867	737
3.27233	742
3.27600	747
3.27967	752
3.28333	758
3.28700	763
3.29067	766
3.29433	770
3.29800	773
3.30167	777
3.30533	782
3.30900	787
3.31267	790
3.31633	794
3.32000	798
3.32367	800
3.32733	802
3.33100	805
3.33467	808
3.33833	809
3.34200	811
3.34567	814
3.34933	819
3.35300	822
3.35667	822
3.36033	820
3.36400	818
3.36767	817
3.37133	816
3.37500	815
3.37867	814
3.38233	812
3.38600	813
3.38967	814
3.39333	814
3.39700	811
3.40067	809
3.40433	810
3.40800	810
3.41167	808
3.41533	806
3.41900	805
3.42267	803
3.42633	802
3.43000	802
3.43367	798
3.43733	793
3.44100	791
3.44467	791
3.44833	792
3.45200	790
3.45567	788
3.45933	787
3.46300	785
3.46667	782
3.47033	780
3.47400	777
3.47767	775
3.48133	776
3.48500	777
3.48867	779
3.49233	778
3.49600	776
3.49967	776
3.50333	775
3.50700	773
3.51067	771
3.51433	771
3.51800	770
3.52167	767
3.52533	766
3.52900	765
3.53267	764
3.53633	763
3.54000	764
3.54367	764
3.54733	762
3.55100	761
3.55467	760
3.55833	757
3.56200	753
3.56567	751
3.56933	750
3.57300	750
3.57667	750
3.58033	751
3.58400	752
3.58767	751
3.59133	750
3.59500	749
3.59867	749
3.60233	748
3.60600	747
3.60967	745
3.61333	743
3.61700	741
3.62067	741
3.62433	739
3.62800	737
3.63167	737
3.63533	737
3.63900	737
3.64267	738
3.64633	736
3.65000	734
3.65367	730
3.65733	727
3.66100	726
3.66467	724
3.66833	723
3.67200	723
3.67567	723
3.67933	725
3.68300	725
3.68667	725
3.69033	723
3.69400	719
3.69767	715
3.70133	713
3.70500	712
3.70867	711
3.71233	711
3.71600	711
3.71967	710
3.72333	708
3.72700	708
3.73067	707
3.73433	703
3.73800	700
3.74167	698
3.74533	697
3.74900	694
3.75267	692
3.75633	690
3.76000	687
3.76367	688
3.76733	687
3.77100	685
3.77467	683
3.77833	681
3.78200	677
3.78567	673
3.78933	671
3.79300	670
3.79667	669
3.80033	667
3.80400	665
3.80767	665
3.81133	664
3.81500	662
3.81867	661
3.82233	658
3.82600	656
3.82967	654
3.83333	648
3.83700	646
3.84067	646
3.84433	644
3.84800	643
3.85167	642
3.85533	641
3.85900	639
3.86267	637
3.86633	637
3.87000	635
3.87367	632
3.87733	629
3.88100	627
3.88467	623
3.88833	620
3.89200	618
3.89567	618
3.89933	618
3.90300	617
3.90667	616
3.91033	616
3.91400	615
3.91767	613
3.92133	611
3.92500	609
3.92867	606
3.93233	601
3.93600	598
3.93967	597
3.94333	595
3.94700	595
3.95067	594
3.95433	592
3.95800	590
3.96167	590
3.96533	590
3.96900	588
3.97267	587
3.97633	587
3.98000	585
3.98367	584
3.98733	581
3.99100	578
3.99467	576
3.99833	573

[Status Trace (Column Oven Temperature)]
Interval(msec)	1000
# of Points	240
Start Time(min)	0.001
End Time(min)	3.985
Intensity Units	
Intensity Multiplier	1
R.Time (min)	Intensity
0.00137	35.05
0.01803	35.06
0.03470	35.05
0.05137	35.05
0.06803	35.05
0.08470	35.05
0.10137	35.05
0.11803	35.05
0.13470	35.05
0.15137	35.04
0.16803	35.05
0.18470	35.05
0.20137	35.05
0.21803	35.04
0.23470	35.04
0.25137	35.03
0.26803	35.02
0.28470	35.03
0.30137	35.03
0.31803	35.03
0.33470	35.02
0.35137	35.02
0.36803	35.03
0.38470	35.03
0.40137	35.03
0.41803	35.03
0.43470	35.04
0.45137	35.04
0.46803	35.04
0.48470	35.03
0.50137	35.03
0.51803	35.03
0.53470	35.03
0.55137	35.03
0.56803	35.03
0.58470	35.02
0.60137	35.01
0.61803	35.00
0.63470	35.01
0.65137	35.00
0.66803	35.00
0.68470	34.98
0.70137	34.98
0.71803	34.98
0.73470	34.98
0.75137	34.98
0.76803	34.99
0.78470	34.99
0.80137	35.00
0.81803	35.00
0.83470	35.02
0.85137	35.01
0.86803	35.00
0.88470	34.99
0.90137	34.97
0.91803	34.98
0.93470	34.98
0.95137	34.99
0.96803	34.99
0.98470	34.99
1.00137	35.01
1.01803	35.01
1.03470	35.02
1.05137	35.02
1.06803	35.01
1.08470	35.00
1.10137	35.00
1.11803	34.99
1.13470	35.00
1.15137	35.00
1.16803	35.01
1.18470	35.01
1.20137	34.99
1.21803	34.98
1.23470	34.98
1.25137	34.98
1.26803	34.99
1.28470	35.00
1.30137	35.00
1.31803	35.01
1.33470	35.01
1.35137	34.99
1.36803	34.98
1.38470	34.99
1.40137	34.99
1.41803	35.00
1.43470	34.99
1.45137	34.97
1.46803	34.98
1.48470	34.98
1.50137	34.99
1.51803	34.97
1.53470	34.97
1.55137	34.96
1.56803	34.96
1.58470	34.97
1.60137	35.02
1.61803	35.13
1.63470	35.31
1.65137	35.54
1.66803	35.83
1.68470	36.20
1.70137	36.56
1.71803	36.89
1.73470	37.21
1.75137	37.55
1.76803	37.88
1.78470	38.20
1.80137	38.56
1.81803	38.90
1.83470	39.18
1.85137	39.49
1.86803	39.83
1.88470	40.17
1.90137	40.50
1.91803	40.80
1.93470	41.15
1.95137	41.48
1.96803	41.80
1.98470	42.11
2.00137	42.44
2.01803	42.77
2.03470	43.10
2.05137	43.43
2.06803	43.75
2.08470	44.08
2.10137	44.42
2.11803	44.74
2.13470	45.05
2.15137	45.38
2.16803	45.72
2.18470	46.04
2.20137	46.38
2.21803	46.72
2.23470	47.03
2.25137	47.35
2.26803	47.73
2.28470	48.05
2.30137	48.39
2.31803	48.73
2.33470	49.04
2.35137	49.35
2.36803	49.55
2.38470	49.65
2.40137	49.66
2.41803	49.65
2.43470	49.67
2.45137	49.68
2.46803	49.69
2.48470	49.68
2.50137	49.70
2.51803	49.71
2.53470	49.71
2.55137	49.74
2.56803	49.77
2.58470	49.77
2.60137	49.78
2.61803	49.80
2.63470	49.83
2.65137	49.84
2.66803	49.85
2.68470	49.85
2.70137	49.86
2.71803	49.85
2.73470	49.85
2.75137	49.87
2.76803	49.89
2.78470	49.89
2.80137	49.88
2.81803	49.86
2.83470	49.86
2.85137	49.86
2.86803	49.87
2.88470	49.88
2.90137	49.91
2.91803	49.92
2.93470	49.94
2.95137	49.95
2.96803	49.97
2.98470	49.99
3.00137	49.98
3.01803	49.98
3.03470	49.97
3.05137	49.98
3.06803	50.00
3.08470	50.00
3.10137	50.02
3.11803	50.03
3.13470	50.04
3.15137	50.04
3.16803	50.04
3.18470	50.04
3.20137	50.05
3.21803	50.05
3.23470	50.07
3.25137	50.08
3.26803	50.09
3.28470	50.10
3.30137	50.10
3.31803	50.10
3.33470	50.10
3.35137	50.09
3.36803	50.08
3.38470	50.07
3.40137	50.06
3.41803	50.04
3.43470	50.03
3.45137	50.03
3.46803	50.02
3.48470	50.02
3.50137	50.03
3.51803	50.02
3.53470	50.02
3.55137	50.01
3.56803	50.02
3.58470	50.03
3.60137	50.03
3.61803	50.04
3.63470	50.04
3.65137	50.05
3.66803	50.05
3.68470	50.05
3.70137	50.05
3.71803	50.04
3.73470	50.04
3.75137	50.04
3.76803	50.06
3.78470	50.07
3.80137	50.06
3.81803	50.06
3.83470	50.07
3.85137	50.07
3.86803	50.06
3.88470	50.06
3.90137	50.05
3.91803	50.05
3.93470	50.05
3.95137	50.05
3.96803	50.05
3.98470	50.05

[Status Trace (Injection Unit Temperature)]
Interval(msec)	1000
# of Points	240
Start Time(min)	0.001
End Time(min)	3.985
Intensity Units	
Intensity Multiplier	1
R.Time (min)	Intensity
0.00137	99.98
0.01803	99.98
0.03470	99.98
0.05137	99.98
0.06803	99.98
0.08470	99.98
0.10137	99.99
0.11803	99.98
0.13470	99.98
0.15137	99.98
0.16803	99.98
0.18470	99.98
0.20137	99.98
0.21803	99.98
0.23470	99.98
0.25137	99.98
0.26803	99.98
0.28470	99.98
0.30137	99.98
0.31803	99.98
0.33470	99.98
0.35137	99.98
0.36803	99.98
0.38470	99.98
0.40137	99.99
0.41803	99.98
0.43470	99.98
0.45137	99.98
0.46803	99.98
0.48470	99.98
0.50137	99.98
0.51803	99.98
0.53470	99.98
0.55137	99.98
0.56803	99.98
0.58470	99.98
0.60137	99.98
0.61803	99.98
0.63470	99.98
0.65137	99.98
0.66803	99.97
0.68470	99.98
0.70137	99.98
0.71803	99.98
0.73470	99.98
0.75137	99.97
0.76803	99.98
0.78470	99.97
0.80137	99.98
0.81803	99.97
0.83470	99.97
0.85137	99.97
0.86803	99.97
0.88470	99.97
0.90137	99.97
0.91803	99.97
0.93470	99.97
0.95137	99.98
0.96803	99.98
0.98470	99.97
1.00137	99.97
1.01803	99.98
1.03470	99.98
1.05137	99.97
1.06803	99.98
1.08470	99.98
1.10137	99.97
1.11803	99.98
1.13470	99.98
1.15137	99.98
1.16803	99.98
1.18470	99.98
1.20137	99.98
1.21803	99.98
1.23470	99.99
1.25137	99.99
1.26803	99.99
1.28470	99.99
1.30137	99.99
1.31803	99.99
1.33470	99.99
1.35137	99.99
1.36803	99.99
1.38470	99.99
1.40137	99.99
1.41803	99.99
1.43470	99.99
1.45137	99.99
1.46803	99.99
1.48470	100.00
1.50137	99.99
1.51803	99.99
1.53470	100.00
1.55137	99.99
1.56803	99.99
1.58470	99.99
1.60137	99.99
1.61803	100.00
1.63470	99.99
1.65137	99.99
1.66803	100.00
1.68470	99.99
1.70137	99.99
1.71803	99.99
1.73470	99.99
1.75137	100.00
1.76803	99.99
1.78470	99.99
1.80137	99.99
1.81803	99.99
1.83470	99.99
1.85137	99.99
1.86803	99.98
1.88470	99.99
1.90137	99.99
1.91803	99.99
1.93470	99.99
1.95137	99.98
1.96803	99.98
1.98470	99.98
2.00137	99.98
2.01803	99.98
2.03470	99.97
2.05137	99.98
2.06803	99.98
2.08470	99.97
2.10137	99.97
2.11803	99.97
2.13470	99.97
2.15137	99.97
2.16803	99.97
2.18470	99.96
2.20137	99.97
2.21803	99.97
2.23470	99.97
2.25137	99.97
2.26803	99.97
2.28470	99.96
2.30137	99.96
2.31803	99.96
2.33470	99.96
2.35137	99.96
2.36803	99.96
2.38470	99.96
2.40137	99.97
2.41803	99.96
2.43470	99.96
2.45137	99.96
2.46803	99.96
2.48470	99.96
2.50137	99.96
2.51803	99.97
2.53470	99.97
2.55137	99.97
2.56803	99.97
2.58470	99.97
2.60137	99.97
2.61803	99.97
2.63470	99.98
2.65137	99.98
2.66803	99.98
2.68470	99.98
2.70137	99.98
2.71803	99.99
2.73470	99.99
2.75137	99.99
2.76803	99.99
2.78470	99.99
2.80137	99.99
2.81803	100.00
2.83470	100.00
2.85137	100.00
2.86803	100.00
2.88470	100.00
2.90137	100.00
2.91803	100.01
2.93470	100.01
2.95137	100.01
2.96803	100.01
2.98470	100.01
3.00137	100.01
3.01803	100.01
3.03470	100.01
3.05137	100.02
3.06803	100.02
3.08470	100.02
3.10137	100.02
3.11803	100.02
3.13470	100.02
3.15137	100.02
3.16803	100.02
3.18470	100.03
3.20137	100.02
3.21803	100.03
3.23470	100.03
3.25137	100.03
3.26803	100.03
3.28470	100.03
3.30137	100.03
3.31803	100.03
3.33470	100.03
3.35137	100.04
3.36803	100.04
3.38470	100.04
3.40137	100.04
3.41803	100.04
3.43470	100.03
3.45137	100.04
3.46803	100.04
3.48470	100.04
3.50137	100.04
3.51803	100.03
3.53470	100.04
3.55137	100.05
3.56803	100.04
3.58470	100.04
3.60137	100.04
3.61803	100.04
3.63470	100.04
3.65137	100.04
3.66803	100.04
3.68470	100.04
3.70137	100.05
3.71803	100.05
3.73470	100.04
3.75137	100.05
3.76803	100.04
3.78470	100.05
3.80137	100.05
3.81803	100.04
3.83470	100.04
3.85137	100.05
3.86803	100.04
3.88470	100.04
3.90137	100.04
3.91803	100.04
3.93470	100.05
3.95137	100.05
3.96803	100.04
3.98470	100.05

[Status Trace (Carrier Gas Pressure)]
Interval(msec)	1000
# of Points	240
Start Time(min)	0.001
End Time(min)	3.985
Intensity Units	
Intensity Multiplier	1
R.Time (min)	Intensity
0.00137	58.00
0.01803	56.56
0.03470	56.17
0.05137	58.49
0.06803	59.89
0.08470	58.34
0.10137	57.97
0.11803	58.00
0.13470	58.01
0.15137	58.01
0.16803	58.00
0.18470	58.00
0.20137	58.00
0.21803	58.00
0.23470	58.00
0.25137	58.00
0.26803	58.00
0.28470	58.00
0.30137	58.00
0.31803	58.00
0.33470	58.00
0.35137	58.00
0.36803	58.00
0.38470	58.00
0.40137	58.00
0.41803	58.00
0.43470	58.00
0.45137	58.00
0.46803	58.00
0.48470	58.00
0.50137	58.00
0.51803	58.00
0.53470	58.00
0.55137	58.00
0.56803	58.00
0.58470	58.00
0.60137	58.00
0.61803	58.00
0.63470	58.00
0.65137	58.00
0.66803	58.00
0.68470	58.00
0.70137	58.00
0.71803	58.00
0.73470	58.00
0.75137	58.00
0.76803	58.00
0.78470	58.00
0.80137	58.00
0.81803	58.00
0.83470	58.00
0.85137	58.00
0.86803	58.00
0.88470	58.00
0.90137	58.00
0.91803	58.00
0.93470	58.00
0.95137	58.00
0.96803	58.00
0.98470	58.00
1.00137	58.00
1.01803	58.00
1.03470	58.00
1.05137	58.00
1.06803	58.00
1.08470	58.00
1.10137	58.00
1.11803	58.00
1.13470	58.00
1.15137	58.00
1.16803	58.00
1.18470	58.00
1.20137	58.00
1.21803	58.00
1.23470	58.00
1.25137	58.00
1.26803	58.00
1.28470	58.00
1.30137	58.00
1.31803	58.00
1.33470	58.00
1.35137	58.00
1.36803	58.00
1.38470	58.00
1.40137	58.00
1.41803	58.00
1.43470	58.00
1.45137	58.00
1.46803	58.00
1.48470	58.00
1.50137	58.00
1.51803	58.00
1.53470	58.00
1.55137	58.00
1.56803	58.00
1.58470	58.00
1.60137	58.00
1.61803	58.00
1.63470	58.00
1.65137	58.00
1.66803	58.00
1.68470	58.01
1.70137	58.00
1.71803	58.00
1.73470	58.00
1.75137	58.00
1.76803	58.00
1.78470	58.00
1.80137	58.00
1.81803	58.00
1.83470	58.00
1.85137	58.00
1.86803	58.00
1.88470	58.00
1.90137	58.00
1.91803	58.00
1.93470	58.00
1.95137	58.00
1.96803	58.00
1.98470	58.00
2.00137	58.00
2.01803	58.00
2.03470	58.00
2.05137	58.00
2.06803	58.00
2.08470	58.00
2.10137	58.00
2.11803	58.00
2.13470	58.00
2.15137	58.00
2.16803	58.00
2.18470	58.00
2.20137	58.00
2.21803	58.00
2.23470	58.00
2.25137	58.00
2.26803	58.00
2.28470	58.00
2.30137	58.00
2.31803	58.00
2.33470	58.00
2.35137	58.00
2.36803	58.00
2.38470	57.99
2.40137	57.99
2.41803	58.00
2.43470	58.00
2.45137	58.00
2.46803	58.00
2.48470	58.00
2.50137	58.00
2.51803	57.98
2.53470	57.99
2.55137	58.00
2.56803	58.00
2.58470	58.00
2.60137	58.00
2.61803	58.00
2.63470	58.00
2.65137	58.00
2.66803	58.00
2.68470	58.00
2.70137	58.00
2.71803	58.00
2.73470	58.00
2.75137	58.00
2.76803	58.00
2.78470	58.00
2.80137	58.00
2.81803	58.00
2.83470	58.00
2.85137	58.00
2.86803	58.00
2.88470	58.00
2.90137	58.00
2.91803	58.00
2.93470	58.00
2.95137	58.00
2.96803	58.00
2.98470	58.00
3.00137	58.00
3.01803	58.00
3.03470	58.00
3.05137	58.00
3.06803	58.00
3.08470	58.00
3.10137	58.00
3.11803	58.00
3.13470	58.00
3.15137	58.00
3.16803	58.00
3.18470	58.00
3.20137	58.00
3.21803	58.00
3.23470	58.00
3.25137	58.00
3.26803	58.00
3.28470	58.00
3.30137	58.00
3.31803	58.00
3.33470	58.00
3.35137	58.00
3.36803	58.00
3.38470	58.00
3.40137	58.00
3.41803	58.00
3.43470	58.00
3.45137	58.00
3.46803	58.00
3.48470	58.00
3.50137	58.00
3.51803	58.00
3.53470	58.00
3.55137	58.00
3.56803	58.00
3.58470	58.00
3.60137	58.00
3.61803	58.00
3.63470	58.00
3.65137	58.00
3.66803	58.00
3.68470	58.00
3.70137	58.00
3.71803	58.00
3.73470	58.00
3.75137	58.00
3.76803	58.00
3.78470	58.00
3.80137	58.00
3.81803	58.00
3.83470	58.00
3.85137	58.00
3.86803	58.00
3.88470	58.00
3.90137	58.00
3.91803	58.00
3.93470	58.00
3.95137	58.00
3.96803	58.00
3.98470	58.00

[Status Trace (Carrier Gas Flow)]
Interval(msec)	1000
# of Points	240
Start Time(min)	0.001
End Time(min)	3.985
Intensity Units	
Intensity Multiplier	1
R.Time (min)	Intensity
0.00137	34.51
0.01803	34.04
0.03470	34.54
0.05137	34.55
0.06803	34.50
0.08470	34.51
0.10137	34.52
0.11803	34.52
0.13470	34.51
0.15137	34.52
0.16803	34.52
0.18470	34.51
0.20137	34.52
0.21803	34.53
0.23470	34.51
0.25137	34.52
0.26803	34.52
0.28470	34.52
0.30137	34.52
0.31803	34.52
0.33470	34.51
0.35137	34.52
0.36803	34.52
0.38470	34.52
0.40137	34.52
0.41803	34.52
0.43470	34.52
0.45137	34.52
0.46803	34.52
0.48470	34.52
0.50137	34.51
0.51803	34.52
0.53470	34.52
0.55137	34.51
0.56803	34.52
0.58470	34.53
0.60137	34.52
0.61803	34.52
0.63470	34.52
0.65137	34.53
0.66803	34.51
0.68470	34.52
0.70137	34.52
0.71803	34.53
0.73470	34.52
0.75137	34.51
0.76803	34.52
0.78470	34.52
0.80137	34.52
0.81803	34.52
0.83470	34.52
0.85137	34.51
0.86803	34.52
0.88470	34.52
0.90137	34.51
0.91803	34.52
0.93470	34.52
0.95137	34.52
0.96803	34.51
0.98470	34.52
1.00137	34.52
1.01803	34.51
1.03470	34.52
1.05137	34.52
1.06803	34.52
1.08470	34.52
1.10137	34.51
1.11803	34.53
1.13470	34.52
1.15137	34.52
1.16803	34.52
1.18470	34.52
1.20137	34.52
1.21803	34.52
1.23470	34.51
1.25137	34.52
1.26803	34.52
1.28470	34.53
1.30137	34.52
1.31803	34.52
1.33470	34.52
1.35137	34.52
1.36803	34.52
1.38470	34.52
1.40137	34.52
1.41803	34.52
1.43470	34.51
1.45137	34.52
1.46803	34.51
1.48470	34.52
1.50137	34.52
1.51803	34.51
1.53470	34.52
1.55137	34.52
1.56803	34.52
1.58470	34.52
1.60137	34.52
1.61803	34.52
1.63470	34.52
1.65137	34.52
1.66803	34.52
1.68470	34.52
1.70137	34.52
1.71803	34.52
1.73470	34.52
1.75137	34.52
1.76803	34.52
1.78470	34.52
1.80137	34.52
1.81803	34.52
1.83470	34.52
1.85137	34.52
1.86803	34.52
1.88470	34.52
1.90137	34.52
1.91803	34.52
1.93470	34.52
1.95137	34.51
1.96803	34.52
1.98470	34.51
2.00137	34.52
2.01803	34.52
2.03470	34.52
2.05137	34.51
2.06803	34.52
2.08470	34.51
2.10137	34.52
2.11803	34.52
2.13470	34.51
2.15137	34.52
2.16803	34.52
2.18470	34.52
2.20137	34.52
2.21803	34.52
2.23470	34.52
2.25137	34.52
2.26803	34.51
2.28470	34.52
2.30137	34.51
2.31803	34.52
2.33470	34.52
2.35137	34.51
2.36803	34.52
2.38470	34.53
2.40137	34.51
2.41803	34.52
2.43470	34.52
2.45137	34.52
2.46803	34.52
2.48470	34.52
2.50137	34.52
2.51803	34.52
2.53470	34.53
2.55137	34.52
2.56803	34.52
2.58470	34.52
2.60137	34.52
2.61803	34.52
2.63470	34.52
2.65137	34.53
2.66803	34.52
2.68470	34.52
2.70137	34.52
2.71803	34.51
2.73470	34.52
2.75137	34.52
2.76803	34.51
2.78470	34.52
2.80137	34.52
2.81803	34.52
2.83470	34.52
2.85137	34.51
2.86803	34.52
2.88470	34.51
2.90137	34.52
2.91803	34.52
2.93470	34.52
2.95137	34.52
2.96803	34.51
2.98470	34.51
3.00137	34.52
3.01803	34.52
3.03470	34.52
3.05137	34.51
3.06803	34.52
3.08470	34.52
3.10137	34.52
3.11803	34.52
3.13470	34.52
3.15137	34.52
3.16803	34.52
3.18470	34.52
3.20137	34.52
3.21803	34.52
3.23470	34.52
3.25137	34.51
3.26803	34.52
3.28470	34.53
3.30137	34.52
3.31803	34.52
3.33470	34.52
3.35137	34.52
3.36803	34.52
3.38470	34.53
3.40137	34.51
3.41803	34.52
3.43470	34.52
3.45137	34.53
3.46803	34.52
3.48470	34.53
3.50137	34.53
3.51803	34.52
3.53470	34.51
3.55137	34.52
3.56803	34.52
3.58470	34.52
3.60137	34.52
3.61803	34.52
3.63470	34.52
3.65137	34.52
3.66803	34.52
3.68470	34.52
3.70137	34.52
3.71803	34.52
3.73470	34.52
3.75137	34.52
3.76803	34.52
3.78470	34.52
3.80137	34.52
3.81803	34.52
3.83470	34.52
3.85137	34.52
3.86803	34.52
3.88470	34.52
3.90137	34.53
3.91803	34.52
3.93470	34.52
3.95137	34.51
3.96803	34.52
3.98470	34.52

[Status Trace (Column Flow)]
Interval(msec)	1000
# of Points	240
Start Time(min)	0.001
End Time(min)	3.985
Intensity Units	
Intensity Multiplier	1
R.Time (min)	Intensity
0.00137	5.55
0.01803	5.38
0.03470	5.34
0.05137	5.61
0.06803	5.78
0.08470	5.59
0.10137	5.55
0.11803	5.55
0.13470	5.55
0.15137	5.55
0.16803	5.55
0.18470	5.55
0.20137	5.55
0.21803	5.55
0.23470	5.55
0.25137	5.55
0.26803	5.55
0.28470	5.55
0.30137	5.55
0.31803	5.55
0.33470	5.55
0.35137	5.55
0.36803	5.55
0.38470	5.55
0.40137	5.55
0.41803	5.55
0.43470	5.55
0.45137	5.55
0.46803	5.55
0.48470	5.55
0.50137	5.55
0.51803	5.55
0.53470	5.55
0.55137	5.55
0.56803	5.55
0.58470	5.55
0.60137	5.55
0.61803	5.56
0.63470	5.56
0.65137	5.56
0.66803	5.56
0.68470	5.56
0.70137	5.56
0.71803	5.56
0.73470	5.56
0.75137	5.56
0.76803	5.56
0.78470	5.56
0.80137	5.56
0.81803	5.55
0.83470	5.55
0.85137	5.55
0.86803	5.56
0.88470	5.56
0.90137	5.56
0.91803	5.56
0.93470	5.56
0.95137	5.56
0.96803	5.56
0.98470	5.56
1.00137	5.55
1.01803	5.55
1.03470	5.55
1.05137	5.55
1.06803	5.55
1.08470	5.55
1.10137	5.55
1.11803	5.56
1.13470	5.56
1.15137	5.55
1.16803	5.55
1.18470	5.55
1.20137	5.56
1.21803	5.56
1.23470	5.56
1.25137	5.56
1.26803	5.56
1.28470	5.56
1.30137	5.55
1.31803	5.55
1.33470	5.55
1.35137	5.56
1.36803	5.56
1.38470	5.56
1.40137	5.56
1.41803	5.55
1.43470	5.56
1.45137	5.56
1.46803	5.56
1.48470	5.56
1.50137	5.56
1.51803	5.56
1.53470	5.56
1.55137	5.56
1.56803	5.56
1.58470	5.56
1.60137	5.55
1.61803	5.55
1.63470	5.55
1.65137	5.54
1.66803	5.53
1.68470	5.52
1.70137	5.51
1.71803	5.50
1.73470	5.49
1.75137	5.48
1.76803	5.46
1.78470	5.45
1.80137	5.44
1.81803	5.43
1.83470	5.42
1.85137	5.42
1.86803	5.41
1.88470	5.39
1.90137	5.38
1.91803	5.38
1.93470	5.37
1.95137	5.36
1.96803	5.35
1.98470	5.34
2.00137	5.33
2.01803	5.32
2.03470	5.31
2.05137	5.30
2.06803	5.29
2.08470	5.28
2.10137	5.27
2.11803	5.26
2.13470	5.25
2.15137	5.24
2.16803	5.23
2.18470	5.22
2.20137	5.21
2.21803	5.20
2.23470	5.19
2.25137	5.18
2.26803	5.17
2.28470	5.16
2.30137	5.15
2.31803	5.14
2.33470	5.14
2.35137	5.13
2.36803	5.12
2.38470	5.12
2.40137	5.12
2.41803	5.12
2.43470	5.12
2.45137	5.12
2.46803	5.12
2.48470	5.12
2.50137	5.12
2.51803	5.12
2.53470	5.12
2.55137	5.12
2.56803	5.12
2.58470	5.12
2.60137	5.12
2.61803	5.11
2.63470	5.11
2.65137	5.11
2.66803	5.11
2.68470	5.11
2.70137	5.11
2.71803	5.11
2.73470	5.11
2.75137	5.11
2.76803	5.11
2.78470	5.11
2.80137	5.11
2.81803	5.11
2.83470	5.11
2.85137	5.11
2.86803	5.11
2.88470	5.11
2.90137	5.11
2.91803	5.11
2.93470	5.11
2.95137	5.11
2.96803	5.11
2.98470	5.11
3.00137	5.11
3.01803	5.11
3.03470	5.11
3.05137	5.11
3.06803	5.11
3.08470	5.11
3.10137	5.11
3.11803	5.11
3.13470	5.11
3.15137	5.11
3.16803	5.11
3.18470	5.11
3.20137	5.11
3.21803	5.11
3.23470	5.11
3.25137	5.11
3.26803	5.11
3.28470	5.11
3.30137	5.11
3.31803	5.11
3.33470	5.11
3.35137	5.11
3.36803	5.11
3.38470	5.11
3.40137	5.11
3.41803	5.11
3.43470	5.11
3.45137	5.11
3.46803	5.11
3.48470	5.11
3.50137	5.11
3.51803	5.11
3.53470	5.11
3.55137	5.11
3.56803	5.11
3.58470	5.11
3.60137	5.11
3.61803	5.11
3.63470	5.11
3.65137	5.11
3.66803	5.11
3.68470	5.11
3.70137	5.11
3.71803	5.11
3.73470	5.11
3.75137	5.11
3.76803	5.11
3.78470	5.11
3.80137	5.11
3.81803	5.11
3.83470	5.11
3.85137	5.11
3.86803	5.11
3.88470	5.11
3.90137	5.11
3.91803	5.11
3.93470	5.11
3.95137	5.11
3.96803	5.11
3.98470	5.11

[Status Trace (Linear Velocity)]
Interval(msec)	1000
# of Points	240
Start Time(min)	0.001
End Time(min)	3.985
Intensity Units	
Intensity Multiplier	1
R.Time (min)	Intensity
0.00137	39.02
0.01803	38.07
0.03470	37.82
0.05137	39.34
0.06803	40.25
0.08470	39.24
0.10137	39.00
0.11803	39.02
0.13470	39.03
0.15137	39.02
0.16803	39.02
0.18470	39.02
0.20137	39.02
0.21803	39.02
0.23470	39.02
0.25137	39.02
0.26803	39.02
0.28470	39.02
0.30137	39.02
0.31803	39.02
0.33470	39.02
0.35137	39.02
0.36803	39.02
0.38470	39.02
0.40137	39.02
0.41803	39.02
0.43470	39.02
0.45137	39.02
0.46803	39.02
0.48470	39.02
0.50137	39.02
0.51803	39.02
0.53470	39.02
0.55137	39.02
0.56803	39.02
0.58470	39.02
0.60137	39.02
0.61803	39.02
0.63470	39.02
0.65137	39.02
0.66803	39.02
0.68470	39.03
0.70137	39.03
0.71803	39.03
0.73470	39.03
0.75137	39.03
0.76803	39.03
0.78470	39.03
0.80137	39.02
0.81803	39.02
0.83470	39.02
0.85137	39.02
0.86803	39.02
0.88470	39.03
0.90137	39.03
0.91803	39.03
0.93470	39.03
0.95137	39.03
0.96803	39.02
0.98470	39.02
1.00137	39.02
1.01803	39.02
1.03470	39.02
1.05137	39.02
1.06803	39.02
1.08470	39.02
1.10137	39.02
1.11803	39.03
1.13470	39.03
1.15137	39.02
1.16803	39.02
1.18470	39.02
1.20137	39.03
1.21803	39.03
1.23470	39.03
1.25137	39.03
1.26803	39.03
1.28470	39.02
1.30137	39.02
1.31803	39.02
1.33470	39.02
1.35137	39.03
1.36803	39.03
1.38470	39.03
1.40137	39.03
1.41803	39.02
1.43470	39.03
1.45137	39.03
1.46803	39.03
1.48470	39.03
1.50137	39.03
1.51803	39.03
1.53470	39.03
1.55137	39.03
1.56803	39.03
1.58470	39.03
1.60137	39.02
1.61803	39.01
1.63470	39.00
1.65137	38.98
1.66803	38.95
1.68470	38.91
1.70137	38.88
1.71803	38.84
1.73470	38.81
1.75137	38.78
1.76803	38.75
1.78470	38.72
1.80137	38.69
1.81803	38.65
1.83470	38.62
1.85137	38.60
1.86803	38.57
1.88470	38.53
1.90137	38.50
1.91803	38.47
1.93470	38.44
1.95137	38.41
1.96803	38.38
1.98470	38.35
2.00137	38.32
2.01803	38.29
2.03470	38.26
2.05137	38.23
2.06803	38.20
2.08470	38.17
2.10137	38.14
2.11803	38.11
2.13470	38.08
2.15137	38.05
2.16803	38.02
2.18470	37.99
2.20137	37.96
2.21803	37.93
2.23470	37.90
2.25137	37.88
2.26803	37.84
2.28470	37.81
2.30137	37.78
2.31803	37.75
2.33470	37.73
2.35137	37.70
2.36803	37.68
2.38470	37.67
2.40137	37.67
2.41803	37.67
2.43470	37.67
2.45137	37.67
2.46803	37.67
2.48470	37.67
2.50137	37.67
2.51803	37.66
2.53470	37.66
2.55137	37.66
2.56803	37.66
2.58470	37.66
2.60137	37.66
2.61803	37.66
2.63470	37.66
2.65137	37.65
2.66803	37.65
2.68470	37.65
2.70137	37.65
2.71803	37.65
2.73470	37.65
2.75137	37.65
2.76803	37.65
2.78470	37.65
2.80137	37.65
2.81803	37.65
2.83470	37.65
2.85137	37.65
2.86803	37.65
2.88470	37.65
2.90137	37.65
2.91803	37.65
2.93470	37.65
2.95137	37.64
2.96803	37.64
2.98470	37.64
3.00137	37.64
3.01803	37.64
3.03470	37.64
3.05137	37.64
3.06803	37.64
3.08470	37.64
3.10137	37.64
3.11803	37.64
3.13470	37.64
3.15137	37.64
3.16803	37.64
3.18470	37.64
3.20137	37.64
3.21803	37.64
3.23470	37.63
3.25137	37.63
3.26803	37.63
3.28470	37.63
3.30137	37.63
3.31803	37.63
3.33470	37.63
3.35137	37.63
3.36803	37.63
3.38470	37.63
3.40137	37.64
3.41803	37.64
3.43470	37.64
3.45137	37.64
3.46803	37.64
3.48470	37.64
3.50137	37.64
3.51803	37.64
3.53470	37.64
3.55137	37.64
3.56803	37.64
3.58470	37.64
3.60137	37.64
3.61803	37.64
3.63470	37.64
3.65137	37.64
3.66803	37.64
3.68470	37.64
3.70137	37.64
3.71803	37.64
3.73470	37.64
3.75137	37.64
3.76803	37.63
3.78470	37.63
3.80137	37.63
3.81803	37.63
3.83470	37.63
3.85137	37.63
3.86803	37.63
3.88470	37.63
3.90137	37.64
3.91803	37.64
3.93470	37.64
3.95137	37.64
3.96803	37.64
3.98470	37.64

