[Header]
Application Name	LabSolutions
Version	5.110
Data File Name	C:\Users\User\Desktop\GC Analyses\Jack\Nachusa Grasslands Sampling\T4 Timepoint July 12th\T4_07122022_058.gcd
Output Date	3/17/2023
Output Time	12:04:54 PM

[File Information]
Type	Data File
Generated	3/14/2023 9:51:18 PM
Generated by	System Administrator
Modified	3/14/2023 9:58:09 PM
Modified by	System Administrator

[Sample Information]
Operator Name	System Administrator
Acquired	3/14/2023 9:54:07 PM
Sample Type	0:Unknown
Level	0
Sample Name	058
Sample ID	058
ISTD Amount1	1
ISTD Amount2	1
ISTD Amount3	1
ISTD Amount4	1
ISTD Amount5	1
ISTD Amount6	1
ISTD Amount7	1
ISTD Amount8	1
ISTD Amount9	1
ISTD Amount10	1
ISTD Amount11	1
ISTD Amount12	1
ISTD Amount13	1
ISTD Amount14	1
ISTD Amount15	1
ISTD Amount16	1
ISTD Amount17	1
ISTD Amount18	1
ISTD Amount19	1
ISTD Amount20	1
ISTD Amount21	1
ISTD Amount22	1
ISTD Amount23	1
ISTD Amount24	1
ISTD Amount25	1
ISTD Amount26	1
ISTD Amount27	1
ISTD Amount28	1
ISTD Amount29	1
ISTD Amount30	1
ISTD Amount31	1
ISTD Amount32	1
Sample Amount	1
Dilution Factor	1
Vial#	57
Injection Volume	1
Injection Count	1
Bar Code	

[Original Files]
Data File	C:\Users\User\Desktop\GC Analyses\Jack\Nachusa Grasslands Sampling\T4 Timepoint July 12th\T4_07122022_058.gcd
Method File	C:\LabSolutions\Data\GHG_4min_2022\ghg3_togas_w_acet_4 min_new_int.gcm
Batch File	C:\LabSolutions\Data\AutoSamplerTesting\T4_07122022.gcb
Report Format File	c:\LabSolutions\System\DEFAULT.lsr

[File Description]


[Configuration]
Instrument Name	C0B7VH3-Instrument1
Instrument #	1
Line #	1
# of Detectors	3
Detector ID	DET#1	DET#2	DET#3
Detector Name	FID	PTCD	ECD
# of Channels	1	1	1

[Peak Table(Ch1)]
# of Peaks	3
Peak#	R.Time	I.Time	F.Time	Area	Height	A/H	Conc.	Mark	ID#	Name	k'	Plate #	Plate Ht.	Tailing	Resolution	Sep.Factor	Area Ratio	Height Ratio	Conc. %	Norm Conc.
1	1.476	1.417	1.538	46256	22785	2.030	326.570	   	1	CO	0.000	9700	15.464	1.303	0.000	0.000	0	0	24.005	24.005
2	1.571	1.538	1.615	4139	2103	1.968	80.028	 V 	2	CH4	0.065	11415	13.141	0.000	1.606	0.000	0	0	5.883	5.883
3	1.996	1.949	2.484	3800445	1821918	2.086	953.809	   	3	CO2	0.353	17174	8.734	1.303	7.104	5.462	0	0	70.112	70.112

[Peak Table(Ch2)]
# of Peaks	0

[Peak Table(Ch3)]
# of Peaks	5
Peak#	R.Time	I.Time	F.Time	Area	Height	A/H	Conc.	Mark	ID#	Name	k'	Plate #	Plate Ht.	Tailing	Resolution	Sep.Factor	Area Ratio	Height Ratio	Conc. %	Norm Conc.
1	2.462	2.337	2.510	2134	690	3.092	0.000	   			0.000	9919	15.123	0.000	0.000	0.000	0	0	0.000	0.000
2	2.528	2.510	2.579	1179	392	3.007	0.000	 V 			0.027	5753	26.073	0.000	0.568	0.000	0	0	0.000	0.000
3	2.601	2.579	2.678	704	190	3.701	0.000	 V 			0.057	1021	146.845	0.000	0.320	2.111	0	0	0.000	0.000
4	2.880	2.704	3.071	19108	4768	4.008	0.488	   	1	N2O	0.170	12928	11.602	1.503	1.306	3.000	0	0	100.000	100.000
5	3.291	3.078	3.995	19800	627	31.596	0.000	   	2	SF6	0.337	202	743.876	2.095	0.799	1.982	0	0	0.000	0.000

[Compound Results(Ch1)]
# of IDs	6
ID#	Name	R.Time	Area	Height	Conc.	Curve	3rd	2nd	1st	Constant	Area Ratio	Height Ratio	Conc. %	Norm Conc.
1	CO	1.476	46256	22785	326.570	Linear	0.000000e+00	0.000000e+00	1.416423e+002	0.000000e+00	0	0	24.005	24.005
2	CH4	1.571	4139	2103	80.028	Linear	0.000000e+00	0.000000e+00	5.171738e+001	0.000000e+00	0	0	5.883	5.883
3	CO2	1.996	3800445	1821918	953.809	Linear	0.000000e+00	0.000000e+00	3.984494e+003	0.000000e+00	0	0	70.112	70.112
4	Ethylene	0.000	0	0	0.000	Linear	0.000000e+00	0.000000e+00	0.000000e+00	0.000000e+00	0	0	0.000	0.000
5	Acetylene	0.000	0	0	0.000	Linear	0.000000e+00	0.000000e+00	0.000000e+00	0.000000e+00	0	0	0.000	0.000
6	Ethane	0.000	0	0	0.000	Linear	0.000000e+00	0.000000e+00	0.000000e+00	0.000000e+00	0	0	0.000	0.000

[Compound Results(Ch2)]
# of IDs	5
ID#	Name	R.Time	Area	Height	Conc.	Curve	3rd	2nd	1st	Constant	Area Ratio	Height Ratio	Conc. %	Norm Conc.
1	Hydrogen	0.000	0	0	0.000	Linear	0.000000e+00	0.000000e+00	0.000000e+00	0.000000e+00	0	0	0.000	0.000
2	Oxygen	0.000	0	0	0.000	Linear	0.000000e+00	0.000000e+00	0.000000e+00	0.000000e+00	0	0	0.000	0.000
3	Nitrogen	0.000	0	0	0.000	Linear	0.000000e+00	0.000000e+00	0.000000e+00	0.000000e+00	0	0	0.000	0.000
4	Methane	0.000	0	0	0.000	Linear	0.000000e+00	0.000000e+00	0.000000e+00	0.000000e+00	0	0	0.000	0.000
5	Carbon Monoxide	0.000	0	0	0.000	Linear	0.000000e+00	0.000000e+00	0.000000e+00	0.000000e+00	0	0	0.000	0.000

[Compound Results(Ch3)]
# of IDs	2
ID#	Name	R.Time	Area	Height	Conc.	Curve	3rd	2nd	1st	Constant	Area Ratio	Height Ratio	Conc. %	Norm Conc.
1	N2O	2.880	19108	4768	0.488	Linear	0.000000e+00	0.000000e+00	3.915173e+004	0.000000e+00	0	0	100.000	100.000
2	SF6	3.291	19800	627	0.000	Linear	0.000000e+00	0.000000e+00	0.000000e+00	0.000000e+00	0	0	0.000	0.000

[Group Results(Ch1)]
# of Groups	0

[Group Results(Ch2)]
# of Groups	0

[Group Results(Ch3)]
# of Groups	0

[Chromatogram (Ch1)]
Interval(msec)	220
# of Points	1091
Start Time(min)	0.002
End Time(min)	3.998
R.Time (min)	Intensity
0.00167	55
0.00533	50
0.00900	40
0.01267	28
0.01633	15
0.02000	7
0.02367	9
0.02733	18
0.03100	28
0.03467	38
0.03833	48
0.04200	56
0.04567	54
0.04933	50
0.05300	53
0.05667	57
0.06033	58
0.06400	54
0.06767	49
0.07133	42
0.07500	39
0.07867	38
0.08233	41
0.08600	46
0.08967	56
0.09333	68
0.09700	77
0.10067	84
0.10433	89
0.10800	92
0.11167	95
0.11533	99
0.11900	99
0.12267	100
0.12633	106
0.13000	112
0.13367	112
0.13733	111
0.14100	109
0.14467	107
0.14833	104
0.15200	101
0.15567	103
0.15933	104
0.16300	103
0.16667	101
0.17033	99
0.17400	97
0.17767	91
0.18133	84
0.18500	76
0.18867	69
0.19233	65
0.19600	64
0.19967	62
0.20333	58
0.20700	54
0.21067	52
0.21433	54
0.21800	59
0.22167	69
0.22533	70
0.22900	62
0.23267	51
0.23633	39
0.24000	31
0.24367	24
0.24733	23
0.25100	29
0.25467	43
0.25833	58
0.26200	66
0.26567	64
0.26933	54
0.27300	40
0.27667	27
0.28033	17
0.28400	12
0.28767	10
0.29133	14
0.29500	20
0.29867	25
0.30233	22
0.30600	13
0.30967	7
0.31333	6
0.31700	7
0.32067	12
0.32433	16
0.32800	18
0.33167	23
0.33533	27
0.33900	32
0.34267	38
0.34633	38
0.35000	34
0.35367	29
0.35733	27
0.36100	28
0.36467	32
0.36833	39
0.37200	48
0.37567	59
0.37933	63
0.38300	60
0.38667	54
0.39033	48
0.39400	44
0.39767	40
0.40133	37
0.40500	36
0.40867	36
0.41233	35
0.41600	36
0.41967	37
0.42333	41
0.42700	42
0.43067	42
0.43433	35
0.43800	26
0.44167	19
0.44533	13
0.44900	12
0.45267	15
0.45633	18
0.46000	20
0.46367	22
0.46733	21
0.47100	14
0.47467	4
0.47833	-3
0.48200	-5
0.48567	-1
0.48933	6
0.49300	12
0.49667	17
0.50033	27
0.50400	44
0.50767	61
0.51133	62
0.51500	49
0.51867	34
0.52233	22
0.52600	21
0.52967	28
0.53333	33
0.53700	28
0.54067	15
0.54433	10
0.54800	15
0.55167	18
0.55533	20
0.55900	19
0.56267	13
0.56633	3
0.57000	-7
0.57367	-14
0.57733	-23
0.58100	-30
0.58467	-30
0.58833	-26
0.59200	-16
0.59567	-2
0.59933	9
0.60300	15
0.60667	20
0.61033	22
0.61400	23
0.61767	24
0.62133	25
0.62500	25
0.62867	22
0.63233	23
0.63600	32
0.63967	41
0.64333	43
0.64700	42
0.65067	42
0.65433	41
0.65800	37
0.66167	28
0.66533	15
0.66900	3
0.67267	-5
0.67633	-9
0.68000	-9
0.68367	-9
0.68733	-12
0.69100	-16
0.69467	-20
0.69833	-19
0.70200	-18
0.70567	-14
0.70933	-7
0.71300	4
0.71667	13
0.72033	15
0.72400	15
0.72767	14
0.73133	13
0.73500	16
0.73867	24
0.74233	31
0.74600	37
0.74967	41
0.75333	41
0.75700	34
0.76067	21
0.76433	11
0.76800	8
0.77167	7
0.77533	7
0.77900	8
0.78267	10
0.78633	13
0.79000	12
0.79367	11
0.79733	9
0.80100	6
0.80467	3
0.80833	1
0.81200	3
0.81567	14
0.81933	32
0.82300	46
0.82667	51
0.83033	44
0.83400	29
0.83767	10
0.84133	-3
0.84500	-9
0.84867	-9
0.85233	-3
0.85600	5
0.85967	10
0.86333	11
0.86700	9
0.87067	2
0.87433	-9
0.87800	-26
0.88167	-39
0.88533	-42
0.88900	-40
0.89267	-29
0.89633	-14
0.90000	-5
0.90367	-0
0.90733	4
0.91100	10
0.91467	17
0.91833	23
0.92200	25
0.92567	22
0.92933	22
0.93300	22
0.93667	17
0.94033	15
0.94400	16
0.94767	17
0.95133	18
0.95500	22
0.95867	27
0.96233	29
0.96600	34
0.96967	40
0.97333	42
0.97700	39
0.98067	30
0.98433	26
0.98800	27
0.99167	29
0.99533	29
0.99900	29
1.00267	25
1.00633	21
1.01000	21
1.01367	26
1.01733	31
1.02100	35
1.02467	37
1.02833	36
1.03200	35
1.03567	35
1.03933	37
1.04300	39
1.04667	39
1.05033	35
1.05400	30
1.05767	24
1.06133	19
1.06500	14
1.06867	9
1.07233	7
1.07600	4
1.07967	3
1.08333	5
1.08700	2
1.09067	-3
1.09433	-9
1.09800	-11
1.10167	-8
1.10533	-2
1.10900	11
1.11267	22
1.11633	24
1.12000	24
1.12367	26
1.12733	28
1.13100	28
1.13467	26
1.13833	23
1.14200	14
1.14567	2
1.14933	-11
1.15300	-21
1.15667	-23
1.16033	-21
1.16400	-15
1.16767	-5
1.17133	7
1.17500	11
1.17867	9
1.18233	9
1.18600	9
1.18967	1
1.19333	-12
1.19700	-17
1.20067	-14
1.20433	-9
1.20800	-11
1.21167	-22
1.21533	-34
1.21900	-47
1.22267	-51
1.22633	-46
1.23000	-37
1.23367	-27
1.23733	-22
1.24100	-24
1.24467	-29
1.24833	-32
1.25200	-31
1.25567	-25
1.25933	-16
1.26300	-9
1.26667	-8
1.27033	-8
1.27400	-6
1.27767	-1
1.28133	4
1.28500	1
1.28867	-7
1.29233	-14
1.29600	-15
1.29967	-10
1.30333	-5
1.30700	4
1.31067	15
1.31433	18
1.31800	17
1.32167	10
1.32533	-2
1.32900	-15
1.33267	-28
1.33633	-38
1.34000	-39
1.34367	-33
1.34733	-25
1.35100	-22
1.35467	-22
1.35833	-24
1.36200	-24
1.36567	-24
1.36933	-25
1.37300	-29
1.37667	-35
1.38033	-41
1.38400	-43
1.38767	-45
1.39133	-45
1.39500	-48
1.39867	-54
1.40233	-66
1.40600	-72
1.40967	-72
1.41333	-69
1.41700	-61
1.42067	-49
1.42433	-39
1.42800	-31
1.43167	-26
1.43533	-21
1.43900	-10
1.44267	36
1.44633	211
1.45000	855
1.45367	2726
1.45733	6231
1.46100	10737
1.46467	15192
1.46833	18880
1.47200	21463
1.47567	22726
1.47933	22456
1.48300	20638
1.48667	17637
1.49033	14100
1.49400	10664
1.49767	7729
1.50133	5432
1.50500	3734
1.50867	2520
1.51233	1673
1.51600	1100
1.51967	715
1.52333	457
1.52700	285
1.53067	168
1.53433	93
1.53800	57
1.54167	74
1.54533	200
1.54900	474
1.55267	859
1.55633	1264
1.56000	1618
1.56367	1882
1.56733	2032
1.57100	2045
1.57467	1903
1.57833	1625
1.58200	1282
1.58567	938
1.58933	643
1.59300	411
1.59667	240
1.60033	119
1.60400	40
1.60767	-11
1.61133	-44
1.61500	-57
1.61867	-63
1.62233	-66
1.62600	-66
1.62967	-69
1.63333	-75
1.63700	-80
1.64067	-82
1.64433	-82
1.64800	-78
1.65167	-73
1.65533	-66
1.65900	-59
1.66267	-60
1.66633	-67
1.67000	-74
1.67367	-83
1.67733	-89
1.68100	-96
1.68467	-103
1.68833	-105
1.69200	-109
1.69567	-117
1.69933	-120
1.70300	-116
1.70667	-108
1.71033	-105
1.71400	-110
1.71767	-116
1.72133	-124
1.72500	-131
1.72867	-132
1.73233	-127
1.73600	-114
1.73967	-100
1.74333	-88
1.74700	-81
1.75067	-75
1.75433	-70
1.75800	-62
1.76167	-58
1.76533	-60
1.76900	-70
1.77267	-79
1.77633	-86
1.78000	-94
1.78367	-99
1.78733	-103
1.79100	-111
1.79467	-119
1.79833	-120
1.80200	-117
1.80567	-116
1.80933	-113
1.81300	-108
1.81667	-102
1.82033	-94
1.82400	-83
1.82767	-72
1.83133	-66
1.83500	-66
1.83867	-70
1.84233	-73
1.84600	-73
1.84967	-76
1.85333	-84
1.85700	-93
1.86067	-103
1.86433	-113
1.86800	-122
1.87167	-131
1.87533	-133
1.87900	-129
1.88267	-123
1.88633	-116
1.89000	-110
1.89367	-110
1.89733	-113
1.90100	-116
1.90467	-115
1.90833	-112
1.91200	-103
1.91567	-94
1.91933	-89
1.92300	-87
1.92667	-88
1.93033	-85
1.93400	-79
1.93767	-73
1.94133	-73
1.94500	-79
1.94867	-79
1.95233	-51
1.95600	159
1.95967	1515
1.96333	8214
1.96700	33341
1.97067	105239
1.97433	261914
1.97800	523197
1.98167	863348
1.98533	1219577
1.98900	1525990
1.99267	1735091
1.99633	1821863
2.00000	1781894
2.00367	1631228
2.00733	1403147
2.01100	1139585
2.01467	879848
2.01833	651503
2.02200	467326
2.02567	328012
2.02933	227421
2.03300	157088
2.03667	108921
2.04033	76335
2.04400	54398
2.04767	39603
2.05133	29555
2.05500	22649
2.05867	17824
2.06233	14379
2.06600	11865
2.06967	9989
2.07333	8560
2.07700	7447
2.08067	6565
2.08433	5851
2.08800	5258
2.09167	4761
2.09533	4342
2.09900	3981
2.10267	3664
2.10633	3385
2.11000	3140
2.11367	2921
2.11733	2736
2.12100	2574
2.12467	2424
2.12833	2287
2.13200	2157
2.13567	2037
2.13933	1932
2.14300	1840
2.14667	1756
2.15033	1676
2.15400	1601
2.15767	1528
2.16133	1457
2.16500	1389
2.16867	1329
2.17233	1276
2.17600	1230
2.17967	1189
2.18333	1146
2.18700	1106
2.19067	1071
2.19433	1038
2.19800	1007
2.20167	975
2.20533	943
2.20900	910
2.21267	877
2.21633	845
2.22000	814
2.22367	785
2.22733	764
2.23100	746
2.23467	727
2.23833	713
2.24200	700
2.24567	680
2.24933	661
2.25300	640
2.25667	614
2.26033	590
2.26400	569
2.26767	556
2.27133	551
2.27500	552
2.27867	546
2.28233	529
2.28600	508
2.28967	491
2.29333	480
2.29700	472
2.30067	464
2.30433	458
2.30800	450
2.31167	441
2.31533	429
2.31900	420
2.32267	411
2.32633	402
2.33000	395
2.33367	386
2.33733	377
2.34100	372
2.34467	365
2.34833	355
2.35200	342
2.35567	336
2.35933	337
2.36300	340
2.36667	340
2.37033	334
2.37400	328
2.37767	324
2.38133	316
2.38500	305
2.38867	293
2.39233	285
2.39600	278
2.39967	265
2.40333	255
2.40700	252
2.41067	254
2.41433	259
2.41800	265
2.42167	269
2.42533	272
2.42900	273
2.43267	266
2.43633	256
2.44000	248
2.44367	237
2.44733	225
2.45100	219
2.45467	216
2.45833	217
2.46200	218
2.46567	216
2.46933	212
2.47300	207
2.47667	203
2.48033	199
2.48400	196
2.48767	193
2.49133	187
2.49500	183
2.49867	185
2.50233	188
2.50600	188
2.50967	185
2.51333	183
2.51700	184
2.52067	188
2.52433	191
2.52800	188
2.53167	186
2.53533	187
2.53900	185
2.54267	179
2.54633	172
2.55000	170
2.55367	171
2.55733	167
2.56100	155
2.56467	140
2.56833	130
2.57200	122
2.57567	116
2.57933	114
2.58300	114
2.58667	115
2.59033	116
2.59400	112
2.59767	108
2.60133	105
2.60500	103
2.60867	109
2.61233	120
2.61600	125
2.61967	121
2.62333	110
2.62700	101
2.63067	95
2.63433	93
2.63800	96
2.64167	101
2.64533	104
2.64900	106
2.65267	109
2.65633	112
2.66000	118
2.66367	123
2.66733	129
2.67100	134
2.67467	132
2.67833	127
2.68200	121
2.68567	115
2.68933	112
2.69300	112
2.69667	112
2.70033	113
2.70400	115
2.70767	115
2.71133	109
2.71500	99
2.71867	88
2.72233	83
2.72600	84
2.72967	86
2.73333	85
2.73700	81
2.74067	77
2.74433	73
2.74800	71
2.75167	69
2.75533	67
2.75900	72
2.76267	80
2.76633	82
2.77000	81
2.77367	81
2.77733	78
2.78100	73
2.78467	74
2.78833	78
2.79200	80
2.79567	79
2.79933	77
2.80300	81
2.80667	86
2.81033	93
2.81400	102
2.81767	109
2.82133	111
2.82500	107
2.82867	101
2.83233	92
2.83600	84
2.83967	78
2.84333	74
2.84700	69
2.85067	71
2.85433	76
2.85800	83
2.86167	88
2.86533	90
2.86900	89
2.87267	87
2.87633	83
2.88000	78
2.88367	81
2.88733	91
2.89100	100
2.89467	100
2.89833	94
2.90200	86
2.90567	77
2.90933	68
2.91300	61
2.91667	57
2.92033	62
2.92400	75
2.92767	86
2.93133	95
2.93500	103
2.93867	105
2.94233	101
2.94600	99
2.94967	96
2.95333	90
2.95700	85
2.96067	86
2.96433	88
2.96800	84
2.97167	70
2.97533	55
2.97900	48
2.98267	45
2.98633	43
2.99000	42
2.99367	43
2.99733	46
3.00100	53
3.00467	61
3.00833	62
3.01200	61
3.01567	59
3.01933	57
3.02300	58
3.02667	65
3.03033	72
3.03400	77
3.03767	82
3.04133	90
3.04500	91
3.04867	83
3.05233	72
3.05600	68
3.05967	67
3.06333	70
3.06700	75
3.07067	80
3.07433	85
3.07800	90
3.08167	90
3.08533	88
3.08900	86
3.09267	85
3.09633	84
3.10000	87
3.10367	95
3.10733	99
3.11100	99
3.11467	94
3.11833	83
3.12200	73
3.12567	64
3.12933	61
3.13300	63
3.13667	64
3.14033	64
3.14400	68
3.14767	73
3.15133	73
3.15500	74
3.15867	77
3.16233	79
3.16600	81
3.16967	79
3.17333	71
3.17700	67
3.18067	66
3.18433	64
3.18800	56
3.19167	47
3.19533	42
3.19900	43
3.20267	48
3.20633	51
3.21000	59
3.21367	66
3.21733	68
3.22100	62
3.22467	58
3.22833	63
3.23200	75
3.23567	85
3.23933	86
3.24300	78
3.24667	68
3.25033	58
3.25400	52
3.25767	48
3.26133	46
3.26500	47
3.26867	50
3.27233	54
3.27600	60
3.27967	67
3.28333	73
3.28700	77
3.29067	71
3.29433	64
3.29800	61
3.30167	61
3.30533	62
3.30900	65
3.31267	73
3.31633	85
3.32000	89
3.32367	83
3.32733	74
3.33100	66
3.33467	60
3.33833	54
3.34200	52
3.34567	50
3.34933	49
3.35300	45
3.35667	41
3.36033	41
3.36400	45
3.36767	48
3.37133	48
3.37500	51
3.37867	55
3.38233	57
3.38600	60
3.38967	63
3.39333	68
3.39700	68
3.40067	62
3.40433	58
3.40800	55
3.41167	53
3.41533	55
3.41900	58
3.42267	58
3.42633	59
3.43000	59
3.43367	55
3.43733	52
3.44100	54
3.44467	55
3.44833	49
3.45200	44
3.45567	41
3.45933	33
3.46300	25
3.46667	22
3.47033	25
3.47400	29
3.47767	32
3.48133	30
3.48500	32
3.48867	35
3.49233	39
3.49600	41
3.49967	42
3.50333	46
3.50700	49
3.51067	50
3.51433	49
3.51800	47
3.52167	49
3.52533	52
3.52900	45
3.53267	33
3.53633	25
3.54000	22
3.54367	25
3.54733	29
3.55100	31
3.55467	31
3.55833	31
3.56200	32
3.56567	37
3.56933	47
3.57300	55
3.57667	58
3.58033	55
3.58400	50
3.58767	41
3.59133	32
3.59500	24
3.59867	19
3.60233	16
3.60600	21
3.60967	32
3.61333	44
3.61700	56
3.62067	61
3.62433	60
3.62800	51
3.63167	42
3.63533	33
3.63900	25
3.64267	18
3.64633	17
3.65000	18
3.65367	16
3.65733	15
3.66100	17
3.66467	21
3.66833	25
3.67200	25
3.67567	24
3.67933	23
3.68300	27
3.68667	30
3.69033	27
3.69400	24
3.69767	23
3.70133	24
3.70500	23
3.70867	22
3.71233	23
3.71600	24
3.71967	24
3.72333	22
3.72700	25
3.73067	34
3.73433	42
3.73800	40
3.74167	35
3.74533	27
3.74900	16
3.75267	11
3.75633	17
3.76000	27
3.76367	32
3.76733	31
3.77100	30
3.77467	28
3.77833	22
3.78200	18
3.78567	19
3.78933	24
3.79300	27
3.79667	26
3.80033	25
3.80400	32
3.80767	44
3.81133	45
3.81500	41
3.81867	36
3.82233	31
3.82600	27
3.82967	19
3.83333	6
3.83700	-5
3.84067	-8
3.84433	-2
3.84800	7
3.85167	14
3.85533	17
3.85900	17
3.86267	12
3.86633	7
3.87000	6
3.87367	9
3.87733	12
3.88100	11
3.88467	12
3.88833	15
3.89200	19
3.89567	14
3.89933	5
3.90300	-6
3.90667	-14
3.91033	-12
3.91400	-8
3.91767	0
3.92133	16
3.92500	28
3.92867	30
3.93233	24
3.93600	17
3.93967	13
3.94333	17
3.94700	23
3.95067	29
3.95433	31
3.95800	29
3.96167	25
3.96533	19
3.96900	11
3.97267	3
3.97633	-6
3.98000	-10
3.98367	-9
3.98733	-8
3.99100	-12
3.99467	-14
3.99833	-14

[Chromatogram (Ch2)]
Interval(msec)	220
# of Points	1091
Start Time(min)	0.002
End Time(min)	3.998
R.Time (min)	Intensity
0.00167	-1
0.00533	-1
0.00900	-2
0.01267	-2
0.01633	-2
0.02000	-2
0.02367	-2
0.02733	-2
0.03100	-2
0.03467	-2
0.03833	-1
0.04200	-1
0.04567	-1
0.04933	-1
0.05300	-1
0.05667	-0
0.06033	-0
0.06400	0
0.06767	0
0.07133	0
0.07500	1
0.07867	1
0.08233	1
0.08600	1
0.08967	2
0.09333	2
0.09700	3
0.10067	3
0.10433	3
0.10800	3
0.11167	3
0.11533	3
0.11900	3
0.12267	3
0.12633	3
0.13000	3
0.13367	3
0.13733	3
0.14100	3
0.14467	3
0.14833	3
0.15200	2
0.15567	2
0.15933	2
0.16300	2
0.16667	2
0.17033	1
0.17400	1
0.17767	1
0.18133	1
0.18500	0
0.18867	1
0.19233	1
0.19600	1
0.19967	1
0.20333	1
0.20700	2
0.21067	2
0.21433	2
0.21800	2
0.22167	1
0.22533	1
0.22900	1
0.23267	1
0.23633	1
0.24000	1
0.24367	1
0.24733	1
0.25100	1
0.25467	1
0.25833	1
0.26200	1
0.26567	2
0.26933	2
0.27300	2
0.27667	2
0.28033	2
0.28400	1
0.28767	1
0.29133	1
0.29500	1
0.29867	1
0.30233	1
0.30600	1
0.30967	1
0.31333	1
0.31700	1
0.32067	0
0.32433	0
0.32800	0
0.33167	0
0.33533	0
0.33900	0
0.34267	0
0.34633	0
0.35000	-0
0.35367	-0
0.35733	-0
0.36100	-0
0.36467	-0
0.36833	-0
0.37200	-0
0.37567	-0
0.37933	-0
0.38300	-0
0.38667	0
0.39033	0
0.39400	0
0.39767	0
0.40133	0
0.40500	0
0.40867	0
0.41233	0
0.41600	0
0.41967	0
0.42333	0
0.42700	0
0.43067	-0
0.43433	-0
0.43800	-1
0.44167	-1
0.44533	-1
0.44900	-1
0.45267	-1
0.45633	-1
0.46000	-1
0.46367	-1
0.46733	-1
0.47100	-1
0.47467	-0
0.47833	-0
0.48200	-0
0.48567	-0
0.48933	-0
0.49300	-0
0.49667	-0
0.50033	-0
0.50400	-0
0.50767	-1
0.51133	-1
0.51500	-1
0.51867	-1
0.52233	-1
0.52600	-1
0.52967	-0
0.53333	-0
0.53700	0
0.54067	0
0.54433	0
0.54800	1
0.55167	0
0.55533	0
0.55900	0
0.56267	0
0.56633	0
0.57000	-0
0.57367	-0
0.57733	-0
0.58100	-0
0.58467	-0
0.58833	-1
0.59200	-1
0.59567	-1
0.59933	-1
0.60300	-1
0.60667	-1
0.61033	-2
0.61400	-2
0.61767	-2
0.62133	-2
0.62500	-2
0.62867	-2
0.63233	-1
0.63600	-1
0.63967	-1
0.64333	-0
0.64700	0
0.65067	1
0.65433	1
0.65800	1
0.66167	1
0.66533	1
0.66900	1
0.67267	1
0.67633	1
0.68000	1
0.68367	1
0.68733	1
0.69100	0
0.69467	0
0.69833	0
0.70200	1
0.70567	1
0.70933	1
0.71300	2
0.71667	2
0.72033	2
0.72400	2
0.72767	3
0.73133	3
0.73500	3
0.73867	3
0.74233	3
0.74600	3
0.74967	3
0.75333	3
0.75700	3
0.76067	3
0.76433	3
0.76800	3
0.77167	3
0.77533	2
0.77900	2
0.78267	1
0.78633	0
0.79000	-0
0.79367	-1
0.79733	-1
0.80100	-1
0.80467	-1
0.80833	-1
0.81200	-1
0.81567	-0
0.81933	-0
0.82300	0
0.82667	0
0.83033	0
0.83400	0
0.83767	0
0.84133	0
0.84500	-0
0.84867	-0
0.85233	-0
0.85600	-1
0.85967	-1
0.86333	-1
0.86700	-1
0.87067	-2
0.87433	-2
0.87800	-2
0.88167	-2
0.88533	-2
0.88900	-2
0.89267	-2
0.89633	-2
0.90000	-1
0.90367	-1
0.90733	-1
0.91100	-1
0.91467	-1
0.91833	-1
0.92200	-0
0.92567	-0
0.92933	0
0.93300	0
0.93667	0
0.94033	1
0.94400	1
0.94767	0
0.95133	0
0.95500	0
0.95867	0
0.96233	0
0.96600	0
0.96967	1
0.97333	0
0.97700	0
0.98067	0
0.98433	0
0.98800	-0
0.99167	-1
0.99533	-1
0.99900	-1
1.00267	-1
1.00633	-1
1.01000	-1
1.01367	-1
1.01733	-1
1.02100	-1
1.02467	-1
1.02833	-0
1.03200	-0
1.03567	-0
1.03933	0
1.04300	-0
1.04667	-0
1.05033	-1
1.05400	-1
1.05767	-1
1.06133	-1
1.06500	-2
1.06867	-2
1.07233	-2
1.07600	-2
1.07967	-2
1.08333	-1
1.08700	-1
1.09067	-1
1.09433	-1
1.09800	-0
1.10167	-0
1.10533	-0
1.10900	-0
1.11267	-1
1.11633	-1
1.12000	-1
1.12367	-1
1.12733	-1
1.13100	-1
1.13467	-1
1.13833	-1
1.14200	-1
1.14567	-1
1.14933	-2
1.15300	-2
1.15667	-2
1.16033	-2
1.16400	-2
1.16767	-2
1.17133	-2
1.17500	-2
1.17867	-2
1.18233	-2
1.18600	-2
1.18967	-2
1.19333	-2
1.19700	-2
1.20067	-1
1.20433	-1
1.20800	-1
1.21167	-1
1.21533	-1
1.21900	-0
1.22267	-0
1.22633	0
1.23000	0
1.23367	0
1.23733	0
1.24100	0
1.24467	0
1.24833	-0
1.25200	-0
1.25567	-1
1.25933	-0
1.26300	-0
1.26667	-0
1.27033	-1
1.27400	-1
1.27767	-1
1.28133	-1
1.28500	-1
1.28867	-1
1.29233	-1
1.29600	-1
1.29967	-1
1.30333	-1
1.30700	-1
1.31067	-1
1.31433	-2
1.31800	-2
1.32167	-2
1.32533	-3
1.32900	-3
1.33267	-3
1.33633	-2
1.34000	-2
1.34367	-2
1.34733	-2
1.35100	-2
1.35467	-2
1.35833	-2
1.36200	-2
1.36567	-2
1.36933	-2
1.37300	-2
1.37667	-1
1.38033	-1
1.38400	-0
1.38767	-0
1.39133	-0
1.39500	0
1.39867	0
1.40233	1
1.40600	1
1.40967	1
1.41333	1
1.41700	1
1.42067	1
1.42433	1
1.42800	1
1.43167	1
1.43533	1
1.43900	1
1.44267	1
1.44633	1
1.45000	1
1.45367	1
1.45733	0
1.46100	0
1.46467	-0
1.46833	-1
1.47200	-1
1.47567	-2
1.47933	-2
1.48300	-2
1.48667	-3
1.49033	-3
1.49400	-3
1.49767	-3
1.50133	-3
1.50500	-4
1.50867	-4
1.51233	-4
1.51600	-5
1.51967	-5
1.52333	-5
1.52700	-5
1.53067	-5
1.53433	-5
1.53800	-5
1.54167	-5
1.54533	-5
1.54900	-5
1.55267	-5
1.55633	-5
1.56000	-5
1.56367	-5
1.56733	-5
1.57100	-5
1.57467	-5
1.57833	-4
1.58200	-4
1.58567	-4
1.58933	-4
1.59300	-4
1.59667	-4
1.60033	-5
1.60400	-6
1.60767	-8
1.61133	-9
1.61500	-11
1.61867	-14
1.62233	-16
1.62600	-19
1.62967	-22
1.63333	-25
1.63700	-29
1.64067	-32
1.64433	-36
1.64800	-40
1.65167	-43
1.65533	-47
1.65900	-51
1.66267	-54
1.66633	-58
1.67000	-62
1.67367	-66
1.67733	-71
1.68100	-75
1.68467	-80
1.68833	-85
1.69200	-89
1.69567	-92
1.69933	-96
1.70300	-99
1.70667	-101
1.71033	-103
1.71400	-104
1.71767	-105
1.72133	-106
1.72500	-106
1.72867	-106
1.73233	-106
1.73600	-105
1.73967	-105
1.74333	-104
1.74700	-104
1.75067	-104
1.75433	-104
1.75800	-105
1.76167	-106
1.76533	-107
1.76900	-108
1.77267	-109
1.77633	-110
1.78000	-110
1.78367	-111
1.78733	-111
1.79100	-112
1.79467	-112
1.79833	-113
1.80200	-113
1.80567	-114
1.80933	-114
1.81300	-114
1.81667	-114
1.82033	-113
1.82400	-113
1.82767	-113
1.83133	-113
1.83500	-113
1.83867	-114
1.84233	-114
1.84600	-114
1.84967	-114
1.85333	-114
1.85700	-114
1.86067	-114
1.86433	-114
1.86800	-114
1.87167	-114
1.87533	-114
1.87900	-114
1.88267	-114
1.88633	-114
1.89000	-114
1.89367	-115
1.89733	-115
1.90100	-115
1.90467	-115
1.90833	-115
1.91200	-114
1.91567	-114
1.91933	-113
1.92300	-112
1.92667	-111
1.93033	-110
1.93400	-110
1.93767	-110
1.94133	-110
1.94500	-110
1.94867	-110
1.95233	-110
1.95600	-110
1.95967	-110
1.96333	-109
1.96700	-109
1.97067	-108
1.97433	-108
1.97800	-107
1.98167	-107
1.98533	-107
1.98900	-107
1.99267	-107
1.99633	-107
2.00000	-107
2.00367	-106
2.00733	-106
2.01100	-105
2.01467	-105
2.01833	-105
2.02200	-105
2.02567	-105
2.02933	-105
2.03300	-104
2.03667	-104
2.04033	-104
2.04400	-103
2.04767	-102
2.05133	-102
2.05500	-101
2.05867	-101
2.06233	-100
2.06600	-100
2.06967	-100
2.07333	-100
2.07700	-100
2.08067	-100
2.08433	-99
2.08800	-99
2.09167	-99
2.09533	-99
2.09900	-99
2.10267	-99
2.10633	-99
2.11000	-99
2.11367	-99
2.11733	-99
2.12100	-99
2.12467	-98
2.12833	-98
2.13200	-98
2.13567	-98
2.13933	-98
2.14300	-98
2.14667	-98
2.15033	-97
2.15400	-97
2.15767	-96
2.16133	-95
2.16500	-95
2.16867	-94
2.17233	-93
2.17600	-92
2.17967	-91
2.18333	-91
2.18700	-90
2.19067	-91
2.19433	-91
2.19800	-91
2.20167	-92
2.20533	-92
2.20900	-92
2.21267	-92
2.21633	-91
2.22000	-91
2.22367	-91
2.22733	-90
2.23100	-90
2.23467	-90
2.23833	-90
2.24200	-89
2.24567	-89
2.24933	-89
2.25300	-88
2.25667	-87
2.26033	-87
2.26400	-86
2.26767	-85
2.27133	-85
2.27500	-84
2.27867	-83
2.28233	-83
2.28600	-83
2.28967	-83
2.29333	-83
2.29700	-83
2.30067	-83
2.30433	-82
2.30800	-82
2.31167	-81
2.31533	-81
2.31900	-81
2.32267	-82
2.32633	-82
2.33000	-82
2.33367	-82
2.33733	-81
2.34100	-80
2.34467	-79
2.34833	-78
2.35200	-77
2.35567	-76
2.35933	-75
2.36300	-74
2.36667	-73
2.37033	-72
2.37400	-70
2.37767	-68
2.38133	-65
2.38500	-61
2.38867	-57
2.39233	-53
2.39600	-49
2.39967	-44
2.40333	-39
2.40700	-35
2.41067	-30
2.41433	-26
2.41800	-22
2.42167	-19
2.42533	-16
2.42900	-14
2.43267	-13
2.43633	-11
2.44000	-11
2.44367	-10
2.44733	-9
2.45100	-9
2.45467	-8
2.45833	-7
2.46200	-6
2.46567	-5
2.46933	-4
2.47300	-3
2.47667	-2
2.48033	-2
2.48400	-1
2.48767	-0
2.49133	1
2.49500	2
2.49867	3
2.50233	4
2.50600	5
2.50967	5
2.51333	6
2.51700	7
2.52067	7
2.52433	8
2.52800	8
2.53167	9
2.53533	9
2.53900	10
2.54267	11
2.54633	11
2.55000	12
2.55367	12
2.55733	13
2.56100	14
2.56467	14
2.56833	15
2.57200	15
2.57567	16
2.57933	16
2.58300	16
2.58667	16
2.59033	16
2.59400	16
2.59767	16
2.60133	15
2.60500	15
2.60867	14
2.61233	14
2.61600	14
2.61967	14
2.62333	14
2.62700	14
2.63067	14
2.63433	13
2.63800	13
2.64167	13
2.64533	13
2.64900	14
2.65267	14
2.65633	15
2.66000	15
2.66367	16
2.66733	16
2.67100	17
2.67467	17
2.67833	17
2.68200	18
2.68567	18
2.68933	19
2.69300	20
2.69667	20
2.70033	21
2.70400	21
2.70767	21
2.71133	22
2.71500	22
2.71867	22
2.72233	23
2.72600	23
2.72967	23
2.73333	23
2.73700	23
2.74067	23
2.74433	23
2.74800	24
2.75167	24
2.75533	24
2.75900	24
2.76267	25
2.76633	25
2.77000	25
2.77367	26
2.77733	26
2.78100	26
2.78467	27
2.78833	27
2.79200	27
2.79567	27
2.79933	27
2.80300	26
2.80667	26
2.81033	25
2.81400	25
2.81767	24
2.82133	23
2.82500	23
2.82867	22
2.83233	22
2.83600	21
2.83967	21
2.84333	20
2.84700	18
2.85067	15
2.85433	10
2.85800	1
2.86167	-10
2.86533	-26
2.86900	-45
2.87267	-69
2.87633	-98
2.88000	-131
2.88367	-168
2.88733	-209
2.89100	-254
2.89467	-301
2.89833	-351
2.90200	-403
2.90567	-457
2.90933	-512
2.91300	-567
2.91667	-622
2.92033	-676
2.92400	-730
2.92767	-781
2.93133	-831
2.93500	-882
2.93867	-937
2.94233	-994
2.94600	-1046
2.94967	-1083
2.95333	-1096
2.95700	-1083
2.96067	-1046
2.96433	-990
2.96800	-922
2.97167	-845
2.97533	-765
2.97900	-686
2.98267	-609
2.98633	-536
2.99000	-469
2.99367	-408
2.99733	-353
3.00100	-304
3.00467	-261
3.00833	-223
3.01200	-190
3.01567	-161
3.01933	-136
3.02300	-115
3.02667	-96
3.03033	-80
3.03400	-67
3.03767	-55
3.04133	-45
3.04500	-36
3.04867	-29
3.05233	-23
3.05600	-18
3.05967	-13
3.06333	-10
3.06700	-6
3.07067	-4
3.07433	-1
3.07800	1
3.08167	2
3.08533	4
3.08900	5
3.09267	7
3.09633	8
3.10000	9
3.10367	10
3.10733	10
3.11100	11
3.11467	11
3.11833	12
3.12200	12
3.12567	13
3.12933	13
3.13300	14
3.13667	14
3.14033	14
3.14400	15
3.14767	15
3.15133	15
3.15500	16
3.15867	16
3.16233	16
3.16600	16
3.16967	17
3.17333	17
3.17700	17
3.18067	17
3.18433	17
3.18800	17
3.19167	17
3.19533	18
3.19900	18
3.20267	18
3.20633	19
3.21000	19
3.21367	19
3.21733	19
3.22100	19
3.22467	19
3.22833	19
3.23200	20
3.23567	20
3.23933	20
3.24300	20
3.24667	20
3.25033	20
3.25400	20
3.25767	20
3.26133	20
3.26500	21
3.26867	21
3.27233	21
3.27600	22
3.27967	22
3.28333	22
3.28700	23
3.29067	23
3.29433	23
3.29800	24
3.30167	24
3.30533	24
3.30900	24
3.31267	24
3.31633	24
3.32000	24
3.32367	24
3.32733	24
3.33100	24
3.33467	24
3.33833	24
3.34200	24
3.34567	24
3.34933	24
3.35300	24
3.35667	24
3.36033	24
3.36400	24
3.36767	24
3.37133	23
3.37500	23
3.37867	23
3.38233	23
3.38600	23
3.38967	23
3.39333	24
3.39700	24
3.40067	24
3.40433	24
3.40800	24
3.41167	24
3.41533	24
3.41900	24
3.42267	24
3.42633	24
3.43000	25
3.43367	25
3.43733	25
3.44100	25
3.44467	25
3.44833	25
3.45200	25
3.45567	25
3.45933	25
3.46300	25
3.46667	25
3.47033	25
3.47400	25
3.47767	25
3.48133	25
3.48500	26
3.48867	26
3.49233	26
3.49600	26
3.49967	26
3.50333	26
3.50700	25
3.51067	25
3.51433	25
3.51800	25
3.52167	25
3.52533	25
3.52900	25
3.53267	25
3.53633	25
3.54000	25
3.54367	25
3.54733	25
3.55100	25
3.55467	26
3.55833	26
3.56200	26
3.56567	26
3.56933	25
3.57300	25
3.57667	25
3.58033	25
3.58400	25
3.58767	25
3.59133	25
3.59500	25
3.59867	25
3.60233	26
3.60600	26
3.60967	26
3.61333	26
3.61700	26
3.62067	26
3.62433	26
3.62800	26
3.63167	27
3.63533	27
3.63900	27
3.64267	27
3.64633	27
3.65000	27
3.65367	27
3.65733	27
3.66100	27
3.66467	27
3.66833	27
3.67200	27
3.67567	27
3.67933	26
3.68300	26
3.68667	26
3.69033	26
3.69400	26
3.69767	25
3.70133	25
3.70500	25
3.70867	25
3.71233	25
3.71600	25
3.71967	25
3.72333	25
3.72700	25
3.73067	25
3.73433	25
3.73800	25
3.74167	25
3.74533	25
3.74900	25
3.75267	25
3.75633	25
3.76000	25
3.76367	25
3.76733	26
3.77100	26
3.77467	26
3.77833	26
3.78200	26
3.78567	25
3.78933	25
3.79300	25
3.79667	25
3.80033	25
3.80400	25
3.80767	25
3.81133	25
3.81500	25
3.81867	25
3.82233	25
3.82600	25
3.82967	25
3.83333	25
3.83700	25
3.84067	25
3.84433	26
3.84800	26
3.85167	26
3.85533	26
3.85900	26
3.86267	27
3.86633	27
3.87000	27
3.87367	27
3.87733	27
3.88100	27
3.88467	27
3.88833	27
3.89200	27
3.89567	27
3.89933	27
3.90300	27
3.90667	27
3.91033	27
3.91400	27
3.91767	27
3.92133	27
3.92500	27
3.92867	27
3.93233	26
3.93600	26
3.93967	26
3.94333	25
3.94700	25
3.95067	25
3.95433	24
3.95800	24
3.96167	24
3.96533	24
3.96900	24
3.97267	24
3.97633	24
3.98000	24
3.98367	24
3.98733	23
3.99100	23
3.99467	23
3.99833	23

[Chromatogram (Ch3)]
Interval(msec)	220
# of Points	1091
Start Time(min)	0.002
End Time(min)	3.998
R.Time (min)	Intensity
0.00167	1
0.00533	2
0.00900	1
0.01267	0
0.01633	1
0.02000	1
0.02367	2
0.02733	2
0.03100	3
0.03467	4
0.03833	3
0.04200	4
0.04567	3
0.04933	2
0.05300	1
0.05667	-2
0.06033	-3
0.06400	-2
0.06767	0
0.07133	3
0.07500	4
0.07867	3
0.08233	2
0.08600	2
0.08967	4
0.09333	3
0.09700	4
0.10067	5
0.10433	5
0.10800	4
0.11167	-0
0.11533	-2
0.11900	0
0.12267	-1
0.12633	-0
0.13000	2
0.13367	2
0.13733	2
0.14100	2
0.14467	2
0.14833	4
0.15200	4
0.15567	4
0.15933	2
0.16300	2
0.16667	4
0.17033	5
0.17400	6
0.17767	6
0.18133	5
0.18500	4
0.18867	4
0.19233	5
0.19600	8
0.19967	9
0.20333	8
0.20700	8
0.21067	7
0.21433	5
0.21800	5
0.22167	5
0.22533	6
0.22900	6
0.23267	8
0.23633	7
0.24000	8
0.24367	8
0.24733	5
0.25100	2
0.25467	1
0.25833	2
0.26200	1
0.26567	-0
0.26933	-1
0.27300	-1
0.27667	-1
0.28033	1
0.28400	3
0.28767	4
0.29133	4
0.29500	2
0.29867	1
0.30233	2
0.30600	3
0.30967	4
0.31333	4
0.31700	4
0.32067	3
0.32433	3
0.32800	4
0.33167	3
0.33533	1
0.33900	1
0.34267	3
0.34633	2
0.35000	2
0.35367	2
0.35733	1
0.36100	-1
0.36467	-1
0.36833	1
0.37200	1
0.37567	1
0.37933	-2
0.38300	-3
0.38667	-4
0.39033	-5
0.39400	-4
0.39767	-2
0.40133	-2
0.40500	-0
0.40867	1
0.41233	2
0.41600	1
0.41967	0
0.42333	-1
0.42700	-0
0.43067	0
0.43433	1
0.43800	1
0.44167	0
0.44533	1
0.44900	2
0.45267	1
0.45633	1
0.46000	2
0.46367	3
0.46733	2
0.47100	-1
0.47467	-3
0.47833	-3
0.48200	-4
0.48567	-3
0.48933	-2
0.49300	-1
0.49667	-0
0.50033	-0
0.50400	-2
0.50767	-4
0.51133	-6
0.51500	-8
0.51867	-8
0.52233	-7
0.52600	-6
0.52967	-7
0.53333	-6
0.53700	-5
0.54067	-5
0.54433	-7
0.54800	-7
0.55167	-6
0.55533	-5
0.55900	-4
0.56267	-2
0.56633	0
0.57000	1
0.57367	2
0.57733	1
0.58100	1
0.58467	2
0.58833	2
0.59200	3
0.59567	2
0.59933	-1
0.60300	-2
0.60667	-3
0.61033	-2
0.61400	-1
0.61767	-2
0.62133	-1
0.62500	0
0.62867	-1
0.63233	-2
0.63600	-3
0.63967	-3
0.64333	-3
0.64700	-3
0.65067	-3
0.65433	-5
0.65800	-5
0.66167	-5
0.66533	-5
0.66900	-6
0.67267	-5
0.67633	-4
0.68000	-4
0.68367	-3
0.68733	-0
0.69100	2
0.69467	1
0.69833	-0
0.70200	-1
0.70567	-1
0.70933	-0
0.71300	-2
0.71667	-3
0.72033	-2
0.72400	-1
0.72767	0
0.73133	4
0.73500	7
0.73867	9
0.74233	8
0.74600	5
0.74967	3
0.75333	2
0.75700	2
0.76067	0
0.76433	-2
0.76800	-2
0.77167	-2
0.77533	1
0.77900	3
0.78267	4
0.78633	4
0.79000	4
0.79367	3
0.79733	3
0.80100	3
0.80467	4
0.80833	5
0.81200	7
0.81567	6
0.81933	7
0.82300	9
0.82667	8
0.83033	6
0.83400	3
0.83767	1
0.84133	-0
0.84500	-1
0.84867	-0
0.85233	1
0.85600	2
0.85967	2
0.86333	2
0.86700	1
0.87067	0
0.87433	1
0.87800	5
0.88167	7
0.88533	8
0.88900	7
0.89267	7
0.89633	8
0.90000	7
0.90367	4
0.90733	3
0.91100	3
0.91467	1
0.91833	1
0.92200	3
0.92567	3
0.92933	3
0.93300	2
0.93667	4
0.94033	5
0.94400	6
0.94767	3
0.95133	0
0.95500	-1
0.95867	-1
0.96233	2
0.96600	1
0.96967	2
0.97333	4
0.97700	7
0.98067	6
0.98433	5
0.98800	5
0.99167	6
0.99533	5
0.99900	6
1.00267	7
1.00633	7
1.01000	5
1.01367	7
1.01733	8
1.02100	8
1.02467	9
1.02833	9
1.03200	10
1.03567	12
1.03933	11
1.04300	9
1.04667	8
1.05033	7
1.05400	7
1.05767	7
1.06133	8
1.06500	8
1.06867	6
1.07233	3
1.07600	2
1.07967	2
1.08333	0
1.08700	0
1.09067	2
1.09433	4
1.09800	6
1.10167	6
1.10533	5
1.10900	4
1.11267	5
1.11633	6
1.12000	7
1.12367	6
1.12733	6
1.13100	6
1.13467	6
1.13833	7
1.14200	6
1.14567	6
1.14933	6
1.15300	7
1.15667	7
1.16033	8
1.16400	8
1.16767	5
1.17133	5
1.17500	5
1.17867	7
1.18233	8
1.18600	8
1.18967	8
1.19333	9
1.19700	10
1.20067	7
1.20433	4
1.20800	3
1.21167	4
1.21533	4
1.21900	3
1.22267	3
1.22633	5
1.23000	5
1.23367	6
1.23733	8
1.24100	9
1.24467	9
1.24833	8
1.25200	8
1.25567	9
1.25933	9
1.26300	10
1.26667	11
1.27033	13
1.27400	14
1.27767	14
1.28133	13
1.28500	14
1.28867	13
1.29233	12
1.29600	12
1.29967	11
1.30333	10
1.30700	10
1.31067	13
1.31433	14
1.31800	15
1.32167	15
1.32533	16
1.32900	16
1.33267	15
1.33633	13
1.34000	11
1.34367	11
1.34733	13
1.35100	13
1.35467	13
1.35833	11
1.36200	11
1.36567	13
1.36933	15
1.37300	16
1.37667	16
1.38033	15
1.38400	12
1.38767	8
1.39133	8
1.39500	10
1.39867	11
1.40233	12
1.40600	13
1.40967	13
1.41333	13
1.41700	13
1.42067	12
1.42433	11
1.42800	10
1.43167	11
1.43533	11
1.43900	12
1.44267	15
1.44633	15
1.45000	14
1.45367	14
1.45733	14
1.46100	14
1.46467	15
1.46833	15
1.47200	15
1.47567	14
1.47933	13
1.48300	12
1.48667	12
1.49033	14
1.49400	15
1.49767	15
1.50133	14
1.50500	14
1.50867	15
1.51233	15
1.51600	16
1.51967	16
1.52333	16
1.52700	15
1.53067	15
1.53433	14
1.53800	16
1.54167	17
1.54533	15
1.54900	15
1.55267	15
1.55633	16
1.56000	16
1.56367	14
1.56733	14
1.57100	14
1.57467	13
1.57833	14
1.58200	15
1.58567	15
1.58933	16
1.59300	17
1.59667	17
1.60033	16
1.60400	18
1.60767	20
1.61133	20
1.61500	20
1.61867	22
1.62233	23
1.62600	24
1.62967	27
1.63333	27
1.63700	26
1.64067	27
1.64433	28
1.64800	27
1.65167	25
1.65533	25
1.65900	25
1.66267	25
1.66633	24
1.67000	24
1.67367	27
1.67733	31
1.68100	33
1.68467	33
1.68833	33
1.69200	34
1.69567	35
1.69933	37
1.70300	39
1.70667	41
1.71033	41
1.71400	40
1.71767	38
1.72133	38
1.72500	38
1.72867	39
1.73233	38
1.73600	40
1.73967	43
1.74333	45
1.74700	44
1.75067	41
1.75433	41
1.75800	41
1.76167	42
1.76533	42
1.76900	42
1.77267	42
1.77633	42
1.78000	44
1.78367	44
1.78733	46
1.79100	47
1.79467	49
1.79833	50
1.80200	50
1.80567	50
1.80933	50
1.81300	51
1.81667	51
1.82033	53
1.82400	55
1.82767	55
1.83133	54
1.83500	54
1.83867	54
1.84233	55
1.84600	56
1.84967	56
1.85333	55
1.85700	56
1.86067	57
1.86433	57
1.86800	56
1.87167	56
1.87533	55
1.87900	56
1.88267	58
1.88633	58
1.89000	58
1.89367	57
1.89733	59
1.90100	62
1.90467	64
1.90833	66
1.91200	67
1.91567	69
1.91933	70
1.92300	70
1.92667	70
1.93033	71
1.93400	71
1.93767	70
1.94133	71
1.94500	74
1.94867	75
1.95233	76
1.95600	78
1.95967	81
1.96333	84
1.96700	84
1.97067	85
1.97433	85
1.97800	85
1.98167	84
1.98533	85
1.98900	88
1.99267	89
1.99633	89
2.00000	90
2.00367	89
2.00733	90
2.01100	91
2.01467	92
2.01833	93
2.02200	94
2.02567	96
2.02933	95
2.03300	94
2.03667	97
2.04033	98
2.04400	101
2.04767	103
2.05133	104
2.05500	106
2.05867	108
2.06233	111
2.06600	112
2.06967	112
2.07333	112
2.07700	112
2.08067	113
2.08433	117
2.08800	118
2.09167	120
2.09533	122
2.09900	124
2.10267	126
2.10633	126
2.11000	125
2.11367	125
2.11733	124
2.12100	125
2.12467	127
2.12833	130
2.13200	133
2.13567	135
2.13933	138
2.14300	139
2.14667	142
2.15033	144
2.15400	144
2.15767	143
2.16133	142
2.16500	142
2.16867	144
2.17233	147
2.17600	151
2.17967	155
2.18333	157
2.18700	157
2.19067	158
2.19433	161
2.19800	162
2.20167	162
2.20533	162
2.20900	163
2.21267	163
2.21633	165
2.22000	167
2.22367	170
2.22733	173
2.23100	176
2.23467	177
2.23833	177
2.24200	175
2.24567	175
2.24933	175
2.25300	175
2.25667	177
2.26033	181
2.26400	183
2.26767	185
2.27133	187
2.27500	187
2.27867	186
2.28233	187
2.28600	189
2.28967	191
2.29333	193
2.29700	195
2.30067	197
2.30433	198
2.30800	200
2.31167	201
2.31533	200
2.31900	199
2.32267	202
2.32633	206
2.33000	209
2.33367	211
2.33733	212
2.34100	214
2.34467	214
2.34833	213
2.35200	214
2.35567	215
2.35933	217
2.36300	219
2.36667	219
2.37033	220
2.37400	219
2.37767	219
2.38133	220
2.38500	220
2.38867	218
2.39233	218
2.39600	218
2.39967	220
2.40333	223
2.40700	225
2.41067	229
2.41433	232
2.41800	235
2.42167	237
2.42533	238
2.42900	238
2.43267	237
2.43633	236
2.44000	239
2.44367	300
2.44733	459
2.45100	629
2.45467	769
2.45833	846
2.46200	852
2.46567	819
2.46933	776
2.47300	742
2.47667	722
2.48033	704
2.48400	675
2.48767	633
2.49133	583
2.49500	534
2.49867	494
2.50233	466
2.50600	450
2.50967	448
2.51333	456
2.51700	472
2.52067	494
2.52433	516
2.52800	527
2.53167	524
2.53533	508
2.53900	483
2.54267	450
2.54633	415
2.55000	384
2.55367	357
2.55733	335
2.56100	319
2.56467	308
2.56833	301
2.57200	295
2.57567	291
2.57933	289
2.58300	289
2.58667	291
2.59033	292
2.59400	294
2.59767	296
2.60133	296
2.60500	291
2.60867	284
2.61233	275
2.61600	263
2.61967	252
2.62333	242
2.62700	233
2.63067	224
2.63433	214
2.63800	202
2.64167	191
2.64533	176
2.64900	161
2.65267	149
2.65633	136
2.66000	125
2.66367	114
2.66733	103
2.67100	92
2.67467	83
2.67833	74
2.68200	68
2.68567	66
2.68933	65
2.69300	63
2.69667	65
2.70033	67
2.70400	70
2.70767	74
2.71133	78
2.71500	82
2.71867	87
2.72233	93
2.72600	99
2.72967	104
2.73333	109
2.73700	114
2.74067	119
2.74433	121
2.74800	124
2.75167	128
2.75533	131
2.75900	132
2.76267	135
2.76633	140
2.77000	144
2.77367	148
2.77733	154
2.78100	158
2.78467	162
2.78833	163
2.79200	165
2.79567	170
2.79933	176
2.80300	183
2.80667	190
2.81033	198
2.81400	207
2.81767	217
2.82133	229
2.82500	249
2.82867	287
2.83233	357
2.83600	477
2.83967	673
2.84333	959
2.84700	1345
2.85067	1823
2.85433	2368
2.85800	2948
2.86167	3518
2.86533	4027
2.86900	4438
2.87267	4719
2.87633	4860
2.88000	4866
2.88367	4752
2.88733	4544
2.89100	4268
2.89467	3948
2.89833	3611
2.90200	3272
2.90567	2943
2.90933	2633
2.91300	2345
2.91667	2083
2.92033	1846
2.92400	1637
2.92767	1452
2.93133	1287
2.93500	1141
2.93867	1015
2.94233	906
2.94600	810
2.94967	725
2.95333	650
2.95700	586
2.96067	529
2.96433	480
2.96800	441
2.97167	406
2.97533	376
2.97900	350
2.98267	326
2.98633	305
2.99000	287
2.99367	273
2.99733	261
3.00100	249
3.00467	239
3.00833	230
3.01200	221
3.01567	214
3.01933	209
3.02300	207
3.02667	205
3.03033	202
3.03400	198
3.03767	196
3.04133	195
3.04500	192
3.04867	189
3.05233	187
3.05600	185
3.05967	183
3.06333	176
3.06700	154
3.07067	130
3.07433	123
3.07800	132
3.08167	152
3.08533	182
3.08900	222
3.09267	268
3.09633	316
3.10000	362
3.10367	403
3.10733	442
3.11100	476
3.11467	506
3.11833	531
3.12200	553
3.12567	574
3.12933	591
3.13300	604
3.13667	617
3.14033	630
3.14400	643
3.14767	653
3.15133	664
3.15500	674
3.15867	681
3.16233	687
3.16600	692
3.16967	697
3.17333	703
3.17700	708
3.18067	714
3.18433	718
3.18800	723
3.19167	729
3.19533	736
3.19900	744
3.20267	752
3.20633	760
3.21000	765
3.21367	770
3.21733	773
3.22100	775
3.22467	781
3.22833	788
3.23200	796
3.23567	804
3.23933	810
3.24300	814
3.24667	819
3.25033	824
3.25400	829
3.25767	833
3.26133	838
3.26500	842
3.26867	845
3.27233	847
3.27600	848
3.27967	851
3.28333	856
3.28700	862
3.29067	866
3.29433	867
3.29800	868
3.30167	869
3.30533	869
3.30900	870
3.31267	872
3.31633	872
3.32000	874
3.32367	874
3.32733	870
3.33100	866
3.33467	862
3.33833	860
3.34200	861
3.34567	862
3.34933	861
3.35300	861
3.35667	860
3.36033	859
3.36400	856
3.36767	853
3.37133	851
3.37500	850
3.37867	849
3.38233	846
3.38600	843
3.38967	841
3.39333	840
3.39700	838
3.40067	836
3.40433	833
3.40800	830
3.41167	828
3.41533	827
3.41900	826
3.42267	824
3.42633	823
3.43000	823
3.43367	823
3.43733	824
3.44100	823
3.44467	821
3.44833	818
3.45200	814
3.45567	810
3.45933	808
3.46300	806
3.46667	805
3.47033	804
3.47400	803
3.47767	803
3.48133	803
3.48500	803
3.48867	803
3.49233	801
3.49600	800
3.49967	798
3.50333	797
3.50700	799
3.51067	800
3.51433	798
3.51800	795
3.52167	791
3.52533	789
3.52900	789
3.53267	788
3.53633	786
3.54000	783
3.54367	780
3.54733	777
3.55100	777
3.55467	778
3.55833	780
3.56200	781
3.56567	782
3.56933	784
3.57300	784
3.57667	782
3.58033	779
3.58400	777
3.58767	776
3.59133	774
3.59500	773
3.59867	772
3.60233	769
3.60600	766
3.60967	766
3.61333	766
3.61700	767
3.62067	766
3.62433	764
3.62800	762
3.63167	763
3.63533	762
3.63900	761
3.64267	759
3.64633	757
3.65000	753
3.65367	751
3.65733	750
3.66100	748
3.66467	743
3.66833	738
3.67200	736
3.67567	734
3.67933	733
3.68300	733
3.68667	733
3.69033	733
3.69400	734
3.69767	733
3.70133	732
3.70500	730
3.70867	727
3.71233	722
3.71600	720
3.71967	716
3.72333	712
3.72700	708
3.73067	704
3.73433	702
3.73800	699
3.74167	696
3.74533	695
3.74900	695
3.75267	694
3.75633	693
3.76000	692
3.76367	691
3.76733	692
3.77100	691
3.77467	690
3.77833	687
3.78200	686
3.78567	683
3.78933	680
3.79300	678
3.79667	675
3.80033	670
3.80400	665
3.80767	664
3.81133	665
3.81500	663
3.81867	661
3.82233	659
3.82600	658
3.82967	657
3.83333	653
3.83700	648
3.84067	646
3.84433	647
3.84800	648
3.85167	648
3.85533	645
3.85900	643
3.86267	640
3.86633	637
3.87000	634
3.87367	631
3.87733	629
3.88100	629
3.88467	630
3.88833	629
3.89200	628
3.89567	625
3.89933	621
3.90300	619
3.90667	617
3.91033	617
3.91400	616
3.91767	613
3.92133	612
3.92500	613
3.92867	614
3.93233	613
3.93600	611
3.93967	607
3.94333	603
3.94700	601
3.95067	602
3.95433	600
3.95800	599
3.96167	596
3.96533	595
3.96900	598
3.97267	597
3.97633	595
3.98000	591
3.98367	590
3.98733	591
3.99100	593
3.99467	592
3.99833	587

[Status Trace (Column Oven Temperature)]
Interval(msec)	1000
# of Points	240
Start Time(min)	0.009
End Time(min)	3.993
Intensity Units	
Intensity Multiplier	1
R.Time (min)	Intensity
0.00947	35.05
0.02613	35.06
0.04280	35.07
0.05947	35.07
0.07613	35.07
0.09280	35.06
0.10947	35.06
0.12613	35.06
0.14280	35.05
0.15947	35.04
0.17613	35.05
0.19280	35.04
0.20947	35.03
0.22613	35.02
0.24280	35.02
0.25947	35.02
0.27613	35.02
0.29280	35.02
0.30947	35.03
0.32613	35.03
0.34280	35.03
0.35947	35.03
0.37613	35.02
0.39280	35.02
0.40947	35.02
0.42613	35.01
0.44280	35.01
0.45947	35.02
0.47613	35.02
0.49280	35.03
0.50947	35.03
0.52613	35.03
0.54280	35.04
0.55947	35.03
0.57613	35.02
0.59280	35.03
0.60947	35.04
0.62613	35.04
0.64280	35.03
0.65947	35.02
0.67613	35.02
0.69280	35.02
0.70947	35.00
0.72613	34.99
0.74280	34.98
0.75947	34.98
0.77613	34.99
0.79280	34.99
0.80947	34.99
0.82613	35.00
0.84280	35.00
0.85947	35.01
0.87613	35.01
0.89280	35.02
0.90947	35.02
0.92613	35.02
0.94280	35.01
0.95947	35.01
0.97613	35.00
0.99280	35.01
1.00947	35.00
1.02613	35.01
1.04280	35.00
1.05947	35.01
1.07613	35.02
1.09280	35.01
1.10947	35.01
1.12613	35.01
1.14280	35.01
1.15947	35.02
1.17613	35.02
1.19280	35.01
1.20947	35.00
1.22613	35.00
1.24280	35.01
1.25947	35.00
1.27613	35.00
1.29280	34.99
1.30947	35.00
1.32613	35.00
1.34280	35.00
1.35947	35.00
1.37613	35.00
1.39280	34.98
1.40947	34.98
1.42613	34.97
1.44280	34.96
1.45947	34.95
1.47613	34.95
1.49280	34.97
1.50947	34.98
1.52613	34.99
1.54280	35.00
1.55947	35.00
1.57613	35.00
1.59280	35.03
1.60947	35.09
1.62613	35.22
1.64280	35.42
1.65947	35.66
1.67613	36.00
1.69280	36.38
1.70947	36.73
1.72613	37.06
1.74280	37.36
1.75947	37.69
1.77613	38.03
1.79280	38.36
1.80947	38.70
1.82613	39.02
1.84280	39.37
1.85947	39.68
1.87613	40.02
1.89280	40.37
1.90947	40.70
1.92613	41.01
1.94280	41.35
1.95947	41.67
1.97613	41.98
1.99280	42.31
2.00947	42.63
2.02613	42.96
2.04280	43.28
2.05947	43.60
2.07613	43.92
2.09280	44.25
2.10947	44.59
2.12613	44.91
2.14280	45.25
2.15947	45.57
2.17613	45.88
2.19280	46.23
2.20947	46.55
2.22613	46.88
2.24280	47.22
2.25947	47.53
2.27613	47.85
2.29280	48.20
2.30947	48.52
2.32613	48.87
2.34280	49.16
2.35947	49.45
2.37613	49.66
2.39280	49.73
2.40947	49.70
2.42613	49.71
2.44280	49.74
2.45947	49.75
2.47613	49.75
2.49280	49.75
2.50947	49.77
2.52613	49.78
2.54280	49.79
2.55947	49.81
2.57613	49.80
2.59280	49.82
2.60947	49.83
2.62613	49.83
2.64280	49.83
2.65947	49.84
2.67613	49.86
2.69280	49.85
2.70947	49.85
2.72613	49.86
2.74280	49.86
2.75947	49.86
2.77613	49.86
2.79280	49.85
2.80947	49.87
2.82613	49.91
2.84280	49.93
2.85947	49.93
2.87613	49.94
2.89280	49.94
2.90947	49.94
2.92613	49.93
2.94280	49.92
2.95947	49.94
2.97613	49.94
2.99280	49.95
3.00947	49.96
3.02613	49.95
3.04280	49.96
3.05947	49.98
3.07613	49.99
3.09280	50.00
3.10947	50.01
3.12613	50.02
3.14280	50.03
3.15947	50.04
3.17613	50.06
3.19280	50.06
3.20947	50.07
3.22613	50.08
3.24280	50.09
3.25947	50.10
3.27613	50.10
3.29280	50.09
3.30947	50.09
3.32613	50.09
3.34280	50.09
3.35947	50.09
3.37613	50.10
3.39280	50.09
3.40947	50.10
3.42613	50.09
3.44280	50.09
3.45947	50.09
3.47613	50.09
3.49280	50.08
3.50947	50.08
3.52613	50.09
3.54280	50.09
3.55947	50.09
3.57613	50.10
3.59280	50.09
3.60947	50.09
3.62613	50.08
3.64280	50.07
3.65947	50.07
3.67613	50.07
3.69280	50.08
3.70947	50.08
3.72613	50.08
3.74280	50.07
3.75947	50.07
3.77613	50.07
3.79280	50.08
3.80947	50.08
3.82613	50.07
3.84280	50.07
3.85947	50.06
3.87613	50.06
3.89280	50.05
3.90947	50.05
3.92613	50.05
3.94280	50.06
3.95947	50.07
3.97613	50.08
3.99280	50.08

[Status Trace (Injection Unit Temperature)]
Interval(msec)	1000
# of Points	240
Start Time(min)	0.009
End Time(min)	3.993
Intensity Units	
Intensity Multiplier	1
R.Time (min)	Intensity
0.00947	99.97
0.02613	99.98
0.04280	99.97
0.05947	99.98
0.07613	99.98
0.09280	99.98
0.10947	99.97
0.12613	99.98
0.14280	99.98
0.15947	99.98
0.17613	99.98
0.19280	99.98
0.20947	99.98
0.22613	99.97
0.24280	99.98
0.25947	99.98
0.27613	99.98
0.29280	99.98
0.30947	99.98
0.32613	99.97
0.34280	99.98
0.35947	99.98
0.37613	99.98
0.39280	99.98
0.40947	99.98
0.42613	99.98
0.44280	99.98
0.45947	99.98
0.47613	99.98
0.49280	99.98
0.50947	99.98
0.52613	99.99
0.54280	99.98
0.55947	99.98
0.57613	99.99
0.59280	99.98
0.60947	99.99
0.62613	99.99
0.64280	99.99
0.65947	99.99
0.67613	99.99
0.69280	99.99
0.70947	99.99
0.72613	99.99
0.74280	99.99
0.75947	99.99
0.77613	99.99
0.79280	99.99
0.80947	99.99
0.82613	99.99
0.84280	99.99
0.85947	99.99
0.87613	99.99
0.89280	99.99
0.90947	99.99
0.92613	99.99
0.94280	99.99
0.95947	99.99
0.97613	99.99
0.99280	99.99
1.00947	99.99
1.02613	99.99
1.04280	99.99
1.05947	99.99
1.07613	99.99
1.09280	99.99
1.10947	99.99
1.12613	99.99
1.14280	99.99
1.15947	99.99
1.17613	99.99
1.19280	99.99
1.20947	99.99
1.22613	99.99
1.24280	99.99
1.25947	99.98
1.27613	99.98
1.29280	99.99
1.30947	99.98
1.32613	99.98
1.34280	99.99
1.35947	99.98
1.37613	99.98
1.39280	99.99
1.40947	99.98
1.42613	99.98
1.44280	99.98
1.45947	99.98
1.47613	99.99
1.49280	99.98
1.50947	99.98
1.52613	99.98
1.54280	99.98
1.55947	99.98
1.57613	99.99
1.59280	99.98
1.60947	99.98
1.62613	99.99
1.64280	99.99
1.65947	99.99
1.67613	99.99
1.69280	99.98
1.70947	99.99
1.72613	99.99
1.74280	99.98
1.75947	99.98
1.77613	99.99
1.79280	99.99
1.80947	99.99
1.82613	99.99
1.84280	99.99
1.85947	99.99
1.87613	99.98
1.89280	99.98
1.90947	99.99
1.92613	99.98
1.94280	99.98
1.95947	99.98
1.97613	99.98
1.99280	99.98
2.00947	99.98
2.02613	99.97
2.04280	99.99
2.05947	99.98
2.07613	99.98
2.09280	99.98
2.10947	99.97
2.12613	99.97
2.14280	99.98
2.15947	99.98
2.17613	99.97
2.19280	99.97
2.20947	99.97
2.22613	99.97
2.24280	99.97
2.25947	99.98
2.27613	99.97
2.29280	99.97
2.30947	99.97
2.32613	99.97
2.34280	99.96
2.35947	99.96
2.37613	99.97
2.39280	99.97
2.40947	99.97
2.42613	99.97
2.44280	99.96
2.45947	99.97
2.47613	99.97
2.49280	99.97
2.50947	99.97
2.52613	99.97
2.54280	99.97
2.55947	99.97
2.57613	99.97
2.59280	99.98
2.60947	99.98
2.62613	99.98
2.64280	99.97
2.65947	99.98
2.67613	99.98
2.69280	99.98
2.70947	99.98
2.72613	99.98
2.74280	99.99
2.75947	99.99
2.77613	99.99
2.79280	99.99
2.80947	99.99
2.82613	100.00
2.84280	100.00
2.85947	100.00
2.87613	100.00
2.89280	100.00
2.90947	100.01
2.92613	100.01
2.94280	100.01
2.95947	100.00
2.97613	100.01
2.99280	100.01
3.00947	100.01
3.02613	100.01
3.04280	100.02
3.05947	100.02
3.07613	100.01
3.09280	100.02
3.10947	100.02
3.12613	100.02
3.14280	100.02
3.15947	100.03
3.17613	100.02
3.19280	100.03
3.20947	100.02
3.22613	100.03
3.24280	100.02
3.25947	100.04
3.27613	100.03
3.29280	100.03
3.30947	100.03
3.32613	100.04
3.34280	100.04
3.35947	100.04
3.37613	100.04
3.39280	100.04
3.40947	100.04
3.42613	100.04
3.44280	100.04
3.45947	100.04
3.47613	100.05
3.49280	100.04
3.50947	100.04
3.52613	100.04
3.54280	100.05
3.55947	100.05
3.57613	100.05
3.59280	100.05
3.60947	100.05
3.62613	100.05
3.64280	100.05
3.65947	100.05
3.67613	100.05
3.69280	100.05
3.70947	100.05
3.72613	100.05
3.74280	100.05
3.75947	100.05
3.77613	100.05
3.79280	100.05
3.80947	100.04
3.82613	100.05
3.84280	100.05
3.85947	100.05
3.87613	100.05
3.89280	100.05
3.90947	100.05
3.92613	100.05
3.94280	100.05
3.95947	100.05
3.97613	100.05
3.99280	100.06

[Status Trace (Carrier Gas Pressure)]
Interval(msec)	1000
# of Points	240
Start Time(min)	0.009
End Time(min)	3.993
Intensity Units	
Intensity Multiplier	1
R.Time (min)	Intensity
0.00947	58.00
0.02613	55.15
0.04280	57.30
0.05947	59.45
0.07613	59.17
0.09280	58.03
0.10947	57.98
0.12613	58.01
0.14280	58.01
0.15947	58.01
0.17613	58.00
0.19280	58.00
0.20947	58.00
0.22613	58.00
0.24280	58.00
0.25947	58.00
0.27613	58.00
0.29280	58.00
0.30947	58.00
0.32613	58.00
0.34280	58.00
0.35947	58.00
0.37613	58.00
0.39280	58.00
0.40947	58.00
0.42613	58.00
0.44280	58.00
0.45947	58.00
0.47613	58.00
0.49280	58.00
0.50947	58.00
0.52613	58.00
0.54280	58.00
0.55947	58.00
0.57613	58.00
0.59280	58.00
0.60947	58.00
0.62613	58.00
0.64280	58.00
0.65947	58.00
0.67613	58.00
0.69280	58.00
0.70947	58.00
0.72613	58.00
0.74280	58.00
0.75947	58.00
0.77613	58.00
0.79280	58.00
0.80947	58.00
0.82613	58.00
0.84280	58.00
0.85947	58.00
0.87613	58.00
0.89280	58.00
0.90947	58.00
0.92613	58.00
0.94280	58.00
0.95947	58.00
0.97613	58.00
0.99280	58.00
1.00947	58.00
1.02613	58.00
1.04280	58.00
1.05947	58.00
1.07613	58.00
1.09280	58.00
1.10947	58.00
1.12613	58.00
1.14280	58.00
1.15947	58.00
1.17613	58.00
1.19280	58.00
1.20947	58.00
1.22613	58.00
1.24280	58.00
1.25947	58.00
1.27613	58.00
1.29280	58.00
1.30947	58.00
1.32613	58.00
1.34280	58.00
1.35947	58.00
1.37613	58.00
1.39280	58.00
1.40947	58.00
1.42613	58.00
1.44280	58.00
1.45947	58.00
1.47613	58.00
1.49280	58.00
1.50947	58.00
1.52613	58.00
1.54280	58.00
1.55947	58.00
1.57613	58.00
1.59280	58.00
1.60947	58.00
1.62613	58.00
1.64280	58.00
1.65947	58.00
1.67613	58.01
1.69280	58.00
1.70947	58.00
1.72613	58.00
1.74280	58.00
1.75947	58.00
1.77613	58.00
1.79280	58.00
1.80947	58.00
1.82613	58.00
1.84280	58.00
1.85947	58.00
1.87613	58.00
1.89280	58.00
1.90947	58.00
1.92613	58.00
1.94280	58.00
1.95947	58.00
1.97613	58.00
1.99280	58.00
2.00947	58.00
2.02613	58.00
2.04280	58.00
2.05947	58.00
2.07613	58.00
2.09280	58.00
2.10947	58.00
2.12613	58.00
2.14280	58.00
2.15947	58.00
2.17613	58.00
2.19280	58.00
2.20947	58.00
2.22613	58.00
2.24280	58.00
2.25947	58.00
2.27613	58.00
2.29280	58.00
2.30947	58.00
2.32613	58.00
2.34280	58.00
2.35947	58.00
2.37613	58.00
2.39280	57.99
2.40947	57.99
2.42613	58.00
2.44280	58.00
2.45947	58.00
2.47613	58.00
2.49280	58.00
2.50947	57.99
2.52613	57.98
2.54280	58.00
2.55947	58.00
2.57613	58.00
2.59280	58.00
2.60947	58.00
2.62613	58.00
2.64280	58.00
2.65947	58.00
2.67613	58.00
2.69280	58.00
2.70947	58.00
2.72613	58.00
2.74280	58.00
2.75947	58.00
2.77613	58.00
2.79280	58.00
2.80947	58.00
2.82613	58.00
2.84280	58.00
2.85947	58.00
2.87613	58.00
2.89280	58.00
2.90947	58.00
2.92613	58.00
2.94280	58.00
2.95947	58.00
2.97613	58.00
2.99280	58.00
3.00947	58.00
3.02613	58.00
3.04280	58.00
3.05947	58.00
3.07613	58.00
3.09280	58.00
3.10947	58.00
3.12613	58.00
3.14280	58.00
3.15947	58.00
3.17613	58.00
3.19280	58.00
3.20947	58.00
3.22613	58.00
3.24280	58.00
3.25947	58.00
3.27613	58.00
3.29280	58.00
3.30947	58.00
3.32613	58.00
3.34280	58.00
3.35947	58.00
3.37613	58.00
3.39280	58.00
3.40947	58.00
3.42613	58.00
3.44280	58.00
3.45947	58.00
3.47613	58.00
3.49280	58.00
3.50947	58.00
3.52613	58.00
3.54280	58.00
3.55947	58.00
3.57613	58.00
3.59280	58.00
3.60947	58.00
3.62613	58.00
3.64280	58.00
3.65947	58.00
3.67613	58.00
3.69280	58.00
3.70947	58.00
3.72613	58.00
3.74280	58.00
3.75947	58.00
3.77613	58.00
3.79280	58.00
3.80947	58.00
3.82613	58.00
3.84280	58.00
3.85947	58.00
3.87613	58.00
3.89280	58.00
3.90947	58.00
3.92613	58.00
3.94280	58.00
3.95947	58.00
3.97613	58.00
3.99280	58.00

[Status Trace (Carrier Gas Flow)]
Interval(msec)	1000
# of Points	240
Start Time(min)	0.009
End Time(min)	3.993
Intensity Units	
Intensity Multiplier	1
R.Time (min)	Intensity
0.00947	34.53
0.02613	34.54
0.04280	34.54
0.05947	34.55
0.07613	34.50
0.09280	34.52
0.10947	34.52
0.12613	34.52
0.14280	34.53
0.15947	34.52
0.17613	34.52
0.19280	34.52
0.20947	34.52
0.22613	34.52
0.24280	34.52
0.25947	34.52
0.27613	34.52
0.29280	34.52
0.30947	34.52
0.32613	34.52
0.34280	34.52
0.35947	34.52
0.37613	34.52
0.39280	34.52
0.40947	34.51
0.42613	34.52
0.44280	34.52
0.45947	34.51
0.47613	34.52
0.49280	34.52
0.50947	34.52
0.52613	34.52
0.54280	34.51
0.55947	34.52
0.57613	34.52
0.59280	34.52
0.60947	34.52
0.62613	34.52
0.64280	34.52
0.65947	34.51
0.67613	34.52
0.69280	34.52
0.70947	34.52
0.72613	34.52
0.74280	34.52
0.75947	34.52
0.77613	34.52
0.79280	34.51
0.80947	34.52
0.82613	34.52
0.84280	34.51
0.85947	34.52
0.87613	34.52
0.89280	34.52
0.90947	34.52
0.92613	34.52
0.94280	34.52
0.95947	34.53
0.97613	34.51
0.99280	34.52
1.00947	34.51
1.02613	34.53
1.04280	34.51
1.05947	34.52
1.07613	34.51
1.09280	34.52
1.10947	34.52
1.12613	34.52
1.14280	34.52
1.15947	34.52
1.17613	34.51
1.19280	34.52
1.20947	34.52
1.22613	34.52
1.24280	34.52
1.25947	34.52
1.27613	34.52
1.29280	34.52
1.30947	34.52
1.32613	34.51
1.34280	34.52
1.35947	34.52
1.37613	34.52
1.39280	34.53
1.40947	34.52
1.42613	34.52
1.44280	34.51
1.45947	34.52
1.47613	34.52
1.49280	34.52
1.50947	34.52
1.52613	34.52
1.54280	34.52
1.55947	34.52
1.57613	34.51
1.59280	34.52
1.60947	34.52
1.62613	34.52
1.64280	34.51
1.65947	34.52
1.67613	34.52
1.69280	34.51
1.70947	34.52
1.72613	34.53
1.74280	34.51
1.75947	34.52
1.77613	34.52
1.79280	34.52
1.80947	34.52
1.82613	34.52
1.84280	34.52
1.85947	34.52
1.87613	34.52
1.89280	34.52
1.90947	34.52
1.92613	34.52
1.94280	34.52
1.95947	34.52
1.97613	34.51
1.99280	34.52
2.00947	34.52
2.02613	34.52
2.04280	34.52
2.05947	34.52
2.07613	34.52
2.09280	34.52
2.10947	34.52
2.12613	34.52
2.14280	34.52
2.15947	34.52
2.17613	34.52
2.19280	34.53
2.20947	34.52
2.22613	34.51
2.24280	34.52
2.25947	34.52
2.27613	34.52
2.29280	34.53
2.30947	34.52
2.32613	34.52
2.34280	34.52
2.35947	34.52
2.37613	34.52
2.39280	34.52
2.40947	34.52
2.42613	34.51
2.44280	34.52
2.45947	34.51
2.47613	34.52
2.49280	34.52
2.50947	34.51
2.52613	34.52
2.54280	34.51
2.55947	34.52
2.57613	34.52
2.59280	34.52
2.60947	34.52
2.62613	34.52
2.64280	34.52
2.65947	34.53
2.67613	34.51
2.69280	34.52
2.70947	34.52
2.72613	34.52
2.74280	34.52
2.75947	34.52
2.77613	34.51
2.79280	34.51
2.80947	34.52
2.82613	34.52
2.84280	34.52
2.85947	34.51
2.87613	34.52
2.89280	34.52
2.90947	34.52
2.92613	34.52
2.94280	34.52
2.95947	34.51
2.97613	34.52
2.99280	34.51
3.00947	34.52
3.02613	34.52
3.04280	34.51
3.05947	34.52
3.07613	34.51
3.09280	34.52
3.10947	34.51
3.12613	34.52
3.14280	34.52
3.15947	34.52
3.17613	34.52
3.19280	34.52
3.20947	34.52
3.22613	34.52
3.24280	34.51
3.25947	34.52
3.27613	34.52
3.29280	34.52
3.30947	34.51
3.32613	34.52
3.34280	34.52
3.35947	34.52
3.37613	34.52
3.39280	34.52
3.40947	34.52
3.42613	34.52
3.44280	34.52
3.45947	34.51
3.47613	34.52
3.49280	34.51
3.50947	34.52
3.52613	34.52
3.54280	34.52
3.55947	34.51
3.57613	34.52
3.59280	34.52
3.60947	34.52
3.62613	34.52
3.64280	34.52
3.65947	34.52
3.67613	34.52
3.69280	34.52
3.70947	34.51
3.72613	34.52
3.74280	34.52
3.75947	34.51
3.77613	34.52
3.79280	34.52
3.80947	34.52
3.82613	34.52
3.84280	34.52
3.85947	34.52
3.87613	34.52
3.89280	34.52
3.90947	34.52
3.92613	34.52
3.94280	34.51
3.95947	34.51
3.97613	34.52
3.99280	34.52

[Status Trace (Column Flow)]
Interval(msec)	1000
# of Points	240
Start Time(min)	0.009
End Time(min)	3.993
Intensity Units	
Intensity Multiplier	1
R.Time (min)	Intensity
0.00947	5.55
0.02613	5.22
0.04280	5.47
0.05947	5.72
0.07613	5.69
0.09280	5.55
0.10947	5.55
0.12613	5.55
0.14280	5.55
0.15947	5.55
0.17613	5.55
0.19280	5.55
0.20947	5.55
0.22613	5.55
0.24280	5.55
0.25947	5.55
0.27613	5.55
0.29280	5.55
0.30947	5.55
0.32613	5.55
0.34280	5.55
0.35947	5.55
0.37613	5.55
0.39280	5.55
0.40947	5.55
0.42613	5.55
0.44280	5.55
0.45947	5.55
0.47613	5.55
0.49280	5.55
0.50947	5.55
0.52613	5.55
0.54280	5.55
0.55947	5.55
0.57613	5.55
0.59280	5.55
0.60947	5.55
0.62613	5.55
0.64280	5.55
0.65947	5.55
0.67613	5.55
0.69280	5.55
0.70947	5.55
0.72613	5.55
0.74280	5.55
0.75947	5.55
0.77613	5.55
0.79280	5.55
0.80947	5.55
0.82613	5.55
0.84280	5.55
0.85947	5.55
0.87613	5.55
0.89280	5.55
0.90947	5.55
0.92613	5.55
0.94280	5.55
0.95947	5.55
0.97613	5.55
0.99280	5.55
1.00947	5.55
1.02613	5.55
1.04280	5.55
1.05947	5.55
1.07613	5.55
1.09280	5.55
1.10947	5.55
1.12613	5.55
1.14280	5.55
1.15947	5.55
1.17613	5.55
1.19280	5.55
1.20947	5.55
1.22613	5.55
1.24280	5.55
1.25947	5.55
1.27613	5.55
1.29280	5.55
1.30947	5.55
1.32613	5.55
1.34280	5.55
1.35947	5.55
1.37613	5.55
1.39280	5.55
1.40947	5.55
1.42613	5.55
1.44280	5.55
1.45947	5.55
1.47613	5.55
1.49280	5.55
1.50947	5.55
1.52613	5.55
1.54280	5.55
1.55947	5.55
1.57613	5.55
1.59280	5.55
1.60947	5.55
1.62613	5.55
1.64280	5.54
1.65947	5.53
1.67613	5.52
1.69280	5.51
1.70947	5.50
1.72613	5.49
1.74280	5.48
1.75947	5.47
1.77613	5.46
1.79280	5.45
1.80947	5.44
1.82613	5.43
1.84280	5.42
1.85947	5.41
1.87613	5.40
1.89280	5.39
1.90947	5.38
1.92613	5.37
1.94280	5.36
1.95947	5.35
1.97613	5.34
1.99280	5.33
2.00947	5.32
2.02613	5.31
2.04280	5.30
2.05947	5.29
2.07613	5.28
2.09280	5.27
2.10947	5.26
2.12613	5.25
2.14280	5.24
2.15947	5.23
2.17613	5.22
2.19280	5.21
2.20947	5.20
2.22613	5.19
2.24280	5.18
2.25947	5.18
2.27613	5.17
2.29280	5.16
2.30947	5.15
2.32613	5.14
2.34280	5.13
2.35947	5.12
2.37613	5.12
2.39280	5.11
2.40947	5.11
2.42613	5.11
2.44280	5.11
2.45947	5.11
2.47613	5.11
2.49280	5.11
2.50947	5.11
2.52613	5.11
2.54280	5.11
2.55947	5.11
2.57613	5.11
2.59280	5.11
2.60947	5.11
2.62613	5.11
2.64280	5.11
2.65947	5.11
2.67613	5.11
2.69280	5.11
2.70947	5.11
2.72613	5.11
2.74280	5.11
2.75947	5.11
2.77613	5.11
2.79280	5.11
2.80947	5.11
2.82613	5.11
2.84280	5.11
2.85947	5.11
2.87613	5.11
2.89280	5.11
2.90947	5.11
2.92613	5.11
2.94280	5.11
2.95947	5.11
2.97613	5.11
2.99280	5.11
3.00947	5.11
3.02613	5.11
3.04280	5.11
3.05947	5.11
3.07613	5.11
3.09280	5.11
3.10947	5.11
3.12613	5.11
3.14280	5.11
3.15947	5.11
3.17613	5.10
3.19280	5.10
3.20947	5.10
3.22613	5.10
3.24280	5.10
3.25947	5.10
3.27613	5.10
3.29280	5.10
3.30947	5.10
3.32613	5.10
3.34280	5.10
3.35947	5.10
3.37613	5.10
3.39280	5.10
3.40947	5.10
3.42613	5.10
3.44280	5.10
3.45947	5.10
3.47613	5.10
3.49280	5.10
3.50947	5.10
3.52613	5.10
3.54280	5.10
3.55947	5.10
3.57613	5.10
3.59280	5.10
3.60947	5.10
3.62613	5.10
3.64280	5.10
3.65947	5.10
3.67613	5.10
3.69280	5.10
3.70947	5.10
3.72613	5.10
3.74280	5.10
3.75947	5.10
3.77613	5.10
3.79280	5.10
3.80947	5.10
3.82613	5.10
3.84280	5.10
3.85947	5.10
3.87613	5.10
3.89280	5.11
3.90947	5.11
3.92613	5.11
3.94280	5.10
3.95947	5.10
3.97613	5.10
3.99280	5.10

[Status Trace (Linear Velocity)]
Interval(msec)	1000
# of Points	240
Start Time(min)	0.009
End Time(min)	3.993
Intensity Units	
Intensity Multiplier	1
R.Time (min)	Intensity
0.00947	39.02
0.02613	37.15
0.04280	38.56
0.05947	39.97
0.07613	39.79
0.09280	39.04
0.10947	39.01
0.12613	39.03
0.14280	39.03
0.15947	39.02
0.17613	39.02
0.19280	39.02
0.20947	39.02
0.22613	39.02
0.24280	39.02
0.25947	39.02
0.27613	39.02
0.29280	39.02
0.30947	39.02
0.32613	39.02
0.34280	39.02
0.35947	39.02
0.37613	39.02
0.39280	39.02
0.40947	39.02
0.42613	39.02
0.44280	39.02
0.45947	39.02
0.47613	39.02
0.49280	39.02
0.50947	39.02
0.52613	39.02
0.54280	39.02
0.55947	39.02
0.57613	39.02
0.59280	39.02
0.60947	39.02
0.62613	39.02
0.64280	39.02
0.65947	39.02
0.67613	39.02
0.69280	39.02
0.70947	39.02
0.72613	39.02
0.74280	39.03
0.75947	39.03
0.77613	39.03
0.79280	39.02
0.80947	39.02
0.82613	39.02
0.84280	39.02
0.85947	39.02
0.87613	39.02
0.89280	39.02
0.90947	39.02
0.92613	39.02
0.94280	39.02
0.95947	39.02
0.97613	39.02
0.99280	39.02
1.00947	39.02
1.02613	39.02
1.04280	39.02
1.05947	39.02
1.07613	39.02
1.09280	39.02
1.10947	39.02
1.12613	39.02
1.14280	39.02
1.15947	39.02
1.17613	39.02
1.19280	39.02
1.20947	39.02
1.22613	39.02
1.24280	39.02
1.25947	39.02
1.27613	39.02
1.29280	39.02
1.30947	39.02
1.32613	39.02
1.34280	39.02
1.35947	39.02
1.37613	39.02
1.39280	39.03
1.40947	39.02
1.42613	39.03
1.44280	39.03
1.45947	39.03
1.47613	39.03
1.49280	39.03
1.50947	39.03
1.52613	39.02
1.54280	39.02
1.55947	39.02
1.57613	39.02
1.59280	39.02
1.60947	39.02
1.62613	39.01
1.64280	38.99
1.65947	38.96
1.67613	38.93
1.69280	38.89
1.70947	38.86
1.72613	38.83
1.74280	38.80
1.75947	38.77
1.77613	38.74
1.79280	38.70
1.80947	38.67
1.82613	38.64
1.84280	38.61
1.85947	38.58
1.87613	38.55
1.89280	38.51
1.90947	38.48
1.92613	38.45
1.94280	38.42
1.95947	38.39
1.97613	38.36
1.99280	38.33
2.00947	38.30
2.02613	38.27
2.04280	38.24
2.05947	38.22
2.07613	38.19
2.09280	38.16
2.10947	38.13
2.12613	38.10
2.14280	38.06
2.15947	38.04
2.17613	38.01
2.19280	37.98
2.20947	37.95
2.22613	37.92
2.24280	37.89
2.25947	37.86
2.27613	37.83
2.29280	37.80
2.30947	37.77
2.32613	37.74
2.34280	37.71
2.35947	37.69
2.37613	37.67
2.39280	37.66
2.40947	37.66
2.42613	37.66
2.44280	37.66
2.45947	37.66
2.47613	37.66
2.49280	37.66
2.50947	37.66
2.52613	37.65
2.54280	37.66
2.55947	37.66
2.57613	37.66
2.59280	37.66
2.60947	37.65
2.62613	37.65
2.64280	37.65
2.65947	37.65
2.67613	37.65
2.69280	37.65
2.70947	37.65
2.72613	37.65
2.74280	37.65
2.75947	37.65
2.77613	37.65
2.79280	37.65
2.80947	37.65
2.82613	37.65
2.84280	37.65
2.85947	37.65
2.87613	37.65
2.89280	37.64
2.90947	37.65
2.92613	37.65
2.94280	37.65
2.95947	37.65
2.97613	37.65
2.99280	37.64
3.00947	37.64
3.02613	37.64
3.04280	37.64
3.05947	37.64
3.07613	37.64
3.09280	37.64
3.10947	37.64
3.12613	37.64
3.14280	37.64
3.15947	37.64
3.17613	37.63
3.19280	37.63
3.20947	37.63
3.22613	37.63
3.24280	37.63
3.25947	37.63
3.27613	37.63
3.29280	37.63
3.30947	37.63
3.32613	37.63
3.34280	37.63
3.35947	37.63
3.37613	37.63
3.39280	37.63
3.40947	37.63
3.42613	37.63
3.44280	37.63
3.45947	37.63
3.47613	37.63
3.49280	37.63
3.50947	37.63
3.52613	37.63
3.54280	37.63
3.55947	37.63
3.57613	37.63
3.59280	37.63
3.60947	37.63
3.62613	37.63
3.64280	37.63
3.65947	37.63
3.67613	37.63
3.69280	37.63
3.70947	37.63
3.72613	37.63
3.74280	37.63
3.75947	37.63
3.77613	37.63
3.79280	37.63
3.80947	37.63
3.82613	37.63
3.84280	37.63
3.85947	37.63
3.87613	37.63
3.89280	37.64
3.90947	37.64
3.92613	37.64
3.94280	37.63
3.95947	37.63
3.97613	37.63
3.99280	37.63

