[Header]
Application Name	LabSolutions
Version	5.110
Data File Name	C:\Users\User\Desktop\GC Analyses\Jack\Nachusa Grasslands Sampling\T4 Timepoint July 12th\T4_07122022_008.gcd
Output Date	3/17/2023
Output Time	12:04:51 PM

[File Information]
Type	Data File
Generated	3/14/2023 4:10:53 PM
Generated by	System Administrator
Modified	3/14/2023 4:17:28 PM
Modified by	System Administrator

[Sample Information]
Operator Name	System Administrator
Acquired	3/14/2023 4:13:27 PM
Sample Type	0:Unknown
Level	0
Sample Name	008
Sample ID	008
ISTD Amount1	1
ISTD Amount2	1
ISTD Amount3	1
ISTD Amount4	1
ISTD Amount5	1
ISTD Amount6	1
ISTD Amount7	1
ISTD Amount8	1
ISTD Amount9	1
ISTD Amount10	1
ISTD Amount11	1
ISTD Amount12	1
ISTD Amount13	1
ISTD Amount14	1
ISTD Amount15	1
ISTD Amount16	1
ISTD Amount17	1
ISTD Amount18	1
ISTD Amount19	1
ISTD Amount20	1
ISTD Amount21	1
ISTD Amount22	1
ISTD Amount23	1
ISTD Amount24	1
ISTD Amount25	1
ISTD Amount26	1
ISTD Amount27	1
ISTD Amount28	1
ISTD Amount29	1
ISTD Amount30	1
ISTD Amount31	1
ISTD Amount32	1
Sample Amount	1
Dilution Factor	1
Vial#	7
Injection Volume	1
Injection Count	1
Bar Code	

[Original Files]
Data File	C:\Users\User\Desktop\GC Analyses\Jack\Nachusa Grasslands Sampling\T4 Timepoint July 12th\T4_07122022_008.gcd
Method File	C:\LabSolutions\Data\GHG_4min_2022\ghg3_togas_w_acet_4 min_new_int.gcm
Batch File	C:\LabSolutions\Data\AutoSamplerTesting\T4_07122022.gcb
Report Format File	c:\LabSolutions\System\DEFAULT.lsr

[File Description]


[Configuration]
Instrument Name	C0B7VH3-Instrument1
Instrument #	1
Line #	1
# of Detectors	3
Detector ID	DET#1	DET#2	DET#3
Detector Name	FID	PTCD	ECD
# of Channels	1	1	1

[Peak Table(Ch1)]
# of Peaks	3
Peak#	R.Time	I.Time	F.Time	Area	Height	A/H	Conc.	Mark	ID#	Name	k'	Plate #	Plate Ht.	Tailing	Resolution	Sep.Factor	Area Ratio	Height Ratio	Conc. %	Norm Conc.
1	1.476	1.443	1.531	22294	10978	2.031	157.394	   	1	CO	0.000	9662	15.525	1.276	0.000	0.000	0	0	17.986	17.986
2	1.571	1.542	1.604	3260	1769	1.843	63.040	   	2	CH4	0.065	13270	11.303	1.056	1.664	0.000	0	0	7.204	7.204
3	2.000	1.949	2.352	2608501	1246915	2.092	654.663	   	3	CO2	0.355	17456	8.593	1.180	7.454	5.500	0	0	74.810	74.810

[Peak Table(Ch2)]
# of Peaks	0

[Peak Table(Ch3)]
# of Peaks	5
Peak#	R.Time	I.Time	F.Time	Area	Height	A/H	Conc.	Mark	ID#	Name	k'	Plate #	Plate Ht.	Tailing	Resolution	Sep.Factor	Area Ratio	Height Ratio	Conc. %	Norm Conc.
1	2.462	2.275	2.510	2303	629	3.661	0.000	   			0.000	8967	16.729	0.000	0.000	0.000	0	0	0.000	0.000
2	2.528	2.510	2.583	1223	386	3.165	0.000	 V 			0.027	4559	32.904	0.000	0.520	0.000	0	0	0.000	0.000
3	2.601	2.583	2.682	642	194	3.312	0.000	 V 			0.057	1810	82.854	0.000	0.372	2.111	0	0	0.000	0.000
4	2.880	2.697	3.107	19180	4914	3.903	0.490	   	1	N2O	0.170	13087	11.462	1.491	1.614	3.000	0	0	100.000	100.000
5	3.382	3.221	3.995	15446	586	26.365	0.000	   	2	SF6	0.374	287	523.244	2.392	1.117	2.202	0	0	0.000	0.000

[Compound Results(Ch1)]
# of IDs	6
ID#	Name	R.Time	Area	Height	Conc.	Curve	3rd	2nd	1st	Constant	Area Ratio	Height Ratio	Conc. %	Norm Conc.
1	CO	1.476	22294	10978	157.394	Linear	0.000000e+00	0.000000e+00	1.416423e+002	0.000000e+00	0	0	17.986	17.986
2	CH4	1.571	3260	1769	63.040	Linear	0.000000e+00	0.000000e+00	5.171738e+001	0.000000e+00	0	0	7.204	7.204
3	CO2	2.000	2608501	1246915	654.663	Linear	0.000000e+00	0.000000e+00	3.984494e+003	0.000000e+00	0	0	74.810	74.810
4	Ethylene	0.000	0	0	0.000	Linear	0.000000e+00	0.000000e+00	0.000000e+00	0.000000e+00	0	0	0.000	0.000
5	Acetylene	0.000	0	0	0.000	Linear	0.000000e+00	0.000000e+00	0.000000e+00	0.000000e+00	0	0	0.000	0.000
6	Ethane	0.000	0	0	0.000	Linear	0.000000e+00	0.000000e+00	0.000000e+00	0.000000e+00	0	0	0.000	0.000

[Compound Results(Ch2)]
# of IDs	5
ID#	Name	R.Time	Area	Height	Conc.	Curve	3rd	2nd	1st	Constant	Area Ratio	Height Ratio	Conc. %	Norm Conc.
1	Hydrogen	0.000	0	0	0.000	Linear	0.000000e+00	0.000000e+00	0.000000e+00	0.000000e+00	0	0	0.000	0.000
2	Oxygen	0.000	0	0	0.000	Linear	0.000000e+00	0.000000e+00	0.000000e+00	0.000000e+00	0	0	0.000	0.000
3	Nitrogen	0.000	0	0	0.000	Linear	0.000000e+00	0.000000e+00	0.000000e+00	0.000000e+00	0	0	0.000	0.000
4	Methane	0.000	0	0	0.000	Linear	0.000000e+00	0.000000e+00	0.000000e+00	0.000000e+00	0	0	0.000	0.000
5	Carbon Monoxide	0.000	0	0	0.000	Linear	0.000000e+00	0.000000e+00	0.000000e+00	0.000000e+00	0	0	0.000	0.000

[Compound Results(Ch3)]
# of IDs	2
ID#	Name	R.Time	Area	Height	Conc.	Curve	3rd	2nd	1st	Constant	Area Ratio	Height Ratio	Conc. %	Norm Conc.
1	N2O	2.880	19180	4914	0.490	Linear	0.000000e+00	0.000000e+00	3.915173e+004	0.000000e+00	0	0	100.000	100.000
2	SF6	3.382	15446	586	0.000	Linear	0.000000e+00	0.000000e+00	0.000000e+00	0.000000e+00	0	0	0.000	0.000

[Group Results(Ch1)]
# of Groups	0

[Group Results(Ch2)]
# of Groups	0

[Group Results(Ch3)]
# of Groups	0

[Chromatogram (Ch1)]
Interval(msec)	220
# of Points	1091
Start Time(min)	0.002
End Time(min)	3.998
R.Time (min)	Intensity
0.00167	-6
0.00533	-6
0.00900	-8
0.01267	-9
0.01633	-8
0.02000	-3
0.02367	1
0.02733	-1
0.03100	-3
0.03467	-2
0.03833	1
0.04200	3
0.04567	3
0.04933	2
0.05300	-1
0.05667	-3
0.06033	-1
0.06400	-2
0.06767	-8
0.07133	-11
0.07500	-10
0.07867	-6
0.08233	1
0.08600	6
0.08967	0
0.09333	-10
0.09700	-21
0.10067	-29
0.10433	-32
0.10800	-31
0.11167	-27
0.11533	-24
0.11900	-20
0.12267	-12
0.12633	-3
0.13000	3
0.13367	5
0.13733	5
0.14100	5
0.14467	1
0.14833	-8
0.15200	-18
0.15567	-24
0.15933	-25
0.16300	-17
0.16667	-6
0.17033	-2
0.17400	-6
0.17767	-17
0.18133	-28
0.18500	-37
0.18867	-44
0.19233	-46
0.19600	-43
0.19967	-39
0.20333	-34
0.20700	-26
0.21067	-19
0.21433	-13
0.21800	-6
0.22167	-1
0.22533	-1
0.22900	-5
0.23267	-12
0.23633	-19
0.24000	-24
0.24367	-24
0.24733	-19
0.25100	-13
0.25467	-10
0.25833	-3
0.26200	-1
0.26567	-4
0.26933	-13
0.27300	-19
0.27667	-18
0.28033	-11
0.28400	-3
0.28767	4
0.29133	11
0.29500	15
0.29867	15
0.30233	14
0.30600	20
0.30967	29
0.31333	37
0.31700	43
0.32067	42
0.32433	38
0.32800	32
0.33167	28
0.33533	22
0.33900	15
0.34267	10
0.34633	14
0.35000	20
0.35367	24
0.35733	29
0.36100	32
0.36467	33
0.36833	33
0.37200	33
0.37567	35
0.37933	32
0.38300	29
0.38667	28
0.39033	31
0.39400	40
0.39767	49
0.40133	48
0.40500	39
0.40867	30
0.41233	23
0.41600	19
0.41967	18
0.42333	20
0.42700	23
0.43067	27
0.43433	29
0.43800	25
0.44167	21
0.44533	17
0.44900	15
0.45267	14
0.45633	11
0.46000	5
0.46367	-3
0.46733	-11
0.47100	-16
0.47467	-17
0.47833	-17
0.48200	-18
0.48567	-19
0.48933	-25
0.49300	-28
0.49667	-23
0.50033	-18
0.50400	-14
0.50767	-11
0.51133	-10
0.51500	-11
0.51867	-13
0.52233	-14
0.52600	-13
0.52967	-15
0.53333	-17
0.53700	-16
0.54067	-9
0.54433	-1
0.54800	2
0.55167	-0
0.55533	0
0.55900	6
0.56267	16
0.56633	17
0.57000	5
0.57367	-11
0.57733	-25
0.58100	-34
0.58467	-41
0.58833	-46
0.59200	-48
0.59567	-47
0.59933	-45
0.60300	-47
0.60667	-46
0.61033	-46
0.61400	-50
0.61767	-54
0.62133	-55
0.62500	-49
0.62867	-39
0.63233	-32
0.63600	-34
0.63967	-40
0.64333	-46
0.64700	-46
0.65067	-38
0.65433	-28
0.65800	-21
0.66167	-16
0.66533	-15
0.66900	-17
0.67267	-29
0.67633	-47
0.68000	-59
0.68367	-60
0.68733	-54
0.69100	-50
0.69467	-50
0.69833	-51
0.70200	-53
0.70567	-52
0.70933	-48
0.71300	-45
0.71667	-41
0.72033	-34
0.72400	-30
0.72767	-31
0.73133	-35
0.73500	-39
0.73867	-35
0.74233	-29
0.74600	-27
0.74967	-31
0.75333	-36
0.75700	-41
0.76067	-44
0.76433	-44
0.76800	-44
0.77167	-46
0.77533	-44
0.77900	-37
0.78267	-28
0.78633	-20
0.79000	-17
0.79367	-19
0.79733	-20
0.80100	-23
0.80467	-26
0.80833	-30
0.81200	-34
0.81567	-39
0.81933	-42
0.82300	-46
0.82667	-50
0.83033	-46
0.83400	-37
0.83767	-26
0.84133	-23
0.84500	-29
0.84867	-38
0.85233	-48
0.85600	-53
0.85967	-52
0.86333	-47
0.86700	-42
0.87067	-36
0.87433	-34
0.87800	-31
0.88167	-25
0.88533	-22
0.88900	-23
0.89267	-25
0.89633	-28
0.90000	-31
0.90367	-35
0.90733	-42
0.91100	-46
0.91467	-44
0.91833	-42
0.92200	-42
0.92567	-47
0.92933	-54
0.93300	-53
0.93667	-49
0.94033	-46
0.94400	-44
0.94767	-48
0.95133	-52
0.95500	-51
0.95867	-53
0.96233	-63
0.96600	-70
0.96967	-72
0.97333	-71
0.97700	-67
0.98067	-60
0.98433	-48
0.98800	-37
0.99167	-32
0.99533	-29
0.99900	-29
1.00267	-33
1.00633	-40
1.01000	-44
1.01367	-47
1.01733	-48
1.02100	-51
1.02467	-56
1.02833	-60
1.03200	-65
1.03567	-74
1.03933	-84
1.04300	-91
1.04667	-93
1.05033	-92
1.05400	-88
1.05767	-80
1.06133	-71
1.06500	-61
1.06867	-55
1.07233	-54
1.07600	-56
1.07967	-57
1.08333	-54
1.08700	-54
1.09067	-57
1.09433	-59
1.09800	-59
1.10167	-60
1.10533	-63
1.10900	-67
1.11267	-69
1.11633	-68
1.12000	-64
1.12367	-60
1.12733	-59
1.13100	-55
1.13467	-51
1.13833	-49
1.14200	-43
1.14567	-36
1.14933	-34
1.15300	-40
1.15667	-48
1.16033	-55
1.16400	-60
1.16767	-62
1.17133	-63
1.17500	-63
1.17867	-66
1.18233	-71
1.18600	-75
1.18967	-77
1.19333	-79
1.19700	-81
1.20067	-82
1.20433	-83
1.20800	-82
1.21167	-73
1.21533	-64
1.21900	-67
1.22267	-72
1.22633	-75
1.23000	-79
1.23367	-83
1.23733	-80
1.24100	-71
1.24467	-68
1.24833	-67
1.25200	-64
1.25567	-64
1.25933	-66
1.26300	-65
1.26667	-62
1.27033	-60
1.27400	-61
1.27767	-66
1.28133	-72
1.28500	-75
1.28867	-74
1.29233	-73
1.29600	-76
1.29967	-81
1.30333	-86
1.30700	-90
1.31067	-89
1.31433	-87
1.31800	-86
1.32167	-85
1.32533	-84
1.32900	-82
1.33267	-81
1.33633	-81
1.34000	-83
1.34367	-85
1.34733	-85
1.35100	-87
1.35467	-92
1.35833	-96
1.36200	-98
1.36567	-98
1.36933	-94
1.37300	-84
1.37667	-73
1.38033	-67
1.38400	-70
1.38767	-71
1.39133	-68
1.39500	-66
1.39867	-69
1.40233	-70
1.40600	-72
1.40967	-79
1.41333	-91
1.41700	-105
1.42067	-116
1.42433	-120
1.42800	-116
1.43167	-108
1.43533	-100
1.43900	-88
1.44267	-53
1.44633	70
1.45000	421
1.45367	1288
1.45733	2895
1.46100	5006
1.46467	7132
1.46833	8918
1.47200	10208
1.47567	10904
1.47933	10891
1.48300	10126
1.48667	8742
1.49033	7034
1.49400	5320
1.49767	3825
1.50133	2639
1.50500	1756
1.50867	1119
1.51233	673
1.51600	368
1.51967	162
1.52333	28
1.52700	-58
1.53067	-109
1.53433	-137
1.53800	-147
1.54167	-120
1.54533	-7
1.54900	231
1.55267	576
1.55633	950
1.56000	1280
1.56367	1534
1.56733	1685
1.57100	1710
1.57467	1598
1.57833	1369
1.58200	1077
1.58567	784
1.58933	531
1.59300	336
1.59667	191
1.60033	84
1.60400	8
1.60767	-41
1.61133	-71
1.61500	-89
1.61867	-98
1.62233	-103
1.62600	-111
1.62967	-121
1.63333	-124
1.63700	-123
1.64067	-122
1.64433	-122
1.64800	-122
1.65167	-125
1.65533	-125
1.65900	-122
1.66267	-118
1.66633	-116
1.67000	-121
1.67367	-130
1.67733	-140
1.68100	-146
1.68467	-144
1.68833	-139
1.69200	-133
1.69567	-125
1.69933	-117
1.70300	-111
1.70667	-103
1.71033	-95
1.71400	-90
1.71767	-91
1.72133	-94
1.72500	-95
1.72867	-99
1.73233	-102
1.73600	-106
1.73967	-114
1.74333	-124
1.74700	-130
1.75067	-131
1.75433	-129
1.75800	-122
1.76167	-111
1.76533	-101
1.76900	-95
1.77267	-84
1.77633	-79
1.78000	-85
1.78367	-92
1.78733	-98
1.79100	-101
1.79467	-104
1.79833	-106
1.80200	-110
1.80567	-119
1.80933	-122
1.81300	-119
1.81667	-115
1.82033	-112
1.82400	-106
1.82767	-99
1.83133	-94
1.83500	-93
1.83867	-98
1.84233	-105
1.84600	-113
1.84967	-118
1.85333	-120
1.85700	-118
1.86067	-113
1.86433	-108
1.86800	-106
1.87167	-108
1.87533	-106
1.87900	-102
1.88267	-103
1.88633	-101
1.89000	-97
1.89367	-94
1.89733	-96
1.90100	-100
1.90467	-104
1.90833	-105
1.91200	-101
1.91567	-96
1.91933	-93
1.92300	-95
1.92667	-95
1.93033	-99
1.93400	-101
1.93767	-104
1.94133	-101
1.94500	-93
1.94867	-87
1.95233	-71
1.95600	30
1.95967	697
1.96333	4109
1.96700	17315
1.97067	56383
1.97433	145333
1.97800	301930
1.98167	518956
1.98533	761730
1.98900	986028
1.99267	1155381
1.99633	1245538
2.00000	1246867
2.00367	1165263
2.00733	1020089
2.01100	840326
2.01467	655829
2.01833	489338
2.02200	352682
2.02567	248096
2.02933	171986
2.03300	118516
2.03667	81826
2.04033	56995
2.04400	40295
2.04767	29060
2.05133	21456
2.05500	16253
2.05867	12639
2.06233	10085
2.06600	8240
2.06967	6873
2.07333	5837
2.07700	5038
2.08067	4400
2.08433	3887
2.08800	3471
2.09167	3131
2.09533	2846
2.09900	2603
2.10267	2392
2.10633	2205
2.11000	2041
2.11367	1890
2.11733	1752
2.12100	1631
2.12467	1527
2.12833	1434
2.13200	1356
2.13567	1293
2.13933	1238
2.14300	1187
2.14667	1137
2.15033	1088
2.15400	1038
2.15767	987
2.16133	938
2.16500	890
2.16867	846
2.17233	800
2.17600	762
2.17967	734
2.18333	712
2.18700	683
2.19067	647
2.19433	615
2.19800	590
2.20167	572
2.20533	558
2.20900	550
2.21267	544
2.21633	535
2.22000	520
2.22367	503
2.22733	486
2.23100	466
2.23467	442
2.23833	418
2.24200	400
2.24567	390
2.24933	382
2.25300	372
2.25667	365
2.26033	359
2.26400	355
2.26767	350
2.27133	343
2.27500	337
2.27867	323
2.28233	304
2.28600	288
2.28967	276
2.29333	272
2.29700	273
2.30067	279
2.30433	279
2.30800	274
2.31167	267
2.31533	255
2.31900	247
2.32267	247
2.32633	244
2.33000	240
2.33367	237
2.33733	234
2.34100	229
2.34467	222
2.34833	219
2.35200	222
2.35567	223
2.35933	221
2.36300	217
2.36667	210
2.37033	202
2.37400	196
2.37767	195
2.38133	194
2.38500	193
2.38867	194
2.39233	194
2.39600	198
2.39967	198
2.40333	191
2.40700	184
2.41067	177
2.41433	175
2.41800	175
2.42167	169
2.42533	162
2.42900	159
2.43267	159
2.43633	165
2.44000	170
2.44367	172
2.44733	170
2.45100	166
2.45467	162
2.45833	160
2.46200	161
2.46567	163
2.46933	154
2.47300	137
2.47667	126
2.48033	124
2.48400	129
2.48767	134
2.49133	129
2.49500	116
2.49867	111
2.50233	115
2.50600	122
2.50967	127
2.51333	133
2.51700	142
2.52067	155
2.52433	160
2.52800	153
2.53167	142
2.53533	128
2.53900	121
2.54267	122
2.54633	122
2.55000	117
2.55367	110
2.55733	103
2.56100	99
2.56467	94
2.56833	87
2.57200	83
2.57567	82
2.57933	83
2.58300	87
2.58667	91
2.59033	95
2.59400	101
2.59767	105
2.60133	106
2.60500	104
2.60867	99
2.61233	93
2.61600	84
2.61967	71
2.62333	58
2.62700	49
2.63067	48
2.63433	57
2.63800	68
2.64167	78
2.64533	86
2.64900	87
2.65267	84
2.65633	80
2.66000	79
2.66367	86
2.66733	91
2.67100	92
2.67467	92
2.67833	91
2.68200	90
2.68567	92
2.68933	97
2.69300	103
2.69667	108
2.70033	110
2.70400	108
2.70767	100
2.71133	93
2.71500	89
2.71867	85
2.72233	85
2.72600	86
2.72967	89
2.73333	92
2.73700	97
2.74067	99
2.74433	94
2.74800	88
2.75167	85
2.75533	81
2.75900	78
2.76267	77
2.76633	77
2.77000	74
2.77367	68
2.77733	66
2.78100	68
2.78467	75
2.78833	86
2.79200	97
2.79567	106
2.79933	111
2.80300	111
2.80667	110
2.81033	109
2.81400	108
2.81767	100
2.82133	94
2.82500	89
2.82867	87
2.83233	89
2.83600	89
2.83967	86
2.84333	86
2.84700	86
2.85067	88
2.85433	90
2.85800	90
2.86167	93
2.86533	102
2.86900	109
2.87267	112
2.87633	110
2.88000	101
2.88367	92
2.88733	84
2.89100	76
2.89467	68
2.89833	64
2.90200	63
2.90567	65
2.90933	68
2.91300	77
2.91667	91
2.92033	102
2.92400	108
2.92767	106
2.93133	102
2.93500	102
2.93867	108
2.94233	115
2.94600	119
2.94967	123
2.95333	131
2.95700	145
2.96067	157
2.96433	159
2.96800	147
2.97167	130
2.97533	109
2.97900	87
2.98267	72
2.98633	66
2.99000	66
2.99367	72
2.99733	85
3.00100	100
3.00467	112
3.00833	118
3.01200	123
3.01567	124
3.01933	120
3.02300	114
3.02667	109
3.03033	103
3.03400	96
3.03767	93
3.04133	95
3.04500	100
3.04867	103
3.05233	102
3.05600	94
3.05967	87
3.06333	88
3.06700	94
3.07067	98
3.07433	98
3.07800	98
3.08167	96
3.08533	96
3.08900	97
3.09267	102
3.09633	105
3.10000	108
3.10367	113
3.10733	122
3.11100	129
3.11467	128
3.11833	122
3.12200	119
3.12567	118
3.12933	116
3.13300	112
3.13667	103
3.14033	92
3.14400	83
3.14767	82
3.15133	85
3.15500	93
3.15867	101
3.16233	106
3.16600	107
3.16967	104
3.17333	95
3.17700	88
3.18067	86
3.18433	90
3.18800	94
3.19167	97
3.19533	96
3.19900	98
3.20267	105
3.20633	106
3.21000	102
3.21367	101
3.21733	103
3.22100	104
3.22467	108
3.22833	114
3.23200	119
3.23567	124
3.23933	128
3.24300	134
3.24667	140
3.25033	136
3.25400	127
3.25767	119
3.26133	119
3.26500	122
3.26867	125
3.27233	133
3.27600	139
3.27967	136
3.28333	132
3.28700	131
3.29067	129
3.29433	122
3.29800	111
3.30167	100
3.30533	93
3.30900	90
3.31267	90
3.31633	92
3.32000	97
3.32367	103
3.32733	110
3.33100	119
3.33467	122
3.33833	122
3.34200	116
3.34567	108
3.34933	100
3.35300	99
3.35667	101
3.36033	106
3.36400	110
3.36767	114
3.37133	116
3.37500	118
3.37867	119
3.38233	116
3.38600	115
3.38967	118
3.39333	120
3.39700	119
3.40067	123
3.40433	127
3.40800	130
3.41167	131
3.41533	130
3.41900	128
3.42267	128
3.42633	130
3.43000	134
3.43367	140
3.43733	142
3.44100	136
3.44467	127
3.44833	123
3.45200	117
3.45567	107
3.45933	96
3.46300	90
3.46667	89
3.47033	92
3.47400	99
3.47767	110
3.48133	122
3.48500	130
3.48867	131
3.49233	128
3.49600	122
3.49967	114
3.50333	105
3.50700	103
3.51067	106
3.51433	111
3.51800	114
3.52167	108
3.52533	96
3.52900	85
3.53267	80
3.53633	83
3.54000	89
3.54367	92
3.54733	90
3.55100	83
3.55467	79
3.55833	84
3.56200	92
3.56567	98
3.56933	102
3.57300	104
3.57667	102
3.58033	104
3.58400	107
3.58767	110
3.59133	109
3.59500	110
3.59867	117
3.60233	121
3.60600	121
3.60967	115
3.61333	109
3.61700	101
3.62067	101
3.62433	101
3.62800	103
3.63167	106
3.63533	109
3.63900	116
3.64267	119
3.64633	117
3.65000	115
3.65367	113
3.65733	118
3.66100	130
3.66467	144
3.66833	151
3.67200	147
3.67567	132
3.67933	115
3.68300	100
3.68667	83
3.69033	77
3.69400	72
3.69767	64
3.70133	54
3.70500	43
3.70867	36
3.71233	37
3.71600	40
3.71967	46
3.72333	52
3.72700	57
3.73067	64
3.73433	75
3.73800	83
3.74167	85
3.74533	83
3.74900	79
3.75267	76
3.75633	76
3.76000	79
3.76367	81
3.76733	86
3.77100	90
3.77467	92
3.77833	92
3.78200	91
3.78567	88
3.78933	86
3.79300	85
3.79667	81
3.80033	77
3.80400	70
3.80767	67
3.81133	64
3.81500	62
3.81867	64
3.82233	70
3.82600	75
3.82967	81
3.83333	84
3.83700	80
3.84067	77
3.84433	77
3.84800	77
3.85167	82
3.85533	89
3.85900	95
3.86267	100
3.86633	98
3.87000	89
3.87367	80
3.87733	73
3.88100	70
3.88467	72
3.88833	74
3.89200	78
3.89567	83
3.89933	89
3.90300	93
3.90667	91
3.91033	90
3.91400	91
3.91767	89
3.92133	89
3.92500	89
3.92867	84
3.93233	70
3.93600	55
3.93967	47
3.94333	44
3.94700	43
3.95067	46
3.95433	51
3.95800	58
3.96167	72
3.96533	88
3.96900	92
3.97267	87
3.97633	76
3.98000	65
3.98367	60
3.98733	61
3.99100	64
3.99467	64
3.99833	61

[Chromatogram (Ch2)]
Interval(msec)	220
# of Points	1091
Start Time(min)	0.002
End Time(min)	3.998
R.Time (min)	Intensity
0.00167	-0
0.00533	-0
0.00900	-0
0.01267	0
0.01633	0
0.02000	1
0.02367	1
0.02733	1
0.03100	1
0.03467	1
0.03833	1
0.04200	1
0.04567	1
0.04933	2
0.05300	2
0.05667	2
0.06033	2
0.06400	2
0.06767	3
0.07133	3
0.07500	4
0.07867	4
0.08233	4
0.08600	4
0.08967	4
0.09333	4
0.09700	4
0.10067	3
0.10433	3
0.10800	3
0.11167	3
0.11533	3
0.11900	3
0.12267	4
0.12633	4
0.13000	4
0.13367	3
0.13733	3
0.14100	3
0.14467	3
0.14833	3
0.15200	3
0.15567	2
0.15933	2
0.16300	2
0.16667	1
0.17033	1
0.17400	0
0.17767	0
0.18133	-0
0.18500	-1
0.18867	-1
0.19233	-1
0.19600	-1
0.19967	-1
0.20333	-2
0.20700	-2
0.21067	-2
0.21433	-3
0.21800	-3
0.22167	-3
0.22533	-3
0.22900	-3
0.23267	-3
0.23633	-2
0.24000	-2
0.24367	-2
0.24733	-1
0.25100	-1
0.25467	-0
0.25833	-0
0.26200	0
0.26567	0
0.26933	-0
0.27300	-0
0.27667	-1
0.28033	-1
0.28400	-1
0.28767	-1
0.29133	-0
0.29500	-0
0.29867	-0
0.30233	-0
0.30600	-0
0.30967	-0
0.31333	-0
0.31700	-0
0.32067	-0
0.32433	-0
0.32800	-0
0.33167	-1
0.33533	-1
0.33900	-1
0.34267	-2
0.34633	-2
0.35000	-2
0.35367	-2
0.35733	-2
0.36100	-2
0.36467	-2
0.36833	-2
0.37200	-2
0.37567	-2
0.37933	-2
0.38300	-1
0.38667	-1
0.39033	-1
0.39400	-0
0.39767	-0
0.40133	-0
0.40500	-0
0.40867	-0
0.41233	-0
0.41600	-0
0.41967	-1
0.42333	-1
0.42700	-1
0.43067	-1
0.43433	-1
0.43800	-0
0.44167	0
0.44533	0
0.44900	1
0.45267	1
0.45633	1
0.46000	1
0.46367	1
0.46733	1
0.47100	1
0.47467	1
0.47833	1
0.48200	1
0.48567	1
0.48933	1
0.49300	1
0.49667	1
0.50033	1
0.50400	1
0.50767	1
0.51133	1
0.51500	1
0.51867	1
0.52233	1
0.52600	1
0.52967	1
0.53333	1
0.53700	1
0.54067	1
0.54433	1
0.54800	1
0.55167	0
0.55533	0
0.55900	0
0.56267	0
0.56633	-0
0.57000	-0
0.57367	0
0.57733	0
0.58100	0
0.58467	0
0.58833	0
0.59200	0
0.59567	1
0.59933	1
0.60300	1
0.60667	0
0.61033	0
0.61400	-0
0.61767	-0
0.62133	-1
0.62500	-1
0.62867	-1
0.63233	-1
0.63600	-1
0.63967	-1
0.64333	-1
0.64700	-1
0.65067	-0
0.65433	-0
0.65800	-1
0.66167	-0
0.66533	-0
0.66900	-0
0.67267	-1
0.67633	-0
0.68000	-0
0.68367	-0
0.68733	0
0.69100	0
0.69467	1
0.69833	1
0.70200	0
0.70567	0
0.70933	0
0.71300	0
0.71667	0
0.72033	1
0.72400	1
0.72767	1
0.73133	1
0.73500	1
0.73867	2
0.74233	2
0.74600	2
0.74967	2
0.75333	2
0.75700	2
0.76067	2
0.76433	2
0.76800	1
0.77167	1
0.77533	1
0.77900	1
0.78267	1
0.78633	1
0.79000	0
0.79367	0
0.79733	1
0.80100	1
0.80467	1
0.80833	1
0.81200	1
0.81567	1
0.81933	1
0.82300	1
0.82667	1
0.83033	1
0.83400	1
0.83767	1
0.84133	1
0.84500	2
0.84867	2
0.85233	1
0.85600	1
0.85967	1
0.86333	0
0.86700	-0
0.87067	-0
0.87433	-0
0.87800	-1
0.88167	-1
0.88533	-1
0.88900	-1
0.89267	-1
0.89633	-1
0.90000	-1
0.90367	-1
0.90733	-2
0.91100	-2
0.91467	-3
0.91833	-3
0.92200	-3
0.92567	-3
0.92933	-3
0.93300	-4
0.93667	-4
0.94033	-4
0.94400	-4
0.94767	-3
0.95133	-3
0.95500	-3
0.95867	-3
0.96233	-2
0.96600	-2
0.96967	-2
0.97333	-1
0.97700	-1
0.98067	-0
0.98433	-0
0.98800	-0
0.99167	-0
0.99533	-0
0.99900	-0
1.00267	-0
1.00633	0
1.01000	0
1.01367	0
1.01733	0
1.02100	1
1.02467	1
1.02833	1
1.03200	1
1.03567	1
1.03933	0
1.04300	-0
1.04667	-0
1.05033	-0
1.05400	-0
1.05767	-0
1.06133	0
1.06500	0
1.06867	-0
1.07233	-0
1.07600	-0
1.07967	-1
1.08333	-1
1.08700	-1
1.09067	-2
1.09433	-2
1.09800	-2
1.10167	-2
1.10533	-2
1.10900	-2
1.11267	-2
1.11633	-2
1.12000	-1
1.12367	-1
1.12733	-2
1.13100	-2
1.13467	-2
1.13833	-2
1.14200	-2
1.14567	-2
1.14933	-3
1.15300	-3
1.15667	-3
1.16033	-3
1.16400	-3
1.16767	-3
1.17133	-3
1.17500	-2
1.17867	-2
1.18233	-1
1.18600	-1
1.18967	-0
1.19333	-0
1.19700	0
1.20067	0
1.20433	1
1.20800	1
1.21167	1
1.21533	1
1.21900	1
1.22267	2
1.22633	2
1.23000	2
1.23367	2
1.23733	2
1.24100	3
1.24467	3
1.24833	3
1.25200	3
1.25567	2
1.25933	2
1.26300	2
1.26667	2
1.27033	1
1.27400	1
1.27767	0
1.28133	0
1.28500	-0
1.28867	-1
1.29233	-1
1.29600	-2
1.29967	-2
1.30333	-2
1.30700	-2
1.31067	-2
1.31433	-2
1.31800	-2
1.32167	-3
1.32533	-3
1.32900	-3
1.33267	-3
1.33633	-4
1.34000	-4
1.34367	-4
1.34733	-4
1.35100	-4
1.35467	-4
1.35833	-4
1.36200	-4
1.36567	-4
1.36933	-5
1.37300	-5
1.37667	-5
1.38033	-4
1.38400	-4
1.38767	-3
1.39133	-3
1.39500	-3
1.39867	-2
1.40233	-2
1.40600	-2
1.40967	-2
1.41333	-2
1.41700	-2
1.42067	-1
1.42433	-1
1.42800	-1
1.43167	-1
1.43533	-2
1.43900	-2
1.44267	-2
1.44633	-3
1.45000	-3
1.45367	-3
1.45733	-4
1.46100	-4
1.46467	-4
1.46833	-4
1.47200	-5
1.47567	-5
1.47933	-6
1.48300	-6
1.48667	-6
1.49033	-6
1.49400	-6
1.49767	-6
1.50133	-6
1.50500	-7
1.50867	-7
1.51233	-6
1.51600	-6
1.51967	-6
1.52333	-6
1.52700	-6
1.53067	-6
1.53433	-5
1.53800	-5
1.54167	-5
1.54533	-4
1.54900	-3
1.55267	-3
1.55633	-2
1.56000	-1
1.56367	-1
1.56733	-0
1.57100	0
1.57467	1
1.57833	1
1.58200	2
1.58567	2
1.58933	2
1.59300	1
1.59667	1
1.60033	-0
1.60400	-2
1.60767	-3
1.61133	-5
1.61500	-8
1.61867	-10
1.62233	-13
1.62600	-16
1.62967	-19
1.63333	-23
1.63700	-26
1.64067	-30
1.64433	-34
1.64800	-38
1.65167	-42
1.65533	-46
1.65900	-50
1.66267	-54
1.66633	-59
1.67000	-64
1.67367	-69
1.67733	-74
1.68100	-79
1.68467	-84
1.68833	-88
1.69200	-93
1.69567	-96
1.69933	-99
1.70300	-101
1.70667	-103
1.71033	-104
1.71400	-105
1.71767	-106
1.72133	-107
1.72500	-108
1.72867	-108
1.73233	-108
1.73600	-109
1.73967	-109
1.74333	-109
1.74700	-109
1.75067	-109
1.75433	-108
1.75800	-108
1.76167	-108
1.76533	-109
1.76900	-109
1.77267	-110
1.77633	-111
1.78000	-112
1.78367	-112
1.78733	-113
1.79100	-113
1.79467	-113
1.79833	-113
1.80200	-113
1.80567	-112
1.80933	-112
1.81300	-113
1.81667	-113
1.82033	-113
1.82400	-113
1.82767	-113
1.83133	-113
1.83500	-113
1.83867	-114
1.84233	-115
1.84600	-115
1.84967	-116
1.85333	-116
1.85700	-116
1.86067	-116
1.86433	-116
1.86800	-116
1.87167	-116
1.87533	-116
1.87900	-116
1.88267	-116
1.88633	-116
1.89000	-116
1.89367	-116
1.89733	-115
1.90100	-115
1.90467	-115
1.90833	-114
1.91200	-113
1.91567	-112
1.91933	-111
1.92300	-110
1.92667	-109
1.93033	-109
1.93400	-108
1.93767	-108
1.94133	-107
1.94500	-107
1.94867	-106
1.95233	-107
1.95600	-107
1.95967	-108
1.96333	-108
1.96700	-108
1.97067	-108
1.97433	-108
1.97800	-108
1.98167	-108
1.98533	-107
1.98900	-107
1.99267	-107
1.99633	-107
2.00000	-107
2.00367	-107
2.00733	-107
2.01100	-107
2.01467	-106
2.01833	-106
2.02200	-105
2.02567	-104
2.02933	-103
2.03300	-103
2.03667	-102
2.04033	-102
2.04400	-102
2.04767	-102
2.05133	-102
2.05500	-102
2.05867	-102
2.06233	-103
2.06600	-103
2.06967	-102
2.07333	-102
2.07700	-101
2.08067	-101
2.08433	-100
2.08800	-100
2.09167	-100
2.09533	-100
2.09900	-100
2.10267	-100
2.10633	-100
2.11000	-99
2.11367	-99
2.11733	-98
2.12100	-97
2.12467	-96
2.12833	-96
2.13200	-95
2.13567	-94
2.13933	-94
2.14300	-94
2.14667	-95
2.15033	-95
2.15400	-96
2.15767	-95
2.16133	-95
2.16500	-94
2.16867	-94
2.17233	-93
2.17600	-93
2.17967	-93
2.18333	-93
2.18700	-93
2.19067	-92
2.19433	-92
2.19800	-92
2.20167	-93
2.20533	-93
2.20900	-93
2.21267	-93
2.21633	-92
2.22000	-91
2.22367	-90
2.22733	-89
2.23100	-89
2.23467	-88
2.23833	-88
2.24200	-87
2.24567	-87
2.24933	-87
2.25300	-86
2.25667	-86
2.26033	-86
2.26400	-86
2.26767	-86
2.27133	-86
2.27500	-85
2.27867	-85
2.28233	-85
2.28600	-84
2.28967	-84
2.29333	-83
2.29700	-82
2.30067	-82
2.30433	-82
2.30800	-81
2.31167	-81
2.31533	-81
2.31900	-81
2.32267	-81
2.32633	-81
2.33000	-81
2.33367	-80
2.33733	-80
2.34100	-79
2.34467	-78
2.34833	-77
2.35200	-76
2.35567	-75
2.35933	-73
2.36300	-72
2.36667	-70
2.37033	-68
2.37400	-65
2.37767	-62
2.38133	-59
2.38500	-56
2.38867	-52
2.39233	-48
2.39600	-44
2.39967	-40
2.40333	-36
2.40700	-32
2.41067	-28
2.41433	-25
2.41800	-22
2.42167	-19
2.42533	-17
2.42900	-14
2.43267	-12
2.43633	-11
2.44000	-10
2.44367	-9
2.44733	-8
2.45100	-7
2.45467	-7
2.45833	-6
2.46200	-5
2.46567	-4
2.46933	-3
2.47300	-3
2.47667	-2
2.48033	-1
2.48400	0
2.48767	1
2.49133	2
2.49500	3
2.49867	3
2.50233	4
2.50600	5
2.50967	5
2.51333	6
2.51700	6
2.52067	6
2.52433	7
2.52800	7
2.53167	8
2.53533	9
2.53900	9
2.54267	10
2.54633	10
2.55000	11
2.55367	12
2.55733	12
2.56100	13
2.56467	13
2.56833	14
2.57200	14
2.57567	14
2.57933	15
2.58300	15
2.58667	16
2.59033	16
2.59400	16
2.59767	16
2.60133	16
2.60500	16
2.60867	16
2.61233	16
2.61600	17
2.61967	17
2.62333	17
2.62700	17
2.63067	17
2.63433	17
2.63800	17
2.64167	17
2.64533	17
2.64900	17
2.65267	17
2.65633	17
2.66000	18
2.66367	18
2.66733	18
2.67100	18
2.67467	18
2.67833	19
2.68200	19
2.68567	19
2.68933	20
2.69300	20
2.69667	21
2.70033	21
2.70400	21
2.70767	22
2.71133	22
2.71500	22
2.71867	22
2.72233	22
2.72600	21
2.72967	21
2.73333	21
2.73700	21
2.74067	21
2.74433	21
2.74800	22
2.75167	22
2.75533	22
2.75900	22
2.76267	23
2.76633	23
2.77000	23
2.77367	24
2.77733	24
2.78100	24
2.78467	25
2.78833	25
2.79200	26
2.79567	26
2.79933	26
2.80300	26
2.80667	26
2.81033	26
2.81400	26
2.81767	26
2.82133	26
2.82500	26
2.82867	26
2.83233	26
2.83600	26
2.83967	26
2.84333	25
2.84700	23
2.85067	19
2.85433	13
2.85800	5
2.86167	-7
2.86533	-23
2.86900	-43
2.87267	-67
2.87633	-95
2.88000	-128
2.88367	-165
2.88733	-206
2.89100	-251
2.89467	-299
2.89833	-349
2.90200	-402
2.90567	-456
2.90933	-512
2.91300	-567
2.91667	-623
2.92033	-679
2.92400	-734
2.92767	-787
2.93133	-838
2.93500	-890
2.93867	-946
2.94233	-1006
2.94600	-1060
2.94967	-1099
2.95333	-1114
2.95700	-1103
2.96067	-1067
2.96433	-1012
2.96800	-943
2.97167	-865
2.97533	-784
2.97900	-703
2.98267	-624
2.98633	-550
2.99000	-481
2.99367	-418
2.99733	-362
3.00100	-312
3.00467	-268
3.00833	-229
3.01200	-194
3.01567	-165
3.01933	-139
3.02300	-117
3.02667	-98
3.03033	-82
3.03400	-68
3.03767	-56
3.04133	-46
3.04500	-37
3.04867	-29
3.05233	-23
3.05600	-17
3.05967	-12
3.06333	-9
3.06700	-5
3.07067	-3
3.07433	-0
3.07800	2
3.08167	4
3.08533	5
3.08900	7
3.09267	8
3.09633	9
3.10000	9
3.10367	10
3.10733	11
3.11100	12
3.11467	12
3.11833	13
3.12200	13
3.12567	14
3.12933	14
3.13300	14
3.13667	15
3.14033	15
3.14400	15
3.14767	15
3.15133	16
3.15500	16
3.15867	16
3.16233	17
3.16600	17
3.16967	17
3.17333	17
3.17700	18
3.18067	18
3.18433	18
3.18800	18
3.19167	18
3.19533	18
3.19900	18
3.20267	18
3.20633	18
3.21000	18
3.21367	18
3.21733	18
3.22100	18
3.22467	18
3.22833	18
3.23200	18
3.23567	19
3.23933	19
3.24300	19
3.24667	19
3.25033	20
3.25400	20
3.25767	21
3.26133	21
3.26500	22
3.26867	22
3.27233	22
3.27600	23
3.27967	23
3.28333	23
3.28700	23
3.29067	23
3.29433	24
3.29800	24
3.30167	24
3.30533	24
3.30900	24
3.31267	25
3.31633	25
3.32000	25
3.32367	25
3.32733	25
3.33100	26
3.33467	26
3.33833	26
3.34200	26
3.34567	27
3.34933	27
3.35300	27
3.35667	28
3.36033	28
3.36400	28
3.36767	28
3.37133	29
3.37500	29
3.37867	29
3.38233	29
3.38600	28
3.38967	28
3.39333	28
3.39700	28
3.40067	28
3.40433	28
3.40800	28
3.41167	28
3.41533	27
3.41900	27
3.42267	27
3.42633	27
3.43000	27
3.43367	26
3.43733	26
3.44100	26
3.44467	26
3.44833	26
3.45200	26
3.45567	26
3.45933	26
3.46300	26
3.46667	26
3.47033	26
3.47400	26
3.47767	27
3.48133	27
3.48500	27
3.48867	27
3.49233	27
3.49600	27
3.49967	27
3.50333	27
3.50700	27
3.51067	27
3.51433	27
3.51800	27
3.52167	27
3.52533	27
3.52900	26
3.53267	26
3.53633	26
3.54000	26
3.54367	26
3.54733	26
3.55100	26
3.55467	26
3.55833	26
3.56200	26
3.56567	26
3.56933	26
3.57300	26
3.57667	25
3.58033	25
3.58400	25
3.58767	24
3.59133	24
3.59500	24
3.59867	24
3.60233	24
3.60600	24
3.60967	24
3.61333	24
3.61700	24
3.62067	25
3.62433	25
3.62800	25
3.63167	25
3.63533	25
3.63900	25
3.64267	25
3.64633	26
3.65000	26
3.65367	26
3.65733	26
3.66100	26
3.66467	26
3.66833	26
3.67200	25
3.67567	25
3.67933	25
3.68300	25
3.68667	25
3.69033	25
3.69400	24
3.69767	24
3.70133	25
3.70500	25
3.70867	25
3.71233	25
3.71600	26
3.71967	26
3.72333	26
3.72700	26
3.73067	26
3.73433	26
3.73800	26
3.74167	26
3.74533	26
3.74900	26
3.75267	26
3.75633	26
3.76000	26
3.76367	26
3.76733	25
3.77100	25
3.77467	26
3.77833	26
3.78200	26
3.78567	26
3.78933	27
3.79300	27
3.79667	27
3.80033	27
3.80400	27
3.80767	27
3.81133	27
3.81500	27
3.81867	27
3.82233	27
3.82600	27
3.82967	27
3.83333	26
3.83700	26
3.84067	26
3.84433	26
3.84800	25
3.85167	25
3.85533	25
3.85900	25
3.86267	25
3.86633	26
3.87000	26
3.87367	26
3.87733	26
3.88100	26
3.88467	26
3.88833	26
3.89200	26
3.89567	26
3.89933	26
3.90300	26
3.90667	26
3.91033	26
3.91400	26
3.91767	26
3.92133	26
3.92500	26
3.92867	26
3.93233	26
3.93600	26
3.93967	26
3.94333	26
3.94700	26
3.95067	26
3.95433	26
3.95800	26
3.96167	26
3.96533	26
3.96900	26
3.97267	26
3.97633	26
3.98000	26
3.98367	26
3.98733	26
3.99100	26
3.99467	26
3.99833	26

[Chromatogram (Ch3)]
Interval(msec)	220
# of Points	1091
Start Time(min)	0.002
End Time(min)	3.998
R.Time (min)	Intensity
0.00167	-1
0.00533	-2
0.00900	-3
0.01267	-2
0.01633	-2
0.02000	-5
0.02367	-7
0.02733	-8
0.03100	-5
0.03467	-2
0.03833	-2
0.04200	-4
0.04567	-6
0.04933	-5
0.05300	-2
0.05667	-0
0.06033	-1
0.06400	-2
0.06767	-3
0.07133	-3
0.07500	-2
0.07867	-2
0.08233	-3
0.08600	-5
0.08967	-4
0.09333	-3
0.09700	-4
0.10067	-3
0.10433	-2
0.10800	-1
0.11167	-1
0.11533	-1
0.11900	-3
0.12267	-4
0.12633	-4
0.13000	-4
0.13367	-3
0.13733	-4
0.14100	-4
0.14467	-4
0.14833	-2
0.15200	-2
0.15567	-4
0.15933	-4
0.16300	-4
0.16667	-5
0.17033	-6
0.17400	-5
0.17767	-4
0.18133	-4
0.18500	-6
0.18867	-9
0.19233	-9
0.19600	-7
0.19967	-6
0.20333	-6
0.20700	-5
0.21067	-5
0.21433	-7
0.21800	-8
0.22167	-7
0.22533	-7
0.22900	-6
0.23267	-3
0.23633	-2
0.24000	-4
0.24367	-6
0.24733	-8
0.25100	-8
0.25467	-8
0.25833	-9
0.26200	-10
0.26567	-11
0.26933	-10
0.27300	-8
0.27667	-9
0.28033	-9
0.28400	-8
0.28767	-7
0.29133	-6
0.29500	-6
0.29867	-7
0.30233	-7
0.30600	-5
0.30967	-5
0.31333	-5
0.31700	-5
0.32067	-4
0.32433	-4
0.32800	-4
0.33167	-5
0.33533	-6
0.33900	-7
0.34267	-5
0.34633	-1
0.35000	3
0.35367	4
0.35733	2
0.36100	1
0.36467	2
0.36833	4
0.37200	6
0.37567	7
0.37933	6
0.38300	6
0.38667	6
0.39033	7
0.39400	8
0.39767	10
0.40133	11
0.40500	10
0.40867	10
0.41233	8
0.41600	5
0.41967	2
0.42333	2
0.42700	1
0.43067	1
0.43433	2
0.43800	3
0.44167	5
0.44533	6
0.44900	7
0.45267	6
0.45633	6
0.46000	5
0.46367	3
0.46733	3
0.47100	3
0.47467	2
0.47833	1
0.48200	1
0.48567	2
0.48933	3
0.49300	5
0.49667	6
0.50033	5
0.50400	3
0.50767	4
0.51133	6
0.51500	7
0.51867	7
0.52233	9
0.52600	10
0.52967	8
0.53333	5
0.53700	3
0.54067	2
0.54433	2
0.54800	2
0.55167	3
0.55533	3
0.55900	3
0.56267	4
0.56633	6
0.57000	10
0.57367	12
0.57733	10
0.58100	8
0.58467	6
0.58833	3
0.59200	4
0.59567	6
0.59933	7
0.60300	4
0.60667	4
0.61033	5
0.61400	4
0.61767	4
0.62133	3
0.62500	1
0.62867	-1
0.63233	-0
0.63600	1
0.63967	1
0.64333	2
0.64700	3
0.65067	4
0.65433	3
0.65800	2
0.66167	1
0.66533	-2
0.66900	-3
0.67267	-4
0.67633	-2
0.68000	-0
0.68367	2
0.68733	2
0.69100	2
0.69467	-0
0.69833	0
0.70200	0
0.70567	0
0.70933	-1
0.71300	-2
0.71667	-4
0.72033	-5
0.72400	-4
0.72767	-3
0.73133	-5
0.73500	-7
0.73867	-8
0.74233	-7
0.74600	-7
0.74967	-6
0.75333	-4
0.75700	-3
0.76067	-4
0.76433	-5
0.76800	-7
0.77167	-5
0.77533	-3
0.77900	-2
0.78267	-2
0.78633	-4
0.79000	-5
0.79367	-7
0.79733	-7
0.80100	-9
0.80467	-10
0.80833	-12
0.81200	-12
0.81567	-12
0.81933	-11
0.82300	-9
0.82667	-8
0.83033	-6
0.83400	-4
0.83767	-3
0.84133	-0
0.84500	-1
0.84867	-3
0.85233	-5
0.85600	-6
0.85967	-8
0.86333	-7
0.86700	-7
0.87067	-6
0.87433	-5
0.87800	-5
0.88167	-3
0.88533	-1
0.88900	-1
0.89267	-2
0.89633	-5
0.90000	-7
0.90367	-8
0.90733	-8
0.91100	-7
0.91467	-6
0.91833	-5
0.92200	-5
0.92567	-5
0.92933	-5
0.93300	-6
0.93667	-8
0.94033	-9
0.94400	-7
0.94767	-5
0.95133	-5
0.95500	-6
0.95867	-7
0.96233	-6
0.96600	-5
0.96967	-4
0.97333	-2
0.97700	-1
0.98067	-4
0.98433	-6
0.98800	-7
0.99167	-7
0.99533	-8
0.99900	-8
1.00267	-8
1.00633	-9
1.01000	-10
1.01367	-8
1.01733	-7
1.02100	-7
1.02467	-7
1.02833	-7
1.03200	-6
1.03567	-4
1.03933	-2
1.04300	-4
1.04667	-3
1.05033	-3
1.05400	-5
1.05767	-5
1.06133	-4
1.06500	-4
1.06867	-4
1.07233	-6
1.07600	-9
1.07967	-9
1.08333	-7
1.08700	-6
1.09067	-6
1.09433	-5
1.09800	-5
1.10167	-5
1.10533	-5
1.10900	-4
1.11267	-4
1.11633	-6
1.12000	-8
1.12367	-6
1.12733	-5
1.13100	-4
1.13467	-4
1.13833	-1
1.14200	-1
1.14567	-1
1.14933	-2
1.15300	-3
1.15667	-5
1.16033	-6
1.16400	-7
1.16767	-7
1.17133	-5
1.17500	-4
1.17867	-3
1.18233	-3
1.18600	-2
1.18967	-1
1.19333	-2
1.19700	-3
1.20067	-6
1.20433	-7
1.20800	-7
1.21167	-6
1.21533	-5
1.21900	-5
1.22267	-5
1.22633	-5
1.23000	-6
1.23367	-6
1.23733	-6
1.24100	-5
1.24467	-4
1.24833	-5
1.25200	-7
1.25567	-7
1.25933	-5
1.26300	-6
1.26667	-9
1.27033	-11
1.27400	-11
1.27767	-10
1.28133	-7
1.28500	-5
1.28867	-5
1.29233	-6
1.29600	-7
1.29967	-6
1.30333	-4
1.30700	-5
1.31067	-7
1.31433	-9
1.31800	-8
1.32167	-7
1.32533	-6
1.32900	-5
1.33267	-5
1.33633	-7
1.34000	-9
1.34367	-8
1.34733	-6
1.35100	-5
1.35467	-5
1.35833	-5
1.36200	-3
1.36567	-4
1.36933	-5
1.37300	-4
1.37667	-1
1.38033	-3
1.38400	-5
1.38767	-4
1.39133	-3
1.39500	-3
1.39867	-4
1.40233	-7
1.40600	-7
1.40967	-6
1.41333	-6
1.41700	-6
1.42067	-5
1.42433	-5
1.42800	-7
1.43167	-7
1.43533	-6
1.43900	-3
1.44267	-2
1.44633	-2
1.45000	-4
1.45367	-4
1.45733	-3
1.46100	-2
1.46467	-3
1.46833	-6
1.47200	-6
1.47567	-5
1.47933	-7
1.48300	-8
1.48667	-10
1.49033	-9
1.49400	-8
1.49767	-8
1.50133	-6
1.50500	-5
1.50867	-3
1.51233	-2
1.51600	-1
1.51967	-1
1.52333	-1
1.52700	-3
1.53067	-4
1.53433	-5
1.53800	-4
1.54167	-2
1.54533	-0
1.54900	2
1.55267	2
1.55633	2
1.56000	0
1.56367	-2
1.56733	-4
1.57100	-5
1.57467	-5
1.57833	-6
1.58200	-5
1.58567	-3
1.58933	-4
1.59300	-3
1.59667	-1
1.60033	1
1.60400	-0
1.60767	-4
1.61133	-3
1.61500	-4
1.61867	-4
1.62233	-5
1.62600	-6
1.62967	-6
1.63333	-5
1.63700	-4
1.64067	-3
1.64433	-1
1.64800	2
1.65167	4
1.65533	4
1.65900	3
1.66267	4
1.66633	7
1.67000	9
1.67367	10
1.67733	9
1.68100	7
1.68467	6
1.68833	6
1.69200	7
1.69567	10
1.69933	10
1.70300	10
1.70667	11
1.71033	11
1.71400	10
1.71767	10
1.72133	10
1.72500	9
1.72867	8
1.73233	6
1.73600	6
1.73967	8
1.74333	11
1.74700	12
1.75067	12
1.75433	11
1.75800	11
1.76167	14
1.76533	17
1.76900	18
1.77267	17
1.77633	14
1.78000	13
1.78367	14
1.78733	14
1.79100	13
1.79467	14
1.79833	15
1.80200	14
1.80567	16
1.80933	17
1.81300	19
1.81667	20
1.82033	20
1.82400	20
1.82767	19
1.83133	20
1.83500	20
1.83867	20
1.84233	21
1.84600	21
1.84967	22
1.85333	26
1.85700	26
1.86067	27
1.86433	27
1.86800	29
1.87167	30
1.87533	30
1.87900	30
1.88267	30
1.88633	28
1.89000	28
1.89367	30
1.89733	32
1.90100	35
1.90467	37
1.90833	36
1.91200	35
1.91567	35
1.91933	35
1.92300	35
1.92667	36
1.93033	37
1.93400	39
1.93767	42
1.94133	42
1.94500	43
1.94867	45
1.95233	49
1.95600	51
1.95967	51
1.96333	49
1.96700	47
1.97067	48
1.97433	50
1.97800	53
1.98167	54
1.98533	54
1.98900	56
1.99267	57
1.99633	58
2.00000	57
2.00367	58
2.00733	61
2.01100	64
2.01467	64
2.01833	65
2.02200	65
2.02567	66
2.02933	66
2.03300	64
2.03667	65
2.04033	67
2.04400	70
2.04767	74
2.05133	77
2.05500	78
2.05867	80
2.06233	81
2.06600	79
2.06967	78
2.07333	79
2.07700	81
2.08067	85
2.08433	86
2.08800	87
2.09167	89
2.09533	90
2.09900	92
2.10267	92
2.10633	91
2.11000	90
2.11367	90
2.11733	92
2.12100	96
2.12467	97
2.12833	97
2.13200	100
2.13567	101
2.13933	101
2.14300	101
2.14667	103
2.15033	104
2.15400	104
2.15767	104
2.16133	107
2.16500	110
2.16867	113
2.17233	114
2.17600	115
2.17967	115
2.18333	116
2.18700	117
2.19067	119
2.19433	119
2.19800	120
2.20167	122
2.20533	124
2.20900	125
2.21267	126
2.21633	126
2.22000	128
2.22367	132
2.22733	135
2.23100	137
2.23467	138
2.23833	138
2.24200	139
2.24567	140
2.24933	141
2.25300	141
2.25667	144
2.26033	147
2.26400	148
2.26767	149
2.27133	149
2.27500	150
2.27867	153
2.28233	154
2.28600	155
2.28967	156
2.29333	157
2.29700	159
2.30067	160
2.30433	160
2.30800	161
2.31167	163
2.31533	164
2.31900	167
2.32267	169
2.32633	172
2.33000	172
2.33367	172
2.33733	174
2.34100	176
2.34467	178
2.34833	180
2.35200	182
2.35567	185
2.35933	186
2.36300	184
2.36667	184
2.37033	185
2.37400	185
2.37767	185
2.38133	186
2.38500	187
2.38867	187
2.39233	189
2.39600	191
2.39967	195
2.40333	199
2.40700	202
2.41067	205
2.41433	207
2.41800	207
2.42167	208
2.42533	209
2.42900	210
2.43267	209
2.43633	210
2.44000	214
2.44367	265
2.44733	399
2.45100	547
2.45467	670
2.45833	738
2.46200	745
2.46567	720
2.46933	689
2.47300	668
2.47667	656
2.48033	641
2.48400	614
2.48767	573
2.49133	527
2.49500	486
2.49867	454
2.50233	433
2.50600	423
2.50967	423
2.51333	433
2.51700	449
2.52067	468
2.52433	484
2.52800	491
2.53167	485
2.53533	468
2.53900	442
2.54267	414
2.54633	383
2.55000	355
2.55367	331
2.55733	313
2.56100	302
2.56467	294
2.56833	287
2.57200	281
2.57567	276
2.57933	272
2.58300	270
2.58667	271
2.59033	274
2.59400	279
2.59767	283
2.60133	285
2.60500	282
2.60867	274
2.61233	266
2.61600	255
2.61967	243
2.62333	233
2.62700	222
2.63067	210
2.63433	197
2.63800	183
2.64167	170
2.64533	157
2.64900	145
2.65267	134
2.65633	123
2.66000	114
2.66367	103
2.66733	94
2.67100	86
2.67467	81
2.67833	78
2.68200	76
2.68567	74
2.68933	72
2.69300	73
2.69667	75
2.70033	79
2.70400	83
2.70767	89
2.71133	93
2.71500	95
2.71867	98
2.72233	102
2.72600	107
2.72967	110
2.73333	115
2.73700	118
2.74067	121
2.74433	124
2.74800	125
2.75167	128
2.75533	132
2.75900	134
2.76267	136
2.76633	138
2.77000	141
2.77367	146
2.77733	149
2.78100	152
2.78467	154
2.78833	159
2.79200	164
2.79567	169
2.79933	172
2.80300	175
2.80667	182
2.81033	189
2.81400	196
2.81767	203
2.82133	214
2.82500	233
2.82867	271
2.83233	342
2.83600	465
2.83967	662
2.84333	954
2.84700	1350
2.85067	1840
2.85433	2405
2.85800	3006
2.86167	3596
2.86533	4127
2.86900	4557
2.87267	4860
2.87633	5021
2.88000	5036
2.88367	4926
2.88733	4716
2.89100	4436
2.89467	4110
2.89833	3760
2.90200	3405
2.90567	3063
2.90933	2740
2.91300	2441
2.91667	2166
2.92033	1919
2.92400	1698
2.92767	1504
2.93133	1332
2.93500	1180
2.93867	1046
2.94233	929
2.94600	828
2.94967	741
2.95333	667
2.95700	600
2.96067	541
2.96433	491
2.96800	448
2.97167	410
2.97533	378
2.97900	349
2.98267	324
2.98633	304
2.99000	288
2.99367	272
2.99733	258
3.00100	247
3.00467	238
3.00833	229
3.01200	223
3.01567	216
3.01933	211
3.02300	206
3.02667	199
3.03033	193
3.03400	190
3.03767	189
3.04133	189
3.04500	189
3.04867	190
3.05233	192
3.05600	191
3.05967	188
3.06333	186
3.06700	183
3.07067	183
3.07433	183
3.07800	184
3.08167	185
3.08533	185
3.08900	185
3.09267	184
3.09633	184
3.10000	184
3.10367	183
3.10733	181
3.11100	182
3.11467	183
3.11833	184
3.12200	184
3.12567	185
3.12933	187
3.13300	189
3.13667	191
3.14033	192
3.14400	192
3.14767	193
3.15133	193
3.15500	193
3.15867	194
3.16233	196
3.16600	195
3.16967	196
3.17333	196
3.17700	197
3.18067	198
3.18433	201
3.18800	203
3.19167	206
3.19533	208
3.19900	210
3.20267	213
3.20633	216
3.21000	217
3.21367	215
3.21733	213
3.22100	217
3.22467	231
3.22833	252
3.23200	280
3.23567	313
3.23933	348
3.24300	389
3.24667	431
3.25033	469
3.25400	503
3.25767	534
3.26133	563
3.26500	588
3.26867	609
3.27233	629
3.27600	646
3.27967	664
3.28333	683
3.28700	701
3.29067	715
3.29433	727
3.29800	739
3.30167	751
3.30533	760
3.30900	767
3.31267	771
3.31633	778
3.32000	788
3.32367	796
3.32733	803
3.33100	809
3.33467	817
3.33833	824
3.34200	830
3.34567	836
3.34933	843
3.35300	850
3.35667	854
3.36033	858
3.36400	865
3.36767	870
3.37133	874
3.37500	877
3.37867	880
3.38233	883
3.38600	885
3.38967	887
3.39333	888
3.39700	890
3.40067	890
3.40433	891
3.40800	892
3.41167	892
3.41533	891
3.41900	892
3.42267	892
3.42633	889
3.43000	887
3.43367	887
3.43733	884
3.44100	878
3.44467	874
3.44833	871
3.45200	868
3.45567	867
3.45933	864
3.46300	860
3.46667	857
3.47033	855
3.47400	853
3.47767	851
3.48133	847
3.48500	843
3.48867	839
3.49233	836
3.49600	832
3.49967	831
3.50333	829
3.50700	828
3.51067	827
3.51433	824
3.51800	822
3.52167	819
3.52533	818
3.52900	817
3.53267	812
3.53633	809
3.54000	809
3.54367	810
3.54733	812
3.55100	814
3.55467	813
3.55833	813
3.56200	813
3.56567	813
3.56933	813
3.57300	814
3.57667	813
3.58033	812
3.58400	812
3.58767	811
3.59133	809
3.59500	807
3.59867	807
3.60233	806
3.60600	806
3.60967	806
3.61333	807
3.61700	807
3.62067	804
3.62433	803
3.62800	801
3.63167	799
3.63533	797
3.63900	795
3.64267	792
3.64633	794
3.65000	795
3.65367	794
3.65733	793
3.66100	792
3.66467	791
3.66833	788
3.67200	786
3.67567	784
3.67933	782
3.68300	781
3.68667	781
3.69033	780
3.69400	778
3.69767	775
3.70133	774
3.70500	771
3.70867	769
3.71233	765
3.71600	763
3.71967	762
3.72333	761
3.72700	759
3.73067	758
3.73433	756
3.73800	753
3.74167	752
3.74533	751
3.74900	748
3.75267	745
3.75633	744
3.76000	744
3.76367	743
3.76733	741
3.77100	739
3.77467	736
3.77833	734
3.78200	732
3.78567	731
3.78933	730
3.79300	726
3.79667	722
3.80033	718
3.80400	712
3.80767	707
3.81133	705
3.81500	701
3.81867	698
3.82233	693
3.82600	690
3.82967	689
3.83333	688
3.83700	688
3.84067	689
3.84433	688
3.84800	685
3.85167	684
3.85533	681
3.85900	677
3.86267	672
3.86633	668
3.87000	669
3.87367	670
3.87733	670
3.88100	666
3.88467	662
3.88833	659
3.89200	656
3.89567	653
3.89933	650
3.90300	647
3.90667	644
3.91033	642
3.91400	642
3.91767	641
3.92133	639
3.92500	638
3.92867	637
3.93233	635
3.93600	632
3.93967	631
3.94333	630
3.94700	630
3.95067	629
3.95433	627
3.95800	625
3.96167	621
3.96533	617
3.96900	614
3.97267	610
3.97633	607
3.98000	607
3.98367	606
3.98733	605
3.99100	603
3.99467	602
3.99833	599

[Status Trace (Column Oven Temperature)]
Interval(msec)	1000
# of Points	240
Start Time(min)	0.005
End Time(min)	3.988
Intensity Units	
Intensity Multiplier	1
R.Time (min)	Intensity
0.00472	35.07
0.02138	35.07
0.03805	35.06
0.05472	35.04
0.07138	35.02
0.08805	35.02
0.10472	35.02
0.12138	35.01
0.13805	35.01
0.15472	35.01
0.17138	35.02
0.18805	35.02
0.20472	35.03
0.22138	35.04
0.23805	35.03
0.25472	35.03
0.27138	35.03
0.28805	35.03
0.30472	35.03
0.32138	35.04
0.33805	35.04
0.35472	35.05
0.37138	35.05
0.38805	35.04
0.40472	35.04
0.42138	35.04
0.43805	35.03
0.45472	35.02
0.47138	35.01
0.48805	35.00
0.50472	35.00
0.52138	35.00
0.53805	34.99
0.55472	35.00
0.57138	35.00
0.58805	35.00
0.60472	35.01
0.62138	35.01
0.63805	35.02
0.65472	35.02
0.67138	35.01
0.68805	35.02
0.70472	35.01
0.72138	35.00
0.73805	34.99
0.75472	34.99
0.77138	34.98
0.78805	34.98
0.80472	34.97
0.82138	34.97
0.83805	34.97
0.85472	34.97
0.87138	34.97
0.88805	34.98
0.90472	34.99
0.92138	35.01
0.93805	35.02
0.95472	35.01
0.97138	35.00
0.98805	35.00
1.00472	34.99
1.02138	34.99
1.03805	34.99
1.05472	34.99
1.07138	34.99
1.08805	35.00
1.10472	35.00
1.12138	34.99
1.13805	35.00
1.15472	35.00
1.17138	35.00
1.18805	34.99
1.20472	34.98
1.22138	34.96
1.23805	34.95
1.25472	34.95
1.27138	34.94
1.28805	34.95
1.30472	34.95
1.32138	34.97
1.33805	34.98
1.35472	34.99
1.37138	35.00
1.38805	35.00
1.40472	35.00
1.42138	35.00
1.43805	34.99
1.45472	35.00
1.47138	35.02
1.48805	35.02
1.50472	35.04
1.52138	35.05
1.53805	35.04
1.55472	35.03
1.57138	35.01
1.58805	35.00
1.60472	35.03
1.62138	35.14
1.63805	35.31
1.65472	35.55
1.67138	35.89
1.68805	36.26
1.70472	36.62
1.72138	36.96
1.73805	37.29
1.75472	37.60
1.77138	37.94
1.78805	38.27
1.80472	38.61
1.82138	38.94
1.83805	39.27
1.85472	39.60
1.87138	39.94
1.88805	40.28
1.90472	40.62
1.92138	40.91
1.93805	41.23
1.95472	41.58
1.97138	41.89
1.98805	42.21
2.00472	42.55
2.02138	42.85
2.03805	43.18
2.05472	43.51
2.07138	43.84
2.08805	44.17
2.10472	44.51
2.12138	44.82
2.13805	45.13
2.15472	45.49
2.17138	45.80
2.18805	46.12
2.20472	46.48
2.22138	46.79
2.23805	47.11
2.25472	47.44
2.27138	47.78
2.28805	48.11
2.30472	48.43
2.32138	48.77
2.33805	49.10
2.35472	49.38
2.37138	49.59
2.38805	49.69
2.40472	49.69
2.42138	49.70
2.43805	49.70
2.45472	49.71
2.47138	49.73
2.48805	49.73
2.50472	49.75
2.52138	49.78
2.53805	49.78
2.55472	49.80
2.57138	49.81
2.58805	49.80
2.60472	49.80
2.62138	49.80
2.63805	49.82
2.65472	49.82
2.67138	49.83
2.68805	49.85
2.70472	49.85
2.72138	49.87
2.73805	49.88
2.75472	49.88
2.77138	49.88
2.78805	49.87
2.80472	49.87
2.82138	49.87
2.83805	49.87
2.85472	49.88
2.87138	49.89
2.88805	49.90
2.90472	49.91
2.92138	49.93
2.93805	49.96
2.95472	49.99
2.97138	50.00
2.98805	50.01
3.00472	50.01
3.02138	50.01
3.03805	50.00
3.05472	50.00
3.07138	50.01
3.08805	50.01
3.10472	50.02
3.12138	50.03
3.13805	50.04
3.15472	50.05
3.17138	50.05
3.18805	50.06
3.20472	50.07
3.22138	50.09
3.23805	50.11
3.25472	50.11
3.27138	50.11
3.28805	50.11
3.30472	50.10
3.32138	50.09
3.33805	50.08
3.35472	50.06
3.37138	50.05
3.38805	50.04
3.40472	50.02
3.42138	50.02
3.43805	50.02
3.45472	50.03
3.47138	50.02
3.48805	50.01
3.50472	50.01
3.52138	50.01
3.53805	50.02
3.55472	50.02
3.57138	50.03
3.58805	50.03
3.60472	50.04
3.62138	50.04
3.63805	50.04
3.65472	50.05
3.67138	50.05
3.68805	50.06
3.70472	50.05
3.72138	50.06
3.73805	50.06
3.75472	50.07
3.77138	50.06
3.78805	50.06
3.80472	50.06
3.82138	50.06
3.83805	50.06
3.85472	50.06
3.87138	50.06
3.88805	50.06
3.90472	50.06
3.92138	50.06
3.93805	50.07
3.95472	50.08
3.97138	50.06
3.98805	50.06

[Status Trace (Injection Unit Temperature)]
Interval(msec)	1000
# of Points	240
Start Time(min)	0.005
End Time(min)	3.988
Intensity Units	
Intensity Multiplier	1
R.Time (min)	Intensity
0.00472	99.97
0.02138	99.97
0.03805	99.97
0.05472	99.97
0.07138	99.97
0.08805	99.97
0.10472	99.98
0.12138	99.97
0.13805	99.97
0.15472	99.98
0.17138	99.98
0.18805	99.98
0.20472	99.98
0.22138	99.98
0.23805	99.98
0.25472	99.98
0.27138	99.98
0.28805	99.98
0.30472	99.98
0.32138	99.98
0.33805	99.98
0.35472	99.98
0.37138	99.98
0.38805	99.98
0.40472	99.98
0.42138	99.98
0.43805	99.98
0.45472	99.98
0.47138	99.98
0.48805	99.98
0.50472	99.98
0.52138	99.98
0.53805	99.98
0.55472	99.98
0.57138	99.98
0.58805	99.98
0.60472	99.98
0.62138	99.98
0.63805	99.98
0.65472	99.98
0.67138	99.97
0.68805	99.98
0.70472	99.98
0.72138	99.98
0.73805	99.98
0.75472	99.98
0.77138	99.98
0.78805	99.98
0.80472	99.98
0.82138	99.98
0.83805	99.98
0.85472	99.98
0.87138	99.98
0.88805	99.98
0.90472	99.98
0.92138	99.98
0.93805	99.98
0.95472	99.98
0.97138	99.99
0.98805	99.98
1.00472	99.98
1.02138	99.98
1.03805	99.98
1.05472	99.98
1.07138	99.98
1.08805	99.98
1.10472	99.98
1.12138	99.98
1.13805	99.99
1.15472	99.98
1.17138	99.99
1.18805	99.98
1.20472	99.98
1.22138	99.98
1.23805	99.98
1.25472	99.98
1.27138	99.98
1.28805	99.98
1.30472	99.98
1.32138	99.98
1.33805	99.98
1.35472	99.98
1.37138	99.98
1.38805	99.98
1.40472	99.98
1.42138	99.98
1.43805	99.98
1.45472	99.98
1.47138	99.98
1.48805	99.98
1.50472	99.98
1.52138	99.98
1.53805	99.98
1.55472	99.98
1.57138	99.98
1.58805	99.97
1.60472	99.98
1.62138	99.98
1.63805	99.98
1.65472	99.98
1.67138	99.98
1.68805	99.98
1.70472	99.98
1.72138	99.98
1.73805	99.99
1.75472	99.98
1.77138	99.98
1.78805	99.98
1.80472	99.98
1.82138	99.98
1.83805	99.98
1.85472	99.99
1.87138	99.98
1.88805	99.98
1.90472	99.98
1.92138	99.98
1.93805	99.98
1.95472	99.98
1.97138	99.98
1.98805	99.98
2.00472	99.98
2.02138	99.98
2.03805	99.98
2.05472	99.98
2.07138	99.98
2.08805	99.98
2.10472	99.98
2.12138	99.97
2.13805	99.98
2.15472	99.98
2.17138	99.98
2.18805	99.98
2.20472	99.97
2.22138	99.97
2.23805	99.97
2.25472	99.98
2.27138	99.98
2.28805	99.98
2.30472	99.98
2.32138	99.97
2.33805	99.98
2.35472	99.97
2.37138	99.97
2.38805	99.97
2.40472	99.97
2.42138	99.97
2.43805	99.97
2.45472	99.97
2.47138	99.97
2.48805	99.97
2.50472	99.97
2.52138	99.97
2.53805	99.97
2.55472	99.98
2.57138	99.98
2.58805	99.98
2.60472	99.98
2.62138	99.98
2.63805	99.98
2.65472	99.98
2.67138	99.98
2.68805	99.98
2.70472	99.99
2.72138	99.99
2.73805	99.99
2.75472	99.99
2.77138	100.00
2.78805	99.99
2.80472	100.00
2.82138	99.99
2.83805	99.99
2.85472	100.00
2.87138	100.00
2.88805	100.00
2.90472	100.00
2.92138	100.00
2.93805	100.00
2.95472	100.01
2.97138	100.01
2.98805	100.01
3.00472	100.01
3.02138	100.01
3.03805	100.01
3.05472	100.01
3.07138	100.01
3.08805	100.01
3.10472	100.01
3.12138	100.01
3.13805	100.01
3.15472	100.02
3.17138	100.02
3.18805	100.02
3.20472	100.02
3.22138	100.02
3.23805	100.02
3.25472	100.02
3.27138	100.02
3.28805	100.02
3.30472	100.02
3.32138	100.02
3.33805	100.02
3.35472	100.03
3.37138	100.03
3.38805	100.03
3.40472	100.03
3.42138	100.03
3.43805	100.03
3.45472	100.03
3.47138	100.03
3.48805	100.03
3.50472	100.03
3.52138	100.03
3.53805	100.03
3.55472	100.04
3.57138	100.04
3.58805	100.03
3.60472	100.04
3.62138	100.04
3.63805	100.04
3.65472	100.04
3.67138	100.04
3.68805	100.04
3.70472	100.03
3.72138	100.04
3.73805	100.04
3.75472	100.05
3.77138	100.05
3.78805	100.04
3.80472	100.04
3.82138	100.04
3.83805	100.04
3.85472	100.04
3.87138	100.04
3.88805	100.04
3.90472	100.05
3.92138	100.04
3.93805	100.05
3.95472	100.05
3.97138	100.04
3.98805	100.05

[Status Trace (Carrier Gas Pressure)]
Interval(msec)	1000
# of Points	240
Start Time(min)	0.005
End Time(min)	3.988
Intensity Units	
Intensity Multiplier	1
R.Time (min)	Intensity
0.00472	58.00
0.02138	55.92
0.03805	56.64
0.05472	58.88
0.07138	59.77
0.08805	58.18
0.10472	57.97
0.12138	58.01
0.13805	58.01
0.15472	58.01
0.17138	58.00
0.18805	58.00
0.20472	58.00
0.22138	58.00
0.23805	58.00
0.25472	58.00
0.27138	58.00
0.28805	58.00
0.30472	58.00
0.32138	58.00
0.33805	58.00
0.35472	58.00
0.37138	58.00
0.38805	58.00
0.40472	58.00
0.42138	58.00
0.43805	58.00
0.45472	58.00
0.47138	58.00
0.48805	58.00
0.50472	58.00
0.52138	58.00
0.53805	58.00
0.55472	58.00
0.57138	58.00
0.58805	58.00
0.60472	58.00
0.62138	58.00
0.63805	58.00
0.65472	58.00
0.67138	58.00
0.68805	58.00
0.70472	58.00
0.72138	58.00
0.73805	58.00
0.75472	58.00
0.77138	58.00
0.78805	58.00
0.80472	58.00
0.82138	58.00
0.83805	58.00
0.85472	58.00
0.87138	58.00
0.88805	58.00
0.90472	58.00
0.92138	58.00
0.93805	58.00
0.95472	58.00
0.97138	58.00
0.98805	58.00
1.00472	58.00
1.02138	58.00
1.03805	58.00
1.05472	58.00
1.07138	58.00
1.08805	58.00
1.10472	58.00
1.12138	58.00
1.13805	58.00
1.15472	58.00
1.17138	58.00
1.18805	58.00
1.20472	58.00
1.22138	58.00
1.23805	58.00
1.25472	58.00
1.27138	58.00
1.28805	58.00
1.30472	58.00
1.32138	58.00
1.33805	58.00
1.35472	58.00
1.37138	58.00
1.38805	58.00
1.40472	58.00
1.42138	58.00
1.43805	58.00
1.45472	58.00
1.47138	58.00
1.48805	58.00
1.50472	58.00
1.52138	58.00
1.53805	58.00
1.55472	58.00
1.57138	58.00
1.58805	58.00
1.60472	58.00
1.62138	58.00
1.63805	58.00
1.65472	58.01
1.67138	58.01
1.68805	58.00
1.70472	58.00
1.72138	58.00
1.73805	58.00
1.75472	58.00
1.77138	58.00
1.78805	58.00
1.80472	58.00
1.82138	58.00
1.83805	58.00
1.85472	58.00
1.87138	58.00
1.88805	58.00
1.90472	58.00
1.92138	58.00
1.93805	58.00
1.95472	58.00
1.97138	58.00
1.98805	58.00
2.00472	58.00
2.02138	58.00
2.03805	58.00
2.05472	58.00
2.07138	58.00
2.08805	58.00
2.10472	58.00
2.12138	58.00
2.13805	58.00
2.15472	58.00
2.17138	58.00
2.18805	58.00
2.20472	58.00
2.22138	58.00
2.23805	58.00
2.25472	58.00
2.27138	58.00
2.28805	58.00
2.30472	58.00
2.32138	58.00
2.33805	58.00
2.35472	58.00
2.37138	58.00
2.38805	57.99
2.40472	57.99
2.42138	58.00
2.43805	58.00
2.45472	58.00
2.47138	58.00
2.48805	58.00
2.50472	57.99
2.52138	57.99
2.53805	58.00
2.55472	58.00
2.57138	58.00
2.58805	58.00
2.60472	58.00
2.62138	58.00
2.63805	58.00
2.65472	58.00
2.67138	58.00
2.68805	58.00
2.70472	58.00
2.72138	58.00
2.73805	58.00
2.75472	58.00
2.77138	58.00
2.78805	58.00
2.80472	58.00
2.82138	58.00
2.83805	58.00
2.85472	58.00
2.87138	58.00
2.88805	58.00
2.90472	58.00
2.92138	58.00
2.93805	58.00
2.95472	58.00
2.97138	58.00
2.98805	58.00
3.00472	58.00
3.02138	58.00
3.03805	58.00
3.05472	58.00
3.07138	58.00
3.08805	58.00
3.10472	58.00
3.12138	58.00
3.13805	58.00
3.15472	58.00
3.17138	58.00
3.18805	58.00
3.20472	58.00
3.22138	58.00
3.23805	58.00
3.25472	58.00
3.27138	58.00
3.28805	58.00
3.30472	58.00
3.32138	58.00
3.33805	58.00
3.35472	58.00
3.37138	58.00
3.38805	58.00
3.40472	58.00
3.42138	58.00
3.43805	58.00
3.45472	58.00
3.47138	58.00
3.48805	58.00
3.50472	58.00
3.52138	58.00
3.53805	58.00
3.55472	58.00
3.57138	58.00
3.58805	58.00
3.60472	58.00
3.62138	58.00
3.63805	58.00
3.65472	58.00
3.67138	58.00
3.68805	58.00
3.70472	58.00
3.72138	58.00
3.73805	58.00
3.75472	58.00
3.77138	58.00
3.78805	58.00
3.80472	58.00
3.82138	58.00
3.83805	58.00
3.85472	58.00
3.87138	58.00
3.88805	58.00
3.90472	58.00
3.92138	58.00
3.93805	58.00
3.95472	58.00
3.97138	58.00
3.98805	58.00

[Status Trace (Carrier Gas Flow)]
Interval(msec)	1000
# of Points	240
Start Time(min)	0.005
End Time(min)	3.988
Intensity Units	
Intensity Multiplier	1
R.Time (min)	Intensity
0.00472	34.52
0.02138	34.56
0.03805	34.54
0.05472	34.55
0.07138	34.50
0.08805	34.51
0.10472	34.51
0.12138	34.52
0.13805	34.52
0.15472	34.52
0.17138	34.52
0.18805	34.52
0.20472	34.53
0.22138	34.52
0.23805	34.51
0.25472	34.51
0.27138	34.52
0.28805	34.52
0.30472	34.53
0.32138	34.52
0.33805	34.52
0.35472	34.52
0.37138	34.52
0.38805	34.52
0.40472	34.52
0.42138	34.53
0.43805	34.51
0.45472	34.52
0.47138	34.52
0.48805	34.52
0.50472	34.52
0.52138	34.52
0.53805	34.52
0.55472	34.53
0.57138	34.52
0.58805	34.52
0.60472	34.51
0.62138	34.52
0.63805	34.53
0.65472	34.52
0.67138	34.52
0.68805	34.53
0.70472	34.52
0.72138	34.52
0.73805	34.51
0.75472	34.51
0.77138	34.52
0.78805	34.52
0.80472	34.53
0.82138	34.52
0.83805	34.52
0.85472	34.52
0.87138	34.52
0.88805	34.52
0.90472	34.52
0.92138	34.52
0.93805	34.52
0.95472	34.52
0.97138	34.51
0.98805	34.53
1.00472	34.52
1.02138	34.52
1.03805	34.52
1.05472	34.52
1.07138	34.52
1.08805	34.52
1.10472	34.52
1.12138	34.51
1.13805	34.52
1.15472	34.51
1.17138	34.52
1.18805	34.52
1.20472	34.52
1.22138	34.52
1.23805	34.51
1.25472	34.53
1.27138	34.52
1.28805	34.52
1.30472	34.52
1.32138	34.52
1.33805	34.51
1.35472	34.51
1.37138	34.52
1.38805	34.52
1.40472	34.52
1.42138	34.52
1.43805	34.51
1.45472	34.52
1.47138	34.52
1.48805	34.52
1.50472	34.52
1.52138	34.52
1.53805	34.52
1.55472	34.52
1.57138	34.52
1.58805	34.51
1.60472	34.53
1.62138	34.52
1.63805	34.51
1.65472	34.52
1.67138	34.52
1.68805	34.52
1.70472	34.52
1.72138	34.51
1.73805	34.52
1.75472	34.51
1.77138	34.52
1.78805	34.51
1.80472	34.52
1.82138	34.52
1.83805	34.52
1.85472	34.52
1.87138	34.51
1.88805	34.52
1.90472	34.52
1.92138	34.51
1.93805	34.52
1.95472	34.52
1.97138	34.51
1.98805	34.52
2.00472	34.52
2.02138	34.53
2.03805	34.52
2.05472	34.52
2.07138	34.52
2.08805	34.52
2.10472	34.52
2.12138	34.52
2.13805	34.51
2.15472	34.52
2.17138	34.52
2.18805	34.52
2.20472	34.52
2.22138	34.52
2.23805	34.52
2.25472	34.52
2.27138	34.52
2.28805	34.52
2.30472	34.52
2.32138	34.52
2.33805	34.52
2.35472	34.52
2.37138	34.52
2.38805	34.52
2.40472	34.52
2.42138	34.51
2.43805	34.52
2.45472	34.52
2.47138	34.52
2.48805	34.52
2.50472	34.54
2.52138	34.52
2.53805	34.52
2.55472	34.52
2.57138	34.52
2.58805	34.52
2.60472	34.51
2.62138	34.52
2.63805	34.51
2.65472	34.52
2.67138	34.51
2.68805	34.51
2.70472	34.52
2.72138	34.52
2.73805	34.52
2.75472	34.52
2.77138	34.52
2.78805	34.51
2.80472	34.52
2.82138	34.51
2.83805	34.52
2.85472	34.52
2.87138	34.52
2.88805	34.52
2.90472	34.52
2.92138	34.52
2.93805	34.52
2.95472	34.52
2.97138	34.52
2.98805	34.52
3.00472	34.53
3.02138	34.51
3.03805	34.52
3.05472	34.52
3.07138	34.52
3.08805	34.52
3.10472	34.52
3.12138	34.51
3.13805	34.52
3.15472	34.51
3.17138	34.52
3.18805	34.52
3.20472	34.51
3.22138	34.52
3.23805	34.52
3.25472	34.52
3.27138	34.52
3.28805	34.52
3.30472	34.52
3.32138	34.53
3.33805	34.52
3.35472	34.51
3.37138	34.52
3.38805	34.52
3.40472	34.52
3.42138	34.52
3.43805	34.52
3.45472	34.52
3.47138	34.52
3.48805	34.52
3.50472	34.52
3.52138	34.52
3.53805	34.52
3.55472	34.52
3.57138	34.52
3.58805	34.52
3.60472	34.52
3.62138	34.52
3.63805	34.52
3.65472	34.52
3.67138	34.52
3.68805	34.52
3.70472	34.52
3.72138	34.52
3.73805	34.52
3.75472	34.51
3.77138	34.52
3.78805	34.52
3.80472	34.52
3.82138	34.51
3.83805	34.52
3.85472	34.52
3.87138	34.52
3.88805	34.52
3.90472	34.52
3.92138	34.51
3.93805	34.52
3.95472	34.52
3.97138	34.52
3.98805	34.52

[Status Trace (Column Flow)]
Interval(msec)	1000
# of Points	240
Start Time(min)	0.005
End Time(min)	3.988
Intensity Units	
Intensity Multiplier	1
R.Time (min)	Intensity
0.00472	5.55
0.02138	5.31
0.03805	5.40
0.05472	5.66
0.07138	5.76
0.08805	5.58
0.10472	5.55
0.12138	5.56
0.13805	5.56
0.15472	5.56
0.17138	5.56
0.18805	5.56
0.20472	5.56
0.22138	5.55
0.23805	5.55
0.25472	5.55
0.27138	5.56
0.28805	5.55
0.30472	5.55
0.32138	5.55
0.33805	5.55
0.35472	5.55
0.37138	5.55
0.38805	5.55
0.40472	5.55
0.42138	5.55
0.43805	5.55
0.45472	5.56
0.47138	5.56
0.48805	5.56
0.50472	5.56
0.52138	5.56
0.53805	5.56
0.55472	5.56
0.57138	5.56
0.58805	5.56
0.60472	5.56
0.62138	5.56
0.63805	5.56
0.65472	5.56
0.67138	5.56
0.68805	5.56
0.70472	5.56
0.72138	5.56
0.73805	5.56
0.75472	5.56
0.77138	5.56
0.78805	5.56
0.80472	5.56
0.82138	5.56
0.83805	5.56
0.85472	5.56
0.87138	5.56
0.88805	5.56
0.90472	5.56
0.92138	5.56
0.93805	5.56
0.95472	5.56
0.97138	5.56
0.98805	5.56
1.00472	5.56
1.02138	5.56
1.03805	5.56
1.05472	5.56
1.07138	5.56
1.08805	5.56
1.10472	5.56
1.12138	5.56
1.13805	5.56
1.15472	5.56
1.17138	5.56
1.18805	5.56
1.20472	5.56
1.22138	5.56
1.23805	5.56
1.25472	5.56
1.27138	5.56
1.28805	5.56
1.30472	5.56
1.32138	5.56
1.33805	5.56
1.35472	5.56
1.37138	5.56
1.38805	5.56
1.40472	5.56
1.42138	5.56
1.43805	5.56
1.45472	5.56
1.47138	5.56
1.48805	5.56
1.50472	5.55
1.52138	5.55
1.53805	5.55
1.55472	5.55
1.57138	5.56
1.58805	5.56
1.60472	5.56
1.62138	5.55
1.63805	5.55
1.65472	5.54
1.67138	5.53
1.68805	5.52
1.70472	5.50
1.72138	5.49
1.73805	5.48
1.75472	5.47
1.77138	5.46
1.78805	5.45
1.80472	5.44
1.82138	5.43
1.83805	5.42
1.85472	5.41
1.87138	5.40
1.88805	5.39
1.90472	5.38
1.92138	5.37
1.93805	5.36
1.95472	5.35
1.97138	5.34
1.98805	5.33
2.00472	5.32
2.02138	5.31
2.03805	5.31
2.05472	5.30
2.07138	5.29
2.08805	5.28
2.10472	5.27
2.12138	5.26
2.13805	5.25
2.15472	5.24
2.17138	5.23
2.18805	5.22
2.20472	5.21
2.22138	5.20
2.23805	5.19
2.25472	5.18
2.27138	5.17
2.28805	5.16
2.30472	5.15
2.32138	5.14
2.33805	5.13
2.35472	5.13
2.37138	5.12
2.38805	5.12
2.40472	5.12
2.42138	5.12
2.43805	5.12
2.45472	5.12
2.47138	5.12
2.48805	5.12
2.50472	5.12
2.52138	5.12
2.53805	5.12
2.55472	5.12
2.57138	5.12
2.58805	5.12
2.60472	5.12
2.62138	5.12
2.63805	5.12
2.65472	5.11
2.67138	5.11
2.68805	5.11
2.70472	5.11
2.72138	5.11
2.73805	5.11
2.75472	5.11
2.77138	5.11
2.78805	5.11
2.80472	5.11
2.82138	5.11
2.83805	5.11
2.85472	5.11
2.87138	5.11
2.88805	5.11
2.90472	5.11
2.92138	5.11
2.93805	5.11
2.95472	5.11
2.97138	5.11
2.98805	5.11
3.00472	5.11
3.02138	5.11
3.03805	5.11
3.05472	5.11
3.07138	5.11
3.08805	5.11
3.10472	5.11
3.12138	5.11
3.13805	5.11
3.15472	5.11
3.17138	5.11
3.18805	5.11
3.20472	5.11
3.22138	5.11
3.23805	5.11
3.25472	5.11
3.27138	5.11
3.28805	5.11
3.30472	5.11
3.32138	5.11
3.33805	5.11
3.35472	5.11
3.37138	5.11
3.38805	5.11
3.40472	5.11
3.42138	5.11
3.43805	5.11
3.45472	5.11
3.47138	5.11
3.48805	5.11
3.50472	5.11
3.52138	5.11
3.53805	5.11
3.55472	5.11
3.57138	5.11
3.58805	5.11
3.60472	5.11
3.62138	5.11
3.63805	5.11
3.65472	5.11
3.67138	5.11
3.68805	5.11
3.70472	5.11
3.72138	5.11
3.73805	5.11
3.75472	5.11
3.77138	5.11
3.78805	5.11
3.80472	5.11
3.82138	5.11
3.83805	5.11
3.85472	5.11
3.87138	5.11
3.88805	5.11
3.90472	5.11
3.92138	5.11
3.93805	5.11
3.95472	5.11
3.97138	5.11
3.98805	5.11

[Status Trace (Linear Velocity)]
Interval(msec)	1000
# of Points	240
Start Time(min)	0.005
End Time(min)	3.988
Intensity Units	
Intensity Multiplier	1
R.Time (min)	Intensity
0.00472	39.02
0.02138	37.66
0.03805	38.13
0.05472	39.60
0.07138	40.18
0.08805	39.14
0.10472	39.01
0.12138	39.03
0.13805	39.03
0.15472	39.03
0.17138	39.03
0.18805	39.02
0.20472	39.02
0.22138	39.02
0.23805	39.02
0.25472	39.02
0.27138	39.02
0.28805	39.02
0.30472	39.02
0.32138	39.02
0.33805	39.02
0.35472	39.02
0.37138	39.02
0.38805	39.02
0.40472	39.02
0.42138	39.02
0.43805	39.02
0.45472	39.02
0.47138	39.02
0.48805	39.02
0.50472	39.02
0.52138	39.03
0.53805	39.03
0.55472	39.03
0.57138	39.03
0.58805	39.02
0.60472	39.02
0.62138	39.02
0.63805	39.02
0.65472	39.02
0.67138	39.02
0.68805	39.02
0.70472	39.02
0.72138	39.02
0.73805	39.03
0.75472	39.03
0.77138	39.03
0.78805	39.03
0.80472	39.03
0.82138	39.03
0.83805	39.03
0.85472	39.03
0.87138	39.03
0.88805	39.03
0.90472	39.03
0.92138	39.02
0.93805	39.02
0.95472	39.02
0.97138	39.02
0.98805	39.02
1.00472	39.03
1.02138	39.03
1.03805	39.03
1.05472	39.03
1.07138	39.03
1.08805	39.02
1.10472	39.03
1.12138	39.02
1.13805	39.02
1.15472	39.02
1.17138	39.02
1.18805	39.03
1.20472	39.03
1.22138	39.03
1.23805	39.03
1.25472	39.03
1.27138	39.03
1.28805	39.03
1.30472	39.03
1.32138	39.03
1.33805	39.03
1.35472	39.03
1.37138	39.02
1.38805	39.02
1.40472	39.02
1.42138	39.02
1.43805	39.03
1.45472	39.02
1.47138	39.02
1.48805	39.02
1.50472	39.02
1.52138	39.02
1.53805	39.02
1.55472	39.02
1.57138	39.02
1.58805	39.02
1.60472	39.02
1.62138	39.01
1.63805	39.00
1.65472	38.97
1.67138	38.94
1.68805	38.91
1.70472	38.87
1.72138	38.84
1.73805	38.81
1.75472	38.78
1.77138	38.75
1.78805	38.71
1.80472	38.68
1.82138	38.65
1.83805	38.62
1.85472	38.59
1.87138	38.56
1.88805	38.52
1.90472	38.49
1.92138	38.46
1.93805	38.43
1.95472	38.40
1.97138	38.37
1.98805	38.34
2.00472	38.31
2.02138	38.28
2.03805	38.25
2.05472	38.22
2.07138	38.19
2.08805	38.16
2.10472	38.13
2.12138	38.10
2.13805	38.08
2.15472	38.04
2.17138	38.02
2.18805	37.99
2.20472	37.96
2.22138	37.93
2.23805	37.90
2.25472	37.87
2.27138	37.84
2.28805	37.81
2.30472	37.78
2.32138	37.75
2.33805	37.72
2.35472	37.69
2.37138	37.67
2.38805	37.66
2.40472	37.66
2.42138	37.67
2.43805	37.67
2.45472	37.66
2.47138	37.66
2.48805	37.66
2.50472	37.66
2.52138	37.65
2.53805	37.66
2.55472	37.66
2.57138	37.66
2.58805	37.66
2.60472	37.66
2.62138	37.66
2.63805	37.66
2.65472	37.66
2.67138	37.65
2.68805	37.65
2.70472	37.65
2.72138	37.65
2.73805	37.65
2.75472	37.65
2.77138	37.65
2.78805	37.65
2.80472	37.65
2.82138	37.65
2.83805	37.65
2.85472	37.65
2.87138	37.65
2.88805	37.65
2.90472	37.65
2.92138	37.65
2.93805	37.64
2.95472	37.64
2.97138	37.64
2.98805	37.64
3.00472	37.64
3.02138	37.64
3.03805	37.64
3.05472	37.64
3.07138	37.64
3.08805	37.64
3.10472	37.64
3.12138	37.64
3.13805	37.64
3.15472	37.64
3.17138	37.64
3.18805	37.64
3.20472	37.63
3.22138	37.63
3.23805	37.63
3.25472	37.63
3.27138	37.63
3.28805	37.63
3.30472	37.63
3.32138	37.63
3.33805	37.63
3.35472	37.63
3.37138	37.64
3.38805	37.64
3.40472	37.64
3.42138	37.64
3.43805	37.64
3.45472	37.64
3.47138	37.64
3.48805	37.64
3.50472	37.64
3.52138	37.64
3.53805	37.64
3.55472	37.64
3.57138	37.64
3.58805	37.64
3.60472	37.64
3.62138	37.64
3.63805	37.64
3.65472	37.64
3.67138	37.64
3.68805	37.64
3.70472	37.64
3.72138	37.63
3.73805	37.64
3.75472	37.63
3.77138	37.63
3.78805	37.64
3.80472	37.63
3.82138	37.64
3.83805	37.63
3.85472	37.63
3.87138	37.64
3.88805	37.63
3.90472	37.63
3.92138	37.63
3.93805	37.63
3.95472	37.63
3.97138	37.63
3.98805	37.63

