[Header]
Application Name	LabSolutions
Version	5.110
Data File Name	C:\Users\User\Desktop\GC Analyses\Jack\Nachusa Grasslands Sampling\T4 Timepoint July 12th\T4_07122022_042.gcd
Output Date	3/17/2023
Output Time	12:04:53 PM

[File Information]
Type	Data File
Generated	3/14/2023 8:02:03 PM
Generated by	System Administrator
Modified	3/14/2023 8:08:48 PM
Modified by	System Administrator

[Sample Information]
Operator Name	System Administrator
Acquired	3/14/2023 8:04:47 PM
Sample Type	0:Unknown
Level	0
Sample Name	042
Sample ID	042
ISTD Amount1	1
ISTD Amount2	1
ISTD Amount3	1
ISTD Amount4	1
ISTD Amount5	1
ISTD Amount6	1
ISTD Amount7	1
ISTD Amount8	1
ISTD Amount9	1
ISTD Amount10	1
ISTD Amount11	1
ISTD Amount12	1
ISTD Amount13	1
ISTD Amount14	1
ISTD Amount15	1
ISTD Amount16	1
ISTD Amount17	1
ISTD Amount18	1
ISTD Amount19	1
ISTD Amount20	1
ISTD Amount21	1
ISTD Amount22	1
ISTD Amount23	1
ISTD Amount24	1
ISTD Amount25	1
ISTD Amount26	1
ISTD Amount27	1
ISTD Amount28	1
ISTD Amount29	1
ISTD Amount30	1
ISTD Amount31	1
ISTD Amount32	1
Sample Amount	1
Dilution Factor	1
Vial#	41
Injection Volume	1
Injection Count	1
Bar Code	

[Original Files]
Data File	C:\Users\User\Desktop\GC Analyses\Jack\Nachusa Grasslands Sampling\T4 Timepoint July 12th\T4_07122022_042.gcd
Method File	C:\LabSolutions\Data\GHG_4min_2022\ghg3_togas_w_acet_4 min_new_int.gcm
Batch File	C:\LabSolutions\Data\AutoSamplerTesting\T4_07122022.gcb
Report Format File	c:\LabSolutions\System\DEFAULT.lsr

[File Description]


[Configuration]
Instrument Name	C0B7VH3-Instrument1
Instrument #	1
Line #	1
# of Detectors	3
Detector ID	DET#1	DET#2	DET#3
Detector Name	FID	PTCD	ECD
# of Channels	1	1	1

[Peak Table(Ch1)]
# of Peaks	3
Peak#	R.Time	I.Time	F.Time	Area	Height	A/H	Conc.	Mark	ID#	Name	k'	Plate #	Plate Ht.	Tailing	Resolution	Sep.Factor	Area Ratio	Height Ratio	Conc. %	Norm Conc.
1	1.476	1.439	1.534	23636	11646	2.030	166.871	   	1	CO	0.000	9657	15.533	1.282	0.000	0.000	0	0	19.909	19.909
2	1.571	1.538	1.611	3450	1800	1.916	66.707	   	2	CH4	0.065	11902	12.603	1.086	1.620	0.000	0	0	7.958	7.958
3	2.000	1.938	2.374	2409072	1148826	2.097	604.612	   	3	CO2	0.355	17427	8.607	1.178	7.259	5.500	0	0	72.133	72.133

[Peak Table(Ch2)]
# of Peaks	0

[Peak Table(Ch3)]
# of Peaks	5
Peak#	R.Time	I.Time	F.Time	Area	Height	A/H	Conc.	Mark	ID#	Name	k'	Plate #	Plate Ht.	Tailing	Resolution	Sep.Factor	Area Ratio	Height Ratio	Conc. %	Norm Conc.
1	2.462	2.301	2.510	2260	671	3.369	0.000	   			0.000	9647	15.549	0.000	0.000	0.000	0	0	0.000	0.000
2	2.528	2.510	2.576	1098	376	2.919	0.000	 V 			0.027	5334	28.119	0.000	0.553	0.000	0	0	0.000	0.000
3	2.605	2.576	2.682	759	180	4.215	0.000	 V 			0.058	1214	123.578	0.000	0.352	2.167	0	0	0.000	0.000
4	2.880	2.799	3.052	18015	4810	3.745	0.460	   	1	N2O	0.170	13329	11.254	1.505	1.379	2.923	0	0	100.000	100.000
5	3.437	3.214	3.591	909	63	14.536	0.000	   	2	SF6	0.396	1204	124.575	0.856	2.247	2.333	0	0	0.000	0.000

[Compound Results(Ch1)]
# of IDs	6
ID#	Name	R.Time	Area	Height	Conc.	Curve	3rd	2nd	1st	Constant	Area Ratio	Height Ratio	Conc. %	Norm Conc.
1	CO	1.476	23636	11646	166.871	Linear	0.000000e+00	0.000000e+00	1.416423e+002	0.000000e+00	0	0	19.909	19.909
2	CH4	1.571	3450	1800	66.707	Linear	0.000000e+00	0.000000e+00	5.171738e+001	0.000000e+00	0	0	7.958	7.958
3	CO2	2.000	2409072	1148826	604.612	Linear	0.000000e+00	0.000000e+00	3.984494e+003	0.000000e+00	0	0	72.133	72.133
4	Ethylene	0.000	0	0	0.000	Linear	0.000000e+00	0.000000e+00	0.000000e+00	0.000000e+00	0	0	0.000	0.000
5	Acetylene	0.000	0	0	0.000	Linear	0.000000e+00	0.000000e+00	0.000000e+00	0.000000e+00	0	0	0.000	0.000
6	Ethane	0.000	0	0	0.000	Linear	0.000000e+00	0.000000e+00	0.000000e+00	0.000000e+00	0	0	0.000	0.000

[Compound Results(Ch2)]
# of IDs	5
ID#	Name	R.Time	Area	Height	Conc.	Curve	3rd	2nd	1st	Constant	Area Ratio	Height Ratio	Conc. %	Norm Conc.
1	Hydrogen	0.000	0	0	0.000	Linear	0.000000e+00	0.000000e+00	0.000000e+00	0.000000e+00	0	0	0.000	0.000
2	Oxygen	0.000	0	0	0.000	Linear	0.000000e+00	0.000000e+00	0.000000e+00	0.000000e+00	0	0	0.000	0.000
3	Nitrogen	0.000	0	0	0.000	Linear	0.000000e+00	0.000000e+00	0.000000e+00	0.000000e+00	0	0	0.000	0.000
4	Methane	0.000	0	0	0.000	Linear	0.000000e+00	0.000000e+00	0.000000e+00	0.000000e+00	0	0	0.000	0.000
5	Carbon Monoxide	0.000	0	0	0.000	Linear	0.000000e+00	0.000000e+00	0.000000e+00	0.000000e+00	0	0	0.000	0.000

[Compound Results(Ch3)]
# of IDs	2
ID#	Name	R.Time	Area	Height	Conc.	Curve	3rd	2nd	1st	Constant	Area Ratio	Height Ratio	Conc. %	Norm Conc.
1	N2O	2.880	18015	4810	0.460	Linear	0.000000e+00	0.000000e+00	3.915173e+004	0.000000e+00	0	0	100.000	100.000
2	SF6	3.437	909	63	0.000	Linear	0.000000e+00	0.000000e+00	0.000000e+00	0.000000e+00	0	0	0.000	0.000

[Group Results(Ch1)]
# of Groups	0

[Group Results(Ch2)]
# of Groups	0

[Group Results(Ch3)]
# of Groups	0

[Chromatogram (Ch1)]
Interval(msec)	220
# of Points	1091
Start Time(min)	0.002
End Time(min)	3.998
R.Time (min)	Intensity
0.00167	-29
0.00533	-15
0.00900	-6
0.01267	-4
0.01633	-3
0.02000	2
0.02367	6
0.02733	4
0.03100	-1
0.03467	0
0.03833	3
0.04200	5
0.04567	10
0.04933	16
0.05300	16
0.05667	7
0.06033	-3
0.06400	1
0.06767	9
0.07133	10
0.07500	2
0.07867	-8
0.08233	-16
0.08600	-12
0.08967	-6
0.09333	-2
0.09700	-2
0.10067	-7
0.10433	-11
0.10800	-13
0.11167	-14
0.11533	-16
0.11900	-15
0.12267	-10
0.12633	-3
0.13000	3
0.13367	7
0.13733	10
0.14100	14
0.14467	17
0.14833	15
0.15200	10
0.15567	5
0.15933	5
0.16300	9
0.16667	16
0.17033	21
0.17400	14
0.17767	2
0.18133	-10
0.18500	-16
0.18867	-16
0.19233	-9
0.19600	-7
0.19967	-10
0.20333	-12
0.20700	-8
0.21067	-1
0.21433	10
0.21800	18
0.22167	17
0.22533	15
0.22900	15
0.23267	14
0.23633	6
0.24000	-2
0.24367	-3
0.24733	3
0.25100	8
0.25467	13
0.25833	15
0.26200	19
0.26567	24
0.26933	24
0.27300	21
0.27667	17
0.28033	16
0.28400	18
0.28767	17
0.29133	8
0.29500	-8
0.29867	-24
0.30233	-30
0.30600	-24
0.30967	-15
0.31333	-6
0.31700	1
0.32067	5
0.32433	4
0.32800	4
0.33167	6
0.33533	10
0.33900	12
0.34267	11
0.34633	2
0.35000	-7
0.35367	-10
0.35733	-8
0.36100	-5
0.36467	-2
0.36833	-1
0.37200	2
0.37567	6
0.37933	10
0.38300	18
0.38667	28
0.39033	33
0.39400	29
0.39767	21
0.40133	13
0.40500	8
0.40867	10
0.41233	17
0.41600	27
0.41967	33
0.42333	30
0.42700	24
0.43067	18
0.43433	14
0.43800	11
0.44167	12
0.44533	12
0.44900	10
0.45267	7
0.45633	4
0.46000	0
0.46367	0
0.46733	5
0.47100	8
0.47467	7
0.47833	2
0.48200	-2
0.48567	-3
0.48933	-1
0.49300	0
0.49667	3
0.50033	3
0.50400	8
0.50767	17
0.51133	24
0.51500	26
0.51867	24
0.52233	15
0.52600	4
0.52967	-2
0.53333	-1
0.53700	3
0.54067	7
0.54433	10
0.54800	12
0.55167	14
0.55533	16
0.55900	15
0.56267	11
0.56633	8
0.57000	15
0.57367	28
0.57733	37
0.58100	36
0.58467	28
0.58833	13
0.59200	-2
0.59567	-8
0.59933	-5
0.60300	2
0.60667	5
0.61033	0
0.61400	-10
0.61767	-20
0.62133	-25
0.62500	-25
0.62867	-23
0.63233	-16
0.63600	-8
0.63967	-1
0.64333	7
0.64700	10
0.65067	12
0.65433	15
0.65800	19
0.66167	21
0.66533	19
0.66900	13
0.67267	3
0.67633	-0
0.68000	1
0.68367	2
0.68733	9
0.69100	13
0.69467	12
0.69833	9
0.70200	7
0.70567	7
0.70933	8
0.71300	10
0.71667	10
0.72033	9
0.72400	8
0.72767	9
0.73133	15
0.73500	17
0.73867	19
0.74233	18
0.74600	16
0.74967	15
0.75333	17
0.75700	20
0.76067	19
0.76433	11
0.76800	4
0.77167	3
0.77533	2
0.77900	1
0.78267	-2
0.78633	-3
0.79000	-4
0.79367	-5
0.79733	-6
0.80100	-5
0.80467	2
0.80833	13
0.81200	22
0.81567	26
0.81933	22
0.82300	11
0.82667	-2
0.83033	-7
0.83400	-8
0.83767	-8
0.84133	-11
0.84500	-13
0.84867	-17
0.85233	-20
0.85600	-18
0.85967	-13
0.86333	-9
0.86700	-9
0.87067	-11
0.87433	-10
0.87800	-6
0.88167	-4
0.88533	-5
0.88900	-8
0.89267	-3
0.89633	7
0.90000	13
0.90367	13
0.90733	8
0.91100	4
0.91467	0
0.91833	1
0.92200	4
0.92567	6
0.92933	6
0.93300	7
0.93667	6
0.94033	4
0.94400	3
0.94767	4
0.95133	3
0.95500	-3
0.95867	-10
0.96233	-10
0.96600	-7
0.96967	-3
0.97333	-2
0.97700	0
0.98067	5
0.98433	11
0.98800	13
0.99167	7
0.99533	-2
0.99900	-12
1.00267	-15
1.00633	-14
1.01000	-10
1.01367	-6
1.01733	-1
1.02100	6
1.02467	11
1.02833	19
1.03200	26
1.03567	27
1.03933	23
1.04300	17
1.04667	12
1.05033	3
1.05400	-8
1.05767	-19
1.06133	-30
1.06500	-37
1.06867	-40
1.07233	-39
1.07600	-35
1.07967	-30
1.08333	-25
1.08700	-19
1.09067	-10
1.09433	-4
1.09800	-4
1.10167	-6
1.10533	-8
1.10900	-8
1.11267	0
1.11633	3
1.12000	2
1.12367	-1
1.12733	-9
1.13100	-20
1.13467	-23
1.13833	-17
1.14200	-6
1.14567	2
1.14933	6
1.15300	7
1.15667	5
1.16033	-0
1.16400	-4
1.16767	-1
1.17133	4
1.17500	8
1.17867	8
1.18233	7
1.18600	7
1.18967	7
1.19333	4
1.19700	-2
1.20067	-13
1.20433	-22
1.20800	-25
1.21167	-27
1.21533	-27
1.21900	-29
1.22267	-30
1.22633	-28
1.23000	-29
1.23367	-29
1.23733	-24
1.24100	-19
1.24467	-16
1.24833	-11
1.25200	-10
1.25567	-13
1.25933	-11
1.26300	-2
1.26667	4
1.27033	10
1.27400	10
1.27767	10
1.28133	12
1.28500	15
1.28867	19
1.29233	24
1.29600	28
1.29967	32
1.30333	36
1.30700	33
1.31067	24
1.31433	15
1.31800	10
1.32167	13
1.32533	21
1.32900	27
1.33267	31
1.33633	31
1.34000	34
1.34367	35
1.34733	32
1.35100	30
1.35467	23
1.35833	13
1.36200	6
1.36567	4
1.36933	1
1.37300	-7
1.37667	-11
1.38033	-14
1.38400	-17
1.38767	-19
1.39133	-16
1.39500	-6
1.39867	4
1.40233	10
1.40600	11
1.40967	14
1.41333	14
1.41700	11
1.42067	7
1.42433	4
1.42800	4
1.43167	7
1.43533	9
1.43900	12
1.44267	44
1.44633	166
1.45000	531
1.45367	1475
1.45733	3231
1.46100	5504
1.46467	7762
1.46833	9640
1.47200	10969
1.47567	11647
1.47933	11559
1.48300	10679
1.48667	9178
1.49033	7369
1.49400	5583
1.49767	4042
1.50133	2828
1.50500	1925
1.50867	1278
1.51233	830
1.51600	527
1.51967	322
1.52333	184
1.52700	89
1.53067	25
1.53433	-16
1.53800	-27
1.54167	11
1.54533	129
1.54900	364
1.55267	696
1.55633	1053
1.56000	1370
1.56367	1614
1.56733	1758
1.57100	1775
1.57467	1656
1.57833	1421
1.58200	1129
1.58567	838
1.58933	581
1.59300	380
1.59667	234
1.60033	130
1.60400	56
1.60767	5
1.61133	-24
1.61500	-38
1.61867	-44
1.62233	-45
1.62600	-43
1.62967	-37
1.63333	-29
1.63700	-25
1.64067	-28
1.64433	-32
1.64800	-37
1.65167	-38
1.65533	-39
1.65900	-46
1.66267	-57
1.66633	-64
1.67000	-65
1.67367	-61
1.67733	-57
1.68100	-55
1.68467	-53
1.68833	-53
1.69200	-58
1.69567	-61
1.69933	-63
1.70300	-63
1.70667	-63
1.71033	-59
1.71400	-49
1.71767	-38
1.72133	-31
1.72500	-28
1.72867	-31
1.73233	-42
1.73600	-53
1.73967	-63
1.74333	-66
1.74700	-68
1.75067	-64
1.75433	-60
1.75800	-59
1.76167	-55
1.76533	-43
1.76900	-34
1.77267	-34
1.77633	-32
1.78000	-27
1.78367	-24
1.78733	-20
1.79100	-23
1.79467	-31
1.79833	-35
1.80200	-41
1.80567	-46
1.80933	-47
1.81300	-50
1.81667	-51
1.82033	-47
1.82400	-39
1.82767	-34
1.83133	-32
1.83500	-31
1.83867	-29
1.84233	-30
1.84600	-34
1.84967	-37
1.85333	-39
1.85700	-39
1.86067	-38
1.86433	-37
1.86800	-36
1.87167	-37
1.87533	-34
1.87900	-24
1.88267	-8
1.88633	7
1.89000	9
1.89367	-1
1.89733	-17
1.90100	-32
1.90467	-45
1.90833	-49
1.91200	-48
1.91567	-41
1.91933	-35
1.92300	-36
1.92667	-38
1.93033	-37
1.93400	-34
1.93767	-30
1.94133	-21
1.94500	-8
1.94867	4
1.95233	21
1.95600	123
1.95967	770
1.96333	4063
1.96700	16725
1.97067	53865
1.97433	137519
1.97800	283210
1.98167	483202
1.98533	705805
1.98900	910968
1.99267	1065374
1.99633	1147649
2.00000	1148840
2.00367	1073276
2.00733	938752
2.01100	772378
2.01467	602079
2.01833	448844
2.02200	323399
2.02567	227591
2.02933	157986
2.03300	109131
2.03667	75610
2.04033	52915
2.04400	37637
2.04767	27341
2.05133	20356
2.05500	15559
2.05867	12207
2.06233	9818
2.06600	8077
2.06967	6777
2.07333	5791
2.07700	5024
2.08067	4415
2.08433	3926
2.08800	3530
2.09167	3205
2.09533	2927
2.09900	2685
2.10267	2474
2.10633	2292
2.11000	2137
2.11367	2003
2.11733	1882
2.12100	1774
2.12467	1679
2.12833	1591
2.13200	1507
2.13567	1424
2.13933	1349
2.14300	1286
2.14667	1225
2.15033	1168
2.15400	1113
2.15767	1063
2.16133	1021
2.16500	982
2.16867	948
2.17233	915
2.17600	883
2.17967	854
2.18333	828
2.18700	801
2.19067	772
2.19433	740
2.19800	708
2.20167	681
2.20533	659
2.20900	641
2.21267	629
2.21633	616
2.22000	606
2.22367	591
2.22733	579
2.23100	568
2.23467	557
2.23833	545
2.24200	531
2.24567	517
2.24933	502
2.25300	485
2.25667	470
2.26033	456
2.26400	446
2.26767	442
2.27133	438
2.27500	426
2.27867	411
2.28233	399
2.28600	387
2.28967	378
2.29333	368
2.29700	360
2.30067	355
2.30433	349
2.30800	343
2.31167	343
2.31533	347
2.31900	349
2.32267	344
2.32633	337
2.33000	327
2.33367	317
2.33733	306
2.34100	297
2.34467	295
2.34833	297
2.35200	301
2.35567	303
2.35933	301
2.36300	294
2.36667	284
2.37033	277
2.37400	275
2.37767	273
2.38133	268
2.38500	267
2.38867	267
2.39233	268
2.39600	266
2.39967	266
2.40333	266
2.40700	265
2.41067	264
2.41433	261
2.41800	261
2.42167	265
2.42533	271
2.42900	273
2.43267	267
2.43633	258
2.44000	245
2.44367	231
2.44733	221
2.45100	220
2.45467	221
2.45833	223
2.46200	226
2.46567	226
2.46933	225
2.47300	226
2.47667	227
2.48033	225
2.48400	224
2.48767	224
2.49133	222
2.49500	217
2.49867	206
2.50233	192
2.50600	184
2.50967	180
2.51333	176
2.51700	176
2.52067	179
2.52433	184
2.52800	187
2.53167	187
2.53533	188
2.53900	196
2.54267	204
2.54633	212
2.55000	214
2.55367	207
2.55733	194
2.56100	179
2.56467	162
2.56833	152
2.57200	149
2.57567	149
2.57933	148
2.58300	148
2.58667	154
2.59033	163
2.59400	173
2.59767	183
2.60133	184
2.60500	177
2.60867	167
2.61233	159
2.61600	152
2.61967	149
2.62333	149
2.62700	146
2.63067	141
2.63433	138
2.63800	134
2.64167	134
2.64533	134
2.64900	132
2.65267	132
2.65633	133
2.66000	133
2.66367	133
2.66733	136
2.67100	141
2.67467	145
2.67833	150
2.68200	155
2.68567	156
2.68933	156
2.69300	154
2.69667	153
2.70033	154
2.70400	151
2.70767	144
2.71133	136
2.71500	132
2.71867	130
2.72233	126
2.72600	124
2.72967	122
2.73333	123
2.73700	126
2.74067	131
2.74433	136
2.74800	138
2.75167	135
2.75533	131
2.75900	130
2.76267	136
2.76633	147
2.77000	154
2.77367	155
2.77733	152
2.78100	155
2.78467	157
2.78833	149
2.79200	132
2.79567	119
2.79933	109
2.80300	107
2.80667	108
2.81033	109
2.81400	112
2.81767	116
2.82133	117
2.82500	116
2.82867	116
2.83233	120
2.83600	128
2.83967	136
2.84333	141
2.84700	136
2.85067	126
2.85433	118
2.85800	112
2.86167	112
2.86533	111
2.86900	107
2.87267	103
2.87633	97
2.88000	96
2.88367	102
2.88733	106
2.89100	106
2.89467	103
2.89833	101
2.90200	107
2.90567	114
2.90933	119
2.91300	119
2.91667	115
2.92033	109
2.92400	103
2.92767	101
2.93133	103
2.93500	109
2.93867	121
2.94233	139
2.94600	150
2.94967	147
2.95333	129
2.95700	109
2.96067	95
2.96433	88
2.96800	86
2.97167	87
2.97533	89
2.97900	90
2.98267	94
2.98633	101
2.99000	103
2.99367	97
2.99733	97
3.00100	104
3.00467	115
3.00833	122
3.01200	124
3.01567	123
3.01933	121
3.02300	119
3.02667	121
3.03033	126
3.03400	128
3.03767	125
3.04133	119
3.04500	116
3.04867	114
3.05233	113
3.05600	115
3.05967	118
3.06333	120
3.06700	124
3.07067	126
3.07433	121
3.07800	116
3.08167	114
3.08533	109
3.08900	97
3.09267	93
3.09633	99
3.10000	103
3.10367	105
3.10733	106
3.11100	106
3.11467	105
3.11833	103
3.12200	98
3.12567	90
3.12933	85
3.13300	82
3.13667	82
3.14033	83
3.14400	87
3.14767	88
3.15133	87
3.15500	89
3.15867	98
3.16233	108
3.16600	109
3.16967	105
3.17333	104
3.17700	107
3.18067	110
3.18433	112
3.18800	112
3.19167	110
3.19533	106
3.19900	102
3.20267	100
3.20633	98
3.21000	96
3.21367	94
3.21733	95
3.22100	98
3.22467	99
3.22833	93
3.23200	82
3.23567	77
3.23933	75
3.24300	76
3.24667	76
3.25033	73
3.25400	71
3.25767	70
3.26133	68
3.26500	62
3.26867	56
3.27233	55
3.27600	63
3.27967	78
3.28333	89
3.28700	97
3.29067	101
3.29433	99
3.29800	98
3.30167	94
3.30533	88
3.30900	83
3.31267	79
3.31633	76
3.32000	80
3.32367	81
3.32733	77
3.33100	73
3.33467	72
3.33833	75
3.34200	79
3.34567	85
3.34933	95
3.35300	105
3.35667	107
3.36033	106
3.36400	99
3.36767	85
3.37133	76
3.37500	71
3.37867	64
3.38233	55
3.38600	50
3.38967	53
3.39333	62
3.39700	71
3.40067	80
3.40433	89
3.40800	84
3.41167	70
3.41533	58
3.41900	47
3.42267	40
3.42633	39
3.43000	40
3.43367	44
3.43733	49
3.44100	52
3.44467	54
3.44833	59
3.45200	65
3.45567	69
3.45933	68
3.46300	66
3.46667	62
3.47033	63
3.47400	64
3.47767	64
3.48133	65
3.48500	62
3.48867	55
3.49233	49
3.49600	43
3.49967	40
3.50333	39
3.50700	40
3.51067	43
3.51433	48
3.51800	53
3.52167	53
3.52533	52
3.52900	56
3.53267	59
3.53633	60
3.54000	54
3.54367	42
3.54733	30
3.55100	23
3.55467	20
3.55833	19
3.56200	23
3.56567	36
3.56933	46
3.57300	46
3.57667	44
3.58033	44
3.58400	46
3.58767	51
3.59133	56
3.59500	60
3.59867	64
3.60233	65
3.60600	60
3.60967	52
3.61333	41
3.61700	30
3.62067	23
3.62433	26
3.62800	30
3.63167	28
3.63533	24
3.63900	23
3.64267	26
3.64633	29
3.65000	32
3.65367	36
3.65733	35
3.66100	35
3.66467	37
3.66833	41
3.67200	46
3.67567	49
3.67933	50
3.68300	50
3.68667	48
3.69033	44
3.69400	43
3.69767	44
3.70133	43
3.70500	43
3.70867	40
3.71233	37
3.71600	31
3.71967	26
3.72333	26
3.72700	27
3.73067	22
3.73433	17
3.73800	17
3.74167	21
3.74533	22
3.74900	21
3.75267	18
3.75633	17
3.76000	19
3.76367	23
3.76733	24
3.77100	23
3.77467	24
3.77833	23
3.78200	20
3.78567	19
3.78933	20
3.79300	21
3.79667	19
3.80033	15
3.80400	17
3.80767	24
3.81133	28
3.81500	26
3.81867	20
3.82233	15
3.82600	10
3.82967	7
3.83333	9
3.83700	15
3.84067	18
3.84433	19
3.84800	21
3.85167	26
3.85533	26
3.85900	20
3.86267	12
3.86633	2
3.87000	-7
3.87367	-7
3.87733	-1
3.88100	6
3.88467	10
3.88833	11
3.89200	12
3.89567	14
3.89933	12
3.90300	8
3.90667	5
3.91033	-0
3.91400	-4
3.91767	-5
3.92133	-4
3.92500	1
3.92867	6
3.93233	8
3.93600	8
3.93967	8
3.94333	12
3.94700	15
3.95067	16
3.95433	16
3.95800	15
3.96167	15
3.96533	15
3.96900	9
3.97267	3
3.97633	5
3.98000	9
3.98367	9
3.98733	7
3.99100	1
3.99467	-9
3.99833	-15

[Chromatogram (Ch2)]
Interval(msec)	220
# of Points	1091
Start Time(min)	0.002
End Time(min)	3.998
R.Time (min)	Intensity
0.00167	-0
0.00533	-0
0.00900	-0
0.01267	-0
0.01633	-0
0.02000	0
0.02367	1
0.02733	1
0.03100	1
0.03467	1
0.03833	1
0.04200	1
0.04567	1
0.04933	1
0.05300	1
0.05667	1
0.06033	1
0.06400	1
0.06767	1
0.07133	1
0.07500	2
0.07867	2
0.08233	2
0.08600	2
0.08967	2
0.09333	2
0.09700	2
0.10067	3
0.10433	3
0.10800	4
0.11167	4
0.11533	4
0.11900	4
0.12267	4
0.12633	3
0.13000	3
0.13367	2
0.13733	1
0.14100	1
0.14467	1
0.14833	1
0.15200	0
0.15567	0
0.15933	0
0.16300	0
0.16667	-0
0.17033	-0
0.17400	-1
0.17767	-1
0.18133	-1
0.18500	-1
0.18867	-1
0.19233	-1
0.19600	-1
0.19967	-1
0.20333	-1
0.20700	-0
0.21067	0
0.21433	1
0.21800	1
0.22167	1
0.22533	2
0.22900	2
0.23267	2
0.23633	2
0.24000	2
0.24367	2
0.24733	2
0.25100	2
0.25467	2
0.25833	3
0.26200	3
0.26567	3
0.26933	3
0.27300	3
0.27667	2
0.28033	2
0.28400	2
0.28767	2
0.29133	1
0.29500	1
0.29867	1
0.30233	1
0.30600	0
0.30967	0
0.31333	0
0.31700	0
0.32067	0
0.32433	0
0.32800	1
0.33167	1
0.33533	1
0.33900	2
0.34267	2
0.34633	2
0.35000	2
0.35367	2
0.35733	2
0.36100	2
0.36467	2
0.36833	2
0.37200	2
0.37567	2
0.37933	2
0.38300	1
0.38667	1
0.39033	1
0.39400	0
0.39767	-0
0.40133	-1
0.40500	-1
0.40867	-2
0.41233	-2
0.41600	-3
0.41967	-3
0.42333	-3
0.42700	-4
0.43067	-4
0.43433	-4
0.43800	-4
0.44167	-4
0.44533	-5
0.44900	-4
0.45267	-4
0.45633	-4
0.46000	-3
0.46367	-3
0.46733	-3
0.47100	-3
0.47467	-3
0.47833	-2
0.48200	-2
0.48567	-2
0.48933	-2
0.49300	-2
0.49667	-1
0.50033	-1
0.50400	-1
0.50767	-0
0.51133	-0
0.51500	0
0.51867	0
0.52233	0
0.52600	0
0.52967	0
0.53333	-0
0.53700	-0
0.54067	-0
0.54433	-0
0.54800	0
0.55167	0
0.55533	1
0.55900	1
0.56267	1
0.56633	1
0.57000	1
0.57367	1
0.57733	1
0.58100	1
0.58467	1
0.58833	2
0.59200	2
0.59567	2
0.59933	2
0.60300	2
0.60667	2
0.61033	2
0.61400	1
0.61767	1
0.62133	1
0.62500	0
0.62867	0
0.63233	-0
0.63600	-1
0.63967	-1
0.64333	-1
0.64700	-1
0.65067	-0
0.65433	-0
0.65800	-0
0.66167	0
0.66533	0
0.66900	0
0.67267	0
0.67633	0
0.68000	0
0.68367	1
0.68733	1
0.69100	1
0.69467	1
0.69833	0
0.70200	0
0.70567	-0
0.70933	-0
0.71300	-0
0.71667	-1
0.72033	-1
0.72400	-1
0.72767	-1
0.73133	-1
0.73500	-1
0.73867	-1
0.74233	-1
0.74600	-1
0.74967	-1
0.75333	-1
0.75700	-1
0.76067	-0
0.76433	0
0.76800	0
0.77167	1
0.77533	1
0.77900	1
0.78267	2
0.78633	2
0.79000	2
0.79367	2
0.79733	2
0.80100	1
0.80467	1
0.80833	0
0.81200	-0
0.81567	-1
0.81933	-1
0.82300	-2
0.82667	-2
0.83033	-2
0.83400	-2
0.83767	-2
0.84133	-2
0.84500	-2
0.84867	-1
0.85233	-1
0.85600	-0
0.85967	-0
0.86333	-0
0.86700	0
0.87067	0
0.87433	0
0.87800	0
0.88167	0
0.88533	0
0.88900	1
0.89267	1
0.89633	1
0.90000	1
0.90367	1
0.90733	0
0.91100	0
0.91467	-0
0.91833	-1
0.92200	-1
0.92567	-1
0.92933	-2
0.93300	-2
0.93667	-2
0.94033	-3
0.94400	-3
0.94767	-3
0.95133	-3
0.95500	-3
0.95867	-3
0.96233	-3
0.96600	-2
0.96967	-2
0.97333	-2
0.97700	-1
0.98067	-1
0.98433	-1
0.98800	-0
0.99167	-0
0.99533	-0
0.99900	-0
1.00267	-0
1.00633	-0
1.01000	0
1.01367	0
1.01733	1
1.02100	1
1.02467	1
1.02833	1
1.03200	1
1.03567	1
1.03933	1
1.04300	1
1.04667	1
1.05033	1
1.05400	1
1.05767	0
1.06133	0
1.06500	-0
1.06867	-0
1.07233	-0
1.07600	-0
1.07967	-0
1.08333	-0
1.08700	-0
1.09067	-0
1.09433	-0
1.09800	-1
1.10167	-1
1.10533	-1
1.10900	-1
1.11267	-1
1.11633	-2
1.12000	-2
1.12367	-2
1.12733	-2
1.13100	-2
1.13467	-3
1.13833	-2
1.14200	-2
1.14567	-1
1.14933	-1
1.15300	-1
1.15667	-1
1.16033	-2
1.16400	-2
1.16767	-2
1.17133	-2
1.17500	-2
1.17867	-2
1.18233	-2
1.18600	-2
1.18967	-2
1.19333	-1
1.19700	-1
1.20067	-1
1.20433	-1
1.20800	-1
1.21167	-1
1.21533	-1
1.21900	-1
1.22267	-0
1.22633	-0
1.23000	0
1.23367	0
1.23733	1
1.24100	1
1.24467	1
1.24833	1
1.25200	1
1.25567	1
1.25933	1
1.26300	1
1.26667	0
1.27033	-0
1.27400	-1
1.27767	-1
1.28133	-1
1.28500	-1
1.28867	-1
1.29233	-2
1.29600	-2
1.29967	-2
1.30333	-2
1.30700	-2
1.31067	-2
1.31433	-2
1.31800	-2
1.32167	-2
1.32533	-2
1.32900	-2
1.33267	-2
1.33633	-2
1.34000	-1
1.34367	-1
1.34733	-1
1.35100	-1
1.35467	-1
1.35833	-1
1.36200	-1
1.36567	-1
1.36933	-1
1.37300	-1
1.37667	-1
1.38033	-1
1.38400	-2
1.38767	-2
1.39133	-2
1.39500	-3
1.39867	-3
1.40233	-3
1.40600	-3
1.40967	-3
1.41333	-3
1.41700	-4
1.42067	-4
1.42433	-4
1.42800	-4
1.43167	-4
1.43533	-4
1.43900	-3
1.44267	-3
1.44633	-3
1.45000	-3
1.45367	-3
1.45733	-3
1.46100	-3
1.46467	-3
1.46833	-3
1.47200	-2
1.47567	-2
1.47933	-2
1.48300	-2
1.48667	-2
1.49033	-2
1.49400	-1
1.49767	-1
1.50133	-1
1.50500	-1
1.50867	-1
1.51233	-1
1.51600	-1
1.51967	-2
1.52333	-2
1.52700	-3
1.53067	-3
1.53433	-4
1.53800	-4
1.54167	-5
1.54533	-5
1.54900	-5
1.55267	-5
1.55633	-5
1.56000	-5
1.56367	-5
1.56733	-5
1.57100	-4
1.57467	-4
1.57833	-4
1.58200	-3
1.58567	-3
1.58933	-3
1.59300	-4
1.59667	-4
1.60033	-5
1.60400	-6
1.60767	-7
1.61133	-9
1.61500	-11
1.61867	-13
1.62233	-16
1.62600	-19
1.62967	-22
1.63333	-25
1.63700	-29
1.64067	-33
1.64433	-37
1.64800	-40
1.65167	-44
1.65533	-48
1.65900	-51
1.66267	-54
1.66633	-57
1.67000	-60
1.67367	-63
1.67733	-67
1.68100	-71
1.68467	-76
1.68833	-80
1.69200	-84
1.69567	-88
1.69933	-92
1.70300	-95
1.70667	-98
1.71033	-100
1.71400	-101
1.71767	-103
1.72133	-104
1.72500	-104
1.72867	-105
1.73233	-106
1.73600	-106
1.73967	-107
1.74333	-107
1.74700	-108
1.75067	-108
1.75433	-108
1.75800	-109
1.76167	-110
1.76533	-111
1.76900	-112
1.77267	-113
1.77633	-114
1.78000	-115
1.78367	-115
1.78733	-114
1.79100	-114
1.79467	-114
1.79833	-113
1.80200	-112
1.80567	-112
1.80933	-111
1.81300	-111
1.81667	-111
1.82033	-112
1.82400	-112
1.82767	-112
1.83133	-113
1.83500	-113
1.83867	-113
1.84233	-113
1.84600	-113
1.84967	-112
1.85333	-112
1.85700	-112
1.86067	-112
1.86433	-112
1.86800	-112
1.87167	-112
1.87533	-112
1.87900	-113
1.88267	-114
1.88633	-114
1.89000	-114
1.89367	-114
1.89733	-114
1.90100	-114
1.90467	-113
1.90833	-112
1.91200	-112
1.91567	-111
1.91933	-110
1.92300	-110
1.92667	-110
1.93033	-110
1.93400	-110
1.93767	-110
1.94133	-110
1.94500	-111
1.94867	-111
1.95233	-111
1.95600	-111
1.95967	-111
1.96333	-110
1.96700	-110
1.97067	-109
1.97433	-109
1.97800	-108
1.98167	-108
1.98533	-107
1.98900	-107
1.99267	-107
1.99633	-107
2.00000	-107
2.00367	-107
2.00733	-107
2.01100	-106
2.01467	-106
2.01833	-105
2.02200	-104
2.02567	-103
2.02933	-102
2.03300	-102
2.03667	-101
2.04033	-101
2.04400	-101
2.04767	-101
2.05133	-101
2.05500	-101
2.05867	-101
2.06233	-101
2.06600	-100
2.06967	-100
2.07333	-100
2.07700	-101
2.08067	-101
2.08433	-101
2.08800	-101
2.09167	-101
2.09533	-101
2.09900	-101
2.10267	-101
2.10633	-100
2.11000	-99
2.11367	-98
2.11733	-97
2.12100	-96
2.12467	-95
2.12833	-95
2.13200	-94
2.13567	-94
2.13933	-94
2.14300	-94
2.14667	-95
2.15033	-95
2.15400	-95
2.15767	-95
2.16133	-95
2.16500	-94
2.16867	-94
2.17233	-94
2.17600	-94
2.17967	-95
2.18333	-95
2.18700	-96
2.19067	-96
2.19433	-96
2.19800	-96
2.20167	-95
2.20533	-94
2.20900	-93
2.21267	-92
2.21633	-91
2.22000	-90
2.22367	-90
2.22733	-90
2.23100	-90
2.23467	-89
2.23833	-88
2.24200	-87
2.24567	-87
2.24933	-86
2.25300	-86
2.25667	-86
2.26033	-86
2.26400	-86
2.26767	-86
2.27133	-85
2.27500	-85
2.27867	-85
2.28233	-85
2.28600	-85
2.28967	-84
2.29333	-84
2.29700	-84
2.30067	-83
2.30433	-83
2.30800	-82
2.31167	-81
2.31533	-80
2.31900	-80
2.32267	-79
2.32633	-79
2.33000	-79
2.33367	-78
2.33733	-78
2.34100	-77
2.34467	-76
2.34833	-75
2.35200	-75
2.35567	-74
2.35933	-74
2.36300	-74
2.36667	-74
2.37033	-72
2.37400	-71
2.37767	-68
2.38133	-65
2.38500	-62
2.38867	-58
2.39233	-54
2.39600	-49
2.39967	-44
2.40333	-40
2.40700	-35
2.41067	-30
2.41433	-26
2.41800	-22
2.42167	-19
2.42533	-17
2.42900	-15
2.43267	-13
2.43633	-12
2.44000	-11
2.44367	-10
2.44733	-9
2.45100	-9
2.45467	-8
2.45833	-7
2.46200	-6
2.46567	-5
2.46933	-4
2.47300	-3
2.47667	-2
2.48033	-1
2.48400	0
2.48767	1
2.49133	2
2.49500	3
2.49867	4
2.50233	5
2.50600	6
2.50967	7
2.51333	7
2.51700	8
2.52067	9
2.52433	10
2.52800	11
2.53167	12
2.53533	12
2.53900	12
2.54267	12
2.54633	12
2.55000	12
2.55367	12
2.55733	13
2.56100	14
2.56467	14
2.56833	15
2.57200	16
2.57567	16
2.57933	16
2.58300	16
2.58667	16
2.59033	16
2.59400	16
2.59767	17
2.60133	17
2.60500	17
2.60867	18
2.61233	18
2.61600	18
2.61967	18
2.62333	18
2.62700	17
2.63067	17
2.63433	16
2.63800	16
2.64167	16
2.64533	17
2.64900	17
2.65267	17
2.65633	17
2.66000	18
2.66367	18
2.66733	19
2.67100	19
2.67467	20
2.67833	20
2.68200	21
2.68567	21
2.68933	22
2.69300	22
2.69667	22
2.70033	21
2.70400	21
2.70767	21
2.71133	21
2.71500	20
2.71867	20
2.72233	20
2.72600	21
2.72967	21
2.73333	22
2.73700	22
2.74067	23
2.74433	23
2.74800	24
2.75167	25
2.75533	26
2.75900	26
2.76267	27
2.76633	27
2.77000	28
2.77367	28
2.77733	28
2.78100	27
2.78467	27
2.78833	27
2.79200	26
2.79567	26
2.79933	26
2.80300	26
2.80667	26
2.81033	26
2.81400	26
2.81767	26
2.82133	26
2.82500	27
2.82867	27
2.83233	27
2.83600	27
2.83967	27
2.84333	27
2.84700	25
2.85067	22
2.85433	16
2.85800	9
2.86167	-3
2.86533	-18
2.86900	-37
2.87267	-61
2.87633	-89
2.88000	-122
2.88367	-159
2.88733	-200
2.89100	-245
2.89467	-293
2.89833	-344
2.90200	-397
2.90567	-451
2.90933	-507
2.91300	-563
2.91667	-619
2.92033	-675
2.92400	-729
2.92767	-783
2.93133	-834
2.93500	-886
2.93867	-941
2.94233	-1000
2.94600	-1054
2.94967	-1093
2.95333	-1108
2.95700	-1096
2.96067	-1061
2.96433	-1006
2.96800	-937
2.97167	-859
2.97533	-778
2.97900	-698
2.98267	-620
2.98633	-546
2.99000	-478
2.99367	-416
2.99733	-360
3.00100	-310
3.00467	-266
3.00833	-228
3.01200	-194
3.01567	-165
3.01933	-139
3.02300	-117
3.02667	-98
3.03033	-82
3.03400	-69
3.03767	-57
3.04133	-47
3.04500	-39
3.04867	-32
3.05233	-26
3.05600	-20
3.05967	-16
3.06333	-12
3.06700	-8
3.07067	-5
3.07433	-3
3.07800	-1
3.08167	1
3.08533	3
3.08900	4
3.09267	6
3.09633	7
3.10000	8
3.10367	9
3.10733	10
3.11100	11
3.11467	12
3.11833	12
3.12200	13
3.12567	14
3.12933	14
3.13300	15
3.13667	15
3.14033	16
3.14400	16
3.14767	16
3.15133	17
3.15500	17
3.15867	18
3.16233	18
3.16600	18
3.16967	19
3.17333	19
3.17700	19
3.18067	19
3.18433	19
3.18800	20
3.19167	20
3.19533	20
3.19900	21
3.20267	21
3.20633	22
3.21000	22
3.21367	22
3.21733	23
3.22100	23
3.22467	23
3.22833	23
3.23200	23
3.23567	22
3.23933	22
3.24300	22
3.24667	22
3.25033	22
3.25400	22
3.25767	22
3.26133	22
3.26500	23
3.26867	23
3.27233	23
3.27600	24
3.27967	24
3.28333	25
3.28700	25
3.29067	25
3.29433	25
3.29800	25
3.30167	25
3.30533	26
3.30900	26
3.31267	26
3.31633	27
3.32000	27
3.32367	27
3.32733	27
3.33100	27
3.33467	27
3.33833	27
3.34200	27
3.34567	27
3.34933	27
3.35300	27
3.35667	27
3.36033	27
3.36400	28
3.36767	28
3.37133	28
3.37500	28
3.37867	28
3.38233	28
3.38600	28
3.38967	28
3.39333	29
3.39700	29
3.40067	29
3.40433	29
3.40800	29
3.41167	29
3.41533	29
3.41900	29
3.42267	29
3.42633	29
3.43000	28
3.43367	28
3.43733	28
3.44100	28
3.44467	28
3.44833	27
3.45200	27
3.45567	27
3.45933	27
3.46300	27
3.46667	27
3.47033	27
3.47400	27
3.47767	27
3.48133	27
3.48500	27
3.48867	27
3.49233	27
3.49600	27
3.49967	27
3.50333	28
3.50700	28
3.51067	28
3.51433	28
3.51800	28
3.52167	28
3.52533	28
3.52900	28
3.53267	28
3.53633	28
3.54000	28
3.54367	28
3.54733	28
3.55100	28
3.55467	28
3.55833	28
3.56200	28
3.56567	28
3.56933	28
3.57300	28
3.57667	28
3.58033	28
3.58400	28
3.58767	27
3.59133	27
3.59500	27
3.59867	27
3.60233	27
3.60600	26
3.60967	26
3.61333	26
3.61700	26
3.62067	26
3.62433	26
3.62800	26
3.63167	26
3.63533	26
3.63900	25
3.64267	25
3.64633	25
3.65000	24
3.65367	24
3.65733	24
3.66100	24
3.66467	24
3.66833	24
3.67200	24
3.67567	24
3.67933	24
3.68300	24
3.68667	25
3.69033	25
3.69400	25
3.69767	25
3.70133	25
3.70500	25
3.70867	25
3.71233	25
3.71600	25
3.71967	25
3.72333	25
3.72700	25
3.73067	25
3.73433	26
3.73800	26
3.74167	26
3.74533	26
3.74900	27
3.75267	27
3.75633	27
3.76000	27
3.76367	28
3.76733	28
3.77100	28
3.77467	28
3.77833	28
3.78200	28
3.78567	28
3.78933	27
3.79300	27
3.79667	27
3.80033	27
3.80400	26
3.80767	26
3.81133	26
3.81500	26
3.81867	26
3.82233	26
3.82600	25
3.82967	25
3.83333	25
3.83700	25
3.84067	25
3.84433	25
3.84800	25
3.85167	25
3.85533	25
3.85900	25
3.86267	26
3.86633	26
3.87000	26
3.87367	26
3.87733	26
3.88100	26
3.88467	26
3.88833	26
3.89200	26
3.89567	26
3.89933	26
3.90300	26
3.90667	27
3.91033	27
3.91400	27
3.91767	27
3.92133	27
3.92500	27
3.92867	27
3.93233	27
3.93600	27
3.93967	27
3.94333	27
3.94700	27
3.95067	27
3.95433	26
3.95800	26
3.96167	26
3.96533	26
3.96900	26
3.97267	26
3.97633	26
3.98000	26
3.98367	26
3.98733	27
3.99100	27
3.99467	27
3.99833	27

[Chromatogram (Ch3)]
Interval(msec)	220
# of Points	1091
Start Time(min)	0.002
End Time(min)	3.998
R.Time (min)	Intensity
0.00167	0
0.00533	1
0.00900	0
0.01267	-4
0.01633	-7
0.02000	-6
0.02367	-7
0.02733	-8
0.03100	-8
0.03467	-6
0.03833	-5
0.04200	-4
0.04567	-4
0.04933	-3
0.05300	-3
0.05667	-2
0.06033	-3
0.06400	-2
0.06767	-1
0.07133	-1
0.07500	-2
0.07867	-1
0.08233	-2
0.08600	-4
0.08967	-6
0.09333	-7
0.09700	-6
0.10067	-5
0.10433	-4
0.10800	-4
0.11167	-5
0.11533	-5
0.11900	-5
0.12267	-5
0.12633	-4
0.13000	-3
0.13367	-3
0.13733	-3
0.14100	-6
0.14467	-7
0.14833	-7
0.15200	-9
0.15567	-9
0.15933	-6
0.16300	-3
0.16667	-1
0.17033	-0
0.17400	2
0.17767	0
0.18133	-2
0.18500	-3
0.18867	-5
0.19233	-5
0.19600	-3
0.19967	-3
0.20333	-5
0.20700	-4
0.21067	-3
0.21433	-2
0.21800	-2
0.22167	-3
0.22533	-4
0.22900	-4
0.23267	-4
0.23633	-3
0.24000	-2
0.24367	-2
0.24733	-2
0.25100	-3
0.25467	-4
0.25833	-5
0.26200	-5
0.26567	-6
0.26933	-6
0.27300	-4
0.27667	-2
0.28033	-2
0.28400	-1
0.28767	0
0.29133	2
0.29500	2
0.29867	1
0.30233	-2
0.30600	-4
0.30967	-3
0.31333	-2
0.31700	-2
0.32067	-3
0.32433	-5
0.32800	-6
0.33167	-4
0.33533	-3
0.33900	-2
0.34267	-2
0.34633	-4
0.35000	-8
0.35367	-9
0.35733	-6
0.36100	-5
0.36467	-5
0.36833	-3
0.37200	0
0.37567	2
0.37933	2
0.38300	2
0.38667	4
0.39033	4
0.39400	3
0.39767	1
0.40133	-0
0.40500	-1
0.40867	-3
0.41233	-2
0.41600	-3
0.41967	-3
0.42333	-2
0.42700	-3
0.43067	-3
0.43433	-2
0.43800	-1
0.44167	-2
0.44533	-0
0.44900	-1
0.45267	-2
0.45633	-2
0.46000	-3
0.46367	-3
0.46733	-4
0.47100	-3
0.47467	-4
0.47833	-5
0.48200	-5
0.48567	-1
0.48933	2
0.49300	3
0.49667	3
0.50033	2
0.50400	1
0.50767	-1
0.51133	-1
0.51500	-3
0.51867	-5
0.52233	-4
0.52600	-3
0.52967	-1
0.53333	1
0.53700	3
0.54067	2
0.54433	2
0.54800	2
0.55167	1
0.55533	-1
0.55900	-3
0.56267	-4
0.56633	-3
0.57000	-5
0.57367	-6
0.57733	-6
0.58100	-6
0.58467	-6
0.58833	-5
0.59200	-3
0.59567	-3
0.59933	-3
0.60300	-2
0.60667	-2
0.61033	-2
0.61400	0
0.61767	2
0.62133	3
0.62500	2
0.62867	1
0.63233	-0
0.63600	-1
0.63967	-1
0.64333	-1
0.64700	-1
0.65067	0
0.65433	-2
0.65800	-1
0.66167	-0
0.66533	-1
0.66900	-1
0.67267	-0
0.67633	1
0.68000	2
0.68367	4
0.68733	6
0.69100	7
0.69467	7
0.69833	7
0.70200	6
0.70567	5
0.70933	5
0.71300	3
0.71667	2
0.72033	1
0.72400	3
0.72767	3
0.73133	2
0.73500	0
0.73867	0
0.74233	1
0.74600	2
0.74967	5
0.75333	6
0.75700	5
0.76067	4
0.76433	1
0.76800	1
0.77167	2
0.77533	1
0.77900	1
0.78267	1
0.78633	2
0.79000	4
0.79367	5
0.79733	6
0.80100	6
0.80467	7
0.80833	7
0.81200	5
0.81567	5
0.81933	3
0.82300	2
0.82667	2
0.83033	4
0.83400	6
0.83767	7
0.84133	6
0.84500	8
0.84867	11
0.85233	11
0.85600	11
0.85967	10
0.86333	10
0.86700	11
0.87067	8
0.87433	7
0.87800	6
0.88167	4
0.88533	5
0.88900	9
0.89267	11
0.89633	12
0.90000	11
0.90367	10
0.90733	9
0.91100	11
0.91467	14
0.91833	13
0.92200	11
0.92567	8
0.92933	7
0.93300	9
0.93667	9
0.94033	9
0.94400	8
0.94767	7
0.95133	7
0.95500	8
0.95867	10
0.96233	13
0.96600	15
0.96967	16
0.97333	16
0.97700	15
0.98067	13
0.98433	12
0.98800	11
0.99167	12
0.99533	9
0.99900	8
1.00267	8
1.00633	7
1.01000	7
1.01367	6
1.01733	4
1.02100	4
1.02467	4
1.02833	6
1.03200	8
1.03567	9
1.03933	11
1.04300	15
1.04667	17
1.05033	19
1.05400	19
1.05767	17
1.06133	17
1.06500	17
1.06867	14
1.07233	11
1.07600	10
1.07967	9
1.08333	9
1.08700	8
1.09067	9
1.09433	10
1.09800	10
1.10167	10
1.10533	11
1.10900	12
1.11267	13
1.11633	12
1.12000	13
1.12367	14
1.12733	15
1.13100	16
1.13467	16
1.13833	15
1.14200	16
1.14567	13
1.14933	12
1.15300	10
1.15667	10
1.16033	9
1.16400	9
1.16767	12
1.17133	14
1.17500	15
1.17867	13
1.18233	11
1.18600	10
1.18967	10
1.19333	9
1.19700	8
1.20067	10
1.20433	11
1.20800	12
1.21167	14
1.21533	14
1.21900	12
1.22267	9
1.22633	9
1.23000	9
1.23367	10
1.23733	11
1.24100	13
1.24467	15
1.24833	17
1.25200	17
1.25567	16
1.25933	16
1.26300	17
1.26667	15
1.27033	15
1.27400	16
1.27767	16
1.28133	16
1.28500	16
1.28867	15
1.29233	14
1.29600	12
1.29967	11
1.30333	12
1.30700	12
1.31067	14
1.31433	16
1.31800	17
1.32167	16
1.32533	17
1.32900	17
1.33267	18
1.33633	18
1.34000	18
1.34367	18
1.34733	18
1.35100	19
1.35467	18
1.35833	17
1.36200	16
1.36567	17
1.36933	16
1.37300	16
1.37667	15
1.38033	14
1.38400	13
1.38767	12
1.39133	13
1.39500	14
1.39867	16
1.40233	19
1.40600	21
1.40967	21
1.41333	20
1.41700	18
1.42067	16
1.42433	14
1.42800	14
1.43167	15
1.43533	16
1.43900	16
1.44267	15
1.44633	16
1.45000	19
1.45367	20
1.45733	20
1.46100	19
1.46467	19
1.46833	21
1.47200	22
1.47567	22
1.47933	22
1.48300	20
1.48667	21
1.49033	22
1.49400	23
1.49767	22
1.50133	21
1.50500	19
1.50867	18
1.51233	18
1.51600	19
1.51967	19
1.52333	17
1.52700	15
1.53067	13
1.53433	13
1.53800	14
1.54167	16
1.54533	18
1.54900	20
1.55267	21
1.55633	21
1.56000	20
1.56367	19
1.56733	20
1.57100	19
1.57467	19
1.57833	17
1.58200	17
1.58567	20
1.58933	20
1.59300	22
1.59667	22
1.60033	22
1.60400	22
1.60767	22
1.61133	22
1.61500	22
1.61867	20
1.62233	20
1.62600	23
1.62967	25
1.63333	27
1.63700	27
1.64067	28
1.64433	29
1.64800	29
1.65167	28
1.65533	28
1.65900	25
1.66267	25
1.66633	26
1.67000	26
1.67367	26
1.67733	27
1.68100	28
1.68467	29
1.68833	33
1.69200	33
1.69567	30
1.69933	28
1.70300	28
1.70667	30
1.71033	30
1.71400	31
1.71767	31
1.72133	32
1.72500	32
1.72867	33
1.73233	35
1.73600	38
1.73967	38
1.74333	37
1.74700	36
1.75067	37
1.75433	37
1.75800	38
1.76167	40
1.76533	40
1.76900	41
1.77267	43
1.77633	43
1.78000	42
1.78367	40
1.78733	40
1.79100	41
1.79467	41
1.79833	39
1.80200	39
1.80567	39
1.80933	40
1.81300	41
1.81667	43
1.82033	44
1.82400	46
1.82767	49
1.83133	50
1.83500	49
1.83867	49
1.84233	48
1.84600	47
1.84967	47
1.85333	48
1.85700	46
1.86067	46
1.86433	46
1.86800	47
1.87167	47
1.87533	48
1.87900	52
1.88267	56
1.88633	58
1.89000	56
1.89367	55
1.89733	56
1.90100	58
1.90467	60
1.90833	63
1.91200	64
1.91567	65
1.91933	66
1.92300	65
1.92667	65
1.93033	65
1.93400	66
1.93767	65
1.94133	64
1.94500	66
1.94867	68
1.95233	69
1.95600	70
1.95967	72
1.96333	73
1.96700	73
1.97067	72
1.97433	71
1.97800	71
1.98167	71
1.98533	72
1.98900	75
1.99267	79
1.99633	82
2.00000	82
2.00367	82
2.00733	84
2.01100	86
2.01467	88
2.01833	89
2.02200	92
2.02567	95
2.02933	96
2.03300	95
2.03667	95
2.04033	96
2.04400	99
2.04767	101
2.05133	101
2.05500	103
2.05867	105
2.06233	107
2.06600	110
2.06967	110
2.07333	109
2.07700	108
2.08067	110
2.08433	112
2.08800	112
2.09167	114
2.09533	116
2.09900	117
2.10267	117
2.10633	117
2.11000	119
2.11367	121
2.11733	123
2.12100	126
2.12467	127
2.12833	127
2.13200	127
2.13567	129
2.13933	129
2.14300	130
2.14667	132
2.15033	134
2.15400	135
2.15767	137
2.16133	139
2.16500	140
2.16867	144
2.17233	145
2.17600	146
2.17967	148
2.18333	151
2.18700	152
2.19067	153
2.19433	154
2.19800	156
2.20167	155
2.20533	155
2.20900	154
2.21267	155
2.21633	158
2.22000	163
2.22367	166
2.22733	167
2.23100	168
2.23467	167
2.23833	166
2.24200	166
2.24567	167
2.24933	171
2.25300	173
2.25667	173
2.26033	172
2.26400	172
2.26767	174
2.27133	177
2.27500	179
2.27867	181
2.28233	184
2.28600	187
2.28967	186
2.29333	186
2.29700	185
2.30067	186
2.30433	189
2.30800	191
2.31167	193
2.31533	196
2.31900	199
2.32267	200
2.32633	200
2.33000	200
2.33367	202
2.33733	206
2.34100	207
2.34467	207
2.34833	208
2.35200	210
2.35567	214
2.35933	218
2.36300	221
2.36667	224
2.37033	224
2.37400	223
2.37767	222
2.38133	223
2.38500	221
2.38867	219
2.39233	219
2.39600	222
2.39967	223
2.40333	226
2.40700	228
2.41067	231
2.41433	233
2.41800	235
2.42167	236
2.42533	237
2.42900	235
2.43267	234
2.43633	233
2.44000	236
2.44367	292
2.44733	440
2.45100	603
2.45467	739
2.45833	816
2.46200	825
2.46567	793
2.46933	754
2.47300	722
2.47667	701
2.48033	687
2.48400	664
2.48767	623
2.49133	574
2.49500	526
2.49867	486
2.50233	458
2.50600	444
2.50967	441
2.51333	449
2.51700	466
2.52067	487
2.52433	506
2.52800	517
2.53167	515
2.53533	502
2.53900	479
2.54267	450
2.54633	420
2.55000	391
2.55367	365
2.55733	343
2.56100	324
2.56467	309
2.56833	299
2.57200	292
2.57567	288
2.57933	289
2.58300	292
2.58667	292
2.59033	293
2.59400	296
2.59767	300
2.60133	304
2.60500	306
2.60867	305
2.61233	303
2.61600	298
2.61967	291
2.62333	283
2.62700	274
2.63067	266
2.63433	255
2.63800	245
2.64167	234
2.64533	220
2.64900	207
2.65267	194
2.65633	180
2.66000	165
2.66367	151
2.66733	141
2.67100	133
2.67467	126
2.67833	119
2.68200	111
2.68567	108
2.68933	107
2.69300	105
2.69667	104
2.70033	106
2.70400	107
2.70767	108
2.71133	110
2.71500	114
2.71867	119
2.72233	124
2.72600	129
2.72967	133
2.73333	136
2.73700	137
2.74067	139
2.74433	142
2.74800	142
2.75167	143
2.75533	149
2.75900	151
2.76267	154
2.76633	158
2.77000	163
2.77367	166
2.77733	167
2.78100	169
2.78467	173
2.78833	179
2.79200	184
2.79567	189
2.79933	193
2.80300	197
2.80667	201
2.81033	208
2.81400	214
2.81767	221
2.82133	231
2.82500	251
2.82867	286
2.83233	352
2.83600	470
2.83967	660
2.84333	941
2.84700	1323
2.85067	1802
2.85433	2356
2.85800	2949
2.86167	3534
2.86533	4065
2.86900	4500
2.87267	4810
2.87633	4977
2.88000	5001
2.88367	4899
2.88733	4695
2.89100	4417
2.89467	4093
2.89833	3749
2.90200	3401
2.90567	3063
2.90933	2744
2.91300	2445
2.91667	2169
2.92033	1923
2.92400	1703
2.92767	1504
2.93133	1331
2.93500	1181
2.93867	1050
2.94233	934
2.94600	834
2.94967	748
2.95333	674
2.95700	607
2.96067	550
2.96433	500
2.96800	459
2.97167	420
2.97533	386
2.97900	358
2.98267	334
2.98633	312
2.99000	293
2.99367	275
2.99733	258
3.00100	246
3.00467	238
3.00833	232
3.01200	227
3.01567	221
3.01933	215
3.02300	212
3.02667	207
3.03033	203
3.03400	200
3.03767	197
3.04133	194
3.04500	189
3.04867	188
3.05233	187
3.05600	188
3.05967	188
3.06333	187
3.06700	188
3.07067	189
3.07433	188
3.07800	185
3.08167	184
3.08533	184
3.08900	184
3.09267	183
3.09633	182
3.10000	181
3.10367	181
3.10733	180
3.11100	180
3.11467	179
3.11833	182
3.12200	185
3.12567	184
3.12933	183
3.13300	186
3.13667	188
3.14033	188
3.14400	187
3.14767	188
3.15133	189
3.15500	191
3.15867	192
3.16233	193
3.16600	193
3.16967	194
3.17333	197
3.17700	199
3.18067	201
3.18433	203
3.18800	203
3.19167	203
3.19533	203
3.19900	203
3.20267	202
3.20633	203
3.21000	206
3.21367	208
3.21733	210
3.22100	212
3.22467	215
3.22833	218
3.23200	221
3.23567	222
3.23933	223
3.24300	225
3.24667	226
3.25033	230
3.25400	232
3.25767	234
3.26133	235
3.26500	237
3.26867	239
3.27233	240
3.27600	240
3.27967	242
3.28333	245
3.28700	248
3.29067	250
3.29433	252
3.29800	255
3.30167	259
3.30533	262
3.30900	263
3.31267	264
3.31633	265
3.32000	264
3.32367	266
3.32733	269
3.33100	271
3.33467	274
3.33833	277
3.34200	277
3.34567	279
3.34933	282
3.35300	282
3.35667	283
3.36033	285
3.36400	288
3.36767	292
3.37133	294
3.37500	295
3.37867	296
3.38233	297
3.38600	299
3.38967	300
3.39333	299
3.39700	297
3.40067	297
3.40433	299
3.40800	302
3.41167	304
3.41533	306
3.41900	308
3.42267	309
3.42633	309
3.43000	312
3.43367	315
3.43733	316
3.44100	315
3.44467	314
3.44833	314
3.45200	315
3.45567	316
3.45933	316
3.46300	316
3.46667	316
3.47033	316
3.47400	317
3.47767	319
3.48133	323
3.48500	323
3.48867	321
3.49233	319
3.49600	318
3.49967	318
3.50333	318
3.50700	318
3.51067	316
3.51433	316
3.51800	315
3.52167	317
3.52533	318
3.52900	318
3.53267	318
3.53633	318
3.54000	319
3.54367	319
3.54733	317
3.55100	317
3.55467	317
3.55833	317
3.56200	316
3.56567	315
3.56933	314
3.57300	314
3.57667	313
3.58033	309
3.58400	305
3.58767	297
3.59133	285
3.59500	274
3.59867	274
3.60233	283
3.60600	299
3.60967	319
3.61333	341
3.61700	365
3.62067	388
3.62433	409
3.62800	430
3.63167	451
3.63533	470
3.63900	487
3.64267	500
3.64633	513
3.65000	523
3.65367	534
3.65733	541
3.66100	548
3.66467	555
3.66833	562
3.67200	568
3.67567	575
3.67933	581
3.68300	586
3.68667	590
3.69033	594
3.69400	597
3.69767	599
3.70133	601
3.70500	604
3.70867	606
3.71233	607
3.71600	610
3.71967	612
3.72333	613
3.72700	614
3.73067	615
3.73433	617
3.73800	619
3.74167	620
3.74533	620
3.74900	619
3.75267	619
3.75633	620
3.76000	620
3.76367	621
3.76733	622
3.77100	623
3.77467	625
3.77833	624
3.78200	623
3.78567	623
3.78933	625
3.79300	626
3.79667	627
3.80033	629
3.80400	631
3.80767	631
3.81133	631
3.81500	630
3.81867	629
3.82233	629
3.82600	632
3.82967	632
3.83333	631
3.83700	630
3.84067	629
3.84433	628
3.84800	627
3.85167	625
3.85533	625
3.85900	625
3.86267	624
3.86633	624
3.87000	626
3.87367	625
3.87733	622
3.88100	622
3.88467	623
3.88833	624
3.89200	624
3.89567	623
3.89933	622
3.90300	618
3.90667	618
3.91033	616
3.91400	616
3.91767	616
3.92133	616
3.92500	615
3.92867	614
3.93233	612
3.93600	612
3.93967	612
3.94333	610
3.94700	608
3.95067	604
3.95433	602
3.95800	601
3.96167	601
3.96533	599
3.96900	600
3.97267	599
3.97633	598
3.98000	596
3.98367	592
3.98733	589
3.99100	588
3.99467	586
3.99833	583

[Status Trace (Column Oven Temperature)]
Interval(msec)	1000
# of Points	240
Start Time(min)	0.003
End Time(min)	3.986
Intensity Units	
Intensity Multiplier	1
R.Time (min)	Intensity
0.00280	35.05
0.01947	35.05
0.03613	35.05
0.05280	35.05
0.06947	35.05
0.08613	35.03
0.10280	35.02
0.11947	35.01
0.13613	35.03
0.15280	35.03
0.16947	35.04
0.18613	35.04
0.20280	35.04
0.21947	35.02
0.23613	35.01
0.25280	34.99
0.26947	34.98
0.28613	34.98
0.30280	34.99
0.31947	34.99
0.33613	34.99
0.35280	34.98
0.36947	34.98
0.38613	34.98
0.40280	34.99
0.41947	35.01
0.43613	35.03
0.45280	35.03
0.46947	35.04
0.48613	35.04
0.50280	35.03
0.51947	35.03
0.53613	35.02
0.55280	35.02
0.56947	35.02
0.58613	35.01
0.60280	35.01
0.61947	35.02
0.63613	35.02
0.65280	35.03
0.66947	35.02
0.68613	35.02
0.70280	35.02
0.71947	35.03
0.73613	35.02
0.75280	35.01
0.76947	35.00
0.78613	34.99
0.80280	34.99
0.81947	35.00
0.83613	35.01
0.85280	35.01
0.86947	35.00
0.88613	34.99
0.90280	35.00
0.91947	35.01
0.93613	35.02
0.95280	35.02
0.96947	35.02
0.98613	35.02
1.00280	35.00
1.01947	34.99
1.03613	34.99
1.05280	35.00
1.06947	35.00
1.08613	35.00
1.10280	35.00
1.11947	34.99
1.13613	35.00
1.15280	35.00
1.16947	35.00
1.18613	35.01
1.20280	35.00
1.21947	34.99
1.23613	34.98
1.25280	34.97
1.26947	34.98
1.28613	34.99
1.30280	35.00
1.31947	35.00
1.33613	34.99
1.35280	34.98
1.36947	34.98
1.38613	34.99
1.40280	35.00
1.41947	35.00
1.43613	35.01
1.45280	35.00
1.46947	35.00
1.48613	35.00
1.50280	34.99
1.51947	35.00
1.53613	35.01
1.55280	35.02
1.56947	35.02
1.58613	35.02
1.60280	35.07
1.61947	35.17
1.63613	35.35
1.65280	35.58
1.66947	35.84
1.68613	36.20
1.70280	36.55
1.71947	36.89
1.73613	37.23
1.75280	37.56
1.76947	37.92
1.78613	38.25
1.80280	38.54
1.81947	38.87
1.83613	39.20
1.85280	39.53
1.86947	39.85
1.88613	40.20
1.90280	40.53
1.91947	40.84
1.93613	41.17
1.95280	41.50
1.96947	41.81
1.98613	42.15
2.00280	42.48
2.01947	42.79
2.03613	43.10
2.05280	43.43
2.06947	43.77
2.08613	44.09
2.10280	44.42
2.11947	44.73
2.13613	45.05
2.15280	45.38
2.16947	45.72
2.18613	46.08
2.20280	46.41
2.21947	46.75
2.23613	47.08
2.25280	47.41
2.26947	47.73
2.28613	48.06
2.30280	48.39
2.31947	48.71
2.33613	49.03
2.35280	49.34
2.36947	49.59
2.38613	49.73
2.40280	49.76
2.41947	49.73
2.43613	49.76
2.45280	49.76
2.46947	49.77
2.48613	49.78
2.50280	49.78
2.51947	49.79
2.53613	49.81
2.55280	49.83
2.56947	49.82
2.58613	49.83
2.60280	49.81
2.61947	49.82
2.63613	49.84
2.65280	49.84
2.66947	49.85
2.68613	49.84
2.70280	49.87
2.71947	49.89
2.73613	49.87
2.75280	49.85
2.76947	49.86
2.78613	49.87
2.80280	49.87
2.81947	49.87
2.83613	49.87
2.85280	49.87
2.86947	49.88
2.88613	49.90
2.90280	49.91
2.91947	49.93
2.93613	49.93
2.95280	49.94
2.96947	49.94
2.98613	49.95
3.00280	49.96
3.01947	49.96
3.03613	49.98
3.05280	50.00
3.06947	50.03
3.08613	50.04
3.10280	50.05
3.11947	50.06
3.13613	50.06
3.15280	50.07
3.16947	50.07
3.18613	50.08
3.20280	50.07
3.21947	50.08
3.23613	50.10
3.25280	50.10
3.26947	50.11
3.28613	50.10
3.30280	50.10
3.31947	50.09
3.33613	50.08
3.35280	50.07
3.36947	50.06
3.38613	50.04
3.40280	50.03
3.41947	50.02
3.43613	50.01
3.45280	50.02
3.46947	50.02
3.48613	50.02
3.50280	50.01
3.51947	50.00
3.53613	49.99
3.55280	49.98
3.56947	49.99
3.58613	50.00
3.60280	50.00
3.61947	50.00
3.63613	50.01
3.65280	50.03
3.66947	50.05
3.68613	50.06
3.70280	50.07
3.71947	50.08
3.73613	50.07
3.75280	50.05
3.76947	50.05
3.78613	50.05
3.80280	50.06
3.81947	50.06
3.83613	50.07
3.85280	50.08
3.86947	50.08
3.88613	50.08
3.90280	50.08
3.91947	50.08
3.93613	50.07
3.95280	50.07
3.96947	50.07
3.98613	50.07

[Status Trace (Injection Unit Temperature)]
Interval(msec)	1000
# of Points	240
Start Time(min)	0.003
End Time(min)	3.986
Intensity Units	
Intensity Multiplier	1
R.Time (min)	Intensity
0.00280	99.98
0.01947	99.97
0.03613	99.98
0.05280	99.98
0.06947	99.98
0.08613	99.97
0.10280	99.98
0.11947	99.98
0.13613	99.98
0.15280	99.98
0.16947	99.98
0.18613	99.98
0.20280	99.98
0.21947	99.98
0.23613	99.98
0.25280	99.98
0.26947	99.98
0.28613	99.98
0.30280	99.98
0.31947	99.98
0.33613	99.98
0.35280	99.98
0.36947	99.98
0.38613	99.98
0.40280	99.98
0.41947	99.98
0.43613	99.98
0.45280	99.98
0.46947	99.99
0.48613	99.98
0.50280	99.98
0.51947	99.98
0.53613	99.98
0.55280	99.99
0.56947	99.99
0.58613	99.98
0.60280	99.98
0.61947	99.99
0.63613	99.99
0.65280	99.98
0.66947	99.98
0.68613	99.98
0.70280	99.98
0.71947	99.98
0.73613	99.98
0.75280	99.98
0.76947	99.99
0.78613	99.98
0.80280	99.98
0.81947	99.99
0.83613	99.98
0.85280	99.98
0.86947	99.98
0.88613	99.99
0.90280	99.98
0.91947	99.98
0.93613	99.98
0.95280	99.98
0.96947	99.98
0.98613	99.98
1.00280	99.98
1.01947	99.99
1.03613	99.99
1.05280	99.99
1.06947	99.99
1.08613	99.98
1.10280	99.99
1.11947	99.98
1.13613	99.98
1.15280	99.99
1.16947	99.99
1.18613	99.99
1.20280	99.98
1.21947	99.98
1.23613	99.99
1.25280	99.98
1.26947	99.99
1.28613	99.98
1.30280	99.99
1.31947	99.99
1.33613	99.99
1.35280	99.98
1.36947	99.98
1.38613	99.98
1.40280	99.99
1.41947	99.99
1.43613	99.99
1.45280	99.98
1.46947	99.99
1.48613	99.98
1.50280	99.98
1.51947	99.98
1.53613	99.98
1.55280	99.98
1.56947	99.98
1.58613	99.98
1.60280	99.98
1.61947	99.98
1.63613	99.98
1.65280	99.98
1.66947	99.98
1.68613	99.98
1.70280	99.98
1.71947	99.98
1.73613	99.98
1.75280	99.98
1.76947	99.98
1.78613	99.98
1.80280	99.98
1.81947	99.98
1.83613	99.98
1.85280	99.98
1.86947	99.97
1.88613	99.98
1.90280	99.97
1.91947	99.98
1.93613	99.98
1.95280	99.97
1.96947	99.97
1.98613	99.97
2.00280	99.97
2.01947	99.97
2.03613	99.97
2.05280	99.97
2.06947	99.97
2.08613	99.97
2.10280	99.97
2.11947	99.97
2.13613	99.97
2.15280	99.97
2.16947	99.96
2.18613	99.96
2.20280	99.97
2.21947	99.97
2.23613	99.97
2.25280	99.97
2.26947	99.97
2.28613	99.97
2.30280	99.97
2.31947	99.97
2.33613	99.97
2.35280	99.97
2.36947	99.97
2.38613	99.97
2.40280	99.97
2.41947	99.97
2.43613	99.97
2.45280	99.97
2.46947	99.97
2.48613	99.98
2.50280	99.97
2.51947	99.97
2.53613	99.97
2.55280	99.97
2.56947	99.98
2.58613	99.97
2.60280	99.97
2.61947	99.98
2.63613	99.98
2.65280	99.98
2.66947	99.98
2.68613	99.98
2.70280	99.98
2.71947	99.98
2.73613	99.98
2.75280	99.98
2.76947	99.99
2.78613	99.99
2.80280	99.99
2.81947	99.99
2.83613	99.99
2.85280	99.99
2.86947	99.99
2.88613	100.00
2.90280	100.00
2.91947	100.00
2.93613	100.00
2.95280	100.00
2.96947	100.01
2.98613	100.00
3.00280	100.01
3.01947	100.01
3.03613	100.00
3.05280	100.01
3.06947	100.01
3.08613	100.01
3.10280	100.01
3.11947	100.02
3.13613	100.02
3.15280	100.02
3.16947	100.02
3.18613	100.02
3.20280	100.02
3.21947	100.02
3.23613	100.02
3.25280	100.02
3.26947	100.02
3.28613	100.02
3.30280	100.02
3.31947	100.02
3.33613	100.03
3.35280	100.02
3.36947	100.02
3.38613	100.02
3.40280	100.03
3.41947	100.03
3.43613	100.03
3.45280	100.03
3.46947	100.03
3.48613	100.03
3.50280	100.03
3.51947	100.03
3.53613	100.03
3.55280	100.03
3.56947	100.03
3.58613	100.04
3.60280	100.04
3.61947	100.04
3.63613	100.04
3.65280	100.04
3.66947	100.04
3.68613	100.03
3.70280	100.04
3.71947	100.04
3.73613	100.04
3.75280	100.04
3.76947	100.04
3.78613	100.04
3.80280	100.04
3.81947	100.05
3.83613	100.04
3.85280	100.05
3.86947	100.04
3.88613	100.04
3.90280	100.05
3.91947	100.04
3.93613	100.05
3.95280	100.05
3.96947	100.05
3.98613	100.05

[Status Trace (Carrier Gas Pressure)]
Interval(msec)	1000
# of Points	240
Start Time(min)	0.003
End Time(min)	3.986
Intensity Units	
Intensity Multiplier	1
R.Time (min)	Intensity
0.00280	58.00
0.01947	56.14
0.03613	56.34
0.05280	58.64
0.06947	59.81
0.08613	58.27
0.10280	57.97
0.11947	58.01
0.13613	58.01
0.15280	58.01
0.16947	58.00
0.18613	58.00
0.20280	58.00
0.21947	58.00
0.23613	58.00
0.25280	58.00
0.26947	58.00
0.28613	58.00
0.30280	58.00
0.31947	58.00
0.33613	58.00
0.35280	58.00
0.36947	58.00
0.38613	58.00
0.40280	58.00
0.41947	58.00
0.43613	58.00
0.45280	58.00
0.46947	58.00
0.48613	58.00
0.50280	58.00
0.51947	58.00
0.53613	58.00
0.55280	58.00
0.56947	58.00
0.58613	58.00
0.60280	58.00
0.61947	58.00
0.63613	58.00
0.65280	58.00
0.66947	58.00
0.68613	58.00
0.70280	58.00
0.71947	58.00
0.73613	58.00
0.75280	58.00
0.76947	58.00
0.78613	58.00
0.80280	58.00
0.81947	58.00
0.83613	58.00
0.85280	58.00
0.86947	58.00
0.88613	58.00
0.90280	58.00
0.91947	58.00
0.93613	58.00
0.95280	58.00
0.96947	58.00
0.98613	58.00
1.00280	58.00
1.01947	58.00
1.03613	58.00
1.05280	58.00
1.06947	58.00
1.08613	58.00
1.10280	58.00
1.11947	58.00
1.13613	58.00
1.15280	58.00
1.16947	58.00
1.18613	58.00
1.20280	58.00
1.21947	58.00
1.23613	58.00
1.25280	58.00
1.26947	58.00
1.28613	58.00
1.30280	58.00
1.31947	58.00
1.33613	58.00
1.35280	58.00
1.36947	58.00
1.38613	58.00
1.40280	58.00
1.41947	58.00
1.43613	58.00
1.45280	58.00
1.46947	58.00
1.48613	58.00
1.50280	58.00
1.51947	58.00
1.53613	58.00
1.55280	58.00
1.56947	58.00
1.58613	58.00
1.60280	58.00
1.61947	58.00
1.63613	58.00
1.65280	58.00
1.66947	58.00
1.68613	58.01
1.70280	58.00
1.71947	58.00
1.73613	58.00
1.75280	58.00
1.76947	58.00
1.78613	58.00
1.80280	58.00
1.81947	58.00
1.83613	58.00
1.85280	58.00
1.86947	58.00
1.88613	58.00
1.90280	58.00
1.91947	58.00
1.93613	58.00
1.95280	58.00
1.96947	58.00
1.98613	58.00
2.00280	58.00
2.01947	58.00
2.03613	58.00
2.05280	58.00
2.06947	58.00
2.08613	58.00
2.10280	58.00
2.11947	58.00
2.13613	58.00
2.15280	58.00
2.16947	58.00
2.18613	58.00
2.20280	58.00
2.21947	58.00
2.23613	58.00
2.25280	58.00
2.26947	58.00
2.28613	58.00
2.30280	58.00
2.31947	58.00
2.33613	58.00
2.35280	58.00
2.36947	58.00
2.38613	57.99
2.40280	57.99
2.41947	58.00
2.43613	58.00
2.45280	58.00
2.46947	58.00
2.48613	58.00
2.50280	57.96
2.51947	58.00
2.53613	57.99
2.55280	58.00
2.56947	58.00
2.58613	58.00
2.60280	58.00
2.61947	58.00
2.63613	58.00
2.65280	58.00
2.66947	58.00
2.68613	58.00
2.70280	58.00
2.71947	58.00
2.73613	58.00
2.75280	58.00
2.76947	58.00
2.78613	58.00
2.80280	58.00
2.81947	58.00
2.83613	58.00
2.85280	58.00
2.86947	58.00
2.88613	58.00
2.90280	58.00
2.91947	58.00
2.93613	58.00
2.95280	58.00
2.96947	58.00
2.98613	58.00
3.00280	58.00
3.01947	58.00
3.03613	58.00
3.05280	58.00
3.06947	58.00
3.08613	58.00
3.10280	58.00
3.11947	58.00
3.13613	58.00
3.15280	58.00
3.16947	58.00
3.18613	58.00
3.20280	58.00
3.21947	58.00
3.23613	58.00
3.25280	58.00
3.26947	58.00
3.28613	58.00
3.30280	58.00
3.31947	58.00
3.33613	58.00
3.35280	58.00
3.36947	58.00
3.38613	58.00
3.40280	58.00
3.41947	58.00
3.43613	58.00
3.45280	58.00
3.46947	58.00
3.48613	58.00
3.50280	58.00
3.51947	58.00
3.53613	58.00
3.55280	58.00
3.56947	58.00
3.58613	58.00
3.60280	58.00
3.61947	58.00
3.63613	58.00
3.65280	58.00
3.66947	58.00
3.68613	58.00
3.70280	58.00
3.71947	58.00
3.73613	58.00
3.75280	58.00
3.76947	58.00
3.78613	58.00
3.80280	58.00
3.81947	58.00
3.83613	58.00
3.85280	58.00
3.86947	58.00
3.88613	58.00
3.90280	58.00
3.91947	58.00
3.93613	58.00
3.95280	58.00
3.96947	58.00
3.98613	58.00

[Status Trace (Carrier Gas Flow)]
Interval(msec)	1000
# of Points	240
Start Time(min)	0.003
End Time(min)	3.986
Intensity Units	
Intensity Multiplier	1
R.Time (min)	Intensity
0.00280	34.51
0.01947	34.60
0.03613	34.54
0.05280	34.55
0.06947	34.49
0.08613	34.52
0.10280	34.52
0.11947	34.52
0.13613	34.52
0.15280	34.52
0.16947	34.52
0.18613	34.53
0.20280	34.52
0.21947	34.52
0.23613	34.51
0.25280	34.52
0.26947	34.52
0.28613	34.52
0.30280	34.52
0.31947	34.52
0.33613	34.52
0.35280	34.52
0.36947	34.52
0.38613	34.52
0.40280	34.52
0.41947	34.53
0.43613	34.52
0.45280	34.52
0.46947	34.52
0.48613	34.51
0.50280	34.52
0.51947	34.52
0.53613	34.52
0.55280	34.52
0.56947	34.51
0.58613	34.52
0.60280	34.52
0.61947	34.52
0.63613	34.52
0.65280	34.52
0.66947	34.53
0.68613	34.51
0.70280	34.52
0.71947	34.52
0.73613	34.51
0.75280	34.52
0.76947	34.52
0.78613	34.52
0.80280	34.52
0.81947	34.52
0.83613	34.52
0.85280	34.52
0.86947	34.52
0.88613	34.52
0.90280	34.52
0.91947	34.52
0.93613	34.51
0.95280	34.52
0.96947	34.52
0.98613	34.52
1.00280	34.52
1.01947	34.51
1.03613	34.52
1.05280	34.52
1.06947	34.52
1.08613	34.51
1.10280	34.52
1.11947	34.52
1.13613	34.52
1.15280	34.52
1.16947	34.52
1.18613	34.51
1.20280	34.52
1.21947	34.52
1.23613	34.52
1.25280	34.52
1.26947	34.52
1.28613	34.51
1.30280	34.52
1.31947	34.52
1.33613	34.52
1.35280	34.52
1.36947	34.52
1.38613	34.52
1.40280	34.52
1.41947	34.52
1.43613	34.52
1.45280	34.52
1.46947	34.52
1.48613	34.51
1.50280	34.51
1.51947	34.52
1.53613	34.52
1.55280	34.52
1.56947	34.51
1.58613	34.52
1.60280	34.52
1.61947	34.52
1.63613	34.52
1.65280	34.52
1.66947	34.52
1.68613	34.52
1.70280	34.52
1.71947	34.51
1.73613	34.51
1.75280	34.51
1.76947	34.52
1.78613	34.52
1.80280	34.52
1.81947	34.51
1.83613	34.52
1.85280	34.52
1.86947	34.52
1.88613	34.51
1.90280	34.52
1.91947	34.52
1.93613	34.53
1.95280	34.52
1.96947	34.52
1.98613	34.52
2.00280	34.53
2.01947	34.52
2.03613	34.52
2.05280	34.51
2.06947	34.52
2.08613	34.52
2.10280	34.52
2.11947	34.52
2.13613	34.52
2.15280	34.51
2.16947	34.52
2.18613	34.51
2.20280	34.52
2.21947	34.51
2.23613	34.52
2.25280	34.52
2.26947	34.53
2.28613	34.52
2.30280	34.52
2.31947	34.52
2.33613	34.52
2.35280	34.52
2.36947	34.52
2.38613	34.52
2.40280	34.52
2.41947	34.52
2.43613	34.52
2.45280	34.52
2.46947	34.52
2.48613	34.51
2.50280	34.66
2.51947	34.52
2.53613	34.52
2.55280	34.52
2.56947	34.52
2.58613	34.52
2.60280	34.52
2.61947	34.52
2.63613	34.53
2.65280	34.52
2.66947	34.52
2.68613	34.52
2.70280	34.51
2.71947	34.52
2.73613	34.52
2.75280	34.52
2.76947	34.51
2.78613	34.52
2.80280	34.52
2.81947	34.52
2.83613	34.52
2.85280	34.51
2.86947	34.51
2.88613	34.52
2.90280	34.52
2.91947	34.53
2.93613	34.51
2.95280	34.51
2.96947	34.51
2.98613	34.51
3.00280	34.52
3.01947	34.51
3.03613	34.52
3.05280	34.52
3.06947	34.51
3.08613	34.51
3.10280	34.52
3.11947	34.52
3.13613	34.52
3.15280	34.52
3.16947	34.51
3.18613	34.51
3.20280	34.52
3.21947	34.53
3.23613	34.52
3.25280	34.52
3.26947	34.52
3.28613	34.52
3.30280	34.53
3.31947	34.52
3.33613	34.52
3.35280	34.52
3.36947	34.52
3.38613	34.52
3.40280	34.52
3.41947	34.52
3.43613	34.52
3.45280	34.52
3.46947	34.52
3.48613	34.52
3.50280	34.51
3.51947	34.52
3.53613	34.52
3.55280	34.52
3.56947	34.52
3.58613	34.52
3.60280	34.52
3.61947	34.52
3.63613	34.52
3.65280	34.52
3.66947	34.52
3.68613	34.52
3.70280	34.52
3.71947	34.52
3.73613	34.52
3.75280	34.52
3.76947	34.51
3.78613	34.52
3.80280	34.52
3.81947	34.51
3.83613	34.52
3.85280	34.52
3.86947	34.52
3.88613	34.52
3.90280	34.51
3.91947	34.52
3.93613	34.52
3.95280	34.52
3.96947	34.52
3.98613	34.52

[Status Trace (Column Flow)]
Interval(msec)	1000
# of Points	240
Start Time(min)	0.003
End Time(min)	3.986
Intensity Units	
Intensity Multiplier	1
R.Time (min)	Intensity
0.00280	5.55
0.01947	5.33
0.03613	5.36
0.05280	5.63
0.06947	5.76
0.08613	5.58
0.10280	5.55
0.11947	5.55
0.13613	5.55
0.15280	5.55
0.16947	5.55
0.18613	5.55
0.20280	5.55
0.21947	5.55
0.23613	5.55
0.25280	5.55
0.26947	5.55
0.28613	5.55
0.30280	5.55
0.31947	5.55
0.33613	5.55
0.35280	5.55
0.36947	5.55
0.38613	5.55
0.40280	5.55
0.41947	5.55
0.43613	5.55
0.45280	5.55
0.46947	5.55
0.48613	5.55
0.50280	5.55
0.51947	5.55
0.53613	5.55
0.55280	5.55
0.56947	5.55
0.58613	5.55
0.60280	5.55
0.61947	5.55
0.63613	5.55
0.65280	5.55
0.66947	5.55
0.68613	5.55
0.70280	5.55
0.71947	5.55
0.73613	5.55
0.75280	5.55
0.76947	5.55
0.78613	5.55
0.80280	5.55
0.81947	5.55
0.83613	5.55
0.85280	5.55
0.86947	5.55
0.88613	5.55
0.90280	5.55
0.91947	5.55
0.93613	5.55
0.95280	5.55
0.96947	5.55
0.98613	5.55
1.00280	5.55
1.01947	5.55
1.03613	5.55
1.05280	5.55
1.06947	5.55
1.08613	5.55
1.10280	5.55
1.11947	5.55
1.13613	5.55
1.15280	5.55
1.16947	5.55
1.18613	5.55
1.20280	5.55
1.21947	5.55
1.23613	5.55
1.25280	5.55
1.26947	5.55
1.28613	5.55
1.30280	5.55
1.31947	5.55
1.33613	5.55
1.35280	5.55
1.36947	5.55
1.38613	5.55
1.40280	5.55
1.41947	5.55
1.43613	5.55
1.45280	5.55
1.46947	5.55
1.48613	5.55
1.50280	5.55
1.51947	5.55
1.53613	5.55
1.55280	5.55
1.56947	5.55
1.58613	5.55
1.60280	5.55
1.61947	5.55
1.63613	5.54
1.65280	5.54
1.66947	5.53
1.68613	5.52
1.70280	5.50
1.71947	5.49
1.73613	5.48
1.75280	5.47
1.76947	5.46
1.78613	5.45
1.80280	5.44
1.81947	5.43
1.83613	5.42
1.85280	5.41
1.86947	5.40
1.88613	5.39
1.90280	5.38
1.91947	5.37
1.93613	5.36
1.95280	5.35
1.96947	5.34
1.98613	5.33
2.00280	5.32
2.01947	5.31
2.03613	5.30
2.05280	5.29
2.06947	5.28
2.08613	5.28
2.10280	5.27
2.11947	5.26
2.13613	5.25
2.15280	5.24
2.16947	5.23
2.18613	5.22
2.20280	5.21
2.21947	5.20
2.23613	5.19
2.25280	5.18
2.26947	5.17
2.28613	5.16
2.30280	5.15
2.31947	5.14
2.33613	5.13
2.35280	5.12
2.36947	5.12
2.38613	5.11
2.40280	5.11
2.41947	5.11
2.43613	5.11
2.45280	5.11
2.46947	5.11
2.48613	5.11
2.50280	5.11
2.51947	5.11
2.53613	5.11
2.55280	5.11
2.56947	5.11
2.58613	5.11
2.60280	5.11
2.61947	5.11
2.63613	5.11
2.65280	5.11
2.66947	5.11
2.68613	5.11
2.70280	5.11
2.71947	5.11
2.73613	5.11
2.75280	5.11
2.76947	5.11
2.78613	5.11
2.80280	5.11
2.81947	5.11
2.83613	5.11
2.85280	5.11
2.86947	5.11
2.88613	5.11
2.90280	5.11
2.91947	5.11
2.93613	5.11
2.95280	5.11
2.96947	5.11
2.98613	5.11
3.00280	5.11
3.01947	5.11
3.03613	5.11
3.05280	5.11
3.06947	5.11
3.08613	5.11
3.10280	5.11
3.11947	5.11
3.13613	5.11
3.15280	5.11
3.16947	5.10
3.18613	5.10
3.20280	5.11
3.21947	5.11
3.23613	5.10
3.25280	5.10
3.26947	5.10
3.28613	5.10
3.30280	5.10
3.31947	5.10
3.33613	5.10
3.35280	5.10
3.36947	5.11
3.38613	5.11
3.40280	5.11
3.41947	5.11
3.43613	5.11
3.45280	5.11
3.46947	5.11
3.48613	5.11
3.50280	5.11
3.51947	5.11
3.53613	5.11
3.55280	5.11
3.56947	5.11
3.58613	5.11
3.60280	5.11
3.61947	5.11
3.63613	5.11
3.65280	5.11
3.66947	5.11
3.68613	5.11
3.70280	5.10
3.71947	5.10
3.73613	5.11
3.75280	5.11
3.76947	5.11
3.78613	5.11
3.80280	5.11
3.81947	5.11
3.83613	5.11
3.85280	5.10
3.86947	5.10
3.88613	5.10
3.90280	5.11
3.91947	5.11
3.93613	5.11
3.95280	5.11
3.96947	5.11
3.98613	5.11

[Status Trace (Linear Velocity)]
Interval(msec)	1000
# of Points	240
Start Time(min)	0.003
End Time(min)	3.986
Intensity Units	
Intensity Multiplier	1
R.Time (min)	Intensity
0.00280	39.02
0.01947	37.80
0.03613	37.93
0.05280	39.44
0.06947	40.21
0.08613	39.20
0.10280	39.00
0.11947	39.03
0.13613	39.03
0.15280	39.02
0.16947	39.02
0.18613	39.02
0.20280	39.02
0.21947	39.02
0.23613	39.02
0.25280	39.02
0.26947	39.03
0.28613	39.03
0.30280	39.03
0.31947	39.03
0.33613	39.03
0.35280	39.03
0.36947	39.03
0.38613	39.03
0.40280	39.03
0.41947	39.02
0.43613	39.02
0.45280	39.02
0.46947	39.02
0.48613	39.02
0.50280	39.02
0.51947	39.02
0.53613	39.02
0.55280	39.02
0.56947	39.02
0.58613	39.02
0.60280	39.02
0.61947	39.02
0.63613	39.02
0.65280	39.02
0.66947	39.02
0.68613	39.02
0.70280	39.02
0.71947	39.02
0.73613	39.02
0.75280	39.02
0.76947	39.02
0.78613	39.02
0.80280	39.03
0.81947	39.02
0.83613	39.02
0.85280	39.02
0.86947	39.02
0.88613	39.02
0.90280	39.02
0.91947	39.02
0.93613	39.02
0.95280	39.02
0.96947	39.02
0.98613	39.02
1.00280	39.02
1.01947	39.02
1.03613	39.02
1.05280	39.02
1.06947	39.02
1.08613	39.02
1.10280	39.02
1.11947	39.02
1.13613	39.02
1.15280	39.02
1.16947	39.02
1.18613	39.02
1.20280	39.02
1.21947	39.02
1.23613	39.03
1.25280	39.03
1.26947	39.03
1.28613	39.02
1.30280	39.02
1.31947	39.02
1.33613	39.02
1.35280	39.03
1.36947	39.03
1.38613	39.02
1.40280	39.02
1.41947	39.02
1.43613	39.02
1.45280	39.02
1.46947	39.02
1.48613	39.02
1.50280	39.02
1.51947	39.02
1.53613	39.02
1.55280	39.02
1.56947	39.02
1.58613	39.02
1.60280	39.02
1.61947	39.01
1.63613	38.99
1.65280	38.97
1.66947	38.95
1.68613	38.91
1.70280	38.88
1.71947	38.84
1.73613	38.81
1.75280	38.78
1.76947	38.75
1.78613	38.71
1.80280	38.69
1.81947	38.66
1.83613	38.62
1.85280	38.59
1.86947	38.56
1.88613	38.53
1.90280	38.50
1.91947	38.47
1.93613	38.44
1.95280	38.41
1.96947	38.38
1.98613	38.35
2.00280	38.32
2.01947	38.29
2.03613	38.26
2.05280	38.23
2.06947	38.20
2.08613	38.17
2.10280	38.14
2.11947	38.11
2.13613	38.08
2.15280	38.05
2.16947	38.02
2.18613	37.99
2.20280	37.96
2.21947	37.93
2.23613	37.90
2.25280	37.87
2.26947	37.84
2.28613	37.81
2.30280	37.78
2.31947	37.75
2.33613	37.72
2.35280	37.70
2.36947	37.67
2.38613	37.66
2.40280	37.65
2.41947	37.66
2.43613	37.66
2.45280	37.66
2.46947	37.66
2.48613	37.66
2.50280	37.63
2.51947	37.66
2.53613	37.65
2.55280	37.66
2.56947	37.66
2.58613	37.65
2.60280	37.66
2.61947	37.66
2.63613	37.65
2.65280	37.65
2.66947	37.65
2.68613	37.65
2.70280	37.65
2.71947	37.65
2.73613	37.65
2.75280	37.65
2.76947	37.65
2.78613	37.65
2.80280	37.65
2.81947	37.65
2.83613	37.65
2.85280	37.65
2.86947	37.65
2.88613	37.65
2.90280	37.65
2.91947	37.65
2.93613	37.65
2.95280	37.65
2.96947	37.64
2.98613	37.64
3.00280	37.64
3.01947	37.64
3.03613	37.64
3.05280	37.64
3.06947	37.64
3.08613	37.64
3.10280	37.64
3.11947	37.63
3.13613	37.63
3.15280	37.63
3.16947	37.63
3.18613	37.63
3.20280	37.63
3.21947	37.63
3.23613	37.63
3.25280	37.63
3.26947	37.63
3.28613	37.63
3.30280	37.63
3.31947	37.63
3.33613	37.63
3.35280	37.63
3.36947	37.63
3.38613	37.64
3.40280	37.64
3.41947	37.64
3.43613	37.64
3.45280	37.64
3.46947	37.64
3.48613	37.64
3.50280	37.64
3.51947	37.64
3.53613	37.64
3.55280	37.64
3.56947	37.64
3.58613	37.64
3.60280	37.64
3.61947	37.64
3.63613	37.64
3.65280	37.64
3.66947	37.63
3.68613	37.63
3.70280	37.63
3.71947	37.63
3.73613	37.63
3.75280	37.63
3.76947	37.64
3.78613	37.64
3.80280	37.63
3.81947	37.63
3.83613	37.63
3.85280	37.63
3.86947	37.63
3.88613	37.63
3.90280	37.63
3.91947	37.63
3.93613	37.63
3.95280	37.63
3.96947	37.63
3.98613	37.63

