[Header]
Application Name	LabSolutions
Version	5.110
Data File Name	C:\Users\User\Desktop\GC Analyses\Jack\Nachusa Grasslands Sampling\T4 Timepoint July 12th\T4_07122022_040.gcd
Output Date	3/17/2023
Output Time	12:04:53 PM

[File Information]
Type	Data File
Generated	3/14/2023 7:48:41 PM
Generated by	System Administrator
Modified	3/14/2023 7:55:18 PM
Modified by	System Administrator

[Sample Information]
Operator Name	System Administrator
Acquired	3/14/2023 7:51:18 PM
Sample Type	0:Unknown
Level	0
Sample Name	040
Sample ID	040
ISTD Amount1	1
ISTD Amount2	1
ISTD Amount3	1
ISTD Amount4	1
ISTD Amount5	1
ISTD Amount6	1
ISTD Amount7	1
ISTD Amount8	1
ISTD Amount9	1
ISTD Amount10	1
ISTD Amount11	1
ISTD Amount12	1
ISTD Amount13	1
ISTD Amount14	1
ISTD Amount15	1
ISTD Amount16	1
ISTD Amount17	1
ISTD Amount18	1
ISTD Amount19	1
ISTD Amount20	1
ISTD Amount21	1
ISTD Amount22	1
ISTD Amount23	1
ISTD Amount24	1
ISTD Amount25	1
ISTD Amount26	1
ISTD Amount27	1
ISTD Amount28	1
ISTD Amount29	1
ISTD Amount30	1
ISTD Amount31	1
ISTD Amount32	1
Sample Amount	1
Dilution Factor	1
Vial#	39
Injection Volume	1
Injection Count	1
Bar Code	

[Original Files]
Data File	C:\Users\User\Desktop\GC Analyses\Jack\Nachusa Grasslands Sampling\T4 Timepoint July 12th\T4_07122022_040.gcd
Method File	C:\LabSolutions\Data\GHG_4min_2022\ghg3_togas_w_acet_4 min_new_int.gcm
Batch File	C:\LabSolutions\Data\AutoSamplerTesting\T4_07122022.gcb
Report Format File	c:\LabSolutions\System\DEFAULT.lsr

[File Description]


[Configuration]
Instrument Name	C0B7VH3-Instrument1
Instrument #	1
Line #	1
# of Detectors	3
Detector ID	DET#1	DET#2	DET#3
Detector Name	FID	PTCD	ECD
# of Channels	1	1	1

[Peak Table(Ch1)]
# of Peaks	3
Peak#	R.Time	I.Time	F.Time	Area	Height	A/H	Conc.	Mark	ID#	Name	k'	Plate #	Plate Ht.	Tailing	Resolution	Sep.Factor	Area Ratio	Height Ratio	Conc. %	Norm Conc.
1	1.479	1.439	1.538	26530	13001	2.041	187.306	   	1	CO	0.000	9705	15.456	1.134	0.000	0.000	0	0	21.614	21.614
2	1.571	1.538	1.611	3489	1855	1.880	67.457	   	2	CH4	0.062	12326	12.169	1.111	1.571	0.000	0	0	7.784	7.784
3	2.000	1.952	2.352	2437782	1166658	2.090	611.817	   	3	CO2	0.352	17447	8.598	1.190	7.323	5.680	0	0	70.601	70.601

[Peak Table(Ch2)]
# of Peaks	0

[Peak Table(Ch3)]
# of Peaks	5
Peak#	R.Time	I.Time	F.Time	Area	Height	A/H	Conc.	Mark	ID#	Name	k'	Plate #	Plate Ht.	Tailing	Resolution	Sep.Factor	Area Ratio	Height Ratio	Conc. %	Norm Conc.
1	2.462	2.326	2.510	2075	653	3.176	0.000	   			0.000	9718	15.436	0.000	0.000	0.000	0	0	0.000	0.000
2	2.532	2.510	2.579	1108	373	2.969	0.000	 V 			0.028	6142	24.423	0.000	0.608	0.000	0	0	0.000	0.000
3	2.609	2.579	2.686	701	174	4.032	0.000	 V 			0.060	1166	128.631	0.000	0.354	2.105	0	0	0.000	0.000
4	2.880	2.799	3.041	18102	4829	3.749	0.462	   	1	N2O	0.170	13280	11.295	1.508	1.338	2.850	0	0	100.000	100.000
5	3.375	3.188	3.995	17868	651	27.461	0.000	   	2	SF6	0.371	259	578.784	2.132	1.055	2.184	0	0	0.000	0.000

[Compound Results(Ch1)]
# of IDs	6
ID#	Name	R.Time	Area	Height	Conc.	Curve	3rd	2nd	1st	Constant	Area Ratio	Height Ratio	Conc. %	Norm Conc.
1	CO	1.479	26530	13001	187.306	Linear	0.000000e+00	0.000000e+00	1.416423e+002	0.000000e+00	0	0	21.614	21.614
2	CH4	1.571	3489	1855	67.457	Linear	0.000000e+00	0.000000e+00	5.171738e+001	0.000000e+00	0	0	7.784	7.784
3	CO2	2.000	2437782	1166658	611.817	Linear	0.000000e+00	0.000000e+00	3.984494e+003	0.000000e+00	0	0	70.601	70.601
4	Ethylene	0.000	0	0	0.000	Linear	0.000000e+00	0.000000e+00	0.000000e+00	0.000000e+00	0	0	0.000	0.000
5	Acetylene	0.000	0	0	0.000	Linear	0.000000e+00	0.000000e+00	0.000000e+00	0.000000e+00	0	0	0.000	0.000
6	Ethane	0.000	0	0	0.000	Linear	0.000000e+00	0.000000e+00	0.000000e+00	0.000000e+00	0	0	0.000	0.000

[Compound Results(Ch2)]
# of IDs	5
ID#	Name	R.Time	Area	Height	Conc.	Curve	3rd	2nd	1st	Constant	Area Ratio	Height Ratio	Conc. %	Norm Conc.
1	Hydrogen	0.000	0	0	0.000	Linear	0.000000e+00	0.000000e+00	0.000000e+00	0.000000e+00	0	0	0.000	0.000
2	Oxygen	0.000	0	0	0.000	Linear	0.000000e+00	0.000000e+00	0.000000e+00	0.000000e+00	0	0	0.000	0.000
3	Nitrogen	0.000	0	0	0.000	Linear	0.000000e+00	0.000000e+00	0.000000e+00	0.000000e+00	0	0	0.000	0.000
4	Methane	0.000	0	0	0.000	Linear	0.000000e+00	0.000000e+00	0.000000e+00	0.000000e+00	0	0	0.000	0.000
5	Carbon Monoxide	0.000	0	0	0.000	Linear	0.000000e+00	0.000000e+00	0.000000e+00	0.000000e+00	0	0	0.000	0.000

[Compound Results(Ch3)]
# of IDs	2
ID#	Name	R.Time	Area	Height	Conc.	Curve	3rd	2nd	1st	Constant	Area Ratio	Height Ratio	Conc. %	Norm Conc.
1	N2O	2.880	18102	4829	0.462	Linear	0.000000e+00	0.000000e+00	3.915173e+004	0.000000e+00	0	0	100.000	100.000
2	SF6	3.375	17868	651	0.000	Linear	0.000000e+00	0.000000e+00	0.000000e+00	0.000000e+00	0	0	0.000	0.000

[Group Results(Ch1)]
# of Groups	0

[Group Results(Ch2)]
# of Groups	0

[Group Results(Ch3)]
# of Groups	0

[Chromatogram (Ch1)]
Interval(msec)	220
# of Points	1091
Start Time(min)	0.002
End Time(min)	3.998
R.Time (min)	Intensity
0.00167	2
0.00533	-5
0.00900	-9
0.01267	-5
0.01633	-0
0.02000	4
0.02367	9
0.02733	8
0.03100	5
0.03467	7
0.03833	12
0.04200	16
0.04567	22
0.04933	25
0.05300	24
0.05667	15
0.06033	2
0.06400	-4
0.06767	-5
0.07133	-2
0.07500	4
0.07867	11
0.08233	19
0.08600	28
0.08967	34
0.09333	37
0.09700	36
0.10067	34
0.10433	28
0.10800	15
0.11167	6
0.11533	6
0.11900	2
0.12267	-3
0.12633	-4
0.13000	2
0.13367	9
0.13733	14
0.14100	20
0.14467	22
0.14833	23
0.15200	19
0.15567	15
0.15933	16
0.16300	20
0.16667	27
0.17033	37
0.17400	45
0.17767	46
0.18133	39
0.18500	29
0.18867	17
0.19233	8
0.19600	3
0.19967	4
0.20333	6
0.20700	7
0.21067	9
0.21433	9
0.21800	4
0.22167	-1
0.22533	-2
0.22900	-1
0.23267	-1
0.23633	2
0.24000	10
0.24367	22
0.24733	33
0.25100	44
0.25467	56
0.25833	64
0.26200	63
0.26567	57
0.26933	44
0.27300	30
0.27667	24
0.28033	24
0.28400	22
0.28767	25
0.29133	34
0.29500	47
0.29867	54
0.30233	60
0.30600	66
0.30967	71
0.31333	74
0.31700	71
0.32067	65
0.32433	65
0.32800	67
0.33167	68
0.33533	67
0.33900	64
0.34267	64
0.34633	68
0.35000	76
0.35367	78
0.35733	80
0.36100	79
0.36467	78
0.36833	77
0.37200	78
0.37567	82
0.37933	87
0.38300	94
0.38667	96
0.39033	89
0.39400	76
0.39767	61
0.40133	52
0.40500	48
0.40867	47
0.41233	43
0.41600	41
0.41967	43
0.42333	46
0.42700	45
0.43067	42
0.43433	38
0.43800	33
0.44167	26
0.44533	22
0.44900	24
0.45267	30
0.45633	35
0.46000	37
0.46367	38
0.46733	35
0.47100	31
0.47467	28
0.47833	25
0.48200	23
0.48567	17
0.48933	6
0.49300	-8
0.49667	-19
0.50033	-31
0.50400	-39
0.50767	-38
0.51133	-29
0.51500	-24
0.51867	-17
0.52233	-7
0.52600	3
0.52967	13
0.53333	18
0.53700	20
0.54067	20
0.54433	10
0.54800	-3
0.55167	-6
0.55533	-4
0.55900	-6
0.56267	-8
0.56633	-8
0.57000	-8
0.57367	-10
0.57733	-16
0.58100	-22
0.58467	-25
0.58833	-28
0.59200	-28
0.59567	-25
0.59933	-17
0.60300	-6
0.60667	1
0.61033	1
0.61400	-1
0.61767	1
0.62133	-0
0.62500	-4
0.62867	-8
0.63233	-9
0.63600	-8
0.63967	-5
0.64333	-3
0.64700	-6
0.65067	-14
0.65433	-21
0.65800	-25
0.66167	-25
0.66533	-25
0.66900	-22
0.67267	-16
0.67633	-13
0.68000	-15
0.68367	-16
0.68733	-17
0.69100	-18
0.69467	-19
0.69833	-18
0.70200	-14
0.70567	-8
0.70933	-1
0.71300	2
0.71667	6
0.72033	12
0.72400	16
0.72767	13
0.73133	3
0.73500	-12
0.73867	-24
0.74233	-33
0.74600	-41
0.74967	-40
0.75333	-36
0.75700	-28
0.76067	-20
0.76433	-19
0.76800	-27
0.77167	-34
0.77533	-33
0.77900	-29
0.78267	-24
0.78633	-22
0.79000	-17
0.79367	-14
0.79733	-16
0.80100	-21
0.80467	-24
0.80833	-24
0.81200	-26
0.81567	-29
0.81933	-27
0.82300	-27
0.82667	-27
0.83033	-26
0.83400	-27
0.83767	-27
0.84133	-23
0.84500	-16
0.84867	-13
0.85233	-10
0.85600	-7
0.85967	-7
0.86333	-10
0.86700	-16
0.87067	-19
0.87433	-23
0.87800	-28
0.88167	-31
0.88533	-32
0.88900	-35
0.89267	-38
0.89633	-35
0.90000	-31
0.90367	-29
0.90733	-26
0.91100	-25
0.91467	-24
0.91833	-24
0.92200	-28
0.92567	-31
0.92933	-34
0.93300	-35
0.93667	-35
0.94033	-37
0.94400	-39
0.94767	-34
0.95133	-28
0.95500	-27
0.95867	-32
0.96233	-30
0.96600	-27
0.96967	-28
0.97333	-31
0.97700	-34
0.98067	-37
0.98433	-35
0.98800	-32
0.99167	-32
0.99533	-34
0.99900	-35
1.00267	-32
1.00633	-30
1.01000	-35
1.01367	-40
1.01733	-45
1.02100	-48
1.02467	-47
1.02833	-47
1.03200	-42
1.03567	-32
1.03933	-27
1.04300	-32
1.04667	-37
1.05033	-38
1.05400	-37
1.05767	-35
1.06133	-37
1.06500	-43
1.06867	-51
1.07233	-56
1.07600	-59
1.07967	-57
1.08333	-57
1.08700	-58
1.09067	-55
1.09433	-48
1.09800	-42
1.10167	-39
1.10533	-36
1.10900	-28
1.11267	-19
1.11633	-13
1.12000	-12
1.12367	-14
1.12733	-18
1.13100	-24
1.13467	-36
1.13833	-49
1.14200	-56
1.14567	-61
1.14933	-60
1.15300	-52
1.15667	-45
1.16033	-43
1.16400	-49
1.16767	-59
1.17133	-63
1.17500	-61
1.17867	-59
1.18233	-57
1.18600	-53
1.18967	-52
1.19333	-50
1.19700	-50
1.20067	-52
1.20433	-50
1.20800	-45
1.21167	-41
1.21533	-38
1.21900	-33
1.22267	-34
1.22633	-40
1.23000	-38
1.23367	-36
1.23733	-36
1.24100	-36
1.24467	-32
1.24833	-29
1.25200	-29
1.25567	-25
1.25933	-16
1.26300	-10
1.26667	-8
1.27033	-6
1.27400	-7
1.27767	-13
1.28133	-22
1.28500	-32
1.28867	-41
1.29233	-46
1.29600	-47
1.29967	-47
1.30333	-43
1.30700	-37
1.31067	-30
1.31433	-25
1.31800	-24
1.32167	-22
1.32533	-21
1.32900	-20
1.33267	-15
1.33633	-8
1.34000	-2
1.34367	-2
1.34733	-3
1.35100	-4
1.35467	-4
1.35833	-7
1.36200	-13
1.36567	-21
1.36933	-32
1.37300	-40
1.37667	-38
1.38033	-35
1.38400	-31
1.38767	-26
1.39133	-22
1.39500	-18
1.39867	-16
1.40233	-19
1.40600	-25
1.40967	-28
1.41333	-31
1.41700	-28
1.42067	-26
1.42433	-25
1.42800	-23
1.43167	-28
1.43533	-32
1.43900	-21
1.44267	20
1.44633	144
1.45000	498
1.45367	1461
1.45733	3340
1.46100	5853
1.46467	8401
1.46833	10557
1.47200	12123
1.47567	12970
1.47933	12970
1.48300	12077
1.48667	10455
1.49033	8449
1.49400	6444
1.49767	4694
1.50133	3294
1.50500	2245
1.50867	1491
1.51233	963
1.51600	604
1.51967	363
1.52333	204
1.52700	99
1.53067	29
1.53433	-18
1.53800	-46
1.54167	-25
1.54533	82
1.54900	312
1.55267	646
1.55633	1014
1.56000	1348
1.56367	1607
1.56733	1769
1.57100	1805
1.57467	1695
1.57833	1451
1.58200	1135
1.58567	821
1.58933	555
1.59300	351
1.59667	206
1.60033	106
1.60400	36
1.60767	-17
1.61133	-55
1.61500	-81
1.61867	-94
1.62233	-97
1.62600	-95
1.62967	-92
1.63333	-93
1.63700	-95
1.64067	-93
1.64433	-89
1.64800	-87
1.65167	-84
1.65533	-80
1.65900	-75
1.66267	-71
1.66633	-71
1.67000	-71
1.67367	-69
1.67733	-65
1.68100	-65
1.68467	-69
1.68833	-76
1.69200	-81
1.69567	-83
1.69933	-84
1.70300	-81
1.70667	-78
1.71033	-79
1.71400	-82
1.71767	-84
1.72133	-85
1.72500	-82
1.72867	-80
1.73233	-75
1.73600	-69
1.73967	-71
1.74333	-76
1.74700	-79
1.75067	-80
1.75433	-81
1.75800	-81
1.76167	-77
1.76533	-73
1.76900	-74
1.77267	-74
1.77633	-70
1.78000	-70
1.78367	-70
1.78733	-71
1.79100	-70
1.79467	-71
1.79833	-68
1.80200	-56
1.80567	-44
1.80933	-40
1.81300	-47
1.81667	-60
1.82033	-74
1.82400	-84
1.82767	-89
1.83133	-91
1.83500	-90
1.83867	-85
1.84233	-80
1.84600	-76
1.84967	-74
1.85333	-71
1.85700	-69
1.86067	-71
1.86433	-73
1.86800	-77
1.87167	-79
1.87533	-83
1.87900	-83
1.88267	-73
1.88633	-62
1.89000	-59
1.89367	-61
1.89733	-61
1.90100	-57
1.90467	-62
1.90833	-69
1.91200	-71
1.91567	-72
1.91933	-74
1.92300	-77
1.92667	-76
1.93033	-72
1.93400	-64
1.93767	-60
1.94133	-62
1.94500	-66
1.94867	-71
1.95233	-66
1.95600	18
1.95967	577
1.96333	3463
1.96700	14833
1.97067	49053
1.97433	128211
1.97800	269593
1.98167	468141
1.98533	693187
1.98900	904279
1.99267	1066848
1.99633	1157792
2.00000	1166625
2.00367	1096574
2.00733	964705
2.01100	797918
2.01467	624859
2.01833	467606
2.02200	337901
2.02567	238266
2.02933	165563
2.03300	114376
2.03667	79181
2.04033	55322
2.04400	39252
2.04767	28427
2.05133	21094
2.05500	16069
2.05867	12568
2.06233	10081
2.06600	8274
2.06967	6927
2.07333	5902
2.07700	5109
2.08067	4480
2.08433	3975
2.08800	3562
2.09167	3218
2.09533	2927
2.09900	2681
2.10267	2469
2.10633	2284
2.11000	2119
2.11367	1973
2.11733	1839
2.12100	1714
2.12467	1600
2.12833	1501
2.13200	1416
2.13567	1337
2.13933	1265
2.14300	1202
2.14667	1146
2.15033	1093
2.15400	1045
2.15767	1006
2.16133	968
2.16500	926
2.16867	887
2.17233	848
2.17600	810
2.17967	777
2.18333	749
2.18700	719
2.19067	694
2.19433	673
2.19800	653
2.20167	635
2.20533	618
2.20900	602
2.21267	580
2.21633	555
2.22000	533
2.22367	513
2.22733	496
2.23100	486
2.23467	482
2.23833	477
2.24200	468
2.24567	456
2.24933	440
2.25300	423
2.25667	405
2.26033	385
2.26400	369
2.26767	360
2.27133	351
2.27500	342
2.27867	335
2.28233	328
2.28600	322
2.28967	323
2.29333	326
2.29700	322
2.30067	310
2.30433	298
2.30800	289
2.31167	284
2.31533	281
2.31900	277
2.32267	274
2.32633	266
2.33000	257
2.33367	249
2.33733	245
2.34100	243
2.34467	236
2.34833	225
2.35200	214
2.35567	206
2.35933	205
2.36300	210
2.36667	221
2.37033	230
2.37400	233
2.37767	229
2.38133	222
2.38500	213
2.38867	203
2.39233	192
2.39600	183
2.39967	178
2.40333	176
2.40700	174
2.41067	174
2.41433	176
2.41800	179
2.42167	182
2.42533	182
2.42900	182
2.43267	182
2.43633	179
2.44000	177
2.44367	178
2.44733	174
2.45100	169
2.45467	164
2.45833	161
2.46200	161
2.46567	157
2.46933	152
2.47300	146
2.47667	136
2.48033	122
2.48400	116
2.48767	115
2.49133	116
2.49500	116
2.49867	115
2.50233	114
2.50600	119
2.50967	128
2.51333	135
2.51700	143
2.52067	152
2.52433	157
2.52800	152
2.53167	134
2.53533	114
2.53900	101
2.54267	94
2.54633	94
2.55000	97
2.55367	96
2.55733	93
2.56100	93
2.56467	92
2.56833	90
2.57200	90
2.57567	95
2.57933	103
2.58300	109
2.58667	111
2.59033	109
2.59400	108
2.59767	105
2.60133	98
2.60500	91
2.60867	87
2.61233	88
2.61600	92
2.61967	98
2.62333	100
2.62700	102
2.63067	104
2.63433	105
2.63800	100
2.64167	88
2.64533	73
2.64900	67
2.65267	69
2.65633	73
2.66000	76
2.66367	74
2.66733	69
2.67100	65
2.67467	61
2.67833	62
2.68200	69
2.68567	74
2.68933	72
2.69300	69
2.69667	70
2.70033	73
2.70400	74
2.70767	74
2.71133	78
2.71500	87
2.71867	90
2.72233	88
2.72600	83
2.72967	81
2.73333	84
2.73700	89
2.74067	95
2.74433	96
2.74800	93
2.75167	88
2.75533	80
2.75900	73
2.76267	66
2.76633	63
2.77000	68
2.77367	78
2.77733	87
2.78100	89
2.78467	84
2.78833	77
2.79200	73
2.79567	74
2.79933	76
2.80300	76
2.80667	76
2.81033	80
2.81400	82
2.81767	81
2.82133	85
2.82500	87
2.82867	86
2.83233	86
2.83600	89
2.83967	94
2.84333	99
2.84700	99
2.85067	93
2.85433	87
2.85800	84
2.86167	84
2.86533	85
2.86900	84
2.87267	87
2.87633	86
2.88000	84
2.88367	79
2.88733	73
2.89100	69
2.89467	63
2.89833	59
2.90200	59
2.90567	65
2.90933	76
2.91300	83
2.91667	83
2.92033	82
2.92400	74
2.92767	65
2.93133	63
2.93500	64
2.93867	59
2.94233	60
2.94600	64
2.94967	69
2.95333	72
2.95700	76
2.96067	77
2.96433	74
2.96800	77
2.97167	88
2.97533	101
2.97900	109
2.98267	113
2.98633	115
2.99000	112
2.99367	103
2.99733	94
3.00100	87
3.00467	82
3.00833	83
3.01200	91
3.01567	98
3.01933	97
3.02300	93
3.02667	88
3.03033	79
3.03400	75
3.03767	72
3.04133	70
3.04500	68
3.04867	68
3.05233	68
3.05600	69
3.05967	71
3.06333	79
3.06700	87
3.07067	89
3.07433	85
3.07800	77
3.08167	64
3.08533	53
3.08900	48
3.09267	46
3.09633	48
3.10000	53
3.10367	62
3.10733	68
3.11100	73
3.11467	82
3.11833	85
3.12200	82
3.12567	78
3.12933	72
3.13300	72
3.13667	73
3.14033	73
3.14400	73
3.14767	77
3.15133	83
3.15500	87
3.15867	87
3.16233	84
3.16600	76
3.16967	70
3.17333	67
3.17700	67
3.18067	67
3.18433	66
3.18800	66
3.19167	73
3.19533	85
3.19900	93
3.20267	96
3.20633	99
3.21000	99
3.21367	92
3.21733	81
3.22100	72
3.22467	67
3.22833	69
3.23200	78
3.23567	83
3.23933	82
3.24300	81
3.24667	82
3.25033	87
3.25400	89
3.25767	86
3.26133	84
3.26500	81
3.26867	70
3.27233	64
3.27600	66
3.27967	70
3.28333	71
3.28700	71
3.29067	71
3.29433	73
3.29800	73
3.30167	71
3.30533	68
3.30900	65
3.31267	62
3.31633	56
3.32000	54
3.32367	55
3.32733	59
3.33100	65
3.33467	71
3.33833	78
3.34200	86
3.34567	87
3.34933	80
3.35300	74
3.35667	68
3.36033	57
3.36400	48
3.36767	45
3.37133	49
3.37500	57
3.37867	67
3.38233	72
3.38600	73
3.38967	79
3.39333	88
3.39700	94
3.40067	98
3.40433	105
3.40800	118
3.41167	124
3.41533	119
3.41900	107
3.42267	87
3.42633	66
3.43000	53
3.43367	47
3.43733	48
3.44100	52
3.44467	56
3.44833	57
3.45200	55
3.45567	53
3.45933	50
3.46300	50
3.46667	51
3.47033	55
3.47400	63
3.47767	64
3.48133	59
3.48500	51
3.48867	44
3.49233	41
3.49600	42
3.49967	46
3.50333	49
3.50700	56
3.51067	62
3.51433	63
3.51800	63
3.52167	62
3.52533	64
3.52900	66
3.53267	65
3.53633	64
3.54000	69
3.54367	75
3.54733	78
3.55100	75
3.55467	65
3.55833	52
3.56200	43
3.56567	41
3.56933	40
3.57300	43
3.57667	44
3.58033	41
3.58400	38
3.58767	36
3.59133	38
3.59500	44
3.59867	54
3.60233	58
3.60600	59
3.60967	60
3.61333	62
3.61700	62
3.62067	61
3.62433	59
3.62800	59
3.63167	58
3.63533	52
3.63900	42
3.64267	39
3.64633	45
3.65000	52
3.65367	52
3.65733	47
3.66100	37
3.66467	31
3.66833	31
3.67200	35
3.67567	41
3.67933	37
3.68300	29
3.68667	26
3.69033	26
3.69400	28
3.69767	33
3.70133	39
3.70500	44
3.70867	47
3.71233	54
3.71600	56
3.71967	54
3.72333	45
3.72700	36
3.73067	29
3.73433	25
3.73800	23
3.74167	20
3.74533	22
3.74900	26
3.75267	28
3.75633	29
3.76000	29
3.76367	32
3.76733	39
3.77100	44
3.77467	44
3.77833	46
3.78200	45
3.78567	42
3.78933	38
3.79300	41
3.79667	45
3.80033	40
3.80400	34
3.80767	31
3.81133	29
3.81500	27
3.81867	23
3.82233	18
3.82600	16
3.82967	21
3.83333	25
3.83700	27
3.84067	28
3.84433	31
3.84800	33
3.85167	29
3.85533	25
3.85900	21
3.86267	21
3.86633	21
3.87000	20
3.87367	17
3.87733	15
3.88100	18
3.88467	19
3.88833	17
3.89200	13
3.89567	14
3.89933	21
3.90300	32
3.90667	41
3.91033	41
3.91400	33
3.91767	24
3.92133	20
3.92500	22
3.92867	26
3.93233	31
3.93600	35
3.93967	34
3.94333	31
3.94700	31
3.95067	35
3.95433	38
3.95800	38
3.96167	37
3.96533	35
3.96900	32
3.97267	26
3.97633	21
3.98000	12
3.98367	2
3.98733	-4
3.99100	-9
3.99467	-8
3.99833	-0

[Chromatogram (Ch2)]
Interval(msec)	220
# of Points	1091
Start Time(min)	0.002
End Time(min)	3.998
R.Time (min)	Intensity
0.00167	0
0.00533	-0
0.00900	-0
0.01267	-1
0.01633	-1
0.02000	-1
0.02367	-1
0.02733	-1
0.03100	-1
0.03467	-1
0.03833	-1
0.04200	-1
0.04567	-1
0.04933	-1
0.05300	-1
0.05667	-1
0.06033	-1
0.06400	-1
0.06767	-2
0.07133	-2
0.07500	-2
0.07867	-2
0.08233	-2
0.08600	-1
0.08967	-1
0.09333	-1
0.09700	-1
0.10067	-1
0.10433	-2
0.10800	-2
0.11167	-2
0.11533	-3
0.11900	-3
0.12267	-3
0.12633	-3
0.13000	-4
0.13367	-4
0.13733	-4
0.14100	-4
0.14467	-5
0.14833	-5
0.15200	-5
0.15567	-5
0.15933	-4
0.16300	-4
0.16667	-4
0.17033	-4
0.17400	-4
0.17767	-4
0.18133	-4
0.18500	-4
0.18867	-4
0.19233	-4
0.19600	-4
0.19967	-5
0.20333	-5
0.20700	-5
0.21067	-6
0.21433	-6
0.21800	-7
0.22167	-7
0.22533	-7
0.22900	-7
0.23267	-6
0.23633	-7
0.24000	-6
0.24367	-6
0.24733	-6
0.25100	-6
0.25467	-6
0.25833	-6
0.26200	-6
0.26567	-6
0.26933	-5
0.27300	-5
0.27667	-5
0.28033	-5
0.28400	-4
0.28767	-4
0.29133	-4
0.29500	-3
0.29867	-3
0.30233	-3
0.30600	-4
0.30967	-4
0.31333	-3
0.31700	-3
0.32067	-3
0.32433	-3
0.32800	-3
0.33167	-3
0.33533	-3
0.33900	-3
0.34267	-3
0.34633	-3
0.35000	-3
0.35367	-3
0.35733	-3
0.36100	-2
0.36467	-2
0.36833	-2
0.37200	-3
0.37567	-3
0.37933	-3
0.38300	-3
0.38667	-4
0.39033	-4
0.39400	-4
0.39767	-4
0.40133	-4
0.40500	-5
0.40867	-5
0.41233	-5
0.41600	-5
0.41967	-5
0.42333	-5
0.42700	-5
0.43067	-5
0.43433	-5
0.43800	-5
0.44167	-5
0.44533	-4
0.44900	-4
0.45267	-4
0.45633	-4
0.46000	-4
0.46367	-4
0.46733	-4
0.47100	-4
0.47467	-4
0.47833	-4
0.48200	-4
0.48567	-5
0.48933	-5
0.49300	-5
0.49667	-5
0.50033	-6
0.50400	-6
0.50767	-6
0.51133	-6
0.51500	-6
0.51867	-6
0.52233	-6
0.52600	-7
0.52967	-7
0.53333	-7
0.53700	-7
0.54067	-7
0.54433	-7
0.54800	-7
0.55167	-7
0.55533	-7
0.55900	-7
0.56267	-8
0.56633	-8
0.57000	-7
0.57367	-7
0.57733	-7
0.58100	-7
0.58467	-7
0.58833	-7
0.59200	-7
0.59567	-6
0.59933	-6
0.60300	-6
0.60667	-6
0.61033	-5
0.61400	-5
0.61767	-5
0.62133	-4
0.62500	-4
0.62867	-3
0.63233	-3
0.63600	-3
0.63967	-2
0.64333	-2
0.64700	-2
0.65067	-3
0.65433	-3
0.65800	-3
0.66167	-4
0.66533	-4
0.66900	-5
0.67267	-5
0.67633	-5
0.68000	-6
0.68367	-6
0.68733	-5
0.69100	-5
0.69467	-5
0.69833	-5
0.70200	-5
0.70567	-4
0.70933	-4
0.71300	-4
0.71667	-4
0.72033	-5
0.72400	-5
0.72767	-5
0.73133	-5
0.73500	-5
0.73867	-5
0.74233	-4
0.74600	-4
0.74967	-4
0.75333	-4
0.75700	-3
0.76067	-2
0.76433	-2
0.76800	-2
0.77167	-1
0.77533	-1
0.77900	-1
0.78267	-1
0.78633	-1
0.79000	-1
0.79367	-1
0.79733	-1
0.80100	-1
0.80467	-1
0.80833	-1
0.81200	-2
0.81567	-2
0.81933	-3
0.82300	-3
0.82667	-4
0.83033	-4
0.83400	-4
0.83767	-5
0.84133	-5
0.84500	-5
0.84867	-5
0.85233	-5
0.85600	-5
0.85967	-5
0.86333	-5
0.86700	-5
0.87067	-5
0.87433	-6
0.87800	-6
0.88167	-6
0.88533	-6
0.88900	-7
0.89267	-7
0.89633	-7
0.90000	-7
0.90367	-7
0.90733	-7
0.91100	-7
0.91467	-7
0.91833	-7
0.92200	-6
0.92567	-6
0.92933	-6
0.93300	-6
0.93667	-6
0.94033	-5
0.94400	-5
0.94767	-5
0.95133	-4
0.95500	-4
0.95867	-3
0.96233	-3
0.96600	-3
0.96967	-3
0.97333	-3
0.97700	-3
0.98067	-3
0.98433	-3
0.98800	-3
0.99167	-3
0.99533	-3
0.99900	-3
1.00267	-2
1.00633	-2
1.01000	-3
1.01367	-3
1.01733	-3
1.02100	-4
1.02467	-4
1.02833	-5
1.03200	-5
1.03567	-6
1.03933	-7
1.04300	-7
1.04667	-8
1.05033	-8
1.05400	-8
1.05767	-8
1.06133	-8
1.06500	-8
1.06867	-7
1.07233	-7
1.07600	-7
1.07967	-6
1.08333	-6
1.08700	-5
1.09067	-5
1.09433	-5
1.09800	-4
1.10167	-4
1.10533	-4
1.10900	-5
1.11267	-5
1.11633	-5
1.12000	-6
1.12367	-6
1.12733	-6
1.13100	-6
1.13467	-6
1.13833	-6
1.14200	-6
1.14567	-6
1.14933	-6
1.15300	-6
1.15667	-6
1.16033	-7
1.16400	-7
1.16767	-7
1.17133	-8
1.17500	-8
1.17867	-8
1.18233	-8
1.18600	-7
1.18967	-7
1.19333	-7
1.19700	-6
1.20067	-6
1.20433	-6
1.20800	-6
1.21167	-6
1.21533	-7
1.21900	-7
1.22267	-7
1.22633	-7
1.23000	-7
1.23367	-7
1.23733	-7
1.24100	-7
1.24467	-7
1.24833	-7
1.25200	-7
1.25567	-7
1.25933	-6
1.26300	-6
1.26667	-6
1.27033	-5
1.27400	-5
1.27767	-4
1.28133	-4
1.28500	-3
1.28867	-3
1.29233	-3
1.29600	-3
1.29967	-3
1.30333	-2
1.30700	-3
1.31067	-3
1.31433	-3
1.31800	-3
1.32167	-3
1.32533	-3
1.32900	-3
1.33267	-3
1.33633	-3
1.34000	-3
1.34367	-3
1.34733	-3
1.35100	-3
1.35467	-2
1.35833	-2
1.36200	-2
1.36567	-2
1.36933	-2
1.37300	-2
1.37667	-2
1.38033	-2
1.38400	-2
1.38767	-2
1.39133	-3
1.39500	-3
1.39867	-3
1.40233	-3
1.40600	-3
1.40967	-4
1.41333	-4
1.41700	-4
1.42067	-4
1.42433	-4
1.42800	-4
1.43167	-4
1.43533	-5
1.43900	-5
1.44267	-5
1.44633	-5
1.45000	-6
1.45367	-6
1.45733	-6
1.46100	-7
1.46467	-7
1.46833	-7
1.47200	-7
1.47567	-7
1.47933	-8
1.48300	-8
1.48667	-8
1.49033	-8
1.49400	-8
1.49767	-8
1.50133	-7
1.50500	-7
1.50867	-7
1.51233	-7
1.51600	-7
1.51967	-7
1.52333	-7
1.52700	-7
1.53067	-7
1.53433	-7
1.53800	-7
1.54167	-7
1.54533	-7
1.54900	-7
1.55267	-7
1.55633	-7
1.56000	-8
1.56367	-8
1.56733	-8
1.57100	-8
1.57467	-8
1.57833	-7
1.58200	-7
1.58567	-7
1.58933	-7
1.59300	-7
1.59667	-7
1.60033	-8
1.60400	-9
1.60767	-10
1.61133	-11
1.61500	-14
1.61867	-16
1.62233	-19
1.62600	-22
1.62967	-26
1.63333	-29
1.63700	-33
1.64067	-36
1.64433	-40
1.64800	-44
1.65167	-47
1.65533	-51
1.65900	-54
1.66267	-58
1.66633	-61
1.67000	-66
1.67367	-70
1.67733	-75
1.68100	-80
1.68467	-85
1.68833	-90
1.69200	-94
1.69567	-98
1.69933	-101
1.70300	-103
1.70667	-106
1.71033	-107
1.71400	-108
1.71767	-109
1.72133	-109
1.72500	-109
1.72867	-109
1.73233	-109
1.73600	-109
1.73967	-108
1.74333	-108
1.74700	-108
1.75067	-109
1.75433	-109
1.75800	-110
1.76167	-111
1.76533	-112
1.76900	-113
1.77267	-114
1.77633	-116
1.78000	-117
1.78367	-118
1.78733	-118
1.79100	-118
1.79467	-118
1.79833	-118
1.80200	-118
1.80567	-118
1.80933	-119
1.81300	-118
1.81667	-118
1.82033	-118
1.82400	-118
1.82767	-118
1.83133	-119
1.83500	-120
1.83867	-121
1.84233	-121
1.84600	-121
1.84967	-121
1.85333	-121
1.85700	-120
1.86067	-119
1.86433	-118
1.86800	-117
1.87167	-115
1.87533	-114
1.87900	-113
1.88267	-112
1.88633	-112
1.89000	-112
1.89367	-113
1.89733	-113
1.90100	-114
1.90467	-115
1.90833	-115
1.91200	-116
1.91567	-116
1.91933	-117
1.92300	-117
1.92667	-117
1.93033	-117
1.93400	-116
1.93767	-115
1.94133	-115
1.94500	-114
1.94867	-114
1.95233	-114
1.95600	-114
1.95967	-114
1.96333	-113
1.96700	-112
1.97067	-112
1.97433	-111
1.97800	-110
1.98167	-110
1.98533	-110
1.98900	-110
1.99267	-110
1.99633	-110
2.00000	-110
2.00367	-110
2.00733	-111
2.01100	-111
2.01467	-112
2.01833	-111
2.02200	-111
2.02567	-110
2.02933	-110
2.03300	-109
2.03667	-108
2.04033	-107
2.04400	-106
2.04767	-106
2.05133	-106
2.05500	-106
2.05867	-106
2.06233	-106
2.06600	-105
2.06967	-105
2.07333	-104
2.07700	-104
2.08067	-104
2.08433	-104
2.08800	-103
2.09167	-103
2.09533	-103
2.09900	-104
2.10267	-104
2.10633	-103
2.11000	-103
2.11367	-102
2.11733	-102
2.12100	-101
2.12467	-100
2.12833	-100
2.13200	-100
2.13567	-100
2.13933	-100
2.14300	-101
2.14667	-101
2.15033	-101
2.15400	-100
2.15767	-100
2.16133	-100
2.16500	-99
2.16867	-98
2.17233	-97
2.17600	-96
2.17967	-96
2.18333	-95
2.18700	-95
2.19067	-95
2.19433	-95
2.19800	-95
2.20167	-95
2.20533	-95
2.20900	-95
2.21267	-95
2.21633	-94
2.22000	-93
2.22367	-93
2.22733	-92
2.23100	-92
2.23467	-91
2.23833	-91
2.24200	-91
2.24567	-91
2.24933	-91
2.25300	-91
2.25667	-91
2.26033	-91
2.26400	-91
2.26767	-90
2.27133	-90
2.27500	-90
2.27867	-89
2.28233	-89
2.28600	-88
2.28967	-88
2.29333	-88
2.29700	-88
2.30067	-89
2.30433	-88
2.30800	-88
2.31167	-87
2.31533	-87
2.31900	-86
2.32267	-86
2.32633	-85
2.33000	-83
2.33367	-82
2.33733	-81
2.34100	-80
2.34467	-80
2.34833	-79
2.35200	-79
2.35567	-78
2.35933	-77
2.36300	-76
2.36667	-74
2.37033	-72
2.37400	-70
2.37767	-67
2.38133	-63
2.38500	-59
2.38867	-55
2.39233	-51
2.39600	-47
2.39967	-42
2.40333	-38
2.40700	-34
2.41067	-30
2.41433	-26
2.41800	-23
2.42167	-20
2.42533	-18
2.42900	-15
2.43267	-14
2.43633	-12
2.44000	-11
2.44367	-10
2.44733	-9
2.45100	-9
2.45467	-8
2.45833	-8
2.46200	-8
2.46567	-8
2.46933	-7
2.47300	-6
2.47667	-5
2.48033	-4
2.48400	-3
2.48767	-2
2.49133	-1
2.49500	-1
2.49867	0
2.50233	1
2.50600	1
2.50967	2
2.51333	2
2.51700	3
2.52067	3
2.52433	3
2.52800	4
2.53167	4
2.53533	5
2.53900	5
2.54267	6
2.54633	6
2.55000	7
2.55367	7
2.55733	8
2.56100	9
2.56467	9
2.56833	10
2.57200	11
2.57567	11
2.57933	11
2.58300	11
2.58667	11
2.59033	10
2.59400	10
2.59767	9
2.60133	9
2.60500	10
2.60867	10
2.61233	10
2.61600	10
2.61967	10
2.62333	10
2.62700	10
2.63067	10
2.63433	11
2.63800	11
2.64167	11
2.64533	12
2.64900	13
2.65267	13
2.65633	14
2.66000	14
2.66367	15
2.66733	15
2.67100	15
2.67467	15
2.67833	15
2.68200	15
2.68567	15
2.68933	15
2.69300	15
2.69667	15
2.70033	15
2.70400	16
2.70767	16
2.71133	17
2.71500	17
2.71867	18
2.72233	19
2.72600	19
2.72967	20
2.73333	20
2.73700	20
2.74067	21
2.74433	21
2.74800	22
2.75167	22
2.75533	22
2.75900	22
2.76267	21
2.76633	20
2.77000	19
2.77367	18
2.77733	17
2.78100	16
2.78467	16
2.78833	15
2.79200	15
2.79567	15
2.79933	15
2.80300	15
2.80667	15
2.81033	16
2.81400	16
2.81767	17
2.82133	18
2.82500	18
2.82867	19
2.83233	20
2.83600	20
2.83967	20
2.84333	20
2.84700	19
2.85067	15
2.85433	10
2.85800	1
2.86167	-11
2.86533	-27
2.86900	-47
2.87267	-71
2.87633	-100
2.88000	-133
2.88367	-170
2.88733	-211
2.89100	-255
2.89467	-303
2.89833	-353
2.90200	-405
2.90567	-459
2.90933	-514
2.91300	-569
2.91667	-624
2.92033	-679
2.92400	-734
2.92767	-786
2.93133	-837
2.93500	-889
2.93867	-944
2.94233	-1002
2.94600	-1056
2.94967	-1095
2.95333	-1110
2.95700	-1099
2.96067	-1064
2.96433	-1010
2.96800	-941
2.97167	-864
2.97533	-783
2.97900	-702
2.98267	-624
2.98633	-550
2.99000	-482
2.99367	-420
2.99733	-364
3.00100	-315
3.00467	-271
3.00833	-232
3.01200	-198
3.01567	-169
3.01933	-143
3.02300	-121
3.02667	-102
3.03033	-86
3.03400	-72
3.03767	-60
3.04133	-50
3.04500	-41
3.04867	-34
3.05233	-28
3.05600	-23
3.05967	-18
3.06333	-15
3.06700	-12
3.07067	-9
3.07433	-7
3.07800	-5
3.08167	-3
3.08533	-1
3.08900	0
3.09267	2
3.09633	3
3.10000	4
3.10367	5
3.10733	6
3.11100	7
3.11467	8
3.11833	9
3.12200	9
3.12567	10
3.12933	11
3.13300	11
3.13667	12
3.14033	12
3.14400	12
3.14767	12
3.15133	13
3.15500	13
3.15867	14
3.16233	14
3.16600	14
3.16967	15
3.17333	15
3.17700	16
3.18067	16
3.18433	17
3.18800	17
3.19167	18
3.19533	18
3.19900	18
3.20267	18
3.20633	18
3.21000	18
3.21367	18
3.21733	18
3.22100	18
3.22467	18
3.22833	18
3.23200	18
3.23567	18
3.23933	18
3.24300	18
3.24667	18
3.25033	18
3.25400	18
3.25767	18
3.26133	18
3.26500	18
3.26867	18
3.27233	18
3.27600	18
3.27967	18
3.28333	18
3.28700	18
3.29067	18
3.29433	18
3.29800	18
3.30167	18
3.30533	18
3.30900	18
3.31267	19
3.31633	19
3.32000	20
3.32367	20
3.32733	20
3.33100	21
3.33467	21
3.33833	22
3.34200	22
3.34567	23
3.34933	24
3.35300	24
3.35667	24
3.36033	25
3.36400	25
3.36767	25
3.37133	25
3.37500	25
3.37867	25
3.38233	25
3.38600	25
3.38967	25
3.39333	25
3.39700	25
3.40067	25
3.40433	25
3.40800	25
3.41167	25
3.41533	25
3.41900	25
3.42267	25
3.42633	25
3.43000	25
3.43367	25
3.43733	25
3.44100	25
3.44467	25
3.44833	25
3.45200	25
3.45567	24
3.45933	24
3.46300	24
3.46667	24
3.47033	24
3.47400	24
3.47767	23
3.48133	23
3.48500	23
3.48867	23
3.49233	23
3.49600	23
3.49967	23
3.50333	23
3.50700	23
3.51067	23
3.51433	23
3.51800	23
3.52167	23
3.52533	23
3.52900	23
3.53267	23
3.53633	22
3.54000	22
3.54367	22
3.54733	22
3.55100	22
3.55467	22
3.55833	22
3.56200	22
3.56567	22
3.56933	22
3.57300	23
3.57667	23
3.58033	23
3.58400	23
3.58767	23
3.59133	23
3.59500	23
3.59867	24
3.60233	24
3.60600	24
3.60967	24
3.61333	24
3.61700	24
3.62067	24
3.62433	24
3.62800	24
3.63167	23
3.63533	23
3.63900	23
3.64267	23
3.64633	23
3.65000	23
3.65367	23
3.65733	23
3.66100	23
3.66467	23
3.66833	23
3.67200	23
3.67567	23
3.67933	23
3.68300	23
3.68667	23
3.69033	24
3.69400	24
3.69767	24
3.70133	23
3.70500	23
3.70867	23
3.71233	23
3.71600	23
3.71967	22
3.72333	22
3.72700	22
3.73067	22
3.73433	22
3.73800	22
3.74167	21
3.74533	21
3.74900	22
3.75267	22
3.75633	22
3.76000	22
3.76367	22
3.76733	22
3.77100	23
3.77467	23
3.77833	23
3.78200	23
3.78567	23
3.78933	23
3.79300	23
3.79667	23
3.80033	22
3.80400	23
3.80767	23
3.81133	23
3.81500	23
3.81867	23
3.82233	23
3.82600	23
3.82967	23
3.83333	23
3.83700	23
3.84067	23
3.84433	23
3.84800	23
3.85167	22
3.85533	22
3.85900	22
3.86267	22
3.86633	22
3.87000	22
3.87367	22
3.87733	22
3.88100	22
3.88467	22
3.88833	23
3.89200	23
3.89567	23
3.89933	24
3.90300	24
3.90667	24
3.91033	24
3.91400	24
3.91767	24
3.92133	23
3.92500	23
3.92867	23
3.93233	23
3.93600	22
3.93967	22
3.94333	22
3.94700	22
3.95067	22
3.95433	22
3.95800	22
3.96167	22
3.96533	22
3.96900	22
3.97267	22
3.97633	23
3.98000	23
3.98367	23
3.98733	23
3.99100	23
3.99467	23
3.99833	23

[Chromatogram (Ch3)]
Interval(msec)	220
# of Points	1091
Start Time(min)	0.002
End Time(min)	3.998
R.Time (min)	Intensity
0.00167	0
0.00533	1
0.00900	2
0.01267	3
0.01633	1
0.02000	-1
0.02367	-3
0.02733	-2
0.03100	-2
0.03467	-2
0.03833	0
0.04200	3
0.04567	6
0.04933	5
0.05300	4
0.05667	4
0.06033	3
0.06400	2
0.06767	3
0.07133	3
0.07500	5
0.07867	6
0.08233	5
0.08600	3
0.08967	2
0.09333	3
0.09700	4
0.10067	6
0.10433	7
0.10800	8
0.11167	8
0.11533	7
0.11900	6
0.12267	5
0.12633	6
0.13000	6
0.13367	5
0.13733	3
0.14100	3
0.14467	3
0.14833	4
0.15200	5
0.15567	2
0.15933	-1
0.16300	-3
0.16667	-4
0.17033	-3
0.17400	-1
0.17767	0
0.18133	2
0.18500	2
0.18867	4
0.19233	6
0.19600	6
0.19967	6
0.20333	6
0.20700	7
0.21067	7
0.21433	6
0.21800	4
0.22167	4
0.22533	3
0.22900	2
0.23267	1
0.23633	2
0.24000	3
0.24367	2
0.24733	2
0.25100	3
0.25467	3
0.25833	2
0.26200	3
0.26567	4
0.26933	6
0.27300	7
0.27667	7
0.28033	6
0.28400	5
0.28767	4
0.29133	4
0.29500	4
0.29867	3
0.30233	1
0.30600	0
0.30967	2
0.31333	4
0.31700	6
0.32067	6
0.32433	4
0.32800	3
0.33167	3
0.33533	6
0.33900	6
0.34267	5
0.34633	3
0.35000	4
0.35367	6
0.35733	8
0.36100	8
0.36467	6
0.36833	7
0.37200	8
0.37567	8
0.37933	8
0.38300	9
0.38667	11
0.39033	11
0.39400	13
0.39767	13
0.40133	13
0.40500	12
0.40867	11
0.41233	9
0.41600	10
0.41967	11
0.42333	11
0.42700	10
0.43067	7
0.43433	5
0.43800	3
0.44167	2
0.44533	-1
0.44900	-1
0.45267	-0
0.45633	1
0.46000	4
0.46367	6
0.46733	7
0.47100	6
0.47467	5
0.47833	6
0.48200	6
0.48567	6
0.48933	5
0.49300	5
0.49667	4
0.50033	5
0.50400	5
0.50767	4
0.51133	4
0.51500	5
0.51867	8
0.52233	10
0.52600	10
0.52967	9
0.53333	9
0.53700	9
0.54067	8
0.54433	8
0.54800	8
0.55167	8
0.55533	8
0.55900	8
0.56267	9
0.56633	10
0.57000	9
0.57367	8
0.57733	9
0.58100	10
0.58467	9
0.58833	6
0.59200	4
0.59567	3
0.59933	3
0.60300	3
0.60667	4
0.61033	3
0.61400	3
0.61767	3
0.62133	4
0.62500	5
0.62867	6
0.63233	8
0.63600	7
0.63967	5
0.64333	4
0.64700	5
0.65067	7
0.65433	5
0.65800	4
0.66167	3
0.66533	4
0.66900	4
0.67267	5
0.67633	7
0.68000	7
0.68367	6
0.68733	7
0.69100	7
0.69467	7
0.69833	9
0.70200	10
0.70567	11
0.70933	11
0.71300	10
0.71667	10
0.72033	10
0.72400	11
0.72767	10
0.73133	9
0.73500	9
0.73867	10
0.74233	11
0.74600	9
0.74967	6
0.75333	4
0.75700	4
0.76067	6
0.76433	7
0.76800	8
0.77167	8
0.77533	9
0.77900	11
0.78267	12
0.78633	13
0.79000	13
0.79367	13
0.79733	12
0.80100	12
0.80467	13
0.80833	15
0.81200	17
0.81567	18
0.81933	19
0.82300	19
0.82667	19
0.83033	19
0.83400	19
0.83767	18
0.84133	17
0.84500	17
0.84867	17
0.85233	16
0.85600	15
0.85967	15
0.86333	16
0.86700	16
0.87067	17
0.87433	17
0.87800	17
0.88167	16
0.88533	16
0.88900	16
0.89267	15
0.89633	15
0.90000	13
0.90367	12
0.90733	13
0.91100	14
0.91467	14
0.91833	14
0.92200	15
0.92567	16
0.92933	15
0.93300	15
0.93667	17
0.94033	20
0.94400	21
0.94767	22
0.95133	21
0.95500	19
0.95867	18
0.96233	16
0.96600	14
0.96967	13
0.97333	15
0.97700	19
0.98067	21
0.98433	20
0.98800	18
0.99167	19
0.99533	19
0.99900	20
1.00267	21
1.00633	21
1.01000	20
1.01367	19
1.01733	18
1.02100	16
1.02467	16
1.02833	17
1.03200	17
1.03567	18
1.03933	18
1.04300	16
1.04667	16
1.05033	15
1.05400	15
1.05767	15
1.06133	16
1.06500	17
1.06867	17
1.07233	18
1.07600	19
1.07967	19
1.08333	19
1.08700	18
1.09067	16
1.09433	17
1.09800	19
1.10167	20
1.10533	20
1.10900	21
1.11267	23
1.11633	23
1.12000	24
1.12367	23
1.12733	21
1.13100	18
1.13467	18
1.13833	17
1.14200	16
1.14567	18
1.14933	20
1.15300	21
1.15667	19
1.16033	19
1.16400	19
1.16767	20
1.17133	19
1.17500	20
1.17867	21
1.18233	21
1.18600	21
1.18967	19
1.19333	18
1.19700	19
1.20067	19
1.20433	20
1.20800	18
1.21167	18
1.21533	20
1.21900	21
1.22267	21
1.22633	19
1.23000	18
1.23367	20
1.23733	23
1.24100	25
1.24467	24
1.24833	25
1.25200	25
1.25567	23
1.25933	21
1.26300	21
1.26667	21
1.27033	21
1.27400	20
1.27767	22
1.28133	23
1.28500	26
1.28867	25
1.29233	22
1.29600	21
1.29967	21
1.30333	21
1.30700	21
1.31067	20
1.31433	20
1.31800	17
1.32167	16
1.32533	14
1.32900	13
1.33267	13
1.33633	14
1.34000	16
1.34367	18
1.34733	19
1.35100	18
1.35467	18
1.35833	18
1.36200	18
1.36567	16
1.36933	15
1.37300	17
1.37667	19
1.38033	18
1.38400	18
1.38767	19
1.39133	20
1.39500	19
1.39867	19
1.40233	18
1.40600	19
1.40967	21
1.41333	22
1.41700	20
1.42067	20
1.42433	20
1.42800	18
1.43167	18
1.43533	17
1.43900	17
1.44267	20
1.44633	21
1.45000	21
1.45367	19
1.45733	19
1.46100	23
1.46467	26
1.46833	28
1.47200	27
1.47567	26
1.47933	24
1.48300	23
1.48667	22
1.49033	24
1.49400	23
1.49767	20
1.50133	18
1.50500	18
1.50867	18
1.51233	19
1.51600	19
1.51967	19
1.52333	21
1.52700	22
1.53067	22
1.53433	18
1.53800	15
1.54167	17
1.54533	19
1.54900	22
1.55267	21
1.55633	20
1.56000	21
1.56367	20
1.56733	18
1.57100	18
1.57467	20
1.57833	19
1.58200	21
1.58567	23
1.58933	23
1.59300	20
1.59667	19
1.60033	18
1.60400	17
1.60767	17
1.61133	18
1.61500	20
1.61867	23
1.62233	23
1.62600	22
1.62967	24
1.63333	26
1.63700	28
1.64067	27
1.64433	27
1.64800	28
1.65167	29
1.65533	28
1.65900	28
1.66267	28
1.66633	26
1.67000	27
1.67367	28
1.67733	29
1.68100	30
1.68467	32
1.68833	34
1.69200	34
1.69567	35
1.69933	36
1.70300	36
1.70667	35
1.71033	34
1.71400	36
1.71767	37
1.72133	39
1.72500	39
1.72867	41
1.73233	43
1.73600	43
1.73967	41
1.74333	41
1.74700	40
1.75067	38
1.75433	36
1.75800	36
1.76167	38
1.76533	39
1.76900	40
1.77267	41
1.77633	41
1.78000	42
1.78367	42
1.78733	41
1.79100	42
1.79467	41
1.79833	42
1.80200	45
1.80567	47
1.80933	49
1.81300	51
1.81667	52
1.82033	53
1.82400	52
1.82767	52
1.83133	50
1.83500	49
1.83867	49
1.84233	49
1.84600	50
1.84967	52
1.85333	53
1.85700	54
1.86067	52
1.86433	50
1.86800	52
1.87167	53
1.87533	55
1.87900	57
1.88267	58
1.88633	59
1.89000	59
1.89367	61
1.89733	63
1.90100	62
1.90467	63
1.90833	65
1.91200	67
1.91567	66
1.91933	65
1.92300	63
1.92667	62
1.93033	63
1.93400	65
1.93767	66
1.94133	68
1.94500	71
1.94867	72
1.95233	72
1.95600	71
1.95967	72
1.96333	74
1.96700	76
1.97067	80
1.97433	81
1.97800	83
1.98167	84
1.98533	85
1.98900	85
1.99267	85
1.99633	85
2.00000	85
2.00367	87
2.00733	91
2.01100	93
2.01467	95
2.01833	96
2.02200	95
2.02567	94
2.02933	94
2.03300	95
2.03667	96
2.04033	97
2.04400	98
2.04767	101
2.05133	103
2.05500	104
2.05867	105
2.06233	104
2.06600	104
2.06967	104
2.07333	104
2.07700	106
2.08067	108
2.08433	111
2.08800	111
2.09167	111
2.09533	112
2.09900	113
2.10267	114
2.10633	114
2.11000	114
2.11367	116
2.11733	119
2.12100	120
2.12467	120
2.12833	123
2.13200	125
2.13567	126
2.13933	128
2.14300	130
2.14667	132
2.15033	136
2.15400	141
2.15767	142
2.16133	143
2.16500	144
2.16867	147
2.17233	149
2.17600	149
2.17967	149
2.18333	149
2.18700	151
2.19067	151
2.19433	152
2.19800	154
2.20167	156
2.20533	157
2.20900	158
2.21267	161
2.21633	164
2.22000	166
2.22367	169
2.22733	170
2.23100	172
2.23467	172
2.23833	171
2.24200	171
2.24567	172
2.24933	172
2.25300	174
2.25667	177
2.26033	180
2.26400	183
2.26767	184
2.27133	184
2.27500	186
2.27867	186
2.28233	186
2.28600	187
2.28967	188
2.29333	190
2.29700	191
2.30067	194
2.30433	196
2.30800	199
2.31167	203
2.31533	206
2.31900	208
2.32267	208
2.32633	208
2.33000	208
2.33367	208
2.33733	208
2.34100	210
2.34467	213
2.34833	215
2.35200	215
2.35567	215
2.35933	215
2.36300	218
2.36667	220
2.37033	222
2.37400	226
2.37767	228
2.38133	228
2.38500	226
2.38867	225
2.39233	226
2.39600	228
2.39967	232
2.40333	235
2.40700	239
2.41067	243
2.41433	245
2.41800	247
2.42167	247
2.42533	248
2.42900	248
2.43267	248
2.43633	248
2.44000	252
2.44367	306
2.44733	452
2.45100	610
2.45467	742
2.45833	816
2.46200	822
2.46567	789
2.46933	747
2.47300	713
2.47667	692
2.48033	678
2.48400	655
2.48767	615
2.49133	566
2.49500	520
2.49867	484
2.50233	460
2.50600	446
2.50967	439
2.51333	444
2.51700	462
2.52067	485
2.52433	506
2.52800	519
2.53167	522
2.53533	512
2.53900	489
2.54267	456
2.54633	421
2.55000	388
2.55367	360
2.55733	338
2.56100	322
2.56467	311
2.56833	303
2.57200	297
2.57567	293
2.57933	291
2.58300	291
2.58667	291
2.59033	294
2.59400	297
2.59767	299
2.60133	300
2.60500	301
2.60867	300
2.61233	298
2.61600	295
2.61967	289
2.62333	278
2.62700	267
2.63067	257
2.63433	246
2.63800	236
2.64167	223
2.64533	211
2.64900	199
2.65267	187
2.65633	175
2.66000	164
2.66367	151
2.66733	139
2.67100	129
2.67467	120
2.67833	113
2.68200	108
2.68567	104
2.68933	101
2.69300	99
2.69667	98
2.70033	99
2.70400	102
2.70767	105
2.71133	108
2.71500	109
2.71867	111
2.72233	113
2.72600	115
2.72967	120
2.73333	123
2.73700	126
2.74067	129
2.74433	132
2.74800	135
2.75167	139
2.75533	143
2.75900	145
2.76267	146
2.76633	148
2.77000	151
2.77367	155
2.77733	159
2.78100	162
2.78467	166
2.78833	170
2.79200	178
2.79567	183
2.79933	187
2.80300	189
2.80667	192
2.81033	196
2.81400	204
2.81767	212
2.82133	224
2.82500	241
2.82867	274
2.83233	338
2.83600	451
2.83967	639
2.84333	920
2.84700	1303
2.85067	1782
2.85433	2334
2.85800	2926
2.86167	3515
2.86533	4052
2.86900	4495
2.87267	4809
2.87633	4983
2.88000	5013
2.88367	4916
2.88733	4718
2.89100	4446
2.89467	4125
2.89833	3781
2.90200	3432
2.90567	3090
2.90933	2766
2.91300	2466
2.91667	2191
2.92033	1941
2.92400	1719
2.92767	1521
2.93133	1347
2.93500	1196
2.93867	1063
2.94233	943
2.94600	838
2.94967	749
2.95333	674
2.95700	607
2.96067	547
2.96433	494
2.96800	448
2.97167	408
2.97533	374
2.97900	346
2.98267	323
2.98633	303
2.99000	285
2.99367	269
2.99733	255
3.00100	244
3.00467	234
3.00833	226
3.01200	219
3.01567	212
3.01933	207
3.02300	201
3.02667	193
3.03033	186
3.03400	182
3.03767	179
3.04133	179
3.04500	177
3.04867	174
3.05233	172
3.05600	170
3.05967	172
3.06333	174
3.06700	175
3.07067	175
3.07433	175
3.07800	176
3.08167	175
3.08533	175
3.08900	176
3.09267	174
3.09633	170
3.10000	168
3.10367	169
3.10733	170
3.11100	171
3.11467	172
3.11833	173
3.12200	174
3.12567	174
3.12933	176
3.13300	178
3.13667	179
3.14033	178
3.14400	176
3.14767	174
3.15133	173
3.15500	174
3.15867	176
3.16233	177
3.16600	178
3.16967	178
3.17333	177
3.17700	172
3.18067	153
3.18433	135
3.18800	137
3.19167	160
3.19533	201
3.19900	248
3.20267	298
3.20633	347
3.21000	396
3.21367	441
3.21733	479
3.22100	512
3.22467	540
3.22833	565
3.23200	587
3.23567	608
3.23933	629
3.24300	647
3.24667	662
3.25033	675
3.25400	686
3.25767	697
3.26133	708
3.26500	720
3.26867	732
3.27233	745
3.27600	755
3.27967	764
3.28333	770
3.28700	776
3.29067	781
3.29433	786
3.29800	792
3.30167	799
3.30533	806
3.30900	812
3.31267	818
3.31633	825
3.32000	833
3.32367	843
3.32733	850
3.33100	855
3.33467	862
3.33833	869
3.34200	873
3.34567	876
3.34933	878
3.35300	880
3.35667	884
3.36033	887
3.36400	889
3.36767	892
3.37133	896
3.37500	899
3.37867	901
3.38233	902
3.38600	903
3.38967	900
3.39333	899
3.39700	898
3.40067	897
3.40433	898
3.40800	899
3.41167	898
3.41533	894
3.41900	890
3.42267	888
3.42633	886
3.43000	883
3.43367	880
3.43733	875
3.44100	870
3.44467	868
3.44833	863
3.45200	860
3.45567	856
3.45933	851
3.46300	847
3.46667	845
3.47033	842
3.47400	838
3.47767	833
3.48133	831
3.48500	830
3.48867	827
3.49233	825
3.49600	824
3.49967	822
3.50333	819
3.50700	817
3.51067	815
3.51433	814
3.51800	814
3.52167	814
3.52533	814
3.52900	813
3.53267	812
3.53633	810
3.54000	808
3.54367	806
3.54733	807
3.55100	808
3.55467	809
3.55833	808
3.56200	808
3.56567	808
3.56933	805
3.57300	803
3.57667	804
3.58033	804
3.58400	803
3.58767	802
3.59133	800
3.59500	800
3.59867	801
3.60233	800
3.60600	798
3.60967	796
3.61333	794
3.61700	791
3.62067	790
3.62433	792
3.62800	794
3.63167	794
3.63533	793
3.63900	793
3.64267	792
3.64633	794
3.65000	793
3.65367	790
3.65733	786
3.66100	782
3.66467	779
3.66833	779
3.67200	778
3.67567	778
3.67933	779
3.68300	779
3.68667	776
3.69033	772
3.69400	768
3.69767	767
3.70133	768
3.70500	767
3.70867	767
3.71233	767
3.71600	768
3.71967	766
3.72333	764
3.72700	763
3.73067	761
3.73433	760
3.73800	759
3.74167	756
3.74533	753
3.74900	750
3.75267	748
3.75633	743
3.76000	739
3.76367	737
3.76733	735
3.77100	734
3.77467	734
3.77833	732
3.78200	730
3.78567	728
3.78933	724
3.79300	719
3.79667	718
3.80033	718
3.80400	716
3.80767	715
3.81133	713
3.81500	710
3.81867	708
3.82233	707
3.82600	706
3.82967	703
3.83333	699
3.83700	697
3.84067	693
3.84433	690
3.84800	689
3.85167	688
3.85533	684
3.85900	680
3.86267	679
3.86633	679
3.87000	679
3.87367	679
3.87733	675
3.88100	671
3.88467	668
3.88833	667
3.89200	665
3.89567	662
3.89933	661
3.90300	660
3.90667	660
3.91033	657
3.91400	654
3.91767	654
3.92133	654
3.92500	651
3.92867	648
3.93233	646
3.93600	645
3.93967	644
3.94333	643
3.94700	641
3.95067	639
3.95433	638
3.95800	637
3.96167	638
3.96533	638
3.96900	636
3.97267	631
3.97633	628
3.98000	626
3.98367	624
3.98733	624
3.99100	620
3.99467	617
3.99833	613

[Status Trace (Column Oven Temperature)]
Interval(msec)	1000
# of Points	240
Start Time(min)	0.013
End Time(min)	3.996
Intensity Units	
Intensity Multiplier	1
R.Time (min)	Intensity
0.01303	35.02
0.02970	35.00
0.04637	34.98
0.06303	34.98
0.07970	34.96
0.09637	34.97
0.11303	34.98
0.12970	34.99
0.14637	35.00
0.16303	34.99
0.17970	34.99
0.19637	34.99
0.21303	35.00
0.22970	35.01
0.24637	35.02
0.26303	35.04
0.27970	35.03
0.29637	35.02
0.31303	35.01
0.32970	35.01
0.34637	34.99
0.36303	34.98
0.37970	34.99
0.39637	35.01
0.41303	35.01
0.42970	35.00
0.44637	34.99
0.46303	34.99
0.47970	34.99
0.49637	35.01
0.51303	35.02
0.52970	35.02
0.54637	35.03
0.56303	35.03
0.57970	35.03
0.59637	35.04
0.61303	35.03
0.62970	35.01
0.64637	35.01
0.66303	35.02
0.67970	35.03
0.69637	35.03
0.71303	35.02
0.72970	35.01
0.74637	35.01
0.76303	35.00
0.77970	34.98
0.79637	34.97
0.81303	34.96
0.82970	34.97
0.84637	34.98
0.86303	34.98
0.87970	34.98
0.89637	34.99
0.91303	35.00
0.92970	35.00
0.94637	34.99
0.96303	34.97
0.97970	34.97
0.99637	34.96
1.01303	34.96
1.02970	34.98
1.04637	34.99
1.06303	34.98
1.07970	34.98
1.09637	34.98
1.11303	34.99
1.12970	34.99
1.14637	35.01
1.16303	35.01
1.17970	35.01
1.19637	35.01
1.21303	35.02
1.22970	35.04
1.24637	35.03
1.26303	35.02
1.27970	35.00
1.29637	35.00
1.31303	35.00
1.32970	34.98
1.34637	34.97
1.36303	34.96
1.37970	34.97
1.39637	34.96
1.41303	34.95
1.42970	34.96
1.44637	34.97
1.46303	34.97
1.47970	34.98
1.49637	34.98
1.51303	34.98
1.52970	34.98
1.54637	34.99
1.56303	34.99
1.57970	35.00
1.59637	35.02
1.61303	35.10
1.62970	35.25
1.64637	35.46
1.66303	35.72
1.67970	36.09
1.69637	36.47
1.71303	36.81
1.72970	37.12
1.74637	37.43
1.76303	37.77
1.77970	38.12
1.79637	38.45
1.81303	38.78
1.82970	39.13
1.84637	39.47
1.86303	39.77
1.87970	40.07
1.89637	40.40
1.91303	40.76
1.92970	41.07
1.94637	41.40
1.96303	41.72
1.97970	42.03
1.99637	42.35
2.01303	42.70
2.02970	43.02
2.04637	43.35
2.06303	43.68
2.07970	44.00
2.09637	44.35
2.11303	44.65
2.12970	44.97
2.14637	45.34
2.16303	45.66
2.17970	45.99
2.19637	46.33
2.21303	46.65
2.22970	46.98
2.24637	47.31
2.26303	47.64
2.27970	47.95
2.29637	48.29
2.31303	48.63
2.32970	48.94
2.34637	49.25
2.36303	49.51
2.37970	49.64
2.39637	49.67
2.41303	49.67
2.42970	49.68
2.44637	49.67
2.46303	49.68
2.47970	49.69
2.49637	49.72
2.51303	49.72
2.52970	49.74
2.54637	49.75
2.56303	49.76
2.57970	49.78
2.59637	49.81
2.61303	49.81
2.62970	49.83
2.64637	49.84
2.66303	49.83
2.67970	49.85
2.69637	49.86
2.71303	49.86
2.72970	49.85
2.74637	49.84
2.76303	49.88
2.77970	49.93
2.79637	49.97
2.81303	49.98
2.82970	49.98
2.84637	49.96
2.86303	49.92
2.87970	49.91
2.89637	49.90
2.91303	49.91
2.92970	49.91
2.94637	49.92
2.96303	49.94
2.97970	49.96
2.99637	49.97
3.01303	49.98
3.02970	49.98
3.04637	50.00
3.06303	50.03
3.07970	50.06
3.09637	50.07
3.11303	50.07
3.12970	50.07
3.14637	50.08
3.16303	50.08
3.17970	50.07
3.19637	50.07
3.21303	50.07
3.22970	50.07
3.24637	50.08
3.26303	50.09
3.27970	50.10
3.29637	50.11
3.31303	50.12
3.32970	50.11
3.34637	50.10
3.36303	50.08
3.37970	50.08
3.39637	50.06
3.41303	50.04
3.42970	50.04
3.44637	50.02
3.46303	50.01
3.47970	50.01
3.49637	50.01
3.51303	50.01
3.52970	50.01
3.54637	50.01
3.56303	50.02
3.57970	50.03
3.59637	50.02
3.61303	50.02
3.62970	50.01
3.64637	50.02
3.66303	50.02
3.67970	50.02
3.69637	50.01
3.71303	50.03
3.72970	50.04
3.74637	50.05
3.76303	50.05
3.77970	50.04
3.79637	50.05
3.81303	50.05
3.82970	50.05
3.84637	50.05
3.86303	50.06
3.87970	50.06
3.89637	50.06
3.91303	50.05
3.92970	50.06
3.94637	50.07
3.96303	50.07
3.97970	50.07
3.99637	50.07

[Status Trace (Injection Unit Temperature)]
Interval(msec)	1000
# of Points	240
Start Time(min)	0.013
End Time(min)	3.996
Intensity Units	
Intensity Multiplier	1
R.Time (min)	Intensity
0.01303	99.98
0.02970	99.98
0.04637	99.98
0.06303	99.98
0.07970	99.98
0.09637	99.98
0.11303	99.98
0.12970	99.98
0.14637	99.98
0.16303	99.98
0.17970	99.98
0.19637	99.98
0.21303	99.98
0.22970	99.98
0.24637	99.98
0.26303	99.99
0.27970	99.99
0.29637	99.98
0.31303	99.98
0.32970	99.99
0.34637	99.99
0.36303	99.99
0.37970	99.99
0.39637	99.99
0.41303	99.98
0.42970	99.99
0.44637	99.99
0.46303	99.97
0.47970	99.99
0.49637	99.99
0.51303	99.99
0.52970	99.99
0.54637	99.99
0.56303	99.99
0.57970	99.99
0.59637	99.99
0.61303	99.99
0.62970	99.99
0.64637	99.99
0.66303	99.98
0.67970	99.99
0.69637	99.98
0.71303	99.98
0.72970	99.98
0.74637	99.98
0.76303	99.98
0.77970	99.98
0.79637	99.98
0.81303	99.98
0.82970	99.98
0.84637	99.97
0.86303	99.98
0.87970	99.98
0.89637	99.98
0.91303	99.99
0.92970	99.98
0.94637	99.98
0.96303	99.98
0.97970	99.98
0.99637	99.98
1.01303	99.98
1.02970	99.98
1.04637	99.98
1.06303	99.98
1.07970	99.98
1.09637	99.98
1.11303	99.98
1.12970	99.98
1.14637	99.98
1.16303	99.98
1.17970	99.98
1.19637	99.98
1.21303	99.98
1.22970	99.98
1.24637	99.98
1.26303	99.98
1.27970	99.97
1.29637	99.98
1.31303	99.98
1.32970	99.98
1.34637	99.98
1.36303	99.98
1.37970	99.98
1.39637	99.98
1.41303	99.98
1.42970	99.98
1.44637	99.98
1.46303	99.98
1.47970	99.98
1.49637	99.98
1.51303	99.99
1.52970	99.98
1.54637	99.98
1.56303	99.98
1.57970	99.98
1.59637	99.98
1.61303	99.97
1.62970	99.98
1.64637	99.99
1.66303	99.98
1.67970	99.98
1.69637	99.98
1.71303	99.98
1.72970	99.98
1.74637	99.98
1.76303	99.98
1.77970	99.98
1.79637	99.98
1.81303	99.98
1.82970	99.98
1.84637	99.98
1.86303	99.98
1.87970	99.99
1.89637	99.98
1.91303	99.98
1.92970	99.98
1.94637	99.98
1.96303	99.97
1.97970	99.98
1.99637	99.98
2.01303	99.97
2.02970	99.97
2.04637	99.98
2.06303	99.97
2.07970	99.98
2.09637	99.97
2.11303	99.97
2.12970	99.97
2.14637	99.97
2.16303	99.97
2.17970	99.97
2.19637	99.97
2.21303	99.97
2.22970	99.97
2.24637	99.97
2.26303	99.97
2.27970	99.97
2.29637	99.96
2.31303	99.97
2.32970	99.96
2.34637	99.97
2.36303	99.96
2.37970	99.97
2.39637	99.97
2.41303	99.96
2.42970	99.96
2.44637	99.96
2.46303	99.96
2.47970	99.97
2.49637	99.96
2.51303	99.97
2.52970	99.97
2.54637	99.97
2.56303	99.97
2.57970	99.97
2.59637	99.97
2.61303	99.97
2.62970	99.97
2.64637	99.97
2.66303	99.97
2.67970	99.97
2.69637	99.98
2.71303	99.97
2.72970	99.98
2.74637	99.98
2.76303	99.98
2.77970	99.98
2.79637	99.98
2.81303	99.99
2.82970	99.99
2.84637	99.99
2.86303	99.99
2.87970	99.99
2.89637	100.00
2.91303	100.00
2.92970	100.00
2.94637	100.00
2.96303	100.00
2.97970	100.00
2.99637	100.01
3.01303	100.00
3.02970	100.01
3.04637	100.01
3.06303	100.01
3.07970	100.01
3.09637	100.01
3.11303	100.01
3.12970	100.01
3.14637	100.01
3.16303	100.01
3.17970	100.02
3.19637	100.02
3.21303	100.02
3.22970	100.02
3.24637	100.02
3.26303	100.02
3.27970	100.03
3.29637	100.03
3.31303	100.03
3.32970	100.03
3.34637	100.03
3.36303	100.03
3.37970	100.03
3.39637	100.03
3.41303	100.03
3.42970	100.03
3.44637	100.03
3.46303	100.04
3.47970	100.04
3.49637	100.03
3.51303	100.04
3.52970	100.04
3.54637	100.04
3.56303	100.05
3.57970	100.04
3.59637	100.04
3.61303	100.04
3.62970	100.05
3.64637	100.04
3.66303	100.05
3.67970	100.05
3.69637	100.05
3.71303	100.04
3.72970	100.05
3.74637	100.05
3.76303	100.05
3.77970	100.04
3.79637	100.05
3.81303	100.05
3.82970	100.05
3.84637	100.05
3.86303	100.04
3.87970	100.05
3.89637	100.04
3.91303	100.05
3.92970	100.04
3.94637	100.05
3.96303	100.05
3.97970	100.05
3.99637	100.05

[Status Trace (Carrier Gas Pressure)]
Interval(msec)	1000
# of Points	240
Start Time(min)	0.013
End Time(min)	3.996
Intensity Units	
Intensity Multiplier	1
R.Time (min)	Intensity
0.01303	57.82
0.02970	55.03
0.04637	57.80
0.06303	59.79
0.07970	58.87
0.09637	57.99
0.11303	57.99
0.12970	58.01
0.14637	58.01
0.16303	58.00
0.17970	58.00
0.19637	58.00
0.21303	58.00
0.22970	58.00
0.24637	58.00
0.26303	58.00
0.27970	58.00
0.29637	58.00
0.31303	58.00
0.32970	58.00
0.34637	58.00
0.36303	58.00
0.37970	58.00
0.39637	58.00
0.41303	58.00
0.42970	58.00
0.44637	58.00
0.46303	58.00
0.47970	58.00
0.49637	58.00
0.51303	58.00
0.52970	58.00
0.54637	58.00
0.56303	58.00
0.57970	58.00
0.59637	58.00
0.61303	58.00
0.62970	58.00
0.64637	58.00
0.66303	58.00
0.67970	58.00
0.69637	58.00
0.71303	58.00
0.72970	58.00
0.74637	58.00
0.76303	58.00
0.77970	58.00
0.79637	58.00
0.81303	58.00
0.82970	58.00
0.84637	58.00
0.86303	58.00
0.87970	58.00
0.89637	58.00
0.91303	58.00
0.92970	58.00
0.94637	58.00
0.96303	58.00
0.97970	58.00
0.99637	58.00
1.01303	58.00
1.02970	58.00
1.04637	58.00
1.06303	58.00
1.07970	58.00
1.09637	58.00
1.11303	58.00
1.12970	58.00
1.14637	58.00
1.16303	58.00
1.17970	58.00
1.19637	58.00
1.21303	58.00
1.22970	58.00
1.24637	58.00
1.26303	58.00
1.27970	58.00
1.29637	58.00
1.31303	58.00
1.32970	58.00
1.34637	58.00
1.36303	58.00
1.37970	58.00
1.39637	58.00
1.41303	58.00
1.42970	58.00
1.44637	58.00
1.46303	58.00
1.47970	58.00
1.49637	58.00
1.51303	58.00
1.52970	58.00
1.54637	58.00
1.56303	58.00
1.57970	58.00
1.59637	58.00
1.61303	58.00
1.62970	58.01
1.64637	58.00
1.66303	58.00
1.67970	58.01
1.69637	58.00
1.71303	58.00
1.72970	58.00
1.74637	58.00
1.76303	58.00
1.77970	58.00
1.79637	58.00
1.81303	58.00
1.82970	58.00
1.84637	58.00
1.86303	58.00
1.87970	58.00
1.89637	58.00
1.91303	58.00
1.92970	58.00
1.94637	58.00
1.96303	58.00
1.97970	58.00
1.99637	58.00
2.01303	58.00
2.02970	58.00
2.04637	58.00
2.06303	58.00
2.07970	58.00
2.09637	58.00
2.11303	58.00
2.12970	58.00
2.14637	58.00
2.16303	58.00
2.17970	58.00
2.19637	58.00
2.21303	58.00
2.22970	58.00
2.24637	58.00
2.26303	58.00
2.27970	58.00
2.29637	58.00
2.31303	58.00
2.32970	58.00
2.34637	58.00
2.36303	58.00
2.37970	57.99
2.39637	57.99
2.41303	58.00
2.42970	58.00
2.44637	58.00
2.46303	58.00
2.47970	58.00
2.49637	58.00
2.51303	57.99
2.52970	57.99
2.54637	58.00
2.56303	58.00
2.57970	58.00
2.59637	58.00
2.61303	58.00
2.62970	58.00
2.64637	58.00
2.66303	58.00
2.67970	58.00
2.69637	58.00
2.71303	58.00
2.72970	58.00
2.74637	58.00
2.76303	58.00
2.77970	58.00
2.79637	58.00
2.81303	58.00
2.82970	58.00
2.84637	58.00
2.86303	58.00
2.87970	58.00
2.89637	58.00
2.91303	58.00
2.92970	58.00
2.94637	58.00
2.96303	58.00
2.97970	58.00
2.99637	58.00
3.01303	58.00
3.02970	58.00
3.04637	58.00
3.06303	58.00
3.07970	58.00
3.09637	58.00
3.11303	58.00
3.12970	58.00
3.14637	58.00
3.16303	58.00
3.17970	58.00
3.19637	58.00
3.21303	58.00
3.22970	58.00
3.24637	58.00
3.26303	58.00
3.27970	58.00
3.29637	58.00
3.31303	58.00
3.32970	58.00
3.34637	58.00
3.36303	58.00
3.37970	58.00
3.39637	58.00
3.41303	58.00
3.42970	58.00
3.44637	58.00
3.46303	58.00
3.47970	58.00
3.49637	58.00
3.51303	58.00
3.52970	58.00
3.54637	58.00
3.56303	58.00
3.57970	58.00
3.59637	58.00
3.61303	58.00
3.62970	58.00
3.64637	58.00
3.66303	58.00
3.67970	58.00
3.69637	58.00
3.71303	58.00
3.72970	58.00
3.74637	58.00
3.76303	58.00
3.77970	58.00
3.79637	58.00
3.81303	58.00
3.82970	58.00
3.84637	58.00
3.86303	58.00
3.87970	58.00
3.89637	58.00
3.91303	58.00
3.92970	58.00
3.94637	58.00
3.96303	58.00
3.97970	58.00
3.99637	58.00

[Status Trace (Carrier Gas Flow)]
Interval(msec)	1000
# of Points	240
Start Time(min)	0.013
End Time(min)	3.996
Intensity Units	
Intensity Multiplier	1
R.Time (min)	Intensity
0.01303	34.57
0.02970	34.54
0.04637	34.55
0.06303	34.53
0.07970	34.50
0.09637	34.52
0.11303	34.52
0.12970	34.52
0.14637	34.52
0.16303	34.52
0.17970	34.52
0.19637	34.52
0.21303	34.52
0.22970	34.52
0.24637	34.52
0.26303	34.52
0.27970	34.52
0.29637	34.52
0.31303	34.52
0.32970	34.52
0.34637	34.52
0.36303	34.52
0.37970	34.52
0.39637	34.52
0.41303	34.52
0.42970	34.52
0.44637	34.52
0.46303	34.51
0.47970	34.51
0.49637	34.52
0.51303	34.52
0.52970	34.52
0.54637	34.52
0.56303	34.52
0.57970	34.52
0.59637	34.52
0.61303	34.52
0.62970	34.52
0.64637	34.52
0.66303	34.52
0.67970	34.51
0.69637	34.52
0.71303	34.52
0.72970	34.51
0.74637	34.52
0.76303	34.52
0.77970	34.52
0.79637	34.51
0.81303	34.52
0.82970	34.52
0.84637	34.52
0.86303	34.52
0.87970	34.52
0.89637	34.52
0.91303	34.51
0.92970	34.52
0.94637	34.52
0.96303	34.52
0.97970	34.52
0.99637	34.53
1.01303	34.52
1.02970	34.52
1.04637	34.52
1.06303	34.52
1.07970	34.52
1.09637	34.52
1.11303	34.51
1.12970	34.52
1.14637	34.52
1.16303	34.52
1.17970	34.51
1.19637	34.51
1.21303	34.52
1.22970	34.52
1.24637	34.52
1.26303	34.52
1.27970	34.52
1.29637	34.52
1.31303	34.51
1.32970	34.52
1.34637	34.51
1.36303	34.52
1.37970	34.52
1.39637	34.52
1.41303	34.52
1.42970	34.52
1.44637	34.53
1.46303	34.52
1.47970	34.52
1.49637	34.51
1.51303	34.53
1.52970	34.52
1.54637	34.52
1.56303	34.52
1.57970	34.52
1.59637	34.53
1.61303	34.53
1.62970	34.53
1.64637	34.52
1.66303	34.52
1.67970	34.51
1.69637	34.52
1.71303	34.52
1.72970	34.52
1.74637	34.52
1.76303	34.52
1.77970	34.52
1.79637	34.52
1.81303	34.52
1.82970	34.51
1.84637	34.51
1.86303	34.53
1.87970	34.51
1.89637	34.52
1.91303	34.52
1.92970	34.52
1.94637	34.52
1.96303	34.51
1.97970	34.52
1.99637	34.52
2.01303	34.51
2.02970	34.51
2.04637	34.52
2.06303	34.51
2.07970	34.51
2.09637	34.51
2.11303	34.52
2.12970	34.52
2.14637	34.52
2.16303	34.52
2.17970	34.51
2.19637	34.52
2.21303	34.52
2.22970	34.52
2.24637	34.52
2.26303	34.52
2.27970	34.52
2.29637	34.52
2.31303	34.51
2.32970	34.52
2.34637	34.52
2.36303	34.52
2.37970	34.52
2.39637	34.52
2.41303	34.52
2.42970	34.52
2.44637	34.52
2.46303	34.52
2.47970	34.52
2.49637	34.52
2.51303	34.52
2.52970	34.52
2.54637	34.51
2.56303	34.51
2.57970	34.52
2.59637	34.52
2.61303	34.52
2.62970	34.52
2.64637	34.52
2.66303	34.51
2.67970	34.52
2.69637	34.52
2.71303	34.52
2.72970	34.52
2.74637	34.51
2.76303	34.52
2.77970	34.52
2.79637	34.52
2.81303	34.52
2.82970	34.52
2.84637	34.52
2.86303	34.52
2.87970	34.51
2.89637	34.52
2.91303	34.52
2.92970	34.52
2.94637	34.51
2.96303	34.52
2.97970	34.52
2.99637	34.52
3.01303	34.52
3.02970	34.52
3.04637	34.52
3.06303	34.52
3.07970	34.52
3.09637	34.52
3.11303	34.52
3.12970	34.51
3.14637	34.52
3.16303	34.52
3.17970	34.52
3.19637	34.52
3.21303	34.52
3.22970	34.52
3.24637	34.52
3.26303	34.52
3.27970	34.52
3.29637	34.52
3.31303	34.52
3.32970	34.51
3.34637	34.52
3.36303	34.51
3.37970	34.51
3.39637	34.53
3.41303	34.52
3.42970	34.52
3.44637	34.52
3.46303	34.53
3.47970	34.53
3.49637	34.51
3.51303	34.52
3.52970	34.52
3.54637	34.52
3.56303	34.52
3.57970	34.52
3.59637	34.52
3.61303	34.52
3.62970	34.52
3.64637	34.52
3.66303	34.52
3.67970	34.52
3.69637	34.52
3.71303	34.52
3.72970	34.51
3.74637	34.51
3.76303	34.52
3.77970	34.52
3.79637	34.52
3.81303	34.51
3.82970	34.52
3.84637	34.52
3.86303	34.52
3.87970	34.52
3.89637	34.52
3.91303	34.52
3.92970	34.52
3.94637	34.52
3.96303	34.52
3.97970	34.52
3.99637	34.54

[Status Trace (Column Flow)]
Interval(msec)	1000
# of Points	240
Start Time(min)	0.013
End Time(min)	3.996
Intensity Units	
Intensity Multiplier	1
R.Time (min)	Intensity
0.01303	5.53
0.02970	5.21
0.04637	5.53
0.06303	5.76
0.07970	5.65
0.09637	5.55
0.11303	5.55
0.12970	5.55
0.14637	5.55
0.16303	5.55
0.17970	5.55
0.19637	5.55
0.21303	5.55
0.22970	5.55
0.24637	5.55
0.26303	5.55
0.27970	5.55
0.29637	5.55
0.31303	5.55
0.32970	5.55
0.34637	5.55
0.36303	5.55
0.37970	5.55
0.39637	5.55
0.41303	5.55
0.42970	5.55
0.44637	5.55
0.46303	5.55
0.47970	5.55
0.49637	5.55
0.51303	5.55
0.52970	5.55
0.54637	5.55
0.56303	5.55
0.57970	5.55
0.59637	5.55
0.61303	5.55
0.62970	5.55
0.64637	5.55
0.66303	5.55
0.67970	5.55
0.69637	5.55
0.71303	5.55
0.72970	5.55
0.74637	5.55
0.76303	5.55
0.77970	5.55
0.79637	5.55
0.81303	5.55
0.82970	5.55
0.84637	5.55
0.86303	5.55
0.87970	5.55
0.89637	5.55
0.91303	5.55
0.92970	5.55
0.94637	5.55
0.96303	5.55
0.97970	5.55
0.99637	5.55
1.01303	5.55
1.02970	5.55
1.04637	5.55
1.06303	5.55
1.07970	5.55
1.09637	5.55
1.11303	5.55
1.12970	5.55
1.14637	5.55
1.16303	5.55
1.17970	5.55
1.19637	5.55
1.21303	5.55
1.22970	5.55
1.24637	5.55
1.26303	5.55
1.27970	5.55
1.29637	5.55
1.31303	5.55
1.32970	5.55
1.34637	5.55
1.36303	5.55
1.37970	5.55
1.39637	5.55
1.41303	5.55
1.42970	5.55
1.44637	5.55
1.46303	5.55
1.47970	5.55
1.49637	5.55
1.51303	5.55
1.52970	5.55
1.54637	5.55
1.56303	5.55
1.57970	5.55
1.59637	5.55
1.61303	5.55
1.62970	5.55
1.64637	5.54
1.66303	5.53
1.67970	5.52
1.69637	5.51
1.71303	5.50
1.72970	5.49
1.74637	5.48
1.76303	5.47
1.77970	5.46
1.79637	5.44
1.81303	5.43
1.82970	5.42
1.84637	5.41
1.86303	5.40
1.87970	5.39
1.89637	5.39
1.91303	5.37
1.92970	5.36
1.94637	5.36
1.96303	5.35
1.97970	5.34
1.99637	5.33
2.01303	5.32
2.02970	5.31
2.04637	5.30
2.06303	5.29
2.07970	5.28
2.09637	5.27
2.11303	5.26
2.12970	5.25
2.14637	5.24
2.16303	5.23
2.17970	5.22
2.19637	5.21
2.21303	5.20
2.22970	5.19
2.24637	5.18
2.26303	5.17
2.27970	5.16
2.29637	5.15
2.31303	5.14
2.32970	5.14
2.34637	5.13
2.36303	5.12
2.37970	5.12
2.39637	5.12
2.41303	5.12
2.42970	5.12
2.44637	5.12
2.46303	5.12
2.47970	5.12
2.49637	5.12
2.51303	5.11
2.52970	5.11
2.54637	5.11
2.56303	5.11
2.57970	5.11
2.59637	5.11
2.61303	5.11
2.62970	5.11
2.64637	5.11
2.66303	5.11
2.67970	5.11
2.69637	5.11
2.71303	5.11
2.72970	5.11
2.74637	5.11
2.76303	5.11
2.77970	5.11
2.79637	5.11
2.81303	5.11
2.82970	5.11
2.84637	5.11
2.86303	5.11
2.87970	5.11
2.89637	5.11
2.91303	5.11
2.92970	5.11
2.94637	5.11
2.96303	5.11
2.97970	5.11
2.99637	5.11
3.01303	5.11
3.02970	5.11
3.04637	5.11
3.06303	5.11
3.07970	5.11
3.09637	5.10
3.11303	5.10
3.12970	5.10
3.14637	5.10
3.16303	5.10
3.17970	5.10
3.19637	5.10
3.21303	5.10
3.22970	5.10
3.24637	5.10
3.26303	5.10
3.27970	5.10
3.29637	5.10
3.31303	5.10
3.32970	5.10
3.34637	5.10
3.36303	5.10
3.37970	5.10
3.39637	5.10
3.41303	5.11
3.42970	5.11
3.44637	5.11
3.46303	5.11
3.47970	5.11
3.49637	5.11
3.51303	5.11
3.52970	5.11
3.54637	5.11
3.56303	5.11
3.57970	5.11
3.59637	5.11
3.61303	5.11
3.62970	5.11
3.64637	5.11
3.66303	5.11
3.67970	5.11
3.69637	5.11
3.71303	5.11
3.72970	5.11
3.74637	5.11
3.76303	5.11
3.77970	5.11
3.79637	5.11
3.81303	5.11
3.82970	5.11
3.84637	5.11
3.86303	5.11
3.87970	5.11
3.89637	5.11
3.91303	5.11
3.92970	5.11
3.94637	5.10
3.96303	5.10
3.97970	5.10
3.99637	5.11

[Status Trace (Linear Velocity)]
Interval(msec)	1000
# of Points	240
Start Time(min)	0.013
End Time(min)	3.996
Intensity Units	
Intensity Multiplier	1
R.Time (min)	Intensity
0.01303	38.91
0.02970	37.08
0.04637	38.89
0.06303	40.20
0.07970	39.59
0.09637	39.02
0.11303	39.02
0.12970	39.03
0.14637	39.03
0.16303	39.03
0.17970	39.03
0.19637	39.03
0.21303	39.03
0.22970	39.02
0.24637	39.02
0.26303	39.02
0.27970	39.02
0.29637	39.02
0.31303	39.02
0.32970	39.02
0.34637	39.02
0.36303	39.02
0.37970	39.02
0.39637	39.02
0.41303	39.02
0.42970	39.02
0.44637	39.02
0.46303	39.02
0.47970	39.02
0.49637	39.02
0.51303	39.02
0.52970	39.02
0.54637	39.02
0.56303	39.02
0.57970	39.02
0.59637	39.02
0.61303	39.02
0.62970	39.02
0.64637	39.02
0.66303	39.02
0.67970	39.02
0.69637	39.02
0.71303	39.02
0.72970	39.02
0.74637	39.02
0.76303	39.02
0.77970	39.03
0.79637	39.03
0.81303	39.03
0.82970	39.03
0.84637	39.03
0.86303	39.03
0.87970	39.03
0.89637	39.02
0.91303	39.02
0.92970	39.02
0.94637	39.02
0.96303	39.03
0.97970	39.03
0.99637	39.03
1.01303	39.03
1.02970	39.03
1.04637	39.03
1.06303	39.02
1.07970	39.03
1.09637	39.03
1.11303	39.03
1.12970	39.02
1.14637	39.02
1.16303	39.02
1.17970	39.02
1.19637	39.02
1.21303	39.02
1.22970	39.02
1.24637	39.02
1.26303	39.02
1.27970	39.02
1.29637	39.02
1.31303	39.02
1.32970	39.02
1.34637	39.03
1.36303	39.03
1.37970	39.03
1.39637	39.03
1.41303	39.03
1.42970	39.03
1.44637	39.03
1.46303	39.03
1.47970	39.03
1.49637	39.03
1.51303	39.03
1.52970	39.03
1.54637	39.03
1.56303	39.02
1.57970	39.02
1.59637	39.02
1.61303	39.02
1.62970	39.00
1.64637	38.98
1.66303	38.96
1.67970	38.92
1.69637	38.89
1.71303	38.85
1.72970	38.82
1.74637	38.79
1.76303	38.76
1.77970	38.73
1.79637	38.69
1.81303	38.66
1.82970	38.63
1.84637	38.60
1.86303	38.57
1.87970	38.54
1.89637	38.51
1.91303	38.48
1.92970	38.45
1.94637	38.42
1.96303	38.39
1.97970	38.36
1.99637	38.33
2.01303	38.30
2.02970	38.27
2.04637	38.24
2.06303	38.21
2.07970	38.18
2.09637	38.15
2.11303	38.12
2.12970	38.09
2.14637	38.06
2.16303	38.03
2.17970	38.00
2.19637	37.97
2.21303	37.94
2.22970	37.91
2.24637	37.88
2.26303	37.85
2.27970	37.82
2.29637	37.79
2.31303	37.76
2.32970	37.73
2.34637	37.71
2.36303	37.68
2.37970	37.67
2.39637	37.66
2.41303	37.67
2.42970	37.67
2.44637	37.67
2.46303	37.67
2.47970	37.67
2.49637	37.66
2.51303	37.66
2.52970	37.66
2.54637	37.66
2.56303	37.66
2.57970	37.66
2.59637	37.66
2.61303	37.66
2.62970	37.65
2.64637	37.65
2.66303	37.65
2.67970	37.65
2.69637	37.65
2.71303	37.65
2.72970	37.65
2.74637	37.65
2.76303	37.65
2.77970	37.65
2.79637	37.64
2.81303	37.64
2.82970	37.64
2.84637	37.64
2.86303	37.65
2.87970	37.65
2.89637	37.65
2.91303	37.65
2.92970	37.65
2.94637	37.65
2.96303	37.65
2.97970	37.64
2.99637	37.64
3.01303	37.64
3.02970	37.64
3.04637	37.64
3.06303	37.64
3.07970	37.63
3.09637	37.63
3.11303	37.63
3.12970	37.63
3.14637	37.63
3.16303	37.63
3.17970	37.63
3.19637	37.63
3.21303	37.63
3.22970	37.63
3.24637	37.63
3.26303	37.63
3.27970	37.63
3.29637	37.63
3.31303	37.63
3.32970	37.63
3.34637	37.63
3.36303	37.63
3.37970	37.63
3.39637	37.63
3.41303	37.64
3.42970	37.64
3.44637	37.64
3.46303	37.64
3.47970	37.64
3.49637	37.64
3.51303	37.64
3.52970	37.64
3.54637	37.64
3.56303	37.64
3.57970	37.64
3.59637	37.64
3.61303	37.64
3.62970	37.64
3.64637	37.64
3.66303	37.64
3.67970	37.64
3.69637	37.64
3.71303	37.64
3.72970	37.64
3.74637	37.63
3.76303	37.63
3.77970	37.64
3.79637	37.64
3.81303	37.64
3.82970	37.63
3.84637	37.64
3.86303	37.63
3.87970	37.63
3.89637	37.63
3.91303	37.64
3.92970	37.63
3.94637	37.63
3.96303	37.63
3.97970	37.63
3.99637	37.63

