[Header]
Application Name	LabSolutions
Version	5.110
Data File Name	C:\Users\User\Desktop\GC Analyses\Jack\Nachusa Grasslands Sampling\T4 Timepoint July 12th\T4_07122022_047.gcd
Output Date	3/17/2023
Output Time	12:04:53 PM

[File Information]
Type	Data File
Generated	3/14/2023 8:36:34 PM
Generated by	System Administrator
Modified	3/14/2023 8:43:11 PM
Modified by	System Administrator

[Sample Information]
Operator Name	System Administrator
Acquired	3/14/2023 8:39:10 PM
Sample Type	0:Unknown
Level	0
Sample Name	047
Sample ID	047
ISTD Amount1	1
ISTD Amount2	1
ISTD Amount3	1
ISTD Amount4	1
ISTD Amount5	1
ISTD Amount6	1
ISTD Amount7	1
ISTD Amount8	1
ISTD Amount9	1
ISTD Amount10	1
ISTD Amount11	1
ISTD Amount12	1
ISTD Amount13	1
ISTD Amount14	1
ISTD Amount15	1
ISTD Amount16	1
ISTD Amount17	1
ISTD Amount18	1
ISTD Amount19	1
ISTD Amount20	1
ISTD Amount21	1
ISTD Amount22	1
ISTD Amount23	1
ISTD Amount24	1
ISTD Amount25	1
ISTD Amount26	1
ISTD Amount27	1
ISTD Amount28	1
ISTD Amount29	1
ISTD Amount30	1
ISTD Amount31	1
ISTD Amount32	1
Sample Amount	1
Dilution Factor	1
Vial#	46
Injection Volume	1
Injection Count	1
Bar Code	

[Original Files]
Data File	C:\Users\User\Desktop\GC Analyses\Jack\Nachusa Grasslands Sampling\T4 Timepoint July 12th\T4_07122022_047.gcd
Method File	C:\LabSolutions\Data\GHG_4min_2022\ghg3_togas_w_acet_4 min_new_int.gcm
Batch File	C:\LabSolutions\Data\AutoSamplerTesting\T4_07122022.gcb
Report Format File	c:\LabSolutions\System\DEFAULT.lsr

[File Description]


[Configuration]
Instrument Name	C0B7VH3-Instrument1
Instrument #	1
Line #	1
# of Detectors	3
Detector ID	DET#1	DET#2	DET#3
Detector Name	FID	PTCD	ECD
# of Channels	1	1	1

[Peak Table(Ch1)]
# of Peaks	3
Peak#	R.Time	I.Time	F.Time	Area	Height	A/H	Conc.	Mark	ID#	Name	k'	Plate #	Plate Ht.	Tailing	Resolution	Sep.Factor	Area Ratio	Height Ratio	Conc. %	Norm Conc.
1	1.483	1.443	1.509	907	335	2.706	6.404	   	1	CO	0.000	2258	66.428	0.800	0.000	0.000	0	0	0.720	0.720
2	1.571	1.538	1.622	18758	9568	1.960	362.703	   	2	CH4	0.059	11592	12.940	1.138	0.961	0.000	0	0	40.805	40.805
3	2.000	1.952	2.293	2070977	992264	2.087	519.759	   	3	CO2	0.349	17418	8.612	1.192	7.211	5.875	0	0	58.474	58.474

[Peak Table(Ch2)]
# of Peaks	0

[Peak Table(Ch3)]
# of Peaks	5
Peak#	R.Time	I.Time	F.Time	Area	Height	A/H	Conc.	Mark	ID#	Name	k'	Plate #	Plate Ht.	Tailing	Resolution	Sep.Factor	Area Ratio	Height Ratio	Conc. %	Norm Conc.
1	2.462	2.264	2.510	2434	683	3.562	0.000	   			0.000	9420	15.924	0.000	0.000	0.000	0	0	0.000	0.000
2	2.528	2.510	2.583	1164	380	3.060	0.000	 V 			0.027	5601	26.782	0.000	0.558	0.000	0	0	0.000	0.000
3	2.609	2.583	2.693	708	177	3.999	0.000	 V 			0.060	1739	86.263	0.000	0.419	2.222	0	0	0.000	0.000
4	2.880	2.792	3.071	54161	14120	3.836	1.383	   	1	N2O	0.170	12677	11.833	1.545	1.539	2.850	0	0	100.000	100.000
5	3.382	3.232	3.995	16237	638	25.431	0.000	   	2	SF6	0.374	287	522.742	2.514	1.115	2.202	0	0	0.000	0.000

[Compound Results(Ch1)]
# of IDs	6
ID#	Name	R.Time	Area	Height	Conc.	Curve	3rd	2nd	1st	Constant	Area Ratio	Height Ratio	Conc. %	Norm Conc.
1	CO	1.483	907	335	6.404	Linear	0.000000e+00	0.000000e+00	1.416423e+002	0.000000e+00	0	0	0.720	0.720
2	CH4	1.571	18758	9568	362.703	Linear	0.000000e+00	0.000000e+00	5.171738e+001	0.000000e+00	0	0	40.805	40.805
3	CO2	2.000	2070977	992264	519.759	Linear	0.000000e+00	0.000000e+00	3.984494e+003	0.000000e+00	0	0	58.474	58.474
4	Ethylene	0.000	0	0	0.000	Linear	0.000000e+00	0.000000e+00	0.000000e+00	0.000000e+00	0	0	0.000	0.000
5	Acetylene	0.000	0	0	0.000	Linear	0.000000e+00	0.000000e+00	0.000000e+00	0.000000e+00	0	0	0.000	0.000
6	Ethane	0.000	0	0	0.000	Linear	0.000000e+00	0.000000e+00	0.000000e+00	0.000000e+00	0	0	0.000	0.000

[Compound Results(Ch2)]
# of IDs	5
ID#	Name	R.Time	Area	Height	Conc.	Curve	3rd	2nd	1st	Constant	Area Ratio	Height Ratio	Conc. %	Norm Conc.
1	Hydrogen	0.000	0	0	0.000	Linear	0.000000e+00	0.000000e+00	0.000000e+00	0.000000e+00	0	0	0.000	0.000
2	Oxygen	0.000	0	0	0.000	Linear	0.000000e+00	0.000000e+00	0.000000e+00	0.000000e+00	0	0	0.000	0.000
3	Nitrogen	0.000	0	0	0.000	Linear	0.000000e+00	0.000000e+00	0.000000e+00	0.000000e+00	0	0	0.000	0.000
4	Methane	0.000	0	0	0.000	Linear	0.000000e+00	0.000000e+00	0.000000e+00	0.000000e+00	0	0	0.000	0.000
5	Carbon Monoxide	0.000	0	0	0.000	Linear	0.000000e+00	0.000000e+00	0.000000e+00	0.000000e+00	0	0	0.000	0.000

[Compound Results(Ch3)]
# of IDs	2
ID#	Name	R.Time	Area	Height	Conc.	Curve	3rd	2nd	1st	Constant	Area Ratio	Height Ratio	Conc. %	Norm Conc.
1	N2O	2.880	54161	14120	1.383	Linear	0.000000e+00	0.000000e+00	3.915173e+004	0.000000e+00	0	0	100.000	100.000
2	SF6	3.382	16237	638	0.000	Linear	0.000000e+00	0.000000e+00	0.000000e+00	0.000000e+00	0	0	0.000	0.000

[Group Results(Ch1)]
# of Groups	0

[Group Results(Ch2)]
# of Groups	0

[Group Results(Ch3)]
# of Groups	0

[Chromatogram (Ch1)]
Interval(msec)	220
# of Points	1091
Start Time(min)	0.002
End Time(min)	3.998
R.Time (min)	Intensity
0.00167	-20
0.00533	-29
0.00900	-35
0.01267	-36
0.01633	-33
0.02000	-27
0.02367	-22
0.02733	-17
0.03100	-11
0.03467	-7
0.03833	-4
0.04200	-4
0.04567	-3
0.04933	1
0.05300	6
0.05667	10
0.06033	15
0.06400	16
0.06767	15
0.07133	10
0.07500	-0
0.07867	-8
0.08233	-11
0.08600	-10
0.08967	-7
0.09333	-6
0.09700	-8
0.10067	-11
0.10433	-13
0.10800	-14
0.11167	-13
0.11533	-13
0.11900	-14
0.12267	-16
0.12633	-18
0.13000	-20
0.13367	-21
0.13733	-19
0.14100	-17
0.14467	-14
0.14833	-7
0.15200	-1
0.15567	4
0.15933	6
0.16300	2
0.16667	-2
0.17033	-0
0.17400	1
0.17767	-2
0.18133	-6
0.18500	-14
0.18867	-25
0.19233	-30
0.19600	-34
0.19967	-36
0.20333	-35
0.20700	-35
0.21067	-38
0.21433	-39
0.21800	-30
0.22167	-16
0.22533	-3
0.22900	1
0.23267	2
0.23633	6
0.24000	7
0.24367	-1
0.24733	-10
0.25100	-13
0.25467	-12
0.25833	-8
0.26200	-4
0.26567	3
0.26933	10
0.27300	22
0.27667	33
0.28033	41
0.28400	47
0.28767	53
0.29133	55
0.29500	55
0.29867	57
0.30233	60
0.30600	60
0.30967	57
0.31333	53
0.31700	50
0.32067	52
0.32433	64
0.32800	81
0.33167	94
0.33533	98
0.33900	101
0.34267	99
0.34633	94
0.35000	86
0.35367	82
0.35733	81
0.36100	84
0.36467	86
0.36833	88
0.37200	88
0.37567	84
0.37933	79
0.38300	78
0.38667	81
0.39033	84
0.39400	83
0.39767	75
0.40133	67
0.40500	58
0.40867	47
0.41233	35
0.41600	23
0.41967	11
0.42333	3
0.42700	-2
0.43067	-8
0.43433	-11
0.43800	-9
0.44167	-3
0.44533	4
0.44900	7
0.45267	9
0.45633	8
0.46000	5
0.46367	6
0.46733	7
0.47100	12
0.47467	19
0.47833	25
0.48200	30
0.48567	33
0.48933	32
0.49300	28
0.49667	22
0.50033	16
0.50400	9
0.50767	6
0.51133	6
0.51500	6
0.51867	5
0.52233	2
0.52600	-1
0.52967	-6
0.53333	-11
0.53700	-13
0.54067	-12
0.54433	-11
0.54800	-11
0.55167	-12
0.55533	-13
0.55900	-15
0.56267	-21
0.56633	-24
0.57000	-20
0.57367	-14
0.57733	-11
0.58100	-6
0.58467	-1
0.58833	8
0.59200	19
0.59567	25
0.59933	25
0.60300	21
0.60667	16
0.61033	12
0.61400	7
0.61767	-1
0.62133	-9
0.62500	-16
0.62867	-22
0.63233	-24
0.63600	-25
0.63967	-19
0.64333	-11
0.64700	-5
0.65067	0
0.65433	-1
0.65800	-9
0.66167	-17
0.66533	-23
0.66900	-25
0.67267	-22
0.67633	-15
0.68000	-3
0.68367	5
0.68733	5
0.69100	-2
0.69467	-12
0.69833	-20
0.70200	-24
0.70567	-24
0.70933	-22
0.71300	-23
0.71667	-22
0.72033	-20
0.72400	-19
0.72767	-19
0.73133	-13
0.73500	-3
0.73867	6
0.74233	13
0.74600	16
0.74967	8
0.75333	-2
0.75700	-12
0.76067	-18
0.76433	-20
0.76800	-18
0.77167	-15
0.77533	-10
0.77900	-3
0.78267	2
0.78633	5
0.79000	3
0.79367	-11
0.79733	-23
0.80100	-25
0.80467	-20
0.80833	-17
0.81200	-19
0.81567	-25
0.81933	-32
0.82300	-39
0.82667	-44
0.83033	-44
0.83400	-37
0.83767	-27
0.84133	-21
0.84500	-19
0.84867	-20
0.85233	-19
0.85600	-12
0.85967	-10
0.86333	-14
0.86700	-17
0.87067	-18
0.87433	-20
0.87800	-22
0.88167	-28
0.88533	-27
0.88900	-22
0.89267	-14
0.89633	-5
0.90000	2
0.90367	6
0.90733	9
0.91100	12
0.91467	14
0.91833	12
0.92200	9
0.92567	2
0.92933	-14
0.93300	-36
0.93667	-51
0.94033	-56
0.94400	-53
0.94767	-45
0.95133	-36
0.95500	-25
0.95867	-16
0.96233	-12
0.96600	-19
0.96967	-31
0.97333	-39
0.97700	-40
0.98067	-35
0.98433	-32
0.98800	-30
0.99167	-22
0.99533	-19
0.99900	-17
1.00267	-17
1.00633	-23
1.01000	-30
1.01367	-32
1.01733	-31
1.02100	-30
1.02467	-31
1.02833	-36
1.03200	-39
1.03567	-40
1.03933	-39
1.04300	-37
1.04667	-27
1.05033	-15
1.05400	-8
1.05767	-4
1.06133	-1
1.06500	-5
1.06867	-13
1.07233	-21
1.07600	-30
1.07967	-38
1.08333	-44
1.08700	-42
1.09067	-34
1.09433	-23
1.09800	-15
1.10167	-11
1.10533	-15
1.10900	-21
1.11267	-25
1.11633	-29
1.12000	-29
1.12367	-28
1.12733	-22
1.13100	-16
1.13467	-9
1.13833	-4
1.14200	-7
1.14567	-16
1.14933	-27
1.15300	-41
1.15667	-51
1.16033	-53
1.16400	-51
1.16767	-50
1.17133	-43
1.17500	-36
1.17867	-38
1.18233	-45
1.18600	-50
1.18967	-53
1.19333	-52
1.19700	-49
1.20067	-46
1.20433	-40
1.20800	-35
1.21167	-30
1.21533	-21
1.21900	-7
1.22267	7
1.22633	20
1.23000	20
1.23367	15
1.23733	9
1.24100	2
1.24467	-6
1.24833	-13
1.25200	-18
1.25567	-19
1.25933	-14
1.26300	-6
1.26667	-3
1.27033	-8
1.27400	-15
1.27767	-21
1.28133	-17
1.28500	-13
1.28867	-9
1.29233	-8
1.29600	-8
1.29967	-10
1.30333	-12
1.30700	-11
1.31067	-7
1.31433	-2
1.31800	1
1.32167	-2
1.32533	-9
1.32900	-13
1.33267	-14
1.33633	-12
1.34000	-2
1.34367	8
1.34733	10
1.35100	10
1.35467	6
1.35833	3
1.36200	3
1.36567	2
1.36933	-2
1.37300	-6
1.37667	-14
1.38033	-22
1.38400	-27
1.38767	-27
1.39133	-21
1.39500	-14
1.39867	-10
1.40233	-7
1.40600	1
1.40967	6
1.41333	5
1.41700	2
1.42067	-3
1.42433	-9
1.42800	-10
1.43167	-4
1.43533	7
1.43900	22
1.44267	57
1.44633	145
1.45000	256
1.45367	323
1.45733	336
1.46100	327
1.46467	310
1.46833	287
1.47200	273
1.47567	278
1.47933	295
1.48300	289
1.48667	252
1.49033	191
1.49400	120
1.49767	52
1.50133	-12
1.50500	-69
1.50867	-112
1.51233	-144
1.51600	-168
1.51967	-184
1.52333	-195
1.52700	-204
1.53067	-206
1.53433	-198
1.53800	-150
1.54167	66
1.54533	707
1.54900	1971
1.55267	3734
1.55633	5617
1.56000	7284
1.56367	8555
1.56733	9329
1.57100	9485
1.57467	8925
1.57833	7737
1.58200	6210
1.58567	4667
1.58933	3328
1.59300	2283
1.59667	1517
1.60033	980
1.60400	622
1.60767	387
1.61133	234
1.61500	134
1.61867	68
1.62233	21
1.62600	-12
1.62967	-27
1.63333	-35
1.63700	-50
1.64067	-65
1.64433	-79
1.64800	-85
1.65167	-78
1.65533	-71
1.65900	-70
1.66267	-74
1.66633	-76
1.67000	-77
1.67367	-78
1.67733	-76
1.68100	-69
1.68467	-58
1.68833	-45
1.69200	-36
1.69567	-29
1.69933	-30
1.70300	-37
1.70667	-43
1.71033	-47
1.71400	-49
1.71767	-49
1.72133	-44
1.72500	-41
1.72867	-44
1.73233	-49
1.73600	-50
1.73967	-46
1.74333	-38
1.74700	-36
1.75067	-42
1.75433	-47
1.75800	-52
1.76167	-58
1.76533	-60
1.76900	-55
1.77267	-50
1.77633	-45
1.78000	-42
1.78367	-42
1.78733	-42
1.79100	-43
1.79467	-47
1.79833	-50
1.80200	-53
1.80567	-56
1.80933	-61
1.81300	-62
1.81667	-58
1.82033	-53
1.82400	-51
1.82767	-50
1.83133	-50
1.83500	-52
1.83867	-50
1.84233	-43
1.84600	-46
1.84967	-53
1.85333	-58
1.85700	-60
1.86067	-54
1.86433	-46
1.86800	-43
1.87167	-40
1.87533	-40
1.87900	-46
1.88267	-53
1.88633	-53
1.89000	-49
1.89367	-44
1.89733	-41
1.90100	-39
1.90467	-41
1.90833	-49
1.91200	-53
1.91567	-57
1.91933	-55
1.92300	-52
1.92667	-44
1.93033	-36
1.93400	-26
1.93767	-18
1.94133	-11
1.94500	-3
1.94867	1
1.95233	14
1.95600	94
1.95967	580
1.96333	3065
1.96700	12743
1.97067	41500
1.97433	107452
1.97800	225034
1.98167	390682
1.98533	580053
1.98900	759784
1.99267	900236
1.99633	981021
2.00000	992320
2.00367	935971
2.00733	825774
2.01100	684557
2.01467	536989
2.01833	402308
2.02200	290931
2.02567	205265
2.02933	142710
2.03300	98655
2.03667	68357
2.04033	47812
2.04400	33970
2.04767	24643
2.05133	18324
2.05500	13989
2.05867	10964
2.06233	8819
2.06600	7260
2.06967	6094
2.07333	5205
2.07700	4517
2.08067	3971
2.08433	3535
2.08800	3180
2.09167	2879
2.09533	2622
2.09900	2403
2.10267	2215
2.10633	2052
2.11000	1910
2.11367	1788
2.11733	1682
2.12100	1587
2.12467	1494
2.12833	1406
2.13200	1331
2.13567	1265
2.13933	1202
2.14300	1144
2.14667	1095
2.15033	1046
2.15400	996
2.15767	950
2.16133	906
2.16500	859
2.16867	822
2.17233	796
2.17600	775
2.17967	753
2.18333	725
2.18700	694
2.19067	669
2.19433	644
2.19800	617
2.20167	592
2.20533	569
2.20900	550
2.21267	537
2.21633	525
2.22000	516
2.22367	510
2.22733	500
2.23100	487
2.23467	470
2.23833	446
2.24200	422
2.24567	407
2.24933	401
2.25300	399
2.25667	394
2.26033	387
2.26400	381
2.26767	375
2.27133	366
2.27500	354
2.27867	341
2.28233	325
2.28600	314
2.28967	312
2.29333	313
2.29700	311
2.30067	311
2.30433	311
2.30800	309
2.31167	306
2.31533	307
2.31900	310
2.32267	304
2.32633	291
2.33000	277
2.33367	269
2.33733	262
2.34100	256
2.34467	254
2.34833	249
2.35200	242
2.35567	240
2.35933	241
2.36300	238
2.36667	233
2.37033	230
2.37400	230
2.37767	232
2.38133	230
2.38500	227
2.38867	219
2.39233	211
2.39600	206
2.39967	207
2.40333	210
2.40700	208
2.41067	206
2.41433	206
2.41800	208
2.42167	212
2.42533	214
2.42900	206
2.43267	192
2.43633	179
2.44000	169
2.44367	163
2.44733	160
2.45100	158
2.45467	155
2.45833	154
2.46200	156
2.46567	161
2.46933	168
2.47300	174
2.47667	176
2.48033	172
2.48400	166
2.48767	158
2.49133	149
2.49500	144
2.49867	142
2.50233	143
2.50600	142
2.50967	141
2.51333	143
2.51700	151
2.52067	158
2.52433	162
2.52800	162
2.53167	162
2.53533	161
2.53900	157
2.54267	146
2.54633	132
2.55000	120
2.55367	113
2.55733	112
2.56100	117
2.56467	127
2.56833	139
2.57200	148
2.57567	148
2.57933	140
2.58300	122
2.58667	105
2.59033	95
2.59400	91
2.59767	93
2.60133	97
2.60500	103
2.60867	111
2.61233	120
2.61600	121
2.61967	118
2.62333	117
2.62700	116
2.63067	114
2.63433	111
2.63800	108
2.64167	107
2.64533	109
2.64900	109
2.65267	107
2.65633	108
2.66000	110
2.66367	111
2.66733	113
2.67100	117
2.67467	119
2.67833	113
2.68200	102
2.68567	94
2.68933	90
2.69300	95
2.69667	104
2.70033	110
2.70400	110
2.70767	108
2.71133	107
2.71500	109
2.71867	111
2.72233	108
2.72600	102
2.72967	101
2.73333	98
2.73700	99
2.74067	102
2.74433	101
2.74800	99
2.75167	99
2.75533	101
2.75900	103
2.76267	103
2.76633	100
2.77000	94
2.77367	90
2.77733	93
2.78100	98
2.78467	100
2.78833	98
2.79200	95
2.79567	93
2.79933	90
2.80300	84
2.80667	82
2.81033	84
2.81400	87
2.81767	86
2.82133	86
2.82500	84
2.82867	83
2.83233	84
2.83600	90
2.83967	95
2.84333	92
2.84700	91
2.85067	96
2.85433	100
2.85800	101
2.86167	98
2.86533	91
2.86900	83
2.87267	76
2.87633	74
2.88000	78
2.88367	82
2.88733	82
2.89100	81
2.89467	82
2.89833	88
2.90200	94
2.90567	96
2.90933	96
2.91300	92
2.91667	89
2.92033	84
2.92400	80
2.92767	79
2.93133	78
2.93500	74
2.93867	68
2.94233	64
2.94600	64
2.94967	69
2.95333	77
2.95700	79
2.96067	79
2.96433	78
2.96800	78
2.97167	76
2.97533	76
2.97900	81
2.98267	91
2.98633	99
2.99000	104
2.99367	105
2.99733	104
3.00100	103
3.00467	99
3.00833	93
3.01200	88
3.01567	82
3.01933	76
3.02300	73
3.02667	74
3.03033	72
3.03400	69
3.03767	69
3.04133	75
3.04500	84
3.04867	93
3.05233	101
3.05600	101
3.05967	97
3.06333	86
3.06700	69
3.07067	60
3.07433	60
3.07800	69
3.08167	76
3.08533	78
3.08900	77
3.09267	75
3.09633	74
3.10000	71
3.10367	70
3.10733	72
3.11100	74
3.11467	80
3.11833	90
3.12200	96
3.12567	96
3.12933	92
3.13300	86
3.13667	84
3.14033	83
3.14400	77
3.14767	68
3.15133	61
3.15500	57
3.15867	63
3.16233	77
3.16600	92
3.16967	100
3.17333	100
3.17700	90
3.18067	77
3.18433	66
3.18800	60
3.19167	61
3.19533	64
3.19900	66
3.20267	69
3.20633	82
3.21000	97
3.21367	104
3.21733	103
3.22100	98
3.22467	87
3.22833	73
3.23200	58
3.23567	46
3.23933	38
3.24300	29
3.24667	27
3.25033	31
3.25400	39
3.25767	48
3.26133	57
3.26500	56
3.26867	48
3.27233	42
3.27600	37
3.27967	31
3.28333	27
3.28700	26
3.29067	27
3.29433	29
3.29800	28
3.30167	26
3.30533	32
3.30900	44
3.31267	57
3.31633	67
3.32000	73
3.32367	78
3.32733	82
3.33100	79
3.33467	70
3.33833	60
3.34200	55
3.34567	54
3.34933	53
3.35300	49
3.35667	45
3.36033	42
3.36400	44
3.36767	47
3.37133	52
3.37500	60
3.37867	65
3.38233	62
3.38600	56
3.38967	52
3.39333	48
3.39700	46
3.40067	42
3.40433	37
3.40800	33
3.41167	37
3.41533	41
3.41900	40
3.42267	35
3.42633	40
3.43000	48
3.43367	48
3.43733	43
3.44100	41
3.44467	37
3.44833	31
3.45200	24
3.45567	24
3.45933	29
3.46300	37
3.46667	44
3.47033	51
3.47400	56
3.47767	59
3.48133	59
3.48500	54
3.48867	53
3.49233	52
3.49600	49
3.49967	43
3.50333	38
3.50700	32
3.51067	29
3.51433	33
3.51800	39
3.52167	44
3.52533	46
3.52900	48
3.53267	47
3.53633	49
3.54000	50
3.54367	46
3.54733	43
3.55100	40
3.55467	39
3.55833	40
3.56200	40
3.56567	36
3.56933	27
3.57300	17
3.57667	9
3.58033	6
3.58400	10
3.58767	14
3.59133	14
3.59500	12
3.59867	12
3.60233	15
3.60600	18
3.60967	25
3.61333	33
3.61700	38
3.62067	38
3.62433	35
3.62800	31
3.63167	30
3.63533	29
3.63900	27
3.64267	29
3.64633	32
3.65000	31
3.65367	29
3.65733	30
3.66100	34
3.66467	34
3.66833	34
3.67200	35
3.67567	38
3.67933	35
3.68300	25
3.68667	16
3.69033	11
3.69400	9
3.69767	6
3.70133	3
3.70500	3
3.70867	5
3.71233	12
3.71600	22
3.71967	33
3.72333	34
3.72700	28
3.73067	22
3.73433	21
3.73800	22
3.74167	21
3.74533	22
3.74900	23
3.75267	22
3.75633	20
3.76000	16
3.76367	17
3.76733	20
3.77100	17
3.77467	13
3.77833	12
3.78200	14
3.78567	18
3.78933	21
3.79300	16
3.79667	7
3.80033	2
3.80400	3
3.80767	7
3.81133	11
3.81500	17
3.81867	18
3.82233	20
3.82600	23
3.82967	23
3.83333	17
3.83700	13
3.84067	10
3.84433	-0
3.84800	-5
3.85167	-4
3.85533	-9
3.85900	-15
3.86267	-17
3.86633	-8
3.87000	3
3.87367	10
3.87733	11
3.88100	11
3.88467	13
3.88833	12
3.89200	10
3.89567	11
3.89933	7
3.90300	-3
3.90667	-15
3.91033	-19
3.91400	-16
3.91767	-13
3.92133	-14
3.92500	-15
3.92867	-16
3.93233	-11
3.93600	-5
3.93967	4
3.94333	10
3.94700	12
3.95067	15
3.95433	18
3.95800	15
3.96167	6
3.96533	-10
3.96900	-23
3.97267	-33
3.97633	-40
3.98000	-39
3.98367	-30
3.98733	-19
3.99100	-12
3.99467	-8
3.99833	-10

[Chromatogram (Ch2)]
Interval(msec)	220
# of Points	1091
Start Time(min)	0.002
End Time(min)	3.998
R.Time (min)	Intensity
0.00167	-0
0.00533	-1
0.00900	-1
0.01267	-1
0.01633	-1
0.02000	-1
0.02367	-1
0.02733	-1
0.03100	-1
0.03467	-1
0.03833	-1
0.04200	-1
0.04567	-1
0.04933	-2
0.05300	-2
0.05667	-2
0.06033	-2
0.06400	-2
0.06767	-2
0.07133	-2
0.07500	-2
0.07867	-2
0.08233	-2
0.08600	-2
0.08967	-2
0.09333	-2
0.09700	-1
0.10067	-1
0.10433	-1
0.10800	-1
0.11167	-1
0.11533	-1
0.11900	-2
0.12267	-2
0.12633	-2
0.13000	-2
0.13367	-2
0.13733	-2
0.14100	-2
0.14467	-2
0.14833	-2
0.15200	-2
0.15567	-2
0.15933	-2
0.16300	-2
0.16667	-2
0.17033	-2
0.17400	-2
0.17767	-3
0.18133	-3
0.18500	-3
0.18867	-3
0.19233	-3
0.19600	-3
0.19967	-3
0.20333	-3
0.20700	-3
0.21067	-3
0.21433	-3
0.21800	-4
0.22167	-3
0.22533	-3
0.22900	-3
0.23267	-3
0.23633	-3
0.24000	-3
0.24367	-3
0.24733	-2
0.25100	-2
0.25467	-2
0.25833	-2
0.26200	-2
0.26567	-2
0.26933	-2
0.27300	-2
0.27667	-2
0.28033	-2
0.28400	-2
0.28767	-2
0.29133	-2
0.29500	-1
0.29867	-1
0.30233	-2
0.30600	-2
0.30967	-2
0.31333	-2
0.31700	-2
0.32067	-2
0.32433	-2
0.32800	-2
0.33167	-2
0.33533	-2
0.33900	-3
0.34267	-3
0.34633	-3
0.35000	-4
0.35367	-4
0.35733	-5
0.36100	-5
0.36467	-6
0.36833	-6
0.37200	-6
0.37567	-6
0.37933	-6
0.38300	-6
0.38667	-6
0.39033	-6
0.39400	-6
0.39767	-6
0.40133	-6
0.40500	-6
0.40867	-6
0.41233	-6
0.41600	-6
0.41967	-6
0.42333	-6
0.42700	-6
0.43067	-6
0.43433	-6
0.43800	-6
0.44167	-5
0.44533	-5
0.44900	-5
0.45267	-5
0.45633	-5
0.46000	-5
0.46367	-5
0.46733	-4
0.47100	-4
0.47467	-3
0.47833	-3
0.48200	-2
0.48567	-2
0.48933	-2
0.49300	-1
0.49667	-1
0.50033	-1
0.50400	-1
0.50767	-1
0.51133	-1
0.51500	-1
0.51867	-2
0.52233	-2
0.52600	-2
0.52967	-2
0.53333	-2
0.53700	-2
0.54067	-1
0.54433	-1
0.54800	-1
0.55167	-0
0.55533	-0
0.55900	-0
0.56267	-0
0.56633	0
0.57000	0
0.57367	0
0.57733	0
0.58100	0
0.58467	0
0.58833	-0
0.59200	-1
0.59567	-1
0.59933	-2
0.60300	-2
0.60667	-2
0.61033	-3
0.61400	-3
0.61767	-3
0.62133	-3
0.62500	-3
0.62867	-3
0.63233	-3
0.63600	-3
0.63967	-3
0.64333	-3
0.64700	-3
0.65067	-3
0.65433	-3
0.65800	-3
0.66167	-3
0.66533	-3
0.66900	-3
0.67267	-3
0.67633	-3
0.68000	-3
0.68367	-3
0.68733	-3
0.69100	-3
0.69467	-3
0.69833	-3
0.70200	-3
0.70567	-2
0.70933	-2
0.71300	-2
0.71667	-2
0.72033	-2
0.72400	-2
0.72767	-2
0.73133	-2
0.73500	-2
0.73867	-2
0.74233	-3
0.74600	-3
0.74967	-2
0.75333	-2
0.75700	-2
0.76067	-2
0.76433	-2
0.76800	-3
0.77167	-3
0.77533	-4
0.77900	-4
0.78267	-5
0.78633	-5
0.79000	-5
0.79367	-5
0.79733	-5
0.80100	-5
0.80467	-5
0.80833	-5
0.81200	-5
0.81567	-5
0.81933	-5
0.82300	-5
0.82667	-5
0.83033	-4
0.83400	-4
0.83767	-4
0.84133	-3
0.84500	-3
0.84867	-3
0.85233	-3
0.85600	-2
0.85967	-2
0.86333	-2
0.86700	-2
0.87067	-2
0.87433	-2
0.87800	-2
0.88167	-2
0.88533	-2
0.88900	-2
0.89267	-2
0.89633	-3
0.90000	-3
0.90367	-3
0.90733	-3
0.91100	-3
0.91467	-3
0.91833	-3
0.92200	-3
0.92567	-3
0.92933	-3
0.93300	-3
0.93667	-3
0.94033	-3
0.94400	-3
0.94767	-3
0.95133	-2
0.95500	-2
0.95867	-2
0.96233	-2
0.96600	-3
0.96967	-3
0.97333	-3
0.97700	-3
0.98067	-3
0.98433	-3
0.98800	-3
0.99167	-3
0.99533	-4
0.99900	-4
1.00267	-4
1.00633	-3
1.01000	-3
1.01367	-3
1.01733	-3
1.02100	-3
1.02467	-3
1.02833	-3
1.03200	-3
1.03567	-4
1.03933	-4
1.04300	-4
1.04667	-4
1.05033	-4
1.05400	-4
1.05767	-4
1.06133	-3
1.06500	-3
1.06867	-3
1.07233	-3
1.07600	-3
1.07967	-3
1.08333	-3
1.08700	-4
1.09067	-4
1.09433	-5
1.09800	-5
1.10167	-6
1.10533	-7
1.10900	-7
1.11267	-7
1.11633	-7
1.12000	-8
1.12367	-8
1.12733	-8
1.13100	-8
1.13467	-7
1.13833	-7
1.14200	-7
1.14567	-7
1.14933	-6
1.15300	-6
1.15667	-5
1.16033	-4
1.16400	-4
1.16767	-3
1.17133	-3
1.17500	-3
1.17867	-2
1.18233	-2
1.18600	-2
1.18967	-2
1.19333	-2
1.19700	-2
1.20067	-2
1.20433	-2
1.20800	-2
1.21167	-2
1.21533	-1
1.21900	-1
1.22267	-1
1.22633	-1
1.23000	-1
1.23367	-1
1.23733	-1
1.24100	-1
1.24467	-0
1.24833	-1
1.25200	-1
1.25567	-1
1.25933	-1
1.26300	-1
1.26667	-1
1.27033	-1
1.27400	-1
1.27767	-1
1.28133	-1
1.28500	-1
1.28867	-1
1.29233	-1
1.29600	-1
1.29967	-1
1.30333	-1
1.30700	-0
1.31067	-1
1.31433	-1
1.31800	-1
1.32167	-1
1.32533	-1
1.32900	-1
1.33267	-1
1.33633	-1
1.34000	-2
1.34367	-2
1.34733	-2
1.35100	-2
1.35467	-2
1.35833	-2
1.36200	-2
1.36567	-3
1.36933	-3
1.37300	-3
1.37667	-3
1.38033	-3
1.38400	-3
1.38767	-3
1.39133	-3
1.39500	-3
1.39867	-4
1.40233	-4
1.40600	-4
1.40967	-5
1.41333	-5
1.41700	-5
1.42067	-5
1.42433	-5
1.42800	-6
1.43167	-6
1.43533	-6
1.43900	-6
1.44267	-6
1.44633	-6
1.45000	-5
1.45367	-5
1.45733	-5
1.46100	-5
1.46467	-5
1.46833	-5
1.47200	-5
1.47567	-5
1.47933	-5
1.48300	-6
1.48667	-6
1.49033	-7
1.49400	-7
1.49767	-8
1.50133	-8
1.50500	-8
1.50867	-8
1.51233	-8
1.51600	-8
1.51967	-8
1.52333	-7
1.52700	-7
1.53067	-7
1.53433	-6
1.53800	-6
1.54167	-6
1.54533	-5
1.54900	-5
1.55267	-5
1.55633	-4
1.56000	-4
1.56367	-4
1.56733	-4
1.57100	-3
1.57467	-3
1.57833	-3
1.58200	-3
1.58567	-4
1.58933	-4
1.59300	-4
1.59667	-5
1.60033	-6
1.60400	-8
1.60767	-9
1.61133	-11
1.61500	-14
1.61867	-17
1.62233	-20
1.62600	-23
1.62967	-26
1.63333	-29
1.63700	-33
1.64067	-36
1.64433	-39
1.64800	-43
1.65167	-46
1.65533	-50
1.65900	-53
1.66267	-57
1.66633	-61
1.67000	-65
1.67367	-70
1.67733	-75
1.68100	-80
1.68467	-85
1.68833	-89
1.69200	-93
1.69567	-97
1.69933	-99
1.70300	-102
1.70667	-104
1.71033	-105
1.71400	-106
1.71767	-107
1.72133	-108
1.72500	-108
1.72867	-109
1.73233	-110
1.73600	-110
1.73967	-110
1.74333	-110
1.74700	-109
1.75067	-109
1.75433	-108
1.75800	-108
1.76167	-108
1.76533	-108
1.76900	-109
1.77267	-111
1.77633	-112
1.78000	-113
1.78367	-114
1.78733	-115
1.79100	-115
1.79467	-116
1.79833	-116
1.80200	-116
1.80567	-115
1.80933	-115
1.81300	-115
1.81667	-114
1.82033	-114
1.82400	-114
1.82767	-115
1.83133	-115
1.83500	-116
1.83867	-116
1.84233	-117
1.84600	-117
1.84967	-117
1.85333	-117
1.85700	-117
1.86067	-116
1.86433	-115
1.86800	-115
1.87167	-114
1.87533	-114
1.87900	-114
1.88267	-114
1.88633	-114
1.89000	-115
1.89367	-115
1.89733	-115
1.90100	-115
1.90467	-116
1.90833	-116
1.91200	-116
1.91567	-116
1.91933	-116
1.92300	-115
1.92667	-115
1.93033	-114
1.93400	-114
1.93767	-114
1.94133	-113
1.94500	-113
1.94867	-113
1.95233	-113
1.95600	-113
1.95967	-113
1.96333	-113
1.96700	-113
1.97067	-113
1.97433	-113
1.97800	-112
1.98167	-112
1.98533	-112
1.98900	-112
1.99267	-111
1.99633	-111
2.00000	-111
2.00367	-111
2.00733	-111
2.01100	-110
2.01467	-109
2.01833	-109
2.02200	-108
2.02567	-107
2.02933	-107
2.03300	-107
2.03667	-106
2.04033	-106
2.04400	-106
2.04767	-106
2.05133	-105
2.05500	-105
2.05867	-105
2.06233	-105
2.06600	-104
2.06967	-104
2.07333	-104
2.07700	-103
2.08067	-103
2.08433	-103
2.08800	-103
2.09167	-102
2.09533	-102
2.09900	-101
2.10267	-101
2.10633	-100
2.11000	-99
2.11367	-99
2.11733	-98
2.12100	-98
2.12467	-98
2.12833	-98
2.13200	-98
2.13567	-98
2.13933	-98
2.14300	-98
2.14667	-98
2.15033	-98
2.15400	-97
2.15767	-97
2.16133	-97
2.16500	-97
2.16867	-96
2.17233	-96
2.17600	-95
2.17967	-95
2.18333	-95
2.18700	-95
2.19067	-94
2.19433	-94
2.19800	-93
2.20167	-93
2.20533	-92
2.20900	-92
2.21267	-91
2.21633	-91
2.22000	-91
2.22367	-91
2.22733	-91
2.23100	-91
2.23467	-91
2.23833	-90
2.24200	-89
2.24567	-88
2.24933	-88
2.25300	-87
2.25667	-87
2.26033	-86
2.26400	-86
2.26767	-86
2.27133	-86
2.27500	-86
2.27867	-86
2.28233	-86
2.28600	-86
2.28967	-86
2.29333	-85
2.29700	-85
2.30067	-85
2.30433	-86
2.30800	-86
2.31167	-86
2.31533	-86
2.31900	-85
2.32267	-85
2.32633	-84
2.33000	-83
2.33367	-82
2.33733	-82
2.34100	-81
2.34467	-80
2.34833	-80
2.35200	-79
2.35567	-78
2.35933	-77
2.36300	-76
2.36667	-74
2.37033	-72
2.37400	-69
2.37767	-65
2.38133	-61
2.38500	-57
2.38867	-53
2.39233	-48
2.39600	-44
2.39967	-39
2.40333	-35
2.40700	-31
2.41067	-28
2.41433	-25
2.41800	-22
2.42167	-19
2.42533	-17
2.42900	-15
2.43267	-13
2.43633	-11
2.44000	-10
2.44367	-9
2.44733	-9
2.45100	-9
2.45467	-9
2.45833	-9
2.46200	-8
2.46567	-7
2.46933	-6
2.47300	-5
2.47667	-4
2.48033	-2
2.48400	-1
2.48767	-1
2.49133	0
2.49500	1
2.49867	2
2.50233	3
2.50600	4
2.50967	5
2.51333	5
2.51700	6
2.52067	6
2.52433	7
2.52800	7
2.53167	8
2.53533	8
2.53900	9
2.54267	10
2.54633	10
2.55000	11
2.55367	11
2.55733	12
2.56100	12
2.56467	13
2.56833	13
2.57200	13
2.57567	13
2.57933	13
2.58300	13
2.58667	13
2.59033	13
2.59400	14
2.59767	14
2.60133	15
2.60500	15
2.60867	16
2.61233	16
2.61600	16
2.61967	16
2.62333	16
2.62700	17
2.63067	17
2.63433	17
2.63800	17
2.64167	18
2.64533	18
2.64900	18
2.65267	19
2.65633	19
2.66000	19
2.66367	19
2.66733	19
2.67100	19
2.67467	19
2.67833	19
2.68200	19
2.68567	19
2.68933	19
2.69300	19
2.69667	19
2.70033	19
2.70400	20
2.70767	20
2.71133	20
2.71500	21
2.71867	21
2.72233	21
2.72600	21
2.72967	21
2.73333	21
2.73700	21
2.74067	21
2.74433	22
2.74800	22
2.75167	22
2.75533	23
2.75900	23
2.76267	23
2.76633	23
2.77000	24
2.77367	24
2.77733	24
2.78100	23
2.78467	23
2.78833	23
2.79200	23
2.79567	23
2.79933	23
2.80300	23
2.80667	23
2.81033	23
2.81400	23
2.81767	23
2.82133	22
2.82500	23
2.82867	23
2.83233	23
2.83600	23
2.83967	23
2.84333	21
2.84700	19
2.85067	15
2.85433	9
2.85800	-1
2.86167	-15
2.86533	-33
2.86900	-57
2.87267	-86
2.87633	-121
2.88000	-161
2.88367	-207
2.88733	-258
2.89100	-314
2.89467	-375
2.89833	-440
2.90200	-509
2.90567	-582
2.90933	-657
2.91300	-736
2.91667	-817
2.92033	-901
2.92400	-987
2.92767	-1074
2.93133	-1162
2.93500	-1252
2.93867	-1344
2.94233	-1429
2.94600	-1495
2.94967	-1530
2.95333	-1529
2.95700	-1492
2.96067	-1427
2.96433	-1339
2.96800	-1236
2.97167	-1127
2.97533	-1016
2.97900	-907
2.98267	-803
2.98633	-707
2.99000	-618
2.99367	-538
2.99733	-466
3.00100	-402
3.00467	-346
3.00833	-297
3.01200	-254
3.01567	-217
3.01933	-185
3.02300	-157
3.02667	-134
3.03033	-113
3.03400	-96
3.03767	-81
3.04133	-68
3.04500	-57
3.04867	-48
3.05233	-40
3.05600	-33
3.05967	-27
3.06333	-23
3.06700	-18
3.07067	-15
3.07433	-12
3.07800	-9
3.08167	-6
3.08533	-4
3.08900	-2
3.09267	-1
3.09633	1
3.10000	2
3.10367	3
3.10733	4
3.11100	5
3.11467	6
3.11833	7
3.12200	8
3.12567	9
3.12933	10
3.13300	11
3.13667	11
3.14033	12
3.14400	13
3.14767	13
3.15133	14
3.15500	14
3.15867	14
3.16233	14
3.16600	15
3.16967	15
3.17333	15
3.17700	15
3.18067	15
3.18433	15
3.18800	16
3.19167	16
3.19533	16
3.19900	16
3.20267	16
3.20633	17
3.21000	17
3.21367	17
3.21733	17
3.22100	18
3.22467	18
3.22833	18
3.23200	18
3.23567	18
3.23933	18
3.24300	18
3.24667	18
3.25033	18
3.25400	18
3.25767	18
3.26133	18
3.26500	18
3.26867	18
3.27233	18
3.27600	18
3.27967	18
3.28333	18
3.28700	18
3.29067	18
3.29433	18
3.29800	18
3.30167	18
3.30533	18
3.30900	18
3.31267	18
3.31633	19
3.32000	19
3.32367	19
3.32733	20
3.33100	20
3.33467	20
3.33833	20
3.34200	21
3.34567	22
3.34933	22
3.35300	23
3.35667	24
3.36033	24
3.36400	25
3.36767	25
3.37133	25
3.37500	26
3.37867	26
3.38233	26
3.38600	26
3.38967	26
3.39333	27
3.39700	27
3.40067	26
3.40433	26
3.40800	26
3.41167	26
3.41533	26
3.41900	26
3.42267	25
3.42633	25
3.43000	25
3.43367	25
3.43733	25
3.44100	25
3.44467	25
3.44833	25
3.45200	25
3.45567	25
3.45933	25
3.46300	25
3.46667	25
3.47033	25
3.47400	25
3.47767	25
3.48133	25
3.48500	25
3.48867	25
3.49233	26
3.49600	26
3.49967	26
3.50333	26
3.50700	26
3.51067	26
3.51433	26
3.51800	26
3.52167	26
3.52533	26
3.52900	26
3.53267	26
3.53633	26
3.54000	26
3.54367	26
3.54733	26
3.55100	26
3.55467	25
3.55833	25
3.56200	25
3.56567	25
3.56933	24
3.57300	24
3.57667	24
3.58033	24
3.58400	24
3.58767	23
3.59133	23
3.59500	23
3.59867	23
3.60233	23
3.60600	23
3.60967	23
3.61333	23
3.61700	24
3.62067	24
3.62433	24
3.62800	24
3.63167	24
3.63533	24
3.63900	24
3.64267	24
3.64633	24
3.65000	24
3.65367	24
3.65733	24
3.66100	25
3.66467	25
3.66833	24
3.67200	24
3.67567	24
3.67933	24
3.68300	24
3.68667	24
3.69033	23
3.69400	23
3.69767	23
3.70133	23
3.70500	23
3.70867	23
3.71233	23
3.71600	23
3.71967	23
3.72333	23
3.72700	23
3.73067	23
3.73433	24
3.73800	24
3.74167	24
3.74533	24
3.74900	24
3.75267	24
3.75633	24
3.76000	24
3.76367	24
3.76733	24
3.77100	24
3.77467	24
3.77833	24
3.78200	24
3.78567	24
3.78933	24
3.79300	24
3.79667	24
3.80033	24
3.80400	24
3.80767	24
3.81133	24
3.81500	24
3.81867	24
3.82233	24
3.82600	24
3.82967	24
3.83333	24
3.83700	24
3.84067	24
3.84433	24
3.84800	24
3.85167	24
3.85533	24
3.85900	24
3.86267	24
3.86633	24
3.87000	24
3.87367	24
3.87733	24
3.88100	24
3.88467	24
3.88833	24
3.89200	25
3.89567	25
3.89933	25
3.90300	26
3.90667	26
3.91033	26
3.91400	26
3.91767	26
3.92133	26
3.92500	26
3.92867	26
3.93233	26
3.93600	26
3.93967	26
3.94333	26
3.94700	26
3.95067	26
3.95433	26
3.95800	26
3.96167	26
3.96533	25
3.96900	25
3.97267	25
3.97633	25
3.98000	25
3.98367	25
3.98733	25
3.99100	24
3.99467	24
3.99833	24

[Chromatogram (Ch3)]
Interval(msec)	220
# of Points	1091
Start Time(min)	0.002
End Time(min)	3.998
R.Time (min)	Intensity
0.00167	-1
0.00533	-0
0.00900	-1
0.01267	-1
0.01633	-1
0.02000	-1
0.02367	-0
0.02733	-3
0.03100	-7
0.03467	-8
0.03833	-7
0.04200	-5
0.04567	-2
0.04933	2
0.05300	5
0.05667	5
0.06033	3
0.06400	1
0.06767	-1
0.07133	-3
0.07500	-3
0.07867	-4
0.08233	-3
0.08600	-3
0.08967	-4
0.09333	-5
0.09700	-7
0.10067	-8
0.10433	-7
0.10800	-6
0.11167	-5
0.11533	-4
0.11900	-4
0.12267	-3
0.12633	-3
0.13000	-4
0.13367	-5
0.13733	-6
0.14100	-4
0.14467	-3
0.14833	-3
0.15200	-4
0.15567	-4
0.15933	-2
0.16300	-1
0.16667	-3
0.17033	-3
0.17400	-3
0.17767	-4
0.18133	-5
0.18500	-6
0.18867	-5
0.19233	-6
0.19600	-7
0.19967	-7
0.20333	-6
0.20700	-8
0.21067	-10
0.21433	-9
0.21800	-9
0.22167	-8
0.22533	-7
0.22900	-6
0.23267	-7
0.23633	-7
0.24000	-5
0.24367	-3
0.24733	-3
0.25100	-3
0.25467	-6
0.25833	-9
0.26200	-10
0.26567	-9
0.26933	-7
0.27300	-7
0.27667	-5
0.28033	-4
0.28400	-3
0.28767	-2
0.29133	-3
0.29500	-4
0.29867	-5
0.30233	-4
0.30600	-4
0.30967	-4
0.31333	-5
0.31700	-6
0.32067	-6
0.32433	-5
0.32800	-5
0.33167	-4
0.33533	-5
0.33900	-4
0.34267	-3
0.34633	-4
0.35000	-6
0.35367	-8
0.35733	-9
0.36100	-9
0.36467	-7
0.36833	-6
0.37200	-7
0.37567	-8
0.37933	-8
0.38300	-6
0.38667	-4
0.39033	-5
0.39400	-4
0.39767	-3
0.40133	-2
0.40500	-3
0.40867	-3
0.41233	-3
0.41600	-1
0.41967	1
0.42333	2
0.42700	1
0.43067	-0
0.43433	-3
0.43800	-4
0.44167	-4
0.44533	-6
0.44900	-5
0.45267	-3
0.45633	-2
0.46000	-2
0.46367	-3
0.46733	-2
0.47100	-2
0.47467	-2
0.47833	-1
0.48200	-1
0.48567	-1
0.48933	-1
0.49300	-2
0.49667	-3
0.50033	-3
0.50400	-0
0.50767	1
0.51133	-1
0.51500	-3
0.51867	-6
0.52233	-6
0.52600	-7
0.52967	-8
0.53333	-7
0.53700	-6
0.54067	-7
0.54433	-8
0.54800	-9
0.55167	-8
0.55533	-7
0.55900	-6
0.56267	-6
0.56633	-7
0.57000	-7
0.57367	-6
0.57733	-5
0.58100	-5
0.58467	-6
0.58833	-6
0.59200	-6
0.59567	-5
0.59933	-6
0.60300	-7
0.60667	-6
0.61033	-5
0.61400	-4
0.61767	-4
0.62133	-2
0.62500	-2
0.62867	-3
0.63233	-4
0.63600	-4
0.63967	-4
0.64333	-5
0.64700	-5
0.65067	-6
0.65433	-6
0.65800	-6
0.66167	-4
0.66533	-2
0.66900	-1
0.67267	0
0.67633	-1
0.68000	-3
0.68367	-4
0.68733	-5
0.69100	-6
0.69467	-6
0.69833	-5
0.70200	-2
0.70567	1
0.70933	1
0.71300	1
0.71667	0
0.72033	-1
0.72400	-2
0.72767	-2
0.73133	-3
0.73500	-1
0.73867	-2
0.74233	-3
0.74600	-5
0.74967	-5
0.75333	-4
0.75700	-3
0.76067	-4
0.76433	-6
0.76800	-7
0.77167	-6
0.77533	-6
0.77900	-3
0.78267	-3
0.78633	-3
0.79000	-3
0.79367	-3
0.79733	-4
0.80100	-2
0.80467	1
0.80833	3
0.81200	2
0.81567	1
0.81933	1
0.82300	-1
0.82667	-1
0.83033	-1
0.83400	-1
0.83767	-1
0.84133	-0
0.84500	1
0.84867	2
0.85233	4
0.85600	6
0.85967	6
0.86333	4
0.86700	1
0.87067	-1
0.87433	-2
0.87800	-2
0.88167	-2
0.88533	-3
0.88900	-2
0.89267	2
0.89633	4
0.90000	3
0.90367	2
0.90733	2
0.91100	2
0.91467	4
0.91833	6
0.92200	6
0.92567	4
0.92933	0
0.93300	-2
0.93667	-4
0.94033	-4
0.94400	-3
0.94767	1
0.95133	3
0.95500	4
0.95867	5
0.96233	4
0.96600	0
0.96967	-1
0.97333	-2
0.97700	-1
0.98067	2
0.98433	3
0.98800	3
0.99167	3
0.99533	2
0.99900	0
1.00267	-0
1.00633	-1
1.01000	1
1.01367	2
1.01733	1
1.02100	-0
1.02467	-2
1.02833	-3
1.03200	-3
1.03567	-1
1.03933	1
1.04300	2
1.04667	0
1.05033	-0
1.05400	1
1.05767	2
1.06133	3
1.06500	4
1.06867	3
1.07233	3
1.07600	3
1.07967	3
1.08333	2
1.08700	2
1.09067	4
1.09433	3
1.09800	3
1.10167	3
1.10533	3
1.10900	3
1.11267	4
1.11633	5
1.12000	7
1.12367	7
1.12733	6
1.13100	5
1.13467	5
1.13833	4
1.14200	1
1.14567	1
1.14933	2
1.15300	2
1.15667	4
1.16033	5
1.16400	6
1.16767	6
1.17133	4
1.17500	2
1.17867	2
1.18233	4
1.18600	6
1.18967	6
1.19333	5
1.19700	6
1.20067	7
1.20433	8
1.20800	6
1.21167	6
1.21533	7
1.21900	6
1.22267	4
1.22633	2
1.23000	2
1.23367	3
1.23733	5
1.24100	5
1.24467	5
1.24833	3
1.25200	2
1.25567	4
1.25933	7
1.26300	8
1.26667	8
1.27033	10
1.27400	11
1.27767	11
1.28133	11
1.28500	10
1.28867	9
1.29233	7
1.29600	4
1.29967	3
1.30333	4
1.30700	5
1.31067	4
1.31433	4
1.31800	6
1.32167	7
1.32533	9
1.32900	10
1.33267	10
1.33633	10
1.34000	8
1.34367	6
1.34733	4
1.35100	2
1.35467	4
1.35833	6
1.36200	6
1.36567	7
1.36933	7
1.37300	6
1.37667	7
1.38033	7
1.38400	6
1.38767	7
1.39133	9
1.39500	10
1.39867	9
1.40233	9
1.40600	9
1.40967	8
1.41333	8
1.41700	5
1.42067	4
1.42433	4
1.42800	3
1.43167	2
1.43533	1
1.43900	1
1.44267	3
1.44633	4
1.45000	5
1.45367	8
1.45733	11
1.46100	11
1.46467	10
1.46833	8
1.47200	7
1.47567	6
1.47933	6
1.48300	5
1.48667	3
1.49033	4
1.49400	7
1.49767	7
1.50133	6
1.50500	7
1.50867	6
1.51233	6
1.51600	6
1.51967	6
1.52333	7
1.52700	8
1.53067	10
1.53433	11
1.53800	10
1.54167	9
1.54533	9
1.54900	8
1.55267	6
1.55633	7
1.56000	7
1.56367	8
1.56733	9
1.57100	9
1.57467	11
1.57833	13
1.58200	13
1.58567	13
1.58933	13
1.59300	12
1.59667	13
1.60033	15
1.60400	15
1.60767	14
1.61133	13
1.61500	14
1.61867	15
1.62233	15
1.62600	15
1.62967	13
1.63333	13
1.63700	13
1.64067	13
1.64433	13
1.64800	15
1.65167	17
1.65533	18
1.65900	17
1.66267	16
1.66633	18
1.67000	21
1.67367	22
1.67733	21
1.68100	20
1.68467	20
1.68833	21
1.69200	23
1.69567	23
1.69933	23
1.70300	22
1.70667	22
1.71033	21
1.71400	21
1.71767	21
1.72133	22
1.72500	22
1.72867	24
1.73233	26
1.73600	26
1.73967	25
1.74333	24
1.74700	25
1.75067	27
1.75433	29
1.75800	30
1.76167	28
1.76533	26
1.76900	26
1.77267	28
1.77633	30
1.78000	32
1.78367	35
1.78733	37
1.79100	38
1.79467	38
1.79833	39
1.80200	39
1.80567	40
1.80933	41
1.81300	42
1.81667	42
1.82033	41
1.82400	39
1.82767	38
1.83133	38
1.83500	38
1.83867	38
1.84233	39
1.84600	40
1.84967	42
1.85333	43
1.85700	44
1.86067	43
1.86433	43
1.86800	46
1.87167	50
1.87533	51
1.87900	50
1.88267	49
1.88633	50
1.89000	50
1.89367	48
1.89733	48
1.90100	48
1.90467	49
1.90833	49
1.91200	49
1.91567	50
1.91933	52
1.92300	55
1.92667	58
1.93033	60
1.93400	61
1.93767	61
1.94133	62
1.94500	61
1.94867	62
1.95233	63
1.95600	62
1.95967	61
1.96333	62
1.96700	65
1.97067	66
1.97433	68
1.97800	70
1.98167	70
1.98533	71
1.98900	72
1.99267	72
1.99633	73
2.00000	74
2.00367	72
2.00733	72
2.01100	73
2.01467	74
2.01833	76
2.02200	79
2.02567	82
2.02933	82
2.03300	85
2.03667	87
2.04033	85
2.04400	84
2.04767	83
2.05133	85
2.05500	88
2.05867	91
2.06233	97
2.06600	100
2.06967	101
2.07333	101
2.07700	101
2.08067	102
2.08433	103
2.08800	105
2.09167	107
2.09533	108
2.09900	108
2.10267	108
2.10633	109
2.11000	109
2.11367	111
2.11733	113
2.12100	115
2.12467	117
2.12833	119
2.13200	120
2.13567	120
2.13933	122
2.14300	121
2.14667	121
2.15033	123
2.15400	125
2.15767	126
2.16133	131
2.16500	136
2.16867	137
2.17233	138
2.17600	138
2.17967	137
2.18333	138
2.18700	140
2.19067	143
2.19433	145
2.19800	146
2.20167	147
2.20533	150
2.20900	151
2.21267	153
2.21633	156
2.22000	157
2.22367	158
2.22733	160
2.23100	161
2.23467	162
2.23833	164
2.24200	168
2.24567	169
2.24933	171
2.25300	172
2.25667	172
2.26033	173
2.26400	173
2.26767	174
2.27133	174
2.27500	172
2.27867	172
2.28233	173
2.28600	175
2.28967	179
2.29333	182
2.29700	184
2.30067	185
2.30433	187
2.30800	186
2.31167	185
2.31533	185
2.31900	189
2.32267	194
2.32633	199
2.33000	201
2.33367	201
2.33733	199
2.34100	200
2.34467	202
2.34833	206
2.35200	209
2.35567	213
2.35933	217
2.36300	219
2.36667	219
2.37033	218
2.37400	218
2.37767	218
2.38133	219
2.38500	218
2.38867	217
2.39233	218
2.39600	220
2.39967	221
2.40333	225
2.40700	229
2.41067	231
2.41433	232
2.41800	232
2.42167	235
2.42533	236
2.42900	236
2.43267	237
2.43633	239
2.44000	243
2.44367	298
2.44733	446
2.45100	608
2.45467	741
2.45833	817
2.46200	824
2.46567	792
2.46933	751
2.47300	716
2.47667	697
2.48033	683
2.48400	658
2.48767	617
2.49133	569
2.49500	521
2.49867	481
2.50233	454
2.50600	438
2.50967	433
2.51333	440
2.51700	457
2.52067	479
2.52433	499
2.52800	511
2.53167	509
2.53533	495
2.53900	470
2.54267	438
2.54633	405
2.55000	376
2.55367	349
2.55733	327
2.56100	309
2.56467	296
2.56833	286
2.57200	281
2.57567	279
2.57933	277
2.58300	276
2.58667	277
2.59033	279
2.59400	283
2.59767	286
2.60133	289
2.60500	293
2.60867	294
2.61233	292
2.61600	289
2.61967	284
2.62333	279
2.62700	273
2.63067	266
2.63433	258
2.63800	249
2.64167	239
2.64533	225
2.64900	211
2.65267	197
2.65633	183
2.66000	169
2.66367	156
2.66733	143
2.67100	131
2.67467	122
2.67833	115
2.68200	110
2.68567	107
2.68933	106
2.69300	104
2.69667	102
2.70033	102
2.70400	103
2.70767	104
2.71133	104
2.71500	103
2.71867	106
2.72233	109
2.72600	112
2.72967	117
2.73333	121
2.73700	123
2.74067	126
2.74433	129
2.74800	131
2.75167	133
2.75533	135
2.75900	139
2.76267	142
2.76633	146
2.77000	150
2.77367	152
2.77733	154
2.78100	158
2.78467	161
2.78833	164
2.79200	165
2.79567	168
2.79933	172
2.80300	178
2.80667	185
2.81033	192
2.81400	200
2.81767	211
2.82133	231
2.82500	277
2.82867	377
2.83233	576
2.83600	936
2.83967	1514
2.84333	2359
2.84700	3490
2.85067	4889
2.85433	6494
2.85800	8204
2.86167	9898
2.86533	11445
2.86900	12723
2.87267	13647
2.87633	14167
2.88000	14290
2.88367	14053
2.88733	13522
2.89100	12773
2.89467	11883
2.89833	10918
2.90200	9930
2.90567	8958
2.90933	8028
2.91300	7154
2.91667	6349
2.92033	5617
2.92400	4957
2.92767	4364
2.93133	3836
2.93500	3367
2.93867	2953
2.94233	2590
2.94600	2272
2.94967	1993
2.95333	1745
2.95700	1531
2.96067	1348
2.96433	1187
2.96800	1049
2.97167	929
2.97533	824
2.97900	734
2.98267	657
2.98633	591
2.99000	536
2.99367	487
2.99733	444
3.00100	404
3.00467	369
3.00833	339
3.01200	314
3.01567	294
3.01933	277
3.02300	261
3.02667	249
3.03033	237
3.03400	228
3.03767	220
3.04133	214
3.04500	209
3.04867	204
3.05233	198
3.05600	195
3.05967	191
3.06333	187
3.06700	183
3.07067	181
3.07433	180
3.07800	180
3.08167	179
3.08533	177
3.08900	176
3.09267	176
3.09633	175
3.10000	174
3.10367	174
3.10733	175
3.11100	175
3.11467	173
3.11833	172
3.12200	172
3.12567	171
3.12933	169
3.13300	169
3.13667	171
3.14033	173
3.14400	173
3.14767	172
3.15133	172
3.15500	174
3.15867	176
3.16233	175
3.16600	174
3.16967	172
3.17333	173
3.17700	175
3.18067	176
3.18433	177
3.18800	180
3.19167	180
3.19533	180
3.19900	181
3.20267	181
3.20633	181
3.21000	182
3.21367	183
3.21733	185
3.22100	184
3.22467	169
3.22833	146
3.23200	138
3.23567	154
3.23933	186
3.24300	229
3.24667	278
3.25033	327
3.25400	374
3.25767	422
3.26133	464
3.26500	501
3.26867	534
3.27233	564
3.27600	588
3.27967	608
3.28333	626
3.28700	642
3.29067	657
3.29433	672
3.29800	685
3.30167	697
3.30533	709
3.30900	721
3.31267	732
3.31633	744
3.32000	755
3.32367	764
3.32733	773
3.33100	782
3.33467	791
3.33833	799
3.34200	805
3.34567	809
3.34933	816
3.35300	822
3.35667	829
3.36033	836
3.36400	841
3.36767	846
3.37133	852
3.37500	860
3.37867	867
3.38233	870
3.38600	872
3.38967	874
3.39333	875
3.39700	876
3.40067	878
3.40433	881
3.40800	882
3.41167	883
3.41533	880
3.41900	878
3.42267	875
3.42633	872
3.43000	868
3.43367	864
3.43733	861
3.44100	861
3.44467	861
3.44833	857
3.45200	852
3.45567	847
3.45933	842
3.46300	839
3.46667	837
3.47033	832
3.47400	827
3.47767	823
3.48133	823
3.48500	820
3.48867	817
3.49233	814
3.49600	810
3.49967	806
3.50333	802
3.50700	800
3.51067	799
3.51433	795
3.51800	793
3.52167	791
3.52533	790
3.52900	789
3.53267	788
3.53633	788
3.54000	788
3.54367	788
3.54733	791
3.55100	792
3.55467	793
3.55833	792
3.56200	790
3.56567	789
3.56933	790
3.57300	789
3.57667	788
3.58033	789
3.58400	789
3.58767	788
3.59133	788
3.59500	789
3.59867	787
3.60233	784
3.60600	783
3.60967	783
3.61333	783
3.61700	784
3.62067	784
3.62433	785
3.62800	785
3.63167	784
3.63533	783
3.63900	784
3.64267	784
3.64633	782
3.65000	781
3.65367	780
3.65733	778
3.66100	777
3.66467	775
3.66833	773
3.67200	770
3.67567	771
3.67933	771
3.68300	772
3.68667	772
3.69033	771
3.69400	767
3.69767	762
3.70133	760
3.70500	760
3.70867	762
3.71233	761
3.71600	758
3.71967	753
3.72333	749
3.72700	748
3.73067	748
3.73433	749
3.73800	749
3.74167	748
3.74533	747
3.74900	745
3.75267	741
3.75633	737
3.76000	734
3.76367	731
3.76733	731
3.77100	733
3.77467	734
3.77833	732
3.78200	726
3.78567	721
3.78933	721
3.79300	720
3.79667	717
3.80033	715
3.80400	713
3.80767	711
3.81133	708
3.81500	706
3.81867	702
3.82233	700
3.82600	698
3.82967	696
3.83333	694
3.83700	694
3.84067	692
3.84433	689
3.84800	687
3.85167	686
3.85533	682
3.85900	680
3.86267	678
3.86633	674
3.87000	671
3.87367	669
3.87733	668
3.88100	667
3.88467	665
3.88833	665
3.89200	666
3.89567	665
3.89933	662
3.90300	657
3.90667	654
3.91033	651
3.91400	648
3.91767	646
3.92133	644
3.92500	643
3.92867	640
3.93233	639
3.93600	638
3.93967	637
3.94333	635
3.94700	632
3.95067	629
3.95433	628
3.95800	627
3.96167	626
3.96533	624
3.96900	623
3.97267	622
3.97633	619
3.98000	617
3.98367	616
3.98733	615
3.99100	616
3.99467	612
3.99833	606

[Status Trace (Column Oven Temperature)]
Interval(msec)	1000
# of Points	240
Start Time(min)	0.009
End Time(min)	3.992
Intensity Units	
Intensity Multiplier	1
R.Time (min)	Intensity
0.00913	35.03
0.02580	35.03
0.04247	35.04
0.05913	35.03
0.07580	35.03
0.09247	35.02
0.10913	35.02
0.12580	35.02
0.14247	35.02
0.15913	35.02
0.17580	35.01
0.19247	35.01
0.20913	35.01
0.22580	35.00
0.24247	35.00
0.25913	35.00
0.27580	35.00
0.29247	35.00
0.30913	34.99
0.32580	34.99
0.34247	35.00
0.35913	35.01
0.37580	35.02
0.39247	35.03
0.40913	35.05
0.42580	35.04
0.44247	35.04
0.45913	35.04
0.47580	35.04
0.49247	35.03
0.50913	35.03
0.52580	35.03
0.54247	35.02
0.55913	35.00
0.57580	34.99
0.59247	34.99
0.60913	34.99
0.62580	34.99
0.64247	34.99
0.65913	34.99
0.67580	34.99
0.69247	34.99
0.70913	34.98
0.72580	34.98
0.74247	34.97
0.75913	34.97
0.77580	34.99
0.79247	34.99
0.80913	35.01
0.82580	35.00
0.84247	34.99
0.85913	34.99
0.87580	34.98
0.89247	34.98
0.90913	34.98
0.92580	34.97
0.94247	34.97
0.95913	34.97
0.97580	34.98
0.99247	34.97
1.00913	34.98
1.02580	34.98
1.04247	34.97
1.05913	34.97
1.07580	34.98
1.09247	35.00
1.10913	35.02
1.12580	35.04
1.14247	35.03
1.15913	35.03
1.17580	35.02
1.19247	35.01
1.20913	35.00
1.22580	34.99
1.24247	34.98
1.25913	34.98
1.27580	34.98
1.29247	34.97
1.30913	34.95
1.32580	34.96
1.34247	34.96
1.35913	34.95
1.37580	34.94
1.39247	34.95
1.40913	34.96
1.42580	34.96
1.44247	34.97
1.45913	34.96
1.47580	34.96
1.49247	34.99
1.50913	35.00
1.52580	35.00
1.54247	34.99
1.55913	34.99
1.57580	34.98
1.59247	34.99
1.60913	35.06
1.62580	35.19
1.64247	35.39
1.65913	35.64
1.67580	35.99
1.69247	36.36
1.70913	36.70
1.72580	37.04
1.74247	37.36
1.75913	37.67
1.77580	38.00
1.79247	38.35
1.80913	38.68
1.82580	39.00
1.84247	39.36
1.85913	39.68
1.87580	40.01
1.89247	40.34
1.90913	40.67
1.92580	41.00
1.94247	41.32
1.95913	41.65
1.97580	41.99
1.99247	42.32
2.00913	42.63
2.02580	42.96
2.04247	43.28
2.05913	43.61
2.07580	43.94
2.09247	44.27
2.10913	44.58
2.12580	44.90
2.14247	45.24
2.15913	45.57
2.17580	45.91
2.19247	46.22
2.20913	46.54
2.22580	46.89
2.24247	47.20
2.25913	47.51
2.27580	47.86
2.29247	48.18
2.30913	48.53
2.32580	48.85
2.34247	49.18
2.35913	49.47
2.37580	49.64
2.39247	49.67
2.40913	49.68
2.42580	49.67
2.44247	49.69
2.45913	49.70
2.47580	49.69
2.49247	49.70
2.50913	49.72
2.52580	49.75
2.54247	49.76
2.55913	49.77
2.57580	49.79
2.59247	49.80
2.60913	49.81
2.62580	49.82
2.64247	49.82
2.65913	49.83
2.67580	49.84
2.69247	49.85
2.70913	49.85
2.72580	49.86
2.74247	49.86
2.75913	49.85
2.77580	49.86
2.79247	49.86
2.80913	49.86
2.82580	49.87
2.84247	49.86
2.85913	49.86
2.87580	49.88
2.89247	49.90
2.90913	49.91
2.92580	49.93
2.94247	49.94
2.95913	49.96
2.97580	49.97
2.99247	49.98
3.00913	49.98
3.02580	49.99
3.04247	49.99
3.05913	50.01
3.07580	50.01
3.09247	50.02
3.10913	50.02
3.12580	50.02
3.14247	50.02
3.15913	50.03
3.17580	50.04
3.19247	50.03
3.20913	50.03
3.22580	50.03
3.24247	50.04
3.25913	50.06
3.27580	50.08
3.29247	50.10
3.30913	50.11
3.32580	50.12
3.34247	50.10
3.35913	50.09
3.37580	50.07
3.39247	50.06
3.40913	50.05
3.42580	50.04
3.44247	50.05
3.45913	50.04
3.47580	50.04
3.49247	50.03
3.50913	50.02
3.52580	50.01
3.54247	50.02
3.55913	50.02
3.57580	50.02
3.59247	50.04
3.60913	50.04
3.62580	50.05
3.64247	50.05
3.65913	50.05
3.67580	50.06
3.69247	50.06
3.70913	50.06
3.72580	50.06
3.74247	50.05
3.75913	50.04
3.77580	50.05
3.79247	50.06
3.80913	50.06
3.82580	50.06
3.84247	50.06
3.85913	50.05
3.87580	50.04
3.89247	50.03
3.90913	50.03
3.92580	50.03
3.94247	50.03
3.95913	50.03
3.97580	50.03
3.99247	50.05

[Status Trace (Injection Unit Temperature)]
Interval(msec)	1000
# of Points	240
Start Time(min)	0.009
End Time(min)	3.992
Intensity Units	
Intensity Multiplier	1
R.Time (min)	Intensity
0.00913	99.98
0.02580	99.98
0.04247	99.97
0.05913	99.98
0.07580	99.98
0.09247	99.98
0.10913	99.98
0.12580	99.99
0.14247	99.98
0.15913	99.98
0.17580	99.98
0.19247	99.98
0.20913	99.98
0.22580	99.98
0.24247	99.98
0.25913	99.98
0.27580	99.99
0.29247	99.98
0.30913	99.99
0.32580	99.98
0.34247	99.99
0.35913	99.99
0.37580	99.99
0.39247	99.99
0.40913	99.99
0.42580	99.99
0.44247	99.99
0.45913	99.98
0.47580	99.99
0.49247	99.99
0.50913	99.99
0.52580	99.99
0.54247	99.98
0.55913	99.98
0.57580	99.99
0.59247	99.99
0.60913	99.99
0.62580	99.99
0.64247	99.99
0.65913	99.99
0.67580	99.99
0.69247	99.99
0.70913	99.99
0.72580	99.98
0.74247	99.99
0.75913	99.99
0.77580	99.98
0.79247	99.98
0.80913	99.99
0.82580	99.98
0.84247	99.98
0.85913	99.98
0.87580	99.98
0.89247	99.98
0.90913	99.98
0.92580	99.98
0.94247	99.98
0.95913	99.98
0.97580	99.98
0.99247	99.98
1.00913	99.98
1.02580	99.98
1.04247	99.98
1.05913	99.98
1.07580	99.98
1.09247	99.98
1.10913	99.97
1.12580	99.98
1.14247	99.98
1.15913	99.98
1.17580	99.98
1.19247	99.98
1.20913	99.98
1.22580	99.98
1.24247	99.98
1.25913	99.98
1.27580	99.98
1.29247	99.98
1.30913	99.98
1.32580	99.97
1.34247	99.98
1.35913	99.98
1.37580	99.98
1.39247	99.98
1.40913	99.98
1.42580	99.98
1.44247	99.97
1.45913	99.98
1.47580	99.98
1.49247	99.98
1.50913	99.98
1.52580	99.98
1.54247	99.97
1.55913	99.97
1.57580	99.98
1.59247	99.98
1.60913	99.98
1.62580	99.98
1.64247	99.98
1.65913	99.98
1.67580	99.98
1.69247	99.98
1.70913	99.98
1.72580	99.98
1.74247	99.98
1.75913	99.98
1.77580	99.98
1.79247	99.98
1.80913	99.98
1.82580	99.98
1.84247	99.98
1.85913	99.97
1.87580	99.98
1.89247	99.98
1.90913	99.98
1.92580	99.98
1.94247	99.98
1.95913	99.98
1.97580	99.97
1.99247	99.97
2.00913	99.98
2.02580	99.97
2.04247	99.98
2.05913	99.97
2.07580	99.98
2.09247	99.97
2.10913	99.97
2.12580	99.97
2.14247	99.97
2.15913	99.97
2.17580	99.97
2.19247	99.97
2.20913	99.97
2.22580	99.97
2.24247	99.97
2.25913	99.97
2.27580	99.97
2.29247	99.96
2.30913	99.97
2.32580	99.97
2.34247	99.97
2.35913	99.97
2.37580	99.96
2.39247	99.97
2.40913	99.97
2.42580	99.96
2.44247	99.97
2.45913	99.97
2.47580	99.97
2.49247	99.97
2.50913	99.97
2.52580	99.97
2.54247	99.98
2.55913	99.98
2.57580	99.98
2.59247	99.98
2.60913	99.98
2.62580	99.98
2.64247	99.98
2.65913	99.98
2.67580	99.98
2.69247	99.98
2.70913	99.98
2.72580	99.99
2.74247	99.99
2.75913	99.99
2.77580	100.00
2.79247	99.99
2.80913	100.00
2.82580	100.00
2.84247	100.00
2.85913	100.00
2.87580	100.00
2.89247	100.00
2.90913	100.00
2.92580	100.01
2.94247	100.01
2.95913	100.01
2.97580	100.01
2.99247	100.01
3.00913	100.01
3.02580	100.01
3.04247	100.01
3.05913	100.01
3.07580	100.01
3.09247	100.01
3.10913	100.01
3.12580	100.02
3.14247	100.02
3.15913	100.02
3.17580	100.02
3.19247	100.02
3.20913	100.02
3.22580	100.03
3.24247	100.02
3.25913	100.02
3.27580	100.02
3.29247	100.03
3.30913	100.02
3.32580	100.03
3.34247	100.03
3.35913	100.03
3.37580	100.03
3.39247	100.03
3.40913	100.03
3.42580	100.03
3.44247	100.03
3.45913	100.02
3.47580	100.03
3.49247	100.03
3.50913	100.02
3.52580	100.03
3.54247	100.03
3.55913	100.03
3.57580	100.03
3.59247	100.03
3.60913	100.03
3.62580	100.03
3.64247	100.03
3.65913	100.03
3.67580	100.03
3.69247	100.03
3.70913	100.03
3.72580	100.03
3.74247	100.03
3.75913	100.03
3.77580	100.03
3.79247	100.03
3.80913	100.03
3.82580	100.03
3.84247	100.03
3.85913	100.03
3.87580	100.03
3.89247	100.03
3.90913	100.04
3.92580	100.03
3.94247	100.03
3.95913	100.04
3.97580	100.03
3.99247	100.03

[Status Trace (Carrier Gas Pressure)]
Interval(msec)	1000
# of Points	240
Start Time(min)	0.009
End Time(min)	3.992
Intensity Units	
Intensity Multiplier	1
R.Time (min)	Intensity
0.00913	58.00
0.02580	55.23
0.04247	57.33
0.05913	59.36
0.07580	59.29
0.09247	58.03
0.10913	57.98
0.12580	58.01
0.14247	58.01
0.15913	58.00
0.17580	58.00
0.19247	58.00
0.20913	58.00
0.22580	58.00
0.24247	58.00
0.25913	58.00
0.27580	58.00
0.29247	58.00
0.30913	58.00
0.32580	58.00
0.34247	58.00
0.35913	58.00
0.37580	58.00
0.39247	58.00
0.40913	58.00
0.42580	58.00
0.44247	58.00
0.45913	58.00
0.47580	58.00
0.49247	58.00
0.50913	58.00
0.52580	58.00
0.54247	58.00
0.55913	58.00
0.57580	58.00
0.59247	58.00
0.60913	58.00
0.62580	58.00
0.64247	58.00
0.65913	58.00
0.67580	58.00
0.69247	58.00
0.70913	58.00
0.72580	58.00
0.74247	58.00
0.75913	58.00
0.77580	58.00
0.79247	58.00
0.80913	58.00
0.82580	58.00
0.84247	58.00
0.85913	58.00
0.87580	58.00
0.89247	58.00
0.90913	58.00
0.92580	58.00
0.94247	58.00
0.95913	58.00
0.97580	58.00
0.99247	58.00
1.00913	58.00
1.02580	58.00
1.04247	58.00
1.05913	58.00
1.07580	58.00
1.09247	58.00
1.10913	58.00
1.12580	58.00
1.14247	58.00
1.15913	58.00
1.17580	58.00
1.19247	58.00
1.20913	58.00
1.22580	58.00
1.24247	58.00
1.25913	58.00
1.27580	58.00
1.29247	58.00
1.30913	58.00
1.32580	58.00
1.34247	58.00
1.35913	58.00
1.37580	58.00
1.39247	58.00
1.40913	58.00
1.42580	58.00
1.44247	58.00
1.45913	58.00
1.47580	58.00
1.49247	58.00
1.50913	58.00
1.52580	58.00
1.54247	58.00
1.55913	58.00
1.57580	58.00
1.59247	58.00
1.60913	58.00
1.62580	58.00
1.64247	58.00
1.65913	58.00
1.67580	58.01
1.69247	58.00
1.70913	58.00
1.72580	58.00
1.74247	58.00
1.75913	58.00
1.77580	58.00
1.79247	58.00
1.80913	58.00
1.82580	58.00
1.84247	58.00
1.85913	58.00
1.87580	58.00
1.89247	58.00
1.90913	58.00
1.92580	58.00
1.94247	58.00
1.95913	58.00
1.97580	58.00
1.99247	58.00
2.00913	58.00
2.02580	58.00
2.04247	58.00
2.05913	58.00
2.07580	58.00
2.09247	58.00
2.10913	58.00
2.12580	58.00
2.14247	58.00
2.15913	58.00
2.17580	58.00
2.19247	58.00
2.20913	58.00
2.22580	58.00
2.24247	58.00
2.25913	58.00
2.27580	58.00
2.29247	58.00
2.30913	58.00
2.32580	58.00
2.34247	58.00
2.35913	58.00
2.37580	57.99
2.39247	57.99
2.40913	58.00
2.42580	58.00
2.44247	58.00
2.45913	58.00
2.47580	58.00
2.49247	58.00
2.50913	58.00
2.52580	57.99
2.54247	58.00
2.55913	58.00
2.57580	58.00
2.59247	58.00
2.60913	58.00
2.62580	58.00
2.64247	58.00
2.65913	58.00
2.67580	58.00
2.69247	58.00
2.70913	58.00
2.72580	58.00
2.74247	58.00
2.75913	58.00
2.77580	58.00
2.79247	58.00
2.80913	58.00
2.82580	58.00
2.84247	58.00
2.85913	58.00
2.87580	58.00
2.89247	58.00
2.90913	58.00
2.92580	58.00
2.94247	58.00
2.95913	58.00
2.97580	58.00
2.99247	58.00
3.00913	58.00
3.02580	58.00
3.04247	58.00
3.05913	58.00
3.07580	58.00
3.09247	58.00
3.10913	58.00
3.12580	58.00
3.14247	58.00
3.15913	58.00
3.17580	58.00
3.19247	58.00
3.20913	58.00
3.22580	58.00
3.24247	58.00
3.25913	58.00
3.27580	58.00
3.29247	58.00
3.30913	58.00
3.32580	58.00
3.34247	58.00
3.35913	58.00
3.37580	58.00
3.39247	58.00
3.40913	58.00
3.42580	58.00
3.44247	58.00
3.45913	58.00
3.47580	58.00
3.49247	58.00
3.50913	58.00
3.52580	58.00
3.54247	58.00
3.55913	58.00
3.57580	58.00
3.59247	58.00
3.60913	58.00
3.62580	58.00
3.64247	58.00
3.65913	58.00
3.67580	58.00
3.69247	58.00
3.70913	58.00
3.72580	58.00
3.74247	58.00
3.75913	58.00
3.77580	58.00
3.79247	58.00
3.80913	58.00
3.82580	58.00
3.84247	58.00
3.85913	58.00
3.87580	58.00
3.89247	58.00
3.90913	58.00
3.92580	58.00
3.94247	58.00
3.95913	58.00
3.97580	58.00
3.99247	58.00

[Status Trace (Carrier Gas Flow)]
Interval(msec)	1000
# of Points	240
Start Time(min)	0.009
End Time(min)	3.992
Intensity Units	
Intensity Multiplier	1
R.Time (min)	Intensity
0.00913	34.52
0.02580	34.54
0.04247	34.55
0.05913	34.55
0.07580	34.50
0.09247	34.51
0.10913	34.52
0.12580	34.52
0.14247	34.52
0.15913	34.52
0.17580	34.52
0.19247	34.52
0.20913	34.52
0.22580	34.52
0.24247	34.52
0.25913	34.52
0.27580	34.52
0.29247	34.52
0.30913	34.51
0.32580	34.52
0.34247	34.52
0.35913	34.51
0.37580	34.52
0.39247	34.51
0.40913	34.52
0.42580	34.52
0.44247	34.52
0.45913	34.52
0.47580	34.52
0.49247	34.52
0.50913	34.52
0.52580	34.52
0.54247	34.52
0.55913	34.52
0.57580	34.52
0.59247	34.52
0.60913	34.51
0.62580	34.52
0.64247	34.52
0.65913	34.52
0.67580	34.52
0.69247	34.52
0.70913	34.52
0.72580	34.52
0.74247	34.52
0.75913	34.52
0.77580	34.52
0.79247	34.52
0.80913	34.52
0.82580	34.52
0.84247	34.52
0.85913	34.52
0.87580	34.52
0.89247	34.52
0.90913	34.52
0.92580	34.52
0.94247	34.52
0.95913	34.52
0.97580	34.52
0.99247	34.52
1.00913	34.52
1.02580	34.52
1.04247	34.52
1.05913	34.52
1.07580	34.52
1.09247	34.52
1.10913	34.52
1.12580	34.52
1.14247	34.52
1.15913	34.51
1.17580	34.52
1.19247	34.52
1.20913	34.52
1.22580	34.51
1.24247	34.52
1.25913	34.52
1.27580	34.51
1.29247	34.52
1.30913	34.52
1.32580	34.52
1.34247	34.51
1.35913	34.52
1.37580	34.52
1.39247	34.52
1.40913	34.52
1.42580	34.52
1.44247	34.52
1.45913	34.51
1.47580	34.52
1.49247	34.52
1.50913	34.52
1.52580	34.52
1.54247	34.52
1.55913	34.51
1.57580	34.51
1.59247	34.52
1.60913	34.52
1.62580	34.52
1.64247	34.52
1.65913	34.51
1.67580	34.51
1.69247	34.52
1.70913	34.52
1.72580	34.52
1.74247	34.52
1.75913	34.51
1.77580	34.51
1.79247	34.52
1.80913	34.52
1.82580	34.52
1.84247	34.52
1.85913	34.52
1.87580	34.51
1.89247	34.52
1.90913	34.52
1.92580	34.52
1.94247	34.52
1.95913	34.51
1.97580	34.51
1.99247	34.51
2.00913	34.52
2.02580	34.52
2.04247	34.52
2.05913	34.53
2.07580	34.52
2.09247	34.52
2.10913	34.53
2.12580	34.52
2.14247	34.52
2.15913	34.52
2.17580	34.52
2.19247	34.52
2.20913	34.52
2.22580	34.51
2.24247	34.52
2.25913	34.53
2.27580	34.52
2.29247	34.52
2.30913	34.51
2.32580	34.52
2.34247	34.51
2.35913	34.52
2.37580	34.53
2.39247	34.52
2.40913	34.52
2.42580	34.52
2.44247	34.52
2.45913	34.52
2.47580	34.52
2.49247	34.52
2.50913	34.48
2.52580	34.53
2.54247	34.53
2.55913	34.51
2.57580	34.52
2.59247	34.51
2.60913	34.53
2.62580	34.51
2.64247	34.53
2.65913	34.52
2.67580	34.52
2.69247	34.51
2.70913	34.53
2.72580	34.52
2.74247	34.53
2.75913	34.52
2.77580	34.51
2.79247	34.52
2.80913	34.52
2.82580	34.51
2.84247	34.53
2.85913	34.52
2.87580	34.51
2.89247	34.52
2.90913	34.51
2.92580	34.52
2.94247	34.52
2.95913	34.52
2.97580	34.52
2.99247	34.52
3.00913	34.52
3.02580	34.52
3.04247	34.52
3.05913	34.52
3.07580	34.52
3.09247	34.51
3.10913	34.52
3.12580	34.51
3.14247	34.52
3.15913	34.52
3.17580	34.52
3.19247	34.52
3.20913	34.52
3.22580	34.52
3.24247	34.52
3.25913	34.51
3.27580	34.52
3.29247	34.51
3.30913	34.52
3.32580	34.52
3.34247	34.52
3.35913	34.52
3.37580	34.52
3.39247	34.53
3.40913	34.51
3.42580	34.52
3.44247	34.52
3.45913	34.52
3.47580	34.52
3.49247	34.52
3.50913	34.52
3.52580	34.52
3.54247	34.51
3.55913	34.52
3.57580	34.53
3.59247	34.52
3.60913	34.52
3.62580	34.52
3.64247	34.52
3.65913	34.52
3.67580	34.52
3.69247	34.52
3.70913	34.52
3.72580	34.52
3.74247	34.52
3.75913	34.52
3.77580	34.52
3.79247	34.52
3.80913	34.52
3.82580	34.52
3.84247	34.52
3.85913	34.52
3.87580	34.51
3.89247	34.52
3.90913	34.52
3.92580	34.52
3.94247	34.52
3.95913	34.52
3.97580	34.52
3.99247	34.52

[Status Trace (Column Flow)]
Interval(msec)	1000
# of Points	240
Start Time(min)	0.009
End Time(min)	3.992
Intensity Units	
Intensity Multiplier	1
R.Time (min)	Intensity
0.00913	5.55
0.02580	5.23
0.04247	5.47
0.05913	5.71
0.07580	5.70
0.09247	5.56
0.10913	5.55
0.12580	5.55
0.14247	5.55
0.15913	5.55
0.17580	5.55
0.19247	5.55
0.20913	5.55
0.22580	5.55
0.24247	5.55
0.25913	5.55
0.27580	5.55
0.29247	5.55
0.30913	5.55
0.32580	5.55
0.34247	5.55
0.35913	5.55
0.37580	5.55
0.39247	5.55
0.40913	5.55
0.42580	5.55
0.44247	5.55
0.45913	5.55
0.47580	5.55
0.49247	5.55
0.50913	5.55
0.52580	5.55
0.54247	5.55
0.55913	5.55
0.57580	5.55
0.59247	5.55
0.60913	5.55
0.62580	5.55
0.64247	5.55
0.65913	5.55
0.67580	5.55
0.69247	5.55
0.70913	5.55
0.72580	5.55
0.74247	5.55
0.75913	5.55
0.77580	5.55
0.79247	5.55
0.80913	5.55
0.82580	5.55
0.84247	5.55
0.85913	5.55
0.87580	5.55
0.89247	5.55
0.90913	5.55
0.92580	5.55
0.94247	5.55
0.95913	5.55
0.97580	5.55
0.99247	5.55
1.00913	5.55
1.02580	5.55
1.04247	5.55
1.05913	5.55
1.07580	5.55
1.09247	5.55
1.10913	5.55
1.12580	5.55
1.14247	5.55
1.15913	5.55
1.17580	5.55
1.19247	5.55
1.20913	5.55
1.22580	5.55
1.24247	5.55
1.25913	5.55
1.27580	5.55
1.29247	5.55
1.30913	5.56
1.32580	5.56
1.34247	5.56
1.35913	5.56
1.37580	5.56
1.39247	5.56
1.40913	5.56
1.42580	5.56
1.44247	5.55
1.45913	5.56
1.47580	5.56
1.49247	5.55
1.50913	5.55
1.52580	5.55
1.54247	5.55
1.55913	5.55
1.57580	5.55
1.59247	5.55
1.60913	5.55
1.62580	5.55
1.64247	5.54
1.65913	5.53
1.67580	5.52
1.69247	5.51
1.70913	5.50
1.72580	5.49
1.74247	5.48
1.75913	5.47
1.77580	5.46
1.79247	5.45
1.80913	5.44
1.82580	5.43
1.84247	5.42
1.85913	5.41
1.87580	5.40
1.89247	5.39
1.90913	5.38
1.92580	5.37
1.94247	5.36
1.95913	5.35
1.97580	5.34
1.99247	5.33
2.00913	5.32
2.02580	5.31
2.04247	5.30
2.05913	5.29
2.07580	5.28
2.09247	5.27
2.10913	5.26
2.12580	5.25
2.14247	5.24
2.15913	5.23
2.17580	5.22
2.19247	5.22
2.20913	5.21
2.22580	5.20
2.24247	5.19
2.25913	5.18
2.27580	5.17
2.29247	5.16
2.30913	5.15
2.32580	5.14
2.34247	5.13
2.35913	5.12
2.37580	5.12
2.39247	5.12
2.40913	5.12
2.42580	5.12
2.44247	5.12
2.45913	5.12
2.47580	5.12
2.49247	5.12
2.50913	5.12
2.52580	5.11
2.54247	5.11
2.55913	5.11
2.57580	5.11
2.59247	5.11
2.60913	5.11
2.62580	5.11
2.64247	5.11
2.65913	5.11
2.67580	5.11
2.69247	5.11
2.70913	5.11
2.72580	5.11
2.74247	5.11
2.75913	5.11
2.77580	5.11
2.79247	5.11
2.80913	5.11
2.82580	5.11
2.84247	5.11
2.85913	5.11
2.87580	5.11
2.89247	5.11
2.90913	5.11
2.92580	5.11
2.94247	5.11
2.95913	5.11
2.97580	5.11
2.99247	5.11
3.00913	5.11
3.02580	5.11
3.04247	5.11
3.05913	5.11
3.07580	5.11
3.09247	5.11
3.10913	5.11
3.12580	5.11
3.14247	5.11
3.15913	5.11
3.17580	5.11
3.19247	5.11
3.20913	5.11
3.22580	5.11
3.24247	5.11
3.25913	5.11
3.27580	5.11
3.29247	5.11
3.30913	5.11
3.32580	5.10
3.34247	5.11
3.35913	5.11
3.37580	5.11
3.39247	5.11
3.40913	5.11
3.42580	5.11
3.44247	5.11
3.45913	5.11
3.47580	5.11
3.49247	5.11
3.50913	5.11
3.52580	5.11
3.54247	5.11
3.55913	5.11
3.57580	5.11
3.59247	5.11
3.60913	5.11
3.62580	5.11
3.64247	5.11
3.65913	5.11
3.67580	5.11
3.69247	5.11
3.70913	5.11
3.72580	5.11
3.74247	5.11
3.75913	5.11
3.77580	5.11
3.79247	5.11
3.80913	5.11
3.82580	5.11
3.84247	5.11
3.85913	5.11
3.87580	5.11
3.89247	5.11
3.90913	5.11
3.92580	5.11
3.94247	5.11
3.95913	5.11
3.97580	5.11
3.99247	5.11

[Status Trace (Linear Velocity)]
Interval(msec)	1000
# of Points	240
Start Time(min)	0.009
End Time(min)	3.992
Intensity Units	
Intensity Multiplier	1
R.Time (min)	Intensity
0.00913	39.02
0.02580	37.20
0.04247	38.58
0.05913	39.91
0.07580	39.87
0.09247	39.04
0.10913	39.01
0.12580	39.03
0.14247	39.03
0.15913	39.03
0.17580	39.03
0.19247	39.03
0.20913	39.02
0.22580	39.03
0.24247	39.02
0.25913	39.02
0.27580	39.02
0.29247	39.02
0.30913	39.03
0.32580	39.03
0.34247	39.03
0.35913	39.02
0.37580	39.02
0.39247	39.02
0.40913	39.02
0.42580	39.02
0.44247	39.02
0.45913	39.02
0.47580	39.02
0.49247	39.02
0.50913	39.02
0.52580	39.02
0.54247	39.02
0.55913	39.02
0.57580	39.03
0.59247	39.03
0.60913	39.03
0.62580	39.02
0.64247	39.03
0.65913	39.03
0.67580	39.02
0.69247	39.03
0.70913	39.03
0.72580	39.03
0.74247	39.03
0.75913	39.03
0.77580	39.03
0.79247	39.02
0.80913	39.02
0.82580	39.02
0.84247	39.02
0.85913	39.02
0.87580	39.03
0.89247	39.03
0.90913	39.03
0.92580	39.03
0.94247	39.03
0.95913	39.03
0.97580	39.03
0.99247	39.03
1.00913	39.03
1.02580	39.03
1.04247	39.03
1.05913	39.03
1.07580	39.03
1.09247	39.02
1.10913	39.02
1.12580	39.02
1.14247	39.02
1.15913	39.02
1.17580	39.02
1.19247	39.02
1.20913	39.02
1.22580	39.02
1.24247	39.03
1.25913	39.03
1.27580	39.03
1.29247	39.03
1.30913	39.03
1.32580	39.03
1.34247	39.03
1.35913	39.03
1.37580	39.03
1.39247	39.03
1.40913	39.03
1.42580	39.03
1.44247	39.03
1.45913	39.03
1.47580	39.03
1.49247	39.03
1.50913	39.02
1.52580	39.02
1.54247	39.02
1.55913	39.03
1.57580	39.03
1.59247	39.03
1.60913	39.02
1.62580	39.01
1.64247	38.99
1.65913	38.97
1.67580	38.93
1.69247	38.90
1.70913	38.86
1.72580	38.83
1.74247	38.80
1.75913	38.77
1.77580	38.74
1.79247	38.71
1.80913	38.67
1.82580	38.64
1.84247	38.61
1.85913	38.58
1.87580	38.55
1.89247	38.52
1.90913	38.49
1.92580	38.46
1.94247	38.43
1.95913	38.40
1.97580	38.36
1.99247	38.33
2.00913	38.30
2.02580	38.27
2.04247	38.25
2.05913	38.21
2.07580	38.18
2.09247	38.15
2.10913	38.13
2.12580	38.10
2.14247	38.07
2.15913	38.04
2.17580	38.01
2.19247	37.98
2.20913	37.95
2.22580	37.92
2.24247	37.89
2.25913	37.86
2.27580	37.83
2.29247	37.80
2.30913	37.77
2.32580	37.74
2.34247	37.71
2.35913	37.69
2.37580	37.67
2.39247	37.66
2.40913	37.67
2.42580	37.67
2.44247	37.67
2.45913	37.67
2.47580	37.66
2.49247	37.67
2.50913	37.66
2.52580	37.65
2.54247	37.66
2.55913	37.66
2.57580	37.66
2.59247	37.66
2.60913	37.66
2.62580	37.66
2.64247	37.66
2.65913	37.66
2.67580	37.65
2.69247	37.65
2.70913	37.65
2.72580	37.65
2.74247	37.65
2.75913	37.65
2.77580	37.65
2.79247	37.65
2.80913	37.65
2.82580	37.65
2.84247	37.65
2.85913	37.65
2.87580	37.65
2.89247	37.65
2.90913	37.65
2.92580	37.65
2.94247	37.64
2.95913	37.64
2.97580	37.64
2.99247	37.64
3.00913	37.64
3.02580	37.64
3.04247	37.64
3.05913	37.64
3.07580	37.64
3.09247	37.64
3.10913	37.64
3.12580	37.64
3.14247	37.64
3.15913	37.64
3.17580	37.64
3.19247	37.64
3.20913	37.64
3.22580	37.64
3.24247	37.64
3.25913	37.63
3.27580	37.63
3.29247	37.63
3.30913	37.63
3.32580	37.63
3.34247	37.63
3.35913	37.63
3.37580	37.63
3.39247	37.64
3.40913	37.64
3.42580	37.64
3.44247	37.64
3.45913	37.64
3.47580	37.64
3.49247	37.64
3.50913	37.64
3.52580	37.64
3.54247	37.64
3.55913	37.64
3.57580	37.64
3.59247	37.64
3.60913	37.64
3.62580	37.64
3.64247	37.64
3.65913	37.64
3.67580	37.63
3.69247	37.63
3.70913	37.63
3.72580	37.63
3.74247	37.64
3.75913	37.64
3.77580	37.64
3.79247	37.63
3.80913	37.63
3.82580	37.63
3.84247	37.63
3.85913	37.64
3.87580	37.64
3.89247	37.64
3.90913	37.64
3.92580	37.64
3.94247	37.64
3.95913	37.64
3.97580	37.64
3.99247	37.64

