[Header]
Application Name	LabSolutions
Version	5.110
Data File Name	C:\Users\User\Desktop\GC Analyses\Jack\Nachusa Grasslands Sampling\T0 Timepoint July 12th\T0_07122022_047.gcd
Output Date	3/14/2023
Output Time	3:40:36 PM

[File Information]
Type	Data File
Generated	3/7/2023 6:58:22 PM
Generated by	System Administrator
Modified	3/7/2023 7:04:55 PM
Modified by	System Administrator

[Sample Information]
Operator Name	System Administrator
Acquired	3/7/2023 7:00:55 PM
Sample Type	0:Unknown
Level	0
Sample Name	047
Sample ID	047
ISTD Amount1	1
ISTD Amount2	1
ISTD Amount3	1
ISTD Amount4	1
ISTD Amount5	1
ISTD Amount6	1
ISTD Amount7	1
ISTD Amount8	1
ISTD Amount9	1
ISTD Amount10	1
ISTD Amount11	1
ISTD Amount12	1
ISTD Amount13	1
ISTD Amount14	1
ISTD Amount15	1
ISTD Amount16	1
ISTD Amount17	1
ISTD Amount18	1
ISTD Amount19	1
ISTD Amount20	1
ISTD Amount21	1
ISTD Amount22	1
ISTD Amount23	1
ISTD Amount24	1
ISTD Amount25	1
ISTD Amount26	1
ISTD Amount27	1
ISTD Amount28	1
ISTD Amount29	1
ISTD Amount30	1
ISTD Amount31	1
ISTD Amount32	1
Sample Amount	1
Dilution Factor	1
Vial#	46
Injection Volume	1
Injection Count	1
Bar Code	

[Original Files]
Data File	C:\Users\User\Desktop\GC Analyses\Jack\Nachusa Grasslands Sampling\T0 Timepoint July 12th\T0_07122022_047.gcd
Method File	C:\LabSolutions\Data\GHG_4min_2022\ghg3_togas_w_acet_4 min_new_int.gcm
Batch File	C:\LabSolutions\Data\AutoSamplerTesting\T0_07122022.gcb
Report Format File	c:\LabSolutions\System\DEFAULT.lsr

[File Description]


[Configuration]
Instrument Name	C0B7VH3-Instrument1
Instrument #	1
Line #	1
# of Detectors	3
Detector ID	DET#1	DET#2	DET#3
Detector Name	FID	PTCD	ECD
# of Channels	1	1	1

[Peak Table(Ch1)]
# of Peaks	3
Peak#	R.Time	I.Time	F.Time	Area	Height	A/H	Conc.	Mark	ID#	Name	k'	Plate #	Plate Ht.	Tailing	Resolution	Sep.Factor	Area Ratio	Height Ratio	Conc. %	Norm Conc.
1	1.483	1.439	1.531	2299	683	3.368	16.233	   	1	CO	0.000	4936	30.389	0.000	0.000	0.000	0	0	1.822	1.822
2	1.567	1.531	1.641	19138	9555	2.003	370.059	 V 	2	CH4	0.057	11278	13.300	1.268	1.176	0.000	0	0	41.529	41.529
3	1.996	1.938	2.623	2011368	944859	2.129	504.799	   	3	CO2	0.346	17118	8.763	1.307	7.146	6.087	0	0	56.650	56.650

[Peak Table(Ch2)]
# of Peaks	0

[Peak Table(Ch3)]
# of Peaks	5
Peak#	R.Time	I.Time	F.Time	Area	Height	A/H	Conc.	Mark	ID#	Name	k'	Plate #	Plate Ht.	Tailing	Resolution	Sep.Factor	Area Ratio	Height Ratio	Conc. %	Norm Conc.
1	2.462	2.169	2.521	2479	410	6.044	0.000	   			0.000	4600	32.608	0.000	0.000	0.000	0	0	0.000	0.000
2	2.554	2.521	2.634	1293	265	4.876	0.000	 V 			0.037	2222	67.509	0.000	0.507	0.000	0	0	0.000	0.000
3	2.873	2.645	3.243	58195	14295	4.071	1.486	S  	1	N2O	0.167	12563	11.940	1.644	1.999	4.480	0	0	100.000	100.000
4	3.232	3.199	3.243	79	51	1.553	0.000	T  	2	SF6	0.313	67436	2.224	0.663	4.719	1.875	0	0	0.000	0.000
5	3.401	3.247	3.995	12816	575	22.300	0.000	   	2	SF6	0.381	445	337.433	2.347	0.485	1.219	0	0	0.000	0.000

[Compound Results(Ch1)]
# of IDs	6
ID#	Name	R.Time	Area	Height	Conc.	Curve	3rd	2nd	1st	Constant	Area Ratio	Height Ratio	Conc. %	Norm Conc.
1	CO	1.483	2299	683	16.233	Linear	0.000000e+00	0.000000e+00	1.416423e+002	0.000000e+00	0	0	1.822	1.822
2	CH4	1.567	19138	9555	370.059	Linear	0.000000e+00	0.000000e+00	5.171738e+001	0.000000e+00	0	0	41.529	41.529
3	CO2	1.996	2011368	944859	504.799	Linear	0.000000e+00	0.000000e+00	3.984494e+003	0.000000e+00	0	0	56.650	56.650
4	Ethylene	0.000	0	0	0.000	Linear	0.000000e+00	0.000000e+00	0.000000e+00	0.000000e+00	0	0	0.000	0.000
5	Acetylene	0.000	0	0	0.000	Linear	0.000000e+00	0.000000e+00	0.000000e+00	0.000000e+00	0	0	0.000	0.000
6	Ethane	0.000	0	0	0.000	Linear	0.000000e+00	0.000000e+00	0.000000e+00	0.000000e+00	0	0	0.000	0.000

[Compound Results(Ch2)]
# of IDs	5
ID#	Name	R.Time	Area	Height	Conc.	Curve	3rd	2nd	1st	Constant	Area Ratio	Height Ratio	Conc. %	Norm Conc.
1	Hydrogen	0.000	0	0	0.000	Linear	0.000000e+00	0.000000e+00	0.000000e+00	0.000000e+00	0	0	0.000	0.000
2	Oxygen	0.000	0	0	0.000	Linear	0.000000e+00	0.000000e+00	0.000000e+00	0.000000e+00	0	0	0.000	0.000
3	Nitrogen	0.000	0	0	0.000	Linear	0.000000e+00	0.000000e+00	0.000000e+00	0.000000e+00	0	0	0.000	0.000
4	Methane	0.000	0	0	0.000	Linear	0.000000e+00	0.000000e+00	0.000000e+00	0.000000e+00	0	0	0.000	0.000
5	Carbon Monoxide	0.000	0	0	0.000	Linear	0.000000e+00	0.000000e+00	0.000000e+00	0.000000e+00	0	0	0.000	0.000

[Compound Results(Ch3)]
# of IDs	2
ID#	Name	R.Time	Area	Height	Conc.	Curve	3rd	2nd	1st	Constant	Area Ratio	Height Ratio	Conc. %	Norm Conc.
1	N2O	2.873	58195	14295	1.486	Linear	0.000000e+00	0.000000e+00	3.915173e+004	0.000000e+00	0	0	100.000	100.000
2	SF6	3.401	12894	625	0.000	Linear	0.000000e+00	0.000000e+00	0.000000e+00	0.000000e+00	0	0	0.000	0.000

[Group Results(Ch1)]
# of Groups	0

[Group Results(Ch2)]
# of Groups	0

[Group Results(Ch3)]
# of Groups	0

[Chromatogram (Ch1)]
Interval(msec)	220
# of Points	1091
Start Time(min)	0.002
End Time(min)	3.998
R.Time (min)	Intensity
0.00167	-10
0.00533	-9
0.00900	-9
0.01267	-12
0.01633	-14
0.02000	-11
0.02367	-6
0.02733	-0
0.03100	5
0.03467	7
0.03833	7
0.04200	6
0.04567	7
0.04933	9
0.05300	8
0.05667	2
0.06033	-6
0.06400	-12
0.06767	-14
0.07133	-15
0.07500	-14
0.07867	-11
0.08233	-7
0.08600	-4
0.08967	-2
0.09333	-0
0.09700	3
0.10067	11
0.10433	17
0.10800	21
0.11167	21
0.11533	21
0.11900	20
0.12267	13
0.12633	-1
0.13000	-18
0.13367	-33
0.13733	-43
0.14100	-49
0.14467	-46
0.14833	-36
0.15200	-26
0.15567	-19
0.15933	-13
0.16300	-6
0.16667	2
0.17033	5
0.17400	5
0.17767	1
0.18133	-2
0.18500	-1
0.18867	2
0.19233	2
0.19600	1
0.19967	3
0.20333	4
0.20700	4
0.21067	0
0.21433	-8
0.21800	-14
0.22167	-14
0.22533	-6
0.22900	3
0.23267	8
0.23633	7
0.24000	3
0.24367	-4
0.24733	-12
0.25100	-18
0.25467	-22
0.25833	-21
0.26200	-16
0.26567	-9
0.26933	-2
0.27300	8
0.27667	19
0.28033	28
0.28400	31
0.28767	29
0.29133	27
0.29500	21
0.29867	13
0.30233	4
0.30600	-2
0.30967	-4
0.31333	0
0.31700	8
0.32067	16
0.32433	22
0.32800	27
0.33167	33
0.33533	39
0.33900	45
0.34267	50
0.34633	56
0.35000	67
0.35367	83
0.35733	97
0.36100	104
0.36467	98
0.36833	86
0.37200	75
0.37567	68
0.37933	66
0.38300	66
0.38667	65
0.39033	63
0.39400	61
0.39767	59
0.40133	59
0.40500	61
0.40867	66
0.41233	71
0.41600	75
0.41967	77
0.42333	78
0.42700	78
0.43067	77
0.43433	77
0.43800	78
0.44167	79
0.44533	78
0.44900	77
0.45267	75
0.45633	70
0.46000	64
0.46367	60
0.46733	59
0.47100	60
0.47467	56
0.47833	46
0.48200	38
0.48567	36
0.48933	35
0.49300	30
0.49667	24
0.50033	18
0.50400	14
0.50767	9
0.51133	1
0.51500	-4
0.51867	-6
0.52233	-6
0.52600	-4
0.52967	-2
0.53333	-1
0.53700	-0
0.54067	1
0.54433	3
0.54800	2
0.55167	2
0.55533	1
0.55900	4
0.56267	7
0.56633	10
0.57000	11
0.57367	8
0.57733	-2
0.58100	-12
0.58467	-18
0.58833	-19
0.59200	-17
0.59567	-16
0.59933	-12
0.60300	-5
0.60667	3
0.61033	8
0.61400	9
0.61767	4
0.62133	-4
0.62500	-12
0.62867	-21
0.63233	-28
0.63600	-34
0.63967	-35
0.64333	-33
0.64700	-33
0.65067	-32
0.65433	-31
0.65800	-28
0.66167	-25
0.66533	-21
0.66900	-19
0.67267	-19
0.67633	-23
0.68000	-27
0.68367	-28
0.68733	-23
0.69100	-15
0.69467	-6
0.69833	2
0.70200	6
0.70567	7
0.70933	4
0.71300	-5
0.71667	-15
0.72033	-22
0.72400	-27
0.72767	-29
0.73133	-27
0.73500	-23
0.73867	-19
0.74233	-18
0.74600	-16
0.74967	-15
0.75333	-13
0.75700	-11
0.76067	-13
0.76433	-11
0.76800	-5
0.77167	-4
0.77533	-11
0.77900	-22
0.78267	-30
0.78633	-31
0.79000	-29
0.79367	-25
0.79733	-18
0.80100	-11
0.80467	-9
0.80833	-14
0.81200	-22
0.81567	-26
0.81933	-27
0.82300	-25
0.82667	-21
0.83033	-17
0.83400	-14
0.83767	-14
0.84133	-12
0.84500	-11
0.84867	-12
0.85233	-13
0.85600	-14
0.85967	-14
0.86333	-18
0.86700	-26
0.87067	-32
0.87433	-34
0.87800	-35
0.88167	-33
0.88533	-27
0.88900	-23
0.89267	-21
0.89633	-17
0.90000	-11
0.90367	-4
0.90733	-2
0.91100	-4
0.91467	-9
0.91833	-14
0.92200	-17
0.92567	-17
0.92933	-16
0.93300	-18
0.93667	-22
0.94033	-26
0.94400	-31
0.94767	-33
0.95133	-32
0.95500	-31
0.95867	-30
0.96233	-28
0.96600	-23
0.96967	-18
0.97333	-16
0.97700	-18
0.98067	-20
0.98433	-21
0.98800	-22
0.99167	-18
0.99533	-11
0.99900	-5
1.00267	-2
1.00633	-3
1.01000	-9
1.01367	-15
1.01733	-20
1.02100	-23
1.02467	-26
1.02833	-29
1.03200	-31
1.03567	-34
1.03933	-37
1.04300	-38
1.04667	-36
1.05033	-34
1.05400	-34
1.05767	-32
1.06133	-29
1.06500	-24
1.06867	-20
1.07233	-13
1.07600	-5
1.07967	0
1.08333	0
1.08700	-2
1.09067	-5
1.09433	-12
1.09800	-21
1.10167	-29
1.10533	-32
1.10900	-30
1.11267	-28
1.11633	-27
1.12000	-24
1.12367	-22
1.12733	-19
1.13100	-15
1.13467	-9
1.13833	-4
1.14200	-3
1.14567	-5
1.14933	-8
1.15300	-9
1.15667	-12
1.16033	-14
1.16400	-16
1.16767	-20
1.17133	-25
1.17500	-28
1.17867	-25
1.18233	-21
1.18600	-21
1.18967	-22
1.19333	-21
1.19700	-16
1.20067	-11
1.20433	-8
1.20800	-5
1.21167	0
1.21533	10
1.21900	18
1.22267	22
1.22633	22
1.23000	21
1.23367	25
1.23733	30
1.24100	33
1.24467	35
1.24833	34
1.25200	33
1.25567	33
1.25933	34
1.26300	35
1.26667	36
1.27033	36
1.27400	37
1.27767	38
1.28133	38
1.28500	35
1.28867	30
1.29233	28
1.29600	27
1.29967	29
1.30333	29
1.30700	27
1.31067	23
1.31433	19
1.31800	20
1.32167	28
1.32533	38
1.32900	42
1.33267	43
1.33633	45
1.34000	46
1.34367	42
1.34733	34
1.35100	23
1.35467	12
1.35833	4
1.36200	3
1.36567	6
1.36933	10
1.37300	14
1.37667	16
1.38033	16
1.38400	14
1.38767	14
1.39133	19
1.39500	23
1.39867	26
1.40233	28
1.40600	30
1.40967	32
1.41333	36
1.41700	41
1.42067	46
1.42433	49
1.42800	47
1.43167	41
1.43533	34
1.43900	48
1.44267	126
1.44633	281
1.45000	443
1.45367	566
1.45733	637
1.46100	667
1.46467	671
1.46833	671
1.47200	681
1.47567	701
1.47933	722
1.48300	731
1.48667	715
1.49033	672
1.49400	610
1.49767	538
1.50133	460
1.50500	385
1.50867	321
1.51233	267
1.51600	222
1.51967	184
1.52333	156
1.52700	135
1.53067	122
1.53433	122
1.53800	181
1.54167	465
1.54533	1247
1.54900	2659
1.55267	4482
1.55633	6315
1.56000	7863
1.56367	8989
1.56733	9603
1.57100	9572
1.57467	8833
1.57833	7525
1.58200	5960
1.58567	4447
1.58933	3174
1.59300	2192
1.59667	1482
1.60033	992
1.60400	662
1.60767	447
1.61133	310
1.61500	223
1.61867	166
1.62233	130
1.62600	105
1.62967	86
1.63333	70
1.63700	57
1.64067	49
1.64433	47
1.64800	47
1.65167	47
1.65533	49
1.65900	51
1.66267	53
1.66633	52
1.67000	47
1.67367	41
1.67733	32
1.68100	25
1.68467	23
1.68833	24
1.69200	25
1.69567	26
1.69933	28
1.70300	35
1.70667	44
1.71033	50
1.71400	48
1.71767	40
1.72133	31
1.72500	28
1.72867	27
1.73233	30
1.73600	33
1.73967	34
1.74333	35
1.74700	35
1.75067	34
1.75433	35
1.75800	36
1.76167	35
1.76533	32
1.76900	29
1.77267	24
1.77633	17
1.78000	14
1.78367	16
1.78733	20
1.79100	23
1.79467	24
1.79833	25
1.80200	27
1.80567	26
1.80933	25
1.81300	29
1.81667	37
1.82033	45
1.82400	50
1.82767	48
1.83133	45
1.83500	44
1.83867	45
1.84233	49
1.84600	53
1.84967	54
1.85333	52
1.85700	50
1.86067	49
1.86433	48
1.86800	41
1.87167	32
1.87533	25
1.87900	22
1.88267	23
1.88633	29
1.89000	33
1.89367	34
1.89733	39
1.90100	45
1.90467	49
1.90833	52
1.91200	54
1.91567	57
1.91933	57
1.92300	53
1.92667	51
1.93033	54
1.93400	59
1.93767	64
1.94133	70
1.94500	77
1.94867	84
1.95233	105
1.95600	260
1.95967	1179
1.96333	5410
1.96700	20142
1.97067	59393
1.97433	140358
1.97800	271126
1.98167	440029
1.98533	619379
1.98900	777983
1.99267	891549
1.99633	944957
2.00000	932348
2.00367	859019
2.00733	741417
2.01100	602670
2.01467	465164
2.01833	344490
2.02200	247614
2.02567	174725
2.02933	122333
2.03300	85821
2.03667	60857
2.04033	43953
2.04400	32527
2.04767	24759
2.05133	19418
2.05500	15687
2.05867	13023
2.06233	11076
2.06600	9621
2.06967	8503
2.07333	7618
2.07700	6904
2.08067	6313
2.08433	5818
2.08800	5397
2.09167	5036
2.09533	4721
2.09900	4443
2.10267	4197
2.10633	3974
2.11000	3771
2.11367	3587
2.11733	3419
2.12100	3266
2.12467	3126
2.12833	2999
2.13200	2884
2.13567	2781
2.13933	2684
2.14300	2586
2.14667	2488
2.15033	2391
2.15400	2300
2.15767	2214
2.16133	2130
2.16500	2051
2.16867	1982
2.17233	1922
2.17600	1866
2.17967	1815
2.18333	1769
2.18700	1726
2.19067	1689
2.19433	1658
2.19800	1627
2.20167	1593
2.20533	1555
2.20900	1514
2.21267	1473
2.21633	1432
2.22000	1392
2.22367	1361
2.22733	1339
2.23100	1316
2.23467	1291
2.23833	1266
2.24200	1245
2.24567	1227
2.24933	1209
2.25300	1188
2.25667	1163
2.26033	1136
2.26400	1109
2.26767	1083
2.27133	1063
2.27500	1051
2.27867	1039
2.28233	1024
2.28600	1008
2.28967	997
2.29333	991
2.29700	984
2.30067	974
2.30433	958
2.30800	939
2.31167	924
2.31533	914
2.31900	907
2.32267	903
2.32633	895
2.33000	881
2.33367	863
2.33733	845
2.34100	828
2.34467	813
2.34833	800
2.35200	792
2.35567	785
2.35933	775
2.36300	766
2.36667	757
2.37033	748
2.37400	738
2.37767	729
2.38133	722
2.38500	715
2.38867	707
2.39233	702
2.39600	701
2.39967	704
2.40333	704
2.40700	700
2.41067	692
2.41433	682
2.41800	672
2.42167	664
2.42533	658
2.42900	655
2.43267	653
2.43633	649
2.44000	642
2.44367	632
2.44733	623
2.45100	617
2.45467	615
2.45833	614
2.46200	611
2.46567	608
2.46933	603
2.47300	600
2.47667	596
2.48033	595
2.48400	593
2.48767	588
2.49133	581
2.49500	570
2.49867	556
2.50233	542
2.50600	530
2.50967	523
2.51333	524
2.51700	530
2.52067	534
2.52433	534
2.52800	532
2.53167	530
2.53533	529
2.53900	527
2.54267	524
2.54633	521
2.55000	520
2.55367	518
2.55733	515
2.56100	509
2.56467	501
2.56833	494
2.57200	491
2.57567	486
2.57933	485
2.58300	487
2.58667	496
2.59033	504
2.59400	504
2.59767	498
2.60133	491
2.60500	486
2.60867	482
2.61233	479
2.61600	474
2.61967	468
2.62333	466
2.62700	463
2.63067	458
2.63433	455
2.63800	458
2.64167	460
2.64533	460
2.64900	462
2.65267	465
2.65633	467
2.66000	468
2.66367	468
2.66733	469
2.67100	469
2.67467	467
2.67833	462
2.68200	458
2.68567	454
2.68933	452
2.69300	453
2.69667	455
2.70033	455
2.70400	451
2.70767	442
2.71133	429
2.71500	415
2.71867	404
2.72233	399
2.72600	396
2.72967	395
2.73333	394
2.73700	390
2.74067	390
2.74433	392
2.74800	394
2.75167	402
2.75533	410
2.75900	417
2.76267	421
2.76633	423
2.77000	422
2.77367	419
2.77733	416
2.78100	414
2.78467	411
2.78833	405
2.79200	402
2.79567	404
2.79933	409
2.80300	413
2.80667	413
2.81033	409
2.81400	404
2.81767	400
2.82133	400
2.82500	401
2.82867	401
2.83233	398
2.83600	396
2.83967	398
2.84333	402
2.84700	407
2.85067	409
2.85433	408
2.85800	409
2.86167	410
2.86533	412
2.86900	412
2.87267	409
2.87633	404
2.88000	395
2.88367	387
2.88733	383
2.89100	381
2.89467	381
2.89833	383
2.90200	386
2.90567	388
2.90933	391
2.91300	392
2.91667	385
2.92033	376
2.92400	371
2.92767	370
2.93133	371
2.93500	373
2.93867	375
2.94233	376
2.94600	375
2.94967	372
2.95333	371
2.95700	370
2.96067	371
2.96433	373
2.96800	376
2.97167	381
2.97533	383
2.97900	379
2.98267	371
2.98633	364
2.99000	360
2.99367	360
2.99733	362
3.00100	365
3.00467	369
3.00833	372
3.01200	371
3.01567	368
3.01933	365
3.02300	365
3.02667	365
3.03033	364
3.03400	366
3.03767	368
3.04133	367
3.04500	367
3.04867	368
3.05233	368
3.05600	368
3.05967	364
3.06333	357
3.06700	354
3.07067	353
3.07433	352
3.07800	350
3.08167	346
3.08533	346
3.08900	348
3.09267	350
3.09633	350
3.10000	349
3.10367	350
3.10733	355
3.11100	356
3.11467	355
3.11833	354
3.12200	351
3.12567	344
3.12933	336
3.13300	332
3.13667	332
3.14033	340
3.14400	350
3.14767	357
3.15133	359
3.15500	356
3.15867	348
3.16233	338
3.16600	332
3.16967	332
3.17333	334
3.17700	333
3.18067	328
3.18433	323
3.18800	321
3.19167	323
3.19533	323
3.19900	323
3.20267	323
3.20633	324
3.21000	325
3.21367	325
3.21733	323
3.22100	325
3.22467	324
3.22833	320
3.23200	316
3.23567	312
3.23933	309
3.24300	306
3.24667	305
3.25033	304
3.25400	303
3.25767	300
3.26133	299
3.26500	302
3.26867	310
3.27233	318
3.27600	324
3.27967	325
3.28333	323
3.28700	322
3.29067	321
3.29433	319
3.29800	317
3.30167	315
3.30533	315
3.30900	316
3.31267	318
3.31633	318
3.32000	318
3.32367	319
3.32733	321
3.33100	324
3.33467	324
3.33833	321
3.34200	315
3.34567	308
3.34933	303
3.35300	303
3.35667	308
3.36033	314
3.36400	316
3.36767	310
3.37133	299
3.37500	293
3.37867	296
3.38233	300
3.38600	299
3.38967	296
3.39333	294
3.39700	295
3.40067	297
3.40433	299
3.40800	299
3.41167	298
3.41533	297
3.41900	293
3.42267	285
3.42633	275
3.43000	271
3.43367	274
3.43733	281
3.44100	288
3.44467	289
3.44833	286
3.45200	281
3.45567	280
3.45933	285
3.46300	292
3.46667	296
3.47033	295
3.47400	292
3.47767	291
3.48133	290
3.48500	288
3.48867	287
3.49233	289
3.49600	294
3.49967	304
3.50333	311
3.50700	314
3.51067	313
3.51433	306
3.51800	294
3.52167	280
3.52533	271
3.52900	262
3.53267	250
3.53633	240
3.54000	233
3.54367	233
3.54733	241
3.55100	251
3.55467	259
3.55833	264
3.56200	265
3.56567	261
3.56933	257
3.57300	253
3.57667	251
3.58033	253
3.58400	257
3.58767	263
3.59133	271
3.59500	280
3.59867	284
3.60233	284
3.60600	281
3.60967	273
3.61333	267
3.61700	260
3.62067	254
3.62433	251
3.62800	249
3.63167	247
3.63533	248
3.63900	253
3.64267	260
3.64633	263
3.65000	259
3.65367	251
3.65733	247
3.66100	250
3.66467	254
3.66833	257
3.67200	258
3.67567	255
3.67933	251
3.68300	246
3.68667	239
3.69033	231
3.69400	223
3.69767	219
3.70133	221
3.70500	227
3.70867	234
3.71233	241
3.71600	247
3.71967	249
3.72333	247
3.72700	241
3.73067	233
3.73433	227
3.73800	224
3.74167	224
3.74533	225
3.74900	226
3.75267	227
3.75633	231
3.76000	232
3.76367	234
3.76733	238
3.77100	243
3.77467	242
3.77833	235
3.78200	229
3.78567	226
3.78933	225
3.79300	224
3.79667	221
3.80033	217
3.80400	213
3.80767	212
3.81133	211
3.81500	209
3.81867	206
3.82233	206
3.82600	207
3.82967	210
3.83333	214
3.83700	216
3.84067	213
3.84433	205
3.84800	200
3.85167	200
3.85533	203
3.85900	204
3.86267	207
3.86633	211
3.87000	217
3.87367	221
3.87733	224
3.88100	225
3.88467	224
3.88833	223
3.89200	222
3.89567	221
3.89933	220
3.90300	218
3.90667	214
3.91033	214
3.91400	211
3.91767	207
3.92133	203
3.92500	202
3.92867	203
3.93233	202
3.93600	202
3.93967	204
3.94333	209
3.94700	215
3.95067	213
3.95433	204
3.95800	191
3.96167	180
3.96533	172
3.96900	168
3.97267	169
3.97633	171
3.98000	174
3.98367	177
3.98733	183
3.99100	189
3.99467	196
3.99833	202

[Chromatogram (Ch2)]
Interval(msec)	220
# of Points	1091
Start Time(min)	0.002
End Time(min)	3.998
R.Time (min)	Intensity
0.00167	1
0.00533	1
0.00900	1
0.01267	1
0.01633	2
0.02000	2
0.02367	2
0.02733	3
0.03100	3
0.03467	4
0.03833	4
0.04200	4
0.04567	5
0.04933	5
0.05300	5
0.05667	6
0.06033	6
0.06400	6
0.06767	6
0.07133	6
0.07500	6
0.07867	5
0.08233	5
0.08600	5
0.08967	5
0.09333	4
0.09700	4
0.10067	3
0.10433	3
0.10800	3
0.11167	2
0.11533	2
0.11900	2
0.12267	2
0.12633	2
0.13000	2
0.13367	1
0.13733	1
0.14100	1
0.14467	1
0.14833	1
0.15200	1
0.15567	1
0.15933	1
0.16300	2
0.16667	2
0.17033	2
0.17400	2
0.17767	3
0.18133	3
0.18500	3
0.18867	3
0.19233	4
0.19600	4
0.19967	4
0.20333	4
0.20700	3
0.21067	3
0.21433	3
0.21800	3
0.22167	4
0.22533	4
0.22900	4
0.23267	4
0.23633	4
0.24000	4
0.24367	5
0.24733	5
0.25100	5
0.25467	5
0.25833	5
0.26200	5
0.26567	5
0.26933	5
0.27300	5
0.27667	5
0.28033	5
0.28400	5
0.28767	4
0.29133	4
0.29500	4
0.29867	3
0.30233	3
0.30600	3
0.30967	3
0.31333	3
0.31700	3
0.32067	3
0.32433	3
0.32800	3
0.33167	3
0.33533	3
0.33900	4
0.34267	4
0.34633	4
0.35000	5
0.35367	5
0.35733	5
0.36100	5
0.36467	5
0.36833	5
0.37200	5
0.37567	6
0.37933	6
0.38300	6
0.38667	6
0.39033	5
0.39400	5
0.39767	5
0.40133	5
0.40500	5
0.40867	4
0.41233	4
0.41600	4
0.41967	4
0.42333	4
0.42700	4
0.43067	4
0.43433	4
0.43800	4
0.44167	4
0.44533	4
0.44900	4
0.45267	4
0.45633	3
0.46000	3
0.46367	3
0.46733	3
0.47100	2
0.47467	2
0.47833	2
0.48200	2
0.48567	2
0.48933	2
0.49300	2
0.49667	2
0.50033	2
0.50400	2
0.50767	1
0.51133	1
0.51500	1
0.51867	1
0.52233	2
0.52600	2
0.52967	2
0.53333	3
0.53700	3
0.54067	4
0.54433	4
0.54800	5
0.55167	5
0.55533	5
0.55900	6
0.56267	6
0.56633	5
0.57000	5
0.57367	4
0.57733	4
0.58100	3
0.58467	3
0.58833	2
0.59200	2
0.59567	1
0.59933	1
0.60300	1
0.60667	1
0.61033	1
0.61400	1
0.61767	0
0.62133	-0
0.62500	-0
0.62867	-1
0.63233	-1
0.63600	-1
0.63967	-1
0.64333	-1
0.64700	-2
0.65067	-1
0.65433	-1
0.65800	-1
0.66167	-1
0.66533	-0
0.66900	0
0.67267	1
0.67633	1
0.68000	1
0.68367	2
0.68733	2
0.69100	2
0.69467	2
0.69833	3
0.70200	3
0.70567	3
0.70933	4
0.71300	4
0.71667	4
0.72033	3
0.72400	3
0.72767	3
0.73133	2
0.73500	2
0.73867	2
0.74233	2
0.74600	2
0.74967	2
0.75333	2
0.75700	2
0.76067	2
0.76433	2
0.76800	1
0.77167	1
0.77533	1
0.77900	1
0.78267	1
0.78633	1
0.79000	1
0.79367	2
0.79733	2
0.80100	2
0.80467	3
0.80833	3
0.81200	3
0.81567	4
0.81933	4
0.82300	4
0.82667	4
0.83033	4
0.83400	4
0.83767	4
0.84133	4
0.84500	3
0.84867	3
0.85233	3
0.85600	3
0.85967	2
0.86333	2
0.86700	2
0.87067	2
0.87433	2
0.87800	2
0.88167	2
0.88533	2
0.88900	2
0.89267	2
0.89633	2
0.90000	2
0.90367	2
0.90733	2
0.91100	2
0.91467	2
0.91833	2
0.92200	2
0.92567	2
0.92933	2
0.93300	1
0.93667	1
0.94033	1
0.94400	0
0.94767	-0
0.95133	-0
0.95500	-1
0.95867	-1
0.96233	-1
0.96600	-1
0.96967	-1
0.97333	-1
0.97700	-1
0.98067	-1
0.98433	-1
0.98800	-1
0.99167	-1
0.99533	-1
0.99900	-1
1.00267	-0
1.00633	-0
1.01000	-0
1.01367	0
1.01733	0
1.02100	0
1.02467	1
1.02833	1
1.03200	1
1.03567	1
1.03933	1
1.04300	2
1.04667	2
1.05033	2
1.05400	3
1.05767	3
1.06133	3
1.06500	3
1.06867	3
1.07233	3
1.07600	3
1.07967	3
1.08333	3
1.08700	3
1.09067	3
1.09433	4
1.09800	4
1.10167	4
1.10533	4
1.10900	4
1.11267	4
1.11633	4
1.12000	3
1.12367	3
1.12733	3
1.13100	3
1.13467	3
1.13833	3
1.14200	2
1.14567	2
1.14933	2
1.15300	2
1.15667	1
1.16033	1
1.16400	0
1.16767	0
1.17133	-0
1.17500	-1
1.17867	-1
1.18233	-1
1.18600	-2
1.18967	-2
1.19333	-3
1.19700	-3
1.20067	-3
1.20433	-3
1.20800	-3
1.21167	-3
1.21533	-2
1.21900	-2
1.22267	-1
1.22633	-1
1.23000	-1
1.23367	-0
1.23733	-0
1.24100	0
1.24467	0
1.24833	0
1.25200	0
1.25567	0
1.25933	0
1.26300	0
1.26667	0
1.27033	0
1.27400	0
1.27767	-0
1.28133	-0
1.28500	-0
1.28867	-1
1.29233	-1
1.29600	-2
1.29967	-2
1.30333	-3
1.30700	-3
1.31067	-3
1.31433	-3
1.31800	-4
1.32167	-4
1.32533	-4
1.32900	-3
1.33267	-3
1.33633	-3
1.34000	-3
1.34367	-3
1.34733	-2
1.35100	-2
1.35467	-2
1.35833	-2
1.36200	-2
1.36567	-2
1.36933	-1
1.37300	-1
1.37667	-1
1.38033	-1
1.38400	-1
1.38767	-1
1.39133	-1
1.39500	-1
1.39867	-1
1.40233	-1
1.40600	-0
1.40967	-0
1.41333	-0
1.41700	0
1.42067	0
1.42433	0
1.42800	0
1.43167	1
1.43533	1
1.43900	1
1.44267	1
1.44633	1
1.45000	1
1.45367	1
1.45733	1
1.46100	1
1.46467	1
1.46833	1
1.47200	2
1.47567	2
1.47933	2
1.48300	2
1.48667	3
1.49033	3
1.49400	3
1.49767	3
1.50133	3
1.50500	3
1.50867	3
1.51233	3
1.51600	2
1.51967	2
1.52333	2
1.52700	2
1.53067	1
1.53433	1
1.53800	1
1.54167	1
1.54533	1
1.54900	1
1.55267	1
1.55633	1
1.56000	1
1.56367	1
1.56733	1
1.57100	2
1.57467	1
1.57833	1
1.58200	1
1.58567	2
1.58933	2
1.59300	1
1.59667	1
1.60033	-0
1.60400	-1
1.60767	-3
1.61133	-5
1.61500	-7
1.61867	-9
1.62233	-12
1.62600	-15
1.62967	-18
1.63333	-22
1.63700	-25
1.64067	-29
1.64433	-32
1.64800	-36
1.65167	-40
1.65533	-44
1.65900	-47
1.66267	-51
1.66633	-55
1.67000	-60
1.67367	-64
1.67733	-69
1.68100	-74
1.68467	-79
1.68833	-83
1.69200	-88
1.69567	-92
1.69933	-95
1.70300	-98
1.70667	-100
1.71033	-102
1.71400	-104
1.71767	-105
1.72133	-106
1.72500	-107
1.72867	-107
1.73233	-108
1.73600	-109
1.73967	-110
1.74333	-111
1.74700	-112
1.75067	-113
1.75433	-114
1.75800	-115
1.76167	-115
1.76533	-115
1.76900	-115
1.77267	-114
1.77633	-113
1.78000	-112
1.78367	-112
1.78733	-111
1.79100	-111
1.79467	-112
1.79833	-112
1.80200	-113
1.80567	-113
1.80933	-113
1.81300	-113
1.81667	-114
1.82033	-114
1.82400	-113
1.82767	-113
1.83133	-113
1.83500	-114
1.83867	-114
1.84233	-115
1.84600	-115
1.84967	-116
1.85333	-116
1.85700	-116
1.86067	-116
1.86433	-116
1.86800	-116
1.87167	-116
1.87533	-116
1.87900	-116
1.88267	-116
1.88633	-116
1.89000	-116
1.89367	-116
1.89733	-115
1.90100	-114
1.90467	-113
1.90833	-112
1.91200	-112
1.91567	-112
1.91933	-112
1.92300	-112
1.92667	-112
1.93033	-112
1.93400	-112
1.93767	-112
1.94133	-112
1.94500	-112
1.94867	-112
1.95233	-111
1.95600	-111
1.95967	-111
1.96333	-110
1.96700	-110
1.97067	-110
1.97433	-109
1.97800	-109
1.98167	-108
1.98533	-108
1.98900	-108
1.99267	-108
1.99633	-108
2.00000	-107
2.00367	-107
2.00733	-107
2.01100	-106
2.01467	-106
2.01833	-105
2.02200	-104
2.02567	-104
2.02933	-104
2.03300	-104
2.03667	-104
2.04033	-104
2.04400	-104
2.04767	-104
2.05133	-105
2.05500	-105
2.05867	-104
2.06233	-104
2.06600	-103
2.06967	-102
2.07333	-101
2.07700	-101
2.08067	-101
2.08433	-101
2.08800	-101
2.09167	-101
2.09533	-100
2.09900	-100
2.10267	-100
2.10633	-99
2.11000	-100
2.11367	-100
2.11733	-100
2.12100	-101
2.12467	-101
2.12833	-101
2.13200	-101
2.13567	-100
2.13933	-99
2.14300	-98
2.14667	-98
2.15033	-97
2.15400	-96
2.15767	-96
2.16133	-96
2.16500	-96
2.16867	-96
2.17233	-95
2.17600	-95
2.17967	-94
2.18333	-93
2.18700	-92
2.19067	-92
2.19433	-92
2.19800	-92
2.20167	-92
2.20533	-92
2.20900	-91
2.21267	-91
2.21633	-91
2.22000	-91
2.22367	-91
2.22733	-91
2.23100	-90
2.23467	-90
2.23833	-89
2.24200	-89
2.24567	-89
2.24933	-88
2.25300	-88
2.25667	-88
2.26033	-87
2.26400	-86
2.26767	-85
2.27133	-84
2.27500	-84
2.27867	-84
2.28233	-83
2.28600	-83
2.28967	-83
2.29333	-83
2.29700	-83
2.30067	-83
2.30433	-83
2.30800	-83
2.31167	-83
2.31533	-83
2.31900	-83
2.32267	-83
2.32633	-82
2.33000	-82
2.33367	-81
2.33733	-80
2.34100	-80
2.34467	-79
2.34833	-77
2.35200	-76
2.35567	-74
2.35933	-73
2.36300	-71
2.36667	-69
2.37033	-67
2.37400	-64
2.37767	-61
2.38133	-58
2.38500	-54
2.38867	-51
2.39233	-47
2.39600	-43
2.39967	-39
2.40333	-35
2.40700	-32
2.41067	-29
2.41433	-26
2.41800	-23
2.42167	-21
2.42533	-19
2.42900	-17
2.43267	-15
2.43633	-13
2.44000	-11
2.44367	-10
2.44733	-8
2.45100	-6
2.45467	-5
2.45833	-3
2.46200	-1
2.46567	-0
2.46933	1
2.47300	3
2.47667	4
2.48033	5
2.48400	6
2.48767	7
2.49133	8
2.49500	9
2.49867	9
2.50233	10
2.50600	10
2.50967	11
2.51333	12
2.51700	12
2.52067	13
2.52433	13
2.52800	14
2.53167	14
2.53533	14
2.53900	14
2.54267	14
2.54633	14
2.55000	15
2.55367	15
2.55733	16
2.56100	17
2.56467	17
2.56833	17
2.57200	17
2.57567	17
2.57933	17
2.58300	18
2.58667	18
2.59033	18
2.59400	19
2.59767	19
2.60133	20
2.60500	20
2.60867	20
2.61233	20
2.61600	20
2.61967	20
2.62333	20
2.62700	20
2.63067	20
2.63433	21
2.63800	22
2.64167	22
2.64533	23
2.64900	23
2.65267	23
2.65633	23
2.66000	24
2.66367	24
2.66733	24
2.67100	24
2.67467	25
2.67833	25
2.68200	25
2.68567	25
2.68933	25
2.69300	24
2.69667	24
2.70033	24
2.70400	25
2.70767	25
2.71133	26
2.71500	26
2.71867	26
2.72233	27
2.72600	27
2.72967	27
2.73333	28
2.73700	28
2.74067	28
2.74433	29
2.74800	29
2.75167	29
2.75533	30
2.75900	30
2.76267	31
2.76633	31
2.77000	31
2.77367	30
2.77733	29
2.78100	28
2.78467	27
2.78833	26
2.79200	26
2.79567	25
2.79933	25
2.80300	25
2.80667	25
2.81033	26
2.81400	26
2.81767	27
2.82133	27
2.82500	27
2.82867	27
2.83233	27
2.83600	25
2.83967	23
2.84333	19
2.84700	13
2.85067	3
2.85433	-10
2.85800	-28
2.86167	-50
2.86533	-78
2.86900	-110
2.87267	-148
2.87633	-190
2.88000	-238
2.88367	-291
2.88733	-348
2.89100	-409
2.89467	-474
2.89833	-542
2.90200	-613
2.90567	-687
2.90933	-763
2.91300	-842
2.91667	-923
2.92033	-1006
2.92400	-1090
2.92767	-1175
2.93133	-1263
2.93500	-1351
2.93867	-1430
2.94233	-1487
2.94600	-1512
2.94967	-1502
2.95333	-1458
2.95700	-1387
2.96067	-1296
2.96433	-1193
2.96800	-1084
2.97167	-975
2.97533	-868
2.97900	-768
2.98267	-674
2.98633	-589
2.99000	-512
2.99367	-443
2.99733	-382
3.00100	-328
3.00467	-281
3.00833	-240
3.01200	-204
3.01567	-173
3.01933	-146
3.02300	-123
3.02667	-104
3.03033	-87
3.03400	-73
3.03767	-61
3.04133	-50
3.04500	-42
3.04867	-34
3.05233	-28
3.05600	-22
3.05967	-18
3.06333	-13
3.06700	-10
3.07067	-7
3.07433	-4
3.07800	-1
3.08167	1
3.08533	3
3.08900	5
3.09267	6
3.09633	7
3.10000	8
3.10367	9
3.10733	9
3.11100	10
3.11467	11
3.11833	11
3.12200	12
3.12567	13
3.12933	13
3.13300	14
3.13667	14
3.14033	14
3.14400	15
3.14767	16
3.15133	16
3.15500	17
3.15867	18
3.16233	18
3.16600	19
3.16967	19
3.17333	20
3.17700	20
3.18067	21
3.18433	22
3.18800	22
3.19167	22
3.19533	22
3.19900	23
3.20267	23
3.20633	23
3.21000	23
3.21367	24
3.21733	24
3.22100	24
3.22467	24
3.22833	24
3.23200	24
3.23567	24
3.23933	24
3.24300	24
3.24667	25
3.25033	25
3.25400	25
3.25767	26
3.26133	26
3.26500	26
3.26867	27
3.27233	27
3.27600	27
3.27967	27
3.28333	27
3.28700	27
3.29067	27
3.29433	27
3.29800	27
3.30167	27
3.30533	28
3.30900	28
3.31267	28
3.31633	29
3.32000	29
3.32367	29
3.32733	29
3.33100	29
3.33467	29
3.33833	30
3.34200	30
3.34567	30
3.34933	30
3.35300	30
3.35667	30
3.36033	29
3.36400	29
3.36767	29
3.37133	29
3.37500	29
3.37867	29
3.38233	29
3.38600	29
3.38967	29
3.39333	28
3.39700	28
3.40067	28
3.40433	28
3.40800	27
3.41167	27
3.41533	26
3.41900	26
3.42267	26
3.42633	26
3.43000	26
3.43367	26
3.43733	26
3.44100	27
3.44467	27
3.44833	27
3.45200	28
3.45567	28
3.45933	28
3.46300	28
3.46667	28
3.47033	28
3.47400	28
3.47767	28
3.48133	28
3.48500	27
3.48867	27
3.49233	27
3.49600	27
3.49967	26
3.50333	26
3.50700	26
3.51067	26
3.51433	26
3.51800	26
3.52167	26
3.52533	27
3.52900	27
3.53267	27
3.53633	27
3.54000	27
3.54367	28
3.54733	28
3.55100	28
3.55467	28
3.55833	27
3.56200	27
3.56567	27
3.56933	27
3.57300	27
3.57667	27
3.58033	27
3.58400	27
3.58767	27
3.59133	27
3.59500	27
3.59867	27
3.60233	27
3.60600	27
3.60967	28
3.61333	28
3.61700	28
3.62067	28
3.62433	28
3.62800	28
3.63167	28
3.63533	28
3.63900	28
3.64267	28
3.64633	28
3.65000	28
3.65367	28
3.65733	28
3.66100	28
3.66467	28
3.66833	27
3.67200	27
3.67567	27
3.67933	28
3.68300	28
3.68667	27
3.69033	27
3.69400	27
3.69767	27
3.70133	27
3.70500	27
3.70867	28
3.71233	28
3.71600	28
3.71967	28
3.72333	29
3.72700	29
3.73067	29
3.73433	29
3.73800	29
3.74167	30
3.74533	30
3.74900	30
3.75267	30
3.75633	31
3.76000	31
3.76367	31
3.76733	31
3.77100	31
3.77467	31
3.77833	31
3.78200	31
3.78567	31
3.78933	31
3.79300	31
3.79667	31
3.80033	31
3.80400	31
3.80767	31
3.81133	30
3.81500	30
3.81867	30
3.82233	30
3.82600	30
3.82967	30
3.83333	30
3.83700	30
3.84067	29
3.84433	29
3.84800	29
3.85167	29
3.85533	29
3.85900	29
3.86267	29
3.86633	29
3.87000	30
3.87367	30
3.87733	30
3.88100	30
3.88467	30
3.88833	30
3.89200	30
3.89567	30
3.89933	30
3.90300	30
3.90667	29
3.91033	29
3.91400	29
3.91767	29
3.92133	29
3.92500	29
3.92867	29
3.93233	29
3.93600	29
3.93967	30
3.94333	30
3.94700	30
3.95067	30
3.95433	30
3.95800	30
3.96167	30
3.96533	30
3.96900	30
3.97267	30
3.97633	30
3.98000	30
3.98367	30
3.98733	30
3.99100	30
3.99467	30
3.99833	29

[Chromatogram (Ch3)]
Interval(msec)	220
# of Points	1091
Start Time(min)	0.002
End Time(min)	3.998
R.Time (min)	Intensity
0.00167	0
0.00533	2
0.00900	2
0.01267	1
0.01633	1
0.02000	2
0.02367	2
0.02733	1
0.03100	-1
0.03467	-3
0.03833	-4
0.04200	-3
0.04567	-1
0.04933	-2
0.05300	-4
0.05667	-4
0.06033	-1
0.06400	1
0.06767	3
0.07133	3
0.07500	2
0.07867	1
0.08233	-0
0.08600	-1
0.08967	-0
0.09333	-1
0.09700	-3
0.10067	-4
0.10433	-4
0.10800	-2
0.11167	-4
0.11533	-7
0.11900	-8
0.12267	-7
0.12633	-5
0.13000	-5
0.13367	-6
0.13733	-8
0.14100	-8
0.14467	-8
0.14833	-8
0.15200	-7
0.15567	-8
0.15933	-9
0.16300	-10
0.16667	-8
0.17033	-6
0.17400	-5
0.17767	-5
0.18133	-5
0.18500	-6
0.18867	-7
0.19233	-8
0.19600	-9
0.19967	-7
0.20333	-7
0.20700	-9
0.21067	-10
0.21433	-11
0.21800	-11
0.22167	-8
0.22533	-7
0.22900	-6
0.23267	-4
0.23633	-4
0.24000	-7
0.24367	-9
0.24733	-8
0.25100	-7
0.25467	-4
0.25833	-3
0.26200	-3
0.26567	-3
0.26933	-2
0.27300	-2
0.27667	-1
0.28033	-1
0.28400	-2
0.28767	-2
0.29133	-2
0.29500	-1
0.29867	1
0.30233	3
0.30600	4
0.30967	5
0.31333	7
0.31700	7
0.32067	5
0.32433	5
0.32800	4
0.33167	3
0.33533	2
0.33900	1
0.34267	1
0.34633	2
0.35000	4
0.35367	7
0.35733	7
0.36100	5
0.36467	5
0.36833	5
0.37200	5
0.37567	2
0.37933	2
0.38300	4
0.38667	4
0.39033	5
0.39400	5
0.39767	7
0.40133	8
0.40500	7
0.40867	6
0.41233	4
0.41600	3
0.41967	3
0.42333	3
0.42700	3
0.43067	3
0.43433	3
0.43800	4
0.44167	4
0.44533	4
0.44900	3
0.45267	3
0.45633	5
0.46000	4
0.46367	3
0.46733	2
0.47100	-1
0.47467	-1
0.47833	1
0.48200	3
0.48567	6
0.48933	6
0.49300	5
0.49667	2
0.50033	1
0.50400	1
0.50767	2
0.51133	4
0.51500	3
0.51867	1
0.52233	-1
0.52600	-1
0.52967	0
0.53333	1
0.53700	1
0.54067	1
0.54433	2
0.54800	2
0.55167	3
0.55533	4
0.55900	6
0.56267	7
0.56633	7
0.57000	5
0.57367	4
0.57733	5
0.58100	7
0.58467	9
0.58833	9
0.59200	10
0.59567	10
0.59933	10
0.60300	7
0.60667	4
0.61033	3
0.61400	1
0.61767	-1
0.62133	-1
0.62500	-0
0.62867	-1
0.63233	-1
0.63600	0
0.63967	2
0.64333	3
0.64700	2
0.65067	-1
0.65433	-2
0.65800	-2
0.66167	-0
0.66533	-1
0.66900	-0
0.67267	2
0.67633	3
0.68000	4
0.68367	4
0.68733	4
0.69100	2
0.69467	2
0.69833	2
0.70200	1
0.70567	1
0.70933	2
0.71300	3
0.71667	3
0.72033	3
0.72400	3
0.72767	3
0.73133	4
0.73500	5
0.73867	7
0.74233	7
0.74600	6
0.74967	4
0.75333	2
0.75700	1
0.76067	0
0.76433	1
0.76800	1
0.77167	1
0.77533	1
0.77900	2
0.78267	2
0.78633	3
0.79000	2
0.79367	1
0.79733	2
0.80100	2
0.80467	1
0.80833	1
0.81200	3
0.81567	5
0.81933	5
0.82300	6
0.82667	4
0.83033	-0
0.83400	-3
0.83767	-4
0.84133	-4
0.84500	-3
0.84867	-5
0.85233	-6
0.85600	-5
0.85967	-3
0.86333	-1
0.86700	-2
0.87067	-2
0.87433	-3
0.87800	-3
0.88167	-2
0.88533	-2
0.88900	-1
0.89267	-1
0.89633	0
0.90000	2
0.90367	1
0.90733	-0
0.91100	-0
0.91467	-1
0.91833	-1
0.92200	-1
0.92567	-0
0.92933	2
0.93300	3
0.93667	0
0.94033	-3
0.94400	-4
0.94767	-3
0.95133	-3
0.95500	-1
0.95867	1
0.96233	3
0.96600	1
0.96967	0
0.97333	1
0.97700	1
0.98067	2
0.98433	3
0.98800	3
0.99167	2
0.99533	0
0.99900	-1
1.00267	-2
1.00633	-4
1.01000	-2
1.01367	0
1.01733	0
1.02100	-2
1.02467	-1
1.02833	-1
1.03200	-1
1.03567	-1
1.03933	0
1.04300	2
1.04667	4
1.05033	2
1.05400	-0
1.05767	-2
1.06133	-1
1.06500	0
1.06867	2
1.07233	3
1.07600	4
1.07967	4
1.08333	5
1.08700	4
1.09067	3
1.09433	4
1.09800	4
1.10167	2
1.10533	1
1.10900	1
1.11267	4
1.11633	5
1.12000	8
1.12367	9
1.12733	8
1.13100	5
1.13467	5
1.13833	5
1.14200	4
1.14567	4
1.14933	4
1.15300	5
1.15667	6
1.16033	6
1.16400	6
1.16767	7
1.17133	7
1.17500	7
1.17867	8
1.18233	8
1.18600	9
1.18967	7
1.19333	7
1.19700	5
1.20067	3
1.20433	1
1.20800	-0
1.21167	2
1.21533	3
1.21900	4
1.22267	4
1.22633	3
1.23000	4
1.23367	3
1.23733	2
1.24100	1
1.24467	-0
1.24833	4
1.25200	5
1.25567	5
1.25933	5
1.26300	6
1.26667	6
1.27033	6
1.27400	4
1.27767	2
1.28133	3
1.28500	3
1.28867	7
1.29233	10
1.29600	11
1.29967	11
1.30333	7
1.30700	4
1.31067	5
1.31433	7
1.31800	7
1.32167	7
1.32533	8
1.32900	9
1.33267	11
1.33633	11
1.34000	12
1.34367	12
1.34733	14
1.35100	17
1.35467	17
1.35833	15
1.36200	12
1.36567	11
1.36933	12
1.37300	16
1.37667	18
1.38033	19
1.38400	19
1.38767	19
1.39133	19
1.39500	17
1.39867	17
1.40233	18
1.40600	20
1.40967	20
1.41333	17
1.41700	14
1.42067	13
1.42433	14
1.42800	15
1.43167	17
1.43533	19
1.43900	19
1.44267	18
1.44633	16
1.45000	16
1.45367	14
1.45733	13
1.46100	14
1.46467	17
1.46833	16
1.47200	15
1.47567	16
1.47933	18
1.48300	18
1.48667	19
1.49033	21
1.49400	21
1.49767	21
1.50133	21
1.50500	22
1.50867	21
1.51233	22
1.51600	24
1.51967	25
1.52333	24
1.52700	23
1.53067	20
1.53433	20
1.53800	18
1.54167	16
1.54533	16
1.54900	16
1.55267	17
1.55633	17
1.56000	18
1.56367	18
1.56733	17
1.57100	16
1.57467	18
1.57833	18
1.58200	17
1.58567	17
1.58933	18
1.59300	21
1.59667	22
1.60033	25
1.60400	27
1.60767	26
1.61133	26
1.61500	25
1.61867	25
1.62233	26
1.62600	26
1.62967	26
1.63333	27
1.63700	26
1.64067	24
1.64433	24
1.64800	22
1.65167	23
1.65533	23
1.65900	25
1.66267	27
1.66633	28
1.67000	29
1.67367	29
1.67733	29
1.68100	31
1.68467	33
1.68833	35
1.69200	37
1.69567	38
1.69933	38
1.70300	36
1.70667	35
1.71033	37
1.71400	39
1.71767	39
1.72133	38
1.72500	37
1.72867	37
1.73233	36
1.73600	35
1.73967	34
1.74333	34
1.74700	35
1.75067	37
1.75433	38
1.75800	38
1.76167	36
1.76533	35
1.76900	34
1.77267	36
1.77633	38
1.78000	39
1.78367	39
1.78733	38
1.79100	39
1.79467	40
1.79833	43
1.80200	45
1.80567	44
1.80933	44
1.81300	44
1.81667	44
1.82033	44
1.82400	44
1.82767	45
1.83133	47
1.83500	48
1.83867	50
1.84233	50
1.84600	52
1.84967	54
1.85333	55
1.85700	55
1.86067	55
1.86433	54
1.86800	51
1.87167	50
1.87533	51
1.87900	51
1.88267	51
1.88633	51
1.89000	52
1.89367	54
1.89733	54
1.90100	52
1.90467	52
1.90833	53
1.91200	55
1.91567	54
1.91933	53
1.92300	54
1.92667	55
1.93033	56
1.93400	58
1.93767	59
1.94133	59
1.94500	57
1.94867	58
1.95233	57
1.95600	57
1.95967	57
1.96333	59
1.96700	61
1.97067	61
1.97433	61
1.97800	61
1.98167	63
1.98533	65
1.98900	68
1.99267	69
1.99633	70
2.00000	73
2.00367	76
2.00733	77
2.01100	74
2.01467	73
2.01833	72
2.02200	74
2.02567	76
2.02933	76
2.03300	77
2.03667	79
2.04033	79
2.04400	83
2.04767	85
2.05133	86
2.05500	84
2.05867	82
2.06233	83
2.06600	83
2.06967	83
2.07333	84
2.07700	84
2.08067	85
2.08433	87
2.08800	89
2.09167	90
2.09533	92
2.09900	94
2.10267	92
2.10633	92
2.11000	94
2.11367	94
2.11733	95
2.12100	97
2.12467	97
2.12833	96
2.13200	95
2.13567	96
2.13933	99
2.14300	103
2.14667	104
2.15033	104
2.15400	106
2.15767	107
2.16133	110
2.16500	112
2.16867	112
2.17233	111
2.17600	111
2.17967	112
2.18333	111
2.18700	109
2.19067	109
2.19433	111
2.19800	114
2.20167	116
2.20533	120
2.20900	121
2.21267	120
2.21633	120
2.22000	122
2.22367	125
2.22733	125
2.23100	126
2.23467	125
2.23833	126
2.24200	125
2.24567	123
2.24933	122
2.25300	123
2.25667	126
2.26033	131
2.26400	136
2.26767	138
2.27133	140
2.27500	141
2.27867	143
2.28233	145
2.28600	146
2.28967	146
2.29333	146
2.29700	149
2.30067	149
2.30433	149
2.30800	148
2.31167	149
2.31533	149
2.31900	149
2.32267	151
2.32633	155
2.33000	158
2.33367	162
2.33733	166
2.34100	169
2.34467	171
2.34833	171
2.35200	171
2.35567	172
2.35933	172
2.36300	173
2.36667	173
2.37033	173
2.37400	174
2.37767	177
2.38133	181
2.38500	181
2.38867	183
2.39233	187
2.39600	190
2.39967	190
2.40333	191
2.40700	192
2.41067	195
2.41433	197
2.41800	199
2.42167	201
2.42533	202
2.42900	204
2.43267	206
2.43633	207
2.44000	211
2.44367	236
2.44733	302
2.45100	374
2.45467	429
2.45833	464
2.46200	469
2.46567	452
2.46933	428
2.47300	406
2.47667	390
2.48033	382
2.48400	375
2.48767	365
2.49133	352
2.49500	335
2.49867	316
2.50233	300
2.50600	288
2.50967	278
2.51333	270
2.51700	264
2.52067	262
2.52433	264
2.52800	268
2.53167	277
2.53533	284
2.53900	291
2.54267	301
2.54633	306
2.55000	309
2.55367	308
2.55733	302
2.56100	293
2.56467	285
2.56833	279
2.57200	274
2.57567	268
2.57933	261
2.58300	256
2.58667	249
2.59033	245
2.59400	239
2.59767	230
2.60133	218
2.60500	201
2.60867	177
2.61233	151
2.61600	124
2.61967	100
2.62333	76
2.62700	54
2.63067	39
2.63433	28
2.63800	22
2.64167	21
2.64533	24
2.64900	29
2.65267	38
2.65633	49
2.66000	59
2.66367	70
2.66733	79
2.67100	90
2.67467	101
2.67833	114
2.68200	124
2.68567	135
2.68933	143
2.69300	149
2.69667	154
2.70033	158
2.70400	158
2.70767	156
2.71133	157
2.71500	159
2.71867	163
2.72233	167
2.72600	168
2.72967	168
2.73333	168
2.73700	169
2.74067	171
2.74433	172
2.74800	171
2.75167	173
2.75533	173
2.75900	173
2.76267	175
2.76633	175
2.77000	176
2.77367	179
2.77733	182
2.78100	183
2.78467	183
2.78833	183
2.79200	184
2.79567	183
2.79933	181
2.80300	183
2.80667	184
2.81033	188
2.81400	198
2.81767	224
2.82133	287
2.82500	429
2.82867	700
2.83233	1165
2.83600	1878
2.83967	2878
2.84333	4166
2.84700	5696
2.85067	7384
2.85433	9116
2.85800	10763
2.86167	12195
2.86533	13306
2.86900	14027
2.87267	14335
2.87633	14261
2.88000	13861
2.88367	13198
2.88733	12356
2.89100	11409
2.89467	10414
2.89833	9415
2.90200	8450
2.90567	7539
2.90933	6694
2.91300	5924
2.91667	5224
2.92033	4595
2.92400	4036
2.92767	3542
2.93133	3106
2.93500	2724
2.93867	2390
2.94233	2096
2.94600	1840
2.94967	1616
2.95333	1422
2.95700	1252
2.96067	1105
2.96433	979
2.96800	873
2.97167	780
2.97533	699
2.97900	630
2.98267	570
2.98633	518
2.99000	473
2.99367	434
2.99733	401
3.00100	373
3.00467	348
3.00833	326
3.01200	308
3.01567	293
3.01933	281
3.02300	271
3.02667	262
3.03033	251
3.03400	242
3.03767	234
3.04133	225
3.04500	220
3.04867	213
3.05233	207
3.05600	203
3.05967	197
3.06333	191
3.06700	187
3.07067	184
3.07433	181
3.07800	180
3.08167	179
3.08533	177
3.08900	175
3.09267	172
3.09633	170
3.10000	171
3.10367	169
3.10733	164
3.11100	162
3.11467	162
3.11833	160
3.12200	158
3.12567	158
3.12933	156
3.13300	155
3.13667	154
3.14033	153
3.14400	153
3.14767	151
3.15133	151
3.15500	148
3.15867	146
3.16233	146
3.16600	147
3.16967	147
3.17333	144
3.17700	142
3.18067	142
3.18433	141
3.18800	140
3.19167	140
3.19533	141
3.19900	144
3.20267	147
3.20633	149
3.21000	149
3.21367	149
3.21733	147
3.22100	145
3.22467	143
3.22833	141
3.23200	137
3.23567	119
3.23933	89
3.24300	67
3.24667	68
3.25033	93
3.25400	130
3.25767	174
3.26133	218
3.26500	258
3.26867	297
3.27233	335
3.27600	372
3.27967	407
3.28333	438
3.28700	467
3.29067	493
3.29433	515
3.29800	534
3.30167	552
3.30533	569
3.30900	581
3.31267	592
3.31633	601
3.32000	609
3.32367	615
3.32733	621
3.33100	627
3.33467	633
3.33833	640
3.34200	647
3.34567	652
3.34933	659
3.35300	666
3.35667	671
3.36033	675
3.36400	680
3.36767	687
3.37133	693
3.37500	699
3.37867	704
3.38233	707
3.38600	709
3.38967	710
3.39333	711
3.39700	714
3.40067	717
3.40433	718
3.40800	719
3.41167	721
3.41533	721
3.41900	719
3.42267	715
3.42633	714
3.43000	711
3.43367	708
3.43733	707
3.44100	706
3.44467	703
3.44833	698
3.45200	691
3.45567	686
3.45933	680
3.46300	673
3.46667	666
3.47033	659
3.47400	655
3.47767	651
3.48133	647
3.48500	642
3.48867	635
3.49233	628
3.49600	623
3.49967	620
3.50333	617
3.50700	617
3.51067	616
3.51433	614
3.51800	610
3.52167	606
3.52533	604
3.52900	603
3.53267	601
3.53633	598
3.54000	594
3.54367	592
3.54733	589
3.55100	587
3.55467	587
3.55833	587
3.56200	588
3.56567	586
3.56933	583
3.57300	579
3.57667	576
3.58033	573
3.58400	573
3.58767	572
3.59133	573
3.59500	573
3.59867	572
3.60233	569
3.60600	567
3.60967	565
3.61333	561
3.61700	555
3.62067	551
3.62433	550
3.62800	547
3.63167	544
3.63533	542
3.63900	541
3.64267	537
3.64633	533
3.65000	530
3.65367	528
3.65733	526
3.66100	524
3.66467	520
3.66833	518
3.67200	518
3.67567	515
3.67933	511
3.68300	511
3.68667	511
3.69033	512
3.69400	511
3.69767	509
3.70133	508
3.70500	506
3.70867	505
3.71233	504
3.71600	501
3.71967	496
3.72333	494
3.72700	493
3.73067	490
3.73433	487
3.73800	486
3.74167	486
3.74533	484
3.74900	482
3.75267	479
3.75633	479
3.76000	483
3.76367	484
3.76733	484
3.77100	484
3.77467	482
3.77833	480
3.78200	478
3.78567	473
3.78933	470
3.79300	470
3.79667	470
3.80033	469
3.80400	466
3.80767	465
3.81133	464
3.81500	464
3.81867	462
3.82233	461
3.82600	459
3.82967	457
3.83333	455
3.83700	454
3.84067	454
3.84433	453
3.84800	452
3.85167	451
3.85533	450
3.85900	451
3.86267	451
3.86633	451
3.87000	449
3.87367	450
3.87733	451
3.88100	450
3.88467	450
3.88833	452
3.89200	451
3.89567	448
3.89933	447
3.90300	448
3.90667	448
3.91033	447
3.91400	447
3.91767	446
3.92133	443
3.92500	441
3.92867	438
3.93233	437
3.93600	439
3.93967	439
3.94333	439
3.94700	440
3.95067	440
3.95433	437
3.95800	435
3.96167	434
3.96533	433
3.96900	432
3.97267	431
3.97633	431
3.98000	432
3.98367	435
3.98733	434
3.99100	432
3.99467	429
3.99833	427

[Status Trace (Column Oven Temperature)]
Interval(msec)	1000
# of Points	240
Start Time(min)	0.002
End Time(min)	3.986
Intensity Units	
Intensity Multiplier	1
R.Time (min)	Intensity
0.00228	35.09
0.01895	35.08
0.03562	35.06
0.05228	35.04
0.06895	35.04
0.08562	35.05
0.10228	35.07
0.11895	35.07
0.13562	35.08
0.15228	35.08
0.16895	35.07
0.18562	35.07
0.20228	35.06
0.21895	35.05
0.23562	35.04
0.25228	35.03
0.26895	35.03
0.28562	35.02
0.30228	35.03
0.31895	35.03
0.33562	35.03
0.35228	35.02
0.36895	35.00
0.38562	34.99
0.40228	34.99
0.41895	34.98
0.43562	34.98
0.45228	35.00
0.46895	35.00
0.48562	35.00
0.50228	35.01
0.51895	35.00
0.53562	34.98
0.55228	34.96
0.56895	34.97
0.58562	34.99
0.60228	35.00
0.61895	35.00
0.63562	35.03
0.65228	35.02
0.66895	35.01
0.68562	35.01
0.70228	35.00
0.71895	34.99
0.73562	35.00
0.75228	35.00
0.76895	35.00
0.78562	35.00
0.80228	34.99
0.81895	34.98
0.83562	34.97
0.85228	34.97
0.86895	34.97
0.88562	34.97
0.90228	34.97
0.91895	34.98
0.93562	34.98
0.95228	35.00
0.96895	35.01
0.98562	35.00
1.00228	35.00
1.01895	35.00
1.03562	34.99
1.05228	34.97
1.06895	34.97
1.08562	34.95
1.10228	34.94
1.11895	34.94
1.13562	34.93
1.15228	34.94
1.16895	34.96
1.18562	34.98
1.20228	34.99
1.21895	34.99
1.23562	34.99
1.25228	34.99
1.26895	34.98
1.28562	34.99
1.30228	35.01
1.31895	35.02
1.33562	35.04
1.35228	35.04
1.36895	35.04
1.38562	35.03
1.40228	35.03
1.41895	35.02
1.43562	35.01
1.45228	35.00
1.46895	34.99
1.48562	34.98
1.50228	34.98
1.51895	34.99
1.53562	34.99
1.55228	34.99
1.56895	34.99
1.58562	34.99
1.60228	35.04
1.61895	35.14
1.63562	35.30
1.65228	35.52
1.66895	35.83
1.68562	36.21
1.70228	36.56
1.71895	36.90
1.73562	37.24
1.75228	37.59
1.76895	37.90
1.78562	38.22
1.80228	38.55
1.81895	38.88
1.83562	39.22
1.85228	39.55
1.86895	39.88
1.88562	40.21
1.90228	40.52
1.91895	40.85
1.93562	41.18
1.95228	41.49
1.96895	41.83
1.98562	42.15
2.00228	42.49
2.01895	42.80
2.03562	43.13
2.05228	43.46
2.06895	43.77
2.08562	44.10
2.10228	44.42
2.11895	44.78
2.13562	45.09
2.15228	45.40
2.16895	45.74
2.18562	46.04
2.20228	46.38
2.21895	46.73
2.23562	47.07
2.25228	47.40
2.26895	47.73
2.28562	48.07
2.30228	48.39
2.31895	48.72
2.33562	49.05
2.35228	49.34
2.36895	49.55
2.38562	49.63
2.40228	49.64
2.41895	49.65
2.43562	49.66
2.45228	49.66
2.46895	49.67
2.48562	49.68
2.50228	49.71
2.51895	49.71
2.53562	49.74
2.55228	49.75
2.56895	49.77
2.58562	49.78
2.60228	49.78
2.61895	49.81
2.63562	49.82
2.65228	49.83
2.66895	49.83
2.68562	49.86
2.70228	49.87
2.71895	49.86
2.73562	49.86
2.75228	49.84
2.76895	49.86
2.78562	49.91
2.80228	49.92
2.81895	49.92
2.83562	49.92
2.85228	49.91
2.86895	49.91
2.88562	49.91
2.90228	49.91
2.91895	49.94
2.93562	49.96
2.95228	49.97
2.96895	49.99
2.98562	50.01
3.00228	50.02
3.01895	50.02
3.03562	50.03
3.05228	50.04
3.06895	50.05
3.08562	50.05
3.10228	50.07
3.11895	50.09
3.13562	50.11
3.15228	50.11
3.16895	50.10
3.18562	50.10
3.20228	50.09
3.21895	50.10
3.23562	50.10
3.25228	50.09
3.26895	50.07
3.28562	50.07
3.30228	50.06
3.31895	50.04
3.33562	50.03
3.35228	50.02
3.36895	50.01
3.38562	50.03
3.40228	50.03
3.41895	50.05
3.43562	50.04
3.45228	50.04
3.46895	50.04
3.48562	50.06
3.50228	50.07
3.51895	50.07
3.53562	50.06
3.55228	50.07
3.56895	50.08
3.58562	50.09
3.60228	50.09
3.61895	50.09
3.63562	50.10
3.65228	50.10
3.66895	50.09
3.68562	50.10
3.70228	50.11
3.71895	50.10
3.73562	50.09
3.75228	50.07
3.76895	50.06
3.78562	50.05
3.80228	50.04
3.81895	50.03
3.83562	50.03
3.85228	50.03
3.86895	50.01
3.88562	50.00
3.90228	50.01
3.91895	50.00
3.93562	49.99
3.95228	49.99
3.96895	49.98
3.98562	49.99

[Status Trace (Injection Unit Temperature)]
Interval(msec)	1000
# of Points	240
Start Time(min)	0.002
End Time(min)	3.986
Intensity Units	
Intensity Multiplier	1
R.Time (min)	Intensity
0.00228	99.97
0.01895	99.98
0.03562	99.98
0.05228	99.98
0.06895	99.98
0.08562	99.98
0.10228	99.98
0.11895	99.98
0.13562	99.98
0.15228	99.98
0.16895	99.98
0.18562	99.98
0.20228	99.98
0.21895	99.99
0.23562	99.99
0.25228	99.98
0.26895	99.98
0.28562	99.99
0.30228	99.98
0.31895	99.98
0.33562	99.98
0.35228	99.98
0.36895	99.99
0.38562	99.99
0.40228	99.98
0.41895	99.98
0.43562	99.98
0.45228	99.98
0.46895	99.98
0.48562	99.98
0.50228	99.98
0.51895	99.98
0.53562	99.98
0.55228	99.98
0.56895	99.98
0.58562	99.98
0.60228	99.98
0.61895	99.99
0.63562	99.98
0.65228	99.98
0.66895	99.98
0.68562	99.98
0.70228	99.98
0.71895	99.98
0.73562	99.98
0.75228	99.98
0.76895	99.99
0.78562	99.98
0.80228	99.99
0.81895	99.98
0.83562	99.98
0.85228	99.98
0.86895	99.98
0.88562	99.98
0.90228	99.99
0.91895	99.98
0.93562	99.98
0.95228	99.98
0.96895	99.98
0.98562	99.98
1.00228	99.98
1.01895	99.98
1.03562	99.99
1.05228	99.99
1.06895	99.98
1.08562	99.98
1.10228	99.98
1.11895	99.98
1.13562	99.99
1.15228	99.98
1.16895	99.99
1.18562	99.98
1.20228	99.98
1.21895	99.98
1.23562	99.98
1.25228	99.98
1.26895	99.98
1.28562	99.98
1.30228	99.98
1.31895	99.98
1.33562	99.98
1.35228	99.98
1.36895	99.98
1.38562	99.98
1.40228	99.98
1.41895	99.98
1.43562	99.98
1.45228	99.98
1.46895	99.99
1.48562	99.97
1.50228	99.98
1.51895	99.98
1.53562	99.98
1.55228	99.99
1.56895	99.98
1.58562	99.98
1.60228	99.98
1.61895	99.98
1.63562	99.98
1.65228	99.98
1.66895	99.98
1.68562	99.98
1.70228	99.98
1.71895	99.98
1.73562	99.99
1.75228	99.98
1.76895	99.98
1.78562	99.98
1.80228	99.98
1.81895	99.98
1.83562	99.98
1.85228	99.98
1.86895	99.98
1.88562	99.98
1.90228	99.97
1.91895	99.98
1.93562	99.97
1.95228	99.97
1.96895	99.98
1.98562	99.97
2.00228	99.98
2.01895	99.97
2.03562	99.97
2.05228	99.97
2.06895	99.97
2.08562	99.97
2.10228	99.97
2.11895	99.97
2.13562	99.97
2.15228	99.97
2.16895	99.97
2.18562	99.96
2.20228	99.97
2.21895	99.96
2.23562	99.96
2.25228	99.96
2.26895	99.96
2.28562	99.96
2.30228	99.96
2.31895	99.96
2.33562	99.96
2.35228	99.96
2.36895	99.96
2.38562	99.96
2.40228	99.96
2.41895	99.96
2.43562	99.96
2.45228	99.97
2.46895	99.96
2.48562	99.96
2.50228	99.97
2.51895	99.96
2.53562	99.97
2.55228	99.97
2.56895	99.97
2.58562	99.97
2.60228	99.97
2.61895	99.97
2.63562	99.98
2.65228	99.98
2.66895	99.98
2.68562	99.98
2.70228	99.98
2.71895	99.98
2.73562	99.98
2.75228	99.99
2.76895	99.99
2.78562	99.99
2.80228	99.99
2.81895	99.99
2.83562	99.99
2.85228	99.99
2.86895	100.00
2.88562	100.00
2.90228	99.99
2.91895	100.00
2.93562	100.00
2.95228	100.00
2.96895	100.01
2.98562	100.00
3.00228	100.01
3.01895	100.01
3.03562	100.01
3.05228	100.00
3.06895	100.02
3.08562	100.02
3.10228	100.02
3.11895	100.02
3.13562	100.01
3.15228	100.02
3.16895	100.02
3.18562	100.02
3.20228	100.02
3.21895	100.02
3.23562	100.02
3.25228	100.03
3.26895	100.03
3.28562	100.03
3.30228	100.03
3.31895	100.03
3.33562	100.03
3.35228	100.03
3.36895	100.03
3.38562	100.03
3.40228	100.04
3.41895	100.04
3.43562	100.04
3.45228	100.03
3.46895	100.04
3.48562	100.04
3.50228	100.04
3.51895	100.04
3.53562	100.04
3.55228	100.04
3.56895	100.04
3.58562	100.04
3.60228	100.05
3.61895	100.05
3.63562	100.04
3.65228	100.04
3.66895	100.04
3.68562	100.04
3.70228	100.04
3.71895	100.04
3.73562	100.05
3.75228	100.04
3.76895	100.05
3.78562	100.04
3.80228	100.04
3.81895	100.04
3.83562	100.05
3.85228	100.05
3.86895	100.04
3.88562	100.05
3.90228	100.04
3.91895	100.05
3.93562	100.04
3.95228	100.05
3.96895	100.05
3.98562	100.04

[Status Trace (Carrier Gas Pressure)]
Interval(msec)	1000
# of Points	240
Start Time(min)	0.002
End Time(min)	3.986
Intensity Units	
Intensity Multiplier	1
R.Time (min)	Intensity
0.00228	58.00
0.01895	56.28
0.03562	56.36
0.05228	58.53
0.06895	59.87
0.08562	58.28
0.10228	57.97
0.11895	58.01
0.13562	58.01
0.15228	58.01
0.16895	58.00
0.18562	58.00
0.20228	58.00
0.21895	58.00
0.23562	58.00
0.25228	58.00
0.26895	58.00
0.28562	58.00
0.30228	58.00
0.31895	58.00
0.33562	58.00
0.35228	58.00
0.36895	58.00
0.38562	58.00
0.40228	58.00
0.41895	58.00
0.43562	58.00
0.45228	58.00
0.46895	58.00
0.48562	58.00
0.50228	58.00
0.51895	58.00
0.53562	58.00
0.55228	58.00
0.56895	58.00
0.58562	58.00
0.60228	58.00
0.61895	58.00
0.63562	58.00
0.65228	58.00
0.66895	58.00
0.68562	58.00
0.70228	58.00
0.71895	58.00
0.73562	58.00
0.75228	58.00
0.76895	58.00
0.78562	58.00
0.80228	58.00
0.81895	58.00
0.83562	58.00
0.85228	58.00
0.86895	58.00
0.88562	58.00
0.90228	58.00
0.91895	58.00
0.93562	58.00
0.95228	58.00
0.96895	58.00
0.98562	58.00
1.00228	58.00
1.01895	58.00
1.03562	58.00
1.05228	58.00
1.06895	58.00
1.08562	58.00
1.10228	58.00
1.11895	58.00
1.13562	58.00
1.15228	58.00
1.16895	58.00
1.18562	58.00
1.20228	58.00
1.21895	58.00
1.23562	58.00
1.25228	58.00
1.26895	58.00
1.28562	58.00
1.30228	58.00
1.31895	58.00
1.33562	58.00
1.35228	58.00
1.36895	58.00
1.38562	58.00
1.40228	58.00
1.41895	58.00
1.43562	58.00
1.45228	58.00
1.46895	58.00
1.48562	58.00
1.50228	58.00
1.51895	58.00
1.53562	58.00
1.55228	58.00
1.56895	58.00
1.58562	58.00
1.60228	58.00
1.61895	58.00
1.63562	58.00
1.65228	58.00
1.66895	58.01
1.68562	58.01
1.70228	58.00
1.71895	58.00
1.73562	58.00
1.75228	58.00
1.76895	58.00
1.78562	58.00
1.80228	58.00
1.81895	58.00
1.83562	58.00
1.85228	58.00
1.86895	58.00
1.88562	58.00
1.90228	58.00
1.91895	58.00
1.93562	58.00
1.95228	58.00
1.96895	58.00
1.98562	58.00
2.00228	58.00
2.01895	58.00
2.03562	58.00
2.05228	58.00
2.06895	58.00
2.08562	58.00
2.10228	58.00
2.11895	58.00
2.13562	58.00
2.15228	58.00
2.16895	58.00
2.18562	58.00
2.20228	58.00
2.21895	58.00
2.23562	58.00
2.25228	58.00
2.26895	58.00
2.28562	58.00
2.30228	58.00
2.31895	58.00
2.33562	58.00
2.35228	58.00
2.36895	58.00
2.38562	57.99
2.40228	57.99
2.41895	58.00
2.43562	58.00
2.45228	58.00
2.46895	58.00
2.48562	58.00
2.50228	57.99
2.51895	58.03
2.53562	57.99
2.55228	58.00
2.56895	58.00
2.58562	58.00
2.60228	58.00
2.61895	58.00
2.63562	58.00
2.65228	58.00
2.66895	58.00
2.68562	58.00
2.70228	58.00
2.71895	58.00
2.73562	58.00
2.75228	58.00
2.76895	58.00
2.78562	58.00
2.80228	58.00
2.81895	58.00
2.83562	58.00
2.85228	58.00
2.86895	58.00
2.88562	58.00
2.90228	58.00
2.91895	58.00
2.93562	58.00
2.95228	58.00
2.96895	58.00
2.98562	58.00
3.00228	58.00
3.01895	58.00
3.03562	58.00
3.05228	58.00
3.06895	58.00
3.08562	58.00
3.10228	58.00
3.11895	58.00
3.13562	58.00
3.15228	58.00
3.16895	58.00
3.18562	58.00
3.20228	58.00
3.21895	58.00
3.23562	58.00
3.25228	58.00
3.26895	58.00
3.28562	58.00
3.30228	58.00
3.31895	58.00
3.33562	58.00
3.35228	58.00
3.36895	58.00
3.38562	58.00
3.40228	58.00
3.41895	58.00
3.43562	58.00
3.45228	58.00
3.46895	58.00
3.48562	58.00
3.50228	58.00
3.51895	58.00
3.53562	58.00
3.55228	58.00
3.56895	58.00
3.58562	58.00
3.60228	58.00
3.61895	58.00
3.63562	58.00
3.65228	58.00
3.66895	58.00
3.68562	58.00
3.70228	58.00
3.71895	58.00
3.73562	58.00
3.75228	58.00
3.76895	58.00
3.78562	58.00
3.80228	58.00
3.81895	58.00
3.83562	58.00
3.85228	58.00
3.86895	58.00
3.88562	58.00
3.90228	58.00
3.91895	58.00
3.93562	58.00
3.95228	58.00
3.96895	58.00
3.98562	58.00

[Status Trace (Carrier Gas Flow)]
Interval(msec)	1000
# of Points	240
Start Time(min)	0.002
End Time(min)	3.986
Intensity Units	
Intensity Multiplier	1
R.Time (min)	Intensity
0.00228	34.52
0.01895	34.59
0.03562	34.55
0.05228	34.55
0.06895	34.50
0.08562	34.52
0.10228	34.52
0.11895	34.52
0.13562	34.52
0.15228	34.52
0.16895	34.52
0.18562	34.52
0.20228	34.52
0.21895	34.52
0.23562	34.52
0.25228	34.52
0.26895	34.52
0.28562	34.52
0.30228	34.52
0.31895	34.52
0.33562	34.52
0.35228	34.52
0.36895	34.52
0.38562	34.52
0.40228	34.52
0.41895	34.52
0.43562	34.52
0.45228	34.52
0.46895	34.52
0.48562	34.52
0.50228	34.52
0.51895	34.52
0.53562	34.52
0.55228	34.52
0.56895	34.52
0.58562	34.52
0.60228	34.52
0.61895	34.52
0.63562	34.52
0.65228	34.52
0.66895	34.52
0.68562	34.52
0.70228	34.52
0.71895	34.52
0.73562	34.52
0.75228	34.52
0.76895	34.52
0.78562	34.52
0.80228	34.52
0.81895	34.52
0.83562	34.52
0.85228	34.52
0.86895	34.52
0.88562	34.52
0.90228	34.52
0.91895	34.52
0.93562	34.52
0.95228	34.52
0.96895	34.51
0.98562	34.52
1.00228	34.52
1.01895	34.52
1.03562	34.52
1.05228	34.52
1.06895	34.52
1.08562	34.52
1.10228	34.52
1.11895	34.51
1.13562	34.52
1.15228	34.52
1.16895	34.52
1.18562	34.52
1.20228	34.52
1.21895	34.52
1.23562	34.52
1.25228	34.52
1.26895	34.52
1.28562	34.52
1.30228	34.52
1.31895	34.52
1.33562	34.52
1.35228	34.52
1.36895	34.52
1.38562	34.52
1.40228	34.52
1.41895	34.52
1.43562	34.52
1.45228	34.52
1.46895	34.52
1.48562	34.52
1.50228	34.52
1.51895	34.52
1.53562	34.52
1.55228	34.52
1.56895	34.52
1.58562	34.52
1.60228	34.52
1.61895	34.52
1.63562	34.52
1.65228	34.52
1.66895	34.52
1.68562	34.52
1.70228	34.52
1.71895	34.52
1.73562	34.52
1.75228	34.52
1.76895	34.52
1.78562	34.52
1.80228	34.52
1.81895	34.52
1.83562	34.52
1.85228	34.52
1.86895	34.52
1.88562	34.52
1.90228	34.52
1.91895	34.52
1.93562	34.52
1.95228	34.52
1.96895	34.52
1.98562	34.52
2.00228	34.52
2.01895	34.52
2.03562	34.52
2.05228	34.52
2.06895	34.52
2.08562	34.52
2.10228	34.52
2.11895	34.52
2.13562	34.52
2.15228	34.51
2.16895	34.52
2.18562	34.52
2.20228	34.52
2.21895	34.51
2.23562	34.52
2.25228	34.52
2.26895	34.52
2.28562	34.51
2.30228	34.52
2.31895	34.52
2.33562	34.52
2.35228	34.52
2.36895	34.52
2.38562	34.57
2.40228	34.52
2.41895	34.52
2.43562	34.52
2.45228	34.52
2.46895	34.52
2.48562	34.52
2.50228	34.54
2.51895	34.52
2.53562	34.52
2.55228	34.52
2.56895	34.52
2.58562	34.52
2.60228	34.52
2.61895	34.52
2.63562	34.52
2.65228	34.52
2.66895	34.52
2.68562	34.52
2.70228	34.52
2.71895	34.52
2.73562	34.52
2.75228	34.52
2.76895	34.52
2.78562	34.52
2.80228	34.52
2.81895	34.52
2.83562	34.52
2.85228	34.52
2.86895	34.52
2.88562	34.52
2.90228	34.52
2.91895	34.52
2.93562	34.52
2.95228	34.52
2.96895	34.52
2.98562	34.52
3.00228	34.52
3.01895	34.52
3.03562	34.52
3.05228	34.52
3.06895	34.52
3.08562	34.52
3.10228	34.52
3.11895	34.52
3.13562	34.52
3.15228	34.52
3.16895	34.52
3.18562	34.52
3.20228	34.52
3.21895	34.52
3.23562	34.52
3.25228	34.52
3.26895	34.52
3.28562	34.52
3.30228	34.52
3.31895	34.52
3.33562	34.52
3.35228	34.52
3.36895	34.52
3.38562	34.52
3.40228	34.52
3.41895	34.52
3.43562	34.52
3.45228	34.52
3.46895	34.52
3.48562	34.52
3.50228	34.52
3.51895	34.52
3.53562	34.52
3.55228	34.52
3.56895	34.52
3.58562	34.52
3.60228	34.52
3.61895	34.52
3.63562	34.52
3.65228	34.52
3.66895	34.52
3.68562	34.52
3.70228	34.52
3.71895	34.52
3.73562	34.52
3.75228	34.52
3.76895	34.52
3.78562	34.52
3.80228	34.52
3.81895	34.52
3.83562	34.52
3.85228	34.52
3.86895	34.52
3.88562	34.52
3.90228	34.52
3.91895	34.52
3.93562	34.52
3.95228	34.52
3.96895	34.52
3.98562	34.52

[Status Trace (Column Flow)]
Interval(msec)	1000
# of Points	240
Start Time(min)	0.002
End Time(min)	3.986
Intensity Units	
Intensity Multiplier	1
R.Time (min)	Intensity
0.00228	5.57
0.01895	5.37
0.03562	5.38
0.05228	5.63
0.06895	5.79
0.08562	5.61
0.10228	5.57
0.11895	5.57
0.13562	5.57
0.15228	5.57
0.16895	5.57
0.18562	5.57
0.20228	5.57
0.21895	5.57
0.23562	5.57
0.25228	5.57
0.26895	5.57
0.28562	5.57
0.30228	5.57
0.31895	5.57
0.33562	5.57
0.35228	5.57
0.36895	5.57
0.38562	5.57
0.40228	5.57
0.41895	5.57
0.43562	5.57
0.45228	5.57
0.46895	5.57
0.48562	5.57
0.50228	5.57
0.51895	5.57
0.53562	5.57
0.55228	5.58
0.56895	5.58
0.58562	5.57
0.60228	5.57
0.61895	5.57
0.63562	5.57
0.65228	5.57
0.66895	5.57
0.68562	5.57
0.70228	5.57
0.71895	5.57
0.73562	5.57
0.75228	5.57
0.76895	5.57
0.78562	5.57
0.80228	5.57
0.81895	5.57
0.83562	5.58
0.85228	5.58
0.86895	5.58
0.88562	5.57
0.90228	5.57
0.91895	5.58
0.93562	5.57
0.95228	5.57
0.96895	5.57
0.98562	5.57
1.00228	5.57
1.01895	5.57
1.03562	5.57
1.05228	5.58
1.06895	5.58
1.08562	5.58
1.10228	5.58
1.11895	5.58
1.13562	5.58
1.15228	5.58
1.16895	5.58
1.18562	5.57
1.20228	5.57
1.21895	5.57
1.23562	5.57
1.25228	5.57
1.26895	5.58
1.28562	5.57
1.30228	5.57
1.31895	5.57
1.33562	5.57
1.35228	5.57
1.36895	5.57
1.38562	5.57
1.40228	5.57
1.41895	5.57
1.43562	5.57
1.45228	5.57
1.46895	5.57
1.48562	5.57
1.50228	5.58
1.51895	5.57
1.53562	5.57
1.55228	5.57
1.56895	5.57
1.58562	5.57
1.60228	5.57
1.61895	5.57
1.63562	5.56
1.65228	5.56
1.66895	5.55
1.68562	5.54
1.70228	5.53
1.71895	5.51
1.73562	5.50
1.75228	5.49
1.76895	5.48
1.78562	5.47
1.80228	5.46
1.81895	5.45
1.83562	5.44
1.85228	5.43
1.86895	5.42
1.88562	5.41
1.90228	5.40
1.91895	5.39
1.93562	5.38
1.95228	5.37
1.96895	5.36
1.98562	5.35
2.00228	5.34
2.01895	5.33
2.03562	5.32
2.05228	5.32
2.06895	5.31
2.08562	5.30
2.10228	5.29
2.11895	5.28
2.13562	5.27
2.15228	5.26
2.16895	5.25
2.18562	5.24
2.20228	5.23
2.21895	5.22
2.23562	5.21
2.25228	5.20
2.26895	5.19
2.28562	5.18
2.30228	5.17
2.31895	5.16
2.33562	5.15
2.35228	5.15
2.36895	5.14
2.38562	5.14
2.40228	5.14
2.41895	5.14
2.43562	5.14
2.45228	5.14
2.46895	5.14
2.48562	5.14
2.50228	5.13
2.51895	5.14
2.53562	5.13
2.55228	5.13
2.56895	5.13
2.58562	5.13
2.60228	5.13
2.61895	5.13
2.63562	5.13
2.65228	5.13
2.66895	5.13
2.68562	5.13
2.70228	5.13
2.71895	5.13
2.73562	5.13
2.75228	5.13
2.76895	5.13
2.78562	5.13
2.80228	5.13
2.81895	5.13
2.83562	5.13
2.85228	5.13
2.86895	5.13
2.88562	5.13
2.90228	5.13
2.91895	5.13
2.93562	5.13
2.95228	5.13
2.96895	5.13
2.98562	5.13
3.00228	5.13
3.01895	5.13
3.03562	5.13
3.05228	5.13
3.06895	5.13
3.08562	5.13
3.10228	5.12
3.11895	5.12
3.13562	5.12
3.15228	5.12
3.16895	5.12
3.18562	5.12
3.20228	5.12
3.21895	5.12
3.23562	5.12
3.25228	5.12
3.26895	5.12
3.28562	5.12
3.30228	5.12
3.31895	5.13
3.33562	5.13
3.35228	5.13
3.36895	5.13
3.38562	5.13
3.40228	5.13
3.41895	5.13
3.43562	5.13
3.45228	5.13
3.46895	5.13
3.48562	5.13
3.50228	5.12
3.51895	5.12
3.53562	5.12
3.55228	5.12
3.56895	5.12
3.58562	5.12
3.60228	5.12
3.61895	5.12
3.63562	5.12
3.65228	5.12
3.66895	5.12
3.68562	5.12
3.70228	5.12
3.71895	5.12
3.73562	5.12
3.75228	5.12
3.76895	5.13
3.78562	5.13
3.80228	5.13
3.81895	5.13
3.83562	5.13
3.85228	5.13
3.86895	5.13
3.88562	5.13
3.90228	5.13
3.91895	5.13
3.93562	5.13
3.95228	5.13
3.96895	5.13
3.98562	5.13

[Status Trace (Linear Velocity)]
Interval(msec)	1000
# of Points	240
Start Time(min)	0.002
End Time(min)	3.986
Intensity Units	
Intensity Multiplier	1
R.Time (min)	Intensity
0.00228	39.02
0.01895	37.90
0.03562	37.95
0.05228	39.37
0.06895	40.25
0.08562	39.21
0.10228	39.00
0.11895	39.03
0.13562	39.03
0.15228	39.02
0.16895	39.02
0.18562	39.02
0.20228	39.02
0.21895	39.03
0.23562	39.03
0.25228	39.03
0.26895	39.03
0.28562	39.03
0.30228	39.03
0.31895	39.03
0.33562	39.03
0.35228	39.03
0.36895	39.03
0.38562	39.03
0.40228	39.03
0.41895	39.03
0.43562	39.03
0.45228	39.03
0.46895	39.03
0.48562	39.03
0.50228	39.03
0.51895	39.03
0.53562	39.03
0.55228	39.03
0.56895	39.03
0.58562	39.03
0.60228	39.03
0.61895	39.03
0.63562	39.03
0.65228	39.03
0.66895	39.03
0.68562	39.03
0.70228	39.03
0.71895	39.03
0.73562	39.03
0.75228	39.03
0.76895	39.03
0.78562	39.03
0.80228	39.03
0.81895	39.03
0.83562	39.03
0.85228	39.03
0.86895	39.03
0.88562	39.03
0.90228	39.03
0.91895	39.03
0.93562	39.03
0.95228	39.03
0.96895	39.03
0.98562	39.03
1.00228	39.03
1.01895	39.03
1.03562	39.03
1.05228	39.03
1.06895	39.03
1.08562	39.03
1.10228	39.03
1.11895	39.03
1.13562	39.04
1.15228	39.03
1.16895	39.03
1.18562	39.03
1.20228	39.03
1.21895	39.03
1.23562	39.03
1.25228	39.03
1.26895	39.03
1.28562	39.03
1.30228	39.03
1.31895	39.03
1.33562	39.03
1.35228	39.02
1.36895	39.03
1.38562	39.03
1.40228	39.03
1.41895	39.03
1.43562	39.03
1.45228	39.03
1.46895	39.03
1.48562	39.03
1.50228	39.03
1.51895	39.03
1.53562	39.03
1.55228	39.03
1.56895	39.03
1.58562	39.03
1.60228	39.03
1.61895	39.02
1.63562	39.00
1.65228	38.98
1.66895	38.95
1.68562	38.92
1.70228	38.88
1.71895	38.85
1.73562	38.82
1.75228	38.79
1.76895	38.75
1.78562	38.72
1.80228	38.69
1.81895	38.66
1.83562	38.63
1.85228	38.60
1.86895	38.56
1.88562	38.53
1.90228	38.51
1.91895	38.47
1.93562	38.44
1.95228	38.42
1.96895	38.38
1.98562	38.35
2.00228	38.33
2.01895	38.29
2.03562	38.26
2.05228	38.24
2.06895	38.20
2.08562	38.18
2.10228	38.15
2.11895	38.11
2.13562	38.08
2.15228	38.06
2.16895	38.03
2.18562	38.00
2.20228	37.97
2.21895	37.94
2.23562	37.90
2.25228	37.88
2.26895	37.85
2.28562	37.82
2.30228	37.79
2.31895	37.76
2.33562	37.73
2.35228	37.70
2.36895	37.68
2.38562	37.67
2.40228	37.67
2.41895	37.67
2.43562	37.67
2.45228	37.67
2.46895	37.67
2.48562	37.67
2.50228	37.67
2.51895	37.69
2.53562	37.66
2.55228	37.67
2.56895	37.67
2.58562	37.66
2.60228	37.66
2.61895	37.66
2.63562	37.66
2.65228	37.66
2.66895	37.66
2.68562	37.66
2.70228	37.66
2.71895	37.66
2.73562	37.66
2.75228	37.66
2.76895	37.66
2.78562	37.65
2.80228	37.65
2.81895	37.65
2.83562	37.65
2.85228	37.65
2.86895	37.65
2.88562	37.65
2.90228	37.65
2.91895	37.65
2.93562	37.65
2.95228	37.65
2.96895	37.65
2.98562	37.64
3.00228	37.64
3.01895	37.64
3.03562	37.64
3.05228	37.64
3.06895	37.64
3.08562	37.64
3.10228	37.64
3.11895	37.64
3.13562	37.63
3.15228	37.63
3.16895	37.63
3.18562	37.64
3.20228	37.64
3.21895	37.64
3.23562	37.64
3.25228	37.64
3.26895	37.64
3.28562	37.64
3.30228	37.64
3.31895	37.64
3.33562	37.64
3.35228	37.64
3.36895	37.64
3.38562	37.64
3.40228	37.64
3.41895	37.64
3.43562	37.64
3.45228	37.64
3.46895	37.64
3.48562	37.64
3.50228	37.64
3.51895	37.64
3.53562	37.64
3.55228	37.64
3.56895	37.64
3.58562	37.64
3.60228	37.64
3.61895	37.64
3.63562	37.64
3.65228	37.64
3.66895	37.64
3.68562	37.64
3.70228	37.63
3.71895	37.64
3.73562	37.64
3.75228	37.64
3.76895	37.64
3.78562	37.64
3.80228	37.64
3.81895	37.64
3.83562	37.64
3.85228	37.64
3.86895	37.64
3.88562	37.64
3.90228	37.64
3.91895	37.64
3.93562	37.64
3.95228	37.64
3.96895	37.65
3.98562	37.65

