[Header]
Application Name	LabSolutions
Version	5.110
Data File Name	C:\Users\User\Desktop\GC Analyses\Jack\Nachusa Grasslands Sampling\T0 Timepoint July 12th\T0_07122022_075.gcd
Output Date	3/14/2023
Output Time	3:40:38 PM

[File Information]
Type	Data File
Generated	3/7/2023 10:08:58 PM
Generated by	System Administrator
Modified	3/7/2023 10:15:46 PM
Modified by	System Administrator

[Sample Information]
Operator Name	System Administrator
Acquired	3/7/2023 10:11:45 PM
Sample Type	0:Unknown
Level	0
Sample Name	075
Sample ID	075
ISTD Amount1	1
ISTD Amount2	1
ISTD Amount3	1
ISTD Amount4	1
ISTD Amount5	1
ISTD Amount6	1
ISTD Amount7	1
ISTD Amount8	1
ISTD Amount9	1
ISTD Amount10	1
ISTD Amount11	1
ISTD Amount12	1
ISTD Amount13	1
ISTD Amount14	1
ISTD Amount15	1
ISTD Amount16	1
ISTD Amount17	1
ISTD Amount18	1
ISTD Amount19	1
ISTD Amount20	1
ISTD Amount21	1
ISTD Amount22	1
ISTD Amount23	1
ISTD Amount24	1
ISTD Amount25	1
ISTD Amount26	1
ISTD Amount27	1
ISTD Amount28	1
ISTD Amount29	1
ISTD Amount30	1
ISTD Amount31	1
ISTD Amount32	1
Sample Amount	1
Dilution Factor	1
Vial#	74
Injection Volume	1
Injection Count	1
Bar Code	

[Original Files]
Data File	C:\Users\User\Desktop\GC Analyses\Jack\Nachusa Grasslands Sampling\T0 Timepoint July 12th\T0_07122022_075.gcd
Method File	C:\LabSolutions\Data\GHG_4min_2022\ghg3_togas_w_acet_4 min_new_int.gcm
Batch File	C:\LabSolutions\Data\AutoSamplerTesting\T0_07122022.gcb
Report Format File	c:\LabSolutions\System\DEFAULT.lsr

[File Description]


[Configuration]
Instrument Name	C0B7VH3-Instrument1
Instrument #	1
Line #	1
# of Detectors	3
Detector ID	DET#1	DET#2	DET#3
Detector Name	FID	PTCD	ECD
# of Channels	1	1	1

[Peak Table(Ch1)]
# of Peaks	3
Peak#	R.Time	I.Time	F.Time	Area	Height	A/H	Conc.	Mark	ID#	Name	k'	Plate #	Plate Ht.	Tailing	Resolution	Sep.Factor	Area Ratio	Height Ratio	Conc. %	Norm Conc.
1	1.476	1.435	1.538	29594	13955	2.121	208.933	   	1	CO	0.000	9333	16.072	1.307	0.000	0.000	0	0	34.960	34.960
2	1.567	1.538	1.641	5078	2430	2.090	98.191	 V 	2	CH4	0.062	10420	14.395	0.000	1.496	0.000	0	0	16.430	16.430
3	1.996	1.952	2.484	1157567	548097	2.112	290.518	   	3	CO2	0.353	17306	8.667	1.292	7.026	5.680	0	0	48.611	48.611

[Peak Table(Ch2)]
# of Peaks	0

[Peak Table(Ch3)]
# of Peaks	5
Peak#	R.Time	I.Time	F.Time	Area	Height	A/H	Conc.	Mark	ID#	Name	k'	Plate #	Plate Ht.	Tailing	Resolution	Sep.Factor	Area Ratio	Height Ratio	Conc. %	Norm Conc.
1	2.458	2.323	2.521	1659	439	3.778	0.000	   			0.000	9261	16.198	0.000	0.000	0.000	0	0	0.000	0.000
2	2.546	2.521	2.631	805	189	4.269	0.000	 V 			0.036	3763	39.859	0.000	0.656	0.000	0	0	0.000	0.000
3	2.700	2.645	2.741	465	114	4.090	0.000	   			0.098	2611	57.448	0.000	0.816	2.750	0	0	0.000	0.000
4	2.873	2.741	3.045	19936	4903	4.066	0.509	 V 	1	N2O	0.169	12982	11.555	1.783	1.104	1.712	0	0	100.000	100.000
5	3.247	3.049	3.995	17926	640	28.009	0.000	   	2	SF6	0.321	266	564.717	2.305	0.833	1.903	0	0	0.000	0.000

[Compound Results(Ch1)]
# of IDs	6
ID#	Name	R.Time	Area	Height	Conc.	Curve	3rd	2nd	1st	Constant	Area Ratio	Height Ratio	Conc. %	Norm Conc.
1	CO	1.476	29594	13955	208.933	Linear	0.000000e+00	0.000000e+00	1.416423e+002	0.000000e+00	0	0	34.960	34.960
2	CH4	1.567	5078	2430	98.191	Linear	0.000000e+00	0.000000e+00	5.171738e+001	0.000000e+00	0	0	16.430	16.430
3	CO2	1.996	1157567	548097	290.518	Linear	0.000000e+00	0.000000e+00	3.984494e+003	0.000000e+00	0	0	48.611	48.611
4	Ethylene	0.000	0	0	0.000	Linear	0.000000e+00	0.000000e+00	0.000000e+00	0.000000e+00	0	0	0.000	0.000
5	Acetylene	0.000	0	0	0.000	Linear	0.000000e+00	0.000000e+00	0.000000e+00	0.000000e+00	0	0	0.000	0.000
6	Ethane	0.000	0	0	0.000	Linear	0.000000e+00	0.000000e+00	0.000000e+00	0.000000e+00	0	0	0.000	0.000

[Compound Results(Ch2)]
# of IDs	5
ID#	Name	R.Time	Area	Height	Conc.	Curve	3rd	2nd	1st	Constant	Area Ratio	Height Ratio	Conc. %	Norm Conc.
1	Hydrogen	0.000	0	0	0.000	Linear	0.000000e+00	0.000000e+00	0.000000e+00	0.000000e+00	0	0	0.000	0.000
2	Oxygen	0.000	0	0	0.000	Linear	0.000000e+00	0.000000e+00	0.000000e+00	0.000000e+00	0	0	0.000	0.000
3	Nitrogen	0.000	0	0	0.000	Linear	0.000000e+00	0.000000e+00	0.000000e+00	0.000000e+00	0	0	0.000	0.000
4	Methane	0.000	0	0	0.000	Linear	0.000000e+00	0.000000e+00	0.000000e+00	0.000000e+00	0	0	0.000	0.000
5	Carbon Monoxide	0.000	0	0	0.000	Linear	0.000000e+00	0.000000e+00	0.000000e+00	0.000000e+00	0	0	0.000	0.000

[Compound Results(Ch3)]
# of IDs	2
ID#	Name	R.Time	Area	Height	Conc.	Curve	3rd	2nd	1st	Constant	Area Ratio	Height Ratio	Conc. %	Norm Conc.
1	N2O	2.873	19936	4903	0.509	Linear	0.000000e+00	0.000000e+00	3.915173e+004	0.000000e+00	0	0	100.000	100.000
2	SF6	3.247	17926	640	0.000	Linear	0.000000e+00	0.000000e+00	0.000000e+00	0.000000e+00	0	0	0.000	0.000

[Group Results(Ch1)]
# of Groups	0

[Group Results(Ch2)]
# of Groups	0

[Group Results(Ch3)]
# of Groups	0

[Chromatogram (Ch1)]
Interval(msec)	220
# of Points	1091
Start Time(min)	0.002
End Time(min)	3.998
R.Time (min)	Intensity
0.00167	0
0.00533	7
0.00900	15
0.01267	19
0.01633	17
0.02000	13
0.02367	13
0.02733	14
0.03100	14
0.03467	14
0.03833	12
0.04200	8
0.04567	5
0.04933	2
0.05300	3
0.05667	8
0.06033	13
0.06400	18
0.06767	23
0.07133	30
0.07500	36
0.07867	42
0.08233	50
0.08600	59
0.08967	66
0.09333	69
0.09700	68
0.10067	65
0.10433	58
0.10800	51
0.11167	48
0.11533	48
0.11900	55
0.12267	68
0.12633	80
0.13000	85
0.13367	89
0.13733	96
0.14100	103
0.14467	110
0.14833	116
0.15200	120
0.15567	123
0.15933	122
0.16300	117
0.16667	111
0.17033	105
0.17400	102
0.17767	99
0.18133	97
0.18500	96
0.18867	93
0.19233	93
0.19600	93
0.19967	95
0.20333	96
0.20700	94
0.21067	87
0.21433	81
0.21800	78
0.22167	74
0.22533	68
0.22900	61
0.23267	56
0.23633	49
0.24000	43
0.24367	40
0.24733	41
0.25100	43
0.25467	44
0.25833	43
0.26200	42
0.26567	41
0.26933	41
0.27300	44
0.27667	47
0.28033	47
0.28400	45
0.28767	43
0.29133	40
0.29500	38
0.29867	35
0.30233	28
0.30600	18
0.30967	6
0.31333	0
0.31700	-1
0.32067	-4
0.32433	-6
0.32800	-4
0.33167	-0
0.33533	5
0.33900	13
0.34267	22
0.34633	28
0.35000	29
0.35367	25
0.35733	20
0.36100	16
0.36467	15
0.36833	20
0.37200	24
0.37567	20
0.37933	13
0.38300	12
0.38667	14
0.39033	15
0.39400	16
0.39767	18
0.40133	18
0.40500	14
0.40867	12
0.41233	11
0.41600	12
0.41967	13
0.42333	15
0.42700	19
0.43067	23
0.43433	23
0.43800	24
0.44167	25
0.44533	27
0.44900	28
0.45267	31
0.45633	34
0.46000	30
0.46367	24
0.46733	22
0.47100	21
0.47467	19
0.47833	12
0.48200	3
0.48567	-6
0.48933	-13
0.49300	-16
0.49667	-14
0.50033	-11
0.50400	-5
0.50767	8
0.51133	21
0.51500	28
0.51867	29
0.52233	23
0.52600	12
0.52967	1
0.53333	-3
0.53700	-2
0.54067	1
0.54433	4
0.54800	5
0.55167	7
0.55533	13
0.55900	19
0.56267	23
0.56633	22
0.57000	20
0.57367	19
0.57733	21
0.58100	23
0.58467	26
0.58833	30
0.59200	34
0.59567	36
0.59933	40
0.60300	45
0.60667	47
0.61033	45
0.61400	40
0.61767	35
0.62133	31
0.62500	28
0.62867	24
0.63233	18
0.63600	15
0.63967	16
0.64333	14
0.64700	8
0.65067	2
0.65433	1
0.65800	5
0.66167	12
0.66533	16
0.66900	14
0.67267	12
0.67633	9
0.68000	7
0.68367	3
0.68733	-2
0.69100	-2
0.69467	4
0.69833	14
0.70200	23
0.70567	26
0.70933	25
0.71300	21
0.71667	13
0.72033	9
0.72400	11
0.72767	17
0.73133	28
0.73500	40
0.73867	51
0.74233	57
0.74600	57
0.74967	49
0.75333	40
0.75700	31
0.76067	22
0.76433	14
0.76800	9
0.77167	4
0.77533	6
0.77900	13
0.78267	19
0.78633	20
0.79000	18
0.79367	16
0.79733	17
0.80100	23
0.80467	29
0.80833	34
0.81200	36
0.81567	38
0.81933	37
0.82300	32
0.82667	25
0.83033	18
0.83400	9
0.83767	1
0.84133	-2
0.84500	-0
0.84867	2
0.85233	3
0.85600	6
0.85967	11
0.86333	15
0.86700	19
0.87067	22
0.87433	28
0.87800	36
0.88167	45
0.88533	52
0.88900	55
0.89267	54
0.89633	51
0.90000	42
0.90367	33
0.90733	25
0.91100	17
0.91467	10
0.91833	6
0.92200	4
0.92567	5
0.92933	6
0.93300	6
0.93667	11
0.94033	21
0.94400	36
0.94767	54
0.95133	66
0.95500	70
0.95867	70
0.96233	67
0.96600	63
0.96967	56
0.97333	49
0.97700	44
0.98067	41
0.98433	44
0.98800	53
0.99167	60
0.99533	60
0.99900	59
1.00267	59
1.00633	61
1.01000	64
1.01367	67
1.01733	70
1.02100	73
1.02467	74
1.02833	69
1.03200	59
1.03567	49
1.03933	41
1.04300	38
1.04667	39
1.05033	46
1.05400	57
1.05767	66
1.06133	70
1.06500	68
1.06867	62
1.07233	53
1.07600	44
1.07967	38
1.08333	34
1.08700	31
1.09067	28
1.09433	29
1.09800	32
1.10167	36
1.10533	40
1.10900	41
1.11267	41
1.11633	39
1.12000	38
1.12367	38
1.12733	39
1.13100	40
1.13467	40
1.13833	44
1.14200	48
1.14567	47
1.14933	42
1.15300	35
1.15667	29
1.16033	26
1.16400	26
1.16767	31
1.17133	37
1.17500	41
1.17867	41
1.18233	39
1.18600	39
1.18967	40
1.19333	39
1.19700	37
1.20067	35
1.20433	34
1.20800	35
1.21167	34
1.21533	31
1.21900	31
1.22267	35
1.22633	38
1.23000	38
1.23367	38
1.23733	40
1.24100	40
1.24467	39
1.24833	37
1.25200	36
1.25567	34
1.25933	32
1.26300	30
1.26667	28
1.27033	27
1.27400	27
1.27767	27
1.28133	27
1.28500	28
1.28867	31
1.29233	34
1.29600	37
1.29967	36
1.30333	30
1.30700	22
1.31067	18
1.31433	19
1.31800	20
1.32167	16
1.32533	12
1.32900	11
1.33267	10
1.33633	8
1.34000	8
1.34367	10
1.34733	15
1.35100	17
1.35467	16
1.35833	13
1.36200	13
1.36567	18
1.36933	27
1.37300	32
1.37667	31
1.38033	27
1.38400	25
1.38767	25
1.39133	27
1.39500	28
1.39867	26
1.40233	23
1.40600	19
1.40967	16
1.41333	15
1.41700	16
1.42067	13
1.42433	8
1.42800	1
1.43167	-5
1.43533	-4
1.43900	25
1.44267	135
1.44633	393
1.45000	1002
1.45367	2384
1.45733	4643
1.46100	7328
1.46467	9873
1.46833	11930
1.47200	13335
1.47567	13957
1.47933	13681
1.48300	12520
1.48667	10699
1.49033	8597
1.49400	6579
1.49767	4867
1.50133	3529
1.50500	2541
1.50867	1833
1.51233	1332
1.51600	980
1.51967	728
1.52333	548
1.52700	424
1.53067	341
1.53433	287
1.53800	267
1.54167	315
1.54533	492
1.54900	823
1.55267	1252
1.55633	1684
1.56000	2049
1.56367	2313
1.56733	2447
1.57100	2419
1.57467	2215
1.57833	1876
1.58200	1481
1.58567	1107
1.58933	799
1.59300	567
1.59667	400
1.60033	285
1.60400	209
1.60767	156
1.61133	121
1.61500	99
1.61867	87
1.62233	81
1.62600	74
1.62967	64
1.63333	49
1.63700	35
1.64067	28
1.64433	29
1.64800	29
1.65167	28
1.65533	25
1.65900	21
1.66267	16
1.66633	10
1.67000	8
1.67367	11
1.67733	17
1.68100	26
1.68467	34
1.68833	37
1.69200	34
1.69567	27
1.69933	19
1.70300	12
1.70667	8
1.71033	3
1.71400	-2
1.71767	-3
1.72133	-0
1.72500	0
1.72867	-0
1.73233	3
1.73600	8
1.73967	14
1.74333	16
1.74700	13
1.75067	10
1.75433	10
1.75800	13
1.76167	15
1.76533	12
1.76900	6
1.77267	3
1.77633	3
1.78000	6
1.78367	8
1.78733	8
1.79100	6
1.79467	4
1.79833	5
1.80200	8
1.80567	12
1.80933	13
1.81300	11
1.81667	11
1.82033	15
1.82400	23
1.82767	28
1.83133	27
1.83500	19
1.83867	9
1.84233	4
1.84600	4
1.84967	7
1.85333	10
1.85700	13
1.86067	18
1.86433	24
1.86800	26
1.87167	25
1.87533	20
1.87900	19
1.88267	21
1.88633	19
1.89000	15
1.89367	11
1.89733	6
1.90100	1
1.90467	-3
1.90833	-6
1.91200	-8
1.91567	-5
1.91933	2
1.92300	10
1.92667	17
1.93033	26
1.93400	35
1.93767	39
1.94133	35
1.94500	27
1.94867	22
1.95233	31
1.95600	142
1.95967	774
1.96333	3555
1.96700	12834
1.97067	36651
1.97433	84413
1.97800	160148
1.98167	257231
1.98533	360270
1.98900	451875
1.99267	517722
1.99633	548160
2.00000	539214
2.00367	494217
2.00733	423680
2.01100	341840
2.01467	261986
2.01833	192908
2.02200	138114
2.02567	97260
2.02933	68085
2.03300	47843
2.03667	34044
2.04033	24717
2.04400	18417
2.04767	14133
2.05133	11180
2.05500	9109
2.05867	7624
2.06233	6527
2.06600	5699
2.06967	5060
2.07333	4556
2.07700	4148
2.08067	3808
2.08433	3522
2.08800	3281
2.09167	3077
2.09533	2899
2.09900	2737
2.10267	2585
2.10633	2442
2.11000	2308
2.11367	2187
2.11733	2082
2.12100	1992
2.12467	1909
2.12833	1831
2.13200	1759
2.13567	1693
2.13933	1633
2.14300	1578
2.14667	1528
2.15033	1477
2.15400	1425
2.15767	1377
2.16133	1337
2.16500	1305
2.16867	1277
2.17233	1248
2.17600	1217
2.17967	1186
2.18333	1151
2.18700	1111
2.19067	1071
2.19433	1035
2.19800	1007
2.20167	987
2.20533	972
2.20900	958
2.21267	944
2.21633	927
2.22000	905
2.22367	883
2.22733	863
2.23100	848
2.23467	839
2.23833	831
2.24200	820
2.24567	805
2.24933	788
2.25300	770
2.25667	750
2.26033	735
2.26400	724
2.26767	716
2.27133	710
2.27500	700
2.27867	686
2.28233	667
2.28600	649
2.28967	634
2.29333	624
2.29700	619
2.30067	616
2.30433	616
2.30800	617
2.31167	614
2.31533	604
2.31900	591
2.32267	579
2.32633	568
2.33000	561
2.33367	558
2.33733	557
2.34100	556
2.34467	555
2.34833	554
2.35200	554
2.35567	558
2.35933	561
2.36300	554
2.36667	541
2.37033	528
2.37400	519
2.37767	515
2.38133	511
2.38500	507
2.38867	505
2.39233	502
2.39600	501
2.39967	501
2.40333	500
2.40700	500
2.41067	500
2.41433	498
2.41800	490
2.42167	478
2.42533	470
2.42900	471
2.43267	474
2.43633	472
2.44000	465
2.44367	458
2.44733	453
2.45100	450
2.45467	450
2.45833	452
2.46200	451
2.46567	448
2.46933	441
2.47300	434
2.47667	425
2.48033	415
2.48400	407
2.48767	401
2.49133	399
2.49500	401
2.49867	408
2.50233	413
2.50600	415
2.50967	418
2.51333	419
2.51700	424
2.52067	430
2.52433	433
2.52800	436
2.53167	439
2.53533	436
2.53900	426
2.54267	414
2.54633	405
2.55000	402
2.55367	403
2.55733	404
2.56100	403
2.56467	399
2.56833	396
2.57200	395
2.57567	394
2.57933	393
2.58300	394
2.58667	396
2.59033	396
2.59400	393
2.59767	388
2.60133	384
2.60500	380
2.60867	375
2.61233	375
2.61600	380
2.61967	382
2.62333	381
2.62700	382
2.63067	389
2.63433	396
2.63800	400
2.64167	397
2.64533	386
2.64900	372
2.65267	361
2.65633	356
2.66000	356
2.66367	357
2.66733	357
2.67100	360
2.67467	367
2.67833	376
2.68200	382
2.68567	383
2.68933	379
2.69300	374
2.69667	372
2.70033	373
2.70400	378
2.70767	381
2.71133	381
2.71500	381
2.71867	384
2.72233	388
2.72600	388
2.72967	386
2.73333	383
2.73700	381
2.74067	381
2.74433	380
2.74800	380
2.75167	381
2.75533	379
2.75900	375
2.76267	370
2.76633	366
2.77000	368
2.77367	371
2.77733	372
2.78100	372
2.78467	373
2.78833	373
2.79200	374
2.79567	373
2.79933	370
2.80300	367
2.80667	367
2.81033	368
2.81400	368
2.81767	366
2.82133	365
2.82500	367
2.82867	371
2.83233	372
2.83600	373
2.83967	375
2.84333	379
2.84700	382
2.85067	381
2.85433	376
2.85800	370
2.86167	362
2.86533	357
2.86900	355
2.87267	358
2.87633	363
2.88000	367
2.88367	367
2.88733	364
2.89100	362
2.89467	360
2.89833	360
2.90200	361
2.90567	362
2.90933	368
2.91300	376
2.91667	387
2.92033	397
2.92400	406
2.92767	407
2.93133	402
2.93500	393
2.93867	384
2.94233	374
2.94600	366
2.94967	362
2.95333	361
2.95700	363
2.96067	367
2.96433	372
2.96800	370
2.97167	365
2.97533	361
2.97900	355
2.98267	348
2.98633	344
2.99000	344
2.99367	345
2.99733	346
3.00100	350
3.00467	357
3.00833	365
3.01200	371
3.01567	374
3.01933	376
3.02300	375
3.02667	374
3.03033	376
3.03400	378
3.03767	377
3.04133	372
3.04500	371
3.04867	372
3.05233	373
3.05600	372
3.05967	367
3.06333	363
3.06700	364
3.07067	369
3.07433	371
3.07800	368
3.08167	362
3.08533	362
3.08900	366
3.09267	370
3.09633	372
3.10000	370
3.10367	369
3.10733	371
3.11100	370
3.11467	366
3.11833	363
3.12200	365
3.12567	366
3.12933	364
3.13300	365
3.13667	369
3.14033	372
3.14400	370
3.14767	367
3.15133	364
3.15500	360
3.15867	351
3.16233	339
3.16600	329
3.16967	323
3.17333	321
3.17700	322
3.18067	323
3.18433	327
3.18800	333
3.19167	340
3.19533	342
3.19900	340
3.20267	337
3.20633	336
3.21000	336
3.21367	339
3.21733	339
3.22100	339
3.22467	336
3.22833	332
3.23200	331
3.23567	332
3.23933	333
3.24300	332
3.24667	331
3.25033	334
3.25400	335
3.25767	334
3.26133	336
3.26500	337
3.26867	335
3.27233	335
3.27600	337
3.27967	338
3.28333	341
3.28700	345
3.29067	347
3.29433	351
3.29800	354
3.30167	357
3.30533	358
3.30900	357
3.31267	353
3.31633	345
3.32000	337
3.32367	335
3.32733	336
3.33100	339
3.33467	340
3.33833	339
3.34200	334
3.34567	328
3.34933	324
3.35300	323
3.35667	323
3.36033	322
3.36400	318
3.36767	313
3.37133	305
3.37500	297
3.37867	295
3.38233	300
3.38600	308
3.38967	316
3.39333	323
3.39700	329
3.40067	331
3.40433	330
3.40800	331
3.41167	331
3.41533	329
3.41900	328
3.42267	327
3.42633	327
3.43000	323
3.43367	322
3.43733	320
3.44100	319
3.44467	319
3.44833	317
3.45200	314
3.45567	311
3.45933	311
3.46300	313
3.46667	314
3.47033	311
3.47400	304
3.47767	297
3.48133	291
3.48500	287
3.48867	287
3.49233	286
3.49600	284
3.49967	282
3.50333	281
3.50700	280
3.51067	283
3.51433	286
3.51800	290
3.52167	294
3.52533	297
3.52900	302
3.53267	309
3.53633	318
3.54000	322
3.54367	319
3.54733	311
3.55100	302
3.55467	297
3.55833	295
3.56200	295
3.56567	294
3.56933	292
3.57300	287
3.57667	285
3.58033	289
3.58400	292
3.58767	295
3.59133	300
3.59500	306
3.59867	308
3.60233	304
3.60600	297
3.60967	291
3.61333	287
3.61700	285
3.62067	284
3.62433	282
3.62800	280
3.63167	276
3.63533	268
3.63900	258
3.64267	251
3.64633	246
3.65000	244
3.65367	243
3.65733	245
3.66100	250
3.66467	256
3.66833	262
3.67200	265
3.67567	265
3.67933	264
3.68300	262
3.68667	261
3.69033	263
3.69400	268
3.69767	272
3.70133	279
3.70500	283
3.70867	282
3.71233	279
3.71600	275
3.71967	274
3.72333	273
3.72700	273
3.73067	271
3.73433	267
3.73800	266
3.74167	269
3.74533	270
3.74900	268
3.75267	262
3.75633	255
3.76000	252
3.76367	254
3.76733	256
3.77100	254
3.77467	248
3.77833	241
3.78200	236
3.78567	236
3.78933	242
3.79300	250
3.79667	255
3.80033	262
3.80400	265
3.80767	263
3.81133	257
3.81500	253
3.81867	250
3.82233	244
3.82600	239
3.82967	234
3.83333	231
3.83700	232
3.84067	235
3.84433	237
3.84800	237
3.85167	240
3.85533	242
3.85900	242
3.86267	242
3.86633	243
3.87000	243
3.87367	239
3.87733	233
3.88100	230
3.88467	230
3.88833	235
3.89200	241
3.89567	243
3.89933	240
3.90300	235
3.90667	228
3.91033	225
3.91400	228
3.91767	236
3.92133	242
3.92500	243
3.92867	241
3.93233	239
3.93600	241
3.93967	247
3.94333	250
3.94700	251
3.95067	250
3.95433	248
3.95800	242
3.96167	233
3.96533	226
3.96900	221
3.97267	219
3.97633	220
3.98000	222
3.98367	222
3.98733	220
3.99100	217
3.99467	212
3.99833	205

[Chromatogram (Ch2)]
Interval(msec)	220
# of Points	1091
Start Time(min)	0.002
End Time(min)	3.998
R.Time (min)	Intensity
0.00167	-0
0.00533	-0
0.00900	0
0.01267	0
0.01633	0
0.02000	0
0.02367	0
0.02733	-0
0.03100	-0
0.03467	-0
0.03833	0
0.04200	0
0.04567	0
0.04933	0
0.05300	0
0.05667	-0
0.06033	-1
0.06400	-1
0.06767	-1
0.07133	-2
0.07500	-2
0.07867	-2
0.08233	-2
0.08600	-2
0.08967	-2
0.09333	-2
0.09700	-2
0.10067	-2
0.10433	-2
0.10800	-2
0.11167	-2
0.11533	-2
0.11900	-2
0.12267	-1
0.12633	-1
0.13000	-2
0.13367	-2
0.13733	-2
0.14100	-2
0.14467	-2
0.14833	-2
0.15200	-2
0.15567	-2
0.15933	-2
0.16300	-2
0.16667	-2
0.17033	-2
0.17400	-2
0.17767	-2
0.18133	-2
0.18500	-2
0.18867	-2
0.19233	-2
0.19600	-1
0.19967	-1
0.20333	-1
0.20700	-0
0.21067	-0
0.21433	0
0.21800	0
0.22167	0
0.22533	0
0.22900	1
0.23267	0
0.23633	0
0.24000	1
0.24367	1
0.24733	1
0.25100	1
0.25467	1
0.25833	1
0.26200	0
0.26567	0
0.26933	0
0.27300	-0
0.27667	-0
0.28033	-1
0.28400	-1
0.28767	-1
0.29133	-1
0.29500	-1
0.29867	-1
0.30233	-1
0.30600	-1
0.30967	-1
0.31333	-1
0.31700	-1
0.32067	-1
0.32433	-2
0.32800	-2
0.33167	-2
0.33533	-2
0.33900	-3
0.34267	-3
0.34633	-3
0.35000	-3
0.35367	-2
0.35733	-2
0.36100	-2
0.36467	-2
0.36833	-2
0.37200	-2
0.37567	-1
0.37933	-1
0.38300	-1
0.38667	-1
0.39033	-1
0.39400	-0
0.39767	-0
0.40133	-0
0.40500	-0
0.40867	-0
0.41233	0
0.41600	0
0.41967	1
0.42333	1
0.42700	1
0.43067	1
0.43433	1
0.43800	0
0.44167	0
0.44533	-0
0.44900	-0
0.45267	-1
0.45633	-1
0.46000	-1
0.46367	-1
0.46733	-1
0.47100	-1
0.47467	-1
0.47833	-1
0.48200	-1
0.48567	-1
0.48933	-1
0.49300	-1
0.49667	-1
0.50033	-1
0.50400	-1
0.50767	-1
0.51133	-2
0.51500	-2
0.51867	-2
0.52233	-2
0.52600	-1
0.52967	-1
0.53333	-1
0.53700	-1
0.54067	-1
0.54433	-1
0.54800	-2
0.55167	-2
0.55533	-2
0.55900	-2
0.56267	-2
0.56633	-2
0.57000	-2
0.57367	-2
0.57733	-2
0.58100	-1
0.58467	-1
0.58833	-1
0.59200	-1
0.59567	-1
0.59933	-1
0.60300	-1
0.60667	-1
0.61033	-1
0.61400	-1
0.61767	-1
0.62133	-1
0.62500	-1
0.62867	-1
0.63233	-1
0.63600	-1
0.63967	-1
0.64333	-0
0.64700	-0
0.65067	-1
0.65433	-1
0.65800	-2
0.66167	-2
0.66533	-3
0.66900	-3
0.67267	-4
0.67633	-4
0.68000	-4
0.68367	-5
0.68733	-5
0.69100	-5
0.69467	-5
0.69833	-5
0.70200	-5
0.70567	-5
0.70933	-4
0.71300	-4
0.71667	-4
0.72033	-4
0.72400	-4
0.72767	-4
0.73133	-4
0.73500	-4
0.73867	-3
0.74233	-3
0.74600	-3
0.74967	-3
0.75333	-2
0.75700	-2
0.76067	-2
0.76433	-2
0.76800	-2
0.77167	-2
0.77533	-2
0.77900	-2
0.78267	-2
0.78633	-2
0.79000	-2
0.79367	-2
0.79733	-2
0.80100	-2
0.80467	-2
0.80833	-2
0.81200	-2
0.81567	-2
0.81933	-2
0.82300	-2
0.82667	-2
0.83033	-2
0.83400	-3
0.83767	-3
0.84133	-3
0.84500	-3
0.84867	-3
0.85233	-3
0.85600	-4
0.85967	-4
0.86333	-4
0.86700	-5
0.87067	-5
0.87433	-5
0.87800	-5
0.88167	-5
0.88533	-5
0.88900	-4
0.89267	-4
0.89633	-4
0.90000	-4
0.90367	-4
0.90733	-4
0.91100	-3
0.91467	-3
0.91833	-3
0.92200	-3
0.92567	-3
0.92933	-3
0.93300	-3
0.93667	-3
0.94033	-3
0.94400	-3
0.94767	-3
0.95133	-3
0.95500	-3
0.95867	-3
0.96233	-3
0.96600	-3
0.96967	-3
0.97333	-2
0.97700	-2
0.98067	-2
0.98433	-2
0.98800	-2
0.99167	-2
0.99533	-2
0.99900	-2
1.00267	-2
1.00633	-2
1.01000	-2
1.01367	-2
1.01733	-2
1.02100	-2
1.02467	-3
1.02833	-3
1.03200	-3
1.03567	-2
1.03933	-3
1.04300	-3
1.04667	-3
1.05033	-3
1.05400	-3
1.05767	-3
1.06133	-3
1.06500	-2
1.06867	-2
1.07233	-2
1.07600	-2
1.07967	-2
1.08333	-3
1.08700	-3
1.09067	-3
1.09433	-3
1.09800	-3
1.10167	-3
1.10533	-3
1.10900	-3
1.11267	-3
1.11633	-3
1.12000	-4
1.12367	-4
1.12733	-4
1.13100	-4
1.13467	-4
1.13833	-4
1.14200	-4
1.14567	-4
1.14933	-4
1.15300	-4
1.15667	-4
1.16033	-4
1.16400	-3
1.16767	-3
1.17133	-3
1.17500	-2
1.17867	-2
1.18233	-1
1.18600	-1
1.18967	-1
1.19333	-1
1.19700	-1
1.20067	-1
1.20433	-1
1.20800	-1
1.21167	-1
1.21533	-1
1.21900	-1
1.22267	-2
1.22633	-2
1.23000	-2
1.23367	-3
1.23733	-3
1.24100	-3
1.24467	-3
1.24833	-4
1.25200	-4
1.25567	-4
1.25933	-4
1.26300	-5
1.26667	-5
1.27033	-5
1.27400	-5
1.27767	-5
1.28133	-5
1.28500	-5
1.28867	-4
1.29233	-4
1.29600	-3
1.29967	-3
1.30333	-3
1.30700	-4
1.31067	-4
1.31433	-4
1.31800	-4
1.32167	-4
1.32533	-4
1.32900	-4
1.33267	-4
1.33633	-4
1.34000	-3
1.34367	-3
1.34733	-3
1.35100	-2
1.35467	-2
1.35833	-2
1.36200	-2
1.36567	-2
1.36933	-2
1.37300	-1
1.37667	-1
1.38033	-1
1.38400	-1
1.38767	-1
1.39133	-1
1.39500	-2
1.39867	-2
1.40233	-2
1.40600	-2
1.40967	-2
1.41333	-2
1.41700	-2
1.42067	-2
1.42433	-2
1.42800	-2
1.43167	-2
1.43533	-2
1.43900	-2
1.44267	-2
1.44633	-2
1.45000	-2
1.45367	-2
1.45733	-2
1.46100	-2
1.46467	-3
1.46833	-3
1.47200	-3
1.47567	-3
1.47933	-4
1.48300	-4
1.48667	-4
1.49033	-4
1.49400	-3
1.49767	-3
1.50133	-3
1.50500	-3
1.50867	-3
1.51233	-3
1.51600	-3
1.51967	-3
1.52333	-3
1.52700	-3
1.53067	-3
1.53433	-4
1.53800	-4
1.54167	-4
1.54533	-4
1.54900	-4
1.55267	-4
1.55633	-4
1.56000	-3
1.56367	-3
1.56733	-3
1.57100	-2
1.57467	-2
1.57833	-2
1.58200	-2
1.58567	-2
1.58933	-3
1.59300	-3
1.59667	-3
1.60033	-4
1.60400	-5
1.60767	-7
1.61133	-9
1.61500	-11
1.61867	-13
1.62233	-16
1.62600	-19
1.62967	-22
1.63333	-26
1.63700	-29
1.64067	-33
1.64433	-37
1.64800	-41
1.65167	-45
1.65533	-49
1.65900	-53
1.66267	-57
1.66633	-62
1.67000	-66
1.67367	-71
1.67733	-76
1.68100	-81
1.68467	-86
1.68833	-90
1.69200	-93
1.69567	-96
1.69933	-99
1.70300	-101
1.70667	-103
1.71033	-106
1.71400	-108
1.71767	-109
1.72133	-111
1.72500	-112
1.72867	-112
1.73233	-112
1.73600	-112
1.73967	-112
1.74333	-111
1.74700	-111
1.75067	-111
1.75433	-112
1.75800	-113
1.76167	-114
1.76533	-116
1.76900	-117
1.77267	-118
1.77633	-118
1.78000	-118
1.78367	-119
1.78733	-119
1.79100	-118
1.79467	-118
1.79833	-118
1.80200	-118
1.80567	-118
1.80933	-118
1.81300	-118
1.81667	-119
1.82033	-119
1.82400	-119
1.82767	-120
1.83133	-120
1.83500	-120
1.83867	-119
1.84233	-119
1.84600	-119
1.84967	-119
1.85333	-119
1.85700	-119
1.86067	-119
1.86433	-119
1.86800	-119
1.87167	-119
1.87533	-120
1.87900	-120
1.88267	-120
1.88633	-121
1.89000	-121
1.89367	-121
1.89733	-120
1.90100	-120
1.90467	-119
1.90833	-119
1.91200	-119
1.91567	-119
1.91933	-118
1.92300	-118
1.92667	-118
1.93033	-117
1.93400	-117
1.93767	-116
1.94133	-116
1.94500	-116
1.94867	-116
1.95233	-115
1.95600	-115
1.95967	-115
1.96333	-115
1.96700	-115
1.97067	-115
1.97433	-115
1.97800	-114
1.98167	-113
1.98533	-113
1.98900	-112
1.99267	-113
1.99633	-113
2.00000	-113
2.00367	-113
2.00733	-113
2.01100	-113
2.01467	-113
2.01833	-112
2.02200	-112
2.02567	-111
2.02933	-111
2.03300	-110
2.03667	-110
2.04033	-109
2.04400	-109
2.04767	-108
2.05133	-107
2.05500	-106
2.05867	-105
2.06233	-105
2.06600	-104
2.06967	-104
2.07333	-104
2.07700	-104
2.08067	-103
2.08433	-103
2.08800	-103
2.09167	-103
2.09533	-103
2.09900	-103
2.10267	-102
2.10633	-102
2.11000	-101
2.11367	-101
2.11733	-101
2.12100	-101
2.12467	-101
2.12833	-101
2.13200	-101
2.13567	-100
2.13933	-100
2.14300	-100
2.14667	-100
2.15033	-100
2.15400	-100
2.15767	-100
2.16133	-100
2.16500	-99
2.16867	-99
2.17233	-99
2.17600	-98
2.17967	-97
2.18333	-97
2.18700	-96
2.19067	-96
2.19433	-95
2.19800	-95
2.20167	-95
2.20533	-95
2.20900	-95
2.21267	-95
2.21633	-95
2.22000	-95
2.22367	-94
2.22733	-94
2.23100	-94
2.23467	-93
2.23833	-92
2.24200	-91
2.24567	-90
2.24933	-89
2.25300	-90
2.25667	-90
2.26033	-90
2.26400	-91
2.26767	-91
2.27133	-91
2.27500	-91
2.27867	-90
2.28233	-89
2.28600	-88
2.28967	-88
2.29333	-87
2.29700	-87
2.30067	-86
2.30433	-86
2.30800	-87
2.31167	-87
2.31533	-87
2.31900	-87
2.32267	-87
2.32633	-86
2.33000	-85
2.33367	-84
2.33733	-83
2.34100	-82
2.34467	-81
2.34833	-80
2.35200	-79
2.35567	-79
2.35933	-79
2.36300	-79
2.36667	-79
2.37033	-78
2.37400	-77
2.37767	-75
2.38133	-73
2.38500	-69
2.38867	-66
2.39233	-61
2.39600	-57
2.39967	-53
2.40333	-48
2.40700	-44
2.41067	-39
2.41433	-36
2.41800	-32
2.42167	-29
2.42533	-27
2.42900	-24
2.43267	-22
2.43633	-20
2.44000	-17
2.44367	-15
2.44733	-14
2.45100	-12
2.45467	-10
2.45833	-8
2.46200	-7
2.46567	-5
2.46933	-3
2.47300	-2
2.47667	-1
2.48033	-0
2.48400	1
2.48767	1
2.49133	2
2.49500	3
2.49867	4
2.50233	5
2.50600	6
2.50967	7
2.51333	8
2.51700	9
2.52067	10
2.52433	11
2.52800	12
2.53167	13
2.53533	14
2.53900	14
2.54267	15
2.54633	15
2.55000	15
2.55367	15
2.55733	15
2.56100	15
2.56467	15
2.56833	15
2.57200	15
2.57567	15
2.57933	15
2.58300	14
2.58667	15
2.59033	15
2.59400	15
2.59767	15
2.60133	15
2.60500	15
2.60867	15
2.61233	16
2.61600	16
2.61967	16
2.62333	17
2.62700	17
2.63067	17
2.63433	18
2.63800	18
2.64167	18
2.64533	17
2.64900	17
2.65267	17
2.65633	17
2.66000	18
2.66367	18
2.66733	18
2.67100	18
2.67467	19
2.67833	19
2.68200	19
2.68567	20
2.68933	21
2.69300	21
2.69667	22
2.70033	22
2.70400	22
2.70767	23
2.71133	23
2.71500	22
2.71867	22
2.72233	22
2.72600	21
2.72967	21
2.73333	21
2.73700	21
2.74067	21
2.74433	21
2.74800	22
2.75167	22
2.75533	23
2.75900	23
2.76267	23
2.76633	24
2.77000	24
2.77367	24
2.77733	24
2.78100	25
2.78467	25
2.78833	25
2.79200	25
2.79567	25
2.79933	25
2.80300	25
2.80667	25
2.81033	25
2.81400	25
2.81767	25
2.82133	25
2.82500	24
2.82867	24
2.83233	24
2.83600	23
2.83967	22
2.84333	19
2.84700	15
2.85067	8
2.85433	-2
2.85800	-15
2.86167	-32
2.86533	-53
2.86900	-78
2.87267	-108
2.87633	-142
2.88000	-180
2.88367	-222
2.88733	-267
2.89100	-314
2.89467	-364
2.89833	-416
2.90200	-469
2.90567	-523
2.90933	-577
2.91300	-631
2.91667	-685
2.92033	-739
2.92400	-791
2.92767	-843
2.93133	-896
2.93500	-954
2.93867	-1014
2.94233	-1067
2.94600	-1104
2.94967	-1115
2.95333	-1101
2.95700	-1062
2.96067	-1005
2.96433	-935
2.96800	-857
2.97167	-775
2.97533	-695
2.97900	-617
2.98267	-544
2.98633	-476
2.99000	-414
2.99367	-359
2.99733	-310
3.00100	-266
3.00467	-228
3.00833	-194
3.01200	-165
3.01567	-140
3.01933	-118
3.02300	-99
3.02667	-83
3.03033	-69
3.03400	-57
3.03767	-47
3.04133	-38
3.04500	-31
3.04867	-25
3.05233	-20
3.05600	-15
3.05967	-11
3.06333	-8
3.06700	-5
3.07067	-3
3.07433	-1
3.07800	1
3.08167	2
3.08533	4
3.08900	5
3.09267	6
3.09633	7
3.10000	8
3.10367	9
3.10733	10
3.11100	11
3.11467	12
3.11833	12
3.12200	13
3.12567	13
3.12933	14
3.13300	14
3.13667	14
3.14033	15
3.14400	15
3.14767	15
3.15133	15
3.15500	16
3.15867	16
3.16233	16
3.16600	17
3.16967	17
3.17333	17
3.17700	17
3.18067	17
3.18433	17
3.18800	18
3.19167	18
3.19533	18
3.19900	18
3.20267	18
3.20633	18
3.21000	18
3.21367	18
3.21733	17
3.22100	17
3.22467	17
3.22833	17
3.23200	18
3.23567	18
3.23933	18
3.24300	19
3.24667	19
3.25033	19
3.25400	19
3.25767	19
3.26133	19
3.26500	19
3.26867	19
3.27233	20
3.27600	20
3.27967	21
3.28333	21
3.28700	22
3.29067	22
3.29433	23
3.29800	23
3.30167	24
3.30533	24
3.30900	24
3.31267	24
3.31633	24
3.32000	24
3.32367	24
3.32733	24
3.33100	24
3.33467	24
3.33833	24
3.34200	24
3.34567	24
3.34933	24
3.35300	24
3.35667	24
3.36033	24
3.36400	24
3.36767	24
3.37133	24
3.37500	24
3.37867	24
3.38233	24
3.38600	24
3.38967	24
3.39333	24
3.39700	24
3.40067	24
3.40433	24
3.40800	23
3.41167	23
3.41533	23
3.41900	23
3.42267	23
3.42633	23
3.43000	23
3.43367	22
3.43733	22
3.44100	22
3.44467	22
3.44833	23
3.45200	23
3.45567	23
3.45933	23
3.46300	24
3.46667	24
3.47033	24
3.47400	25
3.47767	25
3.48133	25
3.48500	25
3.48867	25
3.49233	24
3.49600	24
3.49967	24
3.50333	24
3.50700	24
3.51067	24
3.51433	24
3.51800	24
3.52167	24
3.52533	24
3.52900	24
3.53267	24
3.53633	24
3.54000	24
3.54367	23
3.54733	23
3.55100	23
3.55467	23
3.55833	23
3.56200	23
3.56567	23
3.56933	23
3.57300	23
3.57667	23
3.58033	23
3.58400	23
3.58767	23
3.59133	24
3.59500	24
3.59867	24
3.60233	24
3.60600	24
3.60967	24
3.61333	25
3.61700	25
3.62067	25
3.62433	25
3.62800	25
3.63167	25
3.63533	25
3.63900	25
3.64267	25
3.64633	25
3.65000	25
3.65367	25
3.65733	25
3.66100	25
3.66467	25
3.66833	25
3.67200	26
3.67567	26
3.67933	26
3.68300	26
3.68667	26
3.69033	26
3.69400	26
3.69767	26
3.70133	26
3.70500	26
3.70867	26
3.71233	26
3.71600	26
3.71967	26
3.72333	26
3.72700	25
3.73067	25
3.73433	25
3.73800	25
3.74167	25
3.74533	25
3.74900	25
3.75267	25
3.75633	25
3.76000	25
3.76367	25
3.76733	24
3.77100	24
3.77467	24
3.77833	24
3.78200	23
3.78567	23
3.78933	23
3.79300	23
3.79667	22
3.80033	22
3.80400	22
3.80767	22
3.81133	22
3.81500	22
3.81867	22
3.82233	23
3.82600	23
3.82967	23
3.83333	23
3.83700	23
3.84067	23
3.84433	23
3.84800	23
3.85167	23
3.85533	23
3.85900	23
3.86267	23
3.86633	23
3.87000	23
3.87367	22
3.87733	22
3.88100	22
3.88467	22
3.88833	22
3.89200	22
3.89567	23
3.89933	23
3.90300	23
3.90667	23
3.91033	23
3.91400	23
3.91767	23
3.92133	23
3.92500	23
3.92867	23
3.93233	23
3.93600	23
3.93967	23
3.94333	23
3.94700	23
3.95067	23
3.95433	23
3.95800	23
3.96167	23
3.96533	23
3.96900	23
3.97267	23
3.97633	23
3.98000	23
3.98367	23
3.98733	23
3.99100	23
3.99467	23
3.99833	23

[Chromatogram (Ch3)]
Interval(msec)	220
# of Points	1091
Start Time(min)	0.002
End Time(min)	3.998
R.Time (min)	Intensity
0.00167	-2
0.00533	-4
0.00900	-4
0.01267	-4
0.01633	-2
0.02000	-2
0.02367	-3
0.02733	-4
0.03100	-4
0.03467	-1
0.03833	-0
0.04200	-2
0.04567	-2
0.04933	-3
0.05300	-4
0.05667	-4
0.06033	-2
0.06400	1
0.06767	-0
0.07133	-1
0.07500	-2
0.07867	-3
0.08233	-6
0.08600	-8
0.08967	-8
0.09333	-7
0.09700	-5
0.10067	-3
0.10433	-1
0.10800	-0
0.11167	2
0.11533	3
0.11900	0
0.12267	-1
0.12633	0
0.13000	2
0.13367	1
0.13733	-0
0.14100	0
0.14467	1
0.14833	0
0.15200	1
0.15567	2
0.15933	1
0.16300	-1
0.16667	-4
0.17033	-5
0.17400	-3
0.17767	-2
0.18133	-1
0.18500	-2
0.18867	-4
0.19233	-5
0.19600	-5
0.19967	-2
0.20333	2
0.20700	3
0.21067	2
0.21433	-1
0.21800	-3
0.22167	-3
0.22533	-1
0.22900	-2
0.23267	1
0.23633	3
0.24000	3
0.24367	5
0.24733	7
0.25100	7
0.25467	5
0.25833	5
0.26200	4
0.26567	3
0.26933	6
0.27300	7
0.27667	9
0.28033	8
0.28400	7
0.28767	7
0.29133	6
0.29500	5
0.29867	5
0.30233	5
0.30600	5
0.30967	6
0.31333	8
0.31700	8
0.32067	5
0.32433	3
0.32800	4
0.33167	5
0.33533	6
0.33900	9
0.34267	11
0.34633	12
0.35000	12
0.35367	11
0.35733	12
0.36100	11
0.36467	11
0.36833	11
0.37200	10
0.37567	11
0.37933	11
0.38300	11
0.38667	11
0.39033	13
0.39400	14
0.39767	16
0.40133	18
0.40500	22
0.40867	22
0.41233	21
0.41600	21
0.41967	20
0.42333	18
0.42700	16
0.43067	14
0.43433	15
0.43800	15
0.44167	16
0.44533	18
0.44900	22
0.45267	21
0.45633	20
0.46000	20
0.46367	20
0.46733	21
0.47100	20
0.47467	16
0.47833	15
0.48200	13
0.48567	12
0.48933	12
0.49300	13
0.49667	13
0.50033	13
0.50400	14
0.50767	14
0.51133	16
0.51500	18
0.51867	20
0.52233	19
0.52600	16
0.52967	16
0.53333	19
0.53700	20
0.54067	22
0.54433	25
0.54800	25
0.55167	25
0.55533	23
0.55900	23
0.56267	21
0.56633	20
0.57000	20
0.57367	20
0.57733	21
0.58100	21
0.58467	19
0.58833	19
0.59200	19
0.59567	22
0.59933	24
0.60300	27
0.60667	27
0.61033	27
0.61400	27
0.61767	25
0.62133	25
0.62500	25
0.62867	23
0.63233	24
0.63600	26
0.63967	26
0.64333	27
0.64700	27
0.65067	28
0.65433	27
0.65800	26
0.66167	28
0.66533	28
0.66900	27
0.67267	28
0.67633	29
0.68000	27
0.68367	27
0.68733	29
0.69100	31
0.69467	31
0.69833	32
0.70200	33
0.70567	32
0.70933	31
0.71300	33
0.71667	34
0.72033	35
0.72400	31
0.72767	29
0.73133	30
0.73500	30
0.73867	31
0.74233	33
0.74600	33
0.74967	30
0.75333	29
0.75700	29
0.76067	32
0.76433	34
0.76800	31
0.77167	27
0.77533	24
0.77900	23
0.78267	25
0.78633	27
0.79000	30
0.79367	32
0.79733	33
0.80100	32
0.80467	30
0.80833	29
0.81200	30
0.81567	31
0.81933	32
0.82300	35
0.82667	34
0.83033	33
0.83400	32
0.83767	30
0.84133	29
0.84500	31
0.84867	31
0.85233	31
0.85600	31
0.85967	30
0.86333	31
0.86700	32
0.87067	32
0.87433	31
0.87800	30
0.88167	31
0.88533	34
0.88900	35
0.89267	36
0.89633	35
0.90000	34
0.90367	35
0.90733	37
0.91100	40
0.91467	41
0.91833	40
0.92200	38
0.92567	37
0.92933	36
0.93300	36
0.93667	36
0.94033	38
0.94400	42
0.94767	44
0.95133	44
0.95500	44
0.95867	45
0.96233	47
0.96600	45
0.96967	42
0.97333	41
0.97700	38
0.98067	34
0.98433	33
0.98800	35
0.99167	36
0.99533	35
0.99900	35
1.00267	36
1.00633	36
1.01000	36
1.01367	34
1.01733	34
1.02100	34
1.02467	34
1.02833	33
1.03200	33
1.03567	35
1.03933	36
1.04300	37
1.04667	38
1.05033	37
1.05400	36
1.05767	37
1.06133	39
1.06500	42
1.06867	44
1.07233	45
1.07600	44
1.07967	43
1.08333	44
1.08700	46
1.09067	45
1.09433	42
1.09800	41
1.10167	41
1.10533	41
1.10900	40
1.11267	39
1.11633	36
1.12000	33
1.12367	34
1.12733	35
1.13100	38
1.13467	40
1.13833	43
1.14200	44
1.14567	43
1.14933	43
1.15300	42
1.15667	42
1.16033	41
1.16400	41
1.16767	39
1.17133	38
1.17500	41
1.17867	43
1.18233	43
1.18600	43
1.18967	45
1.19333	46
1.19700	44
1.20067	44
1.20433	47
1.20800	48
1.21167	48
1.21533	47
1.21900	46
1.22267	45
1.22633	44
1.23000	41
1.23367	39
1.23733	38
1.24100	38
1.24467	35
1.24833	35
1.25200	36
1.25567	37
1.25933	39
1.26300	40
1.26667	41
1.27033	41
1.27400	41
1.27767	40
1.28133	41
1.28500	42
1.28867	44
1.29233	44
1.29600	45
1.29967	46
1.30333	45
1.30700	45
1.31067	47
1.31433	47
1.31800	47
1.32167	45
1.32533	44
1.32900	47
1.33267	47
1.33633	44
1.34000	45
1.34367	46
1.34733	45
1.35100	44
1.35467	45
1.35833	44
1.36200	42
1.36567	40
1.36933	41
1.37300	41
1.37667	39
1.38033	37
1.38400	36
1.38767	38
1.39133	39
1.39500	37
1.39867	36
1.40233	36
1.40600	39
1.40967	42
1.41333	43
1.41700	45
1.42067	47
1.42433	48
1.42800	47
1.43167	47
1.43533	48
1.43900	47
1.44267	43
1.44633	40
1.45000	41
1.45367	42
1.45733	42
1.46100	43
1.46467	46
1.46833	45
1.47200	43
1.47567	42
1.47933	44
1.48300	44
1.48667	45
1.49033	46
1.49400	45
1.49767	46
1.50133	47
1.50500	49
1.50867	47
1.51233	47
1.51600	45
1.51967	44
1.52333	44
1.52700	44
1.53067	42
1.53433	43
1.53800	43
1.54167	46
1.54533	49
1.54900	48
1.55267	45
1.55633	41
1.56000	39
1.56367	39
1.56733	39
1.57100	39
1.57467	40
1.57833	41
1.58200	43
1.58567	45
1.58933	49
1.59300	50
1.59667	49
1.60033	49
1.60400	51
1.60767	53
1.61133	53
1.61500	51
1.61867	50
1.62233	49
1.62600	51
1.62967	52
1.63333	51
1.63700	50
1.64067	49
1.64433	52
1.64800	56
1.65167	56
1.65533	55
1.65900	54
1.66267	51
1.66633	50
1.67000	51
1.67367	52
1.67733	54
1.68100	57
1.68467	60
1.68833	59
1.69200	58
1.69567	58
1.69933	59
1.70300	60
1.70667	63
1.71033	63
1.71400	64
1.71767	64
1.72133	64
1.72500	65
1.72867	67
1.73233	69
1.73600	70
1.73967	71
1.74333	71
1.74700	69
1.75067	69
1.75433	69
1.75800	69
1.76167	69
1.76533	68
1.76900	67
1.77267	67
1.77633	69
1.78000	71
1.78367	71
1.78733	73
1.79100	74
1.79467	75
1.79833	76
1.80200	77
1.80567	78
1.80933	77
1.81300	77
1.81667	77
1.82033	78
1.82400	79
1.82767	79
1.83133	78
1.83500	80
1.83867	80
1.84233	78
1.84600	75
1.84967	75
1.85333	76
1.85700	78
1.86067	79
1.86433	79
1.86800	81
1.87167	81
1.87533	80
1.87900	80
1.88267	82
1.88633	83
1.89000	83
1.89367	83
1.89733	84
1.90100	83
1.90467	81
1.90833	80
1.91200	80
1.91567	82
1.91933	86
1.92300	89
1.92667	89
1.93033	90
1.93400	92
1.93767	92
1.94133	92
1.94500	91
1.94867	90
1.95233	89
1.95600	91
1.95967	95
1.96333	95
1.96700	97
1.97067	98
1.97433	97
1.97800	97
1.98167	99
1.98533	102
1.98900	102
1.99267	101
1.99633	101
2.00000	100
2.00367	100
2.00733	99
2.01100	100
2.01467	102
2.01833	106
2.02200	108
2.02567	109
2.02933	109
2.03300	108
2.03667	105
2.04033	104
2.04400	107
2.04767	111
2.05133	113
2.05500	114
2.05867	116
2.06233	120
2.06600	121
2.06967	120
2.07333	120
2.07700	121
2.08067	122
2.08433	123
2.08800	124
2.09167	124
2.09533	124
2.09900	126
2.10267	127
2.10633	130
2.11000	134
2.11367	137
2.11733	136
2.12100	136
2.12467	136
2.12833	134
2.13200	135
2.13567	135
2.13933	135
2.14300	135
2.14667	136
2.15033	137
2.15400	139
2.15767	139
2.16133	140
2.16500	142
2.16867	143
2.17233	145
2.17600	147
2.17967	150
2.18333	150
2.18700	151
2.19067	153
2.19433	153
2.19800	154
2.20167	155
2.20533	156
2.20900	155
2.21267	157
2.21633	160
2.22000	161
2.22367	163
2.22733	164
2.23100	164
2.23467	164
2.23833	165
2.24200	167
2.24567	169
2.24933	171
2.25300	171
2.25667	171
2.26033	171
2.26400	172
2.26767	174
2.27133	176
2.27500	177
2.27867	178
2.28233	180
2.28600	182
2.28967	185
2.29333	187
2.29700	188
2.30067	190
2.30433	192
2.30800	194
2.31167	197
2.31533	201
2.31900	202
2.32267	203
2.32633	205
2.33000	207
2.33367	208
2.33733	208
2.34100	207
2.34467	206
2.34833	207
2.35200	209
2.35567	211
2.35933	214
2.36300	218
2.36667	220
2.37033	220
2.37400	222
2.37767	225
2.38133	226
2.38500	227
2.38867	226
2.39233	227
2.39600	231
2.39967	236
2.40333	242
2.40700	246
2.41067	246
2.41433	247
2.41800	250
2.42167	252
2.42533	253
2.42900	254
2.43267	255
2.43633	255
2.44000	259
2.44367	292
2.44733	376
2.45100	466
2.45467	536
2.45833	572
2.46200	563
2.46567	528
2.46933	489
2.47300	457
2.47667	434
2.48033	417
2.48400	402
2.48767	381
2.49133	355
2.49500	328
2.49867	304
2.50233	284
2.50600	269
2.50967	257
2.51333	249
2.51700	244
2.52067	241
2.52433	242
2.52800	247
2.53167	254
2.53533	265
2.53900	274
2.54267	277
2.54633	276
2.55000	270
2.55367	260
2.55733	250
2.56100	237
2.56467	224
2.56833	212
2.57200	204
2.57567	199
2.57933	196
2.58300	194
2.58667	192
2.59033	187
2.59400	179
2.59767	169
2.60133	159
2.60500	150
2.60867	134
2.61233	117
2.61600	101
2.61967	86
2.62333	70
2.62700	55
2.63067	44
2.63433	39
2.63800	40
2.64167	42
2.64533	46
2.64900	52
2.65267	61
2.65633	73
2.66000	84
2.66367	93
2.66733	103
2.67100	112
2.67467	120
2.67833	127
2.68200	133
2.68567	139
2.68933	145
2.69300	150
2.69667	154
2.70033	155
2.70400	154
2.70767	150
2.71133	145
2.71500	142
2.71867	141
2.72233	139
2.72600	137
2.72967	134
2.73333	133
2.73700	134
2.74067	135
2.74433	134
2.74800	133
2.75167	132
2.75533	132
2.75900	134
2.76267	137
2.76633	139
2.77000	141
2.77367	141
2.77733	142
2.78100	144
2.78467	146
2.78833	147
2.79200	146
2.79567	148
2.79933	149
2.80300	149
2.80667	149
2.81033	150
2.81400	154
2.81767	162
2.82133	183
2.82500	228
2.82867	314
2.83233	462
2.83600	696
2.83967	1030
2.84333	1469
2.84700	1996
2.85067	2584
2.85433	3188
2.85800	3758
2.86167	4249
2.86533	4617
2.86900	4846
2.87267	4929
2.87633	4876
2.88000	4708
2.88367	4456
2.88733	4146
2.89100	3803
2.89467	3449
2.89833	3103
2.90200	2774
2.90567	2468
2.90933	2187
2.91300	1934
2.91667	1706
2.92033	1504
2.92400	1324
2.92767	1167
2.93133	1032
2.93500	917
2.93867	817
2.94233	728
2.94600	650
2.94967	586
2.95333	528
2.95700	478
2.96067	437
2.96433	401
2.96800	371
2.97167	346
2.97533	324
2.97900	305
2.98267	288
2.98633	273
2.99000	261
2.99367	249
2.99733	241
3.00100	233
3.00467	227
3.00833	220
3.01200	212
3.01567	204
3.01933	198
3.02300	191
3.02667	186
3.03033	180
3.03400	171
3.03767	128
3.04133	64
3.04500	12
3.04867	-1
3.05233	21
3.05600	64
3.05967	120
3.06333	177
3.06700	234
3.07067	290
3.07433	341
3.07800	386
3.08167	424
3.08533	459
3.08900	490
3.09267	518
3.09633	544
3.10000	567
3.10367	587
3.10733	600
3.11100	610
3.11467	618
3.11833	624
3.12200	629
3.12567	634
3.12933	639
3.13300	643
3.13667	646
3.14033	651
3.14400	655
3.14767	658
3.15133	659
3.15500	662
3.15867	666
3.16233	667
3.16600	671
3.16967	672
3.17333	672
3.17700	673
3.18067	674
3.18433	676
3.18800	677
3.19167	680
3.19533	684
3.19900	687
3.20267	690
3.20633	695
3.21000	698
3.21367	700
3.21733	703
3.22100	704
3.22467	708
3.22833	711
3.23200	713
3.23567	716
3.23933	719
3.24300	724
3.24667	726
3.25033	728
3.25400	727
3.25767	726
3.26133	726
3.26500	724
3.26867	721
3.27233	718
3.27600	714
3.27967	709
3.28333	702
3.28700	697
3.29067	694
3.29433	690
3.29800	684
3.30167	679
3.30533	677
3.30900	672
3.31267	666
3.31633	661
3.32000	656
3.32367	649
3.32733	646
3.33100	644
3.33467	642
3.33833	637
3.34200	632
3.34567	627
3.34933	624
3.35300	619
3.35667	612
3.36033	606
3.36400	602
3.36767	599
3.37133	598
3.37500	597
3.37867	595
3.38233	591
3.38600	589
3.38967	589
3.39333	588
3.39700	585
3.40067	582
3.40433	579
3.40800	578
3.41167	576
3.41533	574
3.41900	574
3.42267	572
3.42633	570
3.43000	567
3.43367	566
3.43733	565
3.44100	566
3.44467	568
3.44833	568
3.45200	566
3.45567	562
3.45933	559
3.46300	557
3.46667	555
3.47033	555
3.47400	554
3.47767	550
3.48133	546
3.48500	543
3.48867	543
3.49233	542
3.49600	540
3.49967	537
3.50333	533
3.50700	531
3.51067	529
3.51433	527
3.51800	525
3.52167	522
3.52533	518
3.52900	513
3.53267	513
3.53633	513
3.54000	512
3.54367	510
3.54733	508
3.55100	503
3.55467	501
3.55833	500
3.56200	498
3.56567	495
3.56933	491
3.57300	490
3.57667	489
3.58033	486
3.58400	484
3.58767	482
3.59133	482
3.59500	482
3.59867	481
3.60233	480
3.60600	478
3.60967	477
3.61333	475
3.61700	472
3.62067	469
3.62433	468
3.62800	466
3.63167	466
3.63533	465
3.63900	464
3.64267	462
3.64633	462
3.65000	460
3.65367	456
3.65733	454
3.66100	454
3.66467	455
3.66833	454
3.67200	453
3.67567	453
3.67933	454
3.68300	454
3.68667	455
3.69033	455
3.69400	453
3.69767	452
3.70133	450
3.70500	450
3.70867	448
3.71233	445
3.71600	443
3.71967	441
3.72333	441
3.72700	441
3.73067	439
3.73433	436
3.73800	436
3.74167	438
3.74533	440
3.74900	440
3.75267	439
3.75633	441
3.76000	442
3.76367	441
3.76733	440
3.77100	441
3.77467	442
3.77833	442
3.78200	441
3.78567	440
3.78933	441
3.79300	442
3.79667	442
3.80033	442
3.80400	441
3.80767	439
3.81133	437
3.81500	436
3.81867	434
3.82233	432
3.82600	430
3.82967	432
3.83333	433
3.83700	437
3.84067	439
3.84433	439
3.84800	438
3.85167	436
3.85533	433
3.85900	432
3.86267	431
3.86633	431
3.87000	433
3.87367	433
3.87733	432
3.88100	428
3.88467	428
3.88833	429
3.89200	430
3.89567	431
3.89933	432
3.90300	433
3.90667	432
3.91033	431
3.91400	428
3.91767	425
3.92133	423
3.92500	422
3.92867	424
3.93233	424
3.93600	425
3.93967	426
3.94333	426
3.94700	424
3.95067	420
3.95433	419
3.95800	418
3.96167	417
3.96533	417
3.96900	417
3.97267	414
3.97633	413
3.98000	413
3.98367	414
3.98733	416
3.99100	417
3.99467	415
3.99833	413

[Status Trace (Column Oven Temperature)]
Interval(msec)	1000
# of Points	240
Start Time(min)	0.004
End Time(min)	3.987
Intensity Units	
Intensity Multiplier	1
R.Time (min)	Intensity
0.00395	35.03
0.02062	35.03
0.03728	35.02
0.05395	35.02
0.07062	35.03
0.08728	35.05
0.10395	35.05
0.12062	35.05
0.13728	35.05
0.15395	35.05
0.17062	35.06
0.18728	35.06
0.20395	35.05
0.22062	35.04
0.23728	35.02
0.25395	35.01
0.27062	35.01
0.28728	35.01
0.30395	35.00
0.32062	35.01
0.33728	35.02
0.35395	35.01
0.37062	35.02
0.38728	35.02
0.40395	35.01
0.42062	35.00
0.43728	35.00
0.45395	35.00
0.47062	35.00
0.48728	35.00
0.50395	34.99
0.52062	35.00
0.53728	34.99
0.55395	34.99
0.57062	34.99
0.58728	34.98
0.60395	34.98
0.62062	34.97
0.63728	34.97
0.65395	34.98
0.67062	35.00
0.68728	35.01
0.70395	35.01
0.72062	35.02
0.73728	35.02
0.75395	35.01
0.77062	35.01
0.78728	35.00
0.80395	34.99
0.82062	34.99
0.83728	35.00
0.85395	35.01
0.87062	35.01
0.88728	35.01
0.90395	35.01
0.92062	35.01
0.93728	35.02
0.95395	35.01
0.97062	35.01
0.98728	35.00
1.00395	34.99
1.02062	34.99
1.03728	35.00
1.05395	35.00
1.07062	35.01
1.08728	35.01
1.10395	35.01
1.12062	35.00
1.13728	35.00
1.15395	35.00
1.17062	34.99
1.18728	34.98
1.20395	34.97
1.22062	34.97
1.23728	34.99
1.25395	35.00
1.27062	35.01
1.28728	35.01
1.30395	35.01
1.32062	35.01
1.33728	35.01
1.35395	35.00
1.37062	34.99
1.38728	34.98
1.40395	34.98
1.42062	34.97
1.43728	34.98
1.45395	34.98
1.47062	34.98
1.48728	34.99
1.50395	34.98
1.52062	34.99
1.53728	34.99
1.55395	34.98
1.57062	34.98
1.58728	34.98
1.60395	35.03
1.62062	35.14
1.63728	35.32
1.65395	35.57
1.67062	35.89
1.68728	36.25
1.70395	36.61
1.72062	36.95
1.73728	37.26
1.75395	37.60
1.77062	37.95
1.78728	38.26
1.80395	38.60
1.82062	38.93
1.83728	39.27
1.85395	39.59
1.87062	39.92
1.88728	40.26
1.90395	40.58
1.92062	40.91
1.93728	41.23
1.95395	41.57
1.97062	41.88
1.98728	42.20
2.00395	42.54
2.02062	42.86
2.03728	43.19
2.05395	43.51
2.07062	43.83
2.08728	44.14
2.10395	44.46
2.12062	44.78
2.13728	45.12
2.15395	45.45
2.17062	45.78
2.18728	46.10
2.20395	46.43
2.22062	46.76
2.23728	47.07
2.25395	47.43
2.27062	47.76
2.28728	48.07
2.30395	48.43
2.32062	48.77
2.33728	49.07
2.35395	49.38
2.37062	49.65
2.38728	49.78
2.40395	49.79
2.42062	49.79
2.43728	49.79
2.45395	49.79
2.47062	49.79
2.48728	49.82
2.50395	49.80
2.52062	49.80
2.53728	49.79
2.55395	49.82
2.57062	49.82
2.58728	49.82
2.60395	49.84
2.62062	49.83
2.63728	49.84
2.65395	49.85
2.67062	49.86
2.68728	49.85
2.70395	49.84
2.72062	49.87
2.73728	49.88
2.75395	49.87
2.77062	49.86
2.78728	49.85
2.80395	49.85
2.82062	49.86
2.83728	49.87
2.85395	49.88
2.87062	49.90
2.88728	49.92
2.90395	49.93
2.92062	49.95
2.93728	49.96
2.95395	49.98
2.97062	49.99
2.98728	50.00
3.00395	50.02
3.02062	50.03
3.03728	50.03
3.05395	50.04
3.07062	50.05
3.08728	50.05
3.10395	50.05
3.12062	50.05
3.13728	50.05
3.15395	50.05
3.17062	50.05
3.18728	50.05
3.20395	50.07
3.22062	50.08
3.23728	50.09
3.25395	50.10
3.27062	50.10
3.28728	50.09
3.30395	50.08
3.32062	50.07
3.33728	50.06
3.35395	50.07
3.37062	50.07
3.38728	50.07
3.40395	50.07
3.42062	50.07
3.43728	50.08
3.45395	50.07
3.47062	50.07
3.48728	50.07
3.50395	50.08
3.52062	50.08
3.53728	50.08
3.55395	50.09
3.57062	50.10
3.58728	50.10
3.60395	50.09
3.62062	50.09
3.63728	50.09
3.65395	50.07
3.67062	50.06
3.68728	50.05
3.70395	50.03
3.72062	50.03
3.73728	50.04
3.75395	50.03
3.77062	50.04
3.78728	50.04
3.80395	50.04
3.82062	50.03
3.83728	50.04
3.85395	50.05
3.87062	50.06
3.88728	50.06
3.90395	50.07
3.92062	50.07
3.93728	50.07
3.95395	50.07
3.97062	50.07
3.98728	50.07

[Status Trace (Injection Unit Temperature)]
Interval(msec)	1000
# of Points	240
Start Time(min)	0.004
End Time(min)	3.987
Intensity Units	
Intensity Multiplier	1
R.Time (min)	Intensity
0.00395	99.98
0.02062	99.98
0.03728	99.98
0.05395	99.98
0.07062	99.98
0.08728	99.98
0.10395	99.98
0.12062	99.98
0.13728	99.98
0.15395	99.98
0.17062	99.98
0.18728	99.98
0.20395	99.98
0.22062	99.98
0.23728	99.98
0.25395	99.98
0.27062	99.98
0.28728	99.98
0.30395	99.98
0.32062	99.98
0.33728	99.98
0.35395	99.98
0.37062	99.98
0.38728	99.98
0.40395	99.98
0.42062	99.98
0.43728	99.98
0.45395	99.98
0.47062	99.99
0.48728	99.98
0.50395	99.98
0.52062	99.99
0.53728	99.99
0.55395	99.98
0.57062	99.98
0.58728	99.98
0.60395	99.98
0.62062	99.98
0.63728	99.98
0.65395	99.98
0.67062	99.98
0.68728	99.98
0.70395	99.98
0.72062	99.98
0.73728	99.97
0.75395	99.98
0.77062	99.98
0.78728	99.98
0.80395	99.98
0.82062	99.98
0.83728	99.98
0.85395	99.98
0.87062	99.98
0.88728	99.98
0.90395	99.98
0.92062	99.98
0.93728	99.98
0.95395	99.98
0.97062	99.98
0.98728	99.98
1.00395	99.98
1.02062	99.98
1.03728	99.98
1.05395	99.98
1.07062	99.98
1.08728	99.98
1.10395	99.98
1.12062	99.98
1.13728	99.98
1.15395	99.98
1.17062	99.98
1.18728	99.98
1.20395	99.98
1.22062	99.98
1.23728	99.98
1.25395	99.99
1.27062	99.98
1.28728	99.98
1.30395	99.98
1.32062	99.98
1.33728	99.98
1.35395	99.98
1.37062	99.98
1.38728	99.98
1.40395	99.98
1.42062	99.99
1.43728	99.98
1.45395	99.99
1.47062	99.99
1.48728	99.98
1.50395	99.98
1.52062	99.98
1.53728	99.98
1.55395	99.99
1.57062	99.98
1.58728	99.98
1.60395	99.99
1.62062	99.98
1.63728	99.98
1.65395	99.98
1.67062	99.98
1.68728	99.98
1.70395	99.99
1.72062	99.98
1.73728	99.98
1.75395	99.98
1.77062	99.98
1.78728	99.98
1.80395	99.97
1.82062	99.98
1.83728	99.98
1.85395	99.97
1.87062	99.98
1.88728	99.98
1.90395	99.98
1.92062	99.98
1.93728	99.98
1.95395	99.98
1.97062	99.98
1.98728	99.97
2.00395	99.97
2.02062	99.97
2.03728	99.97
2.05395	99.97
2.07062	99.97
2.08728	99.97
2.10395	99.97
2.12062	99.97
2.13728	99.97
2.15395	99.97
2.17062	99.97
2.18728	99.96
2.20395	99.97
2.22062	99.97
2.23728	99.97
2.25395	99.96
2.27062	99.97
2.28728	99.97
2.30395	99.97
2.32062	99.96
2.33728	99.97
2.35395	99.96
2.37062	99.96
2.38728	99.97
2.40395	99.97
2.42062	99.96
2.43728	99.96
2.45395	99.97
2.47062	99.96
2.48728	99.97
2.50395	99.97
2.52062	99.96
2.53728	99.96
2.55395	99.97
2.57062	99.97
2.58728	99.97
2.60395	99.97
2.62062	99.97
2.63728	99.97
2.65395	99.98
2.67062	99.98
2.68728	99.98
2.70395	99.98
2.72062	99.98
2.73728	99.98
2.75395	99.99
2.77062	99.99
2.78728	99.99
2.80395	99.99
2.82062	99.99
2.83728	99.99
2.85395	100.00
2.87062	100.00
2.88728	100.00
2.90395	100.00
2.92062	100.00
2.93728	100.00
2.95395	100.00
2.97062	100.01
2.98728	100.01
3.00395	100.01
3.02062	100.00
3.03728	100.01
3.05395	100.01
3.07062	100.01
3.08728	100.01
3.10395	100.02
3.12062	100.02
3.13728	100.02
3.15395	100.01
3.17062	100.01
3.18728	100.02
3.20395	100.02
3.22062	100.02
3.23728	100.02
3.25395	100.02
3.27062	100.03
3.28728	100.03
3.30395	100.03
3.32062	100.02
3.33728	100.03
3.35395	100.03
3.37062	100.03
3.38728	100.03
3.40395	100.03
3.42062	100.04
3.43728	100.04
3.45395	100.04
3.47062	100.04
3.48728	100.03
3.50395	100.04
3.52062	100.04
3.53728	100.04
3.55395	100.03
3.57062	100.04
3.58728	100.04
3.60395	100.04
3.62062	100.04
3.63728	100.04
3.65395	100.04
3.67062	100.04
3.68728	100.05
3.70395	100.04
3.72062	100.05
3.73728	100.05
3.75395	100.05
3.77062	100.05
3.78728	100.05
3.80395	100.05
3.82062	100.05
3.83728	100.05
3.85395	100.05
3.87062	100.05
3.88728	100.05
3.90395	100.05
3.92062	100.05
3.93728	100.05
3.95395	100.05
3.97062	100.06
3.98728	100.05

[Status Trace (Carrier Gas Pressure)]
Interval(msec)	1000
# of Points	240
Start Time(min)	0.004
End Time(min)	3.987
Intensity Units	
Intensity Multiplier	1
R.Time (min)	Intensity
0.00395	58.00
0.02062	56.00
0.03728	56.60
0.05395	58.73
0.07062	59.77
0.08728	58.19
0.10395	57.97
0.12062	58.01
0.13728	58.01
0.15395	58.01
0.17062	58.00
0.18728	58.00
0.20395	58.00
0.22062	58.00
0.23728	58.00
0.25395	58.00
0.27062	58.00
0.28728	58.00
0.30395	58.00
0.32062	58.00
0.33728	58.00
0.35395	58.00
0.37062	58.00
0.38728	58.00
0.40395	58.00
0.42062	58.00
0.43728	58.00
0.45395	58.00
0.47062	58.00
0.48728	58.00
0.50395	58.00
0.52062	58.00
0.53728	58.00
0.55395	58.00
0.57062	58.00
0.58728	58.00
0.60395	58.00
0.62062	58.00
0.63728	58.00
0.65395	58.00
0.67062	58.00
0.68728	58.00
0.70395	58.00
0.72062	58.00
0.73728	58.00
0.75395	58.00
0.77062	58.00
0.78728	58.00
0.80395	58.00
0.82062	58.00
0.83728	58.00
0.85395	58.00
0.87062	58.00
0.88728	58.00
0.90395	58.00
0.92062	58.00
0.93728	58.00
0.95395	58.00
0.97062	58.00
0.98728	58.00
1.00395	58.00
1.02062	58.00
1.03728	58.00
1.05395	58.00
1.07062	58.00
1.08728	58.00
1.10395	58.00
1.12062	58.00
1.13728	58.00
1.15395	58.00
1.17062	58.00
1.18728	58.00
1.20395	58.00
1.22062	58.00
1.23728	58.00
1.25395	58.00
1.27062	58.00
1.28728	58.00
1.30395	58.00
1.32062	58.00
1.33728	58.00
1.35395	58.00
1.37062	58.00
1.38728	58.00
1.40395	58.00
1.42062	58.00
1.43728	58.00
1.45395	58.00
1.47062	58.00
1.48728	58.00
1.50395	58.00
1.52062	58.00
1.53728	58.00
1.55395	58.00
1.57062	58.00
1.58728	58.00
1.60395	58.00
1.62062	58.00
1.63728	58.00
1.65395	58.01
1.67062	58.01
1.68728	58.00
1.70395	58.00
1.72062	58.00
1.73728	58.00
1.75395	58.00
1.77062	58.00
1.78728	58.00
1.80395	58.00
1.82062	58.00
1.83728	58.00
1.85395	58.00
1.87062	58.00
1.88728	58.00
1.90395	58.00
1.92062	58.00
1.93728	58.00
1.95395	58.00
1.97062	58.00
1.98728	58.00
2.00395	58.00
2.02062	58.00
2.03728	58.00
2.05395	58.00
2.07062	58.00
2.08728	58.00
2.10395	58.00
2.12062	58.00
2.13728	58.00
2.15395	58.00
2.17062	58.00
2.18728	58.00
2.20395	58.00
2.22062	58.00
2.23728	58.00
2.25395	58.00
2.27062	58.00
2.28728	58.00
2.30395	58.00
2.32062	58.00
2.33728	58.00
2.35395	58.00
2.37062	58.00
2.38728	57.99
2.40395	57.99
2.42062	58.00
2.43728	58.00
2.45395	58.00
2.47062	58.00
2.48728	58.00
2.50395	57.97
2.52062	57.99
2.53728	58.00
2.55395	58.00
2.57062	58.00
2.58728	58.00
2.60395	58.00
2.62062	58.00
2.63728	58.00
2.65395	58.00
2.67062	58.00
2.68728	58.00
2.70395	58.00
2.72062	58.00
2.73728	58.00
2.75395	58.00
2.77062	58.00
2.78728	58.00
2.80395	58.00
2.82062	58.00
2.83728	58.00
2.85395	58.00
2.87062	58.00
2.88728	58.00
2.90395	58.00
2.92062	58.00
2.93728	58.00
2.95395	58.00
2.97062	58.00
2.98728	58.00
3.00395	58.00
3.02062	58.00
3.03728	58.00
3.05395	58.00
3.07062	58.00
3.08728	58.00
3.10395	58.00
3.12062	58.00
3.13728	58.00
3.15395	58.00
3.17062	58.00
3.18728	58.00
3.20395	58.00
3.22062	58.00
3.23728	58.00
3.25395	58.00
3.27062	58.00
3.28728	58.00
3.30395	58.00
3.32062	58.00
3.33728	58.00
3.35395	58.00
3.37062	58.00
3.38728	58.00
3.40395	58.00
3.42062	58.00
3.43728	58.00
3.45395	58.00
3.47062	58.00
3.48728	58.00
3.50395	58.00
3.52062	58.00
3.53728	58.00
3.55395	58.00
3.57062	58.00
3.58728	58.00
3.60395	58.00
3.62062	58.00
3.63728	58.00
3.65395	58.00
3.67062	58.00
3.68728	58.00
3.70395	58.00
3.72062	58.00
3.73728	58.00
3.75395	58.00
3.77062	58.00
3.78728	58.00
3.80395	58.00
3.82062	58.00
3.83728	58.00
3.85395	58.00
3.87062	58.00
3.88728	58.00
3.90395	58.00
3.92062	58.00
3.93728	58.00
3.95395	58.00
3.97062	58.00
3.98728	58.00

[Status Trace (Carrier Gas Flow)]
Interval(msec)	1000
# of Points	240
Start Time(min)	0.004
End Time(min)	3.987
Intensity Units	
Intensity Multiplier	1
R.Time (min)	Intensity
0.00395	34.52
0.02062	34.58
0.03728	34.54
0.05395	34.55
0.07062	34.49
0.08728	34.52
0.10395	34.52
0.12062	34.52
0.13728	34.52
0.15395	34.52
0.17062	34.52
0.18728	34.52
0.20395	34.52
0.22062	34.52
0.23728	34.52
0.25395	34.52
0.27062	34.52
0.28728	34.52
0.30395	34.52
0.32062	34.52
0.33728	34.52
0.35395	34.52
0.37062	34.52
0.38728	34.52
0.40395	34.52
0.42062	34.52
0.43728	34.52
0.45395	34.52
0.47062	34.52
0.48728	34.52
0.50395	34.52
0.52062	34.52
0.53728	34.52
0.55395	34.52
0.57062	34.52
0.58728	34.52
0.60395	34.52
0.62062	34.52
0.63728	34.52
0.65395	34.52
0.67062	34.52
0.68728	34.52
0.70395	34.52
0.72062	34.52
0.73728	34.52
0.75395	34.52
0.77062	34.51
0.78728	34.51
0.80395	34.52
0.82062	34.52
0.83728	34.52
0.85395	34.52
0.87062	34.52
0.88728	34.52
0.90395	34.52
0.92062	34.52
0.93728	34.52
0.95395	34.52
0.97062	34.52
0.98728	34.52
1.00395	34.52
1.02062	34.52
1.03728	34.52
1.05395	34.52
1.07062	34.52
1.08728	34.52
1.10395	34.52
1.12062	34.52
1.13728	34.52
1.15395	34.52
1.17062	34.53
1.18728	34.53
1.20395	34.52
1.22062	34.52
1.23728	34.51
1.25395	34.52
1.27062	34.52
1.28728	34.52
1.30395	34.52
1.32062	34.52
1.33728	34.53
1.35395	34.51
1.37062	34.52
1.38728	34.52
1.40395	34.52
1.42062	34.52
1.43728	34.52
1.45395	34.52
1.47062	34.52
1.48728	34.52
1.50395	34.52
1.52062	34.52
1.53728	34.52
1.55395	34.52
1.57062	34.52
1.58728	34.52
1.60395	34.52
1.62062	34.52
1.63728	34.52
1.65395	34.52
1.67062	34.52
1.68728	34.52
1.70395	34.52
1.72062	34.52
1.73728	34.52
1.75395	34.52
1.77062	34.52
1.78728	34.52
1.80395	34.52
1.82062	34.52
1.83728	34.52
1.85395	34.52
1.87062	34.52
1.88728	34.52
1.90395	34.52
1.92062	34.51
1.93728	34.52
1.95395	34.52
1.97062	34.52
1.98728	34.52
2.00395	34.52
2.02062	34.52
2.03728	34.52
2.05395	34.52
2.07062	34.52
2.08728	34.52
2.10395	34.52
2.12062	34.52
2.13728	34.52
2.15395	34.52
2.17062	34.52
2.18728	34.52
2.20395	34.52
2.22062	34.52
2.23728	34.52
2.25395	34.52
2.27062	34.52
2.28728	34.52
2.30395	34.52
2.32062	34.52
2.33728	34.52
2.35395	34.52
2.37062	34.52
2.38728	34.51
2.40395	34.52
2.42062	34.52
2.43728	34.52
2.45395	34.51
2.47062	34.52
2.48728	34.52
2.50395	34.66
2.52062	34.52
2.53728	34.51
2.55395	34.52
2.57062	34.52
2.58728	34.52
2.60395	34.52
2.62062	34.52
2.63728	34.52
2.65395	34.52
2.67062	34.52
2.68728	34.52
2.70395	34.52
2.72062	34.52
2.73728	34.52
2.75395	34.52
2.77062	34.52
2.78728	34.52
2.80395	34.52
2.82062	34.52
2.83728	34.52
2.85395	34.52
2.87062	34.52
2.88728	34.52
2.90395	34.52
2.92062	34.52
2.93728	34.52
2.95395	34.52
2.97062	34.52
2.98728	34.52
3.00395	34.52
3.02062	34.52
3.03728	34.52
3.05395	34.52
3.07062	34.52
3.08728	34.52
3.10395	34.52
3.12062	34.52
3.13728	34.52
3.15395	34.52
3.17062	34.52
3.18728	34.52
3.20395	34.52
3.22062	34.52
3.23728	34.52
3.25395	34.52
3.27062	34.52
3.28728	34.52
3.30395	34.52
3.32062	34.52
3.33728	34.52
3.35395	34.52
3.37062	34.52
3.38728	34.52
3.40395	34.52
3.42062	34.52
3.43728	34.52
3.45395	34.51
3.47062	34.52
3.48728	34.52
3.50395	34.52
3.52062	34.52
3.53728	34.52
3.55395	34.52
3.57062	34.52
3.58728	34.52
3.60395	34.52
3.62062	34.52
3.63728	34.52
3.65395	34.52
3.67062	34.52
3.68728	34.52
3.70395	34.52
3.72062	34.52
3.73728	34.52
3.75395	34.52
3.77062	34.52
3.78728	34.51
3.80395	34.53
3.82062	34.52
3.83728	34.52
3.85395	34.52
3.87062	34.52
3.88728	34.52
3.90395	34.52
3.92062	34.52
3.93728	34.52
3.95395	34.52
3.97062	34.52
3.98728	34.52

[Status Trace (Column Flow)]
Interval(msec)	1000
# of Points	240
Start Time(min)	0.004
End Time(min)	3.987
Intensity Units	
Intensity Multiplier	1
R.Time (min)	Intensity
0.00395	5.57
0.02062	5.34
0.03728	5.41
0.05395	5.66
0.07062	5.78
0.08728	5.60
0.10395	5.57
0.12062	5.57
0.13728	5.57
0.15395	5.57
0.17062	5.57
0.18728	5.57
0.20395	5.57
0.22062	5.57
0.23728	5.57
0.25395	5.57
0.27062	5.57
0.28728	5.57
0.30395	5.57
0.32062	5.58
0.33728	5.57
0.35395	5.57
0.37062	5.57
0.38728	5.57
0.40395	5.57
0.42062	5.57
0.43728	5.58
0.45395	5.58
0.47062	5.57
0.48728	5.58
0.50395	5.58
0.52062	5.58
0.53728	5.58
0.55395	5.58
0.57062	5.58
0.58728	5.58
0.60395	5.58
0.62062	5.58
0.63728	5.58
0.65395	5.58
0.67062	5.58
0.68728	5.57
0.70395	5.57
0.72062	5.57
0.73728	5.57
0.75395	5.57
0.77062	5.57
0.78728	5.57
0.80395	5.58
0.82062	5.58
0.83728	5.58
0.85395	5.57
0.87062	5.57
0.88728	5.57
0.90395	5.57
0.92062	5.58
0.93728	5.57
0.95395	5.57
0.97062	5.57
0.98728	5.58
1.00395	5.58
1.02062	5.58
1.03728	5.58
1.05395	5.58
1.07062	5.57
1.08728	5.57
1.10395	5.58
1.12062	5.58
1.13728	5.57
1.15395	5.58
1.17062	5.58
1.18728	5.58
1.20395	5.58
1.22062	5.58
1.23728	5.58
1.25395	5.58
1.27062	5.57
1.28728	5.57
1.30395	5.57
1.32062	5.57
1.33728	5.57
1.35395	5.58
1.37062	5.58
1.38728	5.58
1.40395	5.58
1.42062	5.58
1.43728	5.58
1.45395	5.58
1.47062	5.58
1.48728	5.58
1.50395	5.58
1.52062	5.58
1.53728	5.58
1.55395	5.58
1.57062	5.58
1.58728	5.58
1.60395	5.57
1.62062	5.57
1.63728	5.57
1.65395	5.56
1.67062	5.55
1.68728	5.54
1.70395	5.53
1.72062	5.51
1.73728	5.50
1.75395	5.49
1.77062	5.48
1.78728	5.47
1.80395	5.46
1.82062	5.45
1.83728	5.44
1.85395	5.43
1.87062	5.42
1.88728	5.41
1.90395	5.40
1.92062	5.39
1.93728	5.38
1.95395	5.37
1.97062	5.36
1.98728	5.35
2.00395	5.34
2.02062	5.33
2.03728	5.32
2.05395	5.31
2.07062	5.30
2.08728	5.30
2.10395	5.29
2.12062	5.28
2.13728	5.27
2.15395	5.26
2.17062	5.25
2.18728	5.24
2.20395	5.23
2.22062	5.22
2.23728	5.21
2.25395	5.20
2.27062	5.19
2.28728	5.18
2.30395	5.17
2.32062	5.16
2.33728	5.15
2.35395	5.15
2.37062	5.14
2.38728	5.13
2.40395	5.13
2.42062	5.13
2.43728	5.13
2.45395	5.13
2.47062	5.13
2.48728	5.13
2.50395	5.13
2.52062	5.13
2.53728	5.13
2.55395	5.13
2.57062	5.13
2.58728	5.13
2.60395	5.13
2.62062	5.13
2.63728	5.13
2.65395	5.13
2.67062	5.13
2.68728	5.13
2.70395	5.13
2.72062	5.13
2.73728	5.13
2.75395	5.13
2.77062	5.13
2.78728	5.13
2.80395	5.13
2.82062	5.13
2.83728	5.13
2.85395	5.13
2.87062	5.13
2.88728	5.13
2.90395	5.13
2.92062	5.13
2.93728	5.13
2.95395	5.13
2.97062	5.13
2.98728	5.13
3.00395	5.13
3.02062	5.13
3.03728	5.13
3.05395	5.13
3.07062	5.13
3.08728	5.13
3.10395	5.13
3.12062	5.13
3.13728	5.13
3.15395	5.13
3.17062	5.13
3.18728	5.13
3.20395	5.13
3.22062	5.13
3.23728	5.12
3.25395	5.12
3.27062	5.12
3.28728	5.12
3.30395	5.12
3.32062	5.13
3.33728	5.13
3.35395	5.13
3.37062	5.13
3.38728	5.13
3.40395	5.13
3.42062	5.13
3.43728	5.13
3.45395	5.13
3.47062	5.13
3.48728	5.13
3.50395	5.13
3.52062	5.13
3.53728	5.13
3.55395	5.13
3.57062	5.12
3.58728	5.12
3.60395	5.12
3.62062	5.13
3.63728	5.13
3.65395	5.13
3.67062	5.13
3.68728	5.13
3.70395	5.13
3.72062	5.13
3.73728	5.13
3.75395	5.13
3.77062	5.13
3.78728	5.13
3.80395	5.13
3.82062	5.13
3.83728	5.13
3.85395	5.13
3.87062	5.13
3.88728	5.13
3.90395	5.13
3.92062	5.13
3.93728	5.13
3.95395	5.13
3.97062	5.13
3.98728	5.13

[Status Trace (Linear Velocity)]
Interval(msec)	1000
# of Points	240
Start Time(min)	0.004
End Time(min)	3.987
Intensity Units	
Intensity Multiplier	1
R.Time (min)	Intensity
0.00395	39.03
0.02062	37.71
0.03728	38.11
0.05395	39.51
0.07062	40.19
0.08728	39.15
0.10395	39.00
0.12062	39.03
0.13728	39.03
0.15395	39.03
0.17062	39.03
0.18728	39.03
0.20395	39.03
0.22062	39.03
0.23728	39.03
0.25395	39.03
0.27062	39.03
0.28728	39.03
0.30395	39.03
0.32062	39.03
0.33728	39.03
0.35395	39.03
0.37062	39.03
0.38728	39.03
0.40395	39.03
0.42062	39.03
0.43728	39.03
0.45395	39.03
0.47062	39.03
0.48728	39.03
0.50395	39.03
0.52062	39.03
0.53728	39.03
0.55395	39.03
0.57062	39.03
0.58728	39.03
0.60395	39.03
0.62062	39.03
0.63728	39.03
0.65395	39.03
0.67062	39.03
0.68728	39.03
0.70395	39.03
0.72062	39.03
0.73728	39.03
0.75395	39.03
0.77062	39.03
0.78728	39.03
0.80395	39.03
0.82062	39.03
0.83728	39.03
0.85395	39.03
0.87062	39.03
0.88728	39.03
0.90395	39.03
0.92062	39.03
0.93728	39.03
0.95395	39.03
0.97062	39.03
0.98728	39.03
1.00395	39.03
1.02062	39.03
1.03728	39.03
1.05395	39.03
1.07062	39.03
1.08728	39.03
1.10395	39.03
1.12062	39.03
1.13728	39.03
1.15395	39.03
1.17062	39.03
1.18728	39.03
1.20395	39.03
1.22062	39.03
1.23728	39.03
1.25395	39.03
1.27062	39.03
1.28728	39.03
1.30395	39.03
1.32062	39.03
1.33728	39.03
1.35395	39.03
1.37062	39.03
1.38728	39.03
1.40395	39.03
1.42062	39.03
1.43728	39.03
1.45395	39.03
1.47062	39.03
1.48728	39.03
1.50395	39.03
1.52062	39.03
1.53728	39.03
1.55395	39.03
1.57062	39.03
1.58728	39.03
1.60395	39.03
1.62062	39.02
1.63728	39.00
1.65395	38.98
1.67062	38.95
1.68728	38.91
1.70395	38.88
1.72062	38.84
1.73728	38.81
1.75395	38.79
1.77062	38.75
1.78728	38.72
1.80395	38.69
1.82062	38.65
1.83728	38.62
1.85395	38.60
1.87062	38.56
1.88728	38.53
1.90395	38.50
1.92062	38.47
1.93728	38.44
1.95395	38.41
1.97062	38.38
1.98728	38.35
2.00395	38.32
2.02062	38.29
2.03728	38.26
2.05395	38.23
2.07062	38.20
2.08728	38.17
2.10395	38.15
2.12062	38.11
2.13728	38.08
2.15395	38.06
2.17062	38.02
2.18728	37.99
2.20395	37.97
2.22062	37.93
2.23728	37.90
2.25395	37.88
2.27062	37.84
2.28728	37.82
2.30395	37.79
2.32062	37.75
2.33728	37.73
2.35395	37.70
2.37062	37.68
2.38728	37.66
2.40395	37.66
2.42062	37.66
2.43728	37.66
2.45395	37.66
2.47062	37.66
2.48728	37.66
2.50395	37.65
2.52062	37.66
2.53728	37.66
2.55395	37.66
2.57062	37.66
2.58728	37.66
2.60395	37.66
2.62062	37.66
2.63728	37.66
2.65395	37.66
2.67062	37.66
2.68728	37.66
2.70395	37.66
2.72062	37.66
2.73728	37.66
2.75395	37.66
2.77062	37.66
2.78728	37.66
2.80395	37.66
2.82062	37.66
2.83728	37.66
2.85395	37.66
2.87062	37.65
2.88728	37.65
2.90395	37.65
2.92062	37.65
2.93728	37.65
2.95395	37.65
2.97062	37.65
2.98728	37.64
3.00395	37.64
3.02062	37.64
3.03728	37.64
3.05395	37.64
3.07062	37.64
3.08728	37.64
3.10395	37.64
3.12062	37.64
3.13728	37.64
3.15395	37.64
3.17062	37.64
3.18728	37.64
3.20395	37.64
3.22062	37.64
3.23728	37.64
3.25395	37.64
3.27062	37.64
3.28728	37.64
3.30395	37.64
3.32062	37.64
3.33728	37.64
3.35395	37.64
3.37062	37.64
3.38728	37.64
3.40395	37.64
3.42062	37.64
3.43728	37.64
3.45395	37.64
3.47062	37.64
3.48728	37.64
3.50395	37.64
3.52062	37.64
3.53728	37.64
3.55395	37.64
3.57062	37.64
3.58728	37.64
3.60395	37.64
3.62062	37.64
3.63728	37.64
3.65395	37.64
3.67062	37.64
3.68728	37.64
3.70395	37.64
3.72062	37.64
3.73728	37.64
3.75395	37.64
3.77062	37.64
3.78728	37.64
3.80395	37.64
3.82062	37.64
3.83728	37.64
3.85395	37.64
3.87062	37.64
3.88728	37.64
3.90395	37.64
3.92062	37.64
3.93728	37.64
3.95395	37.64
3.97062	37.64
3.98728	37.64

