[Header]
Application Name	LabSolutions
Version	5.110
Data File Name	C:\Users\User\Desktop\GC Analyses\Jack\Nachusa Grasslands Sampling\T0 Timepoint July 12th\T0_07122022_035.gcd
Output Date	3/14/2023
Output Time	3:40:36 PM

[File Information]
Type	Data File
Generated	3/7/2023 5:36:28 PM
Generated by	System Administrator
Modified	3/7/2023 5:43:17 PM
Modified by	System Administrator

[Sample Information]
Operator Name	System Administrator
Acquired	3/7/2023 5:39:14 PM
Sample Type	0:Unknown
Level	0
Sample Name	035
Sample ID	035
ISTD Amount1	1
ISTD Amount2	1
ISTD Amount3	1
ISTD Amount4	1
ISTD Amount5	1
ISTD Amount6	1
ISTD Amount7	1
ISTD Amount8	1
ISTD Amount9	1
ISTD Amount10	1
ISTD Amount11	1
ISTD Amount12	1
ISTD Amount13	1
ISTD Amount14	1
ISTD Amount15	1
ISTD Amount16	1
ISTD Amount17	1
ISTD Amount18	1
ISTD Amount19	1
ISTD Amount20	1
ISTD Amount21	1
ISTD Amount22	1
ISTD Amount23	1
ISTD Amount24	1
ISTD Amount25	1
ISTD Amount26	1
ISTD Amount27	1
ISTD Amount28	1
ISTD Amount29	1
ISTD Amount30	1
ISTD Amount31	1
ISTD Amount32	1
Sample Amount	1
Dilution Factor	1
Vial#	34
Injection Volume	1
Injection Count	1
Bar Code	

[Original Files]
Data File	C:\Users\User\Desktop\GC Analyses\Jack\Nachusa Grasslands Sampling\T0 Timepoint July 12th\T0_07122022_035.gcd
Method File	C:\LabSolutions\Data\GHG_4min_2022\ghg3_togas_w_acet_4 min_new_int.gcm
Batch File	C:\LabSolutions\Data\AutoSamplerTesting\T0_07122022.gcb
Report Format File	c:\LabSolutions\System\DEFAULT.lsr

[File Description]


[Configuration]
Instrument Name	C0B7VH3-Instrument1
Instrument #	1
Line #	1
# of Detectors	3
Detector ID	DET#1	DET#2	DET#3
Detector Name	FID	PTCD	ECD
# of Channels	1	1	1

[Peak Table(Ch1)]
# of Peaks	3
Peak#	R.Time	I.Time	F.Time	Area	Height	A/H	Conc.	Mark	ID#	Name	k'	Plate #	Plate Ht.	Tailing	Resolution	Sep.Factor	Area Ratio	Height Ratio	Conc. %	Norm Conc.
1	1.483	1.435	1.531	2348	658	3.568	16.579	   	1	CO	0.000	4614	32.512	0.000	0.000	0.000	0	0	1.733	1.733
2	1.567	1.531	1.652	21017	10512	1.999	406.387	 V 	2	CH4	0.057	11221	13.367	1.247	1.151	0.000	0	0	42.470	42.470
3	1.996	1.949	2.594	2127415	1002492	2.122	533.924	   	3	CO2	0.346	16979	8.835	1.275	7.122	6.087	0	0	55.798	55.798

[Peak Table(Ch2)]
# of Peaks	0

[Peak Table(Ch3)]
# of Peaks	6
Peak#	R.Time	I.Time	F.Time	Area	Height	A/H	Conc.	Mark	ID#	Name	k'	Plate #	Plate Ht.	Tailing	Resolution	Sep.Factor	Area Ratio	Height Ratio	Conc. %	Norm Conc.
1	0.728	0.343	1.278	641	23	28.078	0.000	   			0.000	740	202.583	1.200	0.000	0.000	0	0	0.000	0.000
2	2.462	2.161	2.524	2912	433	6.729	0.000	   			2.383	3843	39.036	0.000	13.048	0.000	0	0	0.000	0.000
3	2.554	2.524	2.634	1287	269	4.782	0.000	 V 			2.509	1661	90.295	0.000	0.448	1.053	0	0	0.000	0.000
4	2.700	2.656	2.752	173	50	3.427	0.000	   			2.711	13480	11.128	1.088	0.854	1.080	0	0	0.000	0.000
5	2.873	2.792	3.038	57823	15146	3.818	1.477	   	1	N2O	2.948	12741	11.773	1.603	1.769	1.087	0	0	100.000	100.000
6	3.115	3.041	3.492	7570	456	16.614	0.000	   	2	SF6	3.280	965	155.408	3.113	0.963	1.113	0	0	0.000	0.000

[Compound Results(Ch1)]
# of IDs	6
ID#	Name	R.Time	Area	Height	Conc.	Curve	3rd	2nd	1st	Constant	Area Ratio	Height Ratio	Conc. %	Norm Conc.
1	CO	1.483	2348	658	16.579	Linear	0.000000e+00	0.000000e+00	1.416423e+002	0.000000e+00	0	0	1.733	1.733
2	CH4	1.567	21017	10512	406.387	Linear	0.000000e+00	0.000000e+00	5.171738e+001	0.000000e+00	0	0	42.470	42.470
3	CO2	1.996	2127415	1002492	533.924	Linear	0.000000e+00	0.000000e+00	3.984494e+003	0.000000e+00	0	0	55.798	55.798
4	Ethylene	0.000	0	0	0.000	Linear	0.000000e+00	0.000000e+00	0.000000e+00	0.000000e+00	0	0	0.000	0.000
5	Acetylene	0.000	0	0	0.000	Linear	0.000000e+00	0.000000e+00	0.000000e+00	0.000000e+00	0	0	0.000	0.000
6	Ethane	0.000	0	0	0.000	Linear	0.000000e+00	0.000000e+00	0.000000e+00	0.000000e+00	0	0	0.000	0.000

[Compound Results(Ch2)]
# of IDs	5
ID#	Name	R.Time	Area	Height	Conc.	Curve	3rd	2nd	1st	Constant	Area Ratio	Height Ratio	Conc. %	Norm Conc.
1	Hydrogen	0.000	0	0	0.000	Linear	0.000000e+00	0.000000e+00	0.000000e+00	0.000000e+00	0	0	0.000	0.000
2	Oxygen	0.000	0	0	0.000	Linear	0.000000e+00	0.000000e+00	0.000000e+00	0.000000e+00	0	0	0.000	0.000
3	Nitrogen	0.000	0	0	0.000	Linear	0.000000e+00	0.000000e+00	0.000000e+00	0.000000e+00	0	0	0.000	0.000
4	Methane	0.000	0	0	0.000	Linear	0.000000e+00	0.000000e+00	0.000000e+00	0.000000e+00	0	0	0.000	0.000
5	Carbon Monoxide	0.000	0	0	0.000	Linear	0.000000e+00	0.000000e+00	0.000000e+00	0.000000e+00	0	0	0.000	0.000

[Compound Results(Ch3)]
# of IDs	2
ID#	Name	R.Time	Area	Height	Conc.	Curve	3rd	2nd	1st	Constant	Area Ratio	Height Ratio	Conc. %	Norm Conc.
1	N2O	2.873	57823	15146	1.477	Linear	0.000000e+00	0.000000e+00	3.915173e+004	0.000000e+00	0	0	100.000	100.000
2	SF6	3.115	7570	456	0.000	Linear	0.000000e+00	0.000000e+00	0.000000e+00	0.000000e+00	0	0	0.000	0.000

[Group Results(Ch1)]
# of Groups	0

[Group Results(Ch2)]
# of Groups	0

[Group Results(Ch3)]
# of Groups	0

[Chromatogram (Ch1)]
Interval(msec)	220
# of Points	1091
Start Time(min)	0.002
End Time(min)	3.998
R.Time (min)	Intensity
0.00167	22
0.00533	29
0.00900	33
0.01267	33
0.01633	31
0.02000	26
0.02367	24
0.02733	21
0.03100	18
0.03467	11
0.03833	5
0.04200	5
0.04567	7
0.04933	8
0.05300	11
0.05667	15
0.06033	20
0.06400	26
0.06767	30
0.07133	29
0.07500	27
0.07867	29
0.08233	37
0.08600	46
0.08967	55
0.09333	65
0.09700	72
0.10067	74
0.10433	71
0.10800	69
0.11167	68
0.11533	66
0.11900	62
0.12267	59
0.12633	60
0.13000	64
0.13367	67
0.13733	70
0.14100	73
0.14467	79
0.14833	87
0.15200	95
0.15567	100
0.15933	100
0.16300	98
0.16667	94
0.17033	90
0.17400	91
0.17767	93
0.18133	98
0.18500	102
0.18867	107
0.19233	110
0.19600	110
0.19967	103
0.20333	92
0.20700	83
0.21067	73
0.21433	64
0.21800	58
0.22167	56
0.22533	56
0.22900	56
0.23267	57
0.23633	59
0.24000	58
0.24367	54
0.24733	51
0.25100	52
0.25467	53
0.25833	55
0.26200	56
0.26567	56
0.26933	56
0.27300	55
0.27667	50
0.28033	45
0.28400	40
0.28767	33
0.29133	26
0.29500	21
0.29867	19
0.30233	23
0.30600	33
0.30967	42
0.31333	45
0.31700	43
0.32067	36
0.32433	21
0.32800	4
0.33167	-9
0.33533	-15
0.33900	-12
0.34267	-5
0.34633	2
0.35000	5
0.35367	7
0.35733	6
0.36100	1
0.36467	-3
0.36833	-3
0.37200	4
0.37567	12
0.37933	21
0.38300	26
0.38667	24
0.39033	18
0.39400	11
0.39767	6
0.40133	2
0.40500	-1
0.40867	-4
0.41233	-7
0.41600	-8
0.41967	-11
0.42333	-17
0.42700	-21
0.43067	-23
0.43433	-21
0.43800	-17
0.44167	-11
0.44533	-2
0.44900	5
0.45267	11
0.45633	14
0.46000	16
0.46367	15
0.46733	16
0.47100	20
0.47467	26
0.47833	27
0.48200	24
0.48567	19
0.48933	14
0.49300	7
0.49667	2
0.50033	-2
0.50400	-3
0.50767	-0
0.51133	4
0.51500	6
0.51867	8
0.52233	8
0.52600	11
0.52967	16
0.53333	20
0.53700	21
0.54067	20
0.54433	16
0.54800	12
0.55167	10
0.55533	7
0.55900	3
0.56267	3
0.56633	7
0.57000	12
0.57367	15
0.57733	14
0.58100	11
0.58467	10
0.58833	7
0.59200	5
0.59567	2
0.59933	-1
0.60300	-4
0.60667	-5
0.61033	-3
0.61400	3
0.61767	9
0.62133	14
0.62500	18
0.62867	21
0.63233	19
0.63600	15
0.63967	11
0.64333	9
0.64700	8
0.65067	4
0.65433	0
0.65800	1
0.66167	9
0.66533	22
0.66900	35
0.67267	43
0.67633	40
0.68000	31
0.68367	22
0.68733	11
0.69100	-2
0.69467	-15
0.69833	-21
0.70200	-20
0.70567	-19
0.70933	-18
0.71300	-16
0.71667	-17
0.72033	-20
0.72400	-20
0.72767	-21
0.73133	-23
0.73500	-25
0.73867	-25
0.74233	-25
0.74600	-26
0.74967	-23
0.75333	-18
0.75700	-12
0.76067	-6
0.76433	-1
0.76800	3
0.77167	4
0.77533	4
0.77900	8
0.78267	11
0.78633	12
0.79000	11
0.79367	9
0.79733	7
0.80100	8
0.80467	11
0.80833	16
0.81200	20
0.81567	22
0.81933	20
0.82300	16
0.82667	14
0.83033	14
0.83400	18
0.83767	18
0.84133	13
0.84500	8
0.84867	5
0.85233	2
0.85600	0
0.85967	-1
0.86333	-1
0.86700	2
0.87067	6
0.87433	6
0.87800	1
0.88167	-1
0.88533	1
0.88900	5
0.89267	11
0.89633	16
0.90000	19
0.90367	20
0.90733	20
0.91100	17
0.91467	14
0.91833	11
0.92200	8
0.92567	5
0.92933	3
0.93300	3
0.93667	6
0.94033	7
0.94400	9
0.94767	14
0.95133	24
0.95500	33
0.95867	34
0.96233	28
0.96600	19
0.96967	9
0.97333	0
0.97700	-7
0.98067	-13
0.98433	-19
0.98800	-20
0.99167	-14
0.99533	-3
0.99900	9
1.00267	17
1.00633	18
1.01000	15
1.01367	14
1.01733	15
1.02100	15
1.02467	10
1.02833	4
1.03200	3
1.03567	3
1.03933	1
1.04300	-0
1.04667	0
1.05033	2
1.05400	5
1.05767	11
1.06133	18
1.06500	27
1.06867	36
1.07233	39
1.07600	46
1.07967	53
1.08333	57
1.08700	57
1.09067	56
1.09433	55
1.09800	53
1.10167	50
1.10533	49
1.10900	48
1.11267	43
1.11633	35
1.12000	25
1.12367	17
1.12733	14
1.13100	17
1.13467	21
1.13833	24
1.14200	27
1.14567	28
1.14933	30
1.15300	34
1.15667	41
1.16033	49
1.16400	58
1.16767	66
1.17133	66
1.17500	61
1.17867	55
1.18233	52
1.18600	55
1.18967	57
1.19333	55
1.19700	53
1.20067	54
1.20433	57
1.20800	59
1.21167	59
1.21533	56
1.21900	53
1.22267	49
1.22633	46
1.23000	43
1.23367	42
1.23733	47
1.24100	57
1.24467	68
1.24833	73
1.25200	68
1.25567	57
1.25933	45
1.26300	37
1.26667	32
1.27033	30
1.27400	30
1.27767	27
1.28133	23
1.28500	21
1.28867	24
1.29233	32
1.29600	41
1.29967	48
1.30333	51
1.30700	55
1.31067	55
1.31433	50
1.31800	45
1.32167	41
1.32533	40
1.32900	40
1.33267	41
1.33633	42
1.34000	47
1.34367	54
1.34733	58
1.35100	60
1.35467	60
1.35833	54
1.36200	42
1.36567	31
1.36933	27
1.37300	28
1.37667	31
1.38033	35
1.38400	43
1.38767	51
1.39133	54
1.39500	54
1.39867	51
1.40233	46
1.40600	40
1.40967	36
1.41333	32
1.41700	32
1.42067	35
1.42433	38
1.42800	37
1.43167	33
1.43533	33
1.43900	57
1.44267	149
1.44633	314
1.45000	481
1.45367	601
1.45733	668
1.46100	691
1.46467	683
1.46833	667
1.47200	658
1.47567	665
1.47933	683
1.48300	693
1.48667	679
1.49033	638
1.49400	575
1.49767	501
1.50133	427
1.50500	359
1.50867	304
1.51233	261
1.51600	225
1.51967	193
1.52333	170
1.52700	152
1.53067	140
1.53433	143
1.53800	227
1.54167	589
1.54533	1521
1.54900	3130
1.55267	5145
1.55633	7133
1.56000	8785
1.56367	9960
1.56733	10550
1.57100	10424
1.57467	9525
1.57833	8032
1.58200	6301
1.58567	4665
1.58933	3311
1.59300	2285
1.59667	1551
1.60033	1041
1.60400	696
1.60767	467
1.61133	315
1.61500	216
1.61867	151
1.62233	112
1.62600	90
1.62967	79
1.63333	73
1.63700	68
1.64067	61
1.64433	52
1.64800	45
1.65167	42
1.65533	43
1.65900	44
1.66267	41
1.66633	32
1.67000	20
1.67367	12
1.67733	12
1.68100	18
1.68467	22
1.68833	23
1.69200	21
1.69567	17
1.69933	12
1.70300	7
1.70667	3
1.71033	1
1.71400	-1
1.71767	-3
1.72133	-3
1.72500	0
1.72867	6
1.73233	10
1.73600	17
1.73967	25
1.74333	29
1.74700	30
1.75067	29
1.75433	28
1.75800	30
1.76167	34
1.76533	37
1.76900	39
1.77267	40
1.77633	37
1.78000	31
1.78367	24
1.78733	15
1.79100	7
1.79467	-0
1.79833	-7
1.80200	-11
1.80567	-10
1.80933	-4
1.81300	1
1.81667	5
1.82033	9
1.82400	9
1.82767	13
1.83133	15
1.83500	12
1.83867	7
1.84233	4
1.84600	4
1.84967	7
1.85333	12
1.85700	16
1.86067	17
1.86433	17
1.86800	17
1.87167	22
1.87533	28
1.87900	31
1.88267	27
1.88633	21
1.89000	16
1.89367	14
1.89733	15
1.90100	16
1.90467	16
1.90833	14
1.91200	12
1.91567	13
1.91933	14
1.92300	16
1.92667	19
1.93033	21
1.93400	26
1.93767	31
1.94133	34
1.94500	35
1.94867	46
1.95233	87
1.95600	320
1.95967	1611
1.96333	7258
1.96700	26034
1.97067	73950
1.97433	168637
1.97800	315718
1.98167	499351
1.98533	688061
1.98900	849247
1.99267	958745
1.99633	1002568
2.00000	976629
2.00367	889095
2.00733	759165
2.01100	611479
2.01467	468519
2.01833	345077
2.02200	247116
2.02567	174004
2.02933	121746
2.03300	85454
2.03667	60691
2.04033	43941
2.04400	32625
2.04767	24936
2.05133	19649
2.05500	15948
2.05867	13301
2.06233	11354
2.06600	9881
2.06967	8734
2.07333	7826
2.07700	7095
2.08067	6490
2.08433	5983
2.08800	5550
2.09167	5173
2.09533	4844
2.09900	4556
2.10267	4300
2.10633	4071
2.11000	3865
2.11367	3678
2.11733	3508
2.12100	3352
2.12467	3207
2.12833	3072
2.13200	2945
2.13567	2828
2.13933	2719
2.14300	2616
2.14667	2523
2.15033	2439
2.15400	2359
2.15767	2284
2.16133	2211
2.16500	2137
2.16867	2067
2.17233	2001
2.17600	1943
2.17967	1889
2.18333	1838
2.18700	1792
2.19067	1749
2.19433	1706
2.19800	1666
2.20167	1633
2.20533	1603
2.20900	1566
2.21267	1521
2.21633	1474
2.22000	1429
2.22367	1387
2.22733	1354
2.23100	1329
2.23467	1307
2.23833	1283
2.24200	1256
2.24567	1229
2.24933	1203
2.25300	1178
2.25667	1153
2.26033	1131
2.26400	1110
2.26767	1089
2.27133	1069
2.27500	1052
2.27867	1036
2.28233	1019
2.28600	1004
2.28967	989
2.29333	978
2.29700	965
2.30067	948
2.30433	929
2.30800	912
2.31167	900
2.31533	892
2.31900	888
2.32267	883
2.32633	873
2.33000	860
2.33367	846
2.33733	833
2.34100	820
2.34467	810
2.34833	801
2.35200	791
2.35567	780
2.35933	771
2.36300	766
2.36667	760
2.37033	754
2.37400	745
2.37767	728
2.38133	713
2.38500	704
2.38867	696
2.39233	687
2.39600	678
2.39967	670
2.40333	662
2.40700	656
2.41067	653
2.41433	652
2.41800	652
2.42167	655
2.42533	655
2.42900	651
2.43267	645
2.43633	638
2.44000	631
2.44367	624
2.44733	618
2.45100	610
2.45467	601
2.45833	595
2.46200	592
2.46567	588
2.46933	585
2.47300	580
2.47667	570
2.48033	557
2.48400	548
2.48767	544
2.49133	539
2.49500	530
2.49867	522
2.50233	518
2.50600	519
2.50967	527
2.51333	539
2.51700	548
2.52067	549
2.52433	538
2.52800	523
2.53167	507
2.53533	497
2.53900	494
2.54267	496
2.54633	498
2.55000	495
2.55367	494
2.55733	492
2.56100	486
2.56467	476
2.56833	465
2.57200	459
2.57567	460
2.57933	464
2.58300	467
2.58667	466
2.59033	460
2.59400	454
2.59767	448
2.60133	443
2.60500	442
2.60867	441
2.61233	443
2.61600	446
2.61967	450
2.62333	457
2.62700	461
2.63067	462
2.63433	459
2.63800	451
2.64167	439
2.64533	424
2.64900	411
2.65267	401
2.65633	394
2.66000	392
2.66367	396
2.66733	402
2.67100	408
2.67467	413
2.67833	419
2.68200	425
2.68567	427
2.68933	425
2.69300	425
2.69667	427
2.70033	426
2.70400	419
2.70767	408
2.71133	399
2.71500	394
2.71867	390
2.72233	384
2.72600	379
2.72967	378
2.73333	381
2.73700	382
2.74067	381
2.74433	378
2.74800	375
2.75167	372
2.75533	370
2.75900	373
2.76267	377
2.76633	382
2.77000	385
2.77367	386
2.77733	390
2.78100	392
2.78467	391
2.78833	391
2.79200	393
2.79567	393
2.79933	392
2.80300	392
2.80667	391
2.81033	391
2.81400	392
2.81767	394
2.82133	396
2.82500	398
2.82867	395
2.83233	391
2.83600	389
2.83967	386
2.84333	379
2.84700	372
2.85067	367
2.85433	360
2.85800	352
2.86167	344
2.86533	341
2.86900	342
2.87267	346
2.87633	350
2.88000	353
2.88367	355
2.88733	359
2.89100	365
2.89467	367
2.89833	368
2.90200	366
2.90567	360
2.90933	357
2.91300	357
2.91667	357
2.92033	357
2.92400	359
2.92767	362
2.93133	364
2.93500	363
2.93867	360
2.94233	356
2.94600	355
2.94967	353
2.95333	352
2.95700	351
2.96067	351
2.96433	349
2.96800	348
2.97167	345
2.97533	345
2.97900	345
2.98267	346
2.98633	348
2.99000	351
2.99367	355
2.99733	358
3.00100	358
3.00467	355
3.00833	350
3.01200	345
3.01567	343
3.01933	348
3.02300	355
3.02667	360
3.03033	360
3.03400	351
3.03767	339
3.04133	333
3.04500	333
3.04867	334
3.05233	331
3.05600	325
3.05967	319
3.06333	318
3.06700	319
3.07067	319
3.07433	318
3.07800	320
3.08167	322
3.08533	322
3.08900	320
3.09267	319
3.09633	318
3.10000	319
3.10367	322
3.10733	326
3.11100	329
3.11467	331
3.11833	330
3.12200	326
3.12567	325
3.12933	325
3.13300	322
3.13667	319
3.14033	315
3.14400	313
3.14767	314
3.15133	317
3.15500	322
3.15867	325
3.16233	322
3.16600	319
3.16967	317
3.17333	315
3.17700	311
3.18067	306
3.18433	302
3.18800	300
3.19167	300
3.19533	305
3.19900	310
3.20267	312
3.20633	314
3.21000	317
3.21367	319
3.21733	316
3.22100	308
3.22467	298
3.22833	293
3.23200	291
3.23567	292
3.23933	294
3.24300	293
3.24667	293
3.25033	294
3.25400	296
3.25767	298
3.26133	299
3.26500	297
3.26867	292
3.27233	286
3.27600	280
3.27967	277
3.28333	275
3.28700	274
3.29067	274
3.29433	276
3.29800	280
3.30167	282
3.30533	285
3.30900	288
3.31267	293
3.31633	292
3.32000	287
3.32367	282
3.32733	281
3.33100	285
3.33467	290
3.33833	293
3.34200	294
3.34567	295
3.34933	295
3.35300	298
3.35667	299
3.36033	300
3.36400	302
3.36767	300
3.37133	294
3.37500	287
3.37867	281
3.38233	276
3.38600	267
3.38967	256
3.39333	249
3.39700	247
3.40067	248
3.40433	250
3.40800	252
3.41167	254
3.41533	258
3.41900	262
3.42267	266
3.42633	271
3.43000	277
3.43367	283
3.43733	284
3.44100	282
3.44467	278
3.44833	274
3.45200	271
3.45567	270
3.45933	271
3.46300	273
3.46667	272
3.47033	267
3.47400	256
3.47767	245
3.48133	241
3.48500	240
3.48867	241
3.49233	240
3.49600	238
3.49967	236
3.50333	237
3.50700	239
3.51067	241
3.51433	244
3.51800	249
3.52167	253
3.52533	257
3.52900	260
3.53267	261
3.53633	260
3.54000	260
3.54367	259
3.54733	255
3.55100	250
3.55467	244
3.55833	240
3.56200	239
3.56567	240
3.56933	243
3.57300	246
3.57667	250
3.58033	252
3.58400	251
3.58767	249
3.59133	247
3.59500	244
3.59867	241
3.60233	239
3.60600	236
3.60967	234
3.61333	234
3.61700	232
3.62067	227
3.62433	223
3.62800	224
3.63167	227
3.63533	230
3.63900	230
3.64267	232
3.64633	236
3.65000	237
3.65367	232
3.65733	228
3.66100	225
3.66467	221
3.66833	219
3.67200	217
3.67567	216
3.67933	217
3.68300	220
3.68667	225
3.69033	231
3.69400	236
3.69767	239
3.70133	241
3.70500	238
3.70867	232
3.71233	223
3.71600	216
3.71967	211
3.72333	208
3.72700	207
3.73067	204
3.73433	202
3.73800	203
3.74167	203
3.74533	204
3.74900	205
3.75267	207
3.75633	209
3.76000	216
3.76367	222
3.76733	222
3.77100	219
3.77467	218
3.77833	218
3.78200	215
3.78567	212
3.78933	215
3.79300	218
3.79667	219
3.80033	216
3.80400	213
3.80767	211
3.81133	211
3.81500	209
3.81867	207
3.82233	209
3.82600	215
3.82967	218
3.83333	214
3.83700	208
3.84067	209
3.84433	216
3.84800	219
3.85167	212
3.85533	198
3.85900	182
3.86267	171
3.86633	168
3.87000	169
3.87367	171
3.87733	175
3.88100	179
3.88467	183
3.88833	183
3.89200	178
3.89567	173
3.89933	171
3.90300	170
3.90667	170
3.91033	169
3.91400	171
3.91767	172
3.92133	176
3.92500	183
3.92867	191
3.93233	197
3.93600	196
3.93967	192
3.94333	190
3.94700	189
3.95067	181
3.95433	183
3.95800	182
3.96167	180
3.96533	181
3.96900	181
3.97267	176
3.97633	172
3.98000	171
3.98367	165
3.98733	157
3.99100	152
3.99467	150
3.99833	153

[Chromatogram (Ch2)]
Interval(msec)	220
# of Points	1091
Start Time(min)	0.002
End Time(min)	3.998
R.Time (min)	Intensity
0.00167	-0
0.00533	-0
0.00900	-0
0.01267	-0
0.01633	-0
0.02000	-0
0.02367	-0
0.02733	-0
0.03100	0
0.03467	0
0.03833	1
0.04200	1
0.04567	1
0.04933	1
0.05300	1
0.05667	1
0.06033	2
0.06400	2
0.06767	2
0.07133	2
0.07500	2
0.07867	2
0.08233	2
0.08600	3
0.08967	3
0.09333	3
0.09700	3
0.10067	4
0.10433	4
0.10800	4
0.11167	4
0.11533	4
0.11900	4
0.12267	4
0.12633	3
0.13000	3
0.13367	3
0.13733	3
0.14100	3
0.14467	3
0.14833	3
0.15200	3
0.15567	3
0.15933	3
0.16300	3
0.16667	2
0.17033	2
0.17400	2
0.17767	2
0.18133	2
0.18500	2
0.18867	2
0.19233	2
0.19600	2
0.19967	2
0.20333	2
0.20700	2
0.21067	2
0.21433	1
0.21800	1
0.22167	1
0.22533	1
0.22900	1
0.23267	1
0.23633	1
0.24000	2
0.24367	2
0.24733	1
0.25100	1
0.25467	2
0.25833	2
0.26200	2
0.26567	2
0.26933	2
0.27300	3
0.27667	3
0.28033	2
0.28400	2
0.28767	2
0.29133	2
0.29500	2
0.29867	2
0.30233	2
0.30600	2
0.30967	2
0.31333	2
0.31700	2
0.32067	2
0.32433	2
0.32800	2
0.33167	2
0.33533	2
0.33900	2
0.34267	2
0.34633	3
0.35000	3
0.35367	3
0.35733	3
0.36100	3
0.36467	3
0.36833	3
0.37200	3
0.37567	4
0.37933	4
0.38300	4
0.38667	3
0.39033	3
0.39400	3
0.39767	3
0.40133	2
0.40500	2
0.40867	2
0.41233	2
0.41600	1
0.41967	1
0.42333	1
0.42700	1
0.43067	1
0.43433	1
0.43800	0
0.44167	0
0.44533	0
0.44900	0
0.45267	0
0.45633	0
0.46000	0
0.46367	0
0.46733	0
0.47100	0
0.47467	0
0.47833	1
0.48200	1
0.48567	1
0.48933	1
0.49300	2
0.49667	2
0.50033	2
0.50400	2
0.50767	2
0.51133	2
0.51500	2
0.51867	2
0.52233	2
0.52600	1
0.52967	1
0.53333	1
0.53700	1
0.54067	1
0.54433	1
0.54800	1
0.55167	0
0.55533	0
0.55900	-0
0.56267	-0
0.56633	-1
0.57000	-1
0.57367	-1
0.57733	-1
0.58100	-1
0.58467	-1
0.58833	-1
0.59200	-0
0.59567	-0
0.59933	0
0.60300	0
0.60667	0
0.61033	0
0.61400	0
0.61767	-0
0.62133	-0
0.62500	-0
0.62867	-0
0.63233	-0
0.63600	-1
0.63967	-1
0.64333	-1
0.64700	-1
0.65067	-1
0.65433	-1
0.65800	-1
0.66167	-1
0.66533	-1
0.66900	-1
0.67267	-1
0.67633	-1
0.68000	-1
0.68367	-0
0.68733	-0
0.69100	-0
0.69467	0
0.69833	0
0.70200	1
0.70567	1
0.70933	1
0.71300	1
0.71667	1
0.72033	1
0.72400	1
0.72767	1
0.73133	1
0.73500	1
0.73867	1
0.74233	1
0.74600	1
0.74967	1
0.75333	1
0.75700	1
0.76067	1
0.76433	1
0.76800	1
0.77167	1
0.77533	2
0.77900	2
0.78267	2
0.78633	3
0.79000	3
0.79367	3
0.79733	3
0.80100	3
0.80467	3
0.80833	3
0.81200	2
0.81567	2
0.81933	2
0.82300	2
0.82667	2
0.83033	1
0.83400	1
0.83767	1
0.84133	1
0.84500	0
0.84867	0
0.85233	0
0.85600	-0
0.85967	-0
0.86333	0
0.86700	0
0.87067	-0
0.87433	-0
0.87800	-1
0.88167	-1
0.88533	-1
0.88900	-1
0.89267	-1
0.89633	-1
0.90000	-1
0.90367	-1
0.90733	-2
0.91100	-2
0.91467	-2
0.91833	-2
0.92200	-2
0.92567	-2
0.92933	-2
0.93300	-2
0.93667	-2
0.94033	-2
0.94400	-2
0.94767	-2
0.95133	-1
0.95500	-1
0.95867	-1
0.96233	-2
0.96600	-2
0.96967	-2
0.97333	-2
0.97700	-2
0.98067	-2
0.98433	-2
0.98800	-1
0.99167	-1
0.99533	-1
0.99900	-1
1.00267	-1
1.00633	-1
1.01000	-0
1.01367	-0
1.01733	-0
1.02100	0
1.02467	0
1.02833	0
1.03200	1
1.03567	1
1.03933	1
1.04300	1
1.04667	2
1.05033	2
1.05400	2
1.05767	2
1.06133	2
1.06500	1
1.06867	1
1.07233	1
1.07600	0
1.07967	0
1.08333	0
1.08700	0
1.09067	0
1.09433	0
1.09800	0
1.10167	0
1.10533	0
1.10900	0
1.11267	-0
1.11633	-0
1.12000	-0
1.12367	-0
1.12733	-1
1.13100	-1
1.13467	-1
1.13833	-1
1.14200	-1
1.14567	-1
1.14933	-1
1.15300	-1
1.15667	-1
1.16033	-1
1.16400	-2
1.16767	-2
1.17133	-2
1.17500	-3
1.17867	-3
1.18233	-3
1.18600	-3
1.18967	-3
1.19333	-3
1.19700	-3
1.20067	-3
1.20433	-4
1.20800	-4
1.21167	-4
1.21533	-3
1.21900	-3
1.22267	-3
1.22633	-3
1.23000	-3
1.23367	-2
1.23733	-2
1.24100	-2
1.24467	-2
1.24833	-2
1.25200	-1
1.25567	-1
1.25933	-1
1.26300	-1
1.26667	-1
1.27033	-1
1.27400	-1
1.27767	-1
1.28133	-1
1.28500	-1
1.28867	-1
1.29233	-1
1.29600	-1
1.29967	-1
1.30333	-1
1.30700	-1
1.31067	-1
1.31433	-1
1.31800	-1
1.32167	-0
1.32533	-0
1.32900	-0
1.33267	0
1.33633	0
1.34000	0
1.34367	0
1.34733	0
1.35100	0
1.35467	0
1.35833	0
1.36200	0
1.36567	0
1.36933	-0
1.37300	-0
1.37667	-0
1.38033	-0
1.38400	-1
1.38767	-1
1.39133	-1
1.39500	-2
1.39867	-2
1.40233	-3
1.40600	-3
1.40967	-3
1.41333	-3
1.41700	-3
1.42067	-3
1.42433	-3
1.42800	-3
1.43167	-3
1.43533	-3
1.43900	-3
1.44267	-2
1.44633	-2
1.45000	-2
1.45367	-2
1.45733	-2
1.46100	-2
1.46467	-2
1.46833	-2
1.47200	-2
1.47567	-3
1.47933	-3
1.48300	-3
1.48667	-3
1.49033	-3
1.49400	-3
1.49767	-3
1.50133	-3
1.50500	-3
1.50867	-3
1.51233	-3
1.51600	-4
1.51967	-3
1.52333	-3
1.52700	-3
1.53067	-3
1.53433	-2
1.53800	-2
1.54167	-2
1.54533	-2
1.54900	-2
1.55267	-1
1.55633	-1
1.56000	-1
1.56367	-0
1.56733	-0
1.57100	-1
1.57467	-1
1.57833	-1
1.58200	-1
1.58567	-1
1.58933	-1
1.59300	-2
1.59667	-2
1.60033	-3
1.60400	-4
1.60767	-5
1.61133	-7
1.61500	-9
1.61867	-11
1.62233	-13
1.62600	-16
1.62967	-19
1.63333	-22
1.63700	-26
1.64067	-30
1.64433	-34
1.64800	-38
1.65167	-42
1.65533	-46
1.65900	-49
1.66267	-54
1.66633	-58
1.67000	-63
1.67367	-68
1.67733	-73
1.68100	-78
1.68467	-83
1.68833	-88
1.69200	-93
1.69567	-97
1.69933	-100
1.70300	-102
1.70667	-105
1.71033	-107
1.71400	-108
1.71767	-109
1.72133	-109
1.72500	-110
1.72867	-111
1.73233	-111
1.73600	-111
1.73967	-112
1.74333	-112
1.74700	-113
1.75067	-113
1.75433	-114
1.75800	-114
1.76167	-115
1.76533	-115
1.76900	-115
1.77267	-115
1.77633	-114
1.78000	-114
1.78367	-113
1.78733	-113
1.79100	-114
1.79467	-114
1.79833	-115
1.80200	-116
1.80567	-117
1.80933	-117
1.81300	-118
1.81667	-118
1.82033	-117
1.82400	-117
1.82767	-117
1.83133	-117
1.83500	-117
1.83867	-117
1.84233	-117
1.84600	-118
1.84967	-117
1.85333	-117
1.85700	-117
1.86067	-116
1.86433	-116
1.86800	-116
1.87167	-116
1.87533	-116
1.87900	-116
1.88267	-116
1.88633	-117
1.89000	-116
1.89367	-116
1.89733	-115
1.90100	-115
1.90467	-115
1.90833	-114
1.91200	-114
1.91567	-114
1.91933	-114
1.92300	-114
1.92667	-114
1.93033	-114
1.93400	-115
1.93767	-115
1.94133	-115
1.94500	-115
1.94867	-115
1.95233	-115
1.95600	-114
1.95967	-114
1.96333	-113
1.96700	-113
1.97067	-113
1.97433	-113
1.97800	-113
1.98167	-113
1.98533	-113
1.98900	-112
1.99267	-112
1.99633	-112
2.00000	-112
2.00367	-111
2.00733	-111
2.01100	-111
2.01467	-111
2.01833	-111
2.02200	-111
2.02567	-110
2.02933	-109
2.03300	-108
2.03667	-107
2.04033	-106
2.04400	-106
2.04767	-105
2.05133	-104
2.05500	-104
2.05867	-103
2.06233	-104
2.06600	-104
2.06967	-104
2.07333	-104
2.07700	-104
2.08067	-104
2.08433	-104
2.08800	-104
2.09167	-104
2.09533	-104
2.09900	-103
2.10267	-103
2.10633	-103
2.11000	-102
2.11367	-102
2.11733	-101
2.12100	-101
2.12467	-101
2.12833	-100
2.13200	-100
2.13567	-100
2.13933	-99
2.14300	-99
2.14667	-99
2.15033	-99
2.15400	-99
2.15767	-99
2.16133	-99
2.16500	-98
2.16867	-98
2.17233	-98
2.17600	-97
2.17967	-96
2.18333	-96
2.18700	-95
2.19067	-94
2.19433	-94
2.19800	-93
2.20167	-92
2.20533	-91
2.20900	-91
2.21267	-91
2.21633	-91
2.22000	-92
2.22367	-92
2.22733	-92
2.23100	-92
2.23467	-92
2.23833	-91
2.24200	-91
2.24567	-91
2.24933	-90
2.25300	-90
2.25667	-91
2.26033	-91
2.26400	-91
2.26767	-92
2.27133	-92
2.27500	-92
2.27867	-91
2.28233	-91
2.28600	-90
2.28967	-88
2.29333	-88
2.29700	-86
2.30067	-86
2.30433	-85
2.30800	-84
2.31167	-84
2.31533	-83
2.31900	-83
2.32267	-83
2.32633	-83
2.33000	-82
2.33367	-82
2.33733	-81
2.34100	-80
2.34467	-79
2.34833	-78
2.35200	-77
2.35567	-76
2.35933	-76
2.36300	-75
2.36667	-74
2.37033	-73
2.37400	-72
2.37767	-70
2.38133	-68
2.38500	-65
2.38867	-61
2.39233	-58
2.39600	-54
2.39967	-50
2.40333	-46
2.40700	-41
2.41067	-37
2.41433	-33
2.41800	-30
2.42167	-26
2.42533	-24
2.42900	-21
2.43267	-19
2.43633	-17
2.44000	-15
2.44367	-13
2.44733	-12
2.45100	-10
2.45467	-8
2.45833	-6
2.46200	-5
2.46567	-3
2.46933	-2
2.47300	-0
2.47667	1
2.48033	2
2.48400	3
2.48767	4
2.49133	5
2.49500	6
2.49867	6
2.50233	7
2.50600	8
2.50967	9
2.51333	10
2.51700	10
2.52067	11
2.52433	11
2.52800	12
2.53167	12
2.53533	12
2.53900	13
2.54267	13
2.54633	13
2.55000	13
2.55367	14
2.55733	14
2.56100	15
2.56467	15
2.56833	16
2.57200	16
2.57567	17
2.57933	17
2.58300	17
2.58667	18
2.59033	18
2.59400	19
2.59767	19
2.60133	20
2.60500	20
2.60867	20
2.61233	20
2.61600	20
2.61967	20
2.62333	20
2.62700	20
2.63067	21
2.63433	21
2.63800	21
2.64167	21
2.64533	21
2.64900	21
2.65267	22
2.65633	22
2.66000	22
2.66367	22
2.66733	22
2.67100	22
2.67467	22
2.67833	22
2.68200	22
2.68567	22
2.68933	22
2.69300	22
2.69667	22
2.70033	22
2.70400	22
2.70767	23
2.71133	23
2.71500	23
2.71867	23
2.72233	23
2.72600	24
2.72967	24
2.73333	24
2.73700	24
2.74067	23
2.74433	23
2.74800	24
2.75167	24
2.75533	24
2.75900	25
2.76267	25
2.76633	25
2.77000	26
2.77367	26
2.77733	26
2.78100	26
2.78467	26
2.78833	26
2.79200	26
2.79567	25
2.79933	25
2.80300	24
2.80667	24
2.81033	23
2.81400	23
2.81767	23
2.82133	23
2.82500	23
2.82867	24
2.83233	23
2.83600	23
2.83967	21
2.84333	17
2.84700	12
2.85067	3
2.85433	-10
2.85800	-26
2.86167	-48
2.86533	-75
2.86900	-107
2.87267	-144
2.87633	-187
2.88000	-234
2.88367	-287
2.88733	-345
2.89100	-406
2.89467	-472
2.89833	-542
2.90200	-615
2.90567	-691
2.90933	-769
2.91300	-850
2.91667	-934
2.92033	-1019
2.92400	-1107
2.92767	-1196
2.93133	-1287
2.93500	-1378
2.93867	-1461
2.94233	-1525
2.94600	-1558
2.94967	-1554
2.95333	-1516
2.95700	-1448
2.96067	-1358
2.96433	-1254
2.96800	-1143
2.97167	-1030
2.97533	-920
2.97900	-815
2.98267	-717
2.98633	-628
2.99000	-547
2.99367	-474
2.99733	-410
3.00100	-353
3.00467	-303
3.00833	-260
3.01200	-222
3.01567	-190
3.01933	-161
3.02300	-137
3.02667	-116
3.03033	-98
3.03400	-83
3.03767	-70
3.04133	-59
3.04500	-49
3.04867	-41
3.05233	-34
3.05600	-28
3.05967	-23
3.06333	-19
3.06700	-15
3.07067	-12
3.07433	-9
3.07800	-6
3.08167	-4
3.08533	-2
3.08900	-0
3.09267	1
3.09633	3
3.10000	4
3.10367	5
3.10733	6
3.11100	7
3.11467	8
3.11833	9
3.12200	10
3.12567	11
3.12933	12
3.13300	12
3.13667	13
3.14033	14
3.14400	14
3.14767	15
3.15133	15
3.15500	15
3.15867	15
3.16233	16
3.16600	16
3.16967	16
3.17333	17
3.17700	17
3.18067	17
3.18433	18
3.18800	18
3.19167	18
3.19533	18
3.19900	18
3.20267	18
3.20633	18
3.21000	19
3.21367	19
3.21733	19
3.22100	19
3.22467	19
3.22833	20
3.23200	20
3.23567	20
3.23933	20
3.24300	20
3.24667	21
3.25033	21
3.25400	21
3.25767	21
3.26133	21
3.26500	20
3.26867	20
3.27233	20
3.27600	20
3.27967	21
3.28333	21
3.28700	21
3.29067	21
3.29433	22
3.29800	22
3.30167	22
3.30533	23
3.30900	23
3.31267	23
3.31633	23
3.32000	24
3.32367	24
3.32733	25
3.33100	25
3.33467	26
3.33833	26
3.34200	26
3.34567	26
3.34933	26
3.35300	26
3.35667	26
3.36033	26
3.36400	26
3.36767	27
3.37133	27
3.37500	27
3.37867	27
3.38233	27
3.38600	27
3.38967	26
3.39333	26
3.39700	26
3.40067	26
3.40433	26
3.40800	26
3.41167	26
3.41533	26
3.41900	25
3.42267	25
3.42633	25
3.43000	25
3.43367	25
3.43733	25
3.44100	25
3.44467	25
3.44833	25
3.45200	25
3.45567	25
3.45933	25
3.46300	25
3.46667	25
3.47033	25
3.47400	25
3.47767	25
3.48133	25
3.48500	25
3.48867	25
3.49233	25
3.49600	25
3.49967	25
3.50333	25
3.50700	25
3.51067	25
3.51433	25
3.51800	25
3.52167	25
3.52533	25
3.52900	25
3.53267	25
3.53633	25
3.54000	25
3.54367	25
3.54733	25
3.55100	25
3.55467	24
3.55833	24
3.56200	24
3.56567	24
3.56933	24
3.57300	24
3.57667	24
3.58033	24
3.58400	24
3.58767	24
3.59133	24
3.59500	23
3.59867	23
3.60233	23
3.60600	23
3.60967	24
3.61333	24
3.61700	24
3.62067	24
3.62433	24
3.62800	25
3.63167	25
3.63533	25
3.63900	25
3.64267	25
3.64633	25
3.65000	25
3.65367	25
3.65733	25
3.66100	26
3.66467	26
3.66833	26
3.67200	25
3.67567	25
3.67933	25
3.68300	25
3.68667	25
3.69033	25
3.69400	25
3.69767	25
3.70133	25
3.70500	25
3.70867	25
3.71233	25
3.71600	25
3.71967	25
3.72333	25
3.72700	25
3.73067	25
3.73433	25
3.73800	25
3.74167	25
3.74533	25
3.74900	26
3.75267	26
3.75633	26
3.76000	26
3.76367	27
3.76733	27
3.77100	27
3.77467	27
3.77833	27
3.78200	27
3.78567	27
3.78933	27
3.79300	26
3.79667	26
3.80033	26
3.80400	26
3.80767	26
3.81133	26
3.81500	26
3.81867	26
3.82233	25
3.82600	25
3.82967	25
3.83333	24
3.83700	24
3.84067	24
3.84433	24
3.84800	24
3.85167	24
3.85533	24
3.85900	24
3.86267	24
3.86633	24
3.87000	24
3.87367	24
3.87733	24
3.88100	24
3.88467	24
3.88833	24
3.89200	24
3.89567	24
3.89933	24
3.90300	24
3.90667	24
3.91033	25
3.91400	25
3.91767	25
3.92133	25
3.92500	25
3.92867	25
3.93233	25
3.93600	26
3.93967	26
3.94333	26
3.94700	26
3.95067	26
3.95433	26
3.95800	26
3.96167	26
3.96533	27
3.96900	27
3.97267	27
3.97633	27
3.98000	27
3.98367	27
3.98733	27
3.99100	26
3.99467	26
3.99833	26

[Chromatogram (Ch3)]
Interval(msec)	220
# of Points	1091
Start Time(min)	0.002
End Time(min)	3.998
R.Time (min)	Intensity
0.00167	-1
0.00533	-2
0.00900	-1
0.01267	-0
0.01633	2
0.02000	2
0.02367	-1
0.02733	-3
0.03100	-3
0.03467	-2
0.03833	-1
0.04200	0
0.04567	1
0.04933	2
0.05300	2
0.05667	2
0.06033	0
0.06400	-1
0.06767	-2
0.07133	-3
0.07500	-3
0.07867	-4
0.08233	-3
0.08600	1
0.08967	1
0.09333	0
0.09700	-0
0.10067	-2
0.10433	-3
0.10800	-3
0.11167	-1
0.11533	-0
0.11900	-1
0.12267	-0
0.12633	1
0.13000	4
0.13367	5
0.13733	8
0.14100	9
0.14467	7
0.14833	6
0.15200	4
0.15567	3
0.15933	2
0.16300	1
0.16667	-0
0.17033	-0
0.17400	-0
0.17767	-1
0.18133	-1
0.18500	-1
0.18867	-0
0.19233	2
0.19600	3
0.19967	5
0.20333	3
0.20700	1
0.21067	-1
0.21433	-2
0.21800	-2
0.22167	-3
0.22533	-3
0.22900	-2
0.23267	-2
0.23633	-2
0.24000	-0
0.24367	1
0.24733	1
0.25100	3
0.25467	2
0.25833	2
0.26200	1
0.26567	-0
0.26933	1
0.27300	2
0.27667	1
0.28033	1
0.28400	4
0.28767	4
0.29133	4
0.29500	3
0.29867	3
0.30233	5
0.30600	6
0.30967	5
0.31333	5
0.31700	8
0.32067	11
0.32433	10
0.32800	10
0.33167	7
0.33533	4
0.33900	2
0.34267	2
0.34633	5
0.35000	8
0.35367	9
0.35733	10
0.36100	10
0.36467	11
0.36833	12
0.37200	12
0.37567	11
0.37933	9
0.38300	8
0.38667	9
0.39033	8
0.39400	8
0.39767	9
0.40133	9
0.40500	8
0.40867	11
0.41233	14
0.41600	16
0.41967	17
0.42333	19
0.42700	19
0.43067	19
0.43433	18
0.43800	19
0.44167	20
0.44533	23
0.44900	22
0.45267	20
0.45633	19
0.46000	17
0.46367	17
0.46733	17
0.47100	18
0.47467	16
0.47833	16
0.48200	17
0.48567	17
0.48933	16
0.49300	14
0.49667	14
0.50033	16
0.50400	18
0.50767	17
0.51133	19
0.51500	21
0.51867	22
0.52233	23
0.52600	22
0.52967	20
0.53333	19
0.53700	18
0.54067	17
0.54433	19
0.54800	20
0.55167	18
0.55533	19
0.55900	18
0.56267	18
0.56633	18
0.57000	17
0.57367	16
0.57733	17
0.58100	16
0.58467	14
0.58833	14
0.59200	14
0.59567	15
0.59933	15
0.60300	16
0.60667	17
0.61033	19
0.61400	21
0.61767	22
0.62133	20
0.62500	21
0.62867	24
0.63233	24
0.63600	25
0.63967	24
0.64333	24
0.64700	24
0.65067	25
0.65433	26
0.65800	26
0.66167	26
0.66533	24
0.66900	21
0.67267	21
0.67633	20
0.68000	21
0.68367	24
0.68733	24
0.69100	23
0.69467	24
0.69833	25
0.70200	25
0.70567	24
0.70933	23
0.71300	23
0.71667	24
0.72033	28
0.72400	32
0.72767	34
0.73133	33
0.73500	31
0.73867	31
0.74233	32
0.74600	31
0.74967	29
0.75333	26
0.75700	26
0.76067	25
0.76433	25
0.76800	26
0.77167	27
0.77533	25
0.77900	25
0.78267	30
0.78633	33
0.79000	32
0.79367	31
0.79733	33
0.80100	32
0.80467	30
0.80833	30
0.81200	30
0.81567	29
0.81933	30
0.82300	32
0.82667	33
0.83033	31
0.83400	30
0.83767	30
0.84133	27
0.84500	28
0.84867	29
0.85233	29
0.85600	29
0.85967	31
0.86333	32
0.86700	32
0.87067	30
0.87433	31
0.87800	32
0.88167	34
0.88533	34
0.88900	33
0.89267	33
0.89633	34
0.90000	35
0.90367	35
0.90733	36
0.91100	36
0.91467	33
0.91833	31
0.92200	28
0.92567	25
0.92933	24
0.93300	25
0.93667	25
0.94033	25
0.94400	28
0.94767	30
0.95133	33
0.95500	34
0.95867	31
0.96233	29
0.96600	31
0.96967	30
0.97333	28
0.97700	26
0.98067	27
0.98433	30
0.98800	32
0.99167	33
0.99533	31
0.99900	29
1.00267	29
1.00633	30
1.01000	31
1.01367	32
1.01733	33
1.02100	34
1.02467	35
1.02833	37
1.03200	37
1.03567	37
1.03933	38
1.04300	37
1.04667	34
1.05033	32
1.05400	33
1.05767	33
1.06133	30
1.06500	29
1.06867	30
1.07233	30
1.07600	30
1.07967	29
1.08333	29
1.08700	28
1.09067	29
1.09433	31
1.09800	31
1.10167	31
1.10533	31
1.10900	30
1.11267	29
1.11633	26
1.12000	24
1.12367	24
1.12733	26
1.13100	26
1.13467	27
1.13833	29
1.14200	30
1.14567	30
1.14933	27
1.15300	25
1.15667	25
1.16033	25
1.16400	25
1.16767	25
1.17133	25
1.17500	28
1.17867	31
1.18233	31
1.18600	30
1.18967	30
1.19333	30
1.19700	30
1.20067	29
1.20433	27
1.20800	25
1.21167	25
1.21533	27
1.21900	29
1.22267	29
1.22633	27
1.23000	27
1.23367	26
1.23733	26
1.24100	26
1.24467	27
1.24833	28
1.25200	28
1.25567	27
1.25933	27
1.26300	26
1.26667	25
1.27033	25
1.27400	27
1.27767	25
1.28133	21
1.28500	20
1.28867	19
1.29233	21
1.29600	25
1.29967	28
1.30333	28
1.30700	27
1.31067	28
1.31433	30
1.31800	31
1.32167	30
1.32533	29
1.32900	29
1.33267	29
1.33633	28
1.34000	27
1.34367	25
1.34733	24
1.35100	25
1.35467	24
1.35833	22
1.36200	22
1.36567	24
1.36933	26
1.37300	25
1.37667	26
1.38033	25
1.38400	24
1.38767	25
1.39133	23
1.39500	25
1.39867	28
1.40233	29
1.40600	26
1.40967	26
1.41333	27
1.41700	27
1.42067	27
1.42433	27
1.42800	26
1.43167	26
1.43533	25
1.43900	24
1.44267	23
1.44633	23
1.45000	22
1.45367	22
1.45733	23
1.46100	23
1.46467	24
1.46833	27
1.47200	30
1.47567	32
1.47933	31
1.48300	27
1.48667	25
1.49033	24
1.49400	23
1.49767	22
1.50133	21
1.50500	20
1.50867	21
1.51233	22
1.51600	23
1.51967	24
1.52333	22
1.52700	22
1.53067	23
1.53433	24
1.53800	23
1.54167	22
1.54533	20
1.54900	19
1.55267	19
1.55633	18
1.56000	18
1.56367	20
1.56733	18
1.57100	18
1.57467	16
1.57833	15
1.58200	16
1.58567	16
1.58933	15
1.59300	14
1.59667	14
1.60033	13
1.60400	13
1.60767	14
1.61133	15
1.61500	16
1.61867	16
1.62233	16
1.62600	14
1.62967	12
1.63333	12
1.63700	14
1.64067	14
1.64433	15
1.64800	17
1.65167	17
1.65533	18
1.65900	19
1.66267	21
1.66633	22
1.67000	23
1.67367	23
1.67733	21
1.68100	22
1.68467	23
1.68833	25
1.69200	27
1.69567	28
1.69933	30
1.70300	29
1.70667	29
1.71033	27
1.71400	27
1.71767	29
1.72133	28
1.72500	24
1.72867	21
1.73233	19
1.73600	18
1.73967	20
1.74333	22
1.74700	24
1.75067	24
1.75433	25
1.75800	27
1.76167	29
1.76533	28
1.76900	27
1.77267	29
1.77633	30
1.78000	30
1.78367	30
1.78733	29
1.79100	30
1.79467	32
1.79833	32
1.80200	31
1.80567	29
1.80933	27
1.81300	27
1.81667	30
1.82033	32
1.82400	34
1.82767	36
1.83133	35
1.83500	34
1.83867	35
1.84233	37
1.84600	40
1.84967	43
1.85333	42
1.85700	41
1.86067	41
1.86433	40
1.86800	40
1.87167	39
1.87533	39
1.87900	39
1.88267	40
1.88633	41
1.89000	42
1.89367	43
1.89733	46
1.90100	48
1.90467	50
1.90833	51
1.91200	52
1.91567	52
1.91933	52
1.92300	51
1.92667	50
1.93033	52
1.93400	54
1.93767	55
1.94133	56
1.94500	56
1.94867	55
1.95233	53
1.95600	53
1.95967	53
1.96333	55
1.96700	55
1.97067	57
1.97433	60
1.97800	61
1.98167	60
1.98533	59
1.98900	58
1.99267	60
1.99633	61
2.00000	60
2.00367	59
2.00733	60
2.01100	63
2.01467	63
2.01833	64
2.02200	64
2.02567	66
2.02933	67
2.03300	65
2.03667	66
2.04033	68
2.04400	70
2.04767	72
2.05133	71
2.05500	71
2.05867	72
2.06233	73
2.06600	72
2.06967	70
2.07333	70
2.07700	71
2.08067	72
2.08433	72
2.08800	72
2.09167	72
2.09533	73
2.09900	75
2.10267	80
2.10633	84
2.11000	85
2.11367	82
2.11733	82
2.12100	82
2.12467	83
2.12833	85
2.13200	88
2.13567	89
2.13933	89
2.14300	89
2.14667	89
2.15033	88
2.15400	87
2.15767	88
2.16133	89
2.16500	90
2.16867	92
2.17233	93
2.17600	94
2.17967	94
2.18333	96
2.18700	96
2.19067	96
2.19433	99
2.19800	102
2.20167	103
2.20533	102
2.20900	102
2.21267	101
2.21633	100
2.22000	101
2.22367	100
2.22733	101
2.23100	104
2.23467	108
2.23833	109
2.24200	108
2.24567	108
2.24933	108
2.25300	110
2.25667	111
2.26033	112
2.26400	113
2.26767	114
2.27133	116
2.27500	118
2.27867	120
2.28233	122
2.28600	122
2.28967	123
2.29333	125
2.29700	128
2.30067	131
2.30433	132
2.30800	133
2.31167	132
2.31533	132
2.31900	134
2.32267	137
2.32633	139
2.33000	141
2.33367	144
2.33733	145
2.34100	147
2.34467	147
2.34833	145
2.35200	146
2.35567	149
2.35933	152
2.36300	154
2.36667	157
2.37033	159
2.37400	159
2.37767	157
2.38133	155
2.38500	154
2.38867	152
2.39233	152
2.39600	155
2.39967	158
2.40333	159
2.40700	160
2.41067	163
2.41433	167
2.41800	169
2.42167	170
2.42533	172
2.42900	175
2.43267	177
2.43633	177
2.44000	179
2.44367	205
2.44733	271
2.45100	344
2.45467	400
2.45833	435
2.46200	437
2.46567	418
2.46933	393
2.47300	369
2.47667	353
2.48033	341
2.48400	332
2.48767	323
2.49133	310
2.49500	294
2.49867	277
2.50233	262
2.50600	249
2.50967	239
2.51333	232
2.51700	227
2.52067	223
2.52433	222
2.52800	225
2.53167	230
2.53533	235
2.53900	242
2.54267	247
2.54633	249
2.55000	249
2.55367	248
2.55733	245
2.56100	238
2.56467	231
2.56833	223
2.57200	215
2.57567	208
2.57933	202
2.58300	196
2.58667	191
2.59033	184
2.59400	175
2.59767	167
2.60133	152
2.60500	132
2.60867	109
2.61233	83
2.61600	56
2.61967	29
2.62333	3
2.62700	-17
2.63067	-32
2.63433	-44
2.63800	-50
2.64167	-52
2.64533	-53
2.64900	-49
2.65267	-42
2.65633	-32
2.66000	-22
2.66367	-11
2.66733	2
2.67100	14
2.67467	24
2.67833	33
2.68200	42
2.68567	51
2.68933	58
2.69300	65
2.69667	72
2.70033	79
2.70400	82
2.70767	87
2.71133	90
2.71500	93
2.71867	94
2.72233	95
2.72600	95
2.72967	94
2.73333	95
2.73700	97
2.74067	99
2.74433	99
2.74800	101
2.75167	100
2.75533	99
2.75900	100
2.76267	102
2.76633	101
2.77000	100
2.77367	100
2.77733	98
2.78100	98
2.78467	98
2.78833	97
2.79200	97
2.79567	101
2.79933	103
2.80300	105
2.80667	108
2.81033	113
2.81400	125
2.81767	159
2.82133	233
2.82500	394
2.82867	702
2.83233	1227
2.83600	2023
2.83967	3123
2.84333	4525
2.84700	6176
2.85067	7986
2.85433	9829
2.85800	11569
2.86167	13067
2.86533	14216
2.86900	14950
2.87267	15243
2.87633	15129
2.88000	14667
2.88367	13939
2.88733	13029
2.89100	12006
2.89467	10936
2.89833	9872
2.90200	8847
2.90567	7882
2.90933	6987
2.91300	6171
2.91667	5433
2.92033	4773
2.92400	4183
2.92767	3659
2.93133	3196
2.93500	2788
2.93867	2432
2.94233	2123
2.94600	1853
2.94967	1616
2.95333	1411
2.95700	1233
2.96067	1081
2.96433	951
2.96800	835
2.97167	736
2.97533	650
2.97900	575
2.98267	512
2.98633	456
2.99000	410
2.99367	371
2.99733	337
3.00100	304
3.00467	277
3.00833	254
3.01200	234
3.01567	217
3.01933	203
3.02300	191
3.02667	179
3.03033	160
3.03400	127
3.03767	99
3.04133	93
3.04500	112
3.04867	148
3.05233	191
3.05600	238
3.05967	283
3.06333	325
3.06700	362
3.07067	399
3.07433	432
3.07800	462
3.08167	489
3.08533	514
3.08900	534
3.09267	553
3.09633	570
3.10000	583
3.10367	593
3.10733	602
3.11100	609
3.11467	615
3.11833	618
3.12200	617
3.12567	617
3.12933	620
3.13300	624
3.13667	630
3.14033	633
3.14400	636
3.14767	640
3.15133	641
3.15500	638
3.15867	635
3.16233	634
3.16600	636
3.16967	640
3.17333	643
3.17700	647
3.18067	649
3.18433	654
3.18800	658
3.19167	660
3.19533	661
3.19900	665
3.20267	669
3.20633	669
3.21000	671
3.21367	676
3.21733	680
3.22100	682
3.22467	682
3.22833	682
3.23200	684
3.23567	687
3.23933	689
3.24300	690
3.24667	692
3.25033	694
3.25400	695
3.25767	696
3.26133	696
3.26500	697
3.26867	695
3.27233	691
3.27600	688
3.27967	685
3.28333	680
3.28700	677
3.29067	672
3.29433	663
3.29800	654
3.30167	645
3.30533	638
3.30900	636
3.31267	632
3.31633	627
3.32000	622
3.32367	617
3.32733	611
3.33100	606
3.33467	603
3.33833	598
3.34200	593
3.34567	590
3.34933	584
3.35300	580
3.35667	576
3.36033	572
3.36400	568
3.36767	563
3.37133	560
3.37500	558
3.37867	555
3.38233	553
3.38600	549
3.38967	545
3.39333	543
3.39700	541
3.40067	538
3.40433	537
3.40800	537
3.41167	536
3.41533	532
3.41900	530
3.42267	527
3.42633	527
3.43000	528
3.43367	526
3.43733	525
3.44100	525
3.44467	525
3.44833	522
3.45200	519
3.45567	515
3.45933	512
3.46300	510
3.46667	510
3.47033	510
3.47400	508
3.47767	506
3.48133	504
3.48500	502
3.48867	501
3.49233	501
3.49600	500
3.49967	496
3.50333	491
3.50700	489
3.51067	486
3.51433	485
3.51800	484
3.52167	485
3.52533	485
3.52900	481
3.53267	480
3.53633	476
3.54000	473
3.54367	471
3.54733	472
3.55100	471
3.55467	468
3.55833	466
3.56200	465
3.56567	464
3.56933	461
3.57300	457
3.57667	454
3.58033	452
3.58400	449
3.58767	446
3.59133	444
3.59500	443
3.59867	441
3.60233	440
3.60600	438
3.60967	436
3.61333	434
3.61700	431
3.62067	427
3.62433	424
3.62800	422
3.63167	424
3.63533	424
3.63900	422
3.64267	420
3.64633	418
3.65000	417
3.65367	416
3.65733	413
3.66100	411
3.66467	409
3.66833	407
3.67200	404
3.67567	402
3.67933	402
3.68300	400
3.68667	399
3.69033	399
3.69400	400
3.69767	399
3.70133	399
3.70500	397
3.70867	395
3.71233	395
3.71600	396
3.71967	396
3.72333	395
3.72700	392
3.73067	388
3.73433	386
3.73800	385
3.74167	387
3.74533	390
3.74900	388
3.75267	386
3.75633	385
3.76000	381
3.76367	378
3.76733	379
3.77100	380
3.77467	378
3.77833	376
3.78200	373
3.78567	371
3.78933	371
3.79300	373
3.79667	375
3.80033	376
3.80400	376
3.80767	376
3.81133	376
3.81500	376
3.81867	378
3.82233	379
3.82600	380
3.82967	380
3.83333	379
3.83700	378
3.84067	377
3.84433	375
3.84800	372
3.85167	372
3.85533	373
3.85900	372
3.86267	371
3.86633	370
3.87000	370
3.87367	369
3.87733	368
3.88100	368
3.88467	368
3.88833	370
3.89200	370
3.89567	369
3.89933	368
3.90300	368
3.90667	368
3.91033	366
3.91400	363
3.91767	361
3.92133	360
3.92500	357
3.92867	355
3.93233	356
3.93600	357
3.93967	360
3.94333	362
3.94700	360
3.95067	356
3.95433	355
3.95800	353
3.96167	348
3.96533	345
3.96900	346
3.97267	349
3.97633	351
3.98000	351
3.98367	352
3.98733	353
3.99100	353
3.99467	351
3.99833	347

[Status Trace (Column Oven Temperature)]
Interval(msec)	1000
# of Points	240
Start Time(min)	0.004
End Time(min)	3.987
Intensity Units	
Intensity Multiplier	1
R.Time (min)	Intensity
0.00395	35.10
0.02062	35.09
0.03728	35.09
0.05395	35.09
0.07062	35.08
0.08728	35.08
0.10395	35.07
0.12062	35.07
0.13728	35.06
0.15395	35.06
0.17062	35.05
0.18728	35.05
0.20395	35.05
0.22062	35.05
0.23728	35.05
0.25395	35.05
0.27062	35.04
0.28728	35.04
0.30395	35.04
0.32062	35.03
0.33728	35.01
0.35395	35.01
0.37062	35.00
0.38728	34.99
0.40395	34.99
0.42062	34.99
0.43728	34.98
0.45395	34.99
0.47062	34.99
0.48728	34.99
0.50395	34.99
0.52062	34.99
0.53728	34.99
0.55395	35.00
0.57062	35.01
0.58728	35.00
0.60395	35.01
0.62062	35.01
0.63728	35.02
0.65395	35.01
0.67062	35.01
0.68728	35.01
0.70395	34.99
0.72062	34.99
0.73728	34.98
0.75395	34.98
0.77062	34.98
0.78728	34.98
0.80395	34.97
0.82062	34.98
0.83728	34.98
0.85395	34.98
0.87062	34.99
0.88728	34.99
0.90395	34.99
0.92062	34.99
0.93728	35.00
0.95395	35.01
0.97062	35.01
0.98728	35.01
1.00395	35.01
1.02062	35.01
1.03728	34.99
1.05395	34.98
1.07062	34.98
1.08728	34.98
1.10395	34.98
1.12062	34.98
1.13728	34.98
1.15395	34.99
1.17062	35.00
1.18728	35.01
1.20395	35.01
1.22062	35.01
1.23728	35.01
1.25395	35.01
1.27062	35.01
1.28728	35.00
1.30395	34.99
1.32062	34.98
1.33728	34.98
1.35395	34.98
1.37062	34.98
1.38728	34.99
1.40395	34.99
1.42062	35.00
1.43728	35.00
1.45395	35.00
1.47062	35.00
1.48728	35.00
1.50395	35.01
1.52062	35.01
1.53728	35.00
1.55395	34.99
1.57062	34.99
1.58728	35.00
1.60395	35.03
1.62062	35.14
1.63728	35.31
1.65395	35.55
1.67062	35.87
1.68728	36.24
1.70395	36.60
1.72062	36.93
1.73728	37.27
1.75395	37.62
1.77062	37.93
1.78728	38.26
1.80395	38.60
1.82062	38.91
1.83728	39.25
1.85395	39.56
1.87062	39.89
1.88728	40.22
1.90395	40.55
1.92062	40.88
1.93728	41.21
1.95395	41.53
1.97062	41.86
1.98728	42.19
2.00395	42.52
2.02062	42.85
2.03728	43.15
2.05395	43.48
2.07062	43.81
2.08728	44.13
2.10395	44.47
2.12062	44.80
2.13728	45.13
2.15395	45.47
2.17062	45.79
2.18728	46.11
2.20395	46.41
2.22062	46.76
2.23728	47.08
2.25395	47.42
2.27062	47.79
2.28728	48.10
2.30395	48.43
2.32062	48.77
2.33728	49.08
2.35395	49.37
2.37062	49.64
2.38728	49.76
2.40395	49.77
2.42062	49.75
2.43728	49.76
2.45395	49.76
2.47062	49.77
2.48728	49.77
2.50395	49.77
2.52062	49.78
2.53728	49.79
2.55395	49.80
2.57062	49.82
2.58728	49.81
2.60395	49.81
2.62062	49.81
2.63728	49.82
2.65395	49.83
2.67062	49.84
2.68728	49.85
2.70395	49.85
2.72062	49.85
2.73728	49.86
2.75395	49.86
2.77062	49.85
2.78728	49.86
2.80395	49.88
2.82062	49.88
2.83728	49.89
2.85395	49.88
2.87062	49.89
2.88728	49.90
2.90395	49.90
2.92062	49.91
2.93728	49.93
2.95395	49.95
2.97062	49.96
2.98728	49.98
3.00395	49.99
3.02062	50.00
3.03728	50.01
3.05395	50.02
3.07062	50.04
3.08728	50.05
3.10395	50.06
3.12062	50.06
3.13728	50.05
3.15395	50.05
3.17062	50.06
3.18728	50.06
3.20395	50.06
3.22062	50.07
3.23728	50.07
3.25395	50.09
3.27062	50.10
3.28728	50.11
3.30395	50.10
3.32062	50.09
3.33728	50.07
3.35395	50.06
3.37062	50.04
3.38728	50.03
3.40395	50.02
3.42062	50.03
3.43728	50.03
3.45395	50.04
3.47062	50.04
3.48728	50.05
3.50395	50.05
3.52062	50.05
3.53728	50.05
3.55395	50.06
3.57062	50.07
3.58728	50.07
3.60395	50.08
3.62062	50.07
3.63728	50.07
3.65395	50.06
3.67062	50.07
3.68728	50.07
3.70395	50.09
3.72062	50.09
3.73728	50.09
3.75395	50.08
3.77062	50.07
3.78728	50.07
3.80395	50.07
3.82062	50.07
3.83728	50.08
3.85395	50.08
3.87062	50.08
3.88728	50.10
3.90395	50.10
3.92062	50.09
3.93728	50.09
3.95395	50.08
3.97062	50.07
3.98728	50.06

[Status Trace (Injection Unit Temperature)]
Interval(msec)	1000
# of Points	240
Start Time(min)	0.004
End Time(min)	3.987
Intensity Units	
Intensity Multiplier	1
R.Time (min)	Intensity
0.00395	99.97
0.02062	99.97
0.03728	99.97
0.05395	99.97
0.07062	99.97
0.08728	99.97
0.10395	99.98
0.12062	99.98
0.13728	99.98
0.15395	99.98
0.17062	99.97
0.18728	99.98
0.20395	99.97
0.22062	99.98
0.23728	99.98
0.25395	99.98
0.27062	99.98
0.28728	99.98
0.30395	99.98
0.32062	99.98
0.33728	99.98
0.35395	99.98
0.37062	99.98
0.38728	99.99
0.40395	99.99
0.42062	99.99
0.43728	99.99
0.45395	99.99
0.47062	99.98
0.48728	99.99
0.50395	99.98
0.52062	99.99
0.53728	99.99
0.55395	99.98
0.57062	99.99
0.58728	99.99
0.60395	99.99
0.62062	99.98
0.63728	99.99
0.65395	99.98
0.67062	99.99
0.68728	99.99
0.70395	99.99
0.72062	99.99
0.73728	99.98
0.75395	99.98
0.77062	99.99
0.78728	99.99
0.80395	99.98
0.82062	99.98
0.83728	99.98
0.85395	99.98
0.87062	99.98
0.88728	99.98
0.90395	99.98
0.92062	99.98
0.93728	99.98
0.95395	99.98
0.97062	99.98
0.98728	99.98
1.00395	99.98
1.02062	99.98
1.03728	99.98
1.05395	99.98
1.07062	99.98
1.08728	99.98
1.10395	99.98
1.12062	99.98
1.13728	99.98
1.15395	99.98
1.17062	99.98
1.18728	99.98
1.20395	99.98
1.22062	99.98
1.23728	99.98
1.25395	99.98
1.27062	99.98
1.28728	99.98
1.30395	99.98
1.32062	99.98
1.33728	99.97
1.35395	99.98
1.37062	99.98
1.38728	99.98
1.40395	99.98
1.42062	99.98
1.43728	99.98
1.45395	99.98
1.47062	99.98
1.48728	99.98
1.50395	99.98
1.52062	99.98
1.53728	99.98
1.55395	99.98
1.57062	99.98
1.58728	99.98
1.60395	99.98
1.62062	99.98
1.63728	99.98
1.65395	99.98
1.67062	99.98
1.68728	99.98
1.70395	99.98
1.72062	99.98
1.73728	99.98
1.75395	99.99
1.77062	99.98
1.78728	99.99
1.80395	99.98
1.82062	99.98
1.83728	99.98
1.85395	99.98
1.87062	99.98
1.88728	99.98
1.90395	99.98
1.92062	99.98
1.93728	99.98
1.95395	99.98
1.97062	99.98
1.98728	99.97
2.00395	99.97
2.02062	99.98
2.03728	99.97
2.05395	99.97
2.07062	99.97
2.08728	99.97
2.10395	99.97
2.12062	99.97
2.13728	99.97
2.15395	99.96
2.17062	99.97
2.18728	99.97
2.20395	99.96
2.22062	99.96
2.23728	99.97
2.25395	99.96
2.27062	99.96
2.28728	99.96
2.30395	99.96
2.32062	99.96
2.33728	99.96
2.35395	99.96
2.37062	99.96
2.38728	99.96
2.40395	99.96
2.42062	99.96
2.43728	99.96
2.45395	99.96
2.47062	99.97
2.48728	99.97
2.50395	99.97
2.52062	99.97
2.53728	99.97
2.55395	99.97
2.57062	99.96
2.58728	99.97
2.60395	99.97
2.62062	99.97
2.63728	99.97
2.65395	99.97
2.67062	99.98
2.68728	99.98
2.70395	99.98
2.72062	99.98
2.73728	99.98
2.75395	99.98
2.77062	99.98
2.78728	99.98
2.80395	99.98
2.82062	99.99
2.83728	99.99
2.85395	99.99
2.87062	99.99
2.88728	99.99
2.90395	99.99
2.92062	100.00
2.93728	100.00
2.95395	100.00
2.97062	100.00
2.98728	100.00
3.00395	100.00
3.02062	100.00
3.03728	100.00
3.05395	100.00
3.07062	100.01
3.08728	100.01
3.10395	100.01
3.12062	100.01
3.13728	100.01
3.15395	100.01
3.17062	100.02
3.18728	100.01
3.20395	100.02
3.22062	100.02
3.23728	100.02
3.25395	100.02
3.27062	100.02
3.28728	100.02
3.30395	100.02
3.32062	100.02
3.33728	100.02
3.35395	100.03
3.37062	100.03
3.38728	100.03
3.40395	100.03
3.42062	100.03
3.43728	100.03
3.45395	100.03
3.47062	100.03
3.48728	100.04
3.50395	100.03
3.52062	100.03
3.53728	100.04
3.55395	100.04
3.57062	100.04
3.58728	100.04
3.60395	100.04
3.62062	100.04
3.63728	100.04
3.65395	100.04
3.67062	100.04
3.68728	100.04
3.70395	100.04
3.72062	100.04
3.73728	100.04
3.75395	100.04
3.77062	100.04
3.78728	100.04
3.80395	100.04
3.82062	100.04
3.83728	100.04
3.85395	100.04
3.87062	100.04
3.88728	100.04
3.90395	100.05
3.92062	100.04
3.93728	100.04
3.95395	100.04
3.97062	100.04
3.98728	100.04

[Status Trace (Carrier Gas Pressure)]
Interval(msec)	1000
# of Points	240
Start Time(min)	0.004
End Time(min)	3.987
Intensity Units	
Intensity Multiplier	1
R.Time (min)	Intensity
0.00395	58.00
0.02062	55.99
0.03728	56.62
0.05395	58.75
0.07062	59.76
0.08728	58.18
0.10395	57.97
0.12062	58.01
0.13728	58.01
0.15395	58.01
0.17062	58.00
0.18728	58.00
0.20395	58.00
0.22062	58.00
0.23728	58.00
0.25395	58.00
0.27062	58.00
0.28728	58.00
0.30395	58.00
0.32062	58.00
0.33728	58.00
0.35395	58.00
0.37062	58.00
0.38728	58.00
0.40395	58.00
0.42062	58.00
0.43728	58.00
0.45395	58.00
0.47062	58.00
0.48728	58.00
0.50395	58.00
0.52062	58.00
0.53728	58.00
0.55395	58.00
0.57062	58.00
0.58728	58.00
0.60395	58.00
0.62062	58.00
0.63728	58.00
0.65395	58.00
0.67062	58.00
0.68728	58.00
0.70395	58.00
0.72062	58.00
0.73728	58.00
0.75395	58.00
0.77062	58.00
0.78728	58.00
0.80395	58.00
0.82062	58.00
0.83728	58.00
0.85395	58.00
0.87062	58.00
0.88728	58.00
0.90395	58.00
0.92062	58.00
0.93728	58.00
0.95395	58.00
0.97062	58.00
0.98728	58.00
1.00395	58.00
1.02062	58.00
1.03728	58.00
1.05395	58.00
1.07062	58.00
1.08728	58.00
1.10395	58.00
1.12062	58.00
1.13728	58.00
1.15395	58.00
1.17062	58.00
1.18728	58.00
1.20395	58.00
1.22062	58.00
1.23728	58.00
1.25395	58.00
1.27062	58.00
1.28728	58.00
1.30395	58.00
1.32062	58.00
1.33728	58.00
1.35395	58.00
1.37062	58.00
1.38728	58.00
1.40395	58.00
1.42062	58.00
1.43728	58.00
1.45395	58.00
1.47062	58.00
1.48728	58.00
1.50395	58.00
1.52062	58.00
1.53728	58.00
1.55395	58.00
1.57062	58.00
1.58728	58.00
1.60395	58.00
1.62062	58.00
1.63728	58.01
1.65395	58.00
1.67062	58.01
1.68728	58.01
1.70395	58.00
1.72062	58.00
1.73728	58.00
1.75395	58.00
1.77062	58.00
1.78728	58.00
1.80395	58.00
1.82062	58.00
1.83728	58.00
1.85395	58.00
1.87062	58.00
1.88728	58.00
1.90395	58.00
1.92062	58.00
1.93728	58.00
1.95395	58.00
1.97062	58.00
1.98728	58.00
2.00395	58.00
2.02062	58.00
2.03728	58.00
2.05395	58.00
2.07062	58.00
2.08728	58.00
2.10395	58.00
2.12062	58.00
2.13728	58.00
2.15395	58.00
2.17062	58.00
2.18728	58.00
2.20395	58.00
2.22062	58.00
2.23728	58.00
2.25395	58.00
2.27062	58.00
2.28728	58.00
2.30395	58.00
2.32062	58.00
2.33728	58.00
2.35395	58.00
2.37062	58.00
2.38728	57.99
2.40395	57.99
2.42062	58.00
2.43728	58.00
2.45395	58.00
2.47062	58.00
2.48728	58.00
2.50395	57.98
2.52062	57.99
2.53728	58.00
2.55395	58.00
2.57062	58.00
2.58728	58.00
2.60395	58.00
2.62062	58.00
2.63728	58.00
2.65395	58.00
2.67062	58.00
2.68728	58.00
2.70395	58.00
2.72062	58.00
2.73728	58.00
2.75395	58.00
2.77062	58.00
2.78728	58.00
2.80395	58.00
2.82062	58.00
2.83728	58.00
2.85395	58.00
2.87062	58.00
2.88728	58.00
2.90395	58.00
2.92062	58.00
2.93728	58.00
2.95395	58.00
2.97062	58.00
2.98728	58.00
3.00395	58.00
3.02062	58.00
3.03728	58.00
3.05395	58.00
3.07062	58.00
3.08728	58.00
3.10395	58.00
3.12062	58.00
3.13728	58.00
3.15395	58.00
3.17062	58.00
3.18728	58.00
3.20395	58.00
3.22062	58.00
3.23728	58.00
3.25395	58.00
3.27062	58.00
3.28728	58.00
3.30395	58.00
3.32062	58.00
3.33728	58.00
3.35395	58.00
3.37062	58.00
3.38728	58.00
3.40395	58.00
3.42062	58.00
3.43728	58.00
3.45395	58.00
3.47062	58.00
3.48728	58.00
3.50395	58.00
3.52062	58.00
3.53728	58.00
3.55395	58.00
3.57062	58.00
3.58728	58.00
3.60395	58.00
3.62062	58.00
3.63728	58.00
3.65395	58.00
3.67062	58.00
3.68728	58.00
3.70395	58.00
3.72062	58.00
3.73728	58.00
3.75395	58.00
3.77062	58.00
3.78728	58.00
3.80395	58.00
3.82062	58.00
3.83728	58.00
3.85395	58.00
3.87062	58.00
3.88728	58.00
3.90395	58.00
3.92062	58.00
3.93728	58.00
3.95395	58.00
3.97062	58.00
3.98728	58.00

[Status Trace (Carrier Gas Flow)]
Interval(msec)	1000
# of Points	240
Start Time(min)	0.004
End Time(min)	3.987
Intensity Units	
Intensity Multiplier	1
R.Time (min)	Intensity
0.00395	34.52
0.02062	34.57
0.03728	34.54
0.05395	34.55
0.07062	34.49
0.08728	34.52
0.10395	34.52
0.12062	34.51
0.13728	34.52
0.15395	34.52
0.17062	34.52
0.18728	34.52
0.20395	34.52
0.22062	34.52
0.23728	34.52
0.25395	34.52
0.27062	34.52
0.28728	34.51
0.30395	34.52
0.32062	34.52
0.33728	34.52
0.35395	34.52
0.37062	34.51
0.38728	34.53
0.40395	34.51
0.42062	34.51
0.43728	34.53
0.45395	34.53
0.47062	34.52
0.48728	34.53
0.50395	34.51
0.52062	34.51
0.53728	34.53
0.55395	34.51
0.57062	34.52
0.58728	34.52
0.60395	34.52
0.62062	34.52
0.63728	34.52
0.65395	34.52
0.67062	34.52
0.68728	34.52
0.70395	34.52
0.72062	34.52
0.73728	34.52
0.75395	34.52
0.77062	34.52
0.78728	34.52
0.80395	34.52
0.82062	34.52
0.83728	34.52
0.85395	34.52
0.87062	34.52
0.88728	34.52
0.90395	34.52
0.92062	34.52
0.93728	34.51
0.95395	34.52
0.97062	34.52
0.98728	34.52
1.00395	34.52
1.02062	34.51
1.03728	34.52
1.05395	34.52
1.07062	34.52
1.08728	34.52
1.10395	34.52
1.12062	34.52
1.13728	34.52
1.15395	34.52
1.17062	34.52
1.18728	34.52
1.20395	34.52
1.22062	34.52
1.23728	34.52
1.25395	34.52
1.27062	34.52
1.28728	34.52
1.30395	34.52
1.32062	34.52
1.33728	34.52
1.35395	34.52
1.37062	34.52
1.38728	34.52
1.40395	34.52
1.42062	34.52
1.43728	34.52
1.45395	34.52
1.47062	34.52
1.48728	34.52
1.50395	34.52
1.52062	34.52
1.53728	34.52
1.55395	34.52
1.57062	34.52
1.58728	34.52
1.60395	34.52
1.62062	34.52
1.63728	34.52
1.65395	34.52
1.67062	34.52
1.68728	34.52
1.70395	34.52
1.72062	34.52
1.73728	34.52
1.75395	34.51
1.77062	34.52
1.78728	34.52
1.80395	34.52
1.82062	34.52
1.83728	34.52
1.85395	34.52
1.87062	34.52
1.88728	34.51
1.90395	34.52
1.92062	34.51
1.93728	34.52
1.95395	34.52
1.97062	34.52
1.98728	34.51
2.00395	34.53
2.02062	34.52
2.03728	34.51
2.05395	34.52
2.07062	34.52
2.08728	34.52
2.10395	34.52
2.12062	34.52
2.13728	34.52
2.15395	34.52
2.17062	34.52
2.18728	34.52
2.20395	34.52
2.22062	34.52
2.23728	34.52
2.25395	34.52
2.27062	34.51
2.28728	34.52
2.30395	34.52
2.32062	34.52
2.33728	34.51
2.35395	34.52
2.37062	34.51
2.38728	34.52
2.40395	34.52
2.42062	34.51
2.43728	34.52
2.45395	34.52
2.47062	34.52
2.48728	34.52
2.50395	34.66
2.52062	34.51
2.53728	34.52
2.55395	34.52
2.57062	34.52
2.58728	34.52
2.60395	34.52
2.62062	34.52
2.63728	34.51
2.65395	34.52
2.67062	34.52
2.68728	34.52
2.70395	34.52
2.72062	34.52
2.73728	34.52
2.75395	34.52
2.77062	34.52
2.78728	34.52
2.80395	34.52
2.82062	34.52
2.83728	34.52
2.85395	34.51
2.87062	34.52
2.88728	34.52
2.90395	34.52
2.92062	34.52
2.93728	34.52
2.95395	34.51
2.97062	34.52
2.98728	34.52
3.00395	34.52
3.02062	34.52
3.03728	34.52
3.05395	34.52
3.07062	34.52
3.08728	34.52
3.10395	34.52
3.12062	34.52
3.13728	34.51
3.15395	34.52
3.17062	34.52
3.18728	34.51
3.20395	34.52
3.22062	34.52
3.23728	34.52
3.25395	34.52
3.27062	34.52
3.28728	34.52
3.30395	34.52
3.32062	34.52
3.33728	34.52
3.35395	34.52
3.37062	34.53
3.38728	34.52
3.40395	34.51
3.42062	34.52
3.43728	34.52
3.45395	34.52
3.47062	34.52
3.48728	34.52
3.50395	34.52
3.52062	34.52
3.53728	34.52
3.55395	34.52
3.57062	34.52
3.58728	34.52
3.60395	34.52
3.62062	34.52
3.63728	34.52
3.65395	34.52
3.67062	34.52
3.68728	34.52
3.70395	34.52
3.72062	34.52
3.73728	34.52
3.75395	34.52
3.77062	34.52
3.78728	34.52
3.80395	34.52
3.82062	34.52
3.83728	34.52
3.85395	34.52
3.87062	34.52
3.88728	34.52
3.90395	34.52
3.92062	34.52
3.93728	34.52
3.95395	34.52
3.97062	34.52
3.98728	34.52

[Status Trace (Column Flow)]
Interval(msec)	1000
# of Points	240
Start Time(min)	0.004
End Time(min)	3.987
Intensity Units	
Intensity Multiplier	1
R.Time (min)	Intensity
0.00395	5.57
0.02062	5.34
0.03728	5.41
0.05395	5.66
0.07062	5.78
0.08728	5.59
0.10395	5.57
0.12062	5.57
0.13728	5.57
0.15395	5.57
0.17062	5.57
0.18728	5.57
0.20395	5.57
0.22062	5.57
0.23728	5.57
0.25395	5.57
0.27062	5.57
0.28728	5.57
0.30395	5.57
0.32062	5.57
0.33728	5.57
0.35395	5.57
0.37062	5.57
0.38728	5.57
0.40395	5.57
0.42062	5.57
0.43728	5.57
0.45395	5.57
0.47062	5.57
0.48728	5.57
0.50395	5.57
0.52062	5.57
0.53728	5.57
0.55395	5.57
0.57062	5.57
0.58728	5.57
0.60395	5.57
0.62062	5.57
0.63728	5.57
0.65395	5.57
0.67062	5.57
0.68728	5.57
0.70395	5.57
0.72062	5.57
0.73728	5.57
0.75395	5.57
0.77062	5.57
0.78728	5.57
0.80395	5.57
0.82062	5.57
0.83728	5.57
0.85395	5.57
0.87062	5.57
0.88728	5.57
0.90395	5.57
0.92062	5.57
0.93728	5.57
0.95395	5.57
0.97062	5.57
0.98728	5.57
1.00395	5.57
1.02062	5.57
1.03728	5.57
1.05395	5.57
1.07062	5.57
1.08728	5.57
1.10395	5.57
1.12062	5.57
1.13728	5.57
1.15395	5.57
1.17062	5.57
1.18728	5.57
1.20395	5.57
1.22062	5.57
1.23728	5.57
1.25395	5.57
1.27062	5.57
1.28728	5.57
1.30395	5.57
1.32062	5.57
1.33728	5.57
1.35395	5.57
1.37062	5.57
1.38728	5.57
1.40395	5.57
1.42062	5.57
1.43728	5.57
1.45395	5.57
1.47062	5.57
1.48728	5.57
1.50395	5.57
1.52062	5.57
1.53728	5.57
1.55395	5.57
1.57062	5.57
1.58728	5.57
1.60395	5.57
1.62062	5.57
1.63728	5.56
1.65395	5.56
1.67062	5.55
1.68728	5.54
1.70395	5.52
1.72062	5.51
1.73728	5.50
1.75395	5.49
1.77062	5.48
1.78728	5.47
1.80395	5.46
1.82062	5.45
1.83728	5.44
1.85395	5.43
1.87062	5.42
1.88728	5.41
1.90395	5.40
1.92062	5.39
1.93728	5.38
1.95395	5.37
1.97062	5.36
1.98728	5.35
2.00395	5.34
2.02062	5.33
2.03728	5.32
2.05395	5.31
2.07062	5.30
2.08728	5.29
2.10395	5.29
2.12062	5.27
2.13728	5.26
2.15395	5.26
2.17062	5.25
2.18728	5.24
2.20395	5.23
2.22062	5.22
2.23728	5.21
2.25395	5.20
2.27062	5.19
2.28728	5.18
2.30395	5.17
2.32062	5.16
2.33728	5.15
2.35395	5.14
2.37062	5.14
2.38728	5.13
2.40395	5.13
2.42062	5.13
2.43728	5.13
2.45395	5.13
2.47062	5.13
2.48728	5.13
2.50395	5.13
2.52062	5.13
2.53728	5.13
2.55395	5.13
2.57062	5.13
2.58728	5.13
2.60395	5.13
2.62062	5.13
2.63728	5.13
2.65395	5.13
2.67062	5.13
2.68728	5.13
2.70395	5.13
2.72062	5.13
2.73728	5.13
2.75395	5.13
2.77062	5.13
2.78728	5.13
2.80395	5.13
2.82062	5.13
2.83728	5.13
2.85395	5.13
2.87062	5.13
2.88728	5.13
2.90395	5.13
2.92062	5.13
2.93728	5.13
2.95395	5.13
2.97062	5.13
2.98728	5.13
3.00395	5.13
3.02062	5.13
3.03728	5.13
3.05395	5.13
3.07062	5.13
3.08728	5.12
3.10395	5.12
3.12062	5.12
3.13728	5.12
3.15395	5.12
3.17062	5.12
3.18728	5.12
3.20395	5.12
3.22062	5.12
3.23728	5.12
3.25395	5.12
3.27062	5.12
3.28728	5.12
3.30395	5.12
3.32062	5.12
3.33728	5.12
3.35395	5.12
3.37062	5.13
3.38728	5.13
3.40395	5.13
3.42062	5.13
3.43728	5.13
3.45395	5.13
3.47062	5.13
3.48728	5.12
3.50395	5.12
3.52062	5.12
3.53728	5.12
3.55395	5.12
3.57062	5.12
3.58728	5.12
3.60395	5.12
3.62062	5.12
3.63728	5.12
3.65395	5.12
3.67062	5.12
3.68728	5.12
3.70395	5.12
3.72062	5.12
3.73728	5.12
3.75395	5.12
3.77062	5.12
3.78728	5.12
3.80395	5.12
3.82062	5.12
3.83728	5.12
3.85395	5.12
3.87062	5.12
3.88728	5.12
3.90395	5.12
3.92062	5.12
3.93728	5.12
3.95395	5.12
3.97062	5.12
3.98728	5.12

[Status Trace (Linear Velocity)]
Interval(msec)	1000
# of Points	240
Start Time(min)	0.004
End Time(min)	3.987
Intensity Units	
Intensity Multiplier	1
R.Time (min)	Intensity
0.00395	39.02
0.02062	37.70
0.03728	38.11
0.05395	39.51
0.07062	40.17
0.08728	39.14
0.10395	39.00
0.12062	39.03
0.13728	39.03
0.15395	39.03
0.17062	39.03
0.18728	39.03
0.20395	39.03
0.22062	39.03
0.23728	39.03
0.25395	39.03
0.27062	39.03
0.28728	39.03
0.30395	39.03
0.32062	39.03
0.33728	39.03
0.35395	39.03
0.37062	39.03
0.38728	39.03
0.40395	39.03
0.42062	39.03
0.43728	39.03
0.45395	39.03
0.47062	39.03
0.48728	39.03
0.50395	39.03
0.52062	39.03
0.53728	39.03
0.55395	39.03
0.57062	39.03
0.58728	39.03
0.60395	39.03
0.62062	39.03
0.63728	39.03
0.65395	39.03
0.67062	39.03
0.68728	39.03
0.70395	39.03
0.72062	39.03
0.73728	39.03
0.75395	39.03
0.77062	39.03
0.78728	39.03
0.80395	39.03
0.82062	39.03
0.83728	39.03
0.85395	39.03
0.87062	39.03
0.88728	39.03
0.90395	39.03
0.92062	39.03
0.93728	39.03
0.95395	39.03
0.97062	39.03
0.98728	39.03
1.00395	39.03
1.02062	39.03
1.03728	39.03
1.05395	39.03
1.07062	39.03
1.08728	39.03
1.10395	39.03
1.12062	39.03
1.13728	39.03
1.15395	39.03
1.17062	39.03
1.18728	39.03
1.20395	39.03
1.22062	39.03
1.23728	39.03
1.25395	39.03
1.27062	39.03
1.28728	39.03
1.30395	39.03
1.32062	39.03
1.33728	39.03
1.35395	39.03
1.37062	39.03
1.38728	39.03
1.40395	39.03
1.42062	39.03
1.43728	39.03
1.45395	39.03
1.47062	39.03
1.48728	39.03
1.50395	39.03
1.52062	39.03
1.53728	39.03
1.55395	39.03
1.57062	39.03
1.58728	39.03
1.60395	39.03
1.62062	39.02
1.63728	39.00
1.65395	38.98
1.67062	38.95
1.68728	38.91
1.70395	38.88
1.72062	38.84
1.73728	38.81
1.75395	38.78
1.77062	38.75
1.78728	38.72
1.80395	38.69
1.82062	38.66
1.83728	38.62
1.85395	38.60
1.87062	38.56
1.88728	38.53
1.90395	38.51
1.92062	38.47
1.93728	38.44
1.95395	38.41
1.97062	38.38
1.98728	38.35
2.00395	38.32
2.02062	38.29
2.03728	38.26
2.05395	38.23
2.07062	38.20
2.08728	38.17
2.10395	38.14
2.12062	38.11
2.13728	38.08
2.15395	38.05
2.17062	38.02
2.18728	37.99
2.20395	37.97
2.22062	37.93
2.23728	37.90
2.25395	37.88
2.27062	37.84
2.28728	37.81
2.30395	37.79
2.32062	37.75
2.33728	37.73
2.35395	37.70
2.37062	37.68
2.38728	37.66
2.40395	37.66
2.42062	37.66
2.43728	37.67
2.45395	37.66
2.47062	37.66
2.48728	37.66
2.50395	37.65
2.52062	37.66
2.53728	37.66
2.55395	37.66
2.57062	37.66
2.58728	37.66
2.60395	37.66
2.62062	37.66
2.63728	37.66
2.65395	37.66
2.67062	37.66
2.68728	37.66
2.70395	37.66
2.72062	37.66
2.73728	37.66
2.75395	37.66
2.77062	37.66
2.78728	37.66
2.80395	37.66
2.82062	37.65
2.83728	37.65
2.85395	37.65
2.87062	37.65
2.88728	37.65
2.90395	37.65
2.92062	37.65
2.93728	37.65
2.95395	37.65
2.97062	37.65
2.98728	37.65
3.00395	37.65
3.02062	37.64
3.03728	37.64
3.05395	37.64
3.07062	37.64
3.08728	37.64
3.10395	37.64
3.12062	37.64
3.13728	37.64
3.15395	37.64
3.17062	37.64
3.18728	37.64
3.20395	37.64
3.22062	37.64
3.23728	37.64
3.25395	37.64
3.27062	37.64
3.28728	37.63
3.30395	37.63
3.32062	37.64
3.33728	37.64
3.35395	37.64
3.37062	37.64
3.38728	37.64
3.40395	37.64
3.42062	37.64
3.43728	37.64
3.45395	37.64
3.47062	37.64
3.48728	37.64
3.50395	37.64
3.52062	37.64
3.53728	37.64
3.55395	37.64
3.57062	37.64
3.58728	37.64
3.60395	37.64
3.62062	37.64
3.63728	37.64
3.65395	37.64
3.67062	37.64
3.68728	37.64
3.70395	37.64
3.72062	37.64
3.73728	37.64
3.75395	37.64
3.77062	37.64
3.78728	37.64
3.80395	37.64
3.82062	37.64
3.83728	37.64
3.85395	37.64
3.87062	37.64
3.88728	37.64
3.90395	37.64
3.92062	37.64
3.93728	37.64
3.95395	37.64
3.97062	37.64
3.98728	37.64

