[Header]
Application Name	LabSolutions
Version	5.110
Data File Name	C:\Users\User\Desktop\GC Analyses\Jack\Nachusa Grasslands Sampling\T0 Timepoint July 12th\T0_07122022_063.gcd
Output Date	3/14/2023
Output Time	3:40:37 PM

[File Information]
Type	Data File
Generated	3/7/2023 8:47:36 PM
Generated by	System Administrator
Modified	3/7/2023 8:54:11 PM
Modified by	System Administrator

[Sample Information]
Operator Name	System Administrator
Acquired	3/7/2023 8:50:11 PM
Sample Type	0:Unknown
Level	0
Sample Name	063
Sample ID	063
ISTD Amount1	1
ISTD Amount2	1
ISTD Amount3	1
ISTD Amount4	1
ISTD Amount5	1
ISTD Amount6	1
ISTD Amount7	1
ISTD Amount8	1
ISTD Amount9	1
ISTD Amount10	1
ISTD Amount11	1
ISTD Amount12	1
ISTD Amount13	1
ISTD Amount14	1
ISTD Amount15	1
ISTD Amount16	1
ISTD Amount17	1
ISTD Amount18	1
ISTD Amount19	1
ISTD Amount20	1
ISTD Amount21	1
ISTD Amount22	1
ISTD Amount23	1
ISTD Amount24	1
ISTD Amount25	1
ISTD Amount26	1
ISTD Amount27	1
ISTD Amount28	1
ISTD Amount29	1
ISTD Amount30	1
ISTD Amount31	1
ISTD Amount32	1
Sample Amount	1
Dilution Factor	1
Vial#	62
Injection Volume	1
Injection Count	1
Bar Code	

[Original Files]
Data File	C:\Users\User\Desktop\GC Analyses\Jack\Nachusa Grasslands Sampling\T0 Timepoint July 12th\T0_07122022_063.gcd
Method File	C:\LabSolutions\Data\GHG_4min_2022\ghg3_togas_w_acet_4 min_new_int.gcm
Batch File	C:\LabSolutions\Data\AutoSamplerTesting\T0_07122022.gcb
Report Format File	c:\LabSolutions\System\DEFAULT.lsr

[File Description]


[Configuration]
Instrument Name	C0B7VH3-Instrument1
Instrument #	1
Line #	1
# of Detectors	3
Detector ID	DET#1	DET#2	DET#3
Detector Name	FID	PTCD	ECD
# of Channels	1	1	1

[Peak Table(Ch1)]
# of Peaks	3
Peak#	R.Time	I.Time	F.Time	Area	Height	A/H	Conc.	Mark	ID#	Name	k'	Plate #	Plate Ht.	Tailing	Resolution	Sep.Factor	Area Ratio	Height Ratio	Conc. %	Norm Conc.
1	1.476	1.439	1.538	42091	20017	2.103	297.163	   	1	CO	0.000	9247	16.222	1.359	0.000	0.000	0	0	42.224	42.224
2	1.567	1.538	1.644	5156	2397	2.151	99.700	 V 	2	CH4	0.062	9998	15.003	0.000	1.478	0.000	0	0	14.166	14.166
3	1.996	1.945	2.495	1222920	575576	2.125	306.920	   	3	CO2	0.353	17287	8.677	1.318	6.951	5.680	0	0	43.610	43.610

[Peak Table(Ch2)]
# of Peaks	0

[Peak Table(Ch3)]
# of Peaks	5
Peak#	R.Time	I.Time	F.Time	Area	Height	A/H	Conc.	Mark	ID#	Name	k'	Plate #	Plate Ht.	Tailing	Resolution	Sep.Factor	Area Ratio	Height Ratio	Conc. %	Norm Conc.
1	2.462	2.235	2.521	1798	405	4.443	0.000	   			0.000	6810	22.025	0.000	0.000	0.000	0	0	0.000	0.000
2	2.546	2.521	2.634	1061	234	4.532	0.000	 V 			0.034	2441	61.448	0.000	0.518	0.000	0	0	0.000	0.000
3	2.708	2.645	2.803	896	116	7.701	0.000	   			0.100	112	1339.935	0.000	0.262	2.913	0	0	0.000	0.000
4	2.873	2.803	3.243	20393	4894	4.167	0.521	 V 	1	N2O	0.167	13016	11.524	1.707	0.293	1.672	0	0	100.000	100.000
5	3.386	3.250	3.980	11701	534	21.894	0.000	   	2	SF6	0.375	543	276.485	2.638	1.505	2.250	0	0	0.000	0.000

[Compound Results(Ch1)]
# of IDs	6
ID#	Name	R.Time	Area	Height	Conc.	Curve	3rd	2nd	1st	Constant	Area Ratio	Height Ratio	Conc. %	Norm Conc.
1	CO	1.476	42091	20017	297.163	Linear	0.000000e+00	0.000000e+00	1.416423e+002	0.000000e+00	0	0	42.224	42.224
2	CH4	1.567	5156	2397	99.700	Linear	0.000000e+00	0.000000e+00	5.171738e+001	0.000000e+00	0	0	14.166	14.166
3	CO2	1.996	1222920	575576	306.920	Linear	0.000000e+00	0.000000e+00	3.984494e+003	0.000000e+00	0	0	43.610	43.610
4	Ethylene	0.000	0	0	0.000	Linear	0.000000e+00	0.000000e+00	0.000000e+00	0.000000e+00	0	0	0.000	0.000
5	Acetylene	0.000	0	0	0.000	Linear	0.000000e+00	0.000000e+00	0.000000e+00	0.000000e+00	0	0	0.000	0.000
6	Ethane	0.000	0	0	0.000	Linear	0.000000e+00	0.000000e+00	0.000000e+00	0.000000e+00	0	0	0.000	0.000

[Compound Results(Ch2)]
# of IDs	5
ID#	Name	R.Time	Area	Height	Conc.	Curve	3rd	2nd	1st	Constant	Area Ratio	Height Ratio	Conc. %	Norm Conc.
1	Hydrogen	0.000	0	0	0.000	Linear	0.000000e+00	0.000000e+00	0.000000e+00	0.000000e+00	0	0	0.000	0.000
2	Oxygen	0.000	0	0	0.000	Linear	0.000000e+00	0.000000e+00	0.000000e+00	0.000000e+00	0	0	0.000	0.000
3	Nitrogen	0.000	0	0	0.000	Linear	0.000000e+00	0.000000e+00	0.000000e+00	0.000000e+00	0	0	0.000	0.000
4	Methane	0.000	0	0	0.000	Linear	0.000000e+00	0.000000e+00	0.000000e+00	0.000000e+00	0	0	0.000	0.000
5	Carbon Monoxide	0.000	0	0	0.000	Linear	0.000000e+00	0.000000e+00	0.000000e+00	0.000000e+00	0	0	0.000	0.000

[Compound Results(Ch3)]
# of IDs	2
ID#	Name	R.Time	Area	Height	Conc.	Curve	3rd	2nd	1st	Constant	Area Ratio	Height Ratio	Conc. %	Norm Conc.
1	N2O	2.873	20393	4894	0.521	Linear	0.000000e+00	0.000000e+00	3.915173e+004	0.000000e+00	0	0	100.000	100.000
2	SF6	3.386	11701	534	0.000	Linear	0.000000e+00	0.000000e+00	0.000000e+00	0.000000e+00	0	0	0.000	0.000

[Group Results(Ch1)]
# of Groups	0

[Group Results(Ch2)]
# of Groups	0

[Group Results(Ch3)]
# of Groups	0

[Chromatogram (Ch1)]
Interval(msec)	220
# of Points	1091
Start Time(min)	0.002
End Time(min)	3.998
R.Time (min)	Intensity
0.00167	-37
0.00533	-46
0.00900	-53
0.01267	-55
0.01633	-49
0.02000	-38
0.02367	-25
0.02733	-17
0.03100	-14
0.03467	-15
0.03833	-19
0.04200	-23
0.04567	-27
0.04933	-34
0.05300	-38
0.05667	-40
0.06033	-38
0.06400	-38
0.06767	-36
0.07133	-31
0.07500	-20
0.07867	-9
0.08233	-3
0.08600	-2
0.08967	-7
0.09333	-12
0.09700	-13
0.10067	-14
0.10433	-15
0.10800	-18
0.11167	-18
0.11533	-18
0.11900	-20
0.12267	-22
0.12633	-24
0.13000	-26
0.13367	-30
0.13733	-34
0.14100	-38
0.14467	-40
0.14833	-38
0.15200	-33
0.15567	-28
0.15933	-24
0.16300	-21
0.16667	-21
0.17033	-23
0.17400	-25
0.17767	-25
0.18133	-26
0.18500	-29
0.18867	-30
0.19233	-24
0.19600	-17
0.19967	-15
0.20333	-13
0.20700	-10
0.21067	-6
0.21433	-4
0.21800	-5
0.22167	-9
0.22533	-14
0.22900	-19
0.23267	-24
0.23633	-25
0.24000	-23
0.24367	-21
0.24733	-21
0.25100	-24
0.25467	-30
0.25833	-36
0.26200	-41
0.26567	-41
0.26933	-34
0.27300	-22
0.27667	-8
0.28033	1
0.28400	1
0.28767	-2
0.29133	-4
0.29500	-4
0.29867	-4
0.30233	-3
0.30600	-3
0.30967	0
0.31333	7
0.31700	14
0.32067	22
0.32433	29
0.32800	36
0.33167	42
0.33533	50
0.33900	62
0.34267	77
0.34633	90
0.35000	94
0.35367	83
0.35733	64
0.36100	46
0.36467	27
0.36833	13
0.37200	7
0.37567	7
0.37933	7
0.38300	8
0.38667	11
0.39033	17
0.39400	24
0.39767	27
0.40133	23
0.40500	19
0.40867	17
0.41233	14
0.41600	8
0.41967	-1
0.42333	-8
0.42700	-11
0.43067	-10
0.43433	-6
0.43800	-3
0.44167	1
0.44533	4
0.44900	3
0.45267	-1
0.45633	-3
0.46000	-3
0.46367	-2
0.46733	-5
0.47100	-11
0.47467	-16
0.47833	-20
0.48200	-22
0.48567	-25
0.48933	-29
0.49300	-31
0.49667	-32
0.50033	-31
0.50400	-31
0.50767	-33
0.51133	-31
0.51500	-28
0.51867	-27
0.52233	-24
0.52600	-22
0.52967	-22
0.53333	-24
0.53700	-25
0.54067	-29
0.54433	-35
0.54800	-39
0.55167	-41
0.55533	-44
0.55900	-47
0.56267	-49
0.56633	-50
0.57000	-50
0.57367	-50
0.57733	-47
0.58100	-40
0.58467	-31
0.58833	-21
0.59200	-15
0.59567	-17
0.59933	-27
0.60300	-39
0.60667	-48
0.61033	-53
0.61400	-56
0.61767	-55
0.62133	-48
0.62500	-43
0.62867	-43
0.63233	-49
0.63600	-55
0.63967	-56
0.64333	-51
0.64700	-44
0.65067	-41
0.65433	-41
0.65800	-41
0.66167	-40
0.66533	-40
0.66900	-42
0.67267	-46
0.67633	-50
0.68000	-53
0.68367	-53
0.68733	-51
0.69100	-47
0.69467	-40
0.69833	-35
0.70200	-35
0.70567	-40
0.70933	-45
0.71300	-49
0.71667	-55
0.72033	-61
0.72400	-64
0.72767	-66
0.73133	-69
0.73500	-73
0.73867	-74
0.74233	-72
0.74600	-66
0.74967	-60
0.75333	-55
0.75700	-47
0.76067	-39
0.76433	-37
0.76800	-42
0.77167	-49
0.77533	-54
0.77900	-55
0.78267	-53
0.78633	-50
0.79000	-44
0.79367	-40
0.79733	-40
0.80100	-42
0.80467	-48
0.80833	-58
0.81200	-65
0.81567	-68
0.81933	-66
0.82300	-62
0.82667	-60
0.83033	-61
0.83400	-62
0.83767	-63
0.84133	-58
0.84500	-53
0.84867	-50
0.85233	-49
0.85600	-52
0.85967	-57
0.86333	-66
0.86700	-75
0.87067	-83
0.87433	-86
0.87800	-81
0.88167	-71
0.88533	-61
0.88900	-51
0.89267	-47
0.89633	-49
0.90000	-61
0.90367	-75
0.90733	-85
0.91100	-91
0.91467	-93
0.91833	-93
0.92200	-94
0.92567	-91
0.92933	-83
0.93300	-73
0.93667	-64
0.94033	-56
0.94400	-53
0.94767	-54
0.95133	-61
0.95500	-69
0.95867	-73
0.96233	-75
0.96600	-74
0.96967	-76
0.97333	-79
0.97700	-81
0.98067	-84
0.98433	-84
0.98800	-82
0.99167	-80
0.99533	-76
0.99900	-73
1.00267	-73
1.00633	-77
1.01000	-81
1.01367	-83
1.01733	-85
1.02100	-85
1.02467	-82
1.02833	-81
1.03200	-79
1.03567	-76
1.03933	-71
1.04300	-64
1.04667	-50
1.05033	-36
1.05400	-31
1.05767	-40
1.06133	-54
1.06500	-70
1.06867	-85
1.07233	-97
1.07600	-105
1.07967	-109
1.08333	-109
1.08700	-106
1.09067	-98
1.09433	-87
1.09800	-72
1.10167	-59
1.10533	-50
1.10900	-47
1.11267	-50
1.11633	-54
1.12000	-58
1.12367	-66
1.12733	-76
1.13100	-83
1.13467	-85
1.13833	-85
1.14200	-84
1.14567	-88
1.14933	-91
1.15300	-95
1.15667	-101
1.16033	-107
1.16400	-115
1.16767	-119
1.17133	-115
1.17500	-104
1.17867	-97
1.18233	-92
1.18600	-90
1.18967	-87
1.19333	-82
1.19700	-76
1.20067	-73
1.20433	-75
1.20800	-82
1.21167	-87
1.21533	-91
1.21900	-93
1.22267	-94
1.22633	-95
1.23000	-95
1.23367	-91
1.23733	-87
1.24100	-85
1.24467	-85
1.24833	-84
1.25200	-85
1.25567	-88
1.25933	-90
1.26300	-87
1.26667	-76
1.27033	-65
1.27400	-63
1.27767	-68
1.28133	-75
1.28500	-77
1.28867	-74
1.29233	-71
1.29600	-71
1.29967	-73
1.30333	-76
1.30700	-71
1.31067	-60
1.31433	-56
1.31800	-60
1.32167	-66
1.32533	-74
1.32900	-86
1.33267	-95
1.33633	-99
1.34000	-96
1.34367	-87
1.34733	-74
1.35100	-66
1.35467	-65
1.35833	-66
1.36200	-70
1.36567	-76
1.36933	-78
1.37300	-76
1.37667	-76
1.38033	-79
1.38400	-84
1.38767	-86
1.39133	-83
1.39500	-79
1.39867	-77
1.40233	-76
1.40600	-75
1.40967	-70
1.41333	-63
1.41700	-57
1.42067	-52
1.42433	-47
1.42800	-45
1.43167	-48
1.43533	-53
1.43900	-40
1.44267	45
1.44633	302
1.45000	1033
1.45367	2880
1.45733	6063
1.46100	9965
1.46467	13726
1.46833	16804
1.47200	18950
1.47567	19980
1.47933	19725
1.48300	18167
1.48667	15598
1.49033	12562
1.49400	9605
1.49767	7074
1.50133	5089
1.50500	3619
1.50867	2572
1.51233	1847
1.51600	1350
1.51967	1012
1.52333	776
1.52700	604
1.53067	475
1.53433	379
1.53800	323
1.54167	340
1.54533	485
1.54900	786
1.55267	1194
1.55633	1612
1.56000	1967
1.56367	2226
1.56733	2367
1.57100	2360
1.57467	2187
1.57833	1871
1.58200	1487
1.58567	1110
1.58933	787
1.59300	536
1.59667	357
1.60033	235
1.60400	156
1.60767	111
1.61133	89
1.61500	79
1.61867	66
1.62233	48
1.62600	28
1.62967	13
1.63333	2
1.63700	-8
1.64067	-17
1.64433	-24
1.64800	-31
1.65167	-37
1.65533	-39
1.65900	-38
1.66267	-33
1.66633	-23
1.67000	-15
1.67367	-11
1.67733	-13
1.68100	-17
1.68467	-18
1.68833	-15
1.69200	-17
1.69567	-21
1.69933	-25
1.70300	-28
1.70667	-31
1.71033	-33
1.71400	-32
1.71767	-31
1.72133	-31
1.72500	-32
1.72867	-34
1.73233	-37
1.73600	-36
1.73967	-35
1.74333	-33
1.74700	-31
1.75067	-30
1.75433	-29
1.75800	-28
1.76167	-30
1.76533	-35
1.76900	-38
1.77267	-35
1.77633	-27
1.78000	-19
1.78367	-15
1.78733	-16
1.79100	-20
1.79467	-22
1.79833	-23
1.80200	-23
1.80567	-24
1.80933	-23
1.81300	-24
1.81667	-28
1.82033	-34
1.82400	-38
1.82767	-41
1.83133	-44
1.83500	-46
1.83867	-48
1.84233	-50
1.84600	-53
1.84967	-58
1.85333	-59
1.85700	-52
1.86067	-42
1.86433	-37
1.86800	-35
1.87167	-34
1.87533	-30
1.87900	-25
1.88267	-21
1.88633	-19
1.89000	-19
1.89367	-23
1.89733	-32
1.90100	-40
1.90467	-44
1.90833	-48
1.91200	-49
1.91567	-52
1.91933	-51
1.92300	-50
1.92667	-48
1.93033	-46
1.93400	-45
1.93767	-45
1.94133	-43
1.94500	-38
1.94867	-30
1.95233	-13
1.95600	87
1.95967	639
1.96333	3124
1.96700	11704
1.97067	34426
1.97433	81306
1.97800	157663
1.98167	257906
1.98533	366653
1.98900	465429
1.99267	538589
1.99633	575572
2.00000	571590
2.00367	529128
2.00733	458019
2.01100	372854
2.01467	287955
2.01833	213301
2.02200	153347
2.02567	108237
2.02933	75815
2.03300	53223
2.03667	37783
2.04033	27332
2.04400	20267
2.04767	15464
2.05133	12156
2.05500	9834
2.05867	8172
2.06233	6954
2.06600	6035
2.06967	5324
2.07333	4763
2.07700	4313
2.08067	3941
2.08433	3630
2.08800	3368
2.09167	3144
2.09533	2951
2.09900	2786
2.10267	2642
2.10633	2507
2.11000	2379
2.11367	2259
2.11733	2145
2.12100	2038
2.12467	1939
2.12833	1850
2.13200	1772
2.13567	1702
2.13933	1639
2.14300	1582
2.14667	1527
2.15033	1474
2.15400	1421
2.15767	1370
2.16133	1321
2.16500	1277
2.16867	1237
2.17233	1200
2.17600	1165
2.17967	1128
2.18333	1091
2.18700	1057
2.19067	1026
2.19433	999
2.19800	976
2.20167	957
2.20533	939
2.20900	919
2.21267	898
2.21633	877
2.22000	855
2.22367	838
2.22733	827
2.23100	817
2.23467	806
2.23833	792
2.24200	774
2.24567	753
2.24933	728
2.25300	706
2.25667	687
2.26033	670
2.26400	657
2.26767	646
2.27133	638
2.27500	630
2.27867	620
2.28233	606
2.28600	589
2.28967	574
2.29333	565
2.29700	562
2.30067	559
2.30433	553
2.30800	546
2.31167	537
2.31533	524
2.31900	512
2.32267	504
2.32633	496
2.33000	489
2.33367	480
2.33733	474
2.34100	474
2.34467	475
2.34833	473
2.35200	470
2.35567	468
2.35933	467
2.36300	462
2.36667	455
2.37033	447
2.37400	438
2.37767	432
2.38133	430
2.38500	428
2.38867	428
2.39233	429
2.39600	430
2.39967	428
2.40333	425
2.40700	418
2.41067	411
2.41433	406
2.41800	400
2.42167	394
2.42533	391
2.42900	390
2.43267	390
2.43633	387
2.44000	381
2.44367	375
2.44733	371
2.45100	369
2.45467	372
2.45833	377
2.46200	376
2.46567	371
2.46933	364
2.47300	358
2.47667	355
2.48033	351
2.48400	347
2.48767	340
2.49133	333
2.49500	325
2.49867	316
2.50233	312
2.50600	316
2.50967	323
2.51333	326
2.51700	327
2.52067	330
2.52433	334
2.52800	340
2.53167	345
2.53533	346
2.53900	346
2.54267	345
2.54633	340
2.55000	331
2.55367	318
2.55733	306
2.56100	300
2.56467	299
2.56833	304
2.57200	313
2.57567	321
2.57933	322
2.58300	312
2.58667	296
2.59033	283
2.59400	275
2.59767	268
2.60133	264
2.60500	264
2.60867	264
2.61233	263
2.61600	263
2.61967	266
2.62333	271
2.62700	273
2.63067	275
2.63433	277
2.63800	280
2.64167	286
2.64533	292
2.64900	294
2.65267	294
2.65633	295
2.66000	294
2.66367	286
2.66733	273
2.67100	259
2.67467	246
2.67833	238
2.68200	235
2.68567	235
2.68933	237
2.69300	239
2.69667	242
2.70033	248
2.70400	253
2.70767	260
2.71133	267
2.71500	272
2.71867	272
2.72233	273
2.72600	275
2.72967	279
2.73333	280
2.73700	277
2.74067	271
2.74433	262
2.74800	250
2.75167	240
2.75533	235
2.75900	234
2.76267	238
2.76633	243
2.77000	245
2.77367	245
2.77733	242
2.78100	240
2.78467	237
2.78833	236
2.79200	238
2.79567	243
2.79933	248
2.80300	251
2.80667	249
2.81033	244
2.81400	239
2.81767	235
2.82133	237
2.82500	242
2.82867	246
2.83233	250
2.83600	253
2.83967	253
2.84333	252
2.84700	252
2.85067	255
2.85433	257
2.85800	259
2.86167	260
2.86533	260
2.86900	259
2.87267	256
2.87633	250
2.88000	245
2.88367	242
2.88733	239
2.89100	235
2.89467	229
2.89833	225
2.90200	221
2.90567	217
2.90933	213
2.91300	211
2.91667	213
2.92033	214
2.92400	215
2.92767	217
2.93133	218
2.93500	221
2.93867	224
2.94233	228
2.94600	233
2.94967	236
2.95333	236
2.95700	238
2.96067	241
2.96433	242
2.96800	239
2.97167	236
2.97533	234
2.97900	235
2.98267	237
2.98633	241
2.99000	245
2.99367	251
2.99733	257
3.00100	255
3.00467	252
3.00833	249
3.01200	246
3.01567	244
3.01933	246
3.02300	248
3.02667	248
3.03033	245
3.03400	240
3.03767	236
3.04133	233
3.04500	235
3.04867	241
3.05233	241
3.05600	236
3.05967	232
3.06333	232
3.06700	232
3.07067	232
3.07433	235
3.07800	235
3.08167	225
3.08533	211
3.08900	200
3.09267	197
3.09633	197
3.10000	199
3.10367	205
3.10733	212
3.11100	211
3.11467	206
3.11833	202
3.12200	199
3.12567	197
3.12933	198
3.13300	199
3.13667	201
3.14033	207
3.14400	213
3.14767	217
3.15133	219
3.15500	220
3.15867	221
3.16233	222
3.16600	224
3.16967	224
3.17333	221
3.17700	216
3.18067	212
3.18433	209
3.18800	208
3.19167	209
3.19533	208
3.19900	207
3.20267	208
3.20633	210
3.21000	212
3.21367	209
3.21733	205
3.22100	200
3.22467	197
3.22833	195
3.23200	197
3.23567	200
3.23933	202
3.24300	200
3.24667	199
3.25033	195
3.25400	187
3.25767	180
3.26133	174
3.26500	172
3.26867	174
3.27233	175
3.27600	176
3.27967	177
3.28333	181
3.28700	184
3.29067	186
3.29433	188
3.29800	193
3.30167	198
3.30533	199
3.30900	198
3.31267	197
3.31633	202
3.32000	209
3.32367	216
3.32733	218
3.33100	213
3.33467	202
3.33833	193
3.34200	190
3.34567	188
3.34933	188
3.35300	191
3.35667	193
3.36033	195
3.36400	196
3.36767	197
3.37133	198
3.37500	198
3.37867	195
3.38233	188
3.38600	181
3.38967	177
3.39333	175
3.39700	174
3.40067	173
3.40433	173
3.40800	178
3.41167	183
3.41533	186
3.41900	184
3.42267	183
3.42633	183
3.43000	182
3.43367	177
3.43733	172
3.44100	167
3.44467	164
3.44833	163
3.45200	166
3.45567	167
3.45933	164
3.46300	162
3.46667	162
3.47033	164
3.47400	165
3.47767	168
3.48133	171
3.48500	176
3.48867	180
3.49233	182
3.49600	181
3.49967	178
3.50333	175
3.50700	172
3.51067	169
3.51433	169
3.51800	167
3.52167	162
3.52533	157
3.52900	153
3.53267	148
3.53633	143
3.54000	140
3.54367	138
3.54733	139
3.55100	143
3.55467	146
3.55833	150
3.56200	155
3.56567	157
3.56933	156
3.57300	154
3.57667	150
3.58033	148
3.58400	150
3.58767	156
3.59133	163
3.59500	167
3.59867	164
3.60233	156
3.60600	146
3.60967	139
3.61333	137
3.61700	137
3.62067	139
3.62433	141
3.62800	144
3.63167	145
3.63533	144
3.63900	142
3.64267	141
3.64633	143
3.65000	144
3.65367	138
3.65733	131
3.66100	129
3.66467	130
3.66833	131
3.67200	131
3.67567	131
3.67933	132
3.68300	134
3.68667	133
3.69033	128
3.69400	123
3.69767	121
3.70133	119
3.70500	115
3.70867	110
3.71233	106
3.71600	104
3.71967	103
3.72333	102
3.72700	101
3.73067	99
3.73433	98
3.73800	96
3.74167	96
3.74533	99
3.74900	105
3.75267	108
3.75633	108
3.76000	108
3.76367	109
3.76733	109
3.77100	111
3.77467	116
3.77833	121
3.78200	124
3.78567	127
3.78933	132
3.79300	133
3.79667	131
3.80033	126
3.80400	119
3.80767	114
3.81133	111
3.81500	107
3.81867	106
3.82233	106
3.82600	102
3.82967	100
3.83333	102
3.83700	105
3.84067	108
3.84433	113
3.84800	122
3.85167	132
3.85533	140
3.85900	140
3.86267	130
3.86633	118
3.87000	109
3.87367	102
3.87733	98
3.88100	99
3.88467	101
3.88833	101
3.89200	99
3.89567	99
3.89933	101
3.90300	103
3.90667	108
3.91033	114
3.91400	117
3.91767	117
3.92133	112
3.92500	102
3.92867	94
3.93233	90
3.93600	91
3.93967	94
3.94333	95
3.94700	93
3.95067	89
3.95433	85
3.95800	85
3.96167	85
3.96533	82
3.96900	77
3.97267	74
3.97633	77
3.98000	87
3.98367	99
3.98733	108
3.99100	113
3.99467	113
3.99833	109

[Chromatogram (Ch2)]
Interval(msec)	220
# of Points	1091
Start Time(min)	0.002
End Time(min)	3.998
R.Time (min)	Intensity
0.00167	-1
0.00533	-1
0.00900	-1
0.01267	-1
0.01633	-1
0.02000	-1
0.02367	-1
0.02733	-1
0.03100	-1
0.03467	-1
0.03833	-0
0.04200	-0
0.04567	0
0.04933	0
0.05300	0
0.05667	0
0.06033	0
0.06400	0
0.06767	0
0.07133	1
0.07500	1
0.07867	1
0.08233	1
0.08600	1
0.08967	1
0.09333	1
0.09700	1
0.10067	1
0.10433	1
0.10800	1
0.11167	1
0.11533	1
0.11900	2
0.12267	2
0.12633	2
0.13000	2
0.13367	2
0.13733	2
0.14100	1
0.14467	1
0.14833	0
0.15200	0
0.15567	-0
0.15933	-0
0.16300	-1
0.16667	-0
0.17033	-0
0.17400	0
0.17767	0
0.18133	0
0.18500	-0
0.18867	-0
0.19233	-0
0.19600	-0
0.19967	-0
0.20333	-0
0.20700	-0
0.21067	-0
0.21433	-1
0.21800	-1
0.22167	-1
0.22533	-1
0.22900	-1
0.23267	-1
0.23633	-1
0.24000	-1
0.24367	-1
0.24733	-1
0.25100	-1
0.25467	-1
0.25833	-1
0.26200	-1
0.26567	-1
0.26933	-2
0.27300	-2
0.27667	-2
0.28033	-1
0.28400	-1
0.28767	-1
0.29133	-0
0.29500	-0
0.29867	0
0.30233	0
0.30600	0
0.30967	1
0.31333	1
0.31700	1
0.32067	1
0.32433	1
0.32800	1
0.33167	1
0.33533	1
0.33900	0
0.34267	0
0.34633	-0
0.35000	-1
0.35367	-1
0.35733	-1
0.36100	-2
0.36467	-2
0.36833	-2
0.37200	-2
0.37567	-2
0.37933	-2
0.38300	-2
0.38667	-2
0.39033	-2
0.39400	-2
0.39767	-2
0.40133	-2
0.40500	-2
0.40867	-1
0.41233	-1
0.41600	-1
0.41967	-1
0.42333	-1
0.42700	-0
0.43067	-0
0.43433	-1
0.43800	-1
0.44167	-1
0.44533	-1
0.44900	-1
0.45267	-0
0.45633	0
0.46000	0
0.46367	1
0.46733	0
0.47100	0
0.47467	0
0.47833	-0
0.48200	-1
0.48567	-1
0.48933	-2
0.49300	-2
0.49667	-2
0.50033	-2
0.50400	-2
0.50767	-3
0.51133	-3
0.51500	-3
0.51867	-3
0.52233	-3
0.52600	-2
0.52967	-2
0.53333	-2
0.53700	-2
0.54067	-1
0.54433	-1
0.54800	-0
0.55167	0
0.55533	1
0.55900	1
0.56267	2
0.56633	2
0.57000	2
0.57367	2
0.57733	2
0.58100	2
0.58467	2
0.58833	3
0.59200	3
0.59567	3
0.59933	3
0.60300	3
0.60667	3
0.61033	2
0.61400	2
0.61767	2
0.62133	1
0.62500	0
0.62867	-0
0.63233	-1
0.63600	-1
0.63967	-2
0.64333	-2
0.64700	-2
0.65067	-3
0.65433	-3
0.65800	-3
0.66167	-3
0.66533	-3
0.66900	-3
0.67267	-3
0.67633	-3
0.68000	-3
0.68367	-2
0.68733	-2
0.69100	-2
0.69467	-2
0.69833	-2
0.70200	-2
0.70567	-2
0.70933	-2
0.71300	-2
0.71667	-2
0.72033	-2
0.72400	-2
0.72767	-2
0.73133	-2
0.73500	-1
0.73867	-1
0.74233	-0
0.74600	0
0.74967	0
0.75333	0
0.75700	1
0.76067	1
0.76433	1
0.76800	1
0.77167	0
0.77533	0
0.77900	0
0.78267	0
0.78633	-0
0.79000	-0
0.79367	-1
0.79733	-1
0.80100	-1
0.80467	-1
0.80833	-1
0.81200	-1
0.81567	-1
0.81933	-1
0.82300	-1
0.82667	-1
0.83033	-1
0.83400	-2
0.83767	-2
0.84133	-2
0.84500	-2
0.84867	-2
0.85233	-3
0.85600	-3
0.85967	-3
0.86333	-3
0.86700	-4
0.87067	-4
0.87433	-4
0.87800	-4
0.88167	-4
0.88533	-3
0.88900	-3
0.89267	-3
0.89633	-3
0.90000	-3
0.90367	-3
0.90733	-3
0.91100	-2
0.91467	-2
0.91833	-1
0.92200	-1
0.92567	-0
0.92933	0
0.93300	1
0.93667	1
0.94033	2
0.94400	2
0.94767	2
0.95133	3
0.95500	3
0.95867	4
0.96233	4
0.96600	4
0.96967	4
0.97333	3
0.97700	3
0.98067	2
0.98433	2
0.98800	1
0.99167	1
0.99533	1
0.99900	0
1.00267	-0
1.00633	-1
1.01000	-1
1.01367	-1
1.01733	-2
1.02100	-2
1.02467	-2
1.02833	-3
1.03200	-3
1.03567	-3
1.03933	-3
1.04300	-3
1.04667	-3
1.05033	-4
1.05400	-4
1.05767	-4
1.06133	-5
1.06500	-5
1.06867	-5
1.07233	-5
1.07600	-4
1.07967	-4
1.08333	-4
1.08700	-4
1.09067	-3
1.09433	-3
1.09800	-3
1.10167	-2
1.10533	-2
1.10900	-2
1.11267	-2
1.11633	-2
1.12000	-2
1.12367	-2
1.12733	-2
1.13100	-2
1.13467	-1
1.13833	-1
1.14200	-1
1.14567	-1
1.14933	-1
1.15300	-0
1.15667	-1
1.16033	-1
1.16400	-1
1.16767	-1
1.17133	-1
1.17500	-1
1.17867	-1
1.18233	-1
1.18600	-1
1.18967	-1
1.19333	-1
1.19700	-1
1.20067	-1
1.20433	-1
1.20800	-1
1.21167	-1
1.21533	-2
1.21900	-2
1.22267	-2
1.22633	-3
1.23000	-3
1.23367	-3
1.23733	-3
1.24100	-3
1.24467	-3
1.24833	-3
1.25200	-2
1.25567	-2
1.25933	-2
1.26300	-2
1.26667	-1
1.27033	-1
1.27400	-1
1.27767	-1
1.28133	-1
1.28500	-1
1.28867	-1
1.29233	-2
1.29600	-2
1.29967	-3
1.30333	-3
1.30700	-4
1.31067	-4
1.31433	-5
1.31800	-5
1.32167	-6
1.32533	-6
1.32900	-6
1.33267	-6
1.33633	-6
1.34000	-6
1.34367	-6
1.34733	-6
1.35100	-6
1.35467	-6
1.35833	-5
1.36200	-5
1.36567	-5
1.36933	-4
1.37300	-4
1.37667	-3
1.38033	-3
1.38400	-2
1.38767	-2
1.39133	-2
1.39500	-1
1.39867	-1
1.40233	-1
1.40600	-1
1.40967	-0
1.41333	-0
1.41700	-0
1.42067	-0
1.42433	0
1.42800	0
1.43167	0
1.43533	0
1.43900	0
1.44267	0
1.44633	0
1.45000	0
1.45367	0
1.45733	-0
1.46100	-1
1.46467	-1
1.46833	-1
1.47200	-2
1.47567	-2
1.47933	-2
1.48300	-2
1.48667	-2
1.49033	-2
1.49400	-1
1.49767	-1
1.50133	-1
1.50500	-1
1.50867	-2
1.51233	-2
1.51600	-3
1.51967	-3
1.52333	-3
1.52700	-4
1.53067	-4
1.53433	-5
1.53800	-5
1.54167	-5
1.54533	-6
1.54900	-5
1.55267	-5
1.55633	-5
1.56000	-5
1.56367	-5
1.56733	-5
1.57100	-5
1.57467	-5
1.57833	-5
1.58200	-5
1.58567	-5
1.58933	-5
1.59300	-4
1.59667	-5
1.60033	-5
1.60400	-6
1.60767	-7
1.61133	-9
1.61500	-11
1.61867	-13
1.62233	-16
1.62600	-18
1.62967	-21
1.63333	-24
1.63700	-28
1.64067	-31
1.64433	-34
1.64800	-38
1.65167	-42
1.65533	-45
1.65900	-49
1.66267	-53
1.66633	-58
1.67000	-62
1.67367	-67
1.67733	-73
1.68100	-78
1.68467	-84
1.68833	-89
1.69200	-93
1.69567	-97
1.69933	-100
1.70300	-103
1.70667	-105
1.71033	-107
1.71400	-108
1.71767	-109
1.72133	-110
1.72500	-111
1.72867	-111
1.73233	-111
1.73600	-111
1.73967	-111
1.74333	-110
1.74700	-109
1.75067	-109
1.75433	-109
1.75800	-110
1.76167	-111
1.76533	-112
1.76900	-114
1.77267	-115
1.77633	-116
1.78000	-117
1.78367	-118
1.78733	-119
1.79100	-120
1.79467	-120
1.79833	-121
1.80200	-120
1.80567	-119
1.80933	-118
1.81300	-118
1.81667	-117
1.82033	-117
1.82400	-118
1.82767	-118
1.83133	-118
1.83500	-118
1.83867	-118
1.84233	-118
1.84600	-118
1.84967	-118
1.85333	-118
1.85700	-118
1.86067	-118
1.86433	-118
1.86800	-118
1.87167	-118
1.87533	-118
1.87900	-118
1.88267	-118
1.88633	-119
1.89000	-119
1.89367	-119
1.89733	-118
1.90100	-118
1.90467	-118
1.90833	-118
1.91200	-118
1.91567	-118
1.91933	-118
1.92300	-117
1.92667	-117
1.93033	-117
1.93400	-117
1.93767	-116
1.94133	-116
1.94500	-115
1.94867	-115
1.95233	-115
1.95600	-115
1.95967	-114
1.96333	-113
1.96700	-113
1.97067	-112
1.97433	-112
1.97800	-112
1.98167	-112
1.98533	-112
1.98900	-112
1.99267	-112
1.99633	-112
2.00000	-113
2.00367	-112
2.00733	-112
2.01100	-111
2.01467	-110
2.01833	-109
2.02200	-109
2.02567	-108
2.02933	-107
2.03300	-107
2.03667	-106
2.04033	-106
2.04400	-106
2.04767	-106
2.05133	-106
2.05500	-106
2.05867	-106
2.06233	-106
2.06600	-106
2.06967	-106
2.07333	-106
2.07700	-105
2.08067	-105
2.08433	-104
2.08800	-103
2.09167	-102
2.09533	-101
2.09900	-101
2.10267	-101
2.10633	-101
2.11000	-102
2.11367	-101
2.11733	-101
2.12100	-100
2.12467	-100
2.12833	-99
2.13200	-98
2.13567	-98
2.13933	-98
2.14300	-98
2.14667	-98
2.15033	-98
2.15400	-98
2.15767	-98
2.16133	-97
2.16500	-97
2.16867	-96
2.17233	-96
2.17600	-95
2.17967	-95
2.18333	-96
2.18700	-96
2.19067	-95
2.19433	-94
2.19800	-93
2.20167	-93
2.20533	-92
2.20900	-92
2.21267	-92
2.21633	-92
2.22000	-93
2.22367	-93
2.22733	-93
2.23100	-93
2.23467	-93
2.23833	-93
2.24200	-93
2.24567	-92
2.24933	-91
2.25300	-90
2.25667	-89
2.26033	-88
2.26400	-88
2.26767	-87
2.27133	-86
2.27500	-85
2.27867	-84
2.28233	-84
2.28600	-84
2.28967	-84
2.29333	-84
2.29700	-84
2.30067	-84
2.30433	-85
2.30800	-86
2.31167	-87
2.31533	-87
2.31900	-87
2.32267	-87
2.32633	-87
2.33000	-86
2.33367	-85
2.33733	-84
2.34100	-83
2.34467	-82
2.34833	-81
2.35200	-80
2.35567	-78
2.35933	-76
2.36300	-74
2.36667	-71
2.37033	-68
2.37400	-64
2.37767	-60
2.38133	-56
2.38500	-52
2.38867	-48
2.39233	-44
2.39600	-39
2.39967	-35
2.40333	-32
2.40700	-29
2.41067	-26
2.41433	-25
2.41800	-24
2.42167	-23
2.42533	-22
2.42900	-20
2.43267	-19
2.43633	-18
2.44000	-16
2.44367	-14
2.44733	-12
2.45100	-11
2.45467	-10
2.45833	-8
2.46200	-6
2.46567	-5
2.46933	-3
2.47300	-2
2.47667	-0
2.48033	1
2.48400	1
2.48767	1
2.49133	2
2.49500	2
2.49867	3
2.50233	4
2.50600	5
2.50967	6
2.51333	7
2.51700	8
2.52067	9
2.52433	9
2.52800	9
2.53167	9
2.53533	9
2.53900	10
2.54267	10
2.54633	11
2.55000	12
2.55367	13
2.55733	13
2.56100	14
2.56467	14
2.56833	14
2.57200	14
2.57567	14
2.57933	14
2.58300	14
2.58667	14
2.59033	15
2.59400	15
2.59767	15
2.60133	15
2.60500	15
2.60867	15
2.61233	15
2.61600	15
2.61967	15
2.62333	15
2.62700	15
2.63067	15
2.63433	16
2.63800	16
2.64167	16
2.64533	16
2.64900	16
2.65267	16
2.65633	16
2.66000	16
2.66367	16
2.66733	17
2.67100	17
2.67467	18
2.67833	18
2.68200	18
2.68567	19
2.68933	19
2.69300	20
2.69667	20
2.70033	20
2.70400	20
2.70767	20
2.71133	21
2.71500	21
2.71867	21
2.72233	21
2.72600	21
2.72967	21
2.73333	22
2.73700	22
2.74067	23
2.74433	23
2.74800	24
2.75167	25
2.75533	25
2.75900	26
2.76267	26
2.76633	26
2.77000	26
2.77367	26
2.77733	26
2.78100	25
2.78467	25
2.78833	24
2.79200	23
2.79567	22
2.79933	22
2.80300	22
2.80667	22
2.81033	22
2.81400	22
2.81767	22
2.82133	23
2.82500	23
2.82867	24
2.83233	24
2.83600	23
2.83967	22
2.84333	19
2.84700	14
2.85067	6
2.85433	-5
2.85800	-19
2.86167	-37
2.86533	-60
2.86900	-86
2.87267	-117
2.87633	-152
2.88000	-190
2.88367	-232
2.88733	-277
2.89100	-324
2.89467	-374
2.89833	-425
2.90200	-477
2.90567	-530
2.90933	-584
2.91300	-637
2.91667	-690
2.92033	-743
2.92400	-794
2.92767	-845
2.93133	-897
2.93500	-955
2.93867	-1014
2.94233	-1066
2.94600	-1101
2.94967	-1110
2.95333	-1093
2.95700	-1052
2.96067	-993
2.96433	-922
2.96800	-844
2.97167	-763
2.97533	-683
2.97900	-606
2.98267	-533
2.98633	-466
2.99000	-406
2.99367	-351
2.99733	-303
3.00100	-260
3.00467	-222
3.00833	-190
3.01200	-161
3.01567	-137
3.01933	-115
3.02300	-97
3.02667	-81
3.03033	-68
3.03400	-57
3.03767	-47
3.04133	-39
3.04500	-31
3.04867	-25
3.05233	-20
3.05600	-15
3.05967	-11
3.06333	-7
3.06700	-4
3.07067	-2
3.07433	1
3.07800	3
3.08167	4
3.08533	6
3.08900	7
3.09267	8
3.09633	9
3.10000	10
3.10367	10
3.10733	11
3.11100	12
3.11467	13
3.11833	13
3.12200	14
3.12567	14
3.12933	15
3.13300	15
3.13667	16
3.14033	17
3.14400	17
3.14767	18
3.15133	19
3.15500	19
3.15867	19
3.16233	20
3.16600	20
3.16967	20
3.17333	20
3.17700	20
3.18067	20
3.18433	20
3.18800	20
3.19167	21
3.19533	21
3.19900	21
3.20267	21
3.20633	21
3.21000	21
3.21367	21
3.21733	21
3.22100	21
3.22467	21
3.22833	21
3.23200	21
3.23567	22
3.23933	22
3.24300	22
3.24667	22
3.25033	22
3.25400	23
3.25767	23
3.26133	23
3.26500	23
3.26867	23
3.27233	23
3.27600	23
3.27967	24
3.28333	24
3.28700	24
3.29067	24
3.29433	24
3.29800	25
3.30167	25
3.30533	25
3.30900	26
3.31267	26
3.31633	26
3.32000	26
3.32367	27
3.32733	27
3.33100	27
3.33467	27
3.33833	27
3.34200	27
3.34567	27
3.34933	27
3.35300	27
3.35667	27
3.36033	27
3.36400	27
3.36767	27
3.37133	27
3.37500	27
3.37867	27
3.38233	27
3.38600	27
3.38967	27
3.39333	27
3.39700	27
3.40067	27
3.40433	26
3.40800	26
3.41167	26
3.41533	25
3.41900	25
3.42267	24
3.42633	24
3.43000	23
3.43367	23
3.43733	23
3.44100	23
3.44467	23
3.44833	24
3.45200	24
3.45567	25
3.45933	25
3.46300	25
3.46667	25
3.47033	26
3.47400	26
3.47767	26
3.48133	26
3.48500	26
3.48867	26
3.49233	26
3.49600	26
3.49967	26
3.50333	27
3.50700	27
3.51067	26
3.51433	26
3.51800	26
3.52167	25
3.52533	25
3.52900	25
3.53267	25
3.53633	25
3.54000	25
3.54367	25
3.54733	25
3.55100	25
3.55467	25
3.55833	25
3.56200	25
3.56567	25
3.56933	25
3.57300	25
3.57667	26
3.58033	26
3.58400	26
3.58767	26
3.59133	27
3.59500	27
3.59867	27
3.60233	27
3.60600	28
3.60967	28
3.61333	28
3.61700	28
3.62067	27
3.62433	27
3.62800	27
3.63167	27
3.63533	26
3.63900	26
3.64267	25
3.64633	25
3.65000	25
3.65367	25
3.65733	25
3.66100	25
3.66467	25
3.66833	25
3.67200	25
3.67567	25
3.67933	25
3.68300	25
3.68667	25
3.69033	25
3.69400	26
3.69767	26
3.70133	26
3.70500	26
3.70867	26
3.71233	26
3.71600	26
3.71967	26
3.72333	26
3.72700	26
3.73067	26
3.73433	26
3.73800	26
3.74167	26
3.74533	26
3.74900	26
3.75267	26
3.75633	26
3.76000	26
3.76367	26
3.76733	26
3.77100	26
3.77467	26
3.77833	27
3.78200	27
3.78567	27
3.78933	27
3.79300	27
3.79667	27
3.80033	27
3.80400	28
3.80767	28
3.81133	28
3.81500	28
3.81867	28
3.82233	28
3.82600	28
3.82967	27
3.83333	27
3.83700	27
3.84067	27
3.84433	26
3.84800	26
3.85167	26
3.85533	26
3.85900	27
3.86267	27
3.86633	27
3.87000	27
3.87367	27
3.87733	27
3.88100	27
3.88467	27
3.88833	27
3.89200	27
3.89567	26
3.89933	26
3.90300	26
3.90667	26
3.91033	26
3.91400	25
3.91767	25
3.92133	25
3.92500	25
3.92867	25
3.93233	25
3.93600	25
3.93967	25
3.94333	25
3.94700	25
3.95067	25
3.95433	25
3.95800	25
3.96167	26
3.96533	26
3.96900	26
3.97267	26
3.97633	26
3.98000	27
3.98367	27
3.98733	27
3.99100	27
3.99467	27
3.99833	28

[Chromatogram (Ch3)]
Interval(msec)	220
# of Points	1091
Start Time(min)	0.002
End Time(min)	3.998
R.Time (min)	Intensity
0.00167	-1
0.00533	-4
0.00900	-5
0.01267	-4
0.01633	-2
0.02000	-3
0.02367	-5
0.02733	-6
0.03100	-4
0.03467	-2
0.03833	-2
0.04200	0
0.04567	-0
0.04933	-1
0.05300	-1
0.05667	1
0.06033	3
0.06400	2
0.06767	3
0.07133	4
0.07500	5
0.07867	4
0.08233	2
0.08600	1
0.08967	2
0.09333	2
0.09700	1
0.10067	3
0.10433	1
0.10800	-0
0.11167	-1
0.11533	-2
0.11900	-4
0.12267	-5
0.12633	-4
0.13000	-2
0.13367	-2
0.13733	-0
0.14100	1
0.14467	3
0.14833	2
0.15200	1
0.15567	0
0.15933	-1
0.16300	-1
0.16667	-0
0.17033	-1
0.17400	-2
0.17767	-2
0.18133	-2
0.18500	-1
0.18867	1
0.19233	1
0.19600	-1
0.19967	-2
0.20333	0
0.20700	3
0.21067	2
0.21433	2
0.21800	2
0.22167	3
0.22533	4
0.22900	3
0.23267	2
0.23633	2
0.24000	1
0.24367	1
0.24733	-0
0.25100	-1
0.25467	-1
0.25833	-1
0.26200	-3
0.26567	-4
0.26933	-4
0.27300	-4
0.27667	-2
0.28033	0
0.28400	2
0.28767	2
0.29133	2
0.29500	3
0.29867	4
0.30233	7
0.30600	10
0.30967	12
0.31333	13
0.31700	13
0.32067	11
0.32433	9
0.32800	7
0.33167	6
0.33533	7
0.33900	8
0.34267	6
0.34633	4
0.35000	3
0.35367	3
0.35733	3
0.36100	4
0.36467	4
0.36833	3
0.37200	4
0.37567	7
0.37933	7
0.38300	6
0.38667	7
0.39033	9
0.39400	11
0.39767	10
0.40133	9
0.40500	10
0.40867	11
0.41233	11
0.41600	12
0.41967	11
0.42333	12
0.42700	12
0.43067	10
0.43433	8
0.43800	8
0.44167	9
0.44533	9
0.44900	9
0.45267	11
0.45633	11
0.46000	12
0.46367	11
0.46733	10
0.47100	12
0.47467	12
0.47833	12
0.48200	11
0.48567	12
0.48933	13
0.49300	12
0.49667	10
0.50033	8
0.50400	6
0.50767	5
0.51133	3
0.51500	3
0.51867	4
0.52233	4
0.52600	4
0.52967	5
0.53333	9
0.53700	12
0.54067	12
0.54433	10
0.54800	9
0.55167	10
0.55533	10
0.55900	10
0.56267	10
0.56633	11
0.57000	11
0.57367	12
0.57733	12
0.58100	10
0.58467	10
0.58833	11
0.59200	10
0.59567	12
0.59933	14
0.60300	14
0.60667	12
0.61033	12
0.61400	14
0.61767	16
0.62133	17
0.62500	15
0.62867	14
0.63233	13
0.63600	12
0.63967	12
0.64333	12
0.64700	12
0.65067	14
0.65433	14
0.65800	14
0.66167	14
0.66533	13
0.66900	15
0.67267	15
0.67633	17
0.68000	21
0.68367	23
0.68733	23
0.69100	23
0.69467	23
0.69833	22
0.70200	23
0.70567	26
0.70933	27
0.71300	26
0.71667	24
0.72033	23
0.72400	23
0.72767	24
0.73133	23
0.73500	22
0.73867	21
0.74233	21
0.74600	20
0.74967	20
0.75333	19
0.75700	21
0.76067	23
0.76433	22
0.76800	21
0.77167	22
0.77533	24
0.77900	24
0.78267	25
0.78633	25
0.79000	25
0.79367	26
0.79733	27
0.80100	26
0.80467	26
0.80833	25
0.81200	24
0.81567	24
0.81933	25
0.82300	25
0.82667	25
0.83033	23
0.83400	22
0.83767	24
0.84133	25
0.84500	27
0.84867	26
0.85233	24
0.85600	22
0.85967	23
0.86333	24
0.86700	27
0.87067	27
0.87433	27
0.87800	27
0.88167	26
0.88533	26
0.88900	27
0.89267	29
0.89633	30
0.90000	29
0.90367	28
0.90733	27
0.91100	25
0.91467	27
0.91833	28
0.92200	30
0.92567	31
0.92933	30
0.93300	30
0.93667	31
0.94033	33
0.94400	34
0.94767	33
0.95133	33
0.95500	32
0.95867	33
0.96233	33
0.96600	33
0.96967	32
0.97333	34
0.97700	36
0.98067	36
0.98433	35
0.98800	34
0.99167	33
0.99533	33
0.99900	34
1.00267	35
1.00633	35
1.01000	33
1.01367	31
1.01733	29
1.02100	29
1.02467	28
1.02833	28
1.03200	29
1.03567	31
1.03933	33
1.04300	33
1.04667	34
1.05033	35
1.05400	33
1.05767	32
1.06133	33
1.06500	32
1.06867	32
1.07233	33
1.07600	33
1.07967	33
1.08333	32
1.08700	29
1.09067	29
1.09433	28
1.09800	29
1.10167	32
1.10533	32
1.10900	32
1.11267	32
1.11633	31
1.12000	27
1.12367	24
1.12733	25
1.13100	27
1.13467	29
1.13833	31
1.14200	32
1.14567	34
1.14933	33
1.15300	32
1.15667	32
1.16033	33
1.16400	33
1.16767	33
1.17133	33
1.17500	33
1.17867	31
1.18233	28
1.18600	29
1.18967	32
1.19333	32
1.19700	33
1.20067	33
1.20433	32
1.20800	32
1.21167	31
1.21533	33
1.21900	34
1.22267	34
1.22633	33
1.23000	33
1.23367	33
1.23733	33
1.24100	35
1.24467	36
1.24833	37
1.25200	37
1.25567	35
1.25933	33
1.26300	33
1.26667	34
1.27033	34
1.27400	34
1.27767	32
1.28133	32
1.28500	35
1.28867	37
1.29233	38
1.29600	39
1.29967	39
1.30333	40
1.30700	38
1.31067	36
1.31433	36
1.31800	37
1.32167	40
1.32533	42
1.32900	41
1.33267	42
1.33633	41
1.34000	41
1.34367	41
1.34733	41
1.35100	42
1.35467	43
1.35833	44
1.36200	43
1.36567	43
1.36933	43
1.37300	43
1.37667	42
1.38033	42
1.38400	43
1.38767	44
1.39133	44
1.39500	44
1.39867	42
1.40233	40
1.40600	38
1.40967	40
1.41333	43
1.41700	46
1.42067	46
1.42433	45
1.42800	42
1.43167	40
1.43533	39
1.43900	37
1.44267	35
1.44633	37
1.45000	39
1.45367	38
1.45733	39
1.46100	41
1.46467	40
1.46833	40
1.47200	40
1.47567	40
1.47933	43
1.48300	44
1.48667	43
1.49033	44
1.49400	44
1.49767	44
1.50133	44
1.50500	46
1.50867	46
1.51233	44
1.51600	44
1.51967	44
1.52333	43
1.52700	43
1.53067	43
1.53433	44
1.53800	45
1.54167	45
1.54533	46
1.54900	45
1.55267	45
1.55633	45
1.56000	45
1.56367	46
1.56733	46
1.57100	43
1.57467	42
1.57833	45
1.58200	46
1.58567	47
1.58933	47
1.59300	48
1.59667	48
1.60033	47
1.60400	43
1.60767	42
1.61133	41
1.61500	41
1.61867	41
1.62233	43
1.62600	45
1.62967	45
1.63333	44
1.63700	43
1.64067	44
1.64433	45
1.64800	47
1.65167	48
1.65533	48
1.65900	49
1.66267	48
1.66633	50
1.67000	51
1.67367	51
1.67733	51
1.68100	52
1.68467	54
1.68833	53
1.69200	52
1.69567	53
1.69933	53
1.70300	51
1.70667	50
1.71033	48
1.71400	48
1.71767	48
1.72133	49
1.72500	51
1.72867	54
1.73233	55
1.73600	54
1.73967	53
1.74333	51
1.74700	53
1.75067	54
1.75433	56
1.75800	58
1.76167	59
1.76533	60
1.76900	60
1.77267	59
1.77633	55
1.78000	53
1.78367	54
1.78733	57
1.79100	59
1.79467	61
1.79833	65
1.80200	65
1.80567	64
1.80933	64
1.81300	64
1.81667	64
1.82033	63
1.82400	63
1.82767	63
1.83133	63
1.83500	61
1.83867	61
1.84233	62
1.84600	64
1.84967	68
1.85333	68
1.85700	66
1.86067	65
1.86433	65
1.86800	67
1.87167	66
1.87533	65
1.87900	65
1.88267	65
1.88633	64
1.89000	65
1.89367	66
1.89733	66
1.90100	65
1.90467	66
1.90833	66
1.91200	67
1.91567	70
1.91933	73
1.92300	73
1.92667	73
1.93033	75
1.93400	77
1.93767	77
1.94133	78
1.94500	80
1.94867	82
1.95233	84
1.95600	82
1.95967	80
1.96333	79
1.96700	76
1.97067	76
1.97433	80
1.97800	83
1.98167	85
1.98533	86
1.98900	87
1.99267	86
1.99633	85
2.00000	86
2.00367	87
2.00733	85
2.01100	85
2.01467	85
2.01833	83
2.02200	83
2.02567	85
2.02933	87
2.03300	89
2.03667	90
2.04033	92
2.04400	95
2.04767	96
2.05133	96
2.05500	93
2.05867	94
2.06233	95
2.06600	97
2.06967	98
2.07333	99
2.07700	100
2.08067	103
2.08433	104
2.08800	104
2.09167	105
2.09533	109
2.09900	110
2.10267	111
2.10633	110
2.11000	110
2.11367	109
2.11733	108
2.12100	109
2.12467	111
2.12833	113
2.13200	113
2.13567	112
2.13933	113
2.14300	115
2.14667	117
2.15033	118
2.15400	118
2.15767	116
2.16133	114
2.16500	114
2.16867	117
2.17233	121
2.17600	123
2.17967	123
2.18333	124
2.18700	126
2.19067	128
2.19433	131
2.19800	134
2.20167	136
2.20533	136
2.20900	135
2.21267	137
2.21633	136
2.22000	136
2.22367	138
2.22733	138
2.23100	139
2.23467	140
2.23833	142
2.24200	144
2.24567	144
2.24933	144
2.25300	146
2.25667	146
2.26033	146
2.26400	148
2.26767	150
2.27133	150
2.27500	150
2.27867	151
2.28233	155
2.28600	158
2.28967	158
2.29333	158
2.29700	158
2.30067	157
2.30433	159
2.30800	162
2.31167	163
2.31533	164
2.31900	166
2.32267	166
2.32633	167
2.33000	170
2.33367	173
2.33733	174
2.34100	176
2.34467	179
2.34833	183
2.35200	185
2.35567	185
2.35933	185
2.36300	186
2.36667	186
2.37033	187
2.37400	189
2.37767	190
2.38133	191
2.38500	191
2.38867	190
2.39233	191
2.39600	194
2.39967	198
2.40333	203
2.40700	207
2.41067	211
2.41433	214
2.41800	215
2.42167	218
2.42533	222
2.42900	223
2.43267	224
2.43633	224
2.44000	225
2.44367	251
2.44733	326
2.45100	414
2.45467	484
2.45833	532
2.46200	545
2.46567	532
2.46933	510
2.47300	491
2.47667	477
2.48033	469
2.48400	463
2.48767	453
2.49133	436
2.49500	414
2.49867	389
2.50233	370
2.50600	355
2.50967	346
2.51333	341
2.51700	336
2.52067	333
2.52433	336
2.52800	340
2.53167	347
2.53533	357
2.53900	367
2.54267	374
2.54633	375
2.55000	372
2.55367	367
2.55733	360
2.56100	351
2.56467	340
2.56833	328
2.57200	320
2.57567	313
2.57933	305
2.58300	301
2.58667	298
2.59033	296
2.59400	293
2.59767	287
2.60133	277
2.60500	265
2.60867	252
2.61233	234
2.61600	214
2.61967	194
2.62333	176
2.62700	160
2.63067	148
2.63433	141
2.63800	136
2.64167	135
2.64533	138
2.64900	144
2.65267	154
2.65633	164
2.66000	175
2.66367	187
2.66733	199
2.67100	208
2.67467	215
2.67833	223
2.68200	231
2.68567	238
2.68933	244
2.69300	249
2.69667	252
2.70033	254
2.70400	256
2.70767	257
2.71133	257
2.71500	257
2.71867	257
2.72233	255
2.72600	253
2.72967	251
2.73333	249
2.73700	248
2.74067	246
2.74433	244
2.74800	247
2.75167	251
2.75533	255
2.75900	255
2.76267	253
2.76633	252
2.77000	252
2.77367	253
2.77733	254
2.78100	254
2.78467	255
2.78833	254
2.79200	252
2.79567	254
2.79933	255
2.80300	252
2.80667	252
2.81033	256
2.81400	261
2.81767	269
2.82133	287
2.82500	329
2.82867	410
2.83233	550
2.83600	775
2.83967	1099
2.84333	1527
2.84700	2048
2.85067	2631
2.85433	3234
2.85800	3809
2.86167	4309
2.86533	4692
2.86900	4940
2.87267	5042
2.87633	5005
2.88000	4853
2.88367	4609
2.88733	4304
2.89100	3967
2.89467	3619
2.89833	3272
2.90200	2939
2.90567	2628
2.90933	2341
2.91300	2079
2.91667	1846
2.92033	1640
2.92400	1458
2.92767	1299
2.93133	1157
2.93500	1035
2.93867	932
2.94233	842
2.94600	763
2.94967	697
2.95333	641
2.95700	590
2.96067	547
2.96433	510
2.96800	477
2.97167	449
2.97533	429
2.97900	408
2.98267	389
2.98633	376
2.99000	366
2.99367	355
2.99733	344
3.00100	336
3.00467	329
3.00833	321
3.01200	314
3.01567	309
3.01933	306
3.02300	305
3.02667	304
3.03033	301
3.03400	296
3.03767	291
3.04133	287
3.04500	285
3.04867	284
3.05233	280
3.05600	276
3.05967	273
3.06333	270
3.06700	268
3.07067	265
3.07433	263
3.07800	263
3.08167	265
3.08533	265
3.08900	263
3.09267	262
3.09633	262
3.10000	259
3.10367	256
3.10733	255
3.11100	253
3.11467	253
3.11833	253
3.12200	252
3.12567	249
3.12933	249
3.13300	249
3.13667	249
3.14033	247
3.14400	244
3.14767	244
3.15133	244
3.15500	244
3.15867	243
3.16233	241
3.16600	240
3.16967	238
3.17333	237
3.17700	237
3.18067	237
3.18433	238
3.18800	240
3.19167	241
3.19533	242
3.19900	242
3.20267	241
3.20633	241
3.21000	240
3.21367	240
3.21733	242
3.22100	242
3.22467	242
3.22833	244
3.23200	241
3.23567	226
3.23933	194
3.24300	165
3.24667	154
3.25033	162
3.25400	187
3.25767	220
3.26133	258
3.26500	298
3.26867	339
3.27233	377
3.27600	415
3.27967	454
3.28333	491
3.28700	522
3.29067	551
3.29433	575
3.29800	592
3.30167	605
3.30533	615
3.30900	620
3.31267	623
3.31633	626
3.32000	631
3.32367	636
3.32733	640
3.33100	646
3.33467	655
3.33833	666
3.34200	679
3.34567	694
3.34933	708
3.35300	718
3.35667	724
3.36033	729
3.36400	736
3.36767	741
3.37133	742
3.37500	745
3.37867	751
3.38233	759
3.38600	761
3.38967	762
3.39333	762
3.39700	761
3.40067	759
3.40433	757
3.40800	755
3.41167	754
3.41533	753
3.41900	751
3.42267	749
3.42633	746
3.43000	744
3.43367	743
3.43733	740
3.44100	737
3.44467	736
3.44833	735
3.45200	731
3.45567	725
3.45933	719
3.46300	713
3.46667	709
3.47033	707
3.47400	705
3.47767	702
3.48133	698
3.48500	694
3.48867	692
3.49233	689
3.49600	686
3.49967	683
3.50333	681
3.50700	676
3.51067	672
3.51433	673
3.51800	673
3.52167	669
3.52533	669
3.52900	670
3.53267	668
3.53633	666
3.54000	667
3.54367	668
3.54733	668
3.55100	668
3.55467	668
3.55833	664
3.56200	662
3.56567	662
3.56933	662
3.57300	660
3.57667	656
3.58033	652
3.58400	649
3.58767	647
3.59133	643
3.59500	640
3.59867	639
3.60233	637
3.60600	634
3.60967	633
3.61333	631
3.61700	629
3.62067	626
3.62433	623
3.62800	619
3.63167	617
3.63533	617
3.63900	616
3.64267	615
3.64633	612
3.65000	611
3.65367	610
3.65733	607
3.66100	604
3.66467	601
3.66833	597
3.67200	594
3.67567	591
3.67933	589
3.68300	587
3.68667	586
3.69033	585
3.69400	584
3.69767	583
3.70133	582
3.70500	582
3.70867	581
3.71233	580
3.71600	578
3.71967	576
3.72333	574
3.72700	570
3.73067	567
3.73433	564
3.73800	562
3.74167	562
3.74533	563
3.74900	564
3.75267	562
3.75633	558
3.76000	557
3.76367	554
3.76733	551
3.77100	549
3.77467	549
3.77833	549
3.78200	551
3.78567	553
3.78933	554
3.79300	555
3.79667	554
3.80033	552
3.80400	550
3.80767	547
3.81133	543
3.81500	540
3.81867	539
3.82233	538
3.82600	540
3.82967	543
3.83333	545
3.83700	542
3.84067	540
3.84433	538
3.84800	536
3.85167	532
3.85533	530
3.85900	530
3.86267	531
3.86633	531
3.87000	532
3.87367	530
3.87733	527
3.88100	525
3.88467	525
3.88833	526
3.89200	528
3.89567	528
3.89933	527
3.90300	525
3.90667	524
3.91033	525
3.91400	523
3.91767	521
3.92133	520
3.92500	520
3.92867	521
3.93233	521
3.93600	522
3.93967	524
3.94333	525
3.94700	525
3.95067	521
3.95433	518
3.95800	517
3.96167	518
3.96533	517
3.96900	519
3.97267	520
3.97633	516
3.98000	511
3.98367	511
3.98733	511
3.99100	510
3.99467	509
3.99833	505

[Status Trace (Column Oven Temperature)]
Interval(msec)	1000
# of Points	240
Start Time(min)	0.004
End Time(min)	3.987
Intensity Units	
Intensity Multiplier	1
R.Time (min)	Intensity
0.00402	35.05
0.02068	35.05
0.03735	35.04
0.05402	35.03
0.07068	35.03
0.08735	35.03
0.10402	35.03
0.12068	35.02
0.13735	35.03
0.15402	35.03
0.17068	35.03
0.18735	35.03
0.20402	35.03
0.22068	35.03
0.23735	35.04
0.25402	35.04
0.27068	35.04
0.28735	35.04
0.30402	35.03
0.32068	35.02
0.33735	35.02
0.35402	35.02
0.37068	35.01
0.38735	35.01
0.40402	35.02
0.42068	35.02
0.43735	35.02
0.45402	35.01
0.47068	35.00
0.48735	35.01
0.50402	35.02
0.52068	35.02
0.53735	35.01
0.55402	34.99
0.57068	34.98
0.58735	34.97
0.60402	34.96
0.62068	34.98
0.63735	34.99
0.65402	35.00
0.67068	35.01
0.68735	35.02
0.70402	35.03
0.72068	35.03
0.73735	35.01
0.75402	34.99
0.77068	34.99
0.78735	35.00
0.80402	35.00
0.82068	35.00
0.83735	35.00
0.85402	35.01
0.87068	35.02
0.88735	35.03
0.90402	35.03
0.92068	35.01
0.93735	34.99
0.95402	34.98
0.97068	34.97
0.98735	34.96
1.00402	34.96
1.02068	34.97
1.03735	34.99
1.05402	35.00
1.07068	35.00
1.08735	35.00
1.10402	35.00
1.12068	34.99
1.13735	34.99
1.15402	34.99
1.17068	34.98
1.18735	34.97
1.20402	34.98
1.22068	34.99
1.23735	34.99
1.25402	34.97
1.27068	34.97
1.28735	34.97
1.30402	35.00
1.32068	35.01
1.33735	35.03
1.35402	35.03
1.37068	35.02
1.38735	35.00
1.40402	34.99
1.42068	34.99
1.43735	34.98
1.45402	34.97
1.47068	34.97
1.48735	34.97
1.50402	34.97
1.52068	34.98
1.53735	35.01
1.55402	35.01
1.57068	35.01
1.58735	35.02
1.60402	35.07
1.62068	35.17
1.63735	35.33
1.65402	35.56
1.67068	35.88
1.68735	36.25
1.70402	36.62
1.72068	36.96
1.73735	37.26
1.75402	37.58
1.77068	37.94
1.78735	38.28
1.80402	38.59
1.82068	38.93
1.83735	39.25
1.85402	39.58
1.87068	39.92
1.88735	40.24
1.90402	40.58
1.92068	40.91
1.93735	41.25
1.95402	41.57
1.97068	41.89
1.98735	42.23
2.00402	42.56
2.02068	42.87
2.03735	43.18
2.05402	43.52
2.07068	43.86
2.08735	44.17
2.10402	44.51
2.12068	44.82
2.13735	45.15
2.15402	45.47
2.17068	45.79
2.18735	46.11
2.20402	46.43
2.22068	46.77
2.23735	47.11
2.25402	47.43
2.27068	47.74
2.28735	48.07
2.30402	48.45
2.32068	48.78
2.33735	49.09
2.35402	49.38
2.37068	49.54
2.38735	49.58
2.40402	49.58
2.42068	49.62
2.43735	49.62
2.45402	49.64
2.47068	49.63
2.48735	49.68
2.50402	49.68
2.52068	49.71
2.53735	49.72
2.55402	49.73
2.57068	49.75
2.58735	49.77
2.60402	49.78
2.62068	49.79
2.63735	49.79
2.65402	49.83
2.67068	49.84
2.68735	49.85
2.70402	49.86
2.72068	49.86
2.73735	49.86
2.75402	49.84
2.77068	49.86
2.78735	49.90
2.80402	49.91
2.82068	49.91
2.83735	49.91
2.85402	49.92
2.87068	49.92
2.88735	49.92
2.90402	49.93
2.92068	49.94
2.93735	49.94
2.95402	49.94
2.97068	49.96
2.98735	49.98
3.00402	50.00
3.02068	50.02
3.03735	50.04
3.05402	50.06
3.07068	50.06
3.08735	50.07
3.10402	50.09
3.12068	50.09
3.13735	50.09
3.15402	50.09
3.17068	50.09
3.18735	50.09
3.20402	50.10
3.22068	50.10
3.23735	50.09
3.25402	50.10
3.27068	50.10
3.28735	50.08
3.30402	50.07
3.32068	50.06
3.33735	50.05
3.35402	50.06
3.37068	50.05
3.38735	50.04
3.40402	50.05
3.42068	50.07
3.43735	50.07
3.45402	50.08
3.47068	50.08
3.48735	50.08
3.50402	50.08
3.52068	50.09
3.53735	50.10
3.55402	50.09
3.57068	50.09
3.58735	50.08
3.60402	50.07
3.62068	50.07
3.63735	50.08
3.65402	50.08
3.67068	50.08
3.68735	50.09
3.70402	50.09
3.72068	50.09
3.73735	50.09
3.75402	50.10
3.77068	50.10
3.78735	50.10
3.80402	50.08
3.82068	50.08
3.83735	50.08
3.85402	50.06
3.87068	50.06
3.88735	50.06
3.90402	50.07
3.92068	50.07
3.93735	50.07
3.95402	50.07
3.97068	50.06
3.98735	50.05

[Status Trace (Injection Unit Temperature)]
Interval(msec)	1000
# of Points	240
Start Time(min)	0.004
End Time(min)	3.987
Intensity Units	
Intensity Multiplier	1
R.Time (min)	Intensity
0.00402	99.98
0.02068	99.98
0.03735	99.97
0.05402	99.98
0.07068	99.98
0.08735	99.98
0.10402	99.98
0.12068	99.98
0.13735	99.98
0.15402	99.98
0.17068	99.98
0.18735	99.98
0.20402	99.98
0.22068	99.98
0.23735	99.98
0.25402	99.98
0.27068	99.98
0.28735	99.98
0.30402	99.99
0.32068	99.99
0.33735	99.99
0.35402	99.98
0.37068	99.98
0.38735	99.99
0.40402	99.99
0.42068	99.99
0.43735	99.99
0.45402	99.99
0.47068	99.99
0.48735	99.99
0.50402	99.98
0.52068	99.98
0.53735	99.99
0.55402	99.98
0.57068	99.99
0.58735	99.98
0.60402	99.99
0.62068	99.99
0.63735	99.98
0.65402	99.98
0.67068	99.98
0.68735	99.98
0.70402	99.99
0.72068	99.99
0.73735	99.98
0.75402	99.98
0.77068	99.99
0.78735	99.98
0.80402	99.98
0.82068	99.99
0.83735	99.98
0.85402	99.98
0.87068	99.98
0.88735	99.98
0.90402	99.98
0.92068	99.98
0.93735	99.98
0.95402	99.98
0.97068	99.98
0.98735	99.98
1.00402	99.98
1.02068	99.98
1.03735	99.98
1.05402	99.98
1.07068	99.98
1.08735	99.98
1.10402	99.98
1.12068	99.98
1.13735	99.98
1.15402	99.98
1.17068	99.98
1.18735	99.98
1.20402	99.98
1.22068	99.98
1.23735	99.98
1.25402	99.98
1.27068	99.98
1.28735	99.98
1.30402	99.98
1.32068	99.98
1.33735	99.98
1.35402	99.98
1.37068	99.98
1.38735	99.98
1.40402	99.98
1.42068	99.98
1.43735	99.98
1.45402	99.98
1.47068	99.98
1.48735	99.98
1.50402	99.98
1.52068	99.98
1.53735	99.98
1.55402	99.98
1.57068	99.98
1.58735	99.98
1.60402	99.98
1.62068	99.98
1.63735	99.98
1.65402	99.98
1.67068	99.99
1.68735	99.98
1.70402	99.98
1.72068	99.98
1.73735	99.98
1.75402	99.98
1.77068	99.98
1.78735	99.98
1.80402	99.98
1.82068	99.98
1.83735	99.98
1.85402	99.98
1.87068	99.98
1.88735	99.98
1.90402	99.98
1.92068	99.98
1.93735	99.98
1.95402	99.98
1.97068	99.98
1.98735	99.98
2.00402	99.97
2.02068	99.98
2.03735	99.98
2.05402	99.97
2.07068	99.97
2.08735	99.97
2.10402	99.97
2.12068	99.97
2.13735	99.97
2.15402	99.97
2.17068	99.97
2.18735	99.97
2.20402	99.97
2.22068	99.97
2.23735	99.97
2.25402	99.97
2.27068	99.97
2.28735	99.97
2.30402	99.97
2.32068	99.96
2.33735	99.96
2.35402	99.97
2.37068	99.97
2.38735	99.97
2.40402	99.97
2.42068	99.97
2.43735	99.97
2.45402	99.97
2.47068	99.97
2.48735	99.97
2.50402	99.97
2.52068	99.97
2.53735	99.97
2.55402	99.97
2.57068	99.97
2.58735	99.97
2.60402	99.97
2.62068	99.97
2.63735	99.97
2.65402	99.97
2.67068	99.98
2.68735	99.98
2.70402	99.98
2.72068	99.98
2.73735	99.98
2.75402	99.98
2.77068	99.99
2.78735	99.98
2.80402	99.98
2.82068	99.99
2.83735	99.99
2.85402	99.99
2.87068	99.99
2.88735	99.99
2.90402	99.99
2.92068	100.00
2.93735	100.00
2.95402	100.00
2.97068	100.00
2.98735	100.00
3.00402	99.99
3.02068	100.01
3.03735	100.00
3.05402	100.01
3.07068	100.01
3.08735	100.01
3.10402	100.01
3.12068	100.01
3.13735	100.01
3.15402	100.02
3.17068	100.02
3.18735	100.01
3.20402	100.01
3.22068	100.02
3.23735	100.02
3.25402	100.01
3.27068	100.02
3.28735	100.02
3.30402	100.02
3.32068	100.02
3.33735	100.02
3.35402	100.02
3.37068	100.03
3.38735	100.03
3.40402	100.02
3.42068	100.02
3.43735	100.03
3.45402	100.03
3.47068	100.03
3.48735	100.03
3.50402	100.03
3.52068	100.03
3.53735	100.03
3.55402	100.03
3.57068	100.03
3.58735	100.03
3.60402	100.03
3.62068	100.03
3.63735	100.04
3.65402	100.04
3.67068	100.04
3.68735	100.04
3.70402	100.04
3.72068	100.04
3.73735	100.04
3.75402	100.04
3.77068	100.04
3.78735	100.04
3.80402	100.04
3.82068	100.04
3.83735	100.04
3.85402	100.04
3.87068	100.05
3.88735	100.04
3.90402	100.05
3.92068	100.04
3.93735	100.04
3.95402	100.04
3.97068	100.05
3.98735	100.05

[Status Trace (Carrier Gas Pressure)]
Interval(msec)	1000
# of Points	240
Start Time(min)	0.004
End Time(min)	3.987
Intensity Units	
Intensity Multiplier	1
R.Time (min)	Intensity
0.00402	58.00
0.02068	56.04
0.03735	56.56
0.05402	58.81
0.07068	59.81
0.08735	58.21
0.10402	57.97
0.12068	58.01
0.13735	58.01
0.15402	58.01
0.17068	58.00
0.18735	58.00
0.20402	58.00
0.22068	58.00
0.23735	58.00
0.25402	58.00
0.27068	58.00
0.28735	58.00
0.30402	58.00
0.32068	58.00
0.33735	58.00
0.35402	58.00
0.37068	58.00
0.38735	58.00
0.40402	58.00
0.42068	58.00
0.43735	58.00
0.45402	58.00
0.47068	58.00
0.48735	58.00
0.50402	58.00
0.52068	58.00
0.53735	58.00
0.55402	58.00
0.57068	58.00
0.58735	58.00
0.60402	58.00
0.62068	58.00
0.63735	58.00
0.65402	58.00
0.67068	58.00
0.68735	58.00
0.70402	58.00
0.72068	58.00
0.73735	58.00
0.75402	58.00
0.77068	58.00
0.78735	58.00
0.80402	58.00
0.82068	58.00
0.83735	58.00
0.85402	58.00
0.87068	58.00
0.88735	58.00
0.90402	58.00
0.92068	58.00
0.93735	58.00
0.95402	58.00
0.97068	58.00
0.98735	58.00
1.00402	58.00
1.02068	58.00
1.03735	58.00
1.05402	58.00
1.07068	58.00
1.08735	58.00
1.10402	58.00
1.12068	58.00
1.13735	58.00
1.15402	58.00
1.17068	58.00
1.18735	58.00
1.20402	58.00
1.22068	58.00
1.23735	58.00
1.25402	58.00
1.27068	58.00
1.28735	58.00
1.30402	58.00
1.32068	58.00
1.33735	58.00
1.35402	58.00
1.37068	58.00
1.38735	58.00
1.40402	58.00
1.42068	58.00
1.43735	58.00
1.45402	58.00
1.47068	58.00
1.48735	58.00
1.50402	58.00
1.52068	58.00
1.53735	58.00
1.55402	58.00
1.57068	58.00
1.58735	58.00
1.60402	58.00
1.62068	58.00
1.63735	58.00
1.65402	58.00
1.67068	58.01
1.68735	58.01
1.70402	58.00
1.72068	58.00
1.73735	58.00
1.75402	58.00
1.77068	58.00
1.78735	58.00
1.80402	58.00
1.82068	58.00
1.83735	58.00
1.85402	58.00
1.87068	58.00
1.88735	58.00
1.90402	58.00
1.92068	58.00
1.93735	58.00
1.95402	58.00
1.97068	58.00
1.98735	58.00
2.00402	58.00
2.02068	58.00
2.03735	58.00
2.05402	58.00
2.07068	58.00
2.08735	58.00
2.10402	58.00
2.12068	58.00
2.13735	58.00
2.15402	58.00
2.17068	58.00
2.18735	58.00
2.20402	58.00
2.22068	58.00
2.23735	58.00
2.25402	58.00
2.27068	58.00
2.28735	58.00
2.30402	58.00
2.32068	58.00
2.33735	58.00
2.35402	58.00
2.37068	58.00
2.38735	57.99
2.40402	58.00
2.42068	58.00
2.43735	58.00
2.45402	58.00
2.47068	58.00
2.48735	58.00
2.50402	57.99
2.52068	58.00
2.53735	58.00
2.55402	58.00
2.57068	58.00
2.58735	58.00
2.60402	58.00
2.62068	58.00
2.63735	58.00
2.65402	58.00
2.67068	58.00
2.68735	58.00
2.70402	58.00
2.72068	58.00
2.73735	58.00
2.75402	58.00
2.77068	58.00
2.78735	58.00
2.80402	58.00
2.82068	58.00
2.83735	58.00
2.85402	58.00
2.87068	58.00
2.88735	58.00
2.90402	58.00
2.92068	58.00
2.93735	58.00
2.95402	58.00
2.97068	58.00
2.98735	58.00
3.00402	58.00
3.02068	58.00
3.03735	58.00
3.05402	58.00
3.07068	58.00
3.08735	58.00
3.10402	58.00
3.12068	58.00
3.13735	58.00
3.15402	58.00
3.17068	58.00
3.18735	58.00
3.20402	58.00
3.22068	58.00
3.23735	58.00
3.25402	58.00
3.27068	58.00
3.28735	58.00
3.30402	58.00
3.32068	58.00
3.33735	58.00
3.35402	58.00
3.37068	58.00
3.38735	58.00
3.40402	58.00
3.42068	58.00
3.43735	58.00
3.45402	58.00
3.47068	58.00
3.48735	58.00
3.50402	58.00
3.52068	58.00
3.53735	58.00
3.55402	58.00
3.57068	58.00
3.58735	58.00
3.60402	58.00
3.62068	58.00
3.63735	58.00
3.65402	58.00
3.67068	58.00
3.68735	58.00
3.70402	58.00
3.72068	58.00
3.73735	58.00
3.75402	58.00
3.77068	58.00
3.78735	58.00
3.80402	58.00
3.82068	58.00
3.83735	58.00
3.85402	58.00
3.87068	58.00
3.88735	58.00
3.90402	58.00
3.92068	58.00
3.93735	58.00
3.95402	58.00
3.97068	58.00
3.98735	58.00

[Status Trace (Carrier Gas Flow)]
Interval(msec)	1000
# of Points	240
Start Time(min)	0.004
End Time(min)	3.987
Intensity Units	
Intensity Multiplier	1
R.Time (min)	Intensity
0.00402	34.52
0.02068	34.58
0.03735	34.54
0.05402	34.55
0.07068	34.49
0.08735	34.51
0.10402	34.52
0.12068	34.52
0.13735	34.52
0.15402	34.52
0.17068	34.52
0.18735	34.52
0.20402	34.52
0.22068	34.52
0.23735	34.52
0.25402	34.52
0.27068	34.52
0.28735	34.52
0.30402	34.52
0.32068	34.52
0.33735	34.52
0.35402	34.52
0.37068	34.52
0.38735	34.52
0.40402	34.52
0.42068	34.52
0.43735	34.52
0.45402	34.52
0.47068	34.52
0.48735	34.52
0.50402	34.52
0.52068	34.52
0.53735	34.52
0.55402	34.52
0.57068	34.52
0.58735	34.52
0.60402	34.52
0.62068	34.52
0.63735	34.52
0.65402	34.52
0.67068	34.52
0.68735	34.52
0.70402	34.52
0.72068	34.52
0.73735	34.52
0.75402	34.52
0.77068	34.52
0.78735	34.52
0.80402	34.52
0.82068	34.52
0.83735	34.52
0.85402	34.52
0.87068	34.52
0.88735	34.52
0.90402	34.52
0.92068	34.52
0.93735	34.52
0.95402	34.52
0.97068	34.52
0.98735	34.52
1.00402	34.52
1.02068	34.52
1.03735	34.52
1.05402	34.52
1.07068	34.52
1.08735	34.52
1.10402	34.52
1.12068	34.52
1.13735	34.52
1.15402	34.52
1.17068	34.52
1.18735	34.52
1.20402	34.52
1.22068	34.52
1.23735	34.52
1.25402	34.52
1.27068	34.52
1.28735	34.51
1.30402	34.52
1.32068	34.52
1.33735	34.52
1.35402	34.51
1.37068	34.52
1.38735	34.52
1.40402	34.52
1.42068	34.52
1.43735	34.52
1.45402	34.52
1.47068	34.52
1.48735	34.52
1.50402	34.52
1.52068	34.52
1.53735	34.52
1.55402	34.52
1.57068	34.52
1.58735	34.52
1.60402	34.52
1.62068	34.52
1.63735	34.52
1.65402	34.52
1.67068	34.52
1.68735	34.52
1.70402	34.52
1.72068	34.51
1.73735	34.52
1.75402	34.52
1.77068	34.52
1.78735	34.52
1.80402	34.52
1.82068	34.52
1.83735	34.52
1.85402	34.52
1.87068	34.52
1.88735	34.52
1.90402	34.52
1.92068	34.52
1.93735	34.52
1.95402	34.52
1.97068	34.52
1.98735	34.52
2.00402	34.52
2.02068	34.52
2.03735	34.52
2.05402	34.52
2.07068	34.52
2.08735	34.52
2.10402	34.52
2.12068	34.52
2.13735	34.52
2.15402	34.52
2.17068	34.52
2.18735	34.52
2.20402	34.52
2.22068	34.51
2.23735	34.52
2.25402	34.52
2.27068	34.52
2.28735	34.52
2.30402	34.52
2.32068	34.52
2.33735	34.52
2.35402	34.52
2.37068	34.52
2.38735	34.54
2.40402	34.52
2.42068	34.51
2.43735	34.52
2.45402	34.52
2.47068	34.52
2.48735	34.52
2.50402	34.57
2.52068	34.52
2.53735	34.52
2.55402	34.52
2.57068	34.52
2.58735	34.52
2.60402	34.52
2.62068	34.52
2.63735	34.52
2.65402	34.52
2.67068	34.52
2.68735	34.52
2.70402	34.52
2.72068	34.52
2.73735	34.52
2.75402	34.52
2.77068	34.52
2.78735	34.52
2.80402	34.52
2.82068	34.52
2.83735	34.52
2.85402	34.52
2.87068	34.52
2.88735	34.52
2.90402	34.52
2.92068	34.52
2.93735	34.52
2.95402	34.52
2.97068	34.52
2.98735	34.52
3.00402	34.52
3.02068	34.52
3.03735	34.52
3.05402	34.52
3.07068	34.52
3.08735	34.52
3.10402	34.52
3.12068	34.52
3.13735	34.52
3.15402	34.52
3.17068	34.52
3.18735	34.52
3.20402	34.52
3.22068	34.52
3.23735	34.52
3.25402	34.52
3.27068	34.52
3.28735	34.52
3.30402	34.52
3.32068	34.52
3.33735	34.52
3.35402	34.52
3.37068	34.52
3.38735	34.52
3.40402	34.52
3.42068	34.52
3.43735	34.52
3.45402	34.52
3.47068	34.52
3.48735	34.52
3.50402	34.51
3.52068	34.52
3.53735	34.52
3.55402	34.52
3.57068	34.51
3.58735	34.52
3.60402	34.53
3.62068	34.51
3.63735	34.52
3.65402	34.51
3.67068	34.51
3.68735	34.52
3.70402	34.52
3.72068	34.52
3.73735	34.52
3.75402	34.52
3.77068	34.52
3.78735	34.52
3.80402	34.52
3.82068	34.52
3.83735	34.52
3.85402	34.52
3.87068	34.52
3.88735	34.52
3.90402	34.52
3.92068	34.52
3.93735	34.52
3.95402	34.52
3.97068	34.52
3.98735	34.52

[Status Trace (Column Flow)]
Interval(msec)	1000
# of Points	240
Start Time(min)	0.004
End Time(min)	3.987
Intensity Units	
Intensity Multiplier	1
R.Time (min)	Intensity
0.00402	5.57
0.02068	5.34
0.03735	5.40
0.05402	5.67
0.07068	5.79
0.08735	5.60
0.10402	5.57
0.12068	5.57
0.13735	5.57
0.15402	5.57
0.17068	5.57
0.18735	5.57
0.20402	5.57
0.22068	5.57
0.23735	5.57
0.25402	5.57
0.27068	5.57
0.28735	5.57
0.30402	5.57
0.32068	5.57
0.33735	5.57
0.35402	5.57
0.37068	5.57
0.38735	5.57
0.40402	5.57
0.42068	5.57
0.43735	5.57
0.45402	5.57
0.47068	5.57
0.48735	5.57
0.50402	5.57
0.52068	5.57
0.53735	5.57
0.55402	5.57
0.57068	5.57
0.58735	5.58
0.60402	5.58
0.62068	5.57
0.63735	5.57
0.65402	5.57
0.67068	5.57
0.68735	5.57
0.70402	5.57
0.72068	5.57
0.73735	5.57
0.75402	5.57
0.77068	5.57
0.78735	5.57
0.80402	5.57
0.82068	5.57
0.83735	5.57
0.85402	5.57
0.87068	5.57
0.88735	5.57
0.90402	5.57
0.92068	5.57
0.93735	5.57
0.95402	5.57
0.97068	5.57
0.98735	5.58
1.00402	5.58
1.02068	5.57
1.03735	5.57
1.05402	5.57
1.07068	5.57
1.08735	5.57
1.10402	5.57
1.12068	5.57
1.13735	5.57
1.15402	5.57
1.17068	5.57
1.18735	5.57
1.20402	5.57
1.22068	5.57
1.23735	5.57
1.25402	5.57
1.27068	5.57
1.28735	5.57
1.30402	5.57
1.32068	5.57
1.33735	5.57
1.35402	5.57
1.37068	5.57
1.38735	5.57
1.40402	5.57
1.42068	5.57
1.43735	5.57
1.45402	5.57
1.47068	5.57
1.48735	5.57
1.50402	5.57
1.52068	5.57
1.53735	5.57
1.55402	5.57
1.57068	5.57
1.58735	5.57
1.60402	5.57
1.62068	5.57
1.63735	5.56
1.65402	5.56
1.67068	5.55
1.68735	5.53
1.70402	5.52
1.72068	5.51
1.73735	5.50
1.75402	5.49
1.77068	5.48
1.78735	5.47
1.80402	5.46
1.82068	5.45
1.83735	5.44
1.85402	5.43
1.87068	5.42
1.88735	5.41
1.90402	5.40
1.92068	5.39
1.93735	5.38
1.95402	5.37
1.97068	5.36
1.98735	5.35
2.00402	5.34
2.02068	5.33
2.03735	5.32
2.05402	5.31
2.07068	5.30
2.08735	5.29
2.10402	5.28
2.12068	5.28
2.13735	5.26
2.15402	5.26
2.17068	5.25
2.18735	5.24
2.20402	5.23
2.22068	5.22
2.23735	5.21
2.25402	5.20
2.27068	5.19
2.28735	5.18
2.30402	5.17
2.32068	5.16
2.33735	5.15
2.35402	5.14
2.37068	5.14
2.38735	5.14
2.40402	5.14
2.42068	5.14
2.43735	5.14
2.45402	5.14
2.47068	5.14
2.48735	5.14
2.50402	5.13
2.52068	5.13
2.53735	5.13
2.55402	5.13
2.57068	5.13
2.58735	5.13
2.60402	5.13
2.62068	5.13
2.63735	5.13
2.65402	5.13
2.67068	5.13
2.68735	5.13
2.70402	5.13
2.72068	5.13
2.73735	5.13
2.75402	5.13
2.77068	5.13
2.78735	5.13
2.80402	5.13
2.82068	5.13
2.83735	5.13
2.85402	5.13
2.87068	5.13
2.88735	5.13
2.90402	5.13
2.92068	5.13
2.93735	5.13
2.95402	5.13
2.97068	5.13
2.98735	5.13
3.00402	5.13
3.02068	5.13
3.03735	5.13
3.05402	5.12
3.07068	5.12
3.08735	5.12
3.10402	5.12
3.12068	5.12
3.13735	5.12
3.15402	5.12
3.17068	5.12
3.18735	5.12
3.20402	5.12
3.22068	5.12
3.23735	5.12
3.25402	5.12
3.27068	5.12
3.28735	5.12
3.30402	5.12
3.32068	5.12
3.33735	5.12
3.35402	5.12
3.37068	5.13
3.38735	5.13
3.40402	5.13
3.42068	5.12
3.43735	5.12
3.45402	5.12
3.47068	5.12
3.48735	5.12
3.50402	5.12
3.52068	5.12
3.53735	5.12
3.55402	5.12
3.57068	5.12
3.58735	5.12
3.60402	5.12
3.62068	5.12
3.63735	5.12
3.65402	5.12
3.67068	5.12
3.68735	5.12
3.70402	5.12
3.72068	5.12
3.73735	5.12
3.75402	5.12
3.77068	5.12
3.78735	5.12
3.80402	5.12
3.82068	5.12
3.83735	5.12
3.85402	5.12
3.87068	5.12
3.88735	5.12
3.90402	5.12
3.92068	5.12
3.93735	5.12
3.95402	5.12
3.97068	5.12
3.98735	5.12

[Status Trace (Linear Velocity)]
Interval(msec)	1000
# of Points	240
Start Time(min)	0.004
End Time(min)	3.987
Intensity Units	
Intensity Multiplier	1
R.Time (min)	Intensity
0.00402	39.02
0.02068	37.74
0.03735	38.08
0.05402	39.56
0.07068	40.21
0.08735	39.16
0.10402	39.01
0.12068	39.03
0.13735	39.03
0.15402	39.03
0.17068	39.03
0.18735	39.03
0.20402	39.03
0.22068	39.03
0.23735	39.03
0.25402	39.03
0.27068	39.03
0.28735	39.03
0.30402	39.03
0.32068	39.03
0.33735	39.03
0.35402	39.03
0.37068	39.03
0.38735	39.03
0.40402	39.03
0.42068	39.03
0.43735	39.03
0.45402	39.03
0.47068	39.03
0.48735	39.03
0.50402	39.03
0.52068	39.03
0.53735	39.03
0.55402	39.03
0.57068	39.03
0.58735	39.03
0.60402	39.03
0.62068	39.03
0.63735	39.03
0.65402	39.03
0.67068	39.03
0.68735	39.03
0.70402	39.03
0.72068	39.03
0.73735	39.03
0.75402	39.03
0.77068	39.03
0.78735	39.03
0.80402	39.03
0.82068	39.03
0.83735	39.03
0.85402	39.03
0.87068	39.03
0.88735	39.03
0.90402	39.03
0.92068	39.03
0.93735	39.03
0.95402	39.03
0.97068	39.03
0.98735	39.03
1.00402	39.03
1.02068	39.03
1.03735	39.03
1.05402	39.03
1.07068	39.03
1.08735	39.03
1.10402	39.03
1.12068	39.03
1.13735	39.03
1.15402	39.03
1.17068	39.03
1.18735	39.03
1.20402	39.03
1.22068	39.03
1.23735	39.03
1.25402	39.03
1.27068	39.03
1.28735	39.03
1.30402	39.03
1.32068	39.03
1.33735	39.03
1.35402	39.03
1.37068	39.03
1.38735	39.03
1.40402	39.03
1.42068	39.03
1.43735	39.03
1.45402	39.03
1.47068	39.03
1.48735	39.03
1.50402	39.03
1.52068	39.03
1.53735	39.03
1.55402	39.03
1.57068	39.03
1.58735	39.03
1.60402	39.02
1.62068	39.02
1.63735	39.00
1.65402	38.98
1.67068	38.95
1.68735	38.91
1.70402	38.87
1.72068	38.84
1.73735	38.81
1.75402	38.78
1.77068	38.75
1.78735	38.72
1.80402	38.69
1.82068	38.66
1.83735	38.62
1.85402	38.59
1.87068	38.57
1.88735	38.53
1.90402	38.50
1.92068	38.47
1.93735	38.44
1.95402	38.41
1.97068	38.38
1.98735	38.35
2.00402	38.32
2.02068	38.29
2.03735	38.26
2.05402	38.23
2.07068	38.20
2.08735	38.17
2.10402	38.14
2.12068	38.11
2.13735	38.08
2.15402	38.05
2.17068	38.02
2.18735	37.99
2.20402	37.96
2.22068	37.94
2.23735	37.90
2.25402	37.87
2.27068	37.85
2.28735	37.82
2.30402	37.78
2.32068	37.76
2.33735	37.72
2.35402	37.70
2.37068	37.68
2.38735	37.68
2.40402	37.68
2.42068	37.68
2.43735	37.68
2.45402	37.68
2.47068	37.68
2.48735	37.67
2.50402	37.66
2.52068	37.67
2.53735	37.67
2.55402	37.67
2.57068	37.67
2.58735	37.66
2.60402	37.66
2.62068	37.66
2.63735	37.66
2.65402	37.66
2.67068	37.66
2.68735	37.66
2.70402	37.66
2.72068	37.66
2.73735	37.66
2.75402	37.66
2.77068	37.66
2.78735	37.65
2.80402	37.65
2.82068	37.65
2.83735	37.65
2.85402	37.65
2.87068	37.65
2.88735	37.65
2.90402	37.65
2.92068	37.65
2.93735	37.65
2.95402	37.65
2.97068	37.65
2.98735	37.65
3.00402	37.64
3.02068	37.64
3.03735	37.64
3.05402	37.64
3.07068	37.64
3.08735	37.64
3.10402	37.64
3.12068	37.64
3.13735	37.64
3.15402	37.64
3.17068	37.64
3.18735	37.64
3.20402	37.64
3.22068	37.64
3.23735	37.64
3.25402	37.64
3.27068	37.64
3.28735	37.64
3.30402	37.64
3.32068	37.64
3.33735	37.64
3.35402	37.64
3.37068	37.64
3.38735	37.64
3.40402	37.64
3.42068	37.64
3.43735	37.64
3.45402	37.64
3.47068	37.64
3.48735	37.64
3.50402	37.64
3.52068	37.64
3.53735	37.64
3.55402	37.64
3.57068	37.64
3.58735	37.64
3.60402	37.64
3.62068	37.64
3.63735	37.64
3.65402	37.64
3.67068	37.64
3.68735	37.64
3.70402	37.64
3.72068	37.64
3.73735	37.64
3.75402	37.64
3.77068	37.64
3.78735	37.64
3.80402	37.64
3.82068	37.64
3.83735	37.64
3.85402	37.64
3.87068	37.64
3.88735	37.64
3.90402	37.64
3.92068	37.64
3.93735	37.64
3.95402	37.64
3.97068	37.64
3.98735	37.64

