[Header]
Application Name	LabSolutions
Version	5.110
Data File Name	C:\Users\User\Desktop\GC Analyses\Jack\Nachusa Grasslands Sampling\T0 Timepoint July 12th\T0_07122022_019.gcd
Output Date	3/14/2023
Output Time	3:40:34 PM

[File Information]
Type	Data File
Generated	3/7/2023 3:47:43 PM
Generated by	System Administrator
Modified	3/7/2023 3:54:29 PM
Modified by	System Administrator

[Sample Information]
Operator Name	System Administrator
Acquired	3/7/2023 3:50:28 PM
Sample Type	0:Unknown
Level	0
Sample Name	019
Sample ID	019
ISTD Amount1	1
ISTD Amount2	1
ISTD Amount3	1
ISTD Amount4	1
ISTD Amount5	1
ISTD Amount6	1
ISTD Amount7	1
ISTD Amount8	1
ISTD Amount9	1
ISTD Amount10	1
ISTD Amount11	1
ISTD Amount12	1
ISTD Amount13	1
ISTD Amount14	1
ISTD Amount15	1
ISTD Amount16	1
ISTD Amount17	1
ISTD Amount18	1
ISTD Amount19	1
ISTD Amount20	1
ISTD Amount21	1
ISTD Amount22	1
ISTD Amount23	1
ISTD Amount24	1
ISTD Amount25	1
ISTD Amount26	1
ISTD Amount27	1
ISTD Amount28	1
ISTD Amount29	1
ISTD Amount30	1
ISTD Amount31	1
ISTD Amount32	1
Sample Amount	1
Dilution Factor	1
Vial#	18
Injection Volume	1
Injection Count	1
Bar Code	

[Original Files]
Data File	C:\Users\User\Desktop\GC Analyses\Jack\Nachusa Grasslands Sampling\T0 Timepoint July 12th\T0_07122022_019.gcd
Method File	C:\LabSolutions\Data\GHG_4min_2022\ghg3_togas_w_acet_4 min_new_int.gcm
Batch File	C:\LabSolutions\Data\AutoSamplerTesting\T0_07122022.gcb
Report Format File	c:\LabSolutions\System\DEFAULT.lsr

[File Description]


[Configuration]
Instrument Name	C0B7VH3-Instrument1
Instrument #	1
Line #	1
# of Detectors	3
Detector ID	DET#1	DET#2	DET#3
Detector Name	FID	PTCD	ECD
# of Channels	1	1	1

[Peak Table(Ch1)]
# of Peaks	3
Peak#	R.Time	I.Time	F.Time	Area	Height	A/H	Conc.	Mark	ID#	Name	k'	Plate #	Plate Ht.	Tailing	Resolution	Sep.Factor	Area Ratio	Height Ratio	Conc. %	Norm Conc.
1	1.476	1.439	1.538	31165	14756	2.112	220.024	   	1	CO	0.000	9162	16.372	1.346	0.000	0.000	0	0	37.798	37.798
2	1.567	1.538	1.641	5128	2395	2.141	99.150	 V 	2	CH4	0.062	10121	14.820	0.000	1.479	0.000	0	0	17.033	17.033
3	1.996	1.952	2.473	1047666	493287	2.124	262.936	   	3	CO2	0.353	17297	8.672	1.318	6.974	5.680	0	0	45.169	45.169

[Peak Table(Ch2)]
# of Peaks	0

[Peak Table(Ch3)]
# of Peaks	5
Peak#	R.Time	I.Time	F.Time	Area	Height	A/H	Conc.	Mark	ID#	Name	k'	Plate #	Plate Ht.	Tailing	Resolution	Sep.Factor	Area Ratio	Height Ratio	Conc. %	Norm Conc.
1	2.462	2.392	2.524	1075	293	3.664	0.000	   			0.000	5876	25.526	0.000	0.000	0.000	0	0	0.000	0.000
2	2.554	2.524	2.634	861	183	4.714	0.000	 V 			0.037	1599	93.836	0.000	0.477	0.000	0	0	0.000	0.000
3	2.697	2.656	2.770	188	51	3.648	0.000	   			0.095	10019	14.972	1.420	0.787	2.560	0	0	0.000	0.000
4	2.873	2.814	3.027	17247	4724	3.651	0.441	   	1	N2O	0.167	13739	10.918	1.588	1.710	1.750	0	0	100.000	100.000
5	3.261	3.060	3.965	14528	541	26.831	0.000	   	2	SF6	0.325	333	451.022	2.102	0.956	1.946	0	0	0.000	0.000

[Compound Results(Ch1)]
# of IDs	6
ID#	Name	R.Time	Area	Height	Conc.	Curve	3rd	2nd	1st	Constant	Area Ratio	Height Ratio	Conc. %	Norm Conc.
1	CO	1.476	31165	14756	220.024	Linear	0.000000e+00	0.000000e+00	1.416423e+002	0.000000e+00	0	0	37.798	37.798
2	CH4	1.567	5128	2395	99.150	Linear	0.000000e+00	0.000000e+00	5.171738e+001	0.000000e+00	0	0	17.033	17.033
3	CO2	1.996	1047666	493287	262.936	Linear	0.000000e+00	0.000000e+00	3.984494e+003	0.000000e+00	0	0	45.169	45.169
4	Ethylene	0.000	0	0	0.000	Linear	0.000000e+00	0.000000e+00	0.000000e+00	0.000000e+00	0	0	0.000	0.000
5	Acetylene	0.000	0	0	0.000	Linear	0.000000e+00	0.000000e+00	0.000000e+00	0.000000e+00	0	0	0.000	0.000
6	Ethane	0.000	0	0	0.000	Linear	0.000000e+00	0.000000e+00	0.000000e+00	0.000000e+00	0	0	0.000	0.000

[Compound Results(Ch2)]
# of IDs	5
ID#	Name	R.Time	Area	Height	Conc.	Curve	3rd	2nd	1st	Constant	Area Ratio	Height Ratio	Conc. %	Norm Conc.
1	Hydrogen	0.000	0	0	0.000	Linear	0.000000e+00	0.000000e+00	0.000000e+00	0.000000e+00	0	0	0.000	0.000
2	Oxygen	0.000	0	0	0.000	Linear	0.000000e+00	0.000000e+00	0.000000e+00	0.000000e+00	0	0	0.000	0.000
3	Nitrogen	0.000	0	0	0.000	Linear	0.000000e+00	0.000000e+00	0.000000e+00	0.000000e+00	0	0	0.000	0.000
4	Methane	0.000	0	0	0.000	Linear	0.000000e+00	0.000000e+00	0.000000e+00	0.000000e+00	0	0	0.000	0.000
5	Carbon Monoxide	0.000	0	0	0.000	Linear	0.000000e+00	0.000000e+00	0.000000e+00	0.000000e+00	0	0	0.000	0.000

[Compound Results(Ch3)]
# of IDs	2
ID#	Name	R.Time	Area	Height	Conc.	Curve	3rd	2nd	1st	Constant	Area Ratio	Height Ratio	Conc. %	Norm Conc.
1	N2O	2.873	17247	4724	0.441	Linear	0.000000e+00	0.000000e+00	3.915173e+004	0.000000e+00	0	0	100.000	100.000
2	SF6	3.261	14528	541	0.000	Linear	0.000000e+00	0.000000e+00	0.000000e+00	0.000000e+00	0	0	0.000	0.000

[Group Results(Ch1)]
# of Groups	0

[Group Results(Ch2)]
# of Groups	0

[Group Results(Ch3)]
# of Groups	0

[Chromatogram (Ch1)]
Interval(msec)	220
# of Points	1091
Start Time(min)	0.002
End Time(min)	3.998
R.Time (min)	Intensity
0.00167	22
0.00533	23
0.00900	21
0.01267	18
0.01633	13
0.02000	7
0.02367	3
0.02733	2
0.03100	3
0.03467	8
0.03833	15
0.04200	19
0.04567	21
0.04933	21
0.05300	20
0.05667	20
0.06033	21
0.06400	24
0.06767	30
0.07133	37
0.07500	43
0.07867	44
0.08233	39
0.08600	33
0.08967	28
0.09333	25
0.09700	26
0.10067	28
0.10433	27
0.10800	26
0.11167	27
0.11533	33
0.11900	40
0.12267	45
0.12633	48
0.13000	52
0.13367	59
0.13733	68
0.14100	77
0.14467	81
0.14833	79
0.15200	75
0.15567	75
0.15933	79
0.16300	85
0.16667	87
0.17033	85
0.17400	83
0.17767	78
0.18133	75
0.18500	74
0.18867	74
0.19233	77
0.19600	80
0.19967	84
0.20333	87
0.20700	88
0.21067	87
0.21433	85
0.21800	84
0.22167	84
0.22533	82
0.22900	79
0.23267	80
0.23633	81
0.24000	77
0.24367	72
0.24733	67
0.25100	63
0.25467	61
0.25833	65
0.26200	70
0.26567	73
0.26933	68
0.27300	57
0.27667	46
0.28033	38
0.28400	34
0.28767	37
0.29133	43
0.29500	48
0.29867	48
0.30233	44
0.30600	39
0.30967	36
0.31333	35
0.31700	34
0.32067	30
0.32433	25
0.32800	21
0.33167	22
0.33533	25
0.33900	27
0.34267	26
0.34633	21
0.35000	17
0.35367	17
0.35733	21
0.36100	26
0.36467	30
0.36833	34
0.37200	37
0.37567	39
0.37933	42
0.38300	41
0.38667	36
0.39033	34
0.39400	35
0.39767	36
0.40133	32
0.40500	27
0.40867	21
0.41233	17
0.41600	13
0.41967	9
0.42333	4
0.42700	2
0.43067	3
0.43433	10
0.43800	20
0.44167	23
0.44533	22
0.44900	19
0.45267	16
0.45633	15
0.46000	17
0.46367	22
0.46733	25
0.47100	27
0.47467	32
0.47833	35
0.48200	37
0.48567	37
0.48933	37
0.49300	38
0.49667	42
0.50033	44
0.50400	42
0.50767	35
0.51133	26
0.51500	20
0.51867	18
0.52233	19
0.52600	21
0.52967	24
0.53333	24
0.53700	24
0.54067	24
0.54433	27
0.54800	31
0.55167	33
0.55533	31
0.55900	29
0.56267	29
0.56633	31
0.57000	28
0.57367	23
0.57733	21
0.58100	20
0.58467	19
0.58833	19
0.59200	20
0.59567	19
0.59933	17
0.60300	14
0.60667	11
0.61033	9
0.61400	10
0.61767	11
0.62133	13
0.62500	13
0.62867	14
0.63233	17
0.63600	17
0.63967	16
0.64333	18
0.64700	20
0.65067	23
0.65433	28
0.65800	32
0.66167	35
0.66533	34
0.66900	28
0.67267	22
0.67633	17
0.68000	15
0.68367	14
0.68733	13
0.69100	12
0.69467	11
0.69833	11
0.70200	12
0.70567	14
0.70933	14
0.71300	10
0.71667	7
0.72033	7
0.72400	13
0.72767	20
0.73133	26
0.73500	28
0.73867	25
0.74233	21
0.74600	18
0.74967	14
0.75333	13
0.75700	13
0.76067	19
0.76433	27
0.76800	29
0.77167	27
0.77533	21
0.77900	14
0.78267	6
0.78633	0
0.79000	-3
0.79367	-4
0.79733	-6
0.80100	-8
0.80467	-6
0.80833	-3
0.81200	-2
0.81567	-2
0.81933	-3
0.82300	-3
0.82667	-4
0.83033	0
0.83400	7
0.83767	13
0.84133	15
0.84500	12
0.84867	7
0.85233	1
0.85600	-5
0.85967	-5
0.86333	-2
0.86700	1
0.87067	5
0.87433	7
0.87800	10
0.88167	13
0.88533	14
0.88900	15
0.89267	17
0.89633	20
0.90000	20
0.90367	18
0.90733	12
0.91100	7
0.91467	3
0.91833	1
0.92200	2
0.92567	3
0.92933	1
0.93300	-3
0.93667	-6
0.94033	-6
0.94400	-5
0.94767	-3
0.95133	-0
0.95500	8
0.95867	20
0.96233	30
0.96600	37
0.96967	39
0.97333	35
0.97700	25
0.98067	17
0.98433	14
0.98800	12
0.99167	6
0.99533	1
0.99900	-2
1.00267	-3
1.00633	-1
1.01000	2
1.01367	4
1.01733	5
1.02100	4
1.02467	5
1.02833	8
1.03200	9
1.03567	9
1.03933	11
1.04300	17
1.04667	24
1.05033	28
1.05400	27
1.05767	23
1.06133	19
1.06500	13
1.06867	4
1.07233	-1
1.07600	-3
1.07967	-7
1.08333	-13
1.08700	-16
1.09067	-18
1.09433	-19
1.09800	-21
1.10167	-24
1.10533	-28
1.10900	-31
1.11267	-30
1.11633	-26
1.12000	-23
1.12367	-23
1.12733	-21
1.13100	-16
1.13467	-9
1.13833	-3
1.14200	1
1.14567	7
1.14933	14
1.15300	20
1.15667	22
1.16033	22
1.16400	19
1.16767	14
1.17133	9
1.17500	3
1.17867	-0
1.18233	-2
1.18600	-4
1.18967	-7
1.19333	-8
1.19700	-9
1.20067	-15
1.20433	-20
1.20800	-20
1.21167	-14
1.21533	-8
1.21900	-6
1.22267	-9
1.22633	-13
1.23000	-15
1.23367	-17
1.23733	-14
1.24100	-8
1.24467	-3
1.24833	-0
1.25200	1
1.25567	1
1.25933	-3
1.26300	-8
1.26667	-12
1.27033	-16
1.27400	-19
1.27767	-21
1.28133	-21
1.28500	-18
1.28867	-16
1.29233	-14
1.29600	-12
1.29967	-7
1.30333	-1
1.30700	7
1.31067	12
1.31433	11
1.31800	7
1.32167	0
1.32533	-5
1.32900	-6
1.33267	-6
1.33633	-6
1.34000	-11
1.34367	-20
1.34733	-27
1.35100	-30
1.35467	-29
1.35833	-27
1.36200	-25
1.36567	-22
1.36933	-21
1.37300	-25
1.37667	-32
1.38033	-36
1.38400	-36
1.38767	-33
1.39133	-35
1.39500	-23
1.39867	-7
1.40233	1
1.40600	6
1.40967	3
1.41333	-2
1.41700	-7
1.42067	-11
1.42433	-18
1.42800	-21
1.43167	-21
1.43533	-22
1.43900	-10
1.44267	61
1.44633	274
1.45000	849
1.45367	2238
1.45733	4587
1.46100	7444
1.46467	10191
1.46833	12433
1.47200	13995
1.47567	14747
1.47933	14555
1.48300	13400
1.48667	11507
1.49033	9277
1.49400	7108
1.49767	5254
1.50133	3799
1.50500	2723
1.50867	1952
1.51233	1410
1.51600	1031
1.51967	767
1.52333	583
1.52700	454
1.53067	362
1.53433	297
1.53800	264
1.54167	301
1.54533	464
1.54900	781
1.55267	1199
1.55633	1622
1.56000	1983
1.56367	2247
1.56733	2389
1.57100	2377
1.57467	2195
1.57833	1878
1.58200	1497
1.58567	1129
1.58933	821
1.59300	585
1.59667	415
1.60033	298
1.60400	219
1.60767	166
1.61133	128
1.61500	101
1.61867	79
1.62233	60
1.62600	43
1.62967	29
1.63333	16
1.63700	4
1.64067	-4
1.64433	-9
1.64800	-9
1.65167	-4
1.65533	6
1.65900	16
1.66267	25
1.66633	31
1.67000	30
1.67367	24
1.67733	16
1.68100	13
1.68467	14
1.68833	15
1.69200	11
1.69567	6
1.69933	1
1.70300	-5
1.70667	-11
1.71033	-11
1.71400	-4
1.71767	6
1.72133	13
1.72500	15
1.72867	14
1.73233	9
1.73600	1
1.73967	-6
1.74333	-11
1.74700	-12
1.75067	-10
1.75433	-9
1.75800	-7
1.76167	-6
1.76533	-7
1.76900	-6
1.77267	-4
1.77633	1
1.78000	4
1.78367	4
1.78733	1
1.79100	-1
1.79467	-4
1.79833	-5
1.80200	-5
1.80567	-7
1.80933	-11
1.81300	-9
1.81667	-4
1.82033	2
1.82400	10
1.82767	13
1.83133	11
1.83500	10
1.83867	10
1.84233	19
1.84600	24
1.84967	23
1.85333	22
1.85700	23
1.86067	21
1.86433	15
1.86800	7
1.87167	2
1.87533	1
1.87900	-0
1.88267	-1
1.88633	-4
1.89000	-2
1.89367	8
1.89733	17
1.90100	23
1.90467	27
1.90833	26
1.91200	21
1.91567	15
1.91933	10
1.92300	10
1.92667	14
1.93033	19
1.93400	22
1.93767	21
1.94133	17
1.94500	14
1.94867	15
1.95233	30
1.95600	121
1.95967	604
1.96333	2746
1.96700	10106
1.97067	29568
1.97433	69654
1.97800	134965
1.98167	220806
1.98533	313972
1.98900	398620
1.99267	461488
1.99633	493348
2.00000	490122
2.00367	453818
2.00733	392831
2.01100	319692
2.01467	246788
2.01833	182746
2.02200	131383
2.02567	92779
2.02933	65056
2.03300	45742
2.03667	32534
2.04033	23588
2.04400	17537
2.04767	13416
2.05133	10578
2.05500	8595
2.05867	7174
2.06233	6129
2.06600	5342
2.06967	4737
2.07333	4259
2.07700	3870
2.08067	3544
2.08433	3269
2.08800	3035
2.09167	2828
2.09533	2644
2.09900	2477
2.10267	2329
2.10633	2201
2.11000	2091
2.11367	1992
2.11733	1900
2.12100	1815
2.12467	1740
2.12833	1672
2.13200	1610
2.13567	1551
2.13933	1493
2.14300	1438
2.14667	1388
2.15033	1342
2.15400	1296
2.15767	1256
2.16133	1222
2.16500	1190
2.16867	1157
2.17233	1122
2.17600	1085
2.17967	1050
2.18333	1020
2.18700	995
2.19067	975
2.19433	957
2.19800	940
2.20167	925
2.20533	906
2.20900	885
2.21267	864
2.21633	845
2.22000	823
2.22367	802
2.22733	785
2.23100	769
2.23467	756
2.23833	744
2.24200	732
2.24567	723
2.24933	717
2.25300	709
2.25667	693
2.26033	669
2.26400	645
2.26767	625
2.27133	609
2.27500	596
2.27867	588
2.28233	584
2.28600	583
2.28967	584
2.29333	585
2.29700	586
2.30067	584
2.30433	577
2.30800	568
2.31167	559
2.31533	547
2.31900	534
2.32267	519
2.32633	508
2.33000	500
2.33367	496
2.33733	497
2.34100	497
2.34467	494
2.34833	490
2.35200	487
2.35567	487
2.35933	487
2.36300	487
2.36667	489
2.37033	493
2.37400	494
2.37767	490
2.38133	478
2.38500	464
2.38867	451
2.39233	440
2.39600	435
2.39967	434
2.40333	438
2.40700	443
2.41067	447
2.41433	450
2.41800	447
2.42167	437
2.42533	433
2.42900	432
2.43267	433
2.43633	432
2.44000	429
2.44367	428
2.44733	431
2.45100	434
2.45467	436
2.45833	433
2.46200	425
2.46567	416
2.46933	411
2.47300	407
2.47667	400
2.48033	396
2.48400	396
2.48767	397
2.49133	400
2.49500	405
2.49867	407
2.50233	404
2.50600	398
2.50967	392
2.51333	389
2.51700	389
2.52067	390
2.52433	393
2.52800	403
2.53167	413
2.53533	419
2.53900	425
2.54267	431
2.54633	434
2.55000	435
2.55367	434
2.55733	431
2.56100	426
2.56467	426
2.56833	428
2.57200	430
2.57567	436
2.57933	441
2.58300	444
2.58667	440
2.59033	433
2.59400	425
2.59767	418
2.60133	413
2.60500	414
2.60867	419
2.61233	427
2.61600	432
2.61967	437
2.62333	441
2.62700	443
2.63067	441
2.63433	437
2.63800	434
2.64167	432
2.64533	432
2.64900	432
2.65267	435
2.65633	437
2.66000	439
2.66367	444
2.66733	448
2.67100	448
2.67467	446
2.67833	443
2.68200	442
2.68567	439
2.68933	433
2.69300	426
2.69667	422
2.70033	420
2.70400	415
2.70767	411
2.71133	408
2.71500	404
2.71867	404
2.72233	408
2.72600	413
2.72967	418
2.73333	422
2.73700	428
2.74067	436
2.74433	444
2.74800	450
2.75167	454
2.75533	454
2.75900	451
2.76267	446
2.76633	441
2.77000	438
2.77367	440
2.77733	442
2.78100	440
2.78467	434
2.78833	426
2.79200	415
2.79567	414
2.79933	415
2.80300	417
2.80667	423
2.81033	429
2.81400	435
2.81767	440
2.82133	442
2.82500	443
2.82867	444
2.83233	445
2.83600	451
2.83967	457
2.84333	461
2.84700	462
2.85067	461
2.85433	457
2.85800	454
2.86167	451
2.86533	450
2.86900	450
2.87267	445
2.87633	434
2.88000	424
2.88367	422
2.88733	424
2.89100	426
2.89467	428
2.89833	432
2.90200	437
2.90567	438
2.90933	435
2.91300	435
2.91667	434
2.92033	428
2.92400	422
2.92767	419
2.93133	419
2.93500	420
2.93867	422
2.94233	423
2.94600	424
2.94967	421
2.95333	418
2.95700	415
2.96067	415
2.96433	416
2.96800	419
2.97167	424
2.97533	430
2.97900	436
2.98267	438
2.98633	439
2.99000	441
2.99367	445
2.99733	447
3.00100	447
3.00467	445
3.00833	441
3.01200	435
3.01567	425
3.01933	414
3.02300	410
3.02667	413
3.03033	420
3.03400	427
3.03767	434
3.04133	439
3.04500	441
3.04867	442
3.05233	441
3.05600	442
3.05967	446
3.06333	449
3.06700	446
3.07067	439
3.07433	431
3.07800	428
3.08167	426
3.08533	422
3.08900	418
3.09267	415
3.09633	414
3.10000	417
3.10367	421
3.10733	425
3.11100	429
3.11467	431
3.11833	431
3.12200	428
3.12567	426
3.12933	424
3.13300	424
3.13667	429
3.14033	433
3.14400	435
3.14767	438
3.15133	438
3.15500	433
3.15867	427
3.16233	422
3.16600	418
3.16967	414
3.17333	413
3.17700	413
3.18067	413
3.18433	411
3.18800	412
3.19167	418
3.19533	422
3.19900	422
3.20267	420
3.20633	418
3.21000	419
3.21367	425
3.21733	428
3.22100	425
3.22467	413
3.22833	396
3.23200	385
3.23567	383
3.23933	384
3.24300	383
3.24667	381
3.25033	380
3.25400	385
3.25767	393
3.26133	397
3.26500	398
3.26867	398
3.27233	397
3.27600	403
3.27967	406
3.28333	406
3.28700	408
3.29067	409
3.29433	412
3.29800	419
3.30167	421
3.30533	420
3.30900	422
3.31267	426
3.31633	428
3.32000	425
3.32367	421
3.32733	420
3.33100	417
3.33467	409
3.33833	399
3.34200	394
3.34567	392
3.34933	393
3.35300	397
3.35667	402
3.36033	406
3.36400	407
3.36767	406
3.37133	404
3.37500	405
3.37867	407
3.38233	409
3.38600	409
3.38967	408
3.39333	408
3.39700	412
3.40067	418
3.40433	424
3.40800	425
3.41167	423
3.41533	418
3.41900	412
3.42267	407
3.42633	400
3.43000	396
3.43367	392
3.43733	388
3.44100	386
3.44467	383
3.44833	380
3.45200	375
3.45567	371
3.45933	372
3.46300	376
3.46667	383
3.47033	394
3.47400	405
3.47767	409
3.48133	407
3.48500	401
3.48867	391
3.49233	380
3.49600	372
3.49967	366
3.50333	367
3.50700	375
3.51067	383
3.51433	386
3.51800	389
3.52167	391
3.52533	392
3.52900	391
3.53267	390
3.53633	389
3.54000	386
3.54367	379
3.54733	373
3.55100	368
3.55467	364
3.55833	365
3.56200	371
3.56567	381
3.56933	390
3.57300	397
3.57667	399
3.58033	393
3.58400	385
3.58767	383
3.59133	382
3.59500	378
3.59867	372
3.60233	369
3.60600	364
3.60967	361
3.61333	362
3.61700	367
3.62067	374
3.62433	382
3.62800	386
3.63167	381
3.63533	370
3.63900	357
3.64267	347
3.64633	342
3.65000	341
3.65367	342
3.65733	350
3.66100	364
3.66467	379
3.66833	388
3.67200	388
3.67567	380
3.67933	370
3.68300	361
3.68667	355
3.69033	356
3.69400	357
3.69767	357
3.70133	352
3.70500	346
3.70867	340
3.71233	335
3.71600	331
3.71967	329
3.72333	328
3.72700	329
3.73067	332
3.73433	333
3.73800	331
3.74167	327
3.74533	323
3.74900	319
3.75267	315
3.75633	308
3.76000	304
3.76367	308
3.76733	316
3.77100	322
3.77467	326
3.77833	327
3.78200	328
3.78567	330
3.78933	331
3.79300	331
3.79667	333
3.80033	333
3.80400	331
3.80767	330
3.81133	331
3.81500	334
3.81867	335
3.82233	334
3.82600	333
3.82967	333
3.83333	332
3.83700	329
3.84067	327
3.84433	326
3.84800	325
3.85167	326
3.85533	329
3.85900	331
3.86267	329
3.86633	326
3.87000	320
3.87367	316
3.87733	315
3.88100	315
3.88467	317
3.88833	322
3.89200	321
3.89567	317
3.89933	314
3.90300	313
3.90667	312
3.91033	310
3.91400	307
3.91767	305
3.92133	300
3.92500	296
3.92867	293
3.93233	293
3.93600	292
3.93967	290
3.94333	288
3.94700	286
3.95067	284
3.95433	284
3.95800	286
3.96167	289
3.96533	288
3.96900	285
3.97267	283
3.97633	285
3.98000	292
3.98367	300
3.98733	302
3.99100	298
3.99467	293
3.99833	291

[Chromatogram (Ch2)]
Interval(msec)	220
# of Points	1091
Start Time(min)	0.002
End Time(min)	3.998
R.Time (min)	Intensity
0.00167	0
0.00533	0
0.00900	0
0.01267	0
0.01633	0
0.02000	0
0.02367	0
0.02733	0
0.03100	-0
0.03467	-0
0.03833	-0
0.04200	-0
0.04567	-0
0.04933	-1
0.05300	-1
0.05667	-1
0.06033	-1
0.06400	-1
0.06767	-1
0.07133	-1
0.07500	-1
0.07867	-1
0.08233	-1
0.08600	-1
0.08967	-0
0.09333	-0
0.09700	0
0.10067	1
0.10433	1
0.10800	1
0.11167	2
0.11533	2
0.11900	2
0.12267	2
0.12633	2
0.13000	2
0.13367	2
0.13733	2
0.14100	1
0.14467	1
0.14833	1
0.15200	1
0.15567	1
0.15933	1
0.16300	0
0.16667	0
0.17033	0
0.17400	0
0.17767	1
0.18133	1
0.18500	1
0.18867	1
0.19233	1
0.19600	2
0.19967	2
0.20333	2
0.20700	2
0.21067	1
0.21433	1
0.21800	1
0.22167	1
0.22533	0
0.22900	-0
0.23267	-1
0.23633	-1
0.24000	-2
0.24367	-2
0.24733	-3
0.25100	-3
0.25467	-3
0.25833	-3
0.26200	-3
0.26567	-3
0.26933	-4
0.27300	-4
0.27667	-4
0.28033	-4
0.28400	-4
0.28767	-4
0.29133	-4
0.29500	-4
0.29867	-3
0.30233	-3
0.30600	-3
0.30967	-3
0.31333	-3
0.31700	-3
0.32067	-3
0.32433	-3
0.32800	-2
0.33167	-2
0.33533	-2
0.33900	-2
0.34267	-2
0.34633	-1
0.35000	-1
0.35367	-1
0.35733	-1
0.36100	-1
0.36467	-2
0.36833	-2
0.37200	-2
0.37567	-2
0.37933	-2
0.38300	-2
0.38667	-2
0.39033	-2
0.39400	-3
0.39767	-3
0.40133	-3
0.40500	-3
0.40867	-3
0.41233	-3
0.41600	-3
0.41967	-3
0.42333	-3
0.42700	-3
0.43067	-3
0.43433	-3
0.43800	-3
0.44167	-2
0.44533	-2
0.44900	-2
0.45267	-1
0.45633	-1
0.46000	-0
0.46367	-0
0.46733	0
0.47100	1
0.47467	1
0.47833	1
0.48200	2
0.48567	2
0.48933	2
0.49300	2
0.49667	2
0.50033	2
0.50400	2
0.50767	2
0.51133	2
0.51500	2
0.51867	2
0.52233	2
0.52600	1
0.52967	1
0.53333	1
0.53700	0
0.54067	-0
0.54433	-1
0.54800	-1
0.55167	-1
0.55533	-1
0.55900	-1
0.56267	-1
0.56633	-1
0.57000	-1
0.57367	-1
0.57733	-1
0.58100	-1
0.58467	-1
0.58833	-1
0.59200	-1
0.59567	-1
0.59933	-1
0.60300	-1
0.60667	-1
0.61033	-0
0.61400	-0
0.61767	-1
0.62133	-1
0.62500	-1
0.62867	-1
0.63233	-1
0.63600	-1
0.63967	-1
0.64333	-1
0.64700	-1
0.65067	-1
0.65433	-1
0.65800	-1
0.66167	-1
0.66533	-2
0.66900	-2
0.67267	-2
0.67633	-2
0.68000	-2
0.68367	-2
0.68733	-2
0.69100	-2
0.69467	-2
0.69833	-2
0.70200	-2
0.70567	-1
0.70933	-1
0.71300	-1
0.71667	-1
0.72033	-0
0.72400	0
0.72767	0
0.73133	1
0.73500	1
0.73867	1
0.74233	1
0.74600	1
0.74967	1
0.75333	1
0.75700	0
0.76067	0
0.76433	-0
0.76800	-0
0.77167	-1
0.77533	-1
0.77900	-1
0.78267	-1
0.78633	-1
0.79000	-1
0.79367	-1
0.79733	-1
0.80100	-1
0.80467	-2
0.80833	-2
0.81200	-2
0.81567	-2
0.81933	-1
0.82300	-1
0.82667	-2
0.83033	-2
0.83400	-2
0.83767	-2
0.84133	-2
0.84500	-3
0.84867	-3
0.85233	-3
0.85600	-3
0.85967	-3
0.86333	-3
0.86700	-3
0.87067	-3
0.87433	-3
0.87800	-3
0.88167	-3
0.88533	-3
0.88900	-3
0.89267	-2
0.89633	-2
0.90000	-2
0.90367	-2
0.90733	-2
0.91100	-3
0.91467	-3
0.91833	-3
0.92200	-3
0.92567	-3
0.92933	-3
0.93300	-3
0.93667	-3
0.94033	-3
0.94400	-3
0.94767	-3
0.95133	-3
0.95500	-3
0.95867	-3
0.96233	-3
0.96600	-3
0.96967	-3
0.97333	-2
0.97700	-2
0.98067	-1
0.98433	-1
0.98800	-1
0.99167	-1
0.99533	-1
0.99900	-1
1.00267	-1
1.00633	-1
1.01000	-1
1.01367	-1
1.01733	-1
1.02100	-1
1.02467	-2
1.02833	-2
1.03200	-3
1.03567	-3
1.03933	-3
1.04300	-4
1.04667	-4
1.05033	-5
1.05400	-5
1.05767	-5
1.06133	-5
1.06500	-5
1.06867	-6
1.07233	-6
1.07600	-6
1.07967	-5
1.08333	-5
1.08700	-5
1.09067	-4
1.09433	-4
1.09800	-3
1.10167	-2
1.10533	-2
1.10900	-1
1.11267	-1
1.11633	-1
1.12000	-1
1.12367	-1
1.12733	-1
1.13100	-0
1.13467	0
1.13833	0
1.14200	0
1.14567	0
1.14933	1
1.15300	1
1.15667	0
1.16033	0
1.16400	0
1.16767	-0
1.17133	-0
1.17500	-0
1.17867	-0
1.18233	-0
1.18600	-1
1.18967	-1
1.19333	-1
1.19700	-2
1.20067	-2
1.20433	-2
1.20800	-2
1.21167	-2
1.21533	-2
1.21900	-2
1.22267	-2
1.22633	-3
1.23000	-3
1.23367	-3
1.23733	-3
1.24100	-3
1.24467	-3
1.24833	-3
1.25200	-3
1.25567	-3
1.25933	-4
1.26300	-4
1.26667	-4
1.27033	-4
1.27400	-4
1.27767	-4
1.28133	-4
1.28500	-3
1.28867	-3
1.29233	-3
1.29600	-3
1.29967	-3
1.30333	-3
1.30700	-3
1.31067	-3
1.31433	-3
1.31800	-3
1.32167	-3
1.32533	-3
1.32900	-3
1.33267	-4
1.33633	-4
1.34000	-4
1.34367	-5
1.34733	-5
1.35100	-5
1.35467	-5
1.35833	-5
1.36200	-5
1.36567	-5
1.36933	-5
1.37300	-5
1.37667	-5
1.38033	-4
1.38400	-4
1.38767	-3
1.39133	-3
1.39500	-2
1.39867	-2
1.40233	-1
1.40600	-1
1.40967	-1
1.41333	-0
1.41700	-0
1.42067	-0
1.42433	-0
1.42800	-1
1.43167	-1
1.43533	-1
1.43900	-2
1.44267	-2
1.44633	-2
1.45000	-3
1.45367	-3
1.45733	-3
1.46100	-4
1.46467	-4
1.46833	-4
1.47200	-5
1.47567	-5
1.47933	-5
1.48300	-5
1.48667	-5
1.49033	-5
1.49400	-5
1.49767	-5
1.50133	-5
1.50500	-5
1.50867	-6
1.51233	-5
1.51600	-5
1.51967	-5
1.52333	-5
1.52700	-4
1.53067	-4
1.53433	-4
1.53800	-4
1.54167	-4
1.54533	-4
1.54900	-4
1.55267	-4
1.55633	-4
1.56000	-4
1.56367	-4
1.56733	-5
1.57100	-5
1.57467	-5
1.57833	-4
1.58200	-4
1.58567	-4
1.58933	-4
1.59300	-4
1.59667	-4
1.60033	-4
1.60400	-5
1.60767	-7
1.61133	-8
1.61500	-10
1.61867	-12
1.62233	-15
1.62600	-18
1.62967	-21
1.63333	-25
1.63700	-28
1.64067	-32
1.64433	-35
1.64800	-39
1.65167	-43
1.65533	-46
1.65900	-50
1.66267	-53
1.66633	-57
1.67000	-61
1.67367	-66
1.67733	-71
1.68100	-76
1.68467	-81
1.68833	-86
1.69200	-90
1.69567	-93
1.69933	-96
1.70300	-99
1.70667	-101
1.71033	-102
1.71400	-104
1.71767	-105
1.72133	-106
1.72500	-107
1.72867	-108
1.73233	-110
1.73600	-111
1.73967	-111
1.74333	-112
1.74700	-113
1.75067	-114
1.75433	-115
1.75800	-116
1.76167	-116
1.76533	-117
1.76900	-117
1.77267	-118
1.77633	-118
1.78000	-118
1.78367	-119
1.78733	-119
1.79100	-119
1.79467	-119
1.79833	-119
1.80200	-119
1.80567	-119
1.80933	-119
1.81300	-119
1.81667	-119
1.82033	-120
1.82400	-120
1.82767	-120
1.83133	-120
1.83500	-120
1.83867	-120
1.84233	-119
1.84600	-119
1.84967	-118
1.85333	-117
1.85700	-116
1.86067	-115
1.86433	-114
1.86800	-113
1.87167	-113
1.87533	-113
1.87900	-113
1.88267	-113
1.88633	-113
1.89000	-114
1.89367	-115
1.89733	-116
1.90100	-117
1.90467	-117
1.90833	-117
1.91200	-117
1.91567	-117
1.91933	-117
1.92300	-116
1.92667	-115
1.93033	-115
1.93400	-114
1.93767	-114
1.94133	-114
1.94500	-114
1.94867	-113
1.95233	-113
1.95600	-113
1.95967	-113
1.96333	-113
1.96700	-113
1.97067	-113
1.97433	-113
1.97800	-112
1.98167	-112
1.98533	-112
1.98900	-112
1.99267	-113
1.99633	-113
2.00000	-113
2.00367	-112
2.00733	-112
2.01100	-112
2.01467	-111
2.01833	-111
2.02200	-111
2.02567	-110
2.02933	-110
2.03300	-110
2.03667	-110
2.04033	-110
2.04400	-110
2.04767	-110
2.05133	-109
2.05500	-109
2.05867	-109
2.06233	-108
2.06600	-107
2.06967	-107
2.07333	-106
2.07700	-106
2.08067	-106
2.08433	-106
2.08800	-107
2.09167	-107
2.09533	-106
2.09900	-106
2.10267	-106
2.10633	-106
2.11000	-105
2.11367	-105
2.11733	-104
2.12100	-103
2.12467	-102
2.12833	-101
2.13200	-100
2.13567	-100
2.13933	-99
2.14300	-99
2.14667	-99
2.15033	-98
2.15400	-98
2.15767	-97
2.16133	-97
2.16500	-96
2.16867	-95
2.17233	-94
2.17600	-94
2.17967	-94
2.18333	-94
2.18700	-95
2.19067	-95
2.19433	-95
2.19800	-95
2.20167	-95
2.20533	-95
2.20900	-96
2.21267	-97
2.21633	-97
2.22000	-97
2.22367	-96
2.22733	-95
2.23100	-94
2.23467	-93
2.23833	-92
2.24200	-91
2.24567	-90
2.24933	-91
2.25300	-91
2.25667	-91
2.26033	-91
2.26400	-90
2.26767	-90
2.27133	-90
2.27500	-89
2.27867	-89
2.28233	-88
2.28600	-88
2.28967	-88
2.29333	-88
2.29700	-88
2.30067	-88
2.30433	-88
2.30800	-88
2.31167	-88
2.31533	-88
2.31900	-88
2.32267	-87
2.32633	-86
2.33000	-85
2.33367	-85
2.33733	-84
2.34100	-84
2.34467	-84
2.34833	-83
2.35200	-82
2.35567	-82
2.35933	-81
2.36300	-80
2.36667	-78
2.37033	-76
2.37400	-73
2.37767	-71
2.38133	-67
2.38500	-64
2.38867	-60
2.39233	-55
2.39600	-51
2.39967	-47
2.40333	-43
2.40700	-39
2.41067	-35
2.41433	-32
2.41800	-30
2.42167	-27
2.42533	-25
2.42900	-22
2.43267	-20
2.43633	-17
2.44000	-15
2.44367	-13
2.44733	-11
2.45100	-9
2.45467	-7
2.45833	-6
2.46200	-4
2.46567	-3
2.46933	-1
2.47300	-0
2.47667	0
2.48033	1
2.48400	2
2.48767	3
2.49133	5
2.49500	6
2.49867	7
2.50233	7
2.50600	8
2.50967	8
2.51333	8
2.51700	9
2.52067	9
2.52433	10
2.52800	10
2.53167	11
2.53533	11
2.53900	12
2.54267	12
2.54633	13
2.55000	13
2.55367	13
2.55733	13
2.56100	13
2.56467	13
2.56833	13
2.57200	13
2.57567	13
2.57933	13
2.58300	13
2.58667	13
2.59033	13
2.59400	14
2.59767	14
2.60133	14
2.60500	14
2.60867	14
2.61233	15
2.61600	15
2.61967	16
2.62333	16
2.62700	17
2.63067	17
2.63433	18
2.63800	18
2.64167	18
2.64533	18
2.64900	18
2.65267	18
2.65633	18
2.66000	19
2.66367	19
2.66733	20
2.67100	20
2.67467	20
2.67833	21
2.68200	21
2.68567	22
2.68933	22
2.69300	22
2.69667	22
2.70033	22
2.70400	21
2.70767	21
2.71133	21
2.71500	21
2.71867	21
2.72233	21
2.72600	21
2.72967	21
2.73333	22
2.73700	23
2.74067	23
2.74433	24
2.74800	24
2.75167	25
2.75533	25
2.75900	26
2.76267	26
2.76633	26
2.77000	26
2.77367	26
2.77733	25
2.78100	25
2.78467	25
2.78833	25
2.79200	24
2.79567	24
2.79933	24
2.80300	24
2.80667	24
2.81033	24
2.81400	24
2.81767	24
2.82133	24
2.82500	24
2.82867	25
2.83233	25
2.83600	24
2.83967	23
2.84333	21
2.84700	17
2.85067	10
2.85433	1
2.85800	-12
2.86167	-29
2.86533	-50
2.86900	-75
2.87267	-104
2.87633	-138
2.88000	-175
2.88367	-215
2.88733	-259
2.89100	-306
2.89467	-354
2.89833	-405
2.90200	-457
2.90567	-510
2.90933	-563
2.91300	-616
2.91667	-670
2.92033	-723
2.92400	-775
2.92767	-826
2.93133	-878
2.93500	-935
2.93867	-995
2.94233	-1051
2.94600	-1092
2.94967	-1110
2.95333	-1102
2.95700	-1069
2.96067	-1016
2.96433	-949
2.96800	-873
2.97167	-792
2.97533	-712
2.97900	-634
2.98267	-560
2.98633	-491
2.99000	-428
2.99367	-372
2.99733	-321
3.00100	-276
3.00467	-237
3.00833	-202
3.01200	-172
3.01567	-146
3.01933	-123
3.02300	-104
3.02667	-87
3.03033	-73
3.03400	-61
3.03767	-50
3.04133	-41
3.04500	-33
3.04867	-26
3.05233	-21
3.05600	-16
3.05967	-12
3.06333	-8
3.06700	-5
3.07067	-3
3.07433	-0
3.07800	2
3.08167	3
3.08533	5
3.08900	6
3.09267	7
3.09633	8
3.10000	9
3.10367	9
3.10733	10
3.11100	10
3.11467	11
3.11833	12
3.12200	12
3.12567	13
3.12933	13
3.13300	14
3.13667	14
3.14033	15
3.14400	15
3.14767	16
3.15133	16
3.15500	16
3.15867	16
3.16233	17
3.16600	17
3.16967	17
3.17333	18
3.17700	18
3.18067	18
3.18433	19
3.18800	19
3.19167	20
3.19533	20
3.19900	20
3.20267	21
3.20633	21
3.21000	21
3.21367	21
3.21733	22
3.22100	22
3.22467	22
3.22833	22
3.23200	23
3.23567	23
3.23933	23
3.24300	23
3.24667	23
3.25033	23
3.25400	24
3.25767	24
3.26133	24
3.26500	24
3.26867	24
3.27233	24
3.27600	24
3.27967	23
3.28333	23
3.28700	23
3.29067	24
3.29433	24
3.29800	24
3.30167	24
3.30533	24
3.30900	24
3.31267	24
3.31633	24
3.32000	24
3.32367	24
3.32733	24
3.33100	24
3.33467	25
3.33833	25
3.34200	25
3.34567	25
3.34933	25
3.35300	25
3.35667	25
3.36033	25
3.36400	25
3.36767	24
3.37133	24
3.37500	24
3.37867	24
3.38233	24
3.38600	24
3.38967	24
3.39333	24
3.39700	24
3.40067	24
3.40433	24
3.40800	24
3.41167	24
3.41533	24
3.41900	24
3.42267	24
3.42633	24
3.43000	24
3.43367	24
3.43733	24
3.44100	24
3.44467	24
3.44833	24
3.45200	24
3.45567	24
3.45933	24
3.46300	24
3.46667	24
3.47033	24
3.47400	24
3.47767	24
3.48133	25
3.48500	24
3.48867	25
3.49233	25
3.49600	25
3.49967	25
3.50333	25
3.50700	25
3.51067	25
3.51433	26
3.51800	26
3.52167	26
3.52533	26
3.52900	26
3.53267	27
3.53633	27
3.54000	27
3.54367	27
3.54733	27
3.55100	27
3.55467	27
3.55833	27
3.56200	27
3.56567	27
3.56933	27
3.57300	27
3.57667	27
3.58033	27
3.58400	26
3.58767	26
3.59133	26
3.59500	26
3.59867	26
3.60233	26
3.60600	26
3.60967	26
3.61333	26
3.61700	25
3.62067	25
3.62433	25
3.62800	25
3.63167	25
3.63533	25
3.63900	24
3.64267	24
3.64633	24
3.65000	25
3.65367	25
3.65733	25
3.66100	24
3.66467	24
3.66833	24
3.67200	24
3.67567	24
3.67933	24
3.68300	25
3.68667	24
3.69033	24
3.69400	24
3.69767	24
3.70133	24
3.70500	24
3.70867	24
3.71233	24
3.71600	24
3.71967	24
3.72333	24
3.72700	24
3.73067	24
3.73433	25
3.73800	25
3.74167	25
3.74533	25
3.74900	25
3.75267	25
3.75633	25
3.76000	24
3.76367	24
3.76733	24
3.77100	24
3.77467	24
3.77833	24
3.78200	24
3.78567	24
3.78933	24
3.79300	24
3.79667	24
3.80033	24
3.80400	24
3.80767	24
3.81133	25
3.81500	25
3.81867	25
3.82233	25
3.82600	25
3.82967	25
3.83333	25
3.83700	25
3.84067	25
3.84433	25
3.84800	25
3.85167	25
3.85533	25
3.85900	25
3.86267	25
3.86633	25
3.87000	25
3.87367	25
3.87733	25
3.88100	25
3.88467	25
3.88833	25
3.89200	25
3.89567	25
3.89933	25
3.90300	25
3.90667	24
3.91033	24
3.91400	24
3.91767	24
3.92133	24
3.92500	24
3.92867	24
3.93233	24
3.93600	24
3.93967	25
3.94333	25
3.94700	25
3.95067	24
3.95433	24
3.95800	24
3.96167	24
3.96533	24
3.96900	24
3.97267	24
3.97633	24
3.98000	24
3.98367	24
3.98733	24
3.99100	25
3.99467	25
3.99833	25

[Chromatogram (Ch3)]
Interval(msec)	220
# of Points	1091
Start Time(min)	0.002
End Time(min)	3.998
R.Time (min)	Intensity
0.00167	0
0.00533	-2
0.00900	-2
0.01267	-1
0.01633	-1
0.02000	-1
0.02367	0
0.02733	3
0.03100	4
0.03467	6
0.03833	6
0.04200	4
0.04567	4
0.04933	4
0.05300	3
0.05667	2
0.06033	0
0.06400	1
0.06767	-0
0.07133	-1
0.07500	-0
0.07867	-0
0.08233	-2
0.08600	-1
0.08967	1
0.09333	3
0.09700	5
0.10067	7
0.10433	6
0.10800	3
0.11167	3
0.11533	3
0.11900	2
0.12267	3
0.12633	5
0.13000	5
0.13367	2
0.13733	1
0.14100	2
0.14467	3
0.14833	4
0.15200	4
0.15567	3
0.15933	2
0.16300	1
0.16667	1
0.17033	1
0.17400	4
0.17767	6
0.18133	7
0.18500	7
0.18867	8
0.19233	7
0.19600	8
0.19967	9
0.20333	7
0.20700	6
0.21067	5
0.21433	7
0.21800	5
0.22167	2
0.22533	0
0.22900	-0
0.23267	1
0.23633	3
0.24000	4
0.24367	4
0.24733	4
0.25100	4
0.25467	3
0.25833	4
0.26200	7
0.26567	7
0.26933	6
0.27300	4
0.27667	2
0.28033	4
0.28400	7
0.28767	8
0.29133	9
0.29500	10
0.29867	9
0.30233	10
0.30600	9
0.30967	7
0.31333	5
0.31700	4
0.32067	4
0.32433	4
0.32800	6
0.33167	6
0.33533	7
0.33900	9
0.34267	8
0.34633	7
0.35000	7
0.35367	8
0.35733	8
0.36100	7
0.36467	3
0.36833	2
0.37200	4
0.37567	5
0.37933	6
0.38300	8
0.38667	8
0.39033	9
0.39400	9
0.39767	9
0.40133	10
0.40500	10
0.40867	10
0.41233	11
0.41600	13
0.41967	12
0.42333	12
0.42700	11
0.43067	9
0.43433	10
0.43800	12
0.44167	13
0.44533	14
0.44900	12
0.45267	12
0.45633	11
0.46000	12
0.46367	13
0.46733	13
0.47100	13
0.47467	12
0.47833	13
0.48200	10
0.48567	8
0.48933	7
0.49300	7
0.49667	8
0.50033	10
0.50400	13
0.50767	15
0.51133	16
0.51500	17
0.51867	16
0.52233	15
0.52600	14
0.52967	12
0.53333	11
0.53700	9
0.54067	8
0.54433	8
0.54800	8
0.55167	8
0.55533	9
0.55900	10
0.56267	12
0.56633	14
0.57000	13
0.57367	11
0.57733	11
0.58100	10
0.58467	9
0.58833	8
0.59200	9
0.59567	11
0.59933	13
0.60300	14
0.60667	15
0.61033	15
0.61400	14
0.61767	14
0.62133	14
0.62500	16
0.62867	15
0.63233	16
0.63600	17
0.63967	19
0.64333	17
0.64700	18
0.65067	20
0.65433	21
0.65800	22
0.66167	23
0.66533	24
0.66900	22
0.67267	20
0.67633	19
0.68000	18
0.68367	18
0.68733	19
0.69100	19
0.69467	17
0.69833	17
0.70200	16
0.70567	18
0.70933	23
0.71300	26
0.71667	27
0.72033	25
0.72400	24
0.72767	26
0.73133	28
0.73500	28
0.73867	27
0.74233	27
0.74600	26
0.74967	26
0.75333	25
0.75700	25
0.76067	24
0.76433	24
0.76800	24
0.77167	23
0.77533	24
0.77900	25
0.78267	24
0.78633	24
0.79000	24
0.79367	23
0.79733	22
0.80100	23
0.80467	22
0.80833	22
0.81200	21
0.81567	21
0.81933	22
0.82300	24
0.82667	26
0.83033	27
0.83400	28
0.83767	30
0.84133	31
0.84500	29
0.84867	29
0.85233	28
0.85600	29
0.85967	31
0.86333	32
0.86700	32
0.87067	31
0.87433	30
0.87800	27
0.88167	27
0.88533	27
0.88900	28
0.89267	28
0.89633	27
0.90000	27
0.90367	26
0.90733	26
0.91100	26
0.91467	26
0.91833	25
0.92200	24
0.92567	25
0.92933	26
0.93300	27
0.93667	27
0.94033	26
0.94400	25
0.94767	27
0.95133	28
0.95500	30
0.95867	31
0.96233	31
0.96600	32
0.96967	32
0.97333	32
0.97700	33
0.98067	33
0.98433	34
0.98800	34
0.99167	31
0.99533	31
0.99900	32
1.00267	33
1.00633	32
1.01000	30
1.01367	30
1.01733	31
1.02100	28
1.02467	29
1.02833	32
1.03200	32
1.03567	30
1.03933	30
1.04300	31
1.04667	30
1.05033	29
1.05400	28
1.05767	30
1.06133	32
1.06500	33
1.06867	33
1.07233	30
1.07600	29
1.07967	32
1.08333	34
1.08700	34
1.09067	34
1.09433	32
1.09800	33
1.10167	36
1.10533	37
1.10900	35
1.11267	34
1.11633	33
1.12000	33
1.12367	34
1.12733	34
1.13100	33
1.13467	34
1.13833	36
1.14200	39
1.14567	41
1.14933	39
1.15300	38
1.15667	37
1.16033	38
1.16400	35
1.16767	31
1.17133	31
1.17500	31
1.17867	32
1.18233	35
1.18600	37
1.18967	36
1.19333	37
1.19700	36
1.20067	37
1.20433	39
1.20800	40
1.21167	41
1.21533	41
1.21900	41
1.22267	43
1.22633	44
1.23000	42
1.23367	41
1.23733	41
1.24100	41
1.24467	40
1.24833	40
1.25200	39
1.25567	39
1.25933	37
1.26300	37
1.26667	36
1.27033	35
1.27400	37
1.27767	38
1.28133	38
1.28500	39
1.28867	42
1.29233	42
1.29600	41
1.29967	41
1.30333	39
1.30700	39
1.31067	40
1.31433	42
1.31800	41
1.32167	38
1.32533	38
1.32900	41
1.33267	44
1.33633	44
1.34000	43
1.34367	42
1.34733	40
1.35100	38
1.35467	37
1.35833	36
1.36200	36
1.36567	36
1.36933	34
1.37300	34
1.37667	34
1.38033	36
1.38400	40
1.38767	41
1.39133	39
1.39500	37
1.39867	38
1.40233	39
1.40600	39
1.40967	37
1.41333	38
1.41700	41
1.42067	41
1.42433	39
1.42800	38
1.43167	39
1.43533	38
1.43900	40
1.44267	43
1.44633	46
1.45000	46
1.45367	44
1.45733	43
1.46100	43
1.46467	42
1.46833	41
1.47200	43
1.47567	42
1.47933	41
1.48300	41
1.48667	41
1.49033	41
1.49400	42
1.49767	41
1.50133	42
1.50500	43
1.50867	44
1.51233	44
1.51600	43
1.51967	44
1.52333	45
1.52700	45
1.53067	45
1.53433	45
1.53800	46
1.54167	47
1.54533	47
1.54900	46
1.55267	45
1.55633	43
1.56000	42
1.56367	40
1.56733	42
1.57100	42
1.57467	43
1.57833	44
1.58200	43
1.58567	43
1.58933	42
1.59300	42
1.59667	44
1.60033	49
1.60400	52
1.60767	53
1.61133	54
1.61500	56
1.61867	59
1.62233	58
1.62600	58
1.62967	57
1.63333	56
1.63700	57
1.64067	58
1.64433	57
1.64800	54
1.65167	52
1.65533	53
1.65900	54
1.66267	57
1.66633	59
1.67000	61
1.67367	62
1.67733	62
1.68100	64
1.68467	65
1.68833	67
1.69200	69
1.69567	71
1.69933	72
1.70300	72
1.70667	73
1.71033	73
1.71400	73
1.71767	71
1.72133	71
1.72500	71
1.72867	69
1.73233	69
1.73600	70
1.73967	70
1.74333	73
1.74700	74
1.75067	75
1.75433	76
1.75800	75
1.76167	74
1.76533	76
1.76900	78
1.77267	80
1.77633	80
1.78000	79
1.78367	79
1.78733	81
1.79100	83
1.79467	83
1.79833	83
1.80200	84
1.80567	84
1.80933	83
1.81300	85
1.81667	84
1.82033	86
1.82400	89
1.82767	89
1.83133	89
1.83500	87
1.83867	85
1.84233	86
1.84600	88
1.84967	91
1.85333	92
1.85700	91
1.86067	89
1.86433	87
1.86800	88
1.87167	90
1.87533	92
1.87900	93
1.88267	95
1.88633	97
1.89000	99
1.89367	101
1.89733	100
1.90100	98
1.90467	95
1.90833	93
1.91200	93
1.91567	93
1.91933	93
1.92300	93
1.92667	94
1.93033	94
1.93400	95
1.93767	94
1.94133	95
1.94500	95
1.94867	97
1.95233	100
1.95600	101
1.95967	100
1.96333	101
1.96700	102
1.97067	102
1.97433	102
1.97800	100
1.98167	98
1.98533	97
1.98900	97
1.99267	102
1.99633	106
2.00000	107
2.00367	107
2.00733	107
2.01100	107
2.01467	107
2.01833	107
2.02200	107
2.02567	107
2.02933	107
2.03300	106
2.03667	107
2.04033	108
2.04400	109
2.04767	110
2.05133	110
2.05500	110
2.05867	112
2.06233	116
2.06600	117
2.06967	119
2.07333	121
2.07700	120
2.08067	119
2.08433	118
2.08800	120
2.09167	122
2.09533	123
2.09900	125
2.10267	127
2.10633	130
2.11000	131
2.11367	130
2.11733	128
2.12100	126
2.12467	127
2.12833	129
2.13200	130
2.13567	132
2.13933	133
2.14300	135
2.14667	140
2.15033	140
2.15400	139
2.15767	139
2.16133	139
2.16500	140
2.16867	142
2.17233	142
2.17600	143
2.17967	144
2.18333	144
2.18700	145
2.19067	144
2.19433	143
2.19800	143
2.20167	145
2.20533	146
2.20900	147
2.21267	145
2.21633	144
2.22000	145
2.22367	148
2.22733	150
2.23100	153
2.23467	153
2.23833	153
2.24200	154
2.24567	154
2.24933	153
2.25300	154
2.25667	155
2.26033	155
2.26400	156
2.26767	155
2.27133	154
2.27500	155
2.27867	155
2.28233	157
2.28600	160
2.28967	162
2.29333	163
2.29700	165
2.30067	165
2.30433	166
2.30800	166
2.31167	165
2.31533	167
2.31900	168
2.32267	168
2.32633	168
2.33000	167
2.33367	166
2.33733	166
2.34100	167
2.34467	171
2.34833	174
2.35200	177
2.35567	180
2.35933	184
2.36300	184
2.36667	186
2.37033	188
2.37400	190
2.37767	189
2.38133	188
2.38500	186
2.38867	186
2.39233	185
2.39600	185
2.39967	186
2.40333	185
2.40700	184
2.41067	186
2.41433	186
2.41800	188
2.42167	192
2.42533	196
2.42900	199
2.43267	201
2.43633	202
2.44000	202
2.44367	228
2.44733	291
2.45100	359
2.45467	414
2.45833	450
2.46200	460
2.46567	453
2.46933	441
2.47300	429
2.47667	419
2.48033	411
2.48400	403
2.48767	395
2.49133	386
2.49500	372
2.49867	354
2.50233	340
2.50600	330
2.50967	322
2.51333	316
2.51700	311
2.52067	308
2.52433	306
2.52800	306
2.53167	308
2.53533	311
2.53900	314
2.54267	318
2.54633	322
2.55000	325
2.55367	326
2.55733	324
2.56100	318
2.56467	313
2.56833	307
2.57200	300
2.57567	293
2.57933	286
2.58300	281
2.58667	277
2.59033	272
2.59400	270
2.59767	265
2.60133	257
2.60500	245
2.60867	229
2.61233	213
2.61600	196
2.61967	177
2.62333	159
2.62700	143
2.63067	131
2.63433	122
2.63800	117
2.64167	117
2.64533	117
2.64900	120
2.65267	125
2.65633	132
2.66000	140
2.66367	150
2.66733	158
2.67100	168
2.67467	178
2.67833	185
2.68200	194
2.68567	203
2.68933	209
2.69300	217
2.69667	221
2.70033	223
2.70400	223
2.70767	225
2.71133	227
2.71500	229
2.71867	230
2.72233	230
2.72600	230
2.72967	229
2.73333	229
2.73700	231
2.74067	232
2.74433	234
2.74800	236
2.75167	235
2.75533	234
2.75900	235
2.76267	236
2.76633	238
2.77000	239
2.77367	238
2.77733	237
2.78100	237
2.78467	236
2.78833	235
2.79200	237
2.79567	238
2.79933	238
2.80300	237
2.80667	235
2.81033	235
2.81400	236
2.81767	243
2.82133	260
2.82500	298
2.82867	372
2.83233	507
2.83600	723
2.83967	1038
2.84333	1455
2.84700	1963
2.85067	2534
2.85433	3129
2.85800	3701
2.86167	4205
2.86533	4599
2.86900	4857
2.87267	4966
2.87633	4939
2.88000	4795
2.88367	4559
2.88733	4260
2.89100	3924
2.89467	3575
2.89833	3226
2.90200	2892
2.90567	2582
2.90933	2299
2.91300	2042
2.91667	1809
2.92033	1604
2.92400	1424
2.92767	1265
2.93133	1127
2.93500	1005
2.93867	898
2.94233	806
2.94600	726
2.94967	657
2.95333	598
2.95700	548
2.96067	506
2.96433	470
2.96800	439
2.97167	413
2.97533	390
2.97900	371
2.98267	354
2.98633	339
2.99000	323
2.99367	308
2.99733	297
3.00100	288
3.00467	282
3.00833	277
3.01200	270
3.01567	265
3.01933	262
3.02300	261
3.02667	260
3.03033	258
3.03400	256
3.03767	254
3.04133	251
3.04500	247
3.04867	238
3.05233	225
3.05600	216
3.05967	224
3.06333	247
3.06700	278
3.07067	311
3.07433	342
3.07800	370
3.08167	399
3.08533	428
3.08900	459
3.09267	494
3.09633	527
3.10000	559
3.10367	592
3.10733	622
3.11100	650
3.11467	672
3.11833	690
3.12200	705
3.12567	722
3.12933	737
3.13300	751
3.13667	760
3.14033	768
3.14400	773
3.14767	776
3.15133	777
3.15500	777
3.15867	780
3.16233	782
3.16600	782
3.16967	782
3.17333	783
3.17700	786
3.18067	788
3.18433	786
3.18800	786
3.19167	788
3.19533	790
3.19900	791
3.20267	791
3.20633	789
3.21000	790
3.21367	793
3.21733	795
3.22100	797
3.22467	797
3.22833	797
3.23200	799
3.23567	801
3.23933	801
3.24300	802
3.24667	802
3.25033	805
3.25400	809
3.25767	811
3.26133	813
3.26500	813
3.26867	812
3.27233	812
3.27600	810
3.27967	808
3.28333	806
3.28700	803
3.29067	799
3.29433	796
3.29800	792
3.30167	788
3.30533	784
3.30900	779
3.31267	775
3.31633	771
3.32000	765
3.32367	760
3.32733	755
3.33100	750
3.33467	744
3.33833	740
3.34200	735
3.34567	729
3.34933	723
3.35300	716
3.35667	709
3.36033	707
3.36400	704
3.36767	701
3.37133	696
3.37500	691
3.37867	686
3.38233	684
3.38600	681
3.38967	678
3.39333	675
3.39700	671
3.40067	668
3.40433	666
3.40800	665
3.41167	664
3.41533	665
3.41900	664
3.42267	661
3.42633	659
3.43000	656
3.43367	653
3.43733	652
3.44100	648
3.44467	645
3.44833	640
3.45200	638
3.45567	637
3.45933	635
3.46300	634
3.46667	633
3.47033	633
3.47400	632
3.47767	630
3.48133	630
3.48500	627
3.48867	623
3.49233	621
3.49600	621
3.49967	619
3.50333	616
3.50700	611
3.51067	608
3.51433	606
3.51800	604
3.52167	603
3.52533	600
3.52900	599
3.53267	598
3.53633	596
3.54000	593
3.54367	590
3.54733	590
3.55100	587
3.55467	583
3.55833	578
3.56200	574
3.56567	570
3.56933	569
3.57300	569
3.57667	568
3.58033	567
3.58400	564
3.58767	562
3.59133	560
3.59500	558
3.59867	556
3.60233	556
3.60600	556
3.60967	554
3.61333	550
3.61700	548
3.62067	545
3.62433	540
3.62800	535
3.63167	533
3.63533	532
3.63900	530
3.64267	527
3.64633	526
3.65000	525
3.65367	524
3.65733	522
3.66100	518
3.66467	516
3.66833	515
3.67200	514
3.67567	513
3.67933	512
3.68300	510
3.68667	505
3.69033	502
3.69400	500
3.69767	499
3.70133	499
3.70500	500
3.70867	497
3.71233	496
3.71600	495
3.71967	495
3.72333	493
3.72700	493
3.73067	495
3.73433	496
3.73800	494
3.74167	491
3.74533	487
3.74900	485
3.75267	483
3.75633	481
3.76000	480
3.76367	480
3.76733	479
3.77100	478
3.77467	478
3.77833	479
3.78200	480
3.78567	482
3.78933	480
3.79300	477
3.79667	473
3.80033	474
3.80400	473
3.80767	471
3.81133	470
3.81500	470
3.81867	470
3.82233	469
3.82600	466
3.82967	464
3.83333	464
3.83700	465
3.84067	466
3.84433	467
3.84800	467
3.85167	465
3.85533	462
3.85900	460
3.86267	460
3.86633	460
3.87000	461
3.87367	461
3.87733	458
3.88100	456
3.88467	454
3.88833	451
3.89200	450
3.89567	449
3.89933	450
3.90300	453
3.90667	452
3.91033	450
3.91400	448
3.91767	447
3.92133	447
3.92500	447
3.92867	445
3.93233	445
3.93600	446
3.93967	446
3.94333	447
3.94700	447
3.95067	445
3.95433	443
3.95800	441
3.96167	441
3.96533	439
3.96900	437
3.97267	436
3.97633	433
3.98000	434
3.98367	435
3.98733	435
3.99100	434
3.99467	429
3.99833	424

[Status Trace (Column Oven Temperature)]
Interval(msec)	1000
# of Points	240
Start Time(min)	0.001
End Time(min)	3.984
Intensity Units	
Intensity Multiplier	1
R.Time (min)	Intensity
0.00062	35.02
0.01728	35.03
0.03395	35.03
0.05062	35.04
0.06728	35.03
0.08395	35.03
0.10062	35.03
0.11728	35.02
0.13395	35.02
0.15062	35.01
0.16728	35.02
0.18395	35.01
0.20062	35.00
0.21728	35.01
0.23395	35.02
0.25062	35.03
0.26728	35.04
0.28395	35.04
0.30062	35.04
0.31728	35.05
0.33395	35.04
0.35062	35.05
0.36728	35.05
0.38395	35.05
0.40062	35.07
0.41728	35.06
0.43395	35.05
0.45062	35.04
0.46728	35.02
0.48395	35.01
0.50062	35.01
0.51728	35.00
0.53395	34.99
0.55062	34.99
0.56728	35.00
0.58395	35.01
0.60062	35.00
0.61728	35.01
0.63395	35.00
0.65062	35.00
0.66728	35.01
0.68395	35.01
0.70062	35.01
0.71728	34.99
0.73395	34.98
0.75062	34.98
0.76728	34.98
0.78395	34.98
0.80062	34.98
0.81728	34.98
0.83395	34.99
0.85062	34.98
0.86728	34.99
0.88395	34.98
0.90062	34.98
0.91728	35.00
0.93395	35.00
0.95062	35.00
0.96728	35.00
0.98395	34.99
1.00062	34.99
1.01728	34.99
1.03395	34.99
1.05062	35.00
1.06728	35.02
1.08395	35.02
1.10062	35.01
1.11728	35.00
1.13395	34.99
1.15062	34.99
1.16728	34.98
1.18395	34.97
1.20062	34.98
1.21728	34.98
1.23395	34.98
1.25062	34.98
1.26728	34.98
1.28395	34.98
1.30062	34.98
1.31728	34.99
1.33395	35.00
1.35062	35.01
1.36728	35.01
1.38395	35.01
1.40062	34.98
1.41728	34.97
1.43395	34.98
1.45062	34.99
1.46728	35.00
1.48395	35.00
1.50062	35.00
1.51728	35.01
1.53395	35.01
1.55062	35.01
1.56728	35.01
1.58395	35.01
1.60062	35.05
1.61728	35.14
1.63395	35.30
1.65062	35.51
1.66728	35.80
1.68395	36.16
1.70062	36.51
1.71728	36.85
1.73395	37.19
1.75062	37.54
1.76728	37.87
1.78395	38.20
1.80062	38.54
1.81728	38.88
1.83395	39.22
1.85062	39.51
1.86728	39.83
1.88395	40.14
1.90062	40.48
1.91728	40.79
1.93395	41.10
1.95062	41.45
1.96728	41.76
1.98395	42.09
2.00062	42.42
2.01728	42.75
2.03395	43.08
2.05062	43.40
2.06728	43.72
2.08395	44.05
2.10062	44.39
2.11728	44.70
2.13395	45.02
2.15062	45.35
2.16728	45.68
2.18395	46.01
2.20062	46.35
2.21728	46.71
2.23395	47.00
2.25062	47.37
2.26728	47.69
2.28395	48.01
2.30062	48.36
2.31728	48.69
2.33395	49.01
2.35062	49.34
2.36728	49.59
2.38395	49.70
2.40062	49.71
2.41728	49.72
2.43395	49.71
2.45062	49.71
2.46728	49.73
2.48395	49.72
2.50062	49.74
2.51728	49.76
2.53395	49.78
2.55062	49.78
2.56728	49.80
2.58395	49.82
2.60062	49.83
2.61728	49.81
2.63395	49.82
2.65062	49.83
2.66728	49.84
2.68395	49.84
2.70062	49.86
2.71728	49.88
2.73395	49.87
2.75062	49.85
2.76728	49.85
2.78395	49.87
2.80062	49.88
2.81728	49.89
2.83395	49.89
2.85062	49.89
2.86728	49.89
2.88395	49.91
2.90062	49.90
2.91728	49.91
2.93395	49.92
2.95062	49.93
2.96728	49.94
2.98395	49.97
3.00062	49.99
3.01728	50.00
3.03395	50.01
3.05062	50.02
3.06728	50.03
3.08395	50.04
3.10062	50.06
3.11728	50.07
3.13395	50.09
3.15062	50.10
3.16728	50.10
3.18395	50.10
3.20062	50.10
3.21728	50.09
3.23395	50.08
3.25062	50.07
3.26728	50.07
3.28395	50.07
3.30062	50.08
3.31728	50.07
3.33395	50.08
3.35062	50.07
3.36728	50.08
3.38395	50.08
3.40062	50.08
3.41728	50.08
3.43395	50.09
3.45062	50.08
3.46728	50.09
3.48395	50.09
3.50062	50.09
3.51728	50.08
3.53395	50.07
3.55062	50.05
3.56728	50.04
3.58395	50.05
3.60062	50.06
3.61728	50.06
3.63395	50.07
3.65062	50.08
3.66728	50.09
3.68395	50.09
3.70062	50.09
3.71728	50.08
3.73395	50.07
3.75062	50.08
3.76728	50.08
3.78395	50.08
3.80062	50.07
3.81728	50.08
3.83395	50.08
3.85062	50.07
3.86728	50.06
3.88395	50.06
3.90062	50.07
3.91728	50.07
3.93395	50.07
3.95062	50.08
3.96728	50.08
3.98395	50.08

[Status Trace (Injection Unit Temperature)]
Interval(msec)	1000
# of Points	240
Start Time(min)	0.001
End Time(min)	3.984
Intensity Units	
Intensity Multiplier	1
R.Time (min)	Intensity
0.00062	99.98
0.01728	99.98
0.03395	99.98
0.05062	99.98
0.06728	99.98
0.08395	99.98
0.10062	99.98
0.11728	99.98
0.13395	99.98
0.15062	99.98
0.16728	99.98
0.18395	99.98
0.20062	99.98
0.21728	99.98
0.23395	99.98
0.25062	99.98
0.26728	99.98
0.28395	99.98
0.30062	99.98
0.31728	99.99
0.33395	99.98
0.35062	99.98
0.36728	99.98
0.38395	99.98
0.40062	99.98
0.41728	99.98
0.43395	99.99
0.45062	99.98
0.46728	99.99
0.48395	99.99
0.50062	99.98
0.51728	99.99
0.53395	99.99
0.55062	99.98
0.56728	99.98
0.58395	99.99
0.60062	99.99
0.61728	99.98
0.63395	99.98
0.65062	99.98
0.66728	99.99
0.68395	99.98
0.70062	99.99
0.71728	99.98
0.73395	99.98
0.75062	99.98
0.76728	99.99
0.78395	99.99
0.80062	99.98
0.81728	99.98
0.83395	99.99
0.85062	99.98
0.86728	99.98
0.88395	99.98
0.90062	99.98
0.91728	99.99
0.93395	99.98
0.95062	99.98
0.96728	99.98
0.98395	99.98
1.00062	99.99
1.01728	99.99
1.03395	99.98
1.05062	99.98
1.06728	99.98
1.08395	99.99
1.10062	99.99
1.11728	99.98
1.13395	99.99
1.15062	99.98
1.16728	99.99
1.18395	99.98
1.20062	99.99
1.21728	99.98
1.23395	99.98
1.25062	99.98
1.26728	99.99
1.28395	99.98
1.30062	99.98
1.31728	99.99
1.33395	99.98
1.35062	99.99
1.36728	99.98
1.38395	99.98
1.40062	99.99
1.41728	99.98
1.43395	99.98
1.45062	99.98
1.46728	99.98
1.48395	99.98
1.50062	99.99
1.51728	99.98
1.53395	99.98
1.55062	99.98
1.56728	99.98
1.58395	99.98
1.60062	99.98
1.61728	99.98
1.63395	99.99
1.65062	99.99
1.66728	99.98
1.68395	99.98
1.70062	99.98
1.71728	99.99
1.73395	99.98
1.75062	99.98
1.76728	99.98
1.78395	99.98
1.80062	99.98
1.81728	99.98
1.83395	99.98
1.85062	99.98
1.86728	99.98
1.88395	99.98
1.90062	99.98
1.91728	99.98
1.93395	99.98
1.95062	99.98
1.96728	99.98
1.98395	99.97
2.00062	99.97
2.01728	99.97
2.03395	99.97
2.05062	99.98
2.06728	99.97
2.08395	99.97
2.10062	99.98
2.11728	99.97
2.13395	99.97
2.15062	99.97
2.16728	99.97
2.18395	99.97
2.20062	99.97
2.21728	99.97
2.23395	99.97
2.25062	99.97
2.26728	99.97
2.28395	99.97
2.30062	99.97
2.31728	99.97
2.33395	99.97
2.35062	99.97
2.36728	99.97
2.38395	99.97
2.40062	99.97
2.41728	99.97
2.43395	99.97
2.45062	99.97
2.46728	99.97
2.48395	99.97
2.50062	99.97
2.51728	99.97
2.53395	99.97
2.55062	99.97
2.56728	99.98
2.58395	99.98
2.60062	99.98
2.61728	99.98
2.63395	99.98
2.65062	99.98
2.66728	99.98
2.68395	99.98
2.70062	99.98
2.71728	99.99
2.73395	99.98
2.75062	99.99
2.76728	99.99
2.78395	99.99
2.80062	99.99
2.81728	99.99
2.83395	100.00
2.85062	100.00
2.86728	100.00
2.88395	100.00
2.90062	100.00
2.91728	100.00
2.93395	100.00
2.95062	100.01
2.96728	100.01
2.98395	100.01
3.00062	100.01
3.01728	100.01
3.03395	100.01
3.05062	100.01
3.06728	100.00
3.08395	100.01
3.10062	100.01
3.11728	100.01
3.13395	100.02
3.15062	100.01
3.16728	100.02
3.18395	100.02
3.20062	100.02
3.21728	100.02
3.23395	100.02
3.25062	100.03
3.26728	100.03
3.28395	100.03
3.30062	100.03
3.31728	100.03
3.33395	100.03
3.35062	100.03
3.36728	100.03
3.38395	100.03
3.40062	100.03
3.41728	100.03
3.43395	100.03
3.45062	100.04
3.46728	100.04
3.48395	100.03
3.50062	100.04
3.51728	100.03
3.53395	100.04
3.55062	100.03
3.56728	100.04
3.58395	100.04
3.60062	100.04
3.61728	100.04
3.63395	100.04
3.65062	100.04
3.66728	100.04
3.68395	100.04
3.70062	100.04
3.71728	100.04
3.73395	100.04
3.75062	100.04
3.76728	100.04
3.78395	100.04
3.80062	100.04
3.81728	100.04
3.83395	100.04
3.85062	100.04
3.86728	100.04
3.88395	100.04
3.90062	100.04
3.91728	100.04
3.93395	100.04
3.95062	100.04
3.96728	100.04
3.98395	100.04

[Status Trace (Carrier Gas Pressure)]
Interval(msec)	1000
# of Points	240
Start Time(min)	0.001
End Time(min)	3.984
Intensity Units	
Intensity Multiplier	1
R.Time (min)	Intensity
0.00062	58.00
0.01728	56.56
0.03395	56.01
0.05062	58.37
0.06728	59.89
0.08395	58.42
0.10062	57.97
0.11728	58.00
0.13395	58.01
0.15062	58.01
0.16728	58.00
0.18395	58.00
0.20062	58.00
0.21728	58.00
0.23395	58.00
0.25062	58.00
0.26728	58.00
0.28395	58.00
0.30062	58.00
0.31728	58.00
0.33395	58.00
0.35062	58.00
0.36728	58.00
0.38395	58.00
0.40062	58.00
0.41728	58.00
0.43395	58.00
0.45062	58.00
0.46728	58.00
0.48395	58.00
0.50062	58.00
0.51728	58.00
0.53395	58.00
0.55062	58.00
0.56728	58.00
0.58395	58.00
0.60062	58.00
0.61728	58.00
0.63395	58.00
0.65062	58.00
0.66728	58.00
0.68395	58.00
0.70062	58.00
0.71728	58.00
0.73395	58.00
0.75062	58.00
0.76728	58.00
0.78395	58.00
0.80062	58.00
0.81728	58.00
0.83395	58.00
0.85062	58.00
0.86728	58.00
0.88395	58.00
0.90062	58.00
0.91728	58.00
0.93395	58.00
0.95062	58.00
0.96728	58.00
0.98395	58.00
1.00062	58.00
1.01728	58.00
1.03395	58.00
1.05062	58.00
1.06728	58.00
1.08395	58.00
1.10062	58.00
1.11728	58.00
1.13395	58.00
1.15062	58.00
1.16728	58.00
1.18395	58.00
1.20062	58.00
1.21728	58.00
1.23395	58.00
1.25062	58.00
1.26728	58.00
1.28395	58.00
1.30062	58.00
1.31728	58.00
1.33395	58.00
1.35062	58.00
1.36728	58.00
1.38395	58.00
1.40062	58.00
1.41728	58.00
1.43395	58.00
1.45062	58.00
1.46728	58.00
1.48395	58.00
1.50062	58.00
1.51728	58.00
1.53395	58.00
1.55062	58.00
1.56728	58.00
1.58395	58.00
1.60062	58.00
1.61728	58.00
1.63395	58.00
1.65062	58.00
1.66728	58.01
1.68395	58.01
1.70062	58.00
1.71728	58.00
1.73395	58.00
1.75062	58.00
1.76728	58.00
1.78395	58.00
1.80062	58.00
1.81728	58.00
1.83395	58.00
1.85062	58.00
1.86728	58.00
1.88395	58.00
1.90062	58.00
1.91728	58.00
1.93395	58.00
1.95062	58.00
1.96728	58.00
1.98395	58.00
2.00062	58.00
2.01728	58.00
2.03395	58.00
2.05062	58.00
2.06728	58.00
2.08395	58.00
2.10062	58.00
2.11728	58.00
2.13395	58.00
2.15062	58.00
2.16728	58.00
2.18395	58.00
2.20062	58.00
2.21728	58.00
2.23395	58.00
2.25062	58.00
2.26728	58.00
2.28395	58.00
2.30062	58.00
2.31728	58.00
2.33395	58.00
2.35062	58.00
2.36728	58.00
2.38395	57.99
2.40062	57.99
2.41728	58.00
2.43395	58.00
2.45062	58.00
2.46728	58.00
2.48395	58.00
2.50062	58.00
2.51728	57.98
2.53395	57.99
2.55062	58.00
2.56728	58.00
2.58395	58.00
2.60062	58.00
2.61728	58.00
2.63395	58.00
2.65062	58.00
2.66728	58.00
2.68395	58.00
2.70062	58.00
2.71728	58.00
2.73395	58.00
2.75062	58.00
2.76728	58.00
2.78395	58.00
2.80062	58.00
2.81728	58.00
2.83395	58.00
2.85062	58.00
2.86728	58.00
2.88395	58.00
2.90062	58.00
2.91728	58.00
2.93395	58.00
2.95062	58.00
2.96728	58.00
2.98395	58.00
3.00062	58.00
3.01728	58.00
3.03395	58.00
3.05062	58.00
3.06728	58.00
3.08395	58.00
3.10062	58.00
3.11728	58.00
3.13395	58.00
3.15062	58.00
3.16728	58.00
3.18395	58.00
3.20062	58.00
3.21728	58.00
3.23395	58.00
3.25062	58.00
3.26728	58.00
3.28395	58.00
3.30062	58.00
3.31728	58.00
3.33395	58.00
3.35062	58.00
3.36728	58.00
3.38395	58.00
3.40062	58.00
3.41728	58.00
3.43395	58.00
3.45062	58.00
3.46728	58.00
3.48395	58.00
3.50062	58.00
3.51728	58.00
3.53395	58.00
3.55062	58.00
3.56728	58.00
3.58395	58.00
3.60062	58.00
3.61728	58.00
3.63395	58.00
3.65062	58.00
3.66728	58.00
3.68395	58.00
3.70062	58.00
3.71728	58.00
3.73395	58.00
3.75062	58.00
3.76728	58.00
3.78395	58.00
3.80062	58.00
3.81728	58.00
3.83395	58.00
3.85062	58.00
3.86728	58.00
3.88395	58.00
3.90062	58.00
3.91728	58.00
3.93395	58.00
3.95062	58.00
3.96728	58.00
3.98395	58.00

[Status Trace (Carrier Gas Flow)]
Interval(msec)	1000
# of Points	240
Start Time(min)	0.001
End Time(min)	3.984
Intensity Units	
Intensity Multiplier	1
R.Time (min)	Intensity
0.00062	34.52
0.01728	34.02
0.03395	34.54
0.05062	34.55
0.06728	34.49
0.08395	34.52
0.10062	34.52
0.11728	34.52
0.13395	34.52
0.15062	34.52
0.16728	34.52
0.18395	34.52
0.20062	34.52
0.21728	34.52
0.23395	34.52
0.25062	34.52
0.26728	34.52
0.28395	34.52
0.30062	34.52
0.31728	34.52
0.33395	34.52
0.35062	34.52
0.36728	34.51
0.38395	34.52
0.40062	34.52
0.41728	34.51
0.43395	34.52
0.45062	34.52
0.46728	34.52
0.48395	34.52
0.50062	34.51
0.51728	34.51
0.53395	34.52
0.55062	34.52
0.56728	34.52
0.58395	34.52
0.60062	34.52
0.61728	34.52
0.63395	34.51
0.65062	34.52
0.66728	34.52
0.68395	34.52
0.70062	34.52
0.71728	34.52
0.73395	34.52
0.75062	34.52
0.76728	34.52
0.78395	34.52
0.80062	34.52
0.81728	34.51
0.83395	34.52
0.85062	34.52
0.86728	34.52
0.88395	34.52
0.90062	34.52
0.91728	34.52
0.93395	34.52
0.95062	34.52
0.96728	34.52
0.98395	34.52
1.00062	34.52
1.01728	34.53
1.03395	34.51
1.05062	34.52
1.06728	34.53
1.08395	34.53
1.10062	34.52
1.11728	34.52
1.13395	34.51
1.15062	34.51
1.16728	34.51
1.18395	34.52
1.20062	34.53
1.21728	34.51
1.23395	34.52
1.25062	34.52
1.26728	34.52
1.28395	34.52
1.30062	34.52
1.31728	34.52
1.33395	34.52
1.35062	34.52
1.36728	34.52
1.38395	34.52
1.40062	34.53
1.41728	34.53
1.43395	34.53
1.45062	34.52
1.46728	34.52
1.48395	34.52
1.50062	34.52
1.51728	34.51
1.53395	34.52
1.55062	34.52
1.56728	34.52
1.58395	34.52
1.60062	34.53
1.61728	34.51
1.63395	34.52
1.65062	34.52
1.66728	34.52
1.68395	34.51
1.70062	34.53
1.71728	34.52
1.73395	34.51
1.75062	34.52
1.76728	34.52
1.78395	34.51
1.80062	34.53
1.81728	34.52
1.83395	34.52
1.85062	34.52
1.86728	34.52
1.88395	34.52
1.90062	34.52
1.91728	34.52
1.93395	34.52
1.95062	34.52
1.96728	34.52
1.98395	34.51
2.00062	34.52
2.01728	34.52
2.03395	34.52
2.05062	34.53
2.06728	34.52
2.08395	34.52
2.10062	34.51
2.11728	34.52
2.13395	34.52
2.15062	34.52
2.16728	34.52
2.18395	34.52
2.20062	34.52
2.21728	34.52
2.23395	34.52
2.25062	34.52
2.26728	34.52
2.28395	34.52
2.30062	34.52
2.31728	34.52
2.33395	34.52
2.35062	34.52
2.36728	34.52
2.38395	34.52
2.40062	34.52
2.41728	34.52
2.43395	34.52
2.45062	34.51
2.46728	34.52
2.48395	34.52
2.50062	34.52
2.51728	34.52
2.53395	34.52
2.55062	34.52
2.56728	34.51
2.58395	34.52
2.60062	34.52
2.61728	34.52
2.63395	34.52
2.65062	34.51
2.66728	34.52
2.68395	34.52
2.70062	34.52
2.71728	34.52
2.73395	34.52
2.75062	34.52
2.76728	34.52
2.78395	34.52
2.80062	34.52
2.81728	34.52
2.83395	34.52
2.85062	34.52
2.86728	34.52
2.88395	34.51
2.90062	34.52
2.91728	34.52
2.93395	34.51
2.95062	34.52
2.96728	34.51
2.98395	34.51
3.00062	34.51
3.01728	34.52
3.03395	34.51
3.05062	34.52
3.06728	34.52
3.08395	34.52
3.10062	34.53
3.11728	34.52
3.13395	34.53
3.15062	34.52
3.16728	34.52
3.18395	34.52
3.20062	34.52
3.21728	34.51
3.23395	34.51
3.25062	34.52
3.26728	34.52
3.28395	34.52
3.30062	34.53
3.31728	34.53
3.33395	34.51
3.35062	34.51
3.36728	34.52
3.38395	34.53
3.40062	34.53
3.41728	34.52
3.43395	34.52
3.45062	34.52
3.46728	34.52
3.48395	34.52
3.50062	34.53
3.51728	34.52
3.53395	34.52
3.55062	34.52
3.56728	34.52
3.58395	34.52
3.60062	34.52
3.61728	34.52
3.63395	34.52
3.65062	34.52
3.66728	34.51
3.68395	34.52
3.70062	34.52
3.71728	34.52
3.73395	34.52
3.75062	34.52
3.76728	34.52
3.78395	34.52
3.80062	34.52
3.81728	34.51
3.83395	34.52
3.85062	34.52
3.86728	34.52
3.88395	34.52
3.90062	34.52
3.91728	34.52
3.93395	34.52
3.95062	34.52
3.96728	34.52
3.98395	34.52

[Status Trace (Column Flow)]
Interval(msec)	1000
# of Points	240
Start Time(min)	0.001
End Time(min)	3.984
Intensity Units	
Intensity Multiplier	1
R.Time (min)	Intensity
0.00062	5.57
0.01728	5.40
0.03395	5.34
0.05062	5.61
0.06728	5.80
0.08395	5.62
0.10062	5.57
0.11728	5.57
0.13395	5.57
0.15062	5.57
0.16728	5.57
0.18395	5.57
0.20062	5.57
0.21728	5.57
0.23395	5.57
0.25062	5.57
0.26728	5.57
0.28395	5.57
0.30062	5.57
0.31728	5.57
0.33395	5.57
0.35062	5.57
0.36728	5.57
0.38395	5.57
0.40062	5.57
0.41728	5.57
0.43395	5.57
0.45062	5.57
0.46728	5.57
0.48395	5.57
0.50062	5.57
0.51728	5.57
0.53395	5.57
0.55062	5.57
0.56728	5.57
0.58395	5.57
0.60062	5.57
0.61728	5.57
0.63395	5.57
0.65062	5.57
0.66728	5.57
0.68395	5.57
0.70062	5.57
0.71728	5.57
0.73395	5.57
0.75062	5.57
0.76728	5.57
0.78395	5.57
0.80062	5.57
0.81728	5.57
0.83395	5.57
0.85062	5.57
0.86728	5.57
0.88395	5.57
0.90062	5.57
0.91728	5.57
0.93395	5.57
0.95062	5.57
0.96728	5.57
0.98395	5.57
1.00062	5.57
1.01728	5.57
1.03395	5.57
1.05062	5.57
1.06728	5.57
1.08395	5.57
1.10062	5.57
1.11728	5.57
1.13395	5.57
1.15062	5.57
1.16728	5.57
1.18395	5.57
1.20062	5.57
1.21728	5.57
1.23395	5.57
1.25062	5.57
1.26728	5.57
1.28395	5.57
1.30062	5.57
1.31728	5.57
1.33395	5.57
1.35062	5.57
1.36728	5.57
1.38395	5.57
1.40062	5.57
1.41728	5.57
1.43395	5.57
1.45062	5.57
1.46728	5.57
1.48395	5.57
1.50062	5.57
1.51728	5.57
1.53395	5.57
1.55062	5.57
1.56728	5.57
1.58395	5.57
1.60062	5.57
1.61728	5.57
1.63395	5.56
1.65062	5.56
1.66728	5.55
1.68395	5.54
1.70062	5.53
1.71728	5.51
1.73395	5.50
1.75062	5.49
1.76728	5.48
1.78395	5.47
1.80062	5.46
1.81728	5.45
1.83395	5.44
1.85062	5.43
1.86728	5.42
1.88395	5.41
1.90062	5.40
1.91728	5.39
1.93395	5.38
1.95062	5.37
1.96728	5.36
1.98395	5.36
2.00062	5.34
2.01728	5.33
2.03395	5.33
2.05062	5.31
2.06728	5.31
2.08395	5.30
2.10062	5.29
2.11728	5.28
2.13395	5.27
2.15062	5.26
2.16728	5.25
2.18395	5.24
2.20062	5.23
2.21728	5.22
2.23395	5.21
2.25062	5.20
2.26728	5.19
2.28395	5.18
2.30062	5.17
2.31728	5.16
2.33395	5.15
2.35062	5.14
2.36728	5.14
2.38395	5.13
2.40062	5.13
2.41728	5.13
2.43395	5.13
2.45062	5.13
2.46728	5.13
2.48395	5.13
2.50062	5.13
2.51728	5.13
2.53395	5.13
2.55062	5.13
2.56728	5.13
2.58395	5.13
2.60062	5.13
2.61728	5.13
2.63395	5.13
2.65062	5.13
2.66728	5.13
2.68395	5.13
2.70062	5.13
2.71728	5.13
2.73395	5.13
2.75062	5.13
2.76728	5.13
2.78395	5.13
2.80062	5.13
2.81728	5.13
2.83395	5.13
2.85062	5.13
2.86728	5.13
2.88395	5.13
2.90062	5.13
2.91728	5.13
2.93395	5.13
2.95062	5.13
2.96728	5.13
2.98395	5.13
3.00062	5.13
3.01728	5.13
3.03395	5.13
3.05062	5.12
3.06728	5.12
3.08395	5.12
3.10062	5.12
3.11728	5.12
3.13395	5.12
3.15062	5.12
3.16728	5.12
3.18395	5.12
3.20062	5.12
3.21728	5.12
3.23395	5.12
3.25062	5.12
3.26728	5.12
3.28395	5.12
3.30062	5.12
3.31728	5.12
3.33395	5.12
3.35062	5.12
3.36728	5.12
3.38395	5.12
3.40062	5.12
3.41728	5.12
3.43395	5.12
3.45062	5.12
3.46728	5.12
3.48395	5.12
3.50062	5.12
3.51728	5.12
3.53395	5.12
3.55062	5.12
3.56728	5.12
3.58395	5.12
3.60062	5.12
3.61728	5.12
3.63395	5.12
3.65062	5.12
3.66728	5.12
3.68395	5.12
3.70062	5.12
3.71728	5.12
3.73395	5.12
3.75062	5.12
3.76728	5.12
3.78395	5.12
3.80062	5.12
3.81728	5.12
3.83395	5.12
3.85062	5.12
3.86728	5.12
3.88395	5.12
3.90062	5.12
3.91728	5.12
3.93395	5.12
3.95062	5.12
3.96728	5.12
3.98395	5.12

[Status Trace (Linear Velocity)]
Interval(msec)	1000
# of Points	240
Start Time(min)	0.001
End Time(min)	3.984
Intensity Units	
Intensity Multiplier	1
R.Time (min)	Intensity
0.00062	39.03
0.01728	38.08
0.03395	37.72
0.05062	39.26
0.06728	40.26
0.08395	39.30
0.10062	39.01
0.11728	39.03
0.13395	39.03
0.15062	39.03
0.16728	39.03
0.18395	39.03
0.20062	39.03
0.21728	39.03
0.23395	39.03
0.25062	39.03
0.26728	39.03
0.28395	39.03
0.30062	39.03
0.31728	39.03
0.33395	39.03
0.35062	39.02
0.36728	39.02
0.38395	39.02
0.40062	39.02
0.41728	39.02
0.43395	39.02
0.45062	39.02
0.46728	39.03
0.48395	39.03
0.50062	39.03
0.51728	39.03
0.53395	39.03
0.55062	39.03
0.56728	39.03
0.58395	39.03
0.60062	39.03
0.61728	39.03
0.63395	39.03
0.65062	39.03
0.66728	39.03
0.68395	39.03
0.70062	39.03
0.71728	39.03
0.73395	39.03
0.75062	39.03
0.76728	39.03
0.78395	39.03
0.80062	39.03
0.81728	39.03
0.83395	39.03
0.85062	39.03
0.86728	39.03
0.88395	39.03
0.90062	39.03
0.91728	39.03
0.93395	39.03
0.95062	39.03
0.96728	39.03
0.98395	39.03
1.00062	39.03
1.01728	39.03
1.03395	39.03
1.05062	39.03
1.06728	39.03
1.08395	39.03
1.10062	39.03
1.11728	39.03
1.13395	39.03
1.15062	39.03
1.16728	39.03
1.18395	39.03
1.20062	39.03
1.21728	39.03
1.23395	39.03
1.25062	39.03
1.26728	39.03
1.28395	39.03
1.30062	39.03
1.31728	39.03
1.33395	39.03
1.35062	39.03
1.36728	39.03
1.38395	39.03
1.40062	39.03
1.41728	39.03
1.43395	39.03
1.45062	39.03
1.46728	39.03
1.48395	39.03
1.50062	39.03
1.51728	39.03
1.53395	39.03
1.55062	39.03
1.56728	39.03
1.58395	39.03
1.60062	39.02
1.61728	39.02
1.63395	39.00
1.65062	38.98
1.66728	38.96
1.68395	38.92
1.70062	38.88
1.71728	38.85
1.73395	38.82
1.75062	38.79
1.76728	38.75
1.78395	38.73
1.80062	38.69
1.81728	38.66
1.83395	38.63
1.85062	38.60
1.86728	38.57
1.88395	38.54
1.90062	38.51
1.91728	38.48
1.93395	38.45
1.95062	38.42
1.96728	38.39
1.98395	38.36
2.00062	38.33
2.01728	38.30
2.03395	38.27
2.05062	38.24
2.06728	38.21
2.08395	38.18
2.10062	38.15
2.11728	38.12
2.13395	38.09
2.15062	38.06
2.16728	38.03
2.18395	38.00
2.20062	37.97
2.21728	37.94
2.23395	37.91
2.25062	37.88
2.26728	37.85
2.28395	37.82
2.30062	37.79
2.31728	37.76
2.33395	37.74
2.35062	37.70
2.36728	37.68
2.38395	37.67
2.40062	37.66
2.41728	37.67
2.43395	37.67
2.45062	37.67
2.46728	37.67
2.48395	37.67
2.50062	37.67
2.51728	37.66
2.53395	37.66
2.55062	37.66
2.56728	37.66
2.58395	37.66
2.60062	37.66
2.61728	37.66
2.63395	37.66
2.65062	37.66
2.66728	37.66
2.68395	37.66
2.70062	37.66
2.71728	37.65
2.73395	37.66
2.75062	37.66
2.76728	37.66
2.78395	37.66
2.80062	37.65
2.81728	37.65
2.83395	37.65
2.85062	37.65
2.86728	37.65
2.88395	37.65
2.90062	37.65
2.91728	37.65
2.93395	37.65
2.95062	37.65
2.96728	37.65
2.98395	37.65
3.00062	37.64
3.01728	37.64
3.03395	37.64
3.05062	37.64
3.06728	37.64
3.08395	37.64
3.10062	37.64
3.11728	37.64
3.13395	37.64
3.15062	37.64
3.16728	37.63
3.18395	37.63
3.20062	37.64
3.21728	37.64
3.23395	37.64
3.25062	37.64
3.26728	37.64
3.28395	37.64
3.30062	37.64
3.31728	37.64
3.33395	37.64
3.35062	37.64
3.36728	37.64
3.38395	37.64
3.40062	37.64
3.41728	37.64
3.43395	37.64
3.45062	37.64
3.46728	37.64
3.48395	37.64
3.50062	37.64
3.51728	37.64
3.53395	37.64
3.55062	37.64
3.56728	37.64
3.58395	37.64
3.60062	37.64
3.61728	37.64
3.63395	37.64
3.65062	37.64
3.66728	37.64
3.68395	37.64
3.70062	37.64
3.71728	37.64
3.73395	37.64
3.75062	37.64
3.76728	37.64
3.78395	37.64
3.80062	37.64
3.81728	37.64
3.83395	37.64
3.85062	37.64
3.86728	37.64
3.88395	37.64
3.90062	37.64
3.91728	37.64
3.93395	37.64
3.95062	37.64
3.96728	37.64
3.98395	37.64

