[Header]
Application Name	LabSolutions
Version	5.110
Data File Name	C:\Users\User\Desktop\GC Analyses\Jack\Nachusa Grasslands Sampling\T0 Timepoint July 12th\T0_07122022_067.gcd
Output Date	3/14/2023
Output Time	3:40:38 PM

[File Information]
Type	Data File
Generated	3/7/2023 9:14:32 PM
Generated by	System Administrator
Modified	3/7/2023 9:21:19 PM
Modified by	System Administrator

[Sample Information]
Operator Name	System Administrator
Acquired	3/7/2023 9:17:18 PM
Sample Type	0:Unknown
Level	0
Sample Name	067
Sample ID	067
ISTD Amount1	1
ISTD Amount2	1
ISTD Amount3	1
ISTD Amount4	1
ISTD Amount5	1
ISTD Amount6	1
ISTD Amount7	1
ISTD Amount8	1
ISTD Amount9	1
ISTD Amount10	1
ISTD Amount11	1
ISTD Amount12	1
ISTD Amount13	1
ISTD Amount14	1
ISTD Amount15	1
ISTD Amount16	1
ISTD Amount17	1
ISTD Amount18	1
ISTD Amount19	1
ISTD Amount20	1
ISTD Amount21	1
ISTD Amount22	1
ISTD Amount23	1
ISTD Amount24	1
ISTD Amount25	1
ISTD Amount26	1
ISTD Amount27	1
ISTD Amount28	1
ISTD Amount29	1
ISTD Amount30	1
ISTD Amount31	1
ISTD Amount32	1
Sample Amount	1
Dilution Factor	1
Vial#	66
Injection Volume	1
Injection Count	1
Bar Code	

[Original Files]
Data File	C:\Users\User\Desktop\GC Analyses\Jack\Nachusa Grasslands Sampling\T0 Timepoint July 12th\T0_07122022_067.gcd
Method File	C:\LabSolutions\Data\GHG_4min_2022\ghg3_togas_w_acet_4 min_new_int.gcm
Batch File	C:\LabSolutions\Data\AutoSamplerTesting\T0_07122022.gcb
Report Format File	c:\LabSolutions\System\DEFAULT.lsr

[File Description]


[Configuration]
Instrument Name	C0B7VH3-Instrument1
Instrument #	1
Line #	1
# of Detectors	3
Detector ID	DET#1	DET#2	DET#3
Detector Name	FID	PTCD	ECD
# of Channels	1	1	1

[Peak Table(Ch1)]
# of Peaks	3
Peak#	R.Time	I.Time	F.Time	Area	Height	A/H	Conc.	Mark	ID#	Name	k'	Plate #	Plate Ht.	Tailing	Resolution	Sep.Factor	Area Ratio	Height Ratio	Conc. %	Norm Conc.
1	1.476	1.439	1.538	36929	17607	2.097	260.717	   	1	CO	0.000	9493	15.802	1.320	0.000	0.000	0	0	39.557	39.557
2	1.567	1.538	1.633	4989	2366	2.109	96.469	 V 	2	CH4	0.062	10083	14.876	0.000	1.490	0.000	0	0	14.637	14.637
3	1.996	1.952	2.462	1202942	568433	2.116	301.906	   	3	CO2	0.353	17250	8.696	1.297	6.962	5.680	0	0	45.806	45.806

[Peak Table(Ch2)]
# of Peaks	0

[Peak Table(Ch3)]
# of Peaks	6
Peak#	R.Time	I.Time	F.Time	Area	Height	A/H	Conc.	Mark	ID#	Name	k'	Plate #	Plate Ht.	Tailing	Resolution	Sep.Factor	Area Ratio	Height Ratio	Conc. %	Norm Conc.
1	0.731	0.467	0.889	277	22	12.684	0.000	   			0.000	451	332.682	0.802	0.000	0.000	0	0	0.000	0.000
2	2.462	2.183	2.521	2205	431	5.120	0.000	   			2.366	6588	22.770	0.000	13.359	0.000	0	0	0.000	0.000
3	2.546	2.521	2.634	1069	239	4.465	0.000	 V 			2.482	2659	56.419	0.000	0.529	1.049	0	0	0.000	0.000
4	2.693	2.649	2.748	452	98	4.626	0.000	   			2.682	791	189.543	0.000	0.505	1.081	0	0	0.000	0.000
5	2.873	2.748	3.096	19215	4844	3.966	0.491	 V 	1	N2O	2.928	13173	11.387	1.636	0.744	1.092	0	0	100.000	100.000
6	3.232	3.104	3.995	13012	501	25.980	0.000	   	2	SF6	3.419	253	591.753	3.385	0.788	1.168	0	0	0.000	0.000

[Compound Results(Ch1)]
# of IDs	6
ID#	Name	R.Time	Area	Height	Conc.	Curve	3rd	2nd	1st	Constant	Area Ratio	Height Ratio	Conc. %	Norm Conc.
1	CO	1.476	36929	17607	260.717	Linear	0.000000e+00	0.000000e+00	1.416423e+002	0.000000e+00	0	0	39.557	39.557
2	CH4	1.567	4989	2366	96.469	Linear	0.000000e+00	0.000000e+00	5.171738e+001	0.000000e+00	0	0	14.637	14.637
3	CO2	1.996	1202942	568433	301.906	Linear	0.000000e+00	0.000000e+00	3.984494e+003	0.000000e+00	0	0	45.806	45.806
4	Ethylene	0.000	0	0	0.000	Linear	0.000000e+00	0.000000e+00	0.000000e+00	0.000000e+00	0	0	0.000	0.000
5	Acetylene	0.000	0	0	0.000	Linear	0.000000e+00	0.000000e+00	0.000000e+00	0.000000e+00	0	0	0.000	0.000
6	Ethane	0.000	0	0	0.000	Linear	0.000000e+00	0.000000e+00	0.000000e+00	0.000000e+00	0	0	0.000	0.000

[Compound Results(Ch2)]
# of IDs	5
ID#	Name	R.Time	Area	Height	Conc.	Curve	3rd	2nd	1st	Constant	Area Ratio	Height Ratio	Conc. %	Norm Conc.
1	Hydrogen	0.000	0	0	0.000	Linear	0.000000e+00	0.000000e+00	0.000000e+00	0.000000e+00	0	0	0.000	0.000
2	Oxygen	0.000	0	0	0.000	Linear	0.000000e+00	0.000000e+00	0.000000e+00	0.000000e+00	0	0	0.000	0.000
3	Nitrogen	0.000	0	0	0.000	Linear	0.000000e+00	0.000000e+00	0.000000e+00	0.000000e+00	0	0	0.000	0.000
4	Methane	0.000	0	0	0.000	Linear	0.000000e+00	0.000000e+00	0.000000e+00	0.000000e+00	0	0	0.000	0.000
5	Carbon Monoxide	0.000	0	0	0.000	Linear	0.000000e+00	0.000000e+00	0.000000e+00	0.000000e+00	0	0	0.000	0.000

[Compound Results(Ch3)]
# of IDs	2
ID#	Name	R.Time	Area	Height	Conc.	Curve	3rd	2nd	1st	Constant	Area Ratio	Height Ratio	Conc. %	Norm Conc.
1	N2O	2.873	19215	4844	0.491	Linear	0.000000e+00	0.000000e+00	3.915173e+004	0.000000e+00	0	0	100.000	100.000
2	SF6	3.232	13012	501	0.000	Linear	0.000000e+00	0.000000e+00	0.000000e+00	0.000000e+00	0	0	0.000	0.000

[Group Results(Ch1)]
# of Groups	0

[Group Results(Ch2)]
# of Groups	0

[Group Results(Ch3)]
# of Groups	0

[Chromatogram (Ch1)]
Interval(msec)	220
# of Points	1091
Start Time(min)	0.002
End Time(min)	3.998
R.Time (min)	Intensity
0.00167	-30
0.00533	-35
0.00900	-37
0.01267	-38
0.01633	-34
0.02000	-29
0.02367	-29
0.02733	-31
0.03100	-31
0.03467	-27
0.03833	-21
0.04200	-16
0.04567	-15
0.04933	-15
0.05300	-12
0.05667	-10
0.06033	-10
0.06400	-13
0.06767	-15
0.07133	-11
0.07500	-5
0.07867	-0
0.08233	2
0.08600	5
0.08967	5
0.09333	1
0.09700	-8
0.10067	-17
0.10433	-25
0.10800	-32
0.11167	-37
0.11533	-34
0.11900	-24
0.12267	-14
0.12633	-8
0.13000	-5
0.13367	-7
0.13733	-10
0.14100	-7
0.14467	-2
0.14833	1
0.15200	2
0.15567	3
0.15933	8
0.16300	11
0.16667	16
0.17033	22
0.17400	28
0.17767	32
0.18133	34
0.18500	35
0.18867	31
0.19233	24
0.19600	19
0.19967	15
0.20333	11
0.20700	8
0.21067	6
0.21433	5
0.21800	6
0.22167	3
0.22533	-2
0.22900	-6
0.23267	-7
0.23633	-6
0.24000	-0
0.24367	6
0.24733	7
0.25100	7
0.25467	5
0.25833	2
0.26200	0
0.26567	-0
0.26933	5
0.27300	12
0.27667	15
0.28033	13
0.28400	10
0.28767	6
0.29133	4
0.29500	1
0.29867	-1
0.30233	-4
0.30600	-7
0.30967	-9
0.31333	-5
0.31700	1
0.32067	4
0.32433	6
0.32800	7
0.33167	9
0.33533	10
0.33900	11
0.34267	8
0.34633	1
0.35000	-3
0.35367	-5
0.35733	-10
0.36100	-17
0.36467	-21
0.36833	-22
0.37200	-21
0.37567	-20
0.37933	-19
0.38300	-16
0.38667	-17
0.39033	-20
0.39400	-24
0.39767	-23
0.40133	-19
0.40500	-14
0.40867	-10
0.41233	-8
0.41600	-6
0.41967	-5
0.42333	-7
0.42700	-11
0.43067	-12
0.43433	-6
0.43800	1
0.44167	5
0.44533	4
0.44900	-0
0.45267	0
0.45633	6
0.46000	12
0.46367	13
0.46733	8
0.47100	2
0.47467	-1
0.47833	-2
0.48200	-0
0.48567	0
0.48933	-1
0.49300	-2
0.49667	-1
0.50033	-2
0.50400	-5
0.50767	-9
0.51133	-11
0.51500	-10
0.51867	-8
0.52233	-8
0.52600	-6
0.52967	-4
0.53333	-6
0.53700	-9
0.54067	-8
0.54433	-5
0.54800	-4
0.55167	-5
0.55533	-7
0.55900	-9
0.56267	-11
0.56633	-10
0.57000	-5
0.57367	4
0.57733	12
0.58100	17
0.58467	20
0.58833	22
0.59200	22
0.59567	18
0.59933	13
0.60300	6
0.60667	-1
0.61033	-6
0.61400	-8
0.61767	-6
0.62133	4
0.62500	15
0.62867	26
0.63233	29
0.63600	24
0.63967	12
0.64333	-1
0.64700	-9
0.65067	-17
0.65433	-26
0.65800	-30
0.66167	-31
0.66533	-29
0.66900	-22
0.67267	-15
0.67633	-7
0.68000	-2
0.68367	-1
0.68733	-7
0.69100	-14
0.69467	-20
0.69833	-22
0.70200	-17
0.70567	-5
0.70933	7
0.71300	15
0.71667	22
0.72033	27
0.72400	32
0.72767	38
0.73133	41
0.73500	35
0.73867	22
0.74233	7
0.74600	-10
0.74967	-26
0.75333	-36
0.75700	-39
0.76067	-39
0.76433	-38
0.76800	-34
0.77167	-27
0.77533	-19
0.77900	-11
0.78267	-5
0.78633	-5
0.79000	-6
0.79367	-6
0.79733	-4
0.80100	-2
0.80467	-1
0.80833	-0
0.81200	3
0.81567	7
0.81933	9
0.82300	9
0.82667	10
0.83033	9
0.83400	5
0.83767	-2
0.84133	-8
0.84500	-9
0.84867	-4
0.85233	2
0.85600	7
0.85967	7
0.86333	6
0.86700	7
0.87067	8
0.87433	7
0.87800	3
0.88167	-2
0.88533	-4
0.88900	-6
0.89267	-7
0.89633	-6
0.90000	-3
0.90367	-2
0.90733	-4
0.91100	-7
0.91467	-8
0.91833	-8
0.92200	-7
0.92567	-2
0.92933	9
0.93300	22
0.93667	29
0.94033	27
0.94400	19
0.94767	6
0.95133	-6
0.95500	-12
0.95867	-15
0.96233	-15
0.96600	-13
0.96967	-12
0.97333	-13
0.97700	-17
0.98067	-19
0.98433	-19
0.98800	-15
0.99167	-11
0.99533	-7
0.99900	-5
1.00267	-5
1.00633	-5
1.01000	-5
1.01367	-4
1.01733	-5
1.02100	-7
1.02467	-7
1.02833	-6
1.03200	-8
1.03567	-11
1.03933	-14
1.04300	-16
1.04667	-15
1.05033	-11
1.05400	-7
1.05767	-6
1.06133	-2
1.06500	1
1.06867	1
1.07233	-2
1.07600	-3
1.07967	-5
1.08333	-6
1.08700	-6
1.09067	-3
1.09433	-1
1.09800	-0
1.10167	-2
1.10533	-7
1.10900	-10
1.11267	-14
1.11633	-19
1.12000	-23
1.12367	-24
1.12733	-23
1.13100	-20
1.13467	-14
1.13833	-4
1.14200	5
1.14567	7
1.14933	-2
1.15300	-17
1.15667	-30
1.16033	-36
1.16400	-36
1.16767	-35
1.17133	-36
1.17500	-38
1.17867	-37
1.18233	-30
1.18600	-20
1.18967	-13
1.19333	-13
1.19700	-17
1.20067	-20
1.20433	-18
1.20800	-15
1.21167	-14
1.21533	-16
1.21900	-20
1.22267	-23
1.22633	-24
1.23000	-23
1.23367	-23
1.23733	-23
1.24100	-25
1.24467	-31
1.24833	-35
1.25200	-37
1.25567	-38
1.25933	-37
1.26300	-39
1.26667	-40
1.27033	-44
1.27400	-51
1.27767	-58
1.28133	-61
1.28500	-61
1.28867	-57
1.29233	-49
1.29600	-39
1.29967	-31
1.30333	-30
1.30700	-32
1.31067	-33
1.31433	-35
1.31800	-37
1.32167	-37
1.32533	-37
1.32900	-35
1.33267	-32
1.33633	-27
1.34000	-19
1.34367	-16
1.34733	-18
1.35100	-21
1.35467	-25
1.35833	-34
1.36200	-45
1.36567	-53
1.36933	-58
1.37300	-60
1.37667	-57
1.38033	-55
1.38400	-55
1.38767	-56
1.39133	-57
1.39500	-56
1.39867	-55
1.40233	-51
1.40600	-49
1.40967	-48
1.41333	-47
1.41700	-47
1.42067	-44
1.42433	-42
1.42800	-41
1.43167	-39
1.43533	-37
1.43900	-19
1.44267	69
1.44633	324
1.45000	1040
1.45367	2774
1.45733	5649
1.46100	9079
1.46467	12335
1.46833	14971
1.47200	16776
1.47567	17589
1.47933	17261
1.48300	15795
1.48667	13479
1.49033	10806
1.49400	8239
1.49767	6062
1.50133	4362
1.50500	3104
1.50867	2203
1.51233	1571
1.51600	1133
1.51967	832
1.52333	626
1.52700	483
1.53067	382
1.53433	314
1.53800	284
1.54167	324
1.54533	489
1.54900	805
1.55267	1218
1.55633	1632
1.56000	1979
1.56367	2228
1.56733	2352
1.57100	2318
1.57467	2118
1.57833	1791
1.58200	1414
1.58567	1055
1.58933	758
1.59300	536
1.59667	381
1.60033	273
1.60400	196
1.60767	136
1.61133	90
1.61500	58
1.61867	34
1.62233	16
1.62600	3
1.62967	-6
1.63333	-11
1.63700	-16
1.64067	-21
1.64433	-26
1.64800	-30
1.65167	-33
1.65533	-34
1.65900	-29
1.66267	-20
1.66633	-14
1.67000	-12
1.67367	-13
1.67733	-9
1.68100	-5
1.68467	-8
1.68833	-16
1.69200	-26
1.69567	-32
1.69933	-30
1.70300	-24
1.70667	-18
1.71033	-16
1.71400	-19
1.71767	-25
1.72133	-32
1.72500	-36
1.72867	-34
1.73233	-29
1.73600	-26
1.73967	-25
1.74333	-22
1.74700	-17
1.75067	-13
1.75433	-9
1.75800	-8
1.76167	-8
1.76533	-13
1.76900	-25
1.77267	-40
1.77633	-52
1.78000	-61
1.78367	-65
1.78733	-65
1.79100	-65
1.79467	-64
1.79833	-60
1.80200	-55
1.80567	-48
1.80933	-44
1.81300	-39
1.81667	-34
1.82033	-30
1.82400	-31
1.82767	-35
1.83133	-39
1.83500	-43
1.83867	-44
1.84233	-39
1.84600	-31
1.84967	-25
1.85333	-26
1.85700	-31
1.86067	-36
1.86433	-40
1.86800	-40
1.87167	-36
1.87533	-33
1.87900	-30
1.88267	-27
1.88633	-26
1.89000	-24
1.89367	-22
1.89733	-20
1.90100	-19
1.90467	-19
1.90833	-18
1.91200	-14
1.91567	-12
1.91933	-15
1.92300	-19
1.92667	-21
1.93033	-18
1.93400	-13
1.93767	-8
1.94133	-5
1.94500	-6
1.94867	-10
1.95233	2
1.95600	112
1.95967	752
1.96333	3571
1.96700	13040
1.97067	37487
1.97433	86630
1.97800	164893
1.98167	265680
1.98533	372751
1.98900	467825
1.99267	536296
1.99633	568469
2.00000	560307
2.00367	514811
2.00733	442432
2.01100	357833
2.01467	274840
2.01833	202703
2.02200	145271
2.02567	102342
2.02933	71635
2.03300	50309
2.03667	35760
2.04033	25919
2.04400	19270
2.04767	14749
2.05133	11639
2.05500	9462
2.05867	7903
2.06233	6757
2.06600	5891
2.06967	5220
2.07333	4688
2.07700	4255
2.08067	3897
2.08433	3597
2.08800	3343
2.09167	3122
2.09533	2924
2.09900	2749
2.10267	2592
2.10633	2449
2.11000	2321
2.11367	2207
2.11733	2107
2.12100	2020
2.12467	1940
2.12833	1863
2.13200	1787
2.13567	1712
2.13933	1641
2.14300	1575
2.14667	1515
2.15033	1459
2.15400	1411
2.15767	1367
2.16133	1328
2.16500	1291
2.16867	1255
2.17233	1219
2.17600	1183
2.17967	1150
2.18333	1119
2.18700	1091
2.19067	1061
2.19433	1028
2.19800	998
2.20167	970
2.20533	942
2.20900	915
2.21267	892
2.21633	874
2.22000	862
2.22367	855
2.22733	844
2.23100	826
2.23467	806
2.23833	788
2.24200	775
2.24567	766
2.24933	756
2.25300	744
2.25667	731
2.26033	718
2.26400	703
2.26767	684
2.27133	667
2.27500	652
2.27867	639
2.28233	626
2.28600	616
2.28967	607
2.29333	601
2.29700	601
2.30067	605
2.30433	602
2.30800	590
2.31167	573
2.31533	558
2.31900	547
2.32267	540
2.32633	532
2.33000	524
2.33367	516
2.33733	515
2.34100	514
2.34467	510
2.34833	503
2.35200	495
2.35567	487
2.35933	481
2.36300	480
2.36667	482
2.37033	481
2.37400	478
2.37767	470
2.38133	457
2.38500	442
2.38867	430
2.39233	424
2.39600	425
2.39967	426
2.40333	425
2.40700	424
2.41067	425
2.41433	426
2.41800	425
2.42167	423
2.42533	422
2.42900	423
2.43267	423
2.43633	419
2.44000	411
2.44367	405
2.44733	401
2.45100	397
2.45467	392
2.45833	390
2.46200	391
2.46567	393
2.46933	394
2.47300	394
2.47667	390
2.48033	383
2.48400	375
2.48767	370
2.49133	368
2.49500	367
2.49867	367
2.50233	370
2.50600	377
2.50967	401
2.51333	438
2.51700	465
2.52067	477
2.52433	480
2.52800	478
2.53167	470
2.53533	455
2.53900	437
2.54267	423
2.54633	413
2.55000	404
2.55367	398
2.55733	395
2.56100	391
2.56467	388
2.56833	386
2.57200	384
2.57567	387
2.57933	392
2.58300	392
2.58667	388
2.59033	385
2.59400	385
2.59767	389
2.60133	391
2.60500	389
2.60867	384
2.61233	380
2.61600	375
2.61967	371
2.62333	369
2.62700	369
2.63067	367
2.63433	366
2.63800	365
2.64167	363
2.64533	363
2.64900	362
2.65267	359
2.65633	355
2.66000	353
2.66367	355
2.66733	363
2.67100	371
2.67467	374
2.67833	375
2.68200	374
2.68567	375
2.68933	373
2.69300	368
2.69667	359
2.70033	353
2.70400	352
2.70767	351
2.71133	349
2.71500	346
2.71867	343
2.72233	341
2.72600	341
2.72967	345
2.73333	350
2.73700	350
2.74067	348
2.74433	345
2.74800	342
2.75167	343
2.75533	348
2.75900	352
2.76267	350
2.76633	341
2.77000	332
2.77367	327
2.77733	325
2.78100	327
2.78467	329
2.78833	331
2.79200	334
2.79567	339
2.79933	343
2.80300	345
2.80667	346
2.81033	347
2.81400	347
2.81767	346
2.82133	346
2.82500	347
2.82867	346
2.83233	344
2.83600	342
2.83967	340
2.84333	337
2.84700	335
2.85067	332
2.85433	331
2.85800	330
2.86167	328
2.86533	326
2.86900	327
2.87267	328
2.87633	327
2.88000	326
2.88367	325
2.88733	324
2.89100	323
2.89467	322
2.89833	322
2.90200	322
2.90567	321
2.90933	320
2.91300	322
2.91667	328
2.92033	335
2.92400	335
2.92767	329
2.93133	321
2.93500	318
2.93867	319
2.94233	319
2.94600	320
2.94967	322
2.95333	325
2.95700	325
2.96067	323
2.96433	319
2.96800	317
2.97167	318
2.97533	320
2.97900	326
2.98267	334
2.98633	340
2.99000	345
2.99367	350
2.99733	355
3.00100	355
3.00467	350
3.00833	337
3.01200	321
3.01567	308
3.01933	303
3.02300	302
3.02667	303
3.03033	310
3.03400	322
3.03767	330
3.04133	331
3.04500	330
3.04867	331
3.05233	331
3.05600	328
3.05967	323
3.06333	315
3.06700	305
3.07067	297
3.07433	290
3.07800	284
3.08167	284
3.08533	291
3.08900	299
3.09267	305
3.09633	310
3.10000	315
3.10367	320
3.10733	321
3.11100	318
3.11467	312
3.11833	305
3.12200	299
3.12567	296
3.12933	295
3.13300	295
3.13667	294
3.14033	295
3.14400	303
3.14767	312
3.15133	315
3.15500	312
3.15867	308
3.16233	304
3.16600	299
3.16967	295
3.17333	294
3.17700	294
3.18067	295
3.18433	294
3.18800	288
3.19167	281
3.19533	277
3.19900	277
3.20267	278
3.20633	277
3.21000	272
3.21367	269
3.21733	267
3.22100	262
3.22467	259
3.22833	259
3.23200	259
3.23567	258
3.23933	261
3.24300	267
3.24667	275
3.25033	282
3.25400	287
3.25767	288
3.26133	284
3.26500	276
3.26867	270
3.27233	270
3.27600	270
3.27967	267
3.28333	265
3.28700	264
3.29067	264
3.29433	267
3.29800	272
3.30167	276
3.30533	275
3.30900	268
3.31267	260
3.31633	256
3.32000	255
3.32367	256
3.32733	256
3.33100	255
3.33467	256
3.33833	258
3.34200	262
3.34567	262
3.34933	260
3.35300	255
3.35667	252
3.36033	254
3.36400	260
3.36767	269
3.37133	276
3.37500	277
3.37867	274
3.38233	269
3.38600	262
3.38967	256
3.39333	251
3.39700	251
3.40067	254
3.40433	258
3.40800	261
3.41167	264
3.41533	267
3.41900	267
3.42267	266
3.42633	268
3.43000	272
3.43367	275
3.43733	274
3.44100	269
3.44467	258
3.44833	248
3.45200	243
3.45567	240
3.45933	237
3.46300	235
3.46667	236
3.47033	236
3.47400	230
3.47767	226
3.48133	226
3.48500	229
3.48867	229
3.49233	229
3.49600	231
3.49967	232
3.50333	232
3.50700	230
3.51067	226
3.51433	223
3.51800	224
3.52167	229
3.52533	236
3.52900	242
3.53267	244
3.53633	240
3.54000	232
3.54367	229
3.54733	230
3.55100	233
3.55467	233
3.55833	229
3.56200	225
3.56567	223
3.56933	220
3.57300	214
3.57667	211
3.58033	212
3.58400	214
3.58767	216
3.59133	217
3.59500	215
3.59867	210
3.60233	206
3.60600	205
3.60967	208
3.61333	209
3.61700	207
3.62067	205
3.62433	202
3.62800	198
3.63167	195
3.63533	195
3.63900	199
3.64267	203
3.64633	203
3.65000	201
3.65367	195
3.65733	189
3.66100	187
3.66467	190
3.66833	197
3.67200	203
3.67567	202
3.67933	196
3.68300	189
3.68667	182
3.69033	176
3.69400	172
3.69767	170
3.70133	170
3.70500	173
3.70867	179
3.71233	183
3.71600	185
3.71967	185
3.72333	185
3.72700	184
3.73067	182
3.73433	180
3.73800	182
3.74167	180
3.74533	176
3.74900	172
3.75267	173
3.75633	176
3.76000	183
3.76367	188
3.76733	191
3.77100	193
3.77467	193
3.77833	192
3.78200	189
3.78567	185
3.78933	180
3.79300	175
3.79667	172
3.80033	173
3.80400	180
3.80767	186
3.81133	189
3.81500	189
3.81867	184
3.82233	175
3.82600	165
3.82967	156
3.83333	151
3.83700	147
3.84067	143
3.84433	139
3.84800	136
3.85167	134
3.85533	137
3.85900	141
3.86267	146
3.86633	152
3.87000	159
3.87367	167
3.87733	172
3.88100	172
3.88467	168
3.88833	163
3.89200	160
3.89567	156
3.89933	152
3.90300	150
3.90667	149
3.91033	150
3.91400	155
3.91767	161
3.92133	160
3.92500	151
3.92867	142
3.93233	137
3.93600	135
3.93967	134
3.94333	135
3.94700	134
3.95067	129
3.95433	125
3.95800	124
3.96167	128
3.96533	131
3.96900	129
3.97267	125
3.97633	124
3.98000	125
3.98367	128
3.98733	127
3.99100	125
3.99467	126
3.99833	129

[Chromatogram (Ch2)]
Interval(msec)	220
# of Points	1091
Start Time(min)	0.002
End Time(min)	3.998
R.Time (min)	Intensity
0.00167	0
0.00533	-0
0.00900	-0
0.01267	-1
0.01633	-1
0.02000	-1
0.02367	-1
0.02733	-1
0.03100	-1
0.03467	-1
0.03833	-1
0.04200	-1
0.04567	-0
0.04933	-0
0.05300	-0
0.05667	0
0.06033	0
0.06400	0
0.06767	1
0.07133	1
0.07500	0
0.07867	0
0.08233	0
0.08600	0
0.08967	-0
0.09333	-0
0.09700	-0
0.10067	-0
0.10433	-0
0.10800	0
0.11167	0
0.11533	1
0.11900	1
0.12267	1
0.12633	1
0.13000	1
0.13367	1
0.13733	1
0.14100	1
0.14467	1
0.14833	1
0.15200	1
0.15567	1
0.15933	0
0.16300	0
0.16667	-0
0.17033	-0
0.17400	-0
0.17767	-0
0.18133	-0
0.18500	-0
0.18867	-1
0.19233	-1
0.19600	-1
0.19967	-1
0.20333	-1
0.20700	-1
0.21067	-0
0.21433	-0
0.21800	-0
0.22167	0
0.22533	0
0.22900	1
0.23267	1
0.23633	1
0.24000	1
0.24367	2
0.24733	2
0.25100	2
0.25467	2
0.25833	2
0.26200	1
0.26567	1
0.26933	1
0.27300	1
0.27667	1
0.28033	2
0.28400	2
0.28767	2
0.29133	2
0.29500	2
0.29867	2
0.30233	1
0.30600	2
0.30967	2
0.31333	2
0.31700	2
0.32067	2
0.32433	2
0.32800	2
0.33167	2
0.33533	1
0.33900	2
0.34267	2
0.34633	2
0.35000	2
0.35367	1
0.35733	1
0.36100	1
0.36467	0
0.36833	-0
0.37200	-0
0.37567	-1
0.37933	-1
0.38300	-1
0.38667	-2
0.39033	-2
0.39400	-3
0.39767	-3
0.40133	-3
0.40500	-3
0.40867	-3
0.41233	-3
0.41600	-3
0.41967	-3
0.42333	-3
0.42700	-3
0.43067	-3
0.43433	-2
0.43800	-2
0.44167	-2
0.44533	-2
0.44900	-2
0.45267	-1
0.45633	-1
0.46000	-1
0.46367	-0
0.46733	0
0.47100	0
0.47467	1
0.47833	1
0.48200	1
0.48567	1
0.48933	2
0.49300	2
0.49667	2
0.50033	2
0.50400	2
0.50767	2
0.51133	2
0.51500	1
0.51867	1
0.52233	1
0.52600	0
0.52967	-0
0.53333	-0
0.53700	-1
0.54067	-1
0.54433	-1
0.54800	-1
0.55167	-1
0.55533	-1
0.55900	-0
0.56267	-0
0.56633	-0
0.57000	-0
0.57367	-0
0.57733	-0
0.58100	-0
0.58467	-0
0.58833	-0
0.59200	-0
0.59567	-1
0.59933	-1
0.60300	-1
0.60667	-1
0.61033	-1
0.61400	-1
0.61767	-0
0.62133	-0
0.62500	-0
0.62867	-0
0.63233	-0
0.63600	0
0.63967	0
0.64333	0
0.64700	0
0.65067	0
0.65433	0
0.65800	-0
0.66167	-0
0.66533	-1
0.66900	-1
0.67267	-1
0.67633	-2
0.68000	-2
0.68367	-2
0.68733	-2
0.69100	-2
0.69467	-2
0.69833	-2
0.70200	-2
0.70567	-2
0.70933	-2
0.71300	-2
0.71667	-2
0.72033	-2
0.72400	-2
0.72767	-2
0.73133	-2
0.73500	-2
0.73867	-1
0.74233	-1
0.74600	-1
0.74967	-1
0.75333	-0
0.75700	0
0.76067	0
0.76433	1
0.76800	1
0.77167	2
0.77533	2
0.77900	2
0.78267	2
0.78633	2
0.79000	2
0.79367	2
0.79733	2
0.80100	2
0.80467	2
0.80833	2
0.81200	1
0.81567	1
0.81933	0
0.82300	0
0.82667	-0
0.83033	-0
0.83400	-1
0.83767	-1
0.84133	-1
0.84500	-2
0.84867	-2
0.85233	-2
0.85600	-2
0.85967	-3
0.86333	-3
0.86700	-3
0.87067	-4
0.87433	-4
0.87800	-4
0.88167	-4
0.88533	-4
0.88900	-4
0.89267	-4
0.89633	-4
0.90000	-4
0.90367	-3
0.90733	-3
0.91100	-3
0.91467	-3
0.91833	-3
0.92200	-3
0.92567	-3
0.92933	-3
0.93300	-3
0.93667	-3
0.94033	-3
0.94400	-2
0.94767	-2
0.95133	-2
0.95500	-2
0.95867	-2
0.96233	-1
0.96600	-1
0.96967	-1
0.97333	-1
0.97700	-1
0.98067	-1
0.98433	-1
0.98800	-1
0.99167	-1
0.99533	-1
0.99900	-1
1.00267	-2
1.00633	-2
1.01000	-2
1.01367	-2
1.01733	-2
1.02100	-2
1.02467	-2
1.02833	-1
1.03200	-1
1.03567	-0
1.03933	-0
1.04300	-0
1.04667	-0
1.05033	-1
1.05400	-1
1.05767	-1
1.06133	-1
1.06500	-2
1.06867	-2
1.07233	-2
1.07600	-2
1.07967	-2
1.08333	-1
1.08700	-2
1.09067	-2
1.09433	-2
1.09800	-2
1.10167	-2
1.10533	-2
1.10900	-2
1.11267	-2
1.11633	-2
1.12000	-2
1.12367	-2
1.12733	-2
1.13100	-3
1.13467	-3
1.13833	-3
1.14200	-3
1.14567	-3
1.14933	-3
1.15300	-3
1.15667	-3
1.16033	-3
1.16400	-2
1.16767	-2
1.17133	-2
1.17500	-2
1.17867	-2
1.18233	-2
1.18600	-2
1.18967	-1
1.19333	-1
1.19700	-1
1.20067	-1
1.20433	-1
1.20800	-2
1.21167	-2
1.21533	-2
1.21900	-1
1.22267	-1
1.22633	-1
1.23000	-1
1.23367	-1
1.23733	-1
1.24100	-0
1.24467	-0
1.24833	-0
1.25200	-0
1.25567	-0
1.25933	-0
1.26300	-0
1.26667	-1
1.27033	-1
1.27400	-1
1.27767	-2
1.28133	-2
1.28500	-2
1.28867	-2
1.29233	-2
1.29600	-2
1.29967	-2
1.30333	-3
1.30700	-3
1.31067	-3
1.31433	-3
1.31800	-3
1.32167	-3
1.32533	-3
1.32900	-3
1.33267	-3
1.33633	-3
1.34000	-2
1.34367	-2
1.34733	-2
1.35100	-2
1.35467	-2
1.35833	-1
1.36200	-1
1.36567	-1
1.36933	-1
1.37300	-1
1.37667	-1
1.38033	-1
1.38400	-0
1.38767	-0
1.39133	-0
1.39500	-0
1.39867	-0
1.40233	-1
1.40600	-1
1.40967	-1
1.41333	-1
1.41700	-0
1.42067	-0
1.42433	-0
1.42800	-0
1.43167	-1
1.43533	-1
1.43900	-2
1.44267	-2
1.44633	-3
1.45000	-3
1.45367	-3
1.45733	-4
1.46100	-4
1.46467	-4
1.46833	-3
1.47200	-3
1.47567	-3
1.47933	-3
1.48300	-3
1.48667	-3
1.49033	-3
1.49400	-3
1.49767	-3
1.50133	-4
1.50500	-4
1.50867	-5
1.51233	-5
1.51600	-5
1.51967	-5
1.52333	-5
1.52700	-4
1.53067	-4
1.53433	-4
1.53800	-3
1.54167	-3
1.54533	-3
1.54900	-2
1.55267	-2
1.55633	-2
1.56000	-2
1.56367	-2
1.56733	-1
1.57100	-1
1.57467	-1
1.57833	-0
1.58200	0
1.58567	0
1.58933	-0
1.59300	-1
1.59667	-1
1.60033	-3
1.60400	-4
1.60767	-5
1.61133	-7
1.61500	-9
1.61867	-12
1.62233	-15
1.62600	-18
1.62967	-21
1.63333	-25
1.63700	-29
1.64067	-33
1.64433	-37
1.64800	-41
1.65167	-45
1.65533	-48
1.65900	-53
1.66267	-57
1.66633	-62
1.67000	-67
1.67367	-72
1.67733	-77
1.68100	-82
1.68467	-87
1.68833	-92
1.69200	-96
1.69567	-99
1.69933	-102
1.70300	-105
1.70667	-106
1.71033	-108
1.71400	-109
1.71767	-109
1.72133	-109
1.72500	-109
1.72867	-109
1.73233	-109
1.73600	-109
1.73967	-109
1.74333	-109
1.74700	-110
1.75067	-111
1.75433	-112
1.75800	-113
1.76167	-114
1.76533	-115
1.76900	-116
1.77267	-117
1.77633	-117
1.78000	-117
1.78367	-118
1.78733	-118
1.79100	-119
1.79467	-119
1.79833	-120
1.80200	-120
1.80567	-120
1.80933	-120
1.81300	-120
1.81667	-120
1.82033	-120
1.82400	-120
1.82767	-120
1.83133	-120
1.83500	-120
1.83867	-121
1.84233	-121
1.84600	-121
1.84967	-121
1.85333	-121
1.85700	-120
1.86067	-120
1.86433	-119
1.86800	-119
1.87167	-118
1.87533	-117
1.87900	-117
1.88267	-117
1.88633	-117
1.89000	-117
1.89367	-118
1.89733	-118
1.90100	-119
1.90467	-119
1.90833	-118
1.91200	-118
1.91567	-117
1.91933	-116
1.92300	-115
1.92667	-115
1.93033	-114
1.93400	-114
1.93767	-114
1.94133	-113
1.94500	-113
1.94867	-113
1.95233	-113
1.95600	-113
1.95967	-113
1.96333	-113
1.96700	-113
1.97067	-112
1.97433	-112
1.97800	-112
1.98167	-112
1.98533	-112
1.98900	-112
1.99267	-112
1.99633	-112
2.00000	-112
2.00367	-112
2.00733	-112
2.01100	-112
2.01467	-112
2.01833	-112
2.02200	-111
2.02567	-111
2.02933	-111
2.03300	-111
2.03667	-110
2.04033	-110
2.04400	-110
2.04767	-109
2.05133	-107
2.05500	-106
2.05867	-105
2.06233	-104
2.06600	-103
2.06967	-103
2.07333	-103
2.07700	-104
2.08067	-104
2.08433	-104
2.08800	-104
2.09167	-104
2.09533	-104
2.09900	-103
2.10267	-103
2.10633	-103
2.11000	-103
2.11367	-103
2.11733	-103
2.12100	-103
2.12467	-103
2.12833	-103
2.13200	-103
2.13567	-103
2.13933	-102
2.14300	-102
2.14667	-102
2.15033	-102
2.15400	-101
2.15767	-101
2.16133	-100
2.16500	-99
2.16867	-98
2.17233	-98
2.17600	-97
2.17967	-97
2.18333	-97
2.18700	-97
2.19067	-96
2.19433	-96
2.19800	-96
2.20167	-95
2.20533	-95
2.20900	-94
2.21267	-94
2.21633	-94
2.22000	-93
2.22367	-93
2.22733	-93
2.23100	-92
2.23467	-92
2.23833	-91
2.24200	-91
2.24567	-90
2.24933	-90
2.25300	-89
2.25667	-89
2.26033	-89
2.26400	-89
2.26767	-88
2.27133	-88
2.27500	-88
2.27867	-88
2.28233	-88
2.28600	-88
2.28967	-88
2.29333	-88
2.29700	-88
2.30067	-88
2.30433	-87
2.30800	-87
2.31167	-87
2.31533	-87
2.31900	-87
2.32267	-87
2.32633	-86
2.33000	-86
2.33367	-85
2.33733	-84
2.34100	-84
2.34467	-83
2.34833	-82
2.35200	-81
2.35567	-81
2.35933	-81
2.36300	-81
2.36667	-80
2.37033	-78
2.37400	-76
2.37767	-74
2.38133	-70
2.38500	-66
2.38867	-62
2.39233	-58
2.39600	-53
2.39967	-49
2.40333	-45
2.40700	-40
2.41067	-36
2.41433	-33
2.41800	-30
2.42167	-28
2.42533	-25
2.42900	-23
2.43267	-21
2.43633	-19
2.44000	-17
2.44367	-15
2.44733	-13
2.45100	-11
2.45467	-9
2.45833	-8
2.46200	-6
2.46567	-4
2.46933	-3
2.47300	-1
2.47667	0
2.48033	1
2.48400	2
2.48767	3
2.49133	3
2.49500	4
2.49867	4
2.50233	5
2.50600	5
2.50967	6
2.51333	7
2.51700	8
2.52067	9
2.52433	10
2.52800	10
2.53167	11
2.53533	11
2.53900	12
2.54267	12
2.54633	13
2.55000	13
2.55367	13
2.55733	13
2.56100	13
2.56467	14
2.56833	14
2.57200	14
2.57567	15
2.57933	15
2.58300	16
2.58667	17
2.59033	17
2.59400	17
2.59767	17
2.60133	17
2.60500	18
2.60867	18
2.61233	18
2.61600	17
2.61967	17
2.62333	17
2.62700	18
2.63067	18
2.63433	17
2.63800	17
2.64167	17
2.64533	17
2.64900	17
2.65267	18
2.65633	18
2.66000	19
2.66367	19
2.66733	20
2.67100	20
2.67467	20
2.67833	19
2.68200	19
2.68567	19
2.68933	19
2.69300	19
2.69667	19
2.70033	20
2.70400	20
2.70767	21
2.71133	21
2.71500	22
2.71867	22
2.72233	23
2.72600	23
2.72967	24
2.73333	24
2.73700	24
2.74067	24
2.74433	24
2.74800	23
2.75167	23
2.75533	23
2.75900	23
2.76267	23
2.76633	23
2.77000	23
2.77367	24
2.77733	24
2.78100	24
2.78467	24
2.78833	24
2.79200	25
2.79567	25
2.79933	25
2.80300	25
2.80667	26
2.81033	26
2.81400	26
2.81767	26
2.82133	26
2.82500	26
2.82867	25
2.83233	25
2.83600	24
2.83967	23
2.84333	20
2.84700	15
2.85067	8
2.85433	-2
2.85800	-16
2.86167	-34
2.86533	-55
2.86900	-81
2.87267	-111
2.87633	-144
2.88000	-182
2.88367	-224
2.88733	-268
2.89100	-315
2.89467	-364
2.89833	-416
2.90200	-468
2.90567	-522
2.90933	-575
2.91300	-629
2.91667	-683
2.92033	-736
2.92400	-788
2.92767	-839
2.93133	-893
2.93500	-950
2.93867	-1011
2.94233	-1065
2.94600	-1101
2.94967	-1113
2.95333	-1099
2.95700	-1061
2.96067	-1004
2.96433	-934
2.96800	-857
2.97167	-776
2.97533	-695
2.97900	-618
2.98267	-545
2.98633	-477
2.99000	-415
2.99367	-360
2.99733	-310
3.00100	-266
3.00467	-228
3.00833	-194
3.01200	-165
3.01567	-140
3.01933	-118
3.02300	-100
3.02667	-84
3.03033	-70
3.03400	-58
3.03767	-48
3.04133	-39
3.04500	-32
3.04867	-25
3.05233	-20
3.05600	-15
3.05967	-11
3.06333	-7
3.06700	-4
3.07067	-2
3.07433	0
3.07800	2
3.08167	3
3.08533	5
3.08900	6
3.09267	7
3.09633	8
3.10000	8
3.10367	9
3.10733	10
3.11100	11
3.11467	11
3.11833	12
3.12200	12
3.12567	12
3.12933	13
3.13300	13
3.13667	14
3.14033	14
3.14400	15
3.14767	15
3.15133	16
3.15500	16
3.15867	17
3.16233	17
3.16600	17
3.16967	17
3.17333	17
3.17700	18
3.18067	18
3.18433	18
3.18800	18
3.19167	18
3.19533	18
3.19900	19
3.20267	19
3.20633	19
3.21000	19
3.21367	19
3.21733	19
3.22100	19
3.22467	19
3.22833	19
3.23200	19
3.23567	19
3.23933	19
3.24300	20
3.24667	20
3.25033	20
3.25400	21
3.25767	21
3.26133	21
3.26500	21
3.26867	21
3.27233	22
3.27600	22
3.27967	22
3.28333	21
3.28700	21
3.29067	21
3.29433	21
3.29800	21
3.30167	21
3.30533	21
3.30900	20
3.31267	20
3.31633	21
3.32000	21
3.32367	21
3.32733	21
3.33100	21
3.33467	21
3.33833	22
3.34200	22
3.34567	22
3.34933	23
3.35300	23
3.35667	23
3.36033	23
3.36400	24
3.36767	24
3.37133	24
3.37500	24
3.37867	25
3.38233	25
3.38600	26
3.38967	26
3.39333	26
3.39700	26
3.40067	27
3.40433	27
3.40800	27
3.41167	27
3.41533	27
3.41900	27
3.42267	27
3.42633	27
3.43000	27
3.43367	27
3.43733	27
3.44100	27
3.44467	27
3.44833	26
3.45200	26
3.45567	26
3.45933	25
3.46300	25
3.46667	25
3.47033	24
3.47400	24
3.47767	24
3.48133	24
3.48500	24
3.48867	24
3.49233	24
3.49600	24
3.49967	24
3.50333	24
3.50700	24
3.51067	24
3.51433	24
3.51800	24
3.52167	24
3.52533	24
3.52900	24
3.53267	25
3.53633	25
3.54000	25
3.54367	25
3.54733	25
3.55100	25
3.55467	25
3.55833	26
3.56200	26
3.56567	26
3.56933	26
3.57300	26
3.57667	26
3.58033	26
3.58400	25
3.58767	25
3.59133	25
3.59500	25
3.59867	24
3.60233	24
3.60600	24
3.60967	24
3.61333	24
3.61700	24
3.62067	24
3.62433	24
3.62800	23
3.63167	23
3.63533	23
3.63900	23
3.64267	23
3.64633	23
3.65000	23
3.65367	23
3.65733	22
3.66100	22
3.66467	22
3.66833	22
3.67200	22
3.67567	22
3.67933	22
3.68300	22
3.68667	22
3.69033	23
3.69400	23
3.69767	23
3.70133	24
3.70500	24
3.70867	24
3.71233	24
3.71600	24
3.71967	24
3.72333	24
3.72700	25
3.73067	25
3.73433	25
3.73800	25
3.74167	25
3.74533	25
3.74900	25
3.75267	25
3.75633	25
3.76000	25
3.76367	25
3.76733	25
3.77100	25
3.77467	25
3.77833	25
3.78200	25
3.78567	25
3.78933	25
3.79300	25
3.79667	25
3.80033	25
3.80400	25
3.80767	25
3.81133	25
3.81500	25
3.81867	25
3.82233	25
3.82600	25
3.82967	25
3.83333	25
3.83700	25
3.84067	25
3.84433	25
3.84800	25
3.85167	25
3.85533	25
3.85900	25
3.86267	26
3.86633	25
3.87000	25
3.87367	25
3.87733	25
3.88100	25
3.88467	25
3.88833	25
3.89200	24
3.89567	24
3.89933	24
3.90300	23
3.90667	23
3.91033	23
3.91400	23
3.91767	23
3.92133	22
3.92500	22
3.92867	22
3.93233	22
3.93600	22
3.93967	22
3.94333	22
3.94700	22
3.95067	22
3.95433	22
3.95800	22
3.96167	22
3.96533	22
3.96900	22
3.97267	23
3.97633	23
3.98000	23
3.98367	23
3.98733	23
3.99100	23
3.99467	23
3.99833	23

[Chromatogram (Ch3)]
Interval(msec)	220
# of Points	1091
Start Time(min)	0.002
End Time(min)	3.998
R.Time (min)	Intensity
0.00167	-1
0.00533	-4
0.00900	-5
0.01267	-7
0.01633	-7
0.02000	-7
0.02367	-8
0.02733	-8
0.03100	-8
0.03467	-7
0.03833	-5
0.04200	-5
0.04567	-6
0.04933	-6
0.05300	-5
0.05667	-4
0.06033	-3
0.06400	-2
0.06767	-2
0.07133	-2
0.07500	-4
0.07867	-6
0.08233	-7
0.08600	-7
0.08967	-6
0.09333	-4
0.09700	-3
0.10067	-4
0.10433	-4
0.10800	-7
0.11167	-8
0.11533	-9
0.11900	-6
0.12267	-5
0.12633	-5
0.13000	-6
0.13367	-7
0.13733	-9
0.14100	-10
0.14467	-9
0.14833	-6
0.15200	-3
0.15567	-3
0.15933	-3
0.16300	-2
0.16667	-2
0.17033	-2
0.17400	1
0.17767	2
0.18133	2
0.18500	1
0.18867	0
0.19233	-4
0.19600	-6
0.19967	-4
0.20333	-3
0.20700	-4
0.21067	-7
0.21433	-7
0.21800	-8
0.22167	-7
0.22533	-7
0.22900	-6
0.23267	-4
0.23633	-5
0.24000	-7
0.24367	-8
0.24733	-12
0.25100	-12
0.25467	-13
0.25833	-15
0.26200	-14
0.26567	-10
0.26933	-7
0.27300	-8
0.27667	-10
0.28033	-11
0.28400	-11
0.28767	-8
0.29133	-4
0.29500	-2
0.29867	-5
0.30233	-10
0.30600	-10
0.30967	-9
0.31333	-8
0.31700	-6
0.32067	-6
0.32433	-8
0.32800	-9
0.33167	-9
0.33533	-10
0.33900	-9
0.34267	-7
0.34633	-6
0.35000	-7
0.35367	-9
0.35733	-11
0.36100	-10
0.36467	-11
0.36833	-12
0.37200	-11
0.37567	-9
0.37933	-8
0.38300	-6
0.38667	-6
0.39033	-4
0.39400	-4
0.39767	-3
0.40133	-3
0.40500	-4
0.40867	-4
0.41233	-4
0.41600	-3
0.41967	-5
0.42333	-9
0.42700	-10
0.43067	-9
0.43433	-7
0.43800	-6
0.44167	-3
0.44533	-1
0.44900	-1
0.45267	-0
0.45633	-2
0.46000	-5
0.46367	-5
0.46733	-3
0.47100	-2
0.47467	-2
0.47833	1
0.48200	5
0.48567	9
0.48933	8
0.49300	6
0.49667	5
0.50033	6
0.50400	6
0.50767	7
0.51133	7
0.51500	6
0.51867	5
0.52233	5
0.52600	7
0.52967	9
0.53333	11
0.53700	14
0.54067	14
0.54433	14
0.54800	15
0.55167	17
0.55533	17
0.55900	17
0.56267	18
0.56633	18
0.57000	17
0.57367	18
0.57733	18
0.58100	15
0.58467	14
0.58833	14
0.59200	13
0.59567	13
0.59933	14
0.60300	17
0.60667	17
0.61033	17
0.61400	16
0.61767	15
0.62133	14
0.62500	14
0.62867	15
0.63233	13
0.63600	14
0.63967	15
0.64333	14
0.64700	14
0.65067	17
0.65433	17
0.65800	17
0.66167	19
0.66533	22
0.66900	24
0.67267	24
0.67633	23
0.68000	22
0.68367	22
0.68733	20
0.69100	19
0.69467	20
0.69833	22
0.70200	23
0.70567	26
0.70933	28
0.71300	29
0.71667	29
0.72033	29
0.72400	30
0.72767	31
0.73133	31
0.73500	31
0.73867	29
0.74233	29
0.74600	27
0.74967	26
0.75333	24
0.75700	23
0.76067	24
0.76433	22
0.76800	21
0.77167	21
0.77533	22
0.77900	23
0.78267	24
0.78633	23
0.79000	20
0.79367	19
0.79733	21
0.80100	21
0.80467	20
0.80833	18
0.81200	19
0.81567	20
0.81933	22
0.82300	22
0.82667	20
0.83033	18
0.83400	17
0.83767	17
0.84133	16
0.84500	16
0.84867	17
0.85233	18
0.85600	18
0.85967	19
0.86333	20
0.86700	21
0.87067	22
0.87433	22
0.87800	20
0.88167	19
0.88533	17
0.88900	16
0.89267	16
0.89633	16
0.90000	17
0.90367	16
0.90733	15
0.91100	14
0.91467	15
0.91833	16
0.92200	16
0.92567	16
0.92933	18
0.93300	19
0.93667	21
0.94033	22
0.94400	22
0.94767	21
0.95133	20
0.95500	17
0.95867	17
0.96233	17
0.96600	17
0.96967	19
0.97333	19
0.97700	16
0.98067	15
0.98433	16
0.98800	17
0.99167	20
0.99533	23
0.99900	22
1.00267	21
1.00633	18
1.01000	16
1.01367	17
1.01733	16
1.02100	17
1.02467	15
1.02833	13
1.03200	13
1.03567	15
1.03933	19
1.04300	21
1.04667	19
1.05033	16
1.05400	16
1.05767	18
1.06133	19
1.06500	21
1.06867	23
1.07233	22
1.07600	21
1.07967	21
1.08333	24
1.08700	26
1.09067	25
1.09433	23
1.09800	23
1.10167	21
1.10533	22
1.10900	24
1.11267	26
1.11633	26
1.12000	24
1.12367	21
1.12733	21
1.13100	20
1.13467	17
1.13833	17
1.14200	18
1.14567	21
1.14933	24
1.15300	25
1.15667	24
1.16033	22
1.16400	22
1.16767	24
1.17133	25
1.17500	26
1.17867	25
1.18233	26
1.18600	27
1.18967	26
1.19333	28
1.19700	30
1.20067	30
1.20433	30
1.20800	30
1.21167	31
1.21533	31
1.21900	32
1.22267	31
1.22633	30
1.23000	29
1.23367	27
1.23733	27
1.24100	29
1.24467	27
1.24833	27
1.25200	26
1.25567	24
1.25933	22
1.26300	21
1.26667	21
1.27033	20
1.27400	20
1.27767	21
1.28133	21
1.28500	18
1.28867	16
1.29233	16
1.29600	19
1.29967	19
1.30333	19
1.30700	18
1.31067	18
1.31433	20
1.31800	22
1.32167	24
1.32533	24
1.32900	21
1.33267	20
1.33633	22
1.34000	24
1.34367	23
1.34733	21
1.35100	20
1.35467	19
1.35833	20
1.36200	18
1.36567	15
1.36933	15
1.37300	18
1.37667	20
1.38033	20
1.38400	21
1.38767	21
1.39133	20
1.39500	21
1.39867	23
1.40233	23
1.40600	21
1.40967	21
1.41333	20
1.41700	19
1.42067	18
1.42433	19
1.42800	19
1.43167	20
1.43533	20
1.43900	22
1.44267	24
1.44633	26
1.45000	22
1.45367	18
1.45733	15
1.46100	14
1.46467	13
1.46833	13
1.47200	12
1.47567	11
1.47933	10
1.48300	11
1.48667	12
1.49033	13
1.49400	14
1.49767	14
1.50133	12
1.50500	13
1.50867	14
1.51233	14
1.51600	14
1.51967	13
1.52333	13
1.52700	13
1.53067	14
1.53433	14
1.53800	14
1.54167	14
1.54533	12
1.54900	9
1.55267	9
1.55633	9
1.56000	11
1.56367	15
1.56733	17
1.57100	18
1.57467	17
1.57833	16
1.58200	15
1.58567	16
1.58933	14
1.59300	12
1.59667	12
1.60033	13
1.60400	16
1.60767	16
1.61133	13
1.61500	11
1.61867	13
1.62233	14
1.62600	16
1.62967	17
1.63333	18
1.63700	19
1.64067	19
1.64433	21
1.64800	20
1.65167	19
1.65533	19
1.65900	18
1.66267	18
1.66633	19
1.67000	22
1.67367	22
1.67733	21
1.68100	22
1.68467	24
1.68833	26
1.69200	28
1.69567	29
1.69933	29
1.70300	29
1.70667	31
1.71033	32
1.71400	30
1.71767	29
1.72133	30
1.72500	29
1.72867	28
1.73233	28
1.73600	28
1.73967	27
1.74333	29
1.74700	30
1.75067	32
1.75433	35
1.75800	36
1.76167	37
1.76533	36
1.76900	37
1.77267	37
1.77633	36
1.78000	35
1.78367	33
1.78733	33
1.79100	33
1.79467	34
1.79833	34
1.80200	33
1.80567	35
1.80933	37
1.81300	39
1.81667	39
1.82033	36
1.82400	35
1.82767	35
1.83133	34
1.83500	35
1.83867	36
1.84233	36
1.84600	34
1.84967	31
1.85333	33
1.85700	35
1.86067	39
1.86433	41
1.86800	42
1.87167	41
1.87533	40
1.87900	40
1.88267	41
1.88633	43
1.89000	45
1.89367	46
1.89733	48
1.90100	48
1.90467	49
1.90833	50
1.91200	49
1.91567	48
1.91933	47
1.92300	45
1.92667	45
1.93033	48
1.93400	48
1.93767	50
1.94133	49
1.94500	48
1.94867	48
1.95233	50
1.95600	52
1.95967	54
1.96333	55
1.96700	54
1.97067	52
1.97433	51
1.97800	51
1.98167	52
1.98533	55
1.98900	57
1.99267	57
1.99633	56
2.00000	55
2.00367	54
2.00733	52
2.01100	51
2.01467	49
2.01833	49
2.02200	51
2.02567	53
2.02933	54
2.03300	55
2.03667	55
2.04033	56
2.04400	57
2.04767	59
2.05133	58
2.05500	57
2.05867	56
2.06233	56
2.06600	60
2.06967	61
2.07333	59
2.07700	58
2.08067	61
2.08433	63
2.08800	64
2.09167	63
2.09533	63
2.09900	66
2.10267	69
2.10633	70
2.11000	71
2.11367	72
2.11733	73
2.12100	74
2.12467	74
2.12833	74
2.13200	74
2.13567	76
2.13933	77
2.14300	77
2.14667	80
2.15033	84
2.15400	86
2.15767	86
2.16133	85
2.16500	83
2.16867	82
2.17233	84
2.17600	86
2.17967	85
2.18333	85
2.18700	88
2.19067	89
2.19433	87
2.19800	88
2.20167	92
2.20533	93
2.20900	93
2.21267	94
2.21633	94
2.22000	94
2.22367	95
2.22733	95
2.23100	96
2.23467	98
2.23833	100
2.24200	103
2.24567	105
2.24933	107
2.25300	106
2.25667	105
2.26033	104
2.26400	106
2.26767	107
2.27133	109
2.27500	112
2.27867	114
2.28233	113
2.28600	111
2.28967	113
2.29333	117
2.29700	119
2.30067	119
2.30433	120
2.30800	122
2.31167	124
2.31533	128
2.31900	131
2.32267	132
2.32633	134
2.33000	133
2.33367	133
2.33733	134
2.34100	137
2.34467	141
2.34833	145
2.35200	148
2.35567	148
2.35933	148
2.36300	148
2.36667	148
2.37033	149
2.37400	151
2.37767	155
2.38133	159
2.38500	159
2.38867	157
2.39233	160
2.39600	163
2.39967	167
2.40333	171
2.40700	174
2.41067	175
2.41433	177
2.41800	178
2.42167	177
2.42533	176
2.42900	178
2.43267	179
2.43633	183
2.44000	186
2.44367	216
2.44733	296
2.45100	383
2.45467	451
2.45833	494
2.46200	500
2.46567	481
2.46933	455
2.47300	431
2.47667	414
2.48033	404
2.48400	398
2.48767	384
2.49133	364
2.49500	341
2.49867	316
2.50233	297
2.50600	284
2.50967	275
2.51333	269
2.51700	264
2.52067	262
2.52433	265
2.52800	272
2.53167	282
2.53533	293
2.53900	301
2.54267	304
2.54633	305
2.55000	303
2.55367	298
2.55733	288
2.56100	279
2.56467	267
2.56833	254
2.57200	241
2.57567	231
2.57933	224
2.58300	221
2.58667	219
2.59033	216
2.59400	212
2.59767	206
2.60133	198
2.60500	185
2.60867	168
2.61233	150
2.61600	133
2.61967	114
2.62333	95
2.62700	79
2.63067	67
2.63433	61
2.63800	58
2.64167	56
2.64533	55
2.64900	60
2.65267	67
2.65633	77
2.66000	86
2.66367	95
2.66733	105
2.67100	119
2.67467	129
2.67833	140
2.68200	148
2.68567	154
2.68933	159
2.69300	162
2.69667	161
2.70033	161
2.70400	162
2.70767	162
2.71133	161
2.71500	160
2.71867	159
2.72233	160
2.72600	159
2.72967	160
2.73333	161
2.73700	160
2.74067	159
2.74433	158
2.74800	158
2.75167	160
2.75533	162
2.75900	163
2.76267	163
2.76633	163
2.77000	164
2.77367	163
2.77733	162
2.78100	162
2.78467	164
2.78833	166
2.79200	167
2.79567	168
2.79933	168
2.80300	168
2.80667	168
2.81033	168
2.81400	170
2.81767	177
2.82133	198
2.82500	241
2.82867	324
2.83233	471
2.83600	706
2.83967	1040
2.84333	1478
2.84700	2003
2.85067	2583
2.85433	3181
2.85800	3750
2.86167	4239
2.86533	4611
2.86900	4841
2.87267	4925
2.87633	4874
2.88000	4712
2.88367	4462
2.88733	4155
2.89100	3814
2.89467	3465
2.89833	3122
2.90200	2792
2.90567	2483
2.90933	2198
2.91300	1942
2.91667	1716
2.92033	1514
2.92400	1334
2.92767	1175
2.93133	1038
2.93500	919
2.93867	817
2.94233	732
2.94600	656
2.94967	587
2.95333	529
2.95700	482
2.96067	439
2.96433	400
2.96800	369
2.97167	342
2.97533	318
2.97900	300
2.98267	284
2.98633	271
2.99000	259
2.99367	247
2.99733	239
3.00100	234
3.00467	227
3.00833	219
3.01200	212
3.01567	206
3.01933	199
3.02300	192
3.02667	189
3.03033	185
3.03400	183
3.03767	180
3.04133	177
3.04500	176
3.04867	175
3.05233	172
3.05600	170
3.05967	167
3.06333	163
3.06700	160
3.07067	158
3.07433	157
3.07800	154
3.08167	151
3.08533	147
3.08900	140
3.09267	123
3.09633	102
3.10000	94
3.10367	102
3.10733	125
3.11100	158
3.11467	191
3.11833	224
3.12200	258
3.12567	290
3.12933	325
3.13300	360
3.13667	391
3.14033	419
3.14400	446
3.14767	472
3.15133	495
3.15500	515
3.15867	533
3.16233	545
3.16600	552
3.16967	558
3.17333	564
3.17700	569
3.18067	574
3.18433	579
3.18800	584
3.19167	589
3.19533	594
3.19900	600
3.20267	609
3.20633	614
3.21000	619
3.21367	625
3.21733	630
3.22100	632
3.22467	635
3.22833	639
3.23200	641
3.23567	640
3.23933	639
3.24300	639
3.24667	640
3.25033	641
3.25400	641
3.25767	641
3.26133	639
3.26500	636
3.26867	634
3.27233	631
3.27600	628
3.27967	626
3.28333	623
3.28700	620
3.29067	619
3.29433	620
3.29800	621
3.30167	620
3.30533	618
3.30900	614
3.31267	609
3.31633	605
3.32000	600
3.32367	596
3.32733	590
3.33100	589
3.33467	588
3.33833	585
3.34200	581
3.34567	579
3.34933	577
3.35300	575
3.35667	573
3.36033	570
3.36400	568
3.36767	567
3.37133	565
3.37500	561
3.37867	558
3.38233	557
3.38600	556
3.38967	556
3.39333	557
3.39700	555
3.40067	554
3.40433	552
3.40800	550
3.41167	548
3.41533	546
3.41900	543
3.42267	543
3.42633	545
3.43000	546
3.43367	545
3.43733	544
3.44100	544
3.44467	542
3.44833	541
3.45200	541
3.45567	539
3.45933	537
3.46300	536
3.46667	535
3.47033	534
3.47400	532
3.47767	531
3.48133	527
3.48500	525
3.48867	523
3.49233	524
3.49600	525
3.49967	523
3.50333	521
3.50700	520
3.51067	518
3.51433	517
3.51800	516
3.52167	514
3.52533	510
3.52900	503
3.53267	498
3.53633	493
3.54000	489
3.54367	487
3.54733	485
3.55100	484
3.55467	482
3.55833	481
3.56200	481
3.56567	478
3.56933	476
3.57300	476
3.57667	476
3.58033	475
3.58400	473
3.58767	471
3.59133	470
3.59500	467
3.59867	466
3.60233	464
3.60600	463
3.60967	461
3.61333	460
3.61700	461
3.62067	461
3.62433	458
3.62800	454
3.63167	452
3.63533	452
3.63900	451
3.64267	448
3.64633	444
3.65000	442
3.65367	443
3.65733	441
3.66100	438
3.66467	435
3.66833	434
3.67200	430
3.67567	427
3.67933	425
3.68300	423
3.68667	423
3.69033	421
3.69400	420
3.69767	419
3.70133	419
3.70500	418
3.70867	418
3.71233	417
3.71600	416
3.71967	416
3.72333	415
3.72700	414
3.73067	410
3.73433	407
3.73800	405
3.74167	403
3.74533	401
3.74900	401
3.75267	401
3.75633	403
3.76000	405
3.76367	406
3.76733	406
3.77100	403
3.77467	402
3.77833	403
3.78200	404
3.78567	406
3.78933	405
3.79300	402
3.79667	403
3.80033	403
3.80400	402
3.80767	400
3.81133	399
3.81500	400
3.81867	400
3.82233	402
3.82600	401
3.82967	400
3.83333	399
3.83700	400
3.84067	400
3.84433	399
3.84800	397
3.85167	395
3.85533	395
3.85900	394
3.86267	391
3.86633	389
3.87000	387
3.87367	384
3.87733	381
3.88100	381
3.88467	384
3.88833	387
3.89200	385
3.89567	382
3.89933	381
3.90300	381
3.90667	382
3.91033	382
3.91400	383
3.91767	383
3.92133	380
3.92500	377
3.92867	376
3.93233	374
3.93600	374
3.93967	377
3.94333	379
3.94700	380
3.95067	377
3.95433	374
3.95800	372
3.96167	372
3.96533	371
3.96900	369
3.97267	370
3.97633	372
3.98000	373
3.98367	372
3.98733	372
3.99100	370
3.99467	367
3.99833	365

[Status Trace (Column Oven Temperature)]
Interval(msec)	1000
# of Points	240
Start Time(min)	0.001
End Time(min)	3.985
Intensity Units	
Intensity Multiplier	1
R.Time (min)	Intensity
0.00125	35.06
0.01792	35.07
0.03458	35.06
0.05125	35.05
0.06792	35.06
0.08458	35.06
0.10125	35.07
0.11792	35.06
0.13458	35.05
0.15125	35.05
0.16792	35.05
0.18458	35.05
0.20125	35.05
0.21792	35.05
0.23458	35.04
0.25125	35.03
0.26792	35.03
0.28458	35.01
0.30125	35.01
0.31792	35.01
0.33458	35.00
0.35125	35.00
0.36792	35.01
0.38458	35.03
0.40125	35.04
0.41792	35.04
0.43458	35.04
0.45125	35.04
0.46792	35.03
0.48458	35.01
0.50125	35.01
0.51792	35.01
0.53458	35.02
0.55125	35.02
0.56792	35.02
0.58458	35.02
0.60125	35.02
0.61792	35.02
0.63458	35.02
0.65125	35.02
0.66792	35.02
0.68458	35.03
0.70125	35.03
0.71792	35.02
0.73458	35.01
0.75125	35.00
0.76792	34.99
0.78458	34.98
0.80125	34.98
0.81792	34.98
0.83458	34.99
0.85125	34.99
0.86792	35.00
0.88458	35.01
0.90125	35.02
0.91792	35.02
0.93458	35.03
0.95125	35.02
0.96792	35.02
0.98458	35.01
1.00125	35.01
1.01792	35.01
1.03458	35.00
1.05125	35.00
1.06792	35.00
1.08458	35.00
1.10125	35.01
1.11792	35.01
1.13458	35.01
1.15125	35.01
1.16792	35.01
1.18458	35.02
1.20125	35.01
1.21792	35.00
1.23458	34.99
1.25125	34.99
1.26792	34.99
1.28458	35.00
1.30125	35.00
1.31792	35.01
1.33458	35.00
1.35125	34.99
1.36792	34.99
1.38458	34.99
1.40125	34.98
1.41792	34.98
1.43458	34.99
1.45125	34.99
1.46792	34.99
1.48458	34.99
1.50125	34.99
1.51792	35.00
1.53458	35.00
1.55125	34.99
1.56792	34.97
1.58458	34.96
1.60125	35.00
1.61792	35.09
1.63458	35.26
1.65125	35.49
1.66792	35.81
1.68458	36.18
1.70125	36.54
1.71792	36.87
1.73458	37.19
1.75125	37.52
1.76792	37.87
1.78458	38.19
1.80125	38.53
1.81792	38.85
1.83458	39.19
1.85125	39.52
1.86792	39.84
1.88458	40.16
1.90125	40.50
1.91792	40.82
1.93458	41.14
1.95125	41.47
1.96792	41.80
1.98458	42.12
2.00125	42.46
2.01792	42.79
2.03458	43.14
2.05125	43.43
2.06792	43.75
2.08458	44.07
2.10125	44.40
2.11792	44.73
2.13458	45.06
2.15125	45.39
2.16792	45.70
2.18458	46.05
2.20125	46.38
2.21792	46.70
2.23458	47.03
2.25125	47.36
2.26792	47.69
2.28458	48.03
2.30125	48.35
2.31792	48.69
2.33458	49.01
2.35125	49.31
2.36792	49.61
2.38458	49.74
2.40125	49.76
2.41792	49.77
2.43458	49.77
2.45125	49.77
2.46792	49.76
2.48458	49.78
2.50125	49.80
2.51792	49.79
2.53458	49.79
2.55125	49.82
2.56792	49.83
2.58458	49.82
2.60125	49.82
2.61792	49.82
2.63458	49.83
2.65125	49.83
2.66792	49.83
2.68458	49.85
2.70125	49.86
2.71792	49.84
2.73458	49.85
2.75125	49.87
2.76792	49.88
2.78458	49.87
2.80125	49.86
2.81792	49.86
2.83458	49.87
2.85125	49.89
2.86792	49.90
2.88458	49.91
2.90125	49.92
2.91792	49.93
2.93458	49.95
2.95125	49.96
2.96792	49.97
2.98458	49.99
3.00125	50.01
3.01792	50.02
3.03458	50.03
3.05125	50.02
3.06792	50.04
3.08458	50.05
3.10125	50.06
3.11792	50.07
3.13458	50.07
3.15125	50.07
3.16792	50.07
3.18458	50.08
3.20125	50.08
3.21792	50.08
3.23458	50.08
3.25125	50.09
3.26792	50.09
3.28458	50.10
3.30125	50.11
3.31792	50.12
3.33458	50.12
3.35125	50.11
3.36792	50.09
3.38458	50.08
3.40125	50.05
3.41792	50.04
3.43458	50.02
3.45125	50.03
3.46792	50.03
3.48458	50.03
3.50125	50.03
3.51792	50.03
3.53458	50.02
3.55125	50.01
3.56792	50.00
3.58458	50.00
3.60125	50.02
3.61792	50.02
3.63458	50.03
3.65125	50.04
3.66792	50.05
3.68458	50.05
3.70125	50.05
3.71792	50.04
3.73458	50.04
3.75125	50.04
3.76792	50.03
3.78458	50.02
3.80125	50.02
3.81792	50.02
3.83458	50.03
3.85125	50.01
3.86792	50.01
3.88458	50.02
3.90125	50.03
3.91792	50.05
3.93458	50.05
3.95125	50.06
3.96792	50.07
3.98458	50.08

[Status Trace (Injection Unit Temperature)]
Interval(msec)	1000
# of Points	240
Start Time(min)	0.001
End Time(min)	3.985
Intensity Units	
Intensity Multiplier	1
R.Time (min)	Intensity
0.00125	99.97
0.01792	99.97
0.03458	99.97
0.05125	99.98
0.06792	99.97
0.08458	99.97
0.10125	99.98
0.11792	99.98
0.13458	99.97
0.15125	99.98
0.16792	99.98
0.18458	99.98
0.20125	99.98
0.21792	99.98
0.23458	99.98
0.25125	99.98
0.26792	99.97
0.28458	99.98
0.30125	99.98
0.31792	99.98
0.33458	99.98
0.35125	99.98
0.36792	99.98
0.38458	99.98
0.40125	99.99
0.41792	99.99
0.43458	99.98
0.45125	99.99
0.46792	99.98
0.48458	99.99
0.50125	99.98
0.51792	99.98
0.53458	99.98
0.55125	99.98
0.56792	99.99
0.58458	99.99
0.60125	99.98
0.61792	99.98
0.63458	99.98
0.65125	99.98
0.66792	99.98
0.68458	99.98
0.70125	99.98
0.71792	99.98
0.73458	99.98
0.75125	99.98
0.76792	99.98
0.78458	99.98
0.80125	99.98
0.81792	99.98
0.83458	99.98
0.85125	99.98
0.86792	99.98
0.88458	99.98
0.90125	99.97
0.91792	99.98
0.93458	99.98
0.95125	99.97
0.96792	99.98
0.98458	99.98
1.00125	99.98
1.01792	99.98
1.03458	99.98
1.05125	99.98
1.06792	99.98
1.08458	99.98
1.10125	99.98
1.11792	99.98
1.13458	99.98
1.15125	99.98
1.16792	99.98
1.18458	99.98
1.20125	99.98
1.21792	99.98
1.23458	99.98
1.25125	99.98
1.26792	99.98
1.28458	99.98
1.30125	99.98
1.31792	99.98
1.33458	99.98
1.35125	99.98
1.36792	99.98
1.38458	99.98
1.40125	99.98
1.41792	99.99
1.43458	99.97
1.45125	99.99
1.46792	99.99
1.48458	99.99
1.50125	99.99
1.51792	99.99
1.53458	99.99
1.55125	99.99
1.56792	99.99
1.58458	99.99
1.60125	99.99
1.61792	99.99
1.63458	99.99
1.65125	99.99
1.66792	99.99
1.68458	99.99
1.70125	99.99
1.71792	99.99
1.73458	99.99
1.75125	99.99
1.76792	99.99
1.78458	99.99
1.80125	99.99
1.81792	99.99
1.83458	99.98
1.85125	99.99
1.86792	99.98
1.88458	99.99
1.90125	99.99
1.91792	99.99
1.93458	99.98
1.95125	99.98
1.96792	99.98
1.98458	99.98
2.00125	99.99
2.01792	99.98
2.03458	99.98
2.05125	99.98
2.06792	99.98
2.08458	99.98
2.10125	99.98
2.11792	99.98
2.13458	99.98
2.15125	99.97
2.16792	99.97
2.18458	99.97
2.20125	99.98
2.21792	99.97
2.23458	99.97
2.25125	99.97
2.26792	99.97
2.28458	99.97
2.30125	99.97
2.31792	99.96
2.33458	99.97
2.35125	99.97
2.36792	99.97
2.38458	99.97
2.40125	99.97
2.41792	99.96
2.43458	99.97
2.45125	99.96
2.46792	99.97
2.48458	99.97
2.50125	99.97
2.51792	99.96
2.53458	99.96
2.55125	99.97
2.56792	99.96
2.58458	99.96
2.60125	99.97
2.61792	99.96
2.63458	99.97
2.65125	99.97
2.66792	99.97
2.68458	99.97
2.70125	99.97
2.71792	99.97
2.73458	99.98
2.75125	99.98
2.76792	99.98
2.78458	99.98
2.80125	99.99
2.81792	99.98
2.83458	99.99
2.85125	99.99
2.86792	99.99
2.88458	99.99
2.90125	99.99
2.91792	100.00
2.93458	100.00
2.95125	100.00
2.96792	100.00
2.98458	100.01
3.00125	100.01
3.01792	100.01
3.03458	100.01
3.05125	100.01
3.06792	100.01
3.08458	100.02
3.10125	100.02
3.11792	100.02
3.13458	100.02
3.15125	100.02
3.16792	100.02
3.18458	100.03
3.20125	100.03
3.21792	100.03
3.23458	100.03
3.25125	100.03
3.26792	100.03
3.28458	100.03
3.30125	100.03
3.31792	100.03
3.33458	100.03
3.35125	100.03
3.36792	100.03
3.38458	100.04
3.40125	100.04
3.41792	100.04
3.43458	100.04
3.45125	100.04
3.46792	100.04
3.48458	100.04
3.50125	100.04
3.51792	100.04
3.53458	100.04
3.55125	100.04
3.56792	100.04
3.58458	100.04
3.60125	100.04
3.61792	100.04
3.63458	100.04
3.65125	100.04
3.66792	100.04
3.68458	100.04
3.70125	100.05
3.71792	100.05
3.73458	100.05
3.75125	100.04
3.76792	100.05
3.78458	100.05
3.80125	100.05
3.81792	100.05
3.83458	100.05
3.85125	100.05
3.86792	100.05
3.88458	100.05
3.90125	100.05
3.91792	100.05
3.93458	100.05
3.95125	100.05
3.96792	100.05
3.98458	100.05

[Status Trace (Carrier Gas Pressure)]
Interval(msec)	1000
# of Points	240
Start Time(min)	0.001
End Time(min)	3.985
Intensity Units	
Intensity Multiplier	1
R.Time (min)	Intensity
0.00125	58.00
0.01792	56.72
0.03458	56.06
0.05125	58.28
0.06792	59.89
0.08458	58.40
0.10125	57.97
0.11792	58.00
0.13458	58.01
0.15125	58.01
0.16792	58.00
0.18458	58.00
0.20125	58.00
0.21792	58.00
0.23458	58.00
0.25125	58.00
0.26792	58.00
0.28458	58.00
0.30125	58.00
0.31792	58.00
0.33458	58.00
0.35125	58.00
0.36792	58.00
0.38458	58.00
0.40125	58.00
0.41792	58.00
0.43458	58.00
0.45125	58.00
0.46792	58.00
0.48458	58.00
0.50125	58.00
0.51792	58.00
0.53458	58.00
0.55125	58.00
0.56792	58.00
0.58458	58.00
0.60125	58.00
0.61792	58.00
0.63458	58.00
0.65125	58.00
0.66792	58.00
0.68458	58.00
0.70125	58.00
0.71792	58.00
0.73458	58.00
0.75125	58.00
0.76792	58.00
0.78458	58.00
0.80125	58.00
0.81792	58.00
0.83458	58.00
0.85125	58.00
0.86792	58.00
0.88458	58.00
0.90125	58.00
0.91792	58.00
0.93458	58.00
0.95125	58.00
0.96792	58.00
0.98458	58.00
1.00125	58.00
1.01792	58.00
1.03458	58.00
1.05125	58.00
1.06792	58.00
1.08458	58.00
1.10125	58.00
1.11792	58.00
1.13458	58.00
1.15125	58.00
1.16792	58.00
1.18458	58.00
1.20125	58.00
1.21792	58.00
1.23458	58.00
1.25125	58.00
1.26792	58.00
1.28458	58.00
1.30125	58.00
1.31792	58.00
1.33458	58.00
1.35125	58.00
1.36792	58.00
1.38458	58.00
1.40125	58.00
1.41792	58.00
1.43458	58.00
1.45125	58.00
1.46792	58.00
1.48458	58.00
1.50125	58.00
1.51792	58.00
1.53458	58.00
1.55125	58.00
1.56792	58.00
1.58458	58.00
1.60125	58.00
1.61792	58.00
1.63458	58.00
1.65125	58.00
1.66792	58.01
1.68458	58.01
1.70125	58.00
1.71792	58.00
1.73458	58.00
1.75125	58.00
1.76792	58.00
1.78458	58.00
1.80125	58.00
1.81792	58.00
1.83458	58.00
1.85125	58.00
1.86792	58.00
1.88458	58.00
1.90125	58.00
1.91792	58.00
1.93458	58.00
1.95125	58.00
1.96792	58.00
1.98458	58.00
2.00125	58.00
2.01792	58.00
2.03458	58.00
2.05125	58.00
2.06792	58.00
2.08458	58.00
2.10125	58.00
2.11792	58.00
2.13458	58.00
2.15125	58.00
2.16792	58.00
2.18458	58.00
2.20125	58.00
2.21792	58.00
2.23458	58.00
2.25125	58.00
2.26792	58.00
2.28458	58.00
2.30125	58.00
2.31792	58.00
2.33458	58.00
2.35125	58.00
2.36792	58.00
2.38458	57.99
2.40125	57.99
2.41792	58.00
2.43458	58.00
2.45125	58.00
2.46792	58.00
2.48458	58.00
2.50125	58.00
2.51792	57.98
2.53458	57.99
2.55125	58.00
2.56792	58.00
2.58458	58.00
2.60125	58.00
2.61792	58.00
2.63458	58.00
2.65125	58.00
2.66792	58.00
2.68458	58.00
2.70125	58.00
2.71792	58.00
2.73458	58.00
2.75125	58.00
2.76792	58.00
2.78458	58.00
2.80125	58.00
2.81792	58.00
2.83458	58.00
2.85125	58.00
2.86792	58.00
2.88458	58.00
2.90125	58.00
2.91792	58.00
2.93458	58.00
2.95125	58.00
2.96792	58.00
2.98458	58.00
3.00125	58.00
3.01792	58.00
3.03458	58.00
3.05125	58.00
3.06792	58.00
3.08458	58.00
3.10125	58.00
3.11792	58.00
3.13458	58.00
3.15125	58.00
3.16792	58.00
3.18458	58.00
3.20125	58.00
3.21792	58.00
3.23458	58.00
3.25125	58.00
3.26792	58.00
3.28458	58.00
3.30125	58.00
3.31792	58.00
3.33458	58.00
3.35125	58.00
3.36792	58.00
3.38458	58.00
3.40125	58.00
3.41792	58.00
3.43458	58.00
3.45125	58.00
3.46792	58.00
3.48458	58.00
3.50125	58.00
3.51792	58.00
3.53458	58.00
3.55125	58.00
3.56792	58.00
3.58458	58.00
3.60125	58.00
3.61792	58.00
3.63458	58.00
3.65125	58.00
3.66792	58.00
3.68458	58.00
3.70125	58.00
3.71792	58.00
3.73458	58.00
3.75125	58.00
3.76792	58.00
3.78458	58.00
3.80125	58.00
3.81792	58.00
3.83458	58.00
3.85125	58.00
3.86792	58.00
3.88458	58.00
3.90125	58.00
3.91792	58.00
3.93458	58.00
3.95125	58.00
3.96792	58.00
3.98458	58.00

[Status Trace (Carrier Gas Flow)]
Interval(msec)	1000
# of Points	240
Start Time(min)	0.001
End Time(min)	3.985
Intensity Units	
Intensity Multiplier	1
R.Time (min)	Intensity
0.00125	34.52
0.01792	33.74
0.03458	34.54
0.05125	34.55
0.06792	34.49
0.08458	34.50
0.10125	34.52
0.11792	34.52
0.13458	34.52
0.15125	34.52
0.16792	34.52
0.18458	34.52
0.20125	34.52
0.21792	34.52
0.23458	34.52
0.25125	34.52
0.26792	34.52
0.28458	34.52
0.30125	34.52
0.31792	34.52
0.33458	34.52
0.35125	34.52
0.36792	34.52
0.38458	34.52
0.40125	34.52
0.41792	34.52
0.43458	34.52
0.45125	34.52
0.46792	34.52
0.48458	34.51
0.50125	34.52
0.51792	34.52
0.53458	34.52
0.55125	34.52
0.56792	34.52
0.58458	34.52
0.60125	34.52
0.61792	34.52
0.63458	34.52
0.65125	34.52
0.66792	34.52
0.68458	34.52
0.70125	34.52
0.71792	34.52
0.73458	34.52
0.75125	34.52
0.76792	34.52
0.78458	34.52
0.80125	34.52
0.81792	34.52
0.83458	34.52
0.85125	34.52
0.86792	34.52
0.88458	34.52
0.90125	34.52
0.91792	34.52
0.93458	34.52
0.95125	34.52
0.96792	34.52
0.98458	34.52
1.00125	34.52
1.01792	34.52
1.03458	34.52
1.05125	34.52
1.06792	34.52
1.08458	34.52
1.10125	34.52
1.11792	34.52
1.13458	34.51
1.15125	34.52
1.16792	34.52
1.18458	34.52
1.20125	34.52
1.21792	34.52
1.23458	34.52
1.25125	34.52
1.26792	34.52
1.28458	34.52
1.30125	34.52
1.31792	34.52
1.33458	34.52
1.35125	34.51
1.36792	34.52
1.38458	34.52
1.40125	34.51
1.41792	34.51
1.43458	34.52
1.45125	34.51
1.46792	34.51
1.48458	34.52
1.50125	34.52
1.51792	34.52
1.53458	34.52
1.55125	34.52
1.56792	34.52
1.58458	34.51
1.60125	34.52
1.61792	34.52
1.63458	34.52
1.65125	34.52
1.66792	34.52
1.68458	34.52
1.70125	34.52
1.71792	34.52
1.73458	34.52
1.75125	34.52
1.76792	34.52
1.78458	34.52
1.80125	34.52
1.81792	34.52
1.83458	34.52
1.85125	34.52
1.86792	34.51
1.88458	34.52
1.90125	34.51
1.91792	34.52
1.93458	34.52
1.95125	34.51
1.96792	34.52
1.98458	34.52
2.00125	34.52
2.01792	34.52
2.03458	34.52
2.05125	34.52
2.06792	34.52
2.08458	34.52
2.10125	34.52
2.11792	34.52
2.13458	34.52
2.15125	34.52
2.16792	34.52
2.18458	34.52
2.20125	34.52
2.21792	34.52
2.23458	34.52
2.25125	34.52
2.26792	34.52
2.28458	34.52
2.30125	34.52
2.31792	34.52
2.33458	34.52
2.35125	34.52
2.36792	34.52
2.38458	34.51
2.40125	34.52
2.41792	34.52
2.43458	34.52
2.45125	34.52
2.46792	34.52
2.48458	34.52
2.50125	34.52
2.51792	34.52
2.53458	34.52
2.55125	34.52
2.56792	34.52
2.58458	34.52
2.60125	34.52
2.61792	34.52
2.63458	34.52
2.65125	34.52
2.66792	34.52
2.68458	34.52
2.70125	34.52
2.71792	34.52
2.73458	34.52
2.75125	34.52
2.76792	34.51
2.78458	34.52
2.80125	34.52
2.81792	34.52
2.83458	34.52
2.85125	34.52
2.86792	34.53
2.88458	34.53
2.90125	34.51
2.91792	34.51
2.93458	34.52
2.95125	34.50
2.96792	34.52
2.98458	34.53
3.00125	34.52
3.01792	34.52
3.03458	34.52
3.05125	34.52
3.06792	34.52
3.08458	34.52
3.10125	34.52
3.11792	34.52
3.13458	34.52
3.15125	34.52
3.16792	34.52
3.18458	34.52
3.20125	34.52
3.21792	34.52
3.23458	34.52
3.25125	34.52
3.26792	34.52
3.28458	34.53
3.30125	34.52
3.31792	34.52
3.33458	34.52
3.35125	34.52
3.36792	34.52
3.38458	34.52
3.40125	34.52
3.41792	34.52
3.43458	34.52
3.45125	34.52
3.46792	34.52
3.48458	34.51
3.50125	34.52
3.51792	34.53
3.53458	34.52
3.55125	34.52
3.56792	34.52
3.58458	34.52
3.60125	34.52
3.61792	34.52
3.63458	34.52
3.65125	34.52
3.66792	34.52
3.68458	34.52
3.70125	34.52
3.71792	34.52
3.73458	34.52
3.75125	34.52
3.76792	34.52
3.78458	34.52
3.80125	34.52
3.81792	34.52
3.83458	34.52
3.85125	34.52
3.86792	34.52
3.88458	34.52
3.90125	34.52
3.91792	34.52
3.93458	34.52
3.95125	34.51
3.96792	34.52
3.98458	34.52

[Status Trace (Column Flow)]
Interval(msec)	1000
# of Points	240
Start Time(min)	0.001
End Time(min)	3.985
Intensity Units	
Intensity Multiplier	1
R.Time (min)	Intensity
0.00125	5.57
0.01792	5.42
0.03458	5.35
0.05125	5.61
0.06792	5.80
0.08458	5.62
0.10125	5.57
0.11792	5.57
0.13458	5.57
0.15125	5.57
0.16792	5.57
0.18458	5.57
0.20125	5.57
0.21792	5.57
0.23458	5.57
0.25125	5.57
0.26792	5.57
0.28458	5.57
0.30125	5.57
0.31792	5.57
0.33458	5.57
0.35125	5.57
0.36792	5.57
0.38458	5.57
0.40125	5.57
0.41792	5.57
0.43458	5.57
0.45125	5.57
0.46792	5.57
0.48458	5.57
0.50125	5.57
0.51792	5.57
0.53458	5.57
0.55125	5.57
0.56792	5.57
0.58458	5.57
0.60125	5.57
0.61792	5.57
0.63458	5.57
0.65125	5.57
0.66792	5.57
0.68458	5.57
0.70125	5.57
0.71792	5.57
0.73458	5.57
0.75125	5.57
0.76792	5.57
0.78458	5.57
0.80125	5.57
0.81792	5.57
0.83458	5.57
0.85125	5.57
0.86792	5.57
0.88458	5.57
0.90125	5.57
0.91792	5.57
0.93458	5.57
0.95125	5.57
0.96792	5.57
0.98458	5.57
1.00125	5.57
1.01792	5.57
1.03458	5.57
1.05125	5.57
1.06792	5.57
1.08458	5.57
1.10125	5.57
1.11792	5.57
1.13458	5.57
1.15125	5.57
1.16792	5.57
1.18458	5.57
1.20125	5.57
1.21792	5.57
1.23458	5.57
1.25125	5.57
1.26792	5.57
1.28458	5.57
1.30125	5.57
1.31792	5.57
1.33458	5.57
1.35125	5.57
1.36792	5.57
1.38458	5.57
1.40125	5.57
1.41792	5.57
1.43458	5.57
1.45125	5.57
1.46792	5.57
1.48458	5.57
1.50125	5.57
1.51792	5.57
1.53458	5.57
1.55125	5.57
1.56792	5.57
1.58458	5.58
1.60125	5.57
1.61792	5.57
1.63458	5.57
1.65125	5.56
1.66792	5.55
1.68458	5.54
1.70125	5.53
1.71792	5.51
1.73458	5.50
1.75125	5.50
1.76792	5.48
1.78458	5.47
1.80125	5.46
1.81792	5.45
1.83458	5.44
1.85125	5.43
1.86792	5.42
1.88458	5.41
1.90125	5.40
1.91792	5.39
1.93458	5.38
1.95125	5.38
1.96792	5.36
1.98458	5.35
2.00125	5.35
2.01792	5.33
2.03458	5.32
2.05125	5.32
2.06792	5.31
2.08458	5.30
2.10125	5.29
2.11792	5.28
2.13458	5.27
2.15125	5.26
2.16792	5.25
2.18458	5.24
2.20125	5.23
2.21792	5.22
2.23458	5.21
2.25125	5.20
2.26792	5.19
2.28458	5.18
2.30125	5.17
2.31792	5.16
2.33458	5.15
2.35125	5.15
2.36792	5.14
2.38458	5.13
2.40125	5.13
2.41792	5.13
2.43458	5.13
2.45125	5.13
2.46792	5.13
2.48458	5.13
2.50125	5.13
2.51792	5.13
2.53458	5.13
2.55125	5.13
2.56792	5.13
2.58458	5.13
2.60125	5.13
2.61792	5.13
2.63458	5.13
2.65125	5.13
2.66792	5.13
2.68458	5.13
2.70125	5.13
2.71792	5.13
2.73458	5.13
2.75125	5.13
2.76792	5.13
2.78458	5.13
2.80125	5.13
2.81792	5.13
2.83458	5.13
2.85125	5.13
2.86792	5.13
2.88458	5.13
2.90125	5.13
2.91792	5.13
2.93458	5.13
2.95125	5.13
2.96792	5.13
2.98458	5.13
3.00125	5.13
3.01792	5.13
3.03458	5.13
3.05125	5.13
3.06792	5.13
3.08458	5.13
3.10125	5.12
3.11792	5.12
3.13458	5.12
3.15125	5.12
3.16792	5.12
3.18458	5.12
3.20125	5.12
3.21792	5.12
3.23458	5.12
3.25125	5.12
3.26792	5.12
3.28458	5.12
3.30125	5.12
3.31792	5.12
3.33458	5.12
3.35125	5.12
3.36792	5.12
3.38458	5.12
3.40125	5.13
3.41792	5.13
3.43458	5.13
3.45125	5.13
3.46792	5.13
3.48458	5.13
3.50125	5.13
3.51792	5.13
3.53458	5.13
3.55125	5.13
3.56792	5.13
3.58458	5.13
3.60125	5.13
3.61792	5.13
3.63458	5.13
3.65125	5.13
3.66792	5.13
3.68458	5.13
3.70125	5.13
3.71792	5.13
3.73458	5.13
3.75125	5.13
3.76792	5.13
3.78458	5.13
3.80125	5.13
3.81792	5.13
3.83458	5.13
3.85125	5.13
3.86792	5.13
3.88458	5.13
3.90125	5.13
3.91792	5.13
3.93458	5.13
3.95125	5.13
3.96792	5.13
3.98458	5.12

[Status Trace (Linear Velocity)]
Interval(msec)	1000
# of Points	240
Start Time(min)	0.001
End Time(min)	3.985
Intensity Units	
Intensity Multiplier	1
R.Time (min)	Intensity
0.00125	39.02
0.01792	38.18
0.03458	37.75
0.05125	39.21
0.06792	40.26
0.08458	39.28
0.10125	39.00
0.11792	39.02
0.13458	39.03
0.15125	39.03
0.16792	39.03
0.18458	39.03
0.20125	39.03
0.21792	39.03
0.23458	39.03
0.25125	39.03
0.26792	39.03
0.28458	39.03
0.30125	39.03
0.31792	39.03
0.33458	39.03
0.35125	39.03
0.36792	39.03
0.38458	39.03
0.40125	39.03
0.41792	39.02
0.43458	39.03
0.45125	39.02
0.46792	39.03
0.48458	39.03
0.50125	39.03
0.51792	39.03
0.53458	39.03
0.55125	39.03
0.56792	39.03
0.58458	39.03
0.60125	39.03
0.61792	39.03
0.63458	39.03
0.65125	39.03
0.66792	39.03
0.68458	39.03
0.70125	39.03
0.71792	39.03
0.73458	39.03
0.75125	39.03
0.76792	39.03
0.78458	39.03
0.80125	39.03
0.81792	39.03
0.83458	39.03
0.85125	39.03
0.86792	39.03
0.88458	39.03
0.90125	39.03
0.91792	39.03
0.93458	39.03
0.95125	39.03
0.96792	39.03
0.98458	39.03
1.00125	39.03
1.01792	39.03
1.03458	39.03
1.05125	39.03
1.06792	39.03
1.08458	39.03
1.10125	39.03
1.11792	39.03
1.13458	39.03
1.15125	39.03
1.16792	39.03
1.18458	39.03
1.20125	39.03
1.21792	39.03
1.23458	39.03
1.25125	39.03
1.26792	39.03
1.28458	39.03
1.30125	39.03
1.31792	39.03
1.33458	39.03
1.35125	39.03
1.36792	39.03
1.38458	39.03
1.40125	39.03
1.41792	39.03
1.43458	39.03
1.45125	39.03
1.46792	39.03
1.48458	39.03
1.50125	39.03
1.51792	39.03
1.53458	39.03
1.55125	39.03
1.56792	39.03
1.58458	39.03
1.60125	39.03
1.61792	39.02
1.63458	39.01
1.65125	38.99
1.66792	38.95
1.68458	38.92
1.70125	38.88
1.71792	38.85
1.73458	38.82
1.75125	38.79
1.76792	38.76
1.78458	38.72
1.80125	38.70
1.81792	38.66
1.83458	38.63
1.85125	38.60
1.86792	38.57
1.88458	38.54
1.90125	38.51
1.91792	38.48
1.93458	38.45
1.95125	38.42
1.96792	38.39
1.98458	38.36
2.00125	38.33
2.01792	38.29
2.03458	38.26
2.05125	38.24
2.06792	38.21
2.08458	38.18
2.10125	38.15
2.11792	38.12
2.13458	38.09
2.15125	38.06
2.16792	38.03
2.18458	38.00
2.20125	37.97
2.21792	37.94
2.23458	37.91
2.25125	37.88
2.26792	37.85
2.28458	37.82
2.30125	37.79
2.31792	37.76
2.33458	37.73
2.35125	37.71
2.36792	37.68
2.38458	37.66
2.40125	37.66
2.41792	37.66
2.43458	37.66
2.45125	37.66
2.46792	37.66
2.48458	37.66
2.50125	37.66
2.51792	37.65
2.53458	37.66
2.55125	37.66
2.56792	37.66
2.58458	37.66
2.60125	37.66
2.61792	37.66
2.63458	37.66
2.65125	37.66
2.66792	37.66
2.68458	37.66
2.70125	37.66
2.71792	37.66
2.73458	37.66
2.75125	37.66
2.76792	37.65
2.78458	37.66
2.80125	37.66
2.81792	37.66
2.83458	37.66
2.85125	37.66
2.86792	37.65
2.88458	37.65
2.90125	37.65
2.91792	37.65
2.93458	37.65
2.95125	37.65
2.96792	37.65
2.98458	37.65
3.00125	37.64
3.01792	37.64
3.03458	37.64
3.05125	37.64
3.06792	37.64
3.08458	37.64
3.10125	37.64
3.11792	37.64
3.13458	37.64
3.15125	37.64
3.16792	37.64
3.18458	37.64
3.20125	37.64
3.21792	37.64
3.23458	37.64
3.25125	37.64
3.26792	37.64
3.28458	37.64
3.30125	37.64
3.31792	37.63
3.33458	37.63
3.35125	37.63
3.36792	37.64
3.38458	37.64
3.40125	37.64
3.41792	37.64
3.43458	37.64
3.45125	37.64
3.46792	37.64
3.48458	37.64
3.50125	37.64
3.51792	37.64
3.53458	37.64
3.55125	37.64
3.56792	37.64
3.58458	37.64
3.60125	37.64
3.61792	37.64
3.63458	37.64
3.65125	37.64
3.66792	37.64
3.68458	37.64
3.70125	37.64
3.71792	37.64
3.73458	37.64
3.75125	37.64
3.76792	37.64
3.78458	37.64
3.80125	37.64
3.81792	37.64
3.83458	37.64
3.85125	37.64
3.86792	37.64
3.88458	37.64
3.90125	37.64
3.91792	37.64
3.93458	37.64
3.95125	37.64
3.96792	37.64
3.98458	37.64

