[Header]
Application Name	LabSolutions
Version	5.110
Data File Name	C:\Users\User\Desktop\GC Analyses\Jack\Nachusa Grasslands Sampling\T0 Timepoint July 12th\T0_07122022_086.gcd
Output Date	3/14/2023
Output Time	3:40:39 PM

[File Information]
Type	Data File
Generated	3/7/2023 11:24:18 PM
Generated by	System Administrator
Modified	3/7/2023 11:31:02 PM
Modified by	System Administrator

[Sample Information]
Operator Name	System Administrator
Acquired	3/7/2023 11:27:00 PM
Sample Type	0:Unknown
Level	0
Sample Name	086
Sample ID	086
ISTD Amount1	1
ISTD Amount2	1
ISTD Amount3	1
ISTD Amount4	1
ISTD Amount5	1
ISTD Amount6	1
ISTD Amount7	1
ISTD Amount8	1
ISTD Amount9	1
ISTD Amount10	1
ISTD Amount11	1
ISTD Amount12	1
ISTD Amount13	1
ISTD Amount14	1
ISTD Amount15	1
ISTD Amount16	1
ISTD Amount17	1
ISTD Amount18	1
ISTD Amount19	1
ISTD Amount20	1
ISTD Amount21	1
ISTD Amount22	1
ISTD Amount23	1
ISTD Amount24	1
ISTD Amount25	1
ISTD Amount26	1
ISTD Amount27	1
ISTD Amount28	1
ISTD Amount29	1
ISTD Amount30	1
ISTD Amount31	1
ISTD Amount32	1
Sample Amount	1
Dilution Factor	1
Vial#	85
Injection Volume	1
Injection Count	1
Bar Code	

[Original Files]
Data File	C:\Users\User\Desktop\GC Analyses\Jack\Nachusa Grasslands Sampling\T0 Timepoint July 12th\T0_07122022_086.gcd
Method File	C:\LabSolutions\Data\GHG_4min_2022\ghg3_togas_w_acet_4 min_new_int.gcm
Batch File	C:\LabSolutions\Data\AutoSamplerTesting\T0_07122022.gcb
Report Format File	c:\LabSolutions\System\DEFAULT.lsr

[File Description]


[Configuration]
Instrument Name	C0B7VH3-Instrument1
Instrument #	1
Line #	1
# of Detectors	3
Detector ID	DET#1	DET#2	DET#3
Detector Name	FID	PTCD	ECD
# of Channels	1	1	1

[Peak Table(Ch1)]
# of Peaks	3
Peak#	R.Time	I.Time	F.Time	Area	Height	A/H	Conc.	Mark	ID#	Name	k'	Plate #	Plate Ht.	Tailing	Resolution	Sep.Factor	Area Ratio	Height Ratio	Conc. %	Norm Conc.
1	1.476	1.421	1.538	34020	16067	2.117	240.181	   	1	CO	0.000	9379	15.993	1.307	0.000	0.000	0	0	37.953	37.953
2	1.567	1.538	1.626	4970	2388	2.081	96.102	 V 	2	CH4	0.062	10192	14.717	0.000	1.490	0.000	0	0	15.186	15.186
3	1.996	1.952	2.488	1181607	558136	2.117	296.551	   	3	CO2	0.353	17250	8.696	1.296	6.981	5.680	0	0	46.861	46.861

[Peak Table(Ch2)]
# of Peaks	0

[Peak Table(Ch3)]
# of Peaks	5
Peak#	R.Time	I.Time	F.Time	Area	Height	A/H	Conc.	Mark	ID#	Name	k'	Plate #	Plate Ht.	Tailing	Resolution	Sep.Factor	Area Ratio	Height Ratio	Conc. %	Norm Conc.
1	2.458	2.150	2.521	3279	521	6.297	0.000	   			0.000	7808	19.211	0.000	0.000	0.000	0	0	0.000	0.000
2	2.546	2.521	2.631	906	217	4.169	0.000	 V 			0.036	2816	53.265	0.000	0.580	0.000	0	0	0.000	0.000
3	2.708	2.645	2.744	479	108	4.443	0.000	   			0.101	143	1046.661	0.000	0.294	2.833	0	0	0.000	0.000
4	2.873	2.744	3.030	19804	4951	4.000	0.506	 V 	1	N2O	0.169	12948	11.585	1.721	0.328	1.662	0	0	100.000	100.000
5	3.115	3.034	3.753	13931	621	22.415	0.000	   	2	SF6	0.267	527	284.744	4.290	0.752	1.584	0	0	0.000	0.000

[Compound Results(Ch1)]
# of IDs	6
ID#	Name	R.Time	Area	Height	Conc.	Curve	3rd	2nd	1st	Constant	Area Ratio	Height Ratio	Conc. %	Norm Conc.
1	CO	1.476	34020	16067	240.181	Linear	0.000000e+00	0.000000e+00	1.416423e+002	0.000000e+00	0	0	37.953	37.953
2	CH4	1.567	4970	2388	96.102	Linear	0.000000e+00	0.000000e+00	5.171738e+001	0.000000e+00	0	0	15.186	15.186
3	CO2	1.996	1181607	558136	296.551	Linear	0.000000e+00	0.000000e+00	3.984494e+003	0.000000e+00	0	0	46.861	46.861
4	Ethylene	0.000	0	0	0.000	Linear	0.000000e+00	0.000000e+00	0.000000e+00	0.000000e+00	0	0	0.000	0.000
5	Acetylene	0.000	0	0	0.000	Linear	0.000000e+00	0.000000e+00	0.000000e+00	0.000000e+00	0	0	0.000	0.000
6	Ethane	0.000	0	0	0.000	Linear	0.000000e+00	0.000000e+00	0.000000e+00	0.000000e+00	0	0	0.000	0.000

[Compound Results(Ch2)]
# of IDs	5
ID#	Name	R.Time	Area	Height	Conc.	Curve	3rd	2nd	1st	Constant	Area Ratio	Height Ratio	Conc. %	Norm Conc.
1	Hydrogen	0.000	0	0	0.000	Linear	0.000000e+00	0.000000e+00	0.000000e+00	0.000000e+00	0	0	0.000	0.000
2	Oxygen	0.000	0	0	0.000	Linear	0.000000e+00	0.000000e+00	0.000000e+00	0.000000e+00	0	0	0.000	0.000
3	Nitrogen	0.000	0	0	0.000	Linear	0.000000e+00	0.000000e+00	0.000000e+00	0.000000e+00	0	0	0.000	0.000
4	Methane	0.000	0	0	0.000	Linear	0.000000e+00	0.000000e+00	0.000000e+00	0.000000e+00	0	0	0.000	0.000
5	Carbon Monoxide	0.000	0	0	0.000	Linear	0.000000e+00	0.000000e+00	0.000000e+00	0.000000e+00	0	0	0.000	0.000

[Compound Results(Ch3)]
# of IDs	2
ID#	Name	R.Time	Area	Height	Conc.	Curve	3rd	2nd	1st	Constant	Area Ratio	Height Ratio	Conc. %	Norm Conc.
1	N2O	2.873	19804	4951	0.506	Linear	0.000000e+00	0.000000e+00	3.915173e+004	0.000000e+00	0	0	100.000	100.000
2	SF6	3.115	13931	621	0.000	Linear	0.000000e+00	0.000000e+00	0.000000e+00	0.000000e+00	0	0	0.000	0.000

[Group Results(Ch1)]
# of Groups	0

[Group Results(Ch2)]
# of Groups	0

[Group Results(Ch3)]
# of Groups	0

[Chromatogram (Ch1)]
Interval(msec)	220
# of Points	1091
Start Time(min)	0.002
End Time(min)	3.998
R.Time (min)	Intensity
0.00167	2
0.00533	4
0.00900	4
0.01267	5
0.01633	9
0.02000	12
0.02367	5
0.02733	-7
0.03100	-18
0.03467	-28
0.03833	-32
0.04200	-32
0.04567	-34
0.04933	-38
0.05300	-39
0.05667	-35
0.06033	-28
0.06400	-20
0.06767	-12
0.07133	-2
0.07500	14
0.07867	33
0.08233	46
0.08600	48
0.08967	38
0.09333	25
0.09700	11
0.10067	-2
0.10433	-10
0.10800	-14
0.11167	-16
0.11533	-13
0.11900	-11
0.12267	-8
0.12633	-4
0.13000	4
0.13367	13
0.13733	18
0.14100	20
0.14467	20
0.14833	14
0.15200	6
0.15567	0
0.15933	-3
0.16300	-3
0.16667	-0
0.17033	4
0.17400	10
0.17767	18
0.18133	26
0.18500	33
0.18867	43
0.19233	54
0.19600	65
0.19967	74
0.20333	81
0.20700	87
0.21067	89
0.21433	92
0.21800	93
0.22167	92
0.22533	90
0.22900	84
0.23267	73
0.23633	62
0.24000	52
0.24367	47
0.24733	46
0.25100	47
0.25467	47
0.25833	44
0.26200	41
0.26567	39
0.26933	41
0.27300	44
0.27667	41
0.28033	35
0.28400	26
0.28767	20
0.29133	16
0.29500	15
0.29867	15
0.30233	15
0.30600	14
0.30967	11
0.31333	10
0.31700	10
0.32067	10
0.32433	10
0.32800	8
0.33167	5
0.33533	0
0.33900	-0
0.34267	6
0.34633	11
0.35000	11
0.35367	9
0.35733	4
0.36100	-0
0.36467	-5
0.36833	-12
0.37200	-18
0.37567	-22
0.37933	-24
0.38300	-20
0.38667	-14
0.39033	-8
0.39400	-5
0.39767	-5
0.40133	-6
0.40500	-9
0.40867	-10
0.41233	-9
0.41600	-8
0.41967	-8
0.42333	-12
0.42700	-15
0.43067	-17
0.43433	-17
0.43800	-11
0.44167	-5
0.44533	-2
0.44900	-3
0.45267	-8
0.45633	-16
0.46000	-24
0.46367	-29
0.46733	-32
0.47100	-32
0.47467	-29
0.47833	-22
0.48200	-15
0.48567	-8
0.48933	-3
0.49300	3
0.49667	7
0.50033	5
0.50400	-4
0.50767	-16
0.51133	-28
0.51500	-39
0.51867	-46
0.52233	-50
0.52600	-53
0.52967	-57
0.53333	-62
0.53700	-67
0.54067	-68
0.54433	-65
0.54800	-63
0.55167	-60
0.55533	-56
0.55900	-48
0.56267	-43
0.56633	-41
0.57000	-40
0.57367	-41
0.57733	-43
0.58100	-44
0.58467	-44
0.58833	-45
0.59200	-46
0.59567	-46
0.59933	-44
0.60300	-41
0.60667	-37
0.61033	-33
0.61400	-29
0.61767	-28
0.62133	-28
0.62500	-29
0.62867	-27
0.63233	-26
0.63600	-27
0.63967	-29
0.64333	-31
0.64700	-31
0.65067	-29
0.65433	-25
0.65800	-24
0.66167	-24
0.66533	-24
0.66900	-24
0.67267	-24
0.67633	-25
0.68000	-30
0.68367	-39
0.68733	-49
0.69100	-53
0.69467	-52
0.69833	-53
0.70200	-59
0.70567	-62
0.70933	-61
0.71300	-60
0.71667	-61
0.72033	-62
0.72400	-60
0.72767	-52
0.73133	-40
0.73500	-29
0.73867	-24
0.74233	-19
0.74600	-13
0.74967	-7
0.75333	-2
0.75700	-3
0.76067	-8
0.76433	-12
0.76800	-19
0.77167	-26
0.77533	-27
0.77900	-24
0.78267	-17
0.78633	-13
0.79000	-9
0.79367	-6
0.79733	-6
0.80100	-9
0.80467	-14
0.80833	-18
0.81200	-21
0.81567	-24
0.81933	-25
0.82300	-24
0.82667	-22
0.83033	-21
0.83400	-21
0.83767	-19
0.84133	-18
0.84500	-18
0.84867	-19
0.85233	-18
0.85600	-17
0.85967	-17
0.86333	-16
0.86700	-14
0.87067	-15
0.87433	-19
0.87800	-22
0.88167	-25
0.88533	-25
0.88900	-23
0.89267	-19
0.89633	-14
0.90000	-12
0.90367	-8
0.90733	-1
0.91100	6
0.91467	9
0.91833	11
0.92200	12
0.92567	9
0.92933	-3
0.93300	-17
0.93667	-27
0.94033	-31
0.94400	-34
0.94767	-39
0.95133	-47
0.95500	-52
0.95867	-51
0.96233	-48
0.96600	-41
0.96967	-31
0.97333	-21
0.97700	-14
0.98067	-15
0.98433	-23
0.98800	-30
0.99167	-33
0.99533	-33
0.99900	-36
1.00267	-42
1.00633	-46
1.01000	-48
1.01367	-47
1.01733	-45
1.02100	-43
1.02467	-41
1.02833	-41
1.03200	-38
1.03567	-33
1.03933	-31
1.04300	-31
1.04667	-30
1.05033	-31
1.05400	-34
1.05767	-38
1.06133	-42
1.06500	-44
1.06867	-44
1.07233	-41
1.07600	-35
1.07967	-32
1.08333	-32
1.08700	-34
1.09067	-39
1.09433	-45
1.09800	-48
1.10167	-50
1.10533	-51
1.10900	-49
1.11267	-46
1.11633	-45
1.12000	-46
1.12367	-45
1.12733	-44
1.13100	-43
1.13467	-41
1.13833	-43
1.14200	-50
1.14567	-56
1.14933	-58
1.15300	-58
1.15667	-58
1.16033	-56
1.16400	-52
1.16767	-50
1.17133	-46
1.17500	-38
1.17867	-29
1.18233	-26
1.18600	-28
1.18967	-32
1.19333	-37
1.19700	-41
1.20067	-46
1.20433	-48
1.20800	-46
1.21167	-43
1.21533	-42
1.21900	-45
1.22267	-50
1.22633	-55
1.23000	-60
1.23367	-62
1.23733	-61
1.24100	-56
1.24467	-52
1.24833	-50
1.25200	-50
1.25567	-55
1.25933	-64
1.26300	-70
1.26667	-67
1.27033	-63
1.27400	-60
1.27767	-58
1.28133	-54
1.28500	-48
1.28867	-44
1.29233	-44
1.29600	-48
1.29967	-53
1.30333	-61
1.30700	-70
1.31067	-80
1.31433	-87
1.31800	-93
1.32167	-97
1.32533	-97
1.32900	-97
1.33267	-95
1.33633	-93
1.34000	-90
1.34367	-86
1.34733	-77
1.35100	-67
1.35467	-60
1.35833	-57
1.36200	-59
1.36567	-63
1.36933	-66
1.37300	-71
1.37667	-74
1.38033	-74
1.38400	-72
1.38767	-72
1.39133	-70
1.39500	-69
1.39867	-71
1.40233	-76
1.40600	-81
1.40967	-88
1.41333	-91
1.41700	-89
1.42067	-81
1.42433	-72
1.42800	-63
1.43167	-58
1.43533	-51
1.43900	-23
1.44267	88
1.44633	363
1.45000	1052
1.45367	2645
1.45733	5257
1.46100	8364
1.46467	11301
1.46833	13667
1.47200	15283
1.47567	16003
1.47933	15691
1.48300	14350
1.48667	12243
1.49033	9816
1.49400	7488
1.49767	5510
1.50133	3965
1.50500	2822
1.50867	2006
1.51233	1436
1.51600	1039
1.51967	764
1.52333	574
1.52700	444
1.53067	350
1.53433	286
1.53800	258
1.54167	303
1.54533	479
1.54900	804
1.55267	1223
1.55633	1640
1.56000	1987
1.56367	2232
1.56733	2353
1.57100	2324
1.57467	2129
1.57833	1798
1.58200	1408
1.58567	1036
1.58933	730
1.59300	500
1.59667	332
1.60033	211
1.60400	128
1.60767	74
1.61133	40
1.61500	17
1.61867	1
1.62233	-10
1.62600	-16
1.62967	-19
1.63333	-19
1.63700	-18
1.64067	-16
1.64433	-18
1.64800	-19
1.65167	-18
1.65533	-19
1.65900	-21
1.66267	-24
1.66633	-29
1.67000	-37
1.67367	-44
1.67733	-49
1.68100	-50
1.68467	-49
1.68833	-44
1.69200	-38
1.69567	-32
1.69933	-31
1.70300	-38
1.70667	-44
1.71033	-49
1.71400	-54
1.71767	-60
1.72133	-65
1.72500	-66
1.72867	-67
1.73233	-68
1.73600	-70
1.73967	-74
1.74333	-77
1.74700	-80
1.75067	-81
1.75433	-78
1.75800	-73
1.76167	-66
1.76533	-60
1.76900	-54
1.77267	-51
1.77633	-53
1.78000	-54
1.78367	-54
1.78733	-54
1.79100	-49
1.79467	-45
1.79833	-42
1.80200	-46
1.80567	-55
1.80933	-66
1.81300	-75
1.81667	-79
1.82033	-80
1.82400	-80
1.82767	-78
1.83133	-76
1.83500	-75
1.83867	-75
1.84233	-76
1.84600	-78
1.84967	-80
1.85333	-77
1.85700	-69
1.86067	-58
1.86433	-50
1.86800	-47
1.87167	-47
1.87533	-49
1.87900	-53
1.88267	-55
1.88633	-58
1.89000	-62
1.89367	-66
1.89733	-70
1.90100	-74
1.90467	-77
1.90833	-76
1.91200	-75
1.91567	-74
1.91933	-71
1.92300	-68
1.92667	-64
1.93033	-58
1.93400	-49
1.93767	-42
1.94133	-38
1.94500	-39
1.94867	-39
1.95233	-25
1.95600	87
1.95967	726
1.96333	3540
1.96700	12932
1.97067	37009
1.97433	85216
1.97800	161838
1.98167	260267
1.98533	365053
1.98900	458568
1.99267	526236
1.99633	558143
2.00000	550200
2.00367	505529
2.00733	434489
2.01100	351447
2.01467	269982
2.01833	199176
2.02200	142794
2.02567	100633
2.02933	70456
2.03300	49481
2.03667	35165
2.04033	25481
2.04400	18935
2.04767	14484
2.05133	11416
2.05500	9266
2.05867	7731
2.06233	6605
2.06600	5760
2.06967	5106
2.07333	4588
2.07700	4167
2.08067	3819
2.08433	3527
2.08800	3271
2.09167	3046
2.09533	2846
2.09900	2669
2.10267	2515
2.10633	2380
2.11000	2264
2.11367	2162
2.11733	2069
2.12100	1977
2.12467	1886
2.12833	1802
2.13200	1725
2.13567	1656
2.13933	1594
2.14300	1537
2.14667	1481
2.15033	1428
2.15400	1379
2.15767	1335
2.16133	1294
2.16500	1257
2.16867	1222
2.17233	1184
2.17600	1146
2.17967	1108
2.18333	1075
2.18700	1045
2.19067	1018
2.19433	995
2.19800	976
2.20167	955
2.20533	934
2.20900	910
2.21267	880
2.21633	854
2.22000	835
2.22367	821
2.22733	809
2.23100	797
2.23467	785
2.23833	772
2.24200	755
2.24567	735
2.24933	713
2.25300	695
2.25667	679
2.26033	669
2.26400	662
2.26767	658
2.27133	653
2.27500	646
2.27867	638
2.28233	629
2.28600	622
2.28967	610
2.29333	594
2.29700	578
2.30067	563
2.30433	550
2.30800	537
2.31167	526
2.31533	519
2.31900	521
2.32267	522
2.32633	520
2.33000	516
2.33367	512
2.33733	508
2.34100	503
2.34467	497
2.34833	487
2.35200	474
2.35567	464
2.35933	457
2.36300	455
2.36667	457
2.37033	462
2.37400	464
2.37767	462
2.38133	458
2.38500	452
2.38867	446
2.39233	438
2.39600	428
2.39967	420
2.40333	410
2.40700	399
2.41067	389
2.41433	385
2.41800	384
2.42167	383
2.42533	382
2.42900	384
2.43267	387
2.43633	389
2.44000	391
2.44367	386
2.44733	379
2.45100	372
2.45467	366
2.45833	365
2.46200	369
2.46567	371
2.46933	371
2.47300	369
2.47667	369
2.48033	369
2.48400	367
2.48767	363
2.49133	355
2.49500	348
2.49867	340
2.50233	334
2.50600	332
2.50967	334
2.51333	344
2.51700	356
2.52067	364
2.52433	371
2.52800	375
2.53167	376
2.53533	372
2.53900	364
2.54267	354
2.54633	345
2.55000	337
2.55367	333
2.55733	335
2.56100	340
2.56467	342
2.56833	339
2.57200	335
2.57567	333
2.57933	329
2.58300	325
2.58667	322
2.59033	320
2.59400	319
2.59767	321
2.60133	321
2.60500	320
2.60867	323
2.61233	331
2.61600	336
2.61967	334
2.62333	328
2.62700	323
2.63067	323
2.63433	329
2.63800	334
2.64167	334
2.64533	331
2.64900	328
2.65267	323
2.65633	316
2.66000	306
2.66367	297
2.66733	295
2.67100	294
2.67467	295
2.67833	299
2.68200	302
2.68567	304
2.68933	306
2.69300	312
2.69667	316
2.70033	318
2.70400	318
2.70767	313
2.71133	306
2.71500	302
2.71867	300
2.72233	300
2.72600	304
2.72967	309
2.73333	312
2.73700	316
2.74067	323
2.74433	328
2.74800	329
2.75167	328
2.75533	326
2.75900	323
2.76267	320
2.76633	317
2.77000	316
2.77367	320
2.77733	328
2.78100	333
2.78467	332
2.78833	326
2.79200	318
2.79567	314
2.79933	314
2.80300	310
2.80667	301
2.81033	294
2.81400	291
2.81767	290
2.82133	289
2.82500	291
2.82867	291
2.83233	287
2.83600	282
2.83967	281
2.84333	285
2.84700	292
2.85067	295
2.85433	296
2.85800	299
2.86167	304
2.86533	310
2.86900	317
2.87267	323
2.87633	330
2.88000	337
2.88367	341
2.88733	338
2.89100	333
2.89467	334
2.89833	339
2.90200	345
2.90567	348
2.90933	350
2.91300	352
2.91667	352
2.92033	348
2.92400	338
2.92767	327
2.93133	315
2.93500	304
2.93867	298
2.94233	298
2.94600	301
2.94967	305
2.95333	309
2.95700	314
2.96067	321
2.96433	325
2.96800	326
2.97167	324
2.97533	319
2.97900	316
2.98267	317
2.98633	324
2.99000	331
2.99367	338
2.99733	344
3.00100	347
3.00467	346
3.00833	344
3.01200	340
3.01567	337
3.01933	339
3.02300	341
3.02667	338
3.03033	335
3.03400	336
3.03767	340
3.04133	346
3.04500	349
3.04867	344
3.05233	336
3.05600	326
3.05967	319
3.06333	316
3.06700	316
3.07067	317
3.07433	321
3.07800	327
3.08167	334
3.08533	339
3.08900	339
3.09267	335
3.09633	330
3.10000	325
3.10367	325
3.10733	324
3.11100	319
3.11467	312
3.11833	309
3.12200	309
3.12567	311
3.12933	314
3.13300	320
3.13667	327
3.14033	333
3.14400	337
3.14767	337
3.15133	334
3.15500	326
3.15867	317
3.16233	308
3.16600	305
3.16967	306
3.17333	309
3.17700	315
3.18067	321
3.18433	324
3.18800	322
3.19167	320
3.19533	319
3.19900	321
3.20267	322
3.20633	322
3.21000	322
3.21367	324
3.21733	326
3.22100	326
3.22467	325
3.22833	319
3.23200	311
3.23567	307
3.23933	310
3.24300	315
3.24667	321
3.25033	324
3.25400	323
3.25767	322
3.26133	320
3.26500	318
3.26867	315
3.27233	313
3.27600	310
3.27967	304
3.28333	301
3.28700	305
3.29067	309
3.29433	308
3.29800	306
3.30167	302
3.30533	301
3.30900	305
3.31267	311
3.31633	316
3.32000	321
3.32367	326
3.32733	327
3.33100	323
3.33467	318
3.33833	314
3.34200	313
3.34567	314
3.34933	317
3.35300	319
3.35667	321
3.36033	325
3.36400	326
3.36767	325
3.37133	324
3.37500	323
3.37867	318
3.38233	311
3.38600	305
3.38967	301
3.39333	303
3.39700	308
3.40067	312
3.40433	312
3.40800	310
3.41167	305
3.41533	298
3.41900	294
3.42267	292
3.42633	292
3.43000	296
3.43367	299
3.43733	300
3.44100	298
3.44467	297
3.44833	294
3.45200	288
3.45567	282
3.45933	278
3.46300	279
3.46667	286
3.47033	294
3.47400	301
3.47767	303
3.48133	302
3.48500	297
3.48867	288
3.49233	279
3.49600	273
3.49967	270
3.50333	270
3.50700	271
3.51067	273
3.51433	272
3.51800	269
3.52167	267
3.52533	268
3.52900	272
3.53267	275
3.53633	273
3.54000	267
3.54367	259
3.54733	256
3.55100	258
3.55467	265
3.55833	271
3.56200	272
3.56567	268
3.56933	261
3.57300	257
3.57667	257
3.58033	259
3.58400	260
3.58767	261
3.59133	262
3.59500	267
3.59867	273
3.60233	277
3.60600	279
3.60967	277
3.61333	272
3.61700	270
3.62067	272
3.62433	275
3.62800	278
3.63167	280
3.63533	283
3.63900	285
3.64267	289
3.64633	288
3.65000	285
3.65367	284
3.65733	281
3.66100	275
3.66467	269
3.66833	264
3.67200	259
3.67567	258
3.67933	258
3.68300	258
3.68667	255
3.69033	251
3.69400	250
3.69767	251
3.70133	254
3.70500	256
3.70867	257
3.71233	260
3.71600	261
3.71967	258
3.72333	252
3.72700	248
3.73067	247
3.73433	248
3.73800	249
3.74167	251
3.74533	252
3.74900	254
3.75267	256
3.75633	258
3.76000	258
3.76367	254
3.76733	247
3.77100	241
3.77467	240
3.77833	238
3.78200	239
3.78567	243
3.78933	246
3.79300	245
3.79667	238
3.80033	233
3.80400	233
3.80767	238
3.81133	243
3.81500	245
3.81867	244
3.82233	242
3.82600	241
3.82967	241
3.83333	238
3.83700	237
3.84067	237
3.84433	236
3.84800	231
3.85167	227
3.85533	226
3.85900	226
3.86267	226
3.86633	225
3.87000	228
3.87367	234
3.87733	240
3.88100	244
3.88467	250
3.88833	255
3.89200	256
3.89567	251
3.89933	243
3.90300	232
3.90667	223
3.91033	213
3.91400	203
3.91767	197
3.92133	195
3.92500	194
3.92867	194
3.93233	197
3.93600	201
3.93967	206
3.94333	209
3.94700	211
3.95067	213
3.95433	215
3.95800	217
3.96167	223
3.96533	234
3.96900	241
3.97267	243
3.97633	240
3.98000	233
3.98367	224
3.98733	218
3.99100	216
3.99467	212
3.99833	209

[Chromatogram (Ch2)]
Interval(msec)	220
# of Points	1091
Start Time(min)	0.002
End Time(min)	3.998
R.Time (min)	Intensity
0.00167	-0
0.00533	-0
0.00900	-0
0.01267	-1
0.01633	-1
0.02000	-1
0.02367	-1
0.02733	-1
0.03100	-0
0.03467	-0
0.03833	0
0.04200	0
0.04567	0
0.04933	1
0.05300	1
0.05667	1
0.06033	2
0.06400	2
0.06767	3
0.07133	3
0.07500	3
0.07867	4
0.08233	4
0.08600	5
0.08967	5
0.09333	6
0.09700	6
0.10067	6
0.10433	6
0.10800	7
0.11167	7
0.11533	6
0.11900	6
0.12267	6
0.12633	6
0.13000	6
0.13367	5
0.13733	5
0.14100	4
0.14467	4
0.14833	3
0.15200	3
0.15567	2
0.15933	1
0.16300	1
0.16667	0
0.17033	-0
0.17400	-0
0.17767	-0
0.18133	-1
0.18500	-1
0.18867	-1
0.19233	-1
0.19600	-1
0.19967	-1
0.20333	-1
0.20700	-1
0.21067	-1
0.21433	-1
0.21800	-1
0.22167	-1
0.22533	-1
0.22900	-1
0.23267	-1
0.23633	-1
0.24000	-1
0.24367	-0
0.24733	0
0.25100	1
0.25467	1
0.25833	2
0.26200	2
0.26567	2
0.26933	2
0.27300	2
0.27667	2
0.28033	2
0.28400	2
0.28767	1
0.29133	1
0.29500	1
0.29867	0
0.30233	-0
0.30600	-1
0.30967	-1
0.31333	-2
0.31700	-2
0.32067	-3
0.32433	-3
0.32800	-3
0.33167	-4
0.33533	-4
0.33900	-4
0.34267	-4
0.34633	-3
0.35000	-3
0.35367	-2
0.35733	-2
0.36100	-1
0.36467	-0
0.36833	1
0.37200	1
0.37567	2
0.37933	3
0.38300	3
0.38667	4
0.39033	4
0.39400	4
0.39767	5
0.40133	5
0.40500	5
0.40867	5
0.41233	6
0.41600	6
0.41967	6
0.42333	6
0.42700	5
0.43067	5
0.43433	5
0.43800	4
0.44167	4
0.44533	3
0.44900	3
0.45267	2
0.45633	2
0.46000	1
0.46367	1
0.46733	0
0.47100	0
0.47467	-0
0.47833	-1
0.48200	-1
0.48567	-1
0.48933	-1
0.49300	-1
0.49667	-1
0.50033	-1
0.50400	-1
0.50767	-2
0.51133	-1
0.51500	-1
0.51867	-1
0.52233	-1
0.52600	-1
0.52967	-1
0.53333	-1
0.53700	-2
0.54067	-2
0.54433	-1
0.54800	-1
0.55167	-1
0.55533	-1
0.55900	-1
0.56267	-1
0.56633	-1
0.57000	-1
0.57367	-1
0.57733	-1
0.58100	-1
0.58467	-1
0.58833	-1
0.59200	-0
0.59567	-0
0.59933	0
0.60300	1
0.60667	1
0.61033	1
0.61400	1
0.61767	2
0.62133	2
0.62500	3
0.62867	3
0.63233	3
0.63600	3
0.63967	3
0.64333	3
0.64700	2
0.65067	2
0.65433	1
0.65800	1
0.66167	0
0.66533	0
0.66900	-0
0.67267	-0
0.67633	-0
0.68000	-0
0.68367	-0
0.68733	-0
0.69100	0
0.69467	0
0.69833	1
0.70200	1
0.70567	1
0.70933	1
0.71300	1
0.71667	2
0.72033	2
0.72400	2
0.72767	2
0.73133	2
0.73500	2
0.73867	2
0.74233	2
0.74600	1
0.74967	1
0.75333	1
0.75700	1
0.76067	0
0.76433	0
0.76800	0
0.77167	0
0.77533	1
0.77900	1
0.78267	1
0.78633	1
0.79000	1
0.79367	1
0.79733	1
0.80100	1
0.80467	1
0.80833	1
0.81200	1
0.81567	1
0.81933	1
0.82300	1
0.82667	1
0.83033	1
0.83400	0
0.83767	0
0.84133	-0
0.84500	-0
0.84867	-0
0.85233	-1
0.85600	-1
0.85967	-1
0.86333	-1
0.86700	-1
0.87067	-2
0.87433	-2
0.87800	-2
0.88167	-2
0.88533	-2
0.88900	-1
0.89267	-1
0.89633	-1
0.90000	-0
0.90367	-0
0.90733	0
0.91100	0
0.91467	0
0.91833	1
0.92200	1
0.92567	1
0.92933	1
0.93300	0
0.93667	-0
0.94033	-0
0.94400	-0
0.94767	-0
0.95133	-1
0.95500	-0
0.95867	-0
0.96233	-0
0.96600	-0
0.96967	-0
0.97333	-0
0.97700	-0
0.98067	-0
0.98433	-0
0.98800	-0
0.99167	-0
0.99533	0
0.99900	0
1.00267	1
1.00633	1
1.01000	1
1.01367	1
1.01733	2
1.02100	2
1.02467	2
1.02833	2
1.03200	1
1.03567	1
1.03933	1
1.04300	0
1.04667	0
1.05033	-0
1.05400	-0
1.05767	-1
1.06133	-1
1.06500	-1
1.06867	-2
1.07233	-2
1.07600	-2
1.07967	-2
1.08333	-2
1.08700	-2
1.09067	-2
1.09433	-2
1.09800	-2
1.10167	-1
1.10533	-1
1.10900	-0
1.11267	0
1.11633	1
1.12000	1
1.12367	2
1.12733	2
1.13100	2
1.13467	2
1.13833	3
1.14200	3
1.14567	3
1.14933	3
1.15300	3
1.15667	3
1.16033	3
1.16400	3
1.16767	2
1.17133	2
1.17500	2
1.17867	2
1.18233	2
1.18600	2
1.18967	2
1.19333	2
1.19700	2
1.20067	2
1.20433	1
1.20800	0
1.21167	-0
1.21533	-1
1.21900	-2
1.22267	-3
1.22633	-3
1.23000	-3
1.23367	-4
1.23733	-4
1.24100	-4
1.24467	-4
1.24833	-4
1.25200	-3
1.25567	-3
1.25933	-3
1.26300	-2
1.26667	-2
1.27033	-2
1.27400	-2
1.27767	-2
1.28133	-1
1.28500	-1
1.28867	-0
1.29233	-0
1.29600	-0
1.29967	0
1.30333	0
1.30700	1
1.31067	1
1.31433	1
1.31800	1
1.32167	1
1.32533	1
1.32900	1
1.33267	1
1.33633	2
1.34000	2
1.34367	2
1.34733	2
1.35100	2
1.35467	2
1.35833	2
1.36200	2
1.36567	2
1.36933	2
1.37300	2
1.37667	2
1.38033	1
1.38400	1
1.38767	0
1.39133	0
1.39500	-1
1.39867	-1
1.40233	-2
1.40600	-2
1.40967	-3
1.41333	-3
1.41700	-4
1.42067	-5
1.42433	-5
1.42800	-6
1.43167	-6
1.43533	-6
1.43900	-6
1.44267	-6
1.44633	-6
1.45000	-6
1.45367	-6
1.45733	-6
1.46100	-6
1.46467	-6
1.46833	-6
1.47200	-6
1.47567	-6
1.47933	-5
1.48300	-5
1.48667	-5
1.49033	-4
1.49400	-3
1.49767	-3
1.50133	-3
1.50500	-2
1.50867	-2
1.51233	-2
1.51600	-2
1.51967	-1
1.52333	-1
1.52700	-1
1.53067	-0
1.53433	-0
1.53800	0
1.54167	0
1.54533	1
1.54900	1
1.55267	1
1.55633	2
1.56000	2
1.56367	2
1.56733	2
1.57100	2
1.57467	2
1.57833	2
1.58200	1
1.58567	1
1.58933	1
1.59300	1
1.59667	0
1.60033	-1
1.60400	-2
1.60767	-4
1.61133	-6
1.61500	-9
1.61867	-12
1.62233	-15
1.62600	-18
1.62967	-21
1.63333	-24
1.63700	-27
1.64067	-31
1.64433	-34
1.64800	-37
1.65167	-41
1.65533	-45
1.65900	-49
1.66267	-53
1.66633	-58
1.67000	-63
1.67367	-68
1.67733	-74
1.68100	-79
1.68467	-84
1.68833	-88
1.69200	-92
1.69567	-95
1.69933	-98
1.70300	-100
1.70667	-102
1.71033	-104
1.71400	-106
1.71767	-107
1.72133	-108
1.72500	-108
1.72867	-109
1.73233	-110
1.73600	-111
1.73967	-112
1.74333	-112
1.74700	-112
1.75067	-113
1.75433	-113
1.75800	-113
1.76167	-114
1.76533	-114
1.76900	-115
1.77267	-115
1.77633	-116
1.78000	-116
1.78367	-116
1.78733	-116
1.79100	-116
1.79467	-116
1.79833	-116
1.80200	-116
1.80567	-116
1.80933	-116
1.81300	-116
1.81667	-117
1.82033	-117
1.82400	-117
1.82767	-117
1.83133	-117
1.83500	-118
1.83867	-118
1.84233	-118
1.84600	-118
1.84967	-118
1.85333	-118
1.85700	-117
1.86067	-116
1.86433	-115
1.86800	-114
1.87167	-114
1.87533	-114
1.87900	-113
1.88267	-113
1.88633	-113
1.89000	-113
1.89367	-114
1.89733	-114
1.90100	-114
1.90467	-114
1.90833	-113
1.91200	-113
1.91567	-113
1.91933	-113
1.92300	-113
1.92667	-113
1.93033	-114
1.93400	-115
1.93767	-115
1.94133	-115
1.94500	-114
1.94867	-114
1.95233	-113
1.95600	-112
1.95967	-112
1.96333	-111
1.96700	-111
1.97067	-111
1.97433	-111
1.97800	-111
1.98167	-111
1.98533	-111
1.98900	-110
1.99267	-110
1.99633	-110
2.00000	-110
2.00367	-110
2.00733	-110
2.01100	-110
2.01467	-110
2.01833	-110
2.02200	-110
2.02567	-110
2.02933	-109
2.03300	-109
2.03667	-108
2.04033	-107
2.04400	-107
2.04767	-107
2.05133	-106
2.05500	-106
2.05867	-105
2.06233	-104
2.06600	-103
2.06967	-103
2.07333	-102
2.07700	-103
2.08067	-103
2.08433	-103
2.08800	-103
2.09167	-103
2.09533	-103
2.09900	-103
2.10267	-103
2.10633	-102
2.11000	-101
2.11367	-100
2.11733	-100
2.12100	-99
2.12467	-99
2.12833	-98
2.13200	-98
2.13567	-97
2.13933	-97
2.14300	-96
2.14667	-96
2.15033	-95
2.15400	-94
2.15767	-94
2.16133	-94
2.16500	-93
2.16867	-93
2.17233	-93
2.17600	-93
2.17967	-93
2.18333	-93
2.18700	-93
2.19067	-93
2.19433	-93
2.19800	-93
2.20167	-93
2.20533	-92
2.20900	-91
2.21267	-91
2.21633	-90
2.22000	-89
2.22367	-89
2.22733	-89
2.23100	-89
2.23467	-89
2.23833	-89
2.24200	-88
2.24567	-88
2.24933	-87
2.25300	-86
2.25667	-86
2.26033	-86
2.26400	-86
2.26767	-86
2.27133	-85
2.27500	-85
2.27867	-85
2.28233	-85
2.28600	-85
2.28967	-85
2.29333	-84
2.29700	-84
2.30067	-84
2.30433	-84
2.30800	-84
2.31167	-84
2.31533	-85
2.31900	-85
2.32267	-85
2.32633	-84
2.33000	-84
2.33367	-83
2.33733	-82
2.34100	-80
2.34467	-79
2.34833	-77
2.35200	-76
2.35567	-76
2.35933	-75
2.36300	-75
2.36667	-74
2.37033	-72
2.37400	-70
2.37767	-67
2.38133	-64
2.38500	-60
2.38867	-56
2.39233	-52
2.39600	-48
2.39967	-44
2.40333	-40
2.40700	-36
2.41067	-32
2.41433	-28
2.41800	-25
2.42167	-22
2.42533	-20
2.42900	-19
2.43267	-17
2.43633	-15
2.44000	-13
2.44367	-11
2.44733	-8
2.45100	-6
2.45467	-5
2.45833	-3
2.46200	-2
2.46567	-1
2.46933	0
2.47300	1
2.47667	3
2.48033	4
2.48400	5
2.48767	6
2.49133	6
2.49500	7
2.49867	8
2.50233	8
2.50600	9
2.50967	10
2.51333	11
2.51700	11
2.52067	12
2.52433	12
2.52800	12
2.53167	13
2.53533	13
2.53900	14
2.54267	15
2.54633	15
2.55000	15
2.55367	15
2.55733	15
2.56100	15
2.56467	16
2.56833	16
2.57200	16
2.57567	16
2.57933	16
2.58300	16
2.58667	16
2.59033	16
2.59400	16
2.59767	16
2.60133	16
2.60500	16
2.60867	16
2.61233	17
2.61600	17
2.61967	17
2.62333	18
2.62700	18
2.63067	19
2.63433	19
2.63800	19
2.64167	20
2.64533	20
2.64900	20
2.65267	21
2.65633	21
2.66000	22
2.66367	22
2.66733	23
2.67100	23
2.67467	23
2.67833	23
2.68200	22
2.68567	22
2.68933	22
2.69300	22
2.69667	23
2.70033	23
2.70400	24
2.70767	24
2.71133	25
2.71500	25
2.71867	26
2.72233	26
2.72600	26
2.72967	26
2.73333	26
2.73700	25
2.74067	25
2.74433	25
2.74800	25
2.75167	25
2.75533	26
2.75900	26
2.76267	26
2.76633	27
2.77000	28
2.77367	28
2.77733	29
2.78100	29
2.78467	30
2.78833	30
2.79200	29
2.79567	29
2.79933	28
2.80300	27
2.80667	27
2.81033	26
2.81400	26
2.81767	26
2.82133	26
2.82500	26
2.82867	25
2.83233	25
2.83600	24
2.83967	22
2.84333	20
2.84700	15
2.85067	8
2.85433	-3
2.85800	-17
2.86167	-35
2.86533	-57
2.86900	-84
2.87267	-115
2.87633	-149
2.88000	-187
2.88367	-229
2.88733	-273
2.89100	-320
2.89467	-370
2.89833	-421
2.90200	-473
2.90567	-526
2.90933	-580
2.91300	-634
2.91667	-687
2.92033	-740
2.92400	-792
2.92767	-844
2.93133	-897
2.93500	-955
2.93867	-1016
2.94233	-1070
2.94600	-1105
2.94967	-1116
2.95333	-1100
2.95700	-1061
2.96067	-1002
2.96433	-931
2.96800	-853
2.97167	-771
2.97533	-690
2.97900	-612
2.98267	-538
2.98633	-470
2.99000	-408
2.99367	-353
2.99733	-303
3.00100	-260
3.00467	-222
3.00833	-188
3.01200	-160
3.01567	-135
3.01933	-113
3.02300	-95
3.02667	-79
3.03033	-65
3.03400	-53
3.03767	-43
3.04133	-35
3.04500	-27
3.04867	-21
3.05233	-16
3.05600	-12
3.05967	-8
3.06333	-4
3.06700	-2
3.07067	1
3.07433	3
3.07800	5
3.08167	7
3.08533	8
3.08900	10
3.09267	11
3.09633	12
3.10000	13
3.10367	13
3.10733	14
3.11100	14
3.11467	15
3.11833	15
3.12200	16
3.12567	17
3.12933	17
3.13300	18
3.13667	18
3.14033	19
3.14400	19
3.14767	20
3.15133	20
3.15500	20
3.15867	20
3.16233	20
3.16600	20
3.16967	20
3.17333	20
3.17700	20
3.18067	20
3.18433	20
3.18800	20
3.19167	20
3.19533	20
3.19900	20
3.20267	20
3.20633	20
3.21000	20
3.21367	20
3.21733	21
3.22100	21
3.22467	21
3.22833	22
3.23200	22
3.23567	22
3.23933	22
3.24300	23
3.24667	23
3.25033	24
3.25400	24
3.25767	25
3.26133	25
3.26500	26
3.26867	26
3.27233	27
3.27600	27
3.27967	28
3.28333	28
3.28700	28
3.29067	28
3.29433	29
3.29800	29
3.30167	29
3.30533	29
3.30900	29
3.31267	29
3.31633	29
3.32000	29
3.32367	29
3.32733	29
3.33100	29
3.33467	29
3.33833	29
3.34200	29
3.34567	29
3.34933	29
3.35300	28
3.35667	28
3.36033	28
3.36400	28
3.36767	28
3.37133	28
3.37500	28
3.37867	28
3.38233	28
3.38600	27
3.38967	27
3.39333	28
3.39700	28
3.40067	28
3.40433	27
3.40800	27
3.41167	27
3.41533	27
3.41900	27
3.42267	26
3.42633	26
3.43000	26
3.43367	26
3.43733	26
3.44100	26
3.44467	26
3.44833	26
3.45200	26
3.45567	26
3.45933	26
3.46300	26
3.46667	27
3.47033	27
3.47400	27
3.47767	27
3.48133	27
3.48500	28
3.48867	28
3.49233	28
3.49600	28
3.49967	29
3.50333	29
3.50700	29
3.51067	29
3.51433	29
3.51800	29
3.52167	29
3.52533	28
3.52900	28
3.53267	28
3.53633	28
3.54000	28
3.54367	28
3.54733	28
3.55100	28
3.55467	28
3.55833	28
3.56200	28
3.56567	29
3.56933	29
3.57300	29
3.57667	29
3.58033	29
3.58400	29
3.58767	29
3.59133	29
3.59500	28
3.59867	28
3.60233	28
3.60600	28
3.60967	27
3.61333	27
3.61700	27
3.62067	27
3.62433	27
3.62800	27
3.63167	27
3.63533	27
3.63900	27
3.64267	27
3.64633	27
3.65000	27
3.65367	27
3.65733	27
3.66100	28
3.66467	28
3.66833	28
3.67200	28
3.67567	28
3.67933	28
3.68300	28
3.68667	28
3.69033	28
3.69400	29
3.69767	29
3.70133	29
3.70500	29
3.70867	29
3.71233	30
3.71600	30
3.71967	30
3.72333	30
3.72700	30
3.73067	30
3.73433	30
3.73800	30
3.74167	30
3.74533	30
3.74900	30
3.75267	30
3.75633	30
3.76000	30
3.76367	30
3.76733	30
3.77100	30
3.77467	30
3.77833	30
3.78200	30
3.78567	30
3.78933	30
3.79300	29
3.79667	29
3.80033	29
3.80400	29
3.80767	28
3.81133	28
3.81500	28
3.81867	28
3.82233	28
3.82600	29
3.82967	29
3.83333	29
3.83700	29
3.84067	30
3.84433	30
3.84800	30
3.85167	30
3.85533	30
3.85900	30
3.86267	30
3.86633	30
3.87000	30
3.87367	30
3.87733	30
3.88100	30
3.88467	30
3.88833	30
3.89200	30
3.89567	30
3.89933	29
3.90300	29
3.90667	30
3.91033	30
3.91400	30
3.91767	30
3.92133	30
3.92500	30
3.92867	30
3.93233	30
3.93600	30
3.93967	30
3.94333	29
3.94700	29
3.95067	29
3.95433	29
3.95800	28
3.96167	28
3.96533	28
3.96900	28
3.97267	28
3.97633	28
3.98000	28
3.98367	28
3.98733	28
3.99100	28
3.99467	28
3.99833	27

[Chromatogram (Ch3)]
Interval(msec)	220
# of Points	1091
Start Time(min)	0.002
End Time(min)	3.998
R.Time (min)	Intensity
0.00167	-1
0.00533	-2
0.00900	-2
0.01267	-2
0.01633	-1
0.02000	-2
0.02367	-2
0.02733	-2
0.03100	-3
0.03467	-3
0.03833	-4
0.04200	-5
0.04567	-7
0.04933	-9
0.05300	-8
0.05667	-5
0.06033	-1
0.06400	0
0.06767	1
0.07133	1
0.07500	0
0.07867	-3
0.08233	-4
0.08600	-5
0.08967	-6
0.09333	-5
0.09700	-5
0.10067	-5
0.10433	-6
0.10800	-6
0.11167	-6
0.11533	-3
0.11900	-1
0.12267	0
0.12633	0
0.13000	1
0.13367	3
0.13733	4
0.14100	4
0.14467	3
0.14833	2
0.15200	1
0.15567	1
0.15933	2
0.16300	3
0.16667	5
0.17033	4
0.17400	1
0.17767	-2
0.18133	-2
0.18500	-3
0.18867	-3
0.19233	-3
0.19600	-3
0.19967	-3
0.20333	-2
0.20700	0
0.21067	2
0.21433	4
0.21800	5
0.22167	4
0.22533	3
0.22900	4
0.23267	3
0.23633	3
0.24000	2
0.24367	1
0.24733	0
0.25100	1
0.25467	1
0.25833	2
0.26200	5
0.26567	6
0.26933	4
0.27300	3
0.27667	2
0.28033	3
0.28400	1
0.28767	2
0.29133	5
0.29500	6
0.29867	4
0.30233	4
0.30600	3
0.30967	2
0.31333	0
0.31700	1
0.32067	3
0.32433	5
0.32800	6
0.33167	4
0.33533	3
0.33900	3
0.34267	4
0.34633	5
0.35000	6
0.35367	5
0.35733	3
0.36100	2
0.36467	3
0.36833	5
0.37200	6
0.37567	7
0.37933	7
0.38300	6
0.38667	3
0.39033	3
0.39400	4
0.39767	5
0.40133	6
0.40500	6
0.40867	4
0.41233	3
0.41600	3
0.41967	3
0.42333	1
0.42700	0
0.43067	1
0.43433	3
0.43800	6
0.44167	8
0.44533	7
0.44900	7
0.45267	9
0.45633	9
0.46000	9
0.46367	9
0.46733	9
0.47100	10
0.47467	12
0.47833	10
0.48200	9
0.48567	9
0.48933	9
0.49300	10
0.49667	12
0.50033	13
0.50400	13
0.50767	12
0.51133	13
0.51500	13
0.51867	14
0.52233	13
0.52600	10
0.52967	8
0.53333	9
0.53700	10
0.54067	10
0.54433	9
0.54800	11
0.55167	12
0.55533	14
0.55900	14
0.56267	16
0.56633	18
0.57000	19
0.57367	20
0.57733	19
0.58100	15
0.58467	13
0.58833	10
0.59200	10
0.59567	9
0.59933	8
0.60300	8
0.60667	9
0.61033	13
0.61400	17
0.61767	18
0.62133	17
0.62500	18
0.62867	17
0.63233	18
0.63600	18
0.63967	17
0.64333	16
0.64700	14
0.65067	12
0.65433	14
0.65800	15
0.66167	17
0.66533	17
0.66900	17
0.67267	18
0.67633	19
0.68000	19
0.68367	19
0.68733	20
0.69100	20
0.69467	19
0.69833	17
0.70200	17
0.70567	19
0.70933	19
0.71300	18
0.71667	18
0.72033	17
0.72400	16
0.72767	17
0.73133	17
0.73500	18
0.73867	20
0.74233	21
0.74600	21
0.74967	21
0.75333	21
0.75700	22
0.76067	23
0.76433	22
0.76800	22
0.77167	23
0.77533	23
0.77900	24
0.78267	24
0.78633	23
0.79000	22
0.79367	21
0.79733	22
0.80100	21
0.80467	22
0.80833	21
0.81200	21
0.81567	21
0.81933	21
0.82300	22
0.82667	23
0.83033	23
0.83400	25
0.83767	26
0.84133	26
0.84500	24
0.84867	22
0.85233	22
0.85600	22
0.85967	23
0.86333	26
0.86700	29
0.87067	30
0.87433	28
0.87800	26
0.88167	26
0.88533	26
0.88900	26
0.89267	26
0.89633	23
0.90000	21
0.90367	21
0.90733	22
0.91100	25
0.91467	26
0.91833	28
0.92200	30
0.92567	29
0.92933	29
0.93300	29
0.93667	31
0.94033	32
0.94400	33
0.94767	31
0.95133	29
0.95500	29
0.95867	29
0.96233	28
0.96600	28
0.96967	27
0.97333	25
0.97700	25
0.98067	25
0.98433	26
0.98800	27
0.99167	29
0.99533	29
0.99900	28
1.00267	29
1.00633	31
1.01000	31
1.01367	29
1.01733	29
1.02100	28
1.02467	28
1.02833	30
1.03200	30
1.03567	29
1.03933	28
1.04300	26
1.04667	27
1.05033	27
1.05400	27
1.05767	29
1.06133	30
1.06500	30
1.06867	30
1.07233	31
1.07600	30
1.07967	29
1.08333	27
1.08700	27
1.09067	27
1.09433	27
1.09800	29
1.10167	29
1.10533	29
1.10900	28
1.11267	29
1.11633	29
1.12000	28
1.12367	26
1.12733	25
1.13100	24
1.13467	24
1.13833	24
1.14200	27
1.14567	29
1.14933	31
1.15300	31
1.15667	30
1.16033	28
1.16400	27
1.16767	27
1.17133	28
1.17500	27
1.17867	26
1.18233	27
1.18600	27
1.18967	29
1.19333	30
1.19700	30
1.20067	30
1.20433	31
1.20800	31
1.21167	31
1.21533	30
1.21900	28
1.22267	27
1.22633	27
1.23000	28
1.23367	29
1.23733	28
1.24100	27
1.24467	28
1.24833	31
1.25200	33
1.25567	32
1.25933	31
1.26300	31
1.26667	30
1.27033	29
1.27400	30
1.27767	32
1.28133	32
1.28500	34
1.28867	36
1.29233	36
1.29600	34
1.29967	35
1.30333	35
1.30700	34
1.31067	31
1.31433	30
1.31800	30
1.32167	30
1.32533	34
1.32900	36
1.33267	35
1.33633	35
1.34000	34
1.34367	34
1.34733	33
1.35100	32
1.35467	32
1.35833	32
1.36200	32
1.36567	31
1.36933	31
1.37300	28
1.37667	28
1.38033	29
1.38400	29
1.38767	31
1.39133	33
1.39500	34
1.39867	34
1.40233	34
1.40600	34
1.40967	33
1.41333	31
1.41700	32
1.42067	33
1.42433	33
1.42800	33
1.43167	33
1.43533	34
1.43900	33
1.44267	31
1.44633	31
1.45000	34
1.45367	34
1.45733	34
1.46100	35
1.46467	34
1.46833	34
1.47200	35
1.47567	37
1.47933	37
1.48300	35
1.48667	32
1.49033	30
1.49400	32
1.49767	33
1.50133	32
1.50500	33
1.50867	34
1.51233	35
1.51600	35
1.51967	36
1.52333	37
1.52700	38
1.53067	38
1.53433	38
1.53800	40
1.54167	40
1.54533	40
1.54900	38
1.55267	38
1.55633	37
1.56000	36
1.56367	36
1.56733	36
1.57100	35
1.57467	34
1.57833	35
1.58200	35
1.58567	34
1.58933	36
1.59300	39
1.59667	40
1.60033	42
1.60400	44
1.60767	43
1.61133	44
1.61500	46
1.61867	46
1.62233	44
1.62600	41
1.62967	40
1.63333	40
1.63700	40
1.64067	39
1.64433	37
1.64800	38
1.65167	38
1.65533	39
1.65900	42
1.66267	44
1.66633	44
1.67000	44
1.67367	44
1.67733	42
1.68100	40
1.68467	41
1.68833	45
1.69200	47
1.69567	49
1.69933	49
1.70300	47
1.70667	44
1.71033	42
1.71400	44
1.71767	45
1.72133	45
1.72500	45
1.72867	47
1.73233	50
1.73600	52
1.73967	53
1.74333	51
1.74700	50
1.75067	51
1.75433	52
1.75800	54
1.76167	54
1.76533	53
1.76900	53
1.77267	52
1.77633	51
1.78000	50
1.78367	51
1.78733	53
1.79100	55
1.79467	58
1.79833	60
1.80200	61
1.80567	62
1.80933	61
1.81300	59
1.81667	56
1.82033	56
1.82400	58
1.82767	61
1.83133	64
1.83500	63
1.83867	61
1.84233	60
1.84600	60
1.84967	60
1.85333	62
1.85700	65
1.86067	68
1.86433	69
1.86800	69
1.87167	68
1.87533	64
1.87900	61
1.88267	60
1.88633	61
1.89000	64
1.89367	66
1.89733	64
1.90100	62
1.90467	64
1.90833	67
1.91200	68
1.91567	68
1.91933	71
1.92300	71
1.92667	70
1.93033	71
1.93400	73
1.93767	76
1.94133	77
1.94500	77
1.94867	80
1.95233	83
1.95600	82
1.95967	82
1.96333	82
1.96700	79
1.97067	78
1.97433	80
1.97800	80
1.98167	82
1.98533	83
1.98900	81
1.99267	81
1.99633	81
2.00000	82
2.00367	82
2.00733	83
2.01100	85
2.01467	86
2.01833	87
2.02200	89
2.02567	89
2.02933	88
2.03300	88
2.03667	89
2.04033	91
2.04400	93
2.04767	96
2.05133	98
2.05500	100
2.05867	101
2.06233	102
2.06600	102
2.06967	103
2.07333	102
2.07700	101
2.08067	101
2.08433	104
2.08800	107
2.09167	107
2.09533	105
2.09900	104
2.10267	104
2.10633	107
2.11000	109
2.11367	112
2.11733	115
2.12100	116
2.12467	118
2.12833	121
2.13200	122
2.13567	123
2.13933	123
2.14300	123
2.14667	123
2.15033	124
2.15400	124
2.15767	124
2.16133	124
2.16500	123
2.16867	123
2.17233	125
2.17600	126
2.17967	128
2.18333	128
2.18700	129
2.19067	132
2.19433	135
2.19800	137
2.20167	137
2.20533	138
2.20900	138
2.21267	138
2.21633	140
2.22000	142
2.22367	145
2.22733	148
2.23100	150
2.23467	153
2.23833	154
2.24200	153
2.24567	153
2.24933	154
2.25300	155
2.25667	156
2.26033	155
2.26400	155
2.26767	157
2.27133	160
2.27500	162
2.27867	164
2.28233	166
2.28600	168
2.28967	169
2.29333	171
2.29700	173
2.30067	175
2.30433	177
2.30800	179
2.31167	179
2.31533	180
2.31900	181
2.32267	181
2.32633	182
2.33000	185
2.33367	187
2.33733	189
2.34100	190
2.34467	191
2.34833	192
2.35200	195
2.35567	196
2.35933	198
2.36300	200
2.36667	201
2.37033	203
2.37400	204
2.37767	206
2.38133	206
2.38500	206
2.38867	206
2.39233	210
2.39600	214
2.39967	218
2.40333	221
2.40700	223
2.41067	225
2.41433	230
2.41800	234
2.42167	239
2.42533	241
2.42900	243
2.43267	242
2.43633	238
2.44000	236
2.44367	267
2.44733	350
2.45100	441
2.45467	510
2.45833	542
2.46200	528
2.46567	486
2.46933	443
2.47300	410
2.47667	385
2.48033	368
2.48400	353
2.48767	332
2.49133	303
2.49500	274
2.49867	249
2.50233	224
2.50600	205
2.50967	193
2.51333	185
2.51700	180
2.52067	176
2.52433	176
2.52800	181
2.53167	186
2.53533	192
2.53900	202
2.54267	208
2.54633	209
2.55000	204
2.55367	195
2.55733	181
2.56100	167
2.56467	155
2.56833	140
2.57200	128
2.57567	120
2.57933	115
2.58300	111
2.58667	109
2.59033	105
2.59400	103
2.59767	95
2.60133	86
2.60500	72
2.60867	56
2.61233	38
2.61600	19
2.61967	1
2.62333	-14
2.62700	-26
2.63067	-36
2.63433	-43
2.63800	-45
2.64167	-44
2.64533	-39
2.64900	-33
2.65267	-25
2.65633	-13
2.66000	-1
2.66367	10
2.66733	19
2.67100	30
2.67467	38
2.67833	46
2.68200	51
2.68567	54
2.68933	54
2.69300	55
2.69667	58
2.70033	59
2.70400	61
2.70767	62
2.71133	59
2.71500	55
2.71867	51
2.72233	48
2.72600	48
2.72967	47
2.73333	46
2.73700	45
2.74067	44
2.74433	44
2.74800	44
2.75167	44
2.75533	44
2.75900	43
2.76267	43
2.76633	43
2.77000	44
2.77367	43
2.77733	42
2.78100	43
2.78467	45
2.78833	44
2.79200	44
2.79567	46
2.79933	50
2.80300	50
2.80667	49
2.81033	52
2.81400	55
2.81767	61
2.82133	81
2.82500	129
2.82867	221
2.83233	378
2.83600	625
2.83967	977
2.84333	1430
2.84700	1970
2.85067	2565
2.85433	3172
2.85800	3740
2.86167	4227
2.86533	4592
2.86900	4814
2.87267	4887
2.87633	4826
2.88000	4654
2.88367	4395
2.88733	4079
2.89100	3733
2.89467	3378
2.89833	3028
2.90200	2696
2.90567	2388
2.90933	2102
2.91300	1845
2.91667	1614
2.92033	1410
2.92400	1230
2.92767	1070
2.93133	932
2.93500	814
2.93867	711
2.94233	622
2.94600	545
2.94967	478
2.95333	420
2.95700	370
2.96067	328
2.96433	293
2.96800	263
2.97167	235
2.97533	212
2.97900	193
2.98267	174
2.98633	158
2.99000	144
2.99367	134
2.99733	124
3.00100	118
3.00467	110
3.00833	102
3.01200	93
3.01567	86
3.01933	75
3.02300	32
3.02667	-33
3.03033	-81
3.03400	-92
3.03767	-65
3.04133	-18
3.04500	38
3.04867	97
3.05233	154
3.05600	209
3.05967	262
3.06333	311
3.06700	354
3.07067	393
3.07433	428
3.07800	458
3.08167	484
3.08533	506
3.08900	525
3.09267	540
3.09633	553
3.10000	562
3.10367	568
3.10733	573
3.11100	577
3.11467	579
3.11833	578
3.12200	577
3.12567	577
3.12933	578
3.13300	575
3.13667	573
3.14033	570
3.14400	568
3.14767	566
3.15133	565
3.15500	567
3.15867	566
3.16233	564
3.16600	562
3.16967	559
3.17333	558
3.17700	556
3.18067	556
3.18433	557
3.18800	556
3.19167	555
3.19533	553
3.19900	551
3.20267	548
3.20633	547
3.21000	547
3.21367	549
3.21733	551
3.22100	552
3.22467	558
3.22833	561
3.23200	562
3.23567	562
3.23933	564
3.24300	565
3.24667	565
3.25033	566
3.25400	568
3.25767	570
3.26133	573
3.26500	576
3.26867	578
3.27233	580
3.27600	582
3.27967	584
3.28333	582
3.28700	582
3.29067	583
3.29433	585
3.29800	585
3.30167	583
3.30533	581
3.30900	581
3.31267	580
3.31633	575
3.32000	570
3.32367	566
3.32733	561
3.33100	559
3.33467	556
3.33833	552
3.34200	550
3.34567	549
3.34933	548
3.35300	544
3.35667	538
3.36033	532
3.36400	526
3.36767	522
3.37133	517
3.37500	512
3.37867	506
3.38233	503
3.38600	497
3.38967	491
3.39333	486
3.39700	484
3.40067	482
3.40433	477
3.40800	476
3.41167	476
3.41533	476
3.41900	476
3.42267	473
3.42633	472
3.43000	468
3.43367	464
3.43733	462
3.44100	460
3.44467	457
3.44833	457
3.45200	457
3.45567	452
3.45933	445
3.46300	439
3.46667	433
3.47033	429
3.47400	428
3.47767	428
3.48133	429
3.48500	428
3.48867	426
3.49233	423
3.49600	419
3.49967	415
3.50333	413
3.50700	409
3.51067	403
3.51433	400
3.51800	399
3.52167	397
3.52533	395
3.52900	392
3.53267	389
3.53633	388
3.54000	385
3.54367	384
3.54733	384
3.55100	383
3.55467	383
3.55833	381
3.56200	380
3.56567	377
3.56933	374
3.57300	372
3.57667	371
3.58033	370
3.58400	371
3.58767	369
3.59133	365
3.59500	364
3.59867	363
3.60233	362
3.60600	360
3.60967	361
3.61333	362
3.61700	361
3.62067	360
3.62433	358
3.62800	355
3.63167	355
3.63533	356
3.63900	355
3.64267	352
3.64633	349
3.65000	348
3.65367	346
3.65733	344
3.66100	344
3.66467	343
3.66833	344
3.67200	347
3.67567	349
3.67933	349
3.68300	348
3.68667	347
3.69033	344
3.69400	342
3.69767	342
3.70133	341
3.70500	338
3.70867	338
3.71233	339
3.71600	339
3.71967	339
3.72333	339
3.72700	337
3.73067	337
3.73433	339
3.73800	341
3.74167	345
3.74533	346
3.74900	345
3.75267	347
3.75633	347
3.76000	346
3.76367	344
3.76733	342
3.77100	343
3.77467	343
3.77833	342
3.78200	342
3.78567	341
3.78933	341
3.79300	340
3.79667	341
3.80033	337
3.80400	335
3.80767	335
3.81133	334
3.81500	333
3.81867	332
3.82233	334
3.82600	334
3.82967	331
3.83333	328
3.83700	328
3.84067	329
3.84433	330
3.84800	329
3.85167	329
3.85533	330
3.85900	329
3.86267	328
3.86633	328
3.87000	330
3.87367	329
3.87733	327
3.88100	327
3.88467	327
3.88833	326
3.89200	323
3.89567	321
3.89933	319
3.90300	319
3.90667	318
3.91033	317
3.91400	320
3.91767	321
3.92133	319
3.92500	319
3.92867	321
3.93233	320
3.93600	319
3.93967	319
3.94333	318
3.94700	318
3.95067	319
3.95433	319
3.95800	318
3.96167	317
3.96533	315
3.96900	315
3.97267	313
3.97633	308
3.98000	305
3.98367	303
3.98733	301
3.99100	302
3.99467	306
3.99833	307

[Status Trace (Column Oven Temperature)]
Interval(msec)	1000
# of Points	240
Start Time(min)	0.007
End Time(min)	3.991
Intensity Units	
Intensity Multiplier	1
R.Time (min)	Intensity
0.00728	35.07
0.02395	35.06
0.04062	35.05
0.05728	35.04
0.07395	35.03
0.09062	35.01
0.10728	35.00
0.12395	34.99
0.14062	35.00
0.15728	35.00
0.17395	35.01
0.19062	35.01
0.20728	35.03
0.22395	35.05
0.24062	35.04
0.25728	35.03
0.27395	35.03
0.29062	35.04
0.30728	35.06
0.32395	35.06
0.34062	35.06
0.35728	35.06
0.37395	35.05
0.39062	35.03
0.40728	35.01
0.42395	34.99
0.44062	35.00
0.45728	34.99
0.47395	35.00
0.49062	35.02
0.50728	35.01
0.52395	35.01
0.54062	35.02
0.55728	35.02
0.57395	35.03
0.59062	35.02
0.60728	35.01
0.62395	34.99
0.64062	34.99
0.65728	35.01
0.67395	35.02
0.69062	35.01
0.70728	34.99
0.72395	34.99
0.74062	34.99
0.75728	34.99
0.77395	35.00
0.79062	35.00
0.80728	35.00
0.82395	35.00
0.84062	35.01
0.85728	35.00
0.87395	35.00
0.89062	34.99
0.90728	34.99
0.92395	34.99
0.94062	35.01
0.95728	35.01
0.97395	35.00
0.99062	35.00
1.00728	34.99
1.02395	34.99
1.04062	34.99
1.05728	35.00
1.07395	35.00
1.09062	35.00
1.10728	34.99
1.12395	34.98
1.14062	34.97
1.15728	34.96
1.17395	34.96
1.19062	34.96
1.20728	34.98
1.22395	34.99
1.24062	35.01
1.25728	35.00
1.27395	34.99
1.29062	34.99
1.30728	34.97
1.32395	34.97
1.34062	34.95
1.35728	34.95
1.37395	34.94
1.39062	34.95
1.40728	34.97
1.42395	34.99
1.44062	35.01
1.45728	35.02
1.47395	35.03
1.49062	35.03
1.50728	35.03
1.52395	35.02
1.54062	35.00
1.55728	34.99
1.57395	34.97
1.59062	34.98
1.60728	35.05
1.62395	35.17
1.64062	35.36
1.65728	35.60
1.67395	35.95
1.69062	36.31
1.70728	36.66
1.72395	37.00
1.74062	37.34
1.75728	37.67
1.77395	38.01
1.79062	38.33
1.80728	38.67
1.82395	39.01
1.84062	39.34
1.85728	39.64
1.87395	39.96
1.89062	40.30
1.90728	40.62
1.92395	40.95
1.94062	41.29
1.95728	41.60
1.97395	41.94
1.99062	42.26
2.00728	42.59
2.02395	42.93
2.04062	43.26
2.05728	43.57
2.07395	43.89
2.09062	44.24
2.10728	44.56
2.12395	44.89
2.14062	45.22
2.15728	45.53
2.17395	45.85
2.19062	46.20
2.20728	46.51
2.22395	46.84
2.24062	47.16
2.25728	47.49
2.27395	47.81
2.29062	48.14
2.30728	48.49
2.32395	48.84
2.34062	49.12
2.35728	49.43
2.37395	49.63
2.39062	49.70
2.40728	49.69
2.42395	49.69
2.44062	49.69
2.45728	49.71
2.47395	49.71
2.49062	49.74
2.50728	49.73
2.52395	49.76
2.54062	49.78
2.55728	49.80
2.57395	49.81
2.59062	49.82
2.60728	49.84
2.62395	49.83
2.64062	49.84
2.65728	49.83
2.67395	49.85
2.69062	49.86
2.70728	49.85
2.72395	49.86
2.74062	49.87
2.75728	49.87
2.77395	49.85
2.79062	49.86
2.80728	49.88
2.82395	49.90
2.84062	49.91
2.85728	49.91
2.87395	49.90
2.89062	49.90
2.90728	49.91
2.92395	49.93
2.94062	49.96
2.95728	49.98
2.97395	50.00
2.99062	50.00
3.00728	50.01
3.02395	50.02
3.04062	50.02
3.05728	50.03
3.07395	50.03
3.09062	50.03
3.10728	50.04
3.12395	50.04
3.14062	50.04
3.15728	50.05
3.17395	50.07
3.19062	50.08
3.20728	50.10
3.22395	50.11
3.24062	50.11
3.25728	50.09
3.27395	50.07
3.29062	50.06
3.30728	50.05
3.32395	50.04
3.34062	50.03
3.35728	50.03
3.37395	50.03
3.39062	50.03
3.40728	50.04
3.42395	50.05
3.44062	50.06
3.45728	50.06
3.47395	50.06
3.49062	50.06
3.50728	50.06
3.52395	50.06
3.54062	50.06
3.55728	50.06
3.57395	50.06
3.59062	50.07
3.60728	50.08
3.62395	50.09
3.64062	50.10
3.65728	50.10
3.67395	50.09
3.69062	50.08
3.70728	50.08
3.72395	50.08
3.74062	50.07
3.75728	50.07
3.77395	50.07
3.79062	50.07
3.80728	50.07
3.82395	50.06
3.84062	50.05
3.85728	50.04
3.87395	50.03
3.89062	50.02
3.90728	50.01
3.92395	50.01
3.94062	50.02
3.95728	50.02
3.97395	50.01
3.99062	50.02

[Status Trace (Injection Unit Temperature)]
Interval(msec)	1000
# of Points	240
Start Time(min)	0.007
End Time(min)	3.991
Intensity Units	
Intensity Multiplier	1
R.Time (min)	Intensity
0.00728	99.97
0.02395	99.98
0.04062	99.98
0.05728	99.98
0.07395	99.97
0.09062	99.98
0.10728	99.97
0.12395	99.98
0.14062	99.98
0.15728	99.98
0.17395	99.98
0.19062	99.98
0.20728	99.98
0.22395	99.98
0.24062	99.98
0.25728	99.98
0.27395	99.98
0.29062	99.98
0.30728	99.98
0.32395	99.98
0.34062	99.98
0.35728	99.98
0.37395	99.98
0.39062	99.98
0.40728	99.98
0.42395	99.98
0.44062	99.98
0.45728	99.98
0.47395	99.97
0.49062	99.98
0.50728	99.97
0.52395	99.98
0.54062	99.98
0.55728	99.98
0.57395	99.98
0.59062	99.98
0.60728	99.98
0.62395	99.98
0.64062	99.98
0.65728	99.98
0.67395	99.98
0.69062	99.97
0.70728	99.98
0.72395	99.98
0.74062	99.98
0.75728	99.98
0.77395	99.98
0.79062	99.98
0.80728	99.98
0.82395	99.98
0.84062	99.98
0.85728	99.97
0.87395	99.98
0.89062	99.98
0.90728	99.98
0.92395	99.98
0.94062	99.98
0.95728	99.98
0.97395	99.98
0.99062	99.98
1.00728	99.98
1.02395	99.98
1.04062	99.98
1.05728	99.98
1.07395	99.97
1.09062	99.98
1.10728	99.98
1.12395	99.98
1.14062	99.98
1.15728	99.98
1.17395	99.98
1.19062	99.98
1.20728	99.98
1.22395	99.98
1.24062	99.98
1.25728	99.97
1.27395	99.98
1.29062	99.98
1.30728	99.98
1.32395	99.99
1.34062	99.99
1.35728	99.98
1.37395	99.98
1.39062	99.98
1.40728	99.98
1.42395	99.98
1.44062	99.98
1.45728	99.98
1.47395	99.98
1.49062	99.98
1.50728	99.98
1.52395	99.98
1.54062	99.98
1.55728	99.98
1.57395	99.98
1.59062	99.98
1.60728	99.98
1.62395	99.98
1.64062	99.98
1.65728	99.98
1.67395	99.98
1.69062	99.97
1.70728	99.98
1.72395	99.98
1.74062	99.98
1.75728	99.98
1.77395	99.98
1.79062	99.98
1.80728	99.98
1.82395	99.98
1.84062	99.98
1.85728	99.97
1.87395	99.97
1.89062	99.98
1.90728	99.98
1.92395	99.98
1.94062	99.98
1.95728	99.97
1.97395	99.97
1.99062	99.98
2.00728	99.97
2.02395	99.97
2.04062	99.97
2.05728	99.98
2.07395	99.97
2.09062	99.97
2.10728	99.97
2.12395	99.97
2.14062	99.97
2.15728	99.97
2.17395	99.97
2.19062	99.97
2.20728	99.97
2.22395	99.97
2.24062	99.97
2.25728	99.97
2.27395	99.96
2.29062	99.96
2.30728	99.97
2.32395	99.97
2.34062	99.97
2.35728	99.97
2.37395	99.97
2.39062	99.97
2.40728	99.97
2.42395	99.97
2.44062	99.97
2.45728	99.97
2.47395	99.97
2.49062	99.97
2.50728	99.97
2.52395	99.97
2.54062	99.97
2.55728	99.97
2.57395	99.97
2.59062	99.97
2.60728	99.97
2.62395	99.97
2.64062	99.98
2.65728	99.98
2.67395	99.97
2.69062	99.98
2.70728	99.98
2.72395	99.98
2.74062	99.98
2.75728	99.98
2.77395	99.98
2.79062	99.99
2.80728	99.99
2.82395	99.99
2.84062	99.99
2.85728	99.99
2.87395	99.99
2.89062	100.00
2.90728	99.99
2.92395	100.00
2.94062	100.00
2.95728	100.00
2.97395	100.00
2.99062	100.00
3.00728	100.00
3.02395	100.01
3.04062	100.01
3.05728	100.01
3.07395	100.01
3.09062	100.01
3.10728	100.01
3.12395	100.02
3.14062	100.02
3.15728	100.02
3.17395	100.02
3.19062	100.02
3.20728	100.02
3.22395	100.02
3.24062	100.02
3.25728	100.02
3.27395	100.02
3.29062	100.03
3.30728	100.02
3.32395	100.03
3.34062	100.03
3.35728	100.03
3.37395	100.03
3.39062	100.03
3.40728	100.03
3.42395	100.03
3.44062	100.03
3.45728	100.04
3.47395	100.04
3.49062	100.04
3.50728	100.04
3.52395	100.04
3.54062	100.04
3.55728	100.04
3.57395	100.04
3.59062	100.04
3.60728	100.03
3.62395	100.04
3.64062	100.04
3.65728	100.04
3.67395	100.04
3.69062	100.04
3.70728	100.04
3.72395	100.04
3.74062	100.04
3.75728	100.04
3.77395	100.04
3.79062	100.04
3.80728	100.05
3.82395	100.04
3.84062	100.04
3.85728	100.04
3.87395	100.04
3.89062	100.04
3.90728	100.05
3.92395	100.04
3.94062	100.04
3.95728	100.04
3.97395	100.04
3.99062	100.04

[Status Trace (Carrier Gas Pressure)]
Interval(msec)	1000
# of Points	240
Start Time(min)	0.007
End Time(min)	3.991
Intensity Units	
Intensity Multiplier	1
R.Time (min)	Intensity
0.00728	58.00
0.02395	55.42
0.04062	56.98
0.05728	59.17
0.07395	59.47
0.09062	58.09
0.10728	57.98
0.12395	58.01
0.14062	58.01
0.15728	58.01
0.17395	58.00
0.19062	58.00
0.20728	58.00
0.22395	58.00
0.24062	58.00
0.25728	58.00
0.27395	58.00
0.29062	58.00
0.30728	58.00
0.32395	58.00
0.34062	58.00
0.35728	58.00
0.37395	58.00
0.39062	58.00
0.40728	58.00
0.42395	58.00
0.44062	58.00
0.45728	58.00
0.47395	58.00
0.49062	58.00
0.50728	58.00
0.52395	58.00
0.54062	58.00
0.55728	58.00
0.57395	58.00
0.59062	58.00
0.60728	58.00
0.62395	58.00
0.64062	58.00
0.65728	58.00
0.67395	58.00
0.69062	58.00
0.70728	58.00
0.72395	58.00
0.74062	58.00
0.75728	58.00
0.77395	58.00
0.79062	58.00
0.80728	58.00
0.82395	58.00
0.84062	58.00
0.85728	58.00
0.87395	58.00
0.89062	58.00
0.90728	58.00
0.92395	58.00
0.94062	58.00
0.95728	58.00
0.97395	58.00
0.99062	58.00
1.00728	58.00
1.02395	58.00
1.04062	58.00
1.05728	58.00
1.07395	58.00
1.09062	58.00
1.10728	58.00
1.12395	58.00
1.14062	58.00
1.15728	58.00
1.17395	58.00
1.19062	58.00
1.20728	58.00
1.22395	58.00
1.24062	58.00
1.25728	58.00
1.27395	58.00
1.29062	58.00
1.30728	58.00
1.32395	58.00
1.34062	58.00
1.35728	58.00
1.37395	58.00
1.39062	58.00
1.40728	58.00
1.42395	58.00
1.44062	58.00
1.45728	58.00
1.47395	58.00
1.49062	58.00
1.50728	58.00
1.52395	58.00
1.54062	58.00
1.55728	58.00
1.57395	58.00
1.59062	58.00
1.60728	58.00
1.62395	58.00
1.64062	58.00
1.65728	58.01
1.67395	58.01
1.69062	58.00
1.70728	58.00
1.72395	58.00
1.74062	58.00
1.75728	58.00
1.77395	58.00
1.79062	58.00
1.80728	58.00
1.82395	58.00
1.84062	58.00
1.85728	58.00
1.87395	58.00
1.89062	58.00
1.90728	58.00
1.92395	58.00
1.94062	58.00
1.95728	58.00
1.97395	58.00
1.99062	58.00
2.00728	58.00
2.02395	58.00
2.04062	58.00
2.05728	58.00
2.07395	58.00
2.09062	58.00
2.10728	58.00
2.12395	58.00
2.14062	58.00
2.15728	58.00
2.17395	58.00
2.19062	58.00
2.20728	58.00
2.22395	58.00
2.24062	58.00
2.25728	58.00
2.27395	58.00
2.29062	58.00
2.30728	58.00
2.32395	58.00
2.34062	58.00
2.35728	58.00
2.37395	58.00
2.39062	57.99
2.40728	57.99
2.42395	58.00
2.44062	58.00
2.45728	58.00
2.47395	58.00
2.49062	58.00
2.50728	57.99
2.52395	57.99
2.54062	58.00
2.55728	58.00
2.57395	58.00
2.59062	58.00
2.60728	58.00
2.62395	58.00
2.64062	58.00
2.65728	58.00
2.67395	58.00
2.69062	58.00
2.70728	58.00
2.72395	58.00
2.74062	58.00
2.75728	58.00
2.77395	58.00
2.79062	58.00
2.80728	58.00
2.82395	58.00
2.84062	58.00
2.85728	58.00
2.87395	58.00
2.89062	58.00
2.90728	58.00
2.92395	58.00
2.94062	58.00
2.95728	58.00
2.97395	58.00
2.99062	58.00
3.00728	58.00
3.02395	58.00
3.04062	58.00
3.05728	58.00
3.07395	58.00
3.09062	58.00
3.10728	58.00
3.12395	58.00
3.14062	58.00
3.15728	58.00
3.17395	58.00
3.19062	58.00
3.20728	58.00
3.22395	58.00
3.24062	58.00
3.25728	58.00
3.27395	58.00
3.29062	58.00
3.30728	58.00
3.32395	58.00
3.34062	58.00
3.35728	58.00
3.37395	58.00
3.39062	58.00
3.40728	58.00
3.42395	58.00
3.44062	58.00
3.45728	58.00
3.47395	58.00
3.49062	58.00
3.50728	58.00
3.52395	58.00
3.54062	58.00
3.55728	58.00
3.57395	58.00
3.59062	58.00
3.60728	58.00
3.62395	58.00
3.64062	58.00
3.65728	58.00
3.67395	58.00
3.69062	58.00
3.70728	58.00
3.72395	58.00
3.74062	58.00
3.75728	58.00
3.77395	58.00
3.79062	58.00
3.80728	58.00
3.82395	58.00
3.84062	58.00
3.85728	58.00
3.87395	58.00
3.89062	58.00
3.90728	58.00
3.92395	58.00
3.94062	58.00
3.95728	58.00
3.97395	58.00
3.99062	58.00

[Status Trace (Carrier Gas Flow)]
Interval(msec)	1000
# of Points	240
Start Time(min)	0.007
End Time(min)	3.991
Intensity Units	
Intensity Multiplier	1
R.Time (min)	Intensity
0.00728	34.52
0.02395	34.54
0.04062	34.55
0.05728	34.55
0.07395	34.50
0.09062	34.52
0.10728	34.52
0.12395	34.52
0.14062	34.52
0.15728	34.52
0.17395	34.52
0.19062	34.52
0.20728	34.52
0.22395	34.52
0.24062	34.52
0.25728	34.52
0.27395	34.52
0.29062	34.52
0.30728	34.52
0.32395	34.52
0.34062	34.52
0.35728	34.52
0.37395	34.52
0.39062	34.52
0.40728	34.52
0.42395	34.52
0.44062	34.52
0.45728	34.52
0.47395	34.52
0.49062	34.52
0.50728	34.52
0.52395	34.52
0.54062	34.52
0.55728	34.52
0.57395	34.52
0.59062	34.52
0.60728	34.51
0.62395	34.52
0.64062	34.52
0.65728	34.52
0.67395	34.52
0.69062	34.52
0.70728	34.53
0.72395	34.52
0.74062	34.52
0.75728	34.52
0.77395	34.52
0.79062	34.51
0.80728	34.52
0.82395	34.52
0.84062	34.52
0.85728	34.52
0.87395	34.52
0.89062	34.52
0.90728	34.52
0.92395	34.52
0.94062	34.52
0.95728	34.52
0.97395	34.52
0.99062	34.52
1.00728	34.51
1.02395	34.51
1.04062	34.52
1.05728	34.52
1.07395	34.52
1.09062	34.52
1.10728	34.52
1.12395	34.52
1.14062	34.52
1.15728	34.52
1.17395	34.52
1.19062	34.52
1.20728	34.52
1.22395	34.52
1.24062	34.52
1.25728	34.52
1.27395	34.52
1.29062	34.52
1.30728	34.52
1.32395	34.52
1.34062	34.52
1.35728	34.52
1.37395	34.52
1.39062	34.52
1.40728	34.52
1.42395	34.52
1.44062	34.52
1.45728	34.52
1.47395	34.52
1.49062	34.52
1.50728	34.52
1.52395	34.51
1.54062	34.52
1.55728	34.52
1.57395	34.52
1.59062	34.52
1.60728	34.52
1.62395	34.52
1.64062	34.52
1.65728	34.51
1.67395	34.52
1.69062	34.52
1.70728	34.52
1.72395	34.52
1.74062	34.52
1.75728	34.52
1.77395	34.52
1.79062	34.52
1.80728	34.52
1.82395	34.52
1.84062	34.52
1.85728	34.52
1.87395	34.52
1.89062	34.52
1.90728	34.52
1.92395	34.52
1.94062	34.52
1.95728	34.52
1.97395	34.52
1.99062	34.52
2.00728	34.52
2.02395	34.51
2.04062	34.52
2.05728	34.52
2.07395	34.52
2.09062	34.52
2.10728	34.52
2.12395	34.52
2.14062	34.52
2.15728	34.52
2.17395	34.52
2.19062	34.52
2.20728	34.52
2.22395	34.52
2.24062	34.52
2.25728	34.52
2.27395	34.52
2.29062	34.52
2.30728	34.52
2.32395	34.51
2.34062	34.52
2.35728	34.52
2.37395	34.52
2.39062	34.52
2.40728	34.52
2.42395	34.52
2.44062	34.52
2.45728	34.52
2.47395	34.52
2.49062	34.52
2.50728	34.32
2.52395	34.52
2.54062	34.51
2.55728	34.52
2.57395	34.52
2.59062	34.51
2.60728	34.52
2.62395	34.52
2.64062	34.52
2.65728	34.52
2.67395	34.52
2.69062	34.51
2.70728	34.51
2.72395	34.52
2.74062	34.52
2.75728	34.52
2.77395	34.52
2.79062	34.52
2.80728	34.52
2.82395	34.52
2.84062	34.51
2.85728	34.52
2.87395	34.52
2.89062	34.52
2.90728	34.52
2.92395	34.52
2.94062	34.52
2.95728	34.52
2.97395	34.51
2.99062	34.52
3.00728	34.52
3.02395	34.52
3.04062	34.52
3.05728	34.51
3.07395	34.52
3.09062	34.52
3.10728	34.52
3.12395	34.52
3.14062	34.52
3.15728	34.52
3.17395	34.52
3.19062	34.52
3.20728	34.52
3.22395	34.52
3.24062	34.52
3.25728	34.52
3.27395	34.52
3.29062	34.52
3.30728	34.52
3.32395	34.52
3.34062	34.52
3.35728	34.52
3.37395	34.52
3.39062	34.52
3.40728	34.52
3.42395	34.52
3.44062	34.52
3.45728	34.52
3.47395	34.52
3.49062	34.52
3.50728	34.52
3.52395	34.51
3.54062	34.52
3.55728	34.52
3.57395	34.52
3.59062	34.52
3.60728	34.51
3.62395	34.52
3.64062	34.52
3.65728	34.52
3.67395	34.52
3.69062	34.52
3.70728	34.52
3.72395	34.52
3.74062	34.52
3.75728	34.52
3.77395	34.52
3.79062	34.52
3.80728	34.52
3.82395	34.52
3.84062	34.52
3.85728	34.52
3.87395	34.52
3.89062	34.52
3.90728	34.53
3.92395	34.52
3.94062	34.52
3.95728	34.52
3.97395	34.52
3.99062	34.52

[Status Trace (Column Flow)]
Interval(msec)	1000
# of Points	240
Start Time(min)	0.007
End Time(min)	3.991
Intensity Units	
Intensity Multiplier	1
R.Time (min)	Intensity
0.00728	5.58
0.02395	5.28
0.04062	5.46
0.05728	5.71
0.07395	5.75
0.09062	5.59
0.10728	5.58
0.12395	5.58
0.14062	5.58
0.15728	5.58
0.17395	5.58
0.19062	5.58
0.20728	5.58
0.22395	5.58
0.24062	5.58
0.25728	5.58
0.27395	5.58
0.29062	5.58
0.30728	5.58
0.32395	5.58
0.34062	5.58
0.35728	5.58
0.37395	5.58
0.39062	5.58
0.40728	5.58
0.42395	5.58
0.44062	5.58
0.45728	5.58
0.47395	5.58
0.49062	5.58
0.50728	5.58
0.52395	5.58
0.54062	5.58
0.55728	5.58
0.57395	5.58
0.59062	5.58
0.60728	5.58
0.62395	5.58
0.64062	5.58
0.65728	5.58
0.67395	5.58
0.69062	5.58
0.70728	5.58
0.72395	5.58
0.74062	5.58
0.75728	5.58
0.77395	5.58
0.79062	5.58
0.80728	5.58
0.82395	5.58
0.84062	5.58
0.85728	5.58
0.87395	5.58
0.89062	5.58
0.90728	5.58
0.92395	5.58
0.94062	5.58
0.95728	5.58
0.97395	5.58
0.99062	5.58
1.00728	5.58
1.02395	5.58
1.04062	5.58
1.05728	5.58
1.07395	5.58
1.09062	5.58
1.10728	5.58
1.12395	5.58
1.14062	5.58
1.15728	5.58
1.17395	5.58
1.19062	5.58
1.20728	5.58
1.22395	5.58
1.24062	5.58
1.25728	5.58
1.27395	5.58
1.29062	5.58
1.30728	5.58
1.32395	5.58
1.34062	5.58
1.35728	5.58
1.37395	5.58
1.39062	5.58
1.40728	5.58
1.42395	5.58
1.44062	5.58
1.45728	5.58
1.47395	5.58
1.49062	5.58
1.50728	5.58
1.52395	5.58
1.54062	5.58
1.55728	5.58
1.57395	5.58
1.59062	5.58
1.60728	5.58
1.62395	5.57
1.64062	5.57
1.65728	5.56
1.67395	5.55
1.69062	5.54
1.70728	5.53
1.72395	5.51
1.74062	5.51
1.75728	5.49
1.77395	5.48
1.79062	5.47
1.80728	5.46
1.82395	5.45
1.84062	5.44
1.85728	5.43
1.87395	5.42
1.89062	5.41
1.90728	5.40
1.92395	5.39
1.94062	5.38
1.95728	5.37
1.97395	5.36
1.99062	5.35
2.00728	5.34
2.02395	5.33
2.04062	5.32
2.05728	5.31
2.07395	5.31
2.09062	5.30
2.10728	5.29
2.12395	5.28
2.14062	5.27
2.15728	5.26
2.17395	5.25
2.19062	5.24
2.20728	5.23
2.22395	5.22
2.24062	5.21
2.25728	5.20
2.27395	5.19
2.29062	5.18
2.30728	5.17
2.32395	5.16
2.34062	5.16
2.35728	5.15
2.37395	5.14
2.39062	5.14
2.40728	5.14
2.42395	5.14
2.44062	5.14
2.45728	5.14
2.47395	5.14
2.49062	5.14
2.50728	5.14
2.52395	5.14
2.54062	5.14
2.55728	5.14
2.57395	5.14
2.59062	5.14
2.60728	5.14
2.62395	5.14
2.64062	5.14
2.65728	5.14
2.67395	5.14
2.69062	5.13
2.70728	5.13
2.72395	5.14
2.74062	5.13
2.75728	5.13
2.77395	5.14
2.79062	5.14
2.80728	5.13
2.82395	5.13
2.84062	5.13
2.85728	5.13
2.87395	5.13
2.89062	5.13
2.90728	5.13
2.92395	5.13
2.94062	5.13
2.95728	5.13
2.97395	5.13
2.99062	5.13
3.00728	5.13
3.02395	5.13
3.04062	5.13
3.05728	5.13
3.07395	5.13
3.09062	5.13
3.10728	5.13
3.12395	5.13
3.14062	5.13
3.15728	5.13
3.17395	5.13
3.19062	5.13
3.20728	5.13
3.22395	5.13
3.24062	5.13
3.25728	5.13
3.27395	5.13
3.29062	5.13
3.30728	5.13
3.32395	5.13
3.34062	5.13
3.35728	5.13
3.37395	5.13
3.39062	5.13
3.40728	5.13
3.42395	5.13
3.44062	5.13
3.45728	5.13
3.47395	5.13
3.49062	5.13
3.50728	5.13
3.52395	5.13
3.54062	5.13
3.55728	5.13
3.57395	5.13
3.59062	5.13
3.60728	5.13
3.62395	5.13
3.64062	5.13
3.65728	5.13
3.67395	5.13
3.69062	5.13
3.70728	5.13
3.72395	5.13
3.74062	5.13
3.75728	5.13
3.77395	5.13
3.79062	5.13
3.80728	5.13
3.82395	5.13
3.84062	5.13
3.85728	5.13
3.87395	5.13
3.89062	5.13
3.90728	5.13
3.92395	5.13
3.94062	5.13
3.95728	5.13
3.97395	5.13
3.99062	5.13

[Status Trace (Linear Velocity)]
Interval(msec)	1000
# of Points	240
Start Time(min)	0.007
End Time(min)	3.991
Intensity Units	
Intensity Multiplier	1
R.Time (min)	Intensity
0.00728	39.02
0.02395	37.33
0.04062	38.36
0.05728	39.79
0.07395	39.99
0.09062	39.09
0.10728	39.01
0.12395	39.04
0.14062	39.04
0.15728	39.03
0.17395	39.03
0.19062	39.03
0.20728	39.03
0.22395	39.03
0.24062	39.03
0.25728	39.03
0.27395	39.03
0.29062	39.03
0.30728	39.03
0.32395	39.03
0.34062	39.02
0.35728	39.02
0.37395	39.02
0.39062	39.03
0.40728	39.03
0.42395	39.03
0.44062	39.03
0.45728	39.03
0.47395	39.03
0.49062	39.03
0.50728	39.03
0.52395	39.03
0.54062	39.03
0.55728	39.03
0.57395	39.03
0.59062	39.03
0.60728	39.03
0.62395	39.03
0.64062	39.03
0.65728	39.03
0.67395	39.03
0.69062	39.03
0.70728	39.03
0.72395	39.03
0.74062	39.03
0.75728	39.03
0.77395	39.03
0.79062	39.03
0.80728	39.03
0.82395	39.03
0.84062	39.03
0.85728	39.03
0.87395	39.03
0.89062	39.03
0.90728	39.03
0.92395	39.03
0.94062	39.03
0.95728	39.03
0.97395	39.03
0.99062	39.03
1.00728	39.03
1.02395	39.03
1.04062	39.03
1.05728	39.03
1.07395	39.03
1.09062	39.03
1.10728	39.03
1.12395	39.03
1.14062	39.03
1.15728	39.03
1.17395	39.03
1.19062	39.03
1.20728	39.03
1.22395	39.03
1.24062	39.03
1.25728	39.03
1.27395	39.03
1.29062	39.03
1.30728	39.03
1.32395	39.03
1.34062	39.03
1.35728	39.03
1.37395	39.04
1.39062	39.04
1.40728	39.03
1.42395	39.03
1.44062	39.03
1.45728	39.03
1.47395	39.03
1.49062	39.03
1.50728	39.03
1.52395	39.03
1.54062	39.03
1.55728	39.03
1.57395	39.03
1.59062	39.03
1.60728	39.03
1.62395	39.02
1.64062	39.00
1.65728	38.98
1.67395	38.94
1.69062	38.91
1.70728	38.87
1.72395	38.84
1.74062	38.81
1.75728	38.77
1.77395	38.74
1.79062	38.71
1.80728	38.68
1.82395	38.65
1.84062	38.62
1.85728	38.59
1.87395	38.56
1.89062	38.53
1.90728	38.50
1.92395	38.47
1.94062	38.44
1.95728	38.40
1.97395	38.37
1.99062	38.35
2.00728	38.31
2.02395	38.28
2.04062	38.26
2.05728	38.22
2.07395	38.19
2.09062	38.17
2.10728	38.13
2.12395	38.10
2.14062	38.08
2.15728	38.04
2.17395	38.02
2.19062	37.99
2.20728	37.96
2.22395	37.93
2.24062	37.90
2.25728	37.87
2.27395	37.84
2.29062	37.81
2.30728	37.78
2.32395	37.75
2.34062	37.72
2.35728	37.70
2.37395	37.68
2.39062	37.67
2.40728	37.67
2.42395	37.67
2.44062	37.67
2.45728	37.67
2.47395	37.67
2.49062	37.67
2.50728	37.67
2.52395	37.66
2.54062	37.66
2.55728	37.66
2.57395	37.66
2.59062	37.66
2.60728	37.66
2.62395	37.66
2.64062	37.66
2.65728	37.66
2.67395	37.66
2.69062	37.66
2.70728	37.66
2.72395	37.66
2.74062	37.66
2.75728	37.66
2.77395	37.66
2.79062	37.66
2.80728	37.66
2.82395	37.65
2.84062	37.65
2.85728	37.65
2.87395	37.65
2.89062	37.65
2.90728	37.65
2.92395	37.65
2.94062	37.65
2.95728	37.65
2.97395	37.64
2.99062	37.64
3.00728	37.64
3.02395	37.64
3.04062	37.64
3.05728	37.64
3.07395	37.64
3.09062	37.64
3.10728	37.64
3.12395	37.64
3.14062	37.64
3.15728	37.64
3.17395	37.64
3.19062	37.64
3.20728	37.64
3.22395	37.64
3.24062	37.64
3.25728	37.64
3.27395	37.64
3.29062	37.64
3.30728	37.64
3.32395	37.64
3.34062	37.64
3.35728	37.64
3.37395	37.64
3.39062	37.64
3.40728	37.64
3.42395	37.64
3.44062	37.64
3.45728	37.64
3.47395	37.64
3.49062	37.64
3.50728	37.64
3.52395	37.64
3.54062	37.64
3.55728	37.64
3.57395	37.64
3.59062	37.64
3.60728	37.64
3.62395	37.64
3.64062	37.64
3.65728	37.64
3.67395	37.64
3.69062	37.64
3.70728	37.64
3.72395	37.64
3.74062	37.64
3.75728	37.64
3.77395	37.64
3.79062	37.64
3.80728	37.64
3.82395	37.64
3.84062	37.64
3.85728	37.64
3.87395	37.64
3.89062	37.64
3.90728	37.64
3.92395	37.64
3.94062	37.64
3.95728	37.64
3.97395	37.64
3.99062	37.64

