[Header]
Application Name	LabSolutions
Version	5.110
Data File Name	C:\Users\User\Desktop\GC Analyses\Jack\Nachusa Grasslands Sampling\T0 Timepoint July 12th\T0_07122022_048.gcd
Output Date	3/14/2023
Output Time	3:40:36 PM

[File Information]
Type	Data File
Generated	3/7/2023 7:05:01 PM
Generated by	System Administrator
Modified	3/7/2023 7:11:37 PM
Modified by	System Administrator

[Sample Information]
Operator Name	System Administrator
Acquired	3/7/2023 7:07:36 PM
Sample Type	0:Unknown
Level	0
Sample Name	048
Sample ID	048
ISTD Amount1	1
ISTD Amount2	1
ISTD Amount3	1
ISTD Amount4	1
ISTD Amount5	1
ISTD Amount6	1
ISTD Amount7	1
ISTD Amount8	1
ISTD Amount9	1
ISTD Amount10	1
ISTD Amount11	1
ISTD Amount12	1
ISTD Amount13	1
ISTD Amount14	1
ISTD Amount15	1
ISTD Amount16	1
ISTD Amount17	1
ISTD Amount18	1
ISTD Amount19	1
ISTD Amount20	1
ISTD Amount21	1
ISTD Amount22	1
ISTD Amount23	1
ISTD Amount24	1
ISTD Amount25	1
ISTD Amount26	1
ISTD Amount27	1
ISTD Amount28	1
ISTD Amount29	1
ISTD Amount30	1
ISTD Amount31	1
ISTD Amount32	1
Sample Amount	1
Dilution Factor	1
Vial#	47
Injection Volume	1
Injection Count	1
Bar Code	

[Original Files]
Data File	C:\Users\User\Desktop\GC Analyses\Jack\Nachusa Grasslands Sampling\T0 Timepoint July 12th\T0_07122022_048.gcd
Method File	C:\LabSolutions\Data\GHG_4min_2022\ghg3_togas_w_acet_4 min_new_int.gcm
Batch File	C:\LabSolutions\Data\AutoSamplerTesting\T0_07122022.gcb
Report Format File	c:\LabSolutions\System\DEFAULT.lsr

[File Description]


[Configuration]
Instrument Name	C0B7VH3-Instrument1
Instrument #	1
Line #	1
# of Detectors	3
Detector ID	DET#1	DET#2	DET#3
Detector Name	FID	PTCD	ECD
# of Channels	1	1	1

[Peak Table(Ch1)]
# of Peaks	3
Peak#	R.Time	I.Time	F.Time	Area	Height	A/H	Conc.	Mark	ID#	Name	k'	Plate #	Plate Ht.	Tailing	Resolution	Sep.Factor	Area Ratio	Height Ratio	Conc. %	Norm Conc.
1	1.476	1.424	1.538	25427	11840	2.148	179.513	   	1	CO	0.000	8929	16.799	1.328	0.000	0.000	0	0	31.989	31.989
2	1.567	1.538	1.652	5039	2386	2.112	97.432	 V 	2	CH4	0.062	10369	14.466	0.000	1.478	0.000	0	0	17.362	17.362
3	1.996	1.952	2.414	1132521	533327	2.124	284.232	   	3	CO2	0.353	17278	8.682	1.319	7.015	5.680	0	0	50.649	50.649

[Peak Table(Ch2)]
# of Peaks	0

[Peak Table(Ch3)]
# of Peaks	4
Peak#	R.Time	I.Time	F.Time	Area	Height	A/H	Conc.	Mark	ID#	Name	k'	Plate #	Plate Ht.	Tailing	Resolution	Sep.Factor	Area Ratio	Height Ratio	Conc. %	Norm Conc.
1	2.462	2.147	2.528	2296	388	5.913	0.000	   			0.000	6019	24.920	0.000	0.000	0.000	0	0	0.000	0.000
2	2.550	2.528	2.638	964	219	4.411	0.000	 V 			0.036	2488	60.285	0.000	0.531	0.000	0	0	0.000	0.000
3	2.708	2.649	2.766	596	112	5.322	0.000	   			0.100	322	465.963	0.000	0.390	2.792	0	0	0.000	0.000
4	2.873	2.766	3.162	19159	4848	3.952	0.489	 V 	1	N2O	0.167	13261	11.311	1.641	0.469	1.672	0	0	100.000	100.000

[Compound Results(Ch1)]
# of IDs	6
ID#	Name	R.Time	Area	Height	Conc.	Curve	3rd	2nd	1st	Constant	Area Ratio	Height Ratio	Conc. %	Norm Conc.
1	CO	1.476	25427	11840	179.513	Linear	0.000000e+00	0.000000e+00	1.416423e+002	0.000000e+00	0	0	31.989	31.989
2	CH4	1.567	5039	2386	97.432	Linear	0.000000e+00	0.000000e+00	5.171738e+001	0.000000e+00	0	0	17.362	17.362
3	CO2	1.996	1132521	533327	284.232	Linear	0.000000e+00	0.000000e+00	3.984494e+003	0.000000e+00	0	0	50.649	50.649
4	Ethylene	0.000	0	0	0.000	Linear	0.000000e+00	0.000000e+00	0.000000e+00	0.000000e+00	0	0	0.000	0.000
5	Acetylene	0.000	0	0	0.000	Linear	0.000000e+00	0.000000e+00	0.000000e+00	0.000000e+00	0	0	0.000	0.000
6	Ethane	0.000	0	0	0.000	Linear	0.000000e+00	0.000000e+00	0.000000e+00	0.000000e+00	0	0	0.000	0.000

[Compound Results(Ch2)]
# of IDs	5
ID#	Name	R.Time	Area	Height	Conc.	Curve	3rd	2nd	1st	Constant	Area Ratio	Height Ratio	Conc. %	Norm Conc.
1	Hydrogen	0.000	0	0	0.000	Linear	0.000000e+00	0.000000e+00	0.000000e+00	0.000000e+00	0	0	0.000	0.000
2	Oxygen	0.000	0	0	0.000	Linear	0.000000e+00	0.000000e+00	0.000000e+00	0.000000e+00	0	0	0.000	0.000
3	Nitrogen	0.000	0	0	0.000	Linear	0.000000e+00	0.000000e+00	0.000000e+00	0.000000e+00	0	0	0.000	0.000
4	Methane	0.000	0	0	0.000	Linear	0.000000e+00	0.000000e+00	0.000000e+00	0.000000e+00	0	0	0.000	0.000
5	Carbon Monoxide	0.000	0	0	0.000	Linear	0.000000e+00	0.000000e+00	0.000000e+00	0.000000e+00	0	0	0.000	0.000

[Compound Results(Ch3)]
# of IDs	2
ID#	Name	R.Time	Area	Height	Conc.	Curve	3rd	2nd	1st	Constant	Area Ratio	Height Ratio	Conc. %	Norm Conc.
1	N2O	2.873	19159	4848	0.489	Linear	0.000000e+00	0.000000e+00	3.915173e+004	0.000000e+00	0	0	100.000	100.000
2	SF6	0.000	0	0	0.000	Linear	0.000000e+00	0.000000e+00	0.000000e+00	0.000000e+00	0	0	0.000	0.000

[Group Results(Ch1)]
# of Groups	0

[Group Results(Ch2)]
# of Groups	0

[Group Results(Ch3)]
# of Groups	0

[Chromatogram (Ch1)]
Interval(msec)	220
# of Points	1091
Start Time(min)	0.002
End Time(min)	3.998
R.Time (min)	Intensity
0.00167	7
0.00533	7
0.00900	9
0.01267	8
0.01633	4
0.02000	-2
0.02367	-5
0.02733	-3
0.03100	3
0.03467	9
0.03833	10
0.04200	7
0.04567	3
0.04933	1
0.05300	0
0.05667	0
0.06033	3
0.06400	4
0.06767	3
0.07133	0
0.07500	-3
0.07867	-5
0.08233	-5
0.08600	-1
0.08967	3
0.09333	6
0.09700	11
0.10067	16
0.10433	18
0.10800	15
0.11167	12
0.11533	6
0.11900	1
0.12267	-4
0.12633	-10
0.13000	-14
0.13367	-14
0.13733	-10
0.14100	-3
0.14467	6
0.14833	12
0.15200	13
0.15567	9
0.15933	2
0.16300	-6
0.16667	-12
0.17033	-15
0.17400	-17
0.17767	-18
0.18133	-17
0.18500	-13
0.18867	-5
0.19233	1
0.19600	3
0.19967	4
0.20333	9
0.20700	15
0.21067	18
0.21433	16
0.21800	15
0.22167	12
0.22533	6
0.22900	-1
0.23267	-5
0.23633	-6
0.24000	-3
0.24367	-1
0.24733	-1
0.25100	0
0.25467	2
0.25833	5
0.26200	8
0.26567	12
0.26933	18
0.27300	21
0.27667	21
0.28033	20
0.28400	18
0.28767	17
0.29133	14
0.29500	8
0.29867	2
0.30233	-1
0.30600	1
0.30967	8
0.31333	16
0.31700	18
0.32067	17
0.32433	15
0.32800	11
0.33167	7
0.33533	4
0.33900	1
0.34267	1
0.34633	3
0.35000	8
0.35367	13
0.35733	15
0.36100	15
0.36467	14
0.36833	14
0.37200	14
0.37567	13
0.37933	12
0.38300	10
0.38667	5
0.39033	2
0.39400	-2
0.39767	-4
0.40133	-3
0.40500	-2
0.40867	-0
0.41233	0
0.41600	2
0.41967	3
0.42333	5
0.42700	8
0.43067	11
0.43433	16
0.43800	22
0.44167	26
0.44533	32
0.44900	38
0.45267	37
0.45633	28
0.46000	15
0.46367	1
0.46733	-8
0.47100	-15
0.47467	-20
0.47833	-21
0.48200	-24
0.48567	-24
0.48933	-20
0.49300	-18
0.49667	-16
0.50033	-14
0.50400	-11
0.50767	-3
0.51133	7
0.51500	12
0.51867	8
0.52233	2
0.52600	-2
0.52967	-3
0.53333	0
0.53700	4
0.54067	8
0.54433	14
0.54800	24
0.55167	29
0.55533	27
0.55900	20
0.56267	13
0.56633	9
0.57000	8
0.57367	8
0.57733	12
0.58100	15
0.58467	15
0.58833	10
0.59200	6
0.59567	3
0.59933	1
0.60300	2
0.60667	6
0.61033	10
0.61400	8
0.61767	-0
0.62133	-6
0.62500	-10
0.62867	-8
0.63233	-1
0.63600	4
0.63967	3
0.64333	0
0.64700	-0
0.65067	2
0.65433	3
0.65800	2
0.66167	-2
0.66533	-2
0.66900	4
0.67267	13
0.67633	20
0.68000	23
0.68367	20
0.68733	17
0.69100	14
0.69467	12
0.69833	11
0.70200	8
0.70567	2
0.70933	-4
0.71300	-8
0.71667	-12
0.72033	-14
0.72400	-15
0.72767	-12
0.73133	-5
0.73500	3
0.73867	8
0.74233	9
0.74600	8
0.74967	5
0.75333	1
0.75700	-2
0.76067	-3
0.76433	-3
0.76800	-5
0.77167	-7
0.77533	-6
0.77900	-5
0.78267	-7
0.78633	-9
0.79000	-12
0.79367	-12
0.79733	-12
0.80100	-12
0.80467	-10
0.80833	-9
0.81200	-11
0.81567	-15
0.81933	-19
0.82300	-22
0.82667	-21
0.83033	-18
0.83400	-15
0.83767	-13
0.84133	-9
0.84500	-1
0.84867	9
0.85233	13
0.85600	10
0.85967	1
0.86333	-9
0.86700	-17
0.87067	-22
0.87433	-24
0.87800	-23
0.88167	-19
0.88533	-12
0.88900	-4
0.89267	1
0.89633	-4
0.90000	-13
0.90367	-24
0.90733	-30
0.91100	-31
0.91467	-32
0.91833	-32
0.92200	-28
0.92567	-22
0.92933	-18
0.93300	-17
0.93667	-15
0.94033	-10
0.94400	-7
0.94767	-8
0.95133	-7
0.95500	-4
0.95867	-3
0.96233	-5
0.96600	-11
0.96967	-19
0.97333	-26
0.97700	-30
0.98067	-29
0.98433	-24
0.98800	-18
0.99167	-13
0.99533	-10
0.99900	-10
1.00267	-11
1.00633	-14
1.01000	-21
1.01367	-33
1.01733	-44
1.02100	-52
1.02467	-55
1.02833	-52
1.03200	-46
1.03567	-41
1.03933	-38
1.04300	-37
1.04667	-36
1.05033	-34
1.05400	-32
1.05767	-34
1.06133	-38
1.06500	-38
1.06867	-37
1.07233	-36
1.07600	-35
1.07967	-34
1.08333	-34
1.08700	-34
1.09067	-33
1.09433	-32
1.09800	-32
1.10167	-32
1.10533	-33
1.10900	-37
1.11267	-40
1.11633	-45
1.12000	-51
1.12367	-53
1.12733	-52
1.13100	-48
1.13467	-46
1.13833	-47
1.14200	-46
1.14567	-44
1.14933	-43
1.15300	-45
1.15667	-45
1.16033	-42
1.16400	-37
1.16767	-33
1.17133	-32
1.17500	-36
1.17867	-41
1.18233	-42
1.18600	-42
1.18967	-44
1.19333	-47
1.19700	-45
1.20067	-42
1.20433	-38
1.20800	-38
1.21167	-41
1.21533	-48
1.21900	-54
1.22267	-58
1.22633	-62
1.23000	-65
1.23367	-67
1.23733	-64
1.24100	-55
1.24467	-49
1.24833	-47
1.25200	-45
1.25567	-43
1.25933	-42
1.26300	-45
1.26667	-50
1.27033	-55
1.27400	-58
1.27767	-57
1.28133	-55
1.28500	-56
1.28867	-57
1.29233	-53
1.29600	-48
1.29967	-45
1.30333	-44
1.30700	-48
1.31067	-52
1.31433	-55
1.31800	-61
1.32167	-69
1.32533	-75
1.32900	-78
1.33267	-82
1.33633	-80
1.34000	-73
1.34367	-64
1.34733	-60
1.35100	-62
1.35467	-63
1.35833	-63
1.36200	-62
1.36567	-61
1.36933	-56
1.37300	-52
1.37667	-49
1.38033	-43
1.38400	-35
1.38767	-33
1.39133	-37
1.39500	-43
1.39867	-49
1.40233	-53
1.40600	-56
1.40967	-60
1.41333	-64
1.41700	-67
1.42067	-69
1.42433	-66
1.42800	-58
1.43167	-47
1.43533	-35
1.43900	-10
1.44267	75
1.44633	287
1.45000	783
1.45367	1909
1.45733	3782
1.46100	6036
1.46467	8191
1.46833	9956
1.47200	11191
1.47567	11788
1.47933	11644
1.48300	10743
1.48667	9256
1.49033	7495
1.49400	5772
1.49767	4287
1.50133	3111
1.50500	2233
1.50867	1598
1.51233	1151
1.51600	838
1.51967	619
1.52333	466
1.52700	362
1.53067	293
1.53433	243
1.53800	222
1.54167	266
1.54533	431
1.54900	748
1.55267	1166
1.55633	1593
1.56000	1955
1.56367	2219
1.56733	2361
1.57100	2349
1.57467	2162
1.57833	1838
1.58200	1451
1.58567	1080
1.58933	770
1.59300	536
1.59667	370
1.60033	255
1.60400	176
1.60767	121
1.61133	87
1.61500	69
1.61867	58
1.62233	49
1.62600	41
1.62967	35
1.63333	29
1.63700	21
1.64067	16
1.64433	9
1.64800	3
1.65167	-1
1.65533	-6
1.65900	-13
1.66267	-22
1.66633	-28
1.67000	-29
1.67367	-28
1.67733	-25
1.68100	-19
1.68467	-13
1.68833	-6
1.69200	0
1.69567	4
1.69933	4
1.70300	-3
1.70667	-10
1.71033	-15
1.71400	-16
1.71767	-15
1.72133	-12
1.72500	-7
1.72867	-4
1.73233	-4
1.73600	-5
1.73967	-8
1.74333	-12
1.74700	-14
1.75067	-15
1.75433	-15
1.75800	-17
1.76167	-21
1.76533	-28
1.76900	-31
1.77267	-29
1.77633	-25
1.78000	-22
1.78367	-18
1.78733	-15
1.79100	-14
1.79467	-17
1.79833	-18
1.80200	-20
1.80567	-24
1.80933	-24
1.81300	-18
1.81667	-12
1.82033	-6
1.82400	-4
1.82767	-2
1.83133	-2
1.83500	-2
1.83867	0
1.84233	6
1.84600	9
1.84967	7
1.85333	3
1.85700	-4
1.86067	-14
1.86433	-25
1.86800	-33
1.87167	-33
1.87533	-32
1.87900	-30
1.88267	-27
1.88633	-27
1.89000	-29
1.89367	-28
1.89733	-29
1.90100	-28
1.90467	-23
1.90833	-18
1.91200	-13
1.91567	-9
1.91933	-9
1.92300	-8
1.92667	-5
1.93033	-0
1.93400	6
1.93767	12
1.94133	15
1.94500	13
1.94867	8
1.95233	13
1.95600	96
1.95967	602
1.96333	2901
1.96700	10841
1.97067	31840
1.97433	75109
1.97800	145613
1.98167	238314
1.98533	338816
1.98900	430241
1.99267	498380
1.99633	533376
2.00000	530488
2.00367	491635
2.00733	425889
2.01100	346886
2.01467	268005
2.01833	198578
2.02200	142798
2.02567	100826
2.02933	70660
2.03300	49638
2.03667	35265
2.04033	25531
2.04400	18951
2.04767	14476
2.05133	11395
2.05500	9234
2.05867	7682
2.06233	6542
2.06600	5684
2.06967	5021
2.07333	4497
2.07700	4074
2.08067	3729
2.08433	3442
2.08800	3198
2.09167	2983
2.09533	2794
2.09900	2627
2.10267	2479
2.10633	2345
2.11000	2225
2.11367	2115
2.11733	2014
2.12100	1923
2.12467	1841
2.12833	1764
2.13200	1693
2.13567	1631
2.13933	1576
2.14300	1524
2.14667	1472
2.15033	1425
2.15400	1383
2.15767	1339
2.16133	1295
2.16500	1253
2.16867	1208
2.17233	1161
2.17600	1117
2.17967	1080
2.18333	1049
2.18700	1020
2.19067	998
2.19433	979
2.19800	956
2.20167	931
2.20533	906
2.20900	884
2.21267	865
2.21633	845
2.22000	821
2.22367	799
2.22733	784
2.23100	771
2.23467	758
2.23833	746
2.24200	735
2.24567	721
2.24933	703
2.25300	683
2.25667	667
2.26033	653
2.26400	640
2.26767	629
2.27133	619
2.27500	609
2.27867	602
2.28233	594
2.28600	586
2.28967	580
2.29333	575
2.29700	571
2.30067	568
2.30433	564
2.30800	557
2.31167	550
2.31533	547
2.31900	541
2.32267	526
2.32633	508
2.33000	490
2.33367	475
2.33733	461
2.34100	452
2.34467	447
2.34833	445
2.35200	446
2.35567	451
2.35933	456
2.36300	454
2.36667	446
2.37033	437
2.37400	429
2.37767	425
2.38133	422
2.38500	417
2.38867	412
2.39233	411
2.39600	410
2.39967	406
2.40333	402
2.40700	399
2.41067	397
2.41433	392
2.41800	388
2.42167	385
2.42533	384
2.42900	385
2.43267	386
2.43633	391
2.44000	398
2.44367	409
2.44733	414
2.45100	411
2.45467	402
2.45833	390
2.46200	378
2.46567	365
2.46933	357
2.47300	354
2.47667	354
2.48033	353
2.48400	351
2.48767	347
2.49133	345
2.49500	348
2.49867	349
2.50233	345
2.50600	336
2.50967	325
2.51333	316
2.51700	308
2.52067	304
2.52433	306
2.52800	310
2.53167	318
2.53533	323
2.53900	327
2.54267	334
2.54633	337
2.55000	335
2.55367	328
2.55733	317
2.56100	305
2.56467	294
2.56833	286
2.57200	279
2.57567	274
2.57933	271
2.58300	269
2.58667	269
2.59033	273
2.59400	278
2.59767	284
2.60133	289
2.60500	292
2.60867	293
2.61233	292
2.61600	291
2.61967	289
2.62333	285
2.62700	281
2.63067	276
2.63433	274
2.63800	276
2.64167	283
2.64533	288
2.64900	286
2.65267	283
2.65633	282
2.66000	282
2.66367	283
2.66733	287
2.67100	291
2.67467	293
2.67833	292
2.68200	289
2.68567	284
2.68933	280
2.69300	276
2.69667	272
2.70033	269
2.70400	267
2.70767	262
2.71133	254
2.71500	247
2.71867	246
2.72233	250
2.72600	258
2.72967	266
2.73333	269
2.73700	266
2.74067	262
2.74433	263
2.74800	266
2.75167	270
2.75533	272
2.75900	277
2.76267	281
2.76633	281
2.77000	278
2.77367	273
2.77733	269
2.78100	267
2.78467	266
2.78833	268
2.79200	270
2.79567	272
2.79933	268
2.80300	260
2.80667	253
2.81033	252
2.81400	254
2.81767	255
2.82133	252
2.82500	247
2.82867	241
2.83233	235
2.83600	231
2.83967	231
2.84333	234
2.84700	237
2.85067	242
2.85433	243
2.85800	244
2.86167	247
2.86533	253
2.86900	256
2.87267	258
2.87633	259
2.88000	263
2.88367	268
2.88733	271
2.89100	274
2.89467	280
2.89833	283
2.90200	282
2.90567	277
2.90933	271
2.91300	260
2.91667	249
2.92033	240
2.92400	234
2.92767	231
2.93133	233
2.93500	241
2.93867	249
2.94233	256
2.94600	260
2.94967	262
2.95333	261
2.95700	256
2.96067	251
2.96433	243
2.96800	236
2.97167	233
2.97533	233
2.97900	237
2.98267	242
2.98633	245
2.99000	247
2.99367	253
2.99733	257
3.00100	259
3.00467	259
3.00833	260
3.01200	262
3.01567	258
3.01933	249
3.02300	239
3.02667	233
3.03033	231
3.03400	229
3.03767	226
3.04133	223
3.04500	222
3.04867	224
3.05233	229
3.05600	231
3.05967	233
3.06333	233
3.06700	234
3.07067	235
3.07433	234
3.07800	233
3.08167	232
3.08533	233
3.08900	236
3.09267	239
3.09633	242
3.10000	244
3.10367	245
3.10733	246
3.11100	247
3.11467	246
3.11833	244
3.12200	238
3.12567	231
3.12933	224
3.13300	223
3.13667	229
3.14033	239
3.14400	243
3.14767	239
3.15133	232
3.15500	224
3.15867	220
3.16233	219
3.16600	218
3.16967	217
3.17333	217
3.17700	218
3.18067	224
3.18433	229
3.18800	230
3.19167	225
3.19533	216
3.19900	207
3.20267	200
3.20633	196
3.21000	197
3.21367	199
3.21733	198
3.22100	199
3.22467	198
3.22833	195
3.23200	191
3.23567	188
3.23933	190
3.24300	194
3.24667	199
3.25033	204
3.25400	211
3.25767	217
3.26133	221
3.26500	222
3.26867	219
3.27233	213
3.27600	208
3.27967	206
3.28333	203
3.28700	199
3.29067	194
3.29433	192
3.29800	191
3.30167	192
3.30533	197
3.30900	205
3.31267	212
3.31633	214
3.32000	207
3.32367	197
3.32733	190
3.33100	186
3.33467	186
3.33833	187
3.34200	189
3.34567	190
3.34933	192
3.35300	195
3.35667	199
3.36033	200
3.36400	202
3.36767	204
3.37133	205
3.37500	202
3.37867	198
3.38233	192
3.38600	188
3.38967	187
3.39333	185
3.39700	181
3.40067	177
3.40433	175
3.40800	174
3.41167	175
3.41533	174
3.41900	176
3.42267	174
3.42633	172
3.43000	173
3.43367	179
3.43733	185
3.44100	189
3.44467	186
3.44833	179
3.45200	174
3.45567	173
3.45933	171
3.46300	167
3.46667	163
3.47033	162
3.47400	164
3.47767	169
3.48133	176
3.48500	180
3.48867	182
3.49233	186
3.49600	191
3.49967	193
3.50333	189
3.50700	184
3.51067	178
3.51433	170
3.51800	159
3.52167	148
3.52533	144
3.52900	145
3.53267	146
3.53633	147
3.54000	151
3.54367	154
3.54733	157
3.55100	157
3.55467	157
3.55833	156
3.56200	153
3.56567	150
3.56933	150
3.57300	150
3.57667	149
3.58033	151
3.58400	152
3.58767	149
3.59133	143
3.59500	137
3.59867	133
3.60233	132
3.60600	137
3.60967	142
3.61333	143
3.61700	143
3.62067	144
3.62433	144
3.62800	147
3.63167	150
3.63533	150
3.63900	147
3.64267	143
3.64633	140
3.65000	137
3.65367	133
3.65733	125
3.66100	119
3.66467	118
3.66833	123
3.67200	129
3.67567	133
3.67933	137
3.68300	140
3.68667	143
3.69033	142
3.69400	141
3.69767	143
3.70133	145
3.70500	141
3.70867	133
3.71233	126
3.71600	122
3.71967	121
3.72333	124
3.72700	128
3.73067	133
3.73433	138
3.73800	140
3.74167	138
3.74533	134
3.74900	128
3.75267	123
3.75633	120
3.76000	118
3.76367	117
3.76733	115
3.77100	115
3.77467	116
3.77833	120
3.78200	121
3.78567	120
3.78933	120
3.79300	123
3.79667	130
3.80033	139
3.80400	143
3.80767	141
3.81133	137
3.81500	134
3.81867	133
3.82233	131
3.82600	129
3.82967	125
3.83333	118
3.83700	110
3.84067	101
3.84433	95
3.84800	92
3.85167	92
3.85533	97
3.85900	103
3.86267	106
3.86633	106
3.87000	106
3.87367	106
3.87733	105
3.88100	101
3.88467	94
3.88833	88
3.89200	87
3.89567	90
3.89933	92
3.90300	94
3.90667	94
3.91033	93
3.91400	93
3.91767	92
3.92133	91
3.92500	88
3.92867	83
3.93233	80
3.93600	78
3.93967	85
3.94333	100
3.94700	115
3.95067	124
3.95433	122
3.95800	112
3.96167	100
3.96533	89
3.96900	83
3.97267	82
3.97633	82
3.98000	88
3.98367	97
3.98733	105
3.99100	106
3.99467	100
3.99833	93

[Chromatogram (Ch2)]
Interval(msec)	220
# of Points	1091
Start Time(min)	0.002
End Time(min)	3.998
R.Time (min)	Intensity
0.00167	0
0.00533	0
0.00900	0
0.01267	0
0.01633	0
0.02000	1
0.02367	1
0.02733	1
0.03100	2
0.03467	2
0.03833	2
0.04200	2
0.04567	2
0.04933	2
0.05300	2
0.05667	2
0.06033	2
0.06400	2
0.06767	2
0.07133	2
0.07500	2
0.07867	2
0.08233	2
0.08600	2
0.08967	3
0.09333	3
0.09700	3
0.10067	4
0.10433	4
0.10800	4
0.11167	5
0.11533	5
0.11900	5
0.12267	5
0.12633	5
0.13000	5
0.13367	4
0.13733	4
0.14100	4
0.14467	4
0.14833	3
0.15200	3
0.15567	3
0.15933	2
0.16300	2
0.16667	1
0.17033	1
0.17400	0
0.17767	0
0.18133	-0
0.18500	-0
0.18867	-0
0.19233	-0
0.19600	-1
0.19967	-0
0.20333	-0
0.20700	-0
0.21067	-0
0.21433	-0
0.21800	0
0.22167	0
0.22533	0
0.22900	0
0.23267	0
0.23633	0
0.24000	0
0.24367	1
0.24733	1
0.25100	1
0.25467	0
0.25833	1
0.26200	1
0.26567	1
0.26933	2
0.27300	2
0.27667	3
0.28033	3
0.28400	3
0.28767	3
0.29133	3
0.29500	3
0.29867	4
0.30233	4
0.30600	4
0.30967	4
0.31333	4
0.31700	4
0.32067	4
0.32433	4
0.32800	4
0.33167	4
0.33533	4
0.33900	3
0.34267	3
0.34633	3
0.35000	2
0.35367	2
0.35733	2
0.36100	1
0.36467	1
0.36833	1
0.37200	1
0.37567	1
0.37933	0
0.38300	0
0.38667	0
0.39033	-0
0.39400	-0
0.39767	-0
0.40133	-0
0.40500	-0
0.40867	-0
0.41233	-0
0.41600	-1
0.41967	-1
0.42333	-1
0.42700	-2
0.43067	-2
0.43433	-2
0.43800	-2
0.44167	-2
0.44533	-2
0.44900	-2
0.45267	-2
0.45633	-2
0.46000	-2
0.46367	-2
0.46733	-2
0.47100	-2
0.47467	-1
0.47833	-1
0.48200	-1
0.48567	-0
0.48933	0
0.49300	0
0.49667	1
0.50033	1
0.50400	1
0.50767	1
0.51133	1
0.51500	2
0.51867	2
0.52233	2
0.52600	2
0.52967	2
0.53333	2
0.53700	3
0.54067	2
0.54433	2
0.54800	2
0.55167	1
0.55533	1
0.55900	1
0.56267	1
0.56633	1
0.57000	1
0.57367	1
0.57733	0
0.58100	-0
0.58467	-0
0.58833	0
0.59200	1
0.59567	1
0.59933	1
0.60300	1
0.60667	1
0.61033	1
0.61400	2
0.61767	2
0.62133	2
0.62500	2
0.62867	2
0.63233	3
0.63600	3
0.63967	3
0.64333	3
0.64700	3
0.65067	3
0.65433	3
0.65800	3
0.66167	3
0.66533	3
0.66900	4
0.67267	4
0.67633	4
0.68000	4
0.68367	4
0.68733	4
0.69100	4
0.69467	4
0.69833	4
0.70200	4
0.70567	4
0.70933	3
0.71300	3
0.71667	3
0.72033	2
0.72400	1
0.72767	1
0.73133	0
0.73500	-0
0.73867	-0
0.74233	-0
0.74600	-0
0.74967	-0
0.75333	-0
0.75700	-0
0.76067	-0
0.76433	-0
0.76800	-0
0.77167	-1
0.77533	-1
0.77900	-1
0.78267	-1
0.78633	-1
0.79000	-1
0.79367	-1
0.79733	-1
0.80100	-1
0.80467	-1
0.80833	-1
0.81200	-1
0.81567	-1
0.81933	-1
0.82300	-0
0.82667	0
0.83033	0
0.83400	1
0.83767	1
0.84133	1
0.84500	2
0.84867	2
0.85233	2
0.85600	2
0.85967	2
0.86333	2
0.86700	2
0.87067	2
0.87433	2
0.87800	2
0.88167	2
0.88533	2
0.88900	1
0.89267	1
0.89633	1
0.90000	1
0.90367	1
0.90733	0
0.91100	0
0.91467	-0
0.91833	-1
0.92200	-1
0.92567	-1
0.92933	-1
0.93300	-1
0.93667	-1
0.94033	-1
0.94400	-1
0.94767	-1
0.95133	-1
0.95500	-1
0.95867	-1
0.96233	-1
0.96600	-1
0.96967	-1
0.97333	-0
0.97700	-0
0.98067	0
0.98433	0
0.98800	0
0.99167	0
0.99533	0
0.99900	0
1.00267	0
1.00633	0
1.01000	0
1.01367	0
1.01733	0
1.02100	0
1.02467	0
1.02833	0
1.03200	0
1.03567	0
1.03933	0
1.04300	0
1.04667	0
1.05033	0
1.05400	0
1.05767	1
1.06133	1
1.06500	0
1.06867	0
1.07233	0
1.07600	0
1.07967	0
1.08333	1
1.08700	1
1.09067	1
1.09433	1
1.09800	1
1.10167	1
1.10533	0
1.10900	0
1.11267	-0
1.11633	-1
1.12000	-1
1.12367	-1
1.12733	-1
1.13100	-2
1.13467	-2
1.13833	-2
1.14200	-2
1.14567	-2
1.14933	-2
1.15300	-2
1.15667	-2
1.16033	-2
1.16400	-2
1.16767	-2
1.17133	-1
1.17500	-1
1.17867	-1
1.18233	-1
1.18600	-0
1.18967	0
1.19333	1
1.19700	1
1.20067	1
1.20433	1
1.20800	2
1.21167	2
1.21533	2
1.21900	2
1.22267	3
1.22633	3
1.23000	3
1.23367	3
1.23733	2
1.24100	2
1.24467	2
1.24833	1
1.25200	1
1.25567	1
1.25933	1
1.26300	0
1.26667	0
1.27033	-0
1.27400	-1
1.27767	-1
1.28133	-1
1.28500	-1
1.28867	-1
1.29233	-1
1.29600	-2
1.29967	-2
1.30333	-2
1.30700	-2
1.31067	-2
1.31433	-1
1.31800	-1
1.32167	-1
1.32533	-0
1.32900	-0
1.33267	-0
1.33633	0
1.34000	0
1.34367	0
1.34733	-0
1.35100	-1
1.35467	-1
1.35833	-1
1.36200	-1
1.36567	-1
1.36933	-1
1.37300	-1
1.37667	-1
1.38033	-1
1.38400	-1
1.38767	-1
1.39133	-1
1.39500	-1
1.39867	-0
1.40233	-0
1.40600	-0
1.40967	0
1.41333	0
1.41700	1
1.42067	1
1.42433	1
1.42800	1
1.43167	2
1.43533	2
1.43900	2
1.44267	2
1.44633	2
1.45000	2
1.45367	2
1.45733	2
1.46100	2
1.46467	1
1.46833	1
1.47200	1
1.47567	0
1.47933	0
1.48300	1
1.48667	1
1.49033	1
1.49400	1
1.49767	1
1.50133	1
1.50500	1
1.50867	1
1.51233	1
1.51600	2
1.51967	2
1.52333	2
1.52700	2
1.53067	2
1.53433	2
1.53800	2
1.54167	1
1.54533	1
1.54900	1
1.55267	1
1.55633	0
1.56000	-0
1.56367	-0
1.56733	-1
1.57100	-1
1.57467	-1
1.57833	-1
1.58200	-1
1.58567	-1
1.58933	-1
1.59300	-1
1.59667	-2
1.60033	-3
1.60400	-3
1.60767	-5
1.61133	-6
1.61500	-8
1.61867	-10
1.62233	-12
1.62600	-15
1.62967	-18
1.63333	-21
1.63700	-24
1.64067	-28
1.64433	-32
1.64800	-35
1.65167	-39
1.65533	-43
1.65900	-48
1.66267	-52
1.66633	-57
1.67000	-63
1.67367	-68
1.67733	-74
1.68100	-79
1.68467	-84
1.68833	-89
1.69200	-93
1.69567	-96
1.69933	-99
1.70300	-102
1.70667	-103
1.71033	-105
1.71400	-107
1.71767	-108
1.72133	-109
1.72500	-110
1.72867	-111
1.73233	-111
1.73600	-111
1.73967	-111
1.74333	-111
1.74700	-111
1.75067	-110
1.75433	-110
1.75800	-109
1.76167	-108
1.76533	-108
1.76900	-108
1.77267	-108
1.77633	-108
1.78000	-109
1.78367	-110
1.78733	-112
1.79100	-113
1.79467	-114
1.79833	-115
1.80200	-115
1.80567	-116
1.80933	-116
1.81300	-116
1.81667	-116
1.82033	-116
1.82400	-116
1.82767	-116
1.83133	-116
1.83500	-116
1.83867	-116
1.84233	-117
1.84600	-117
1.84967	-118
1.85333	-118
1.85700	-117
1.86067	-117
1.86433	-116
1.86800	-115
1.87167	-115
1.87533	-115
1.87900	-115
1.88267	-115
1.88633	-115
1.89000	-114
1.89367	-114
1.89733	-114
1.90100	-114
1.90467	-114
1.90833	-114
1.91200	-114
1.91567	-113
1.91933	-113
1.92300	-113
1.92667	-113
1.93033	-113
1.93400	-114
1.93767	-114
1.94133	-114
1.94500	-114
1.94867	-113
1.95233	-111
1.95600	-110
1.95967	-109
1.96333	-109
1.96700	-109
1.97067	-109
1.97433	-109
1.97800	-109
1.98167	-110
1.98533	-110
1.98900	-110
1.99267	-109
1.99633	-109
2.00000	-110
2.00367	-110
2.00733	-110
2.01100	-109
2.01467	-109
2.01833	-109
2.02200	-108
2.02567	-107
2.02933	-107
2.03300	-106
2.03667	-106
2.04033	-106
2.04400	-105
2.04767	-104
2.05133	-104
2.05500	-103
2.05867	-103
2.06233	-102
2.06600	-102
2.06967	-102
2.07333	-102
2.07700	-101
2.08067	-101
2.08433	-100
2.08800	-100
2.09167	-99
2.09533	-99
2.09900	-99
2.10267	-99
2.10633	-99
2.11000	-99
2.11367	-100
2.11733	-100
2.12100	-101
2.12467	-101
2.12833	-100
2.13200	-100
2.13567	-100
2.13933	-100
2.14300	-100
2.14667	-100
2.15033	-99
2.15400	-98
2.15767	-97
2.16133	-96
2.16500	-96
2.16867	-95
2.17233	-95
2.17600	-95
2.17967	-94
2.18333	-94
2.18700	-94
2.19067	-93
2.19433	-92
2.19800	-92
2.20167	-91
2.20533	-91
2.20900	-91
2.21267	-90
2.21633	-90
2.22000	-90
2.22367	-89
2.22733	-89
2.23100	-89
2.23467	-89
2.23833	-89
2.24200	-89
2.24567	-89
2.24933	-90
2.25300	-91
2.25667	-91
2.26033	-91
2.26400	-91
2.26767	-90
2.27133	-89
2.27500	-88
2.27867	-86
2.28233	-85
2.28600	-85
2.28967	-84
2.29333	-85
2.29700	-85
2.30067	-86
2.30433	-87
2.30800	-87
2.31167	-87
2.31533	-87
2.31900	-86
2.32267	-85
2.32633	-84
2.33000	-82
2.33367	-81
2.33733	-80
2.34100	-79
2.34467	-78
2.34833	-77
2.35200	-76
2.35567	-75
2.35933	-74
2.36300	-73
2.36667	-71
2.37033	-69
2.37400	-67
2.37767	-64
2.38133	-61
2.38500	-58
2.38867	-54
2.39233	-50
2.39600	-47
2.39967	-43
2.40333	-39
2.40700	-35
2.41067	-31
2.41433	-28
2.41800	-25
2.42167	-23
2.42533	-21
2.42900	-19
2.43267	-17
2.43633	-15
2.44000	-14
2.44367	-12
2.44733	-10
2.45100	-9
2.45467	-7
2.45833	-6
2.46200	-5
2.46567	-3
2.46933	-2
2.47300	-1
2.47667	1
2.48033	2
2.48400	4
2.48767	5
2.49133	6
2.49500	7
2.49867	8
2.50233	8
2.50600	9
2.50967	9
2.51333	9
2.51700	9
2.52067	9
2.52433	10
2.52800	10
2.53167	11
2.53533	12
2.53900	13
2.54267	14
2.54633	14
2.55000	15
2.55367	16
2.55733	16
2.56100	16
2.56467	16
2.56833	16
2.57200	16
2.57567	16
2.57933	16
2.58300	16
2.58667	16
2.59033	16
2.59400	16
2.59767	16
2.60133	16
2.60500	16
2.60867	16
2.61233	17
2.61600	17
2.61967	18
2.62333	18
2.62700	19
2.63067	19
2.63433	19
2.63800	20
2.64167	20
2.64533	20
2.64900	20
2.65267	20
2.65633	20
2.66000	21
2.66367	21
2.66733	21
2.67100	21
2.67467	22
2.67833	23
2.68200	23
2.68567	23
2.68933	23
2.69300	23
2.69667	23
2.70033	23
2.70400	23
2.70767	23
2.71133	24
2.71500	24
2.71867	24
2.72233	24
2.72600	25
2.72967	25
2.73333	26
2.73700	26
2.74067	27
2.74433	27
2.74800	28
2.75167	28
2.75533	29
2.75900	29
2.76267	29
2.76633	29
2.77000	29
2.77367	28
2.77733	27
2.78100	27
2.78467	26
2.78833	25
2.79200	25
2.79567	24
2.79933	24
2.80300	24
2.80667	24
2.81033	25
2.81400	25
2.81767	25
2.82133	26
2.82500	26
2.82867	26
2.83233	26
2.83600	26
2.83967	24
2.84333	21
2.84700	16
2.85067	9
2.85433	-2
2.85800	-17
2.86167	-35
2.86533	-58
2.86900	-84
2.87267	-115
2.87633	-150
2.88000	-189
2.88367	-231
2.88733	-276
2.89100	-323
2.89467	-373
2.89833	-424
2.90200	-477
2.90567	-530
2.90933	-583
2.91300	-636
2.91667	-689
2.92033	-741
2.92400	-792
2.92767	-843
2.93133	-895
2.93500	-953
2.93867	-1012
2.94233	-1063
2.94600	-1097
2.94967	-1105
2.95333	-1087
2.95700	-1047
2.96067	-988
2.96433	-917
2.96800	-839
2.97167	-758
2.97533	-677
2.97900	-600
2.98267	-528
2.98633	-461
2.99000	-401
2.99367	-346
2.99733	-298
3.00100	-255
3.00467	-218
3.00833	-185
3.01200	-157
3.01567	-132
3.01933	-111
3.02300	-92
3.02667	-77
3.03033	-63
3.03400	-52
3.03767	-42
3.04133	-33
3.04500	-26
3.04867	-19
3.05233	-14
3.05600	-9
3.05967	-5
3.06333	-2
3.06700	1
3.07067	4
3.07433	6
3.07800	8
3.08167	9
3.08533	11
3.08900	12
3.09267	13
3.09633	13
3.10000	14
3.10367	14
3.10733	14
3.11100	15
3.11467	15
3.11833	15
3.12200	16
3.12567	16
3.12933	16
3.13300	16
3.13667	16
3.14033	17
3.14400	17
3.14767	17
3.15133	17
3.15500	18
3.15867	18
3.16233	18
3.16600	18
3.16967	19
3.17333	19
3.17700	19
3.18067	20
3.18433	20
3.18800	20
3.19167	21
3.19533	21
3.19900	21
3.20267	21
3.20633	21
3.21000	21
3.21367	21
3.21733	22
3.22100	22
3.22467	22
3.22833	22
3.23200	23
3.23567	23
3.23933	24
3.24300	24
3.24667	24
3.25033	25
3.25400	25
3.25767	25
3.26133	26
3.26500	26
3.26867	26
3.27233	26
3.27600	26
3.27967	25
3.28333	25
3.28700	25
3.29067	25
3.29433	25
3.29800	25
3.30167	25
3.30533	25
3.30900	25
3.31267	25
3.31633	25
3.32000	25
3.32367	26
3.32733	26
3.33100	26
3.33467	26
3.33833	27
3.34200	27
3.34567	27
3.34933	27
3.35300	27
3.35667	27
3.36033	27
3.36400	27
3.36767	28
3.37133	28
3.37500	28
3.37867	28
3.38233	28
3.38600	28
3.38967	28
3.39333	29
3.39700	28
3.40067	28
3.40433	28
3.40800	29
3.41167	29
3.41533	29
3.41900	29
3.42267	29
3.42633	29
3.43000	30
3.43367	30
3.43733	30
3.44100	30
3.44467	30
3.44833	29
3.45200	29
3.45567	29
3.45933	29
3.46300	29
3.46667	29
3.47033	29
3.47400	29
3.47767	30
3.48133	30
3.48500	30
3.48867	30
3.49233	30
3.49600	30
3.49967	30
3.50333	30
3.50700	30
3.51067	30
3.51433	30
3.51800	30
3.52167	30
3.52533	30
3.52900	30
3.53267	30
3.53633	30
3.54000	30
3.54367	30
3.54733	30
3.55100	29
3.55467	29
3.55833	29
3.56200	29
3.56567	29
3.56933	29
3.57300	29
3.57667	28
3.58033	28
3.58400	29
3.58767	29
3.59133	29
3.59500	29
3.59867	28
3.60233	28
3.60600	28
3.60967	28
3.61333	29
3.61700	29
3.62067	29
3.62433	29
3.62800	29
3.63167	29
3.63533	29
3.63900	29
3.64267	29
3.64633	29
3.65000	29
3.65367	29
3.65733	29
3.66100	29
3.66467	28
3.66833	28
3.67200	28
3.67567	28
3.67933	28
3.68300	28
3.68667	28
3.69033	28
3.69400	28
3.69767	29
3.70133	29
3.70500	29
3.70867	29
3.71233	29
3.71600	29
3.71967	30
3.72333	30
3.72700	30
3.73067	30
3.73433	30
3.73800	29
3.74167	29
3.74533	29
3.74900	29
3.75267	29
3.75633	29
3.76000	29
3.76367	29
3.76733	29
3.77100	29
3.77467	29
3.77833	29
3.78200	30
3.78567	30
3.78933	29
3.79300	29
3.79667	29
3.80033	29
3.80400	29
3.80767	29
3.81133	29
3.81500	29
3.81867	29
3.82233	29
3.82600	29
3.82967	29
3.83333	29
3.83700	29
3.84067	29
3.84433	29
3.84800	29
3.85167	29
3.85533	29
3.85900	29
3.86267	29
3.86633	29
3.87000	29
3.87367	29
3.87733	28
3.88100	28
3.88467	28
3.88833	28
3.89200	28
3.89567	28
3.89933	27
3.90300	27
3.90667	27
3.91033	27
3.91400	27
3.91767	27
3.92133	27
3.92500	27
3.92867	27
3.93233	27
3.93600	27
3.93967	27
3.94333	27
3.94700	27
3.95067	26
3.95433	26
3.95800	26
3.96167	26
3.96533	26
3.96900	26
3.97267	25
3.97633	25
3.98000	25
3.98367	25
3.98733	26
3.99100	26
3.99467	26
3.99833	26

[Chromatogram (Ch3)]
Interval(msec)	220
# of Points	1091
Start Time(min)	0.002
End Time(min)	3.998
R.Time (min)	Intensity
0.00167	-1
0.00533	-2
0.00900	-2
0.01267	-2
0.01633	-1
0.02000	-2
0.02367	-1
0.02733	-0
0.03100	0
0.03467	1
0.03833	2
0.04200	1
0.04567	-0
0.04933	-3
0.05300	-3
0.05667	-3
0.06033	-4
0.06400	-4
0.06767	-3
0.07133	-2
0.07500	0
0.07867	-1
0.08233	-1
0.08600	-0
0.08967	-1
0.09333	-2
0.09700	0
0.10067	4
0.10433	5
0.10800	4
0.11167	3
0.11533	3
0.11900	3
0.12267	3
0.12633	1
0.13000	-3
0.13367	-6
0.13733	-6
0.14100	-8
0.14467	-6
0.14833	-3
0.15200	-2
0.15567	0
0.15933	-0
0.16300	-1
0.16667	-1
0.17033	2
0.17400	1
0.17767	1
0.18133	2
0.18500	2
0.18867	2
0.19233	1
0.19600	1
0.19967	0
0.20333	1
0.20700	1
0.21067	-1
0.21433	-1
0.21800	-1
0.22167	-4
0.22533	-6
0.22900	-7
0.23267	-5
0.23633	-6
0.24000	-5
0.24367	-5
0.24733	-7
0.25100	-7
0.25467	-8
0.25833	-7
0.26200	-6
0.26567	-4
0.26933	-3
0.27300	-3
0.27667	-3
0.28033	-4
0.28400	-3
0.28767	-3
0.29133	-1
0.29500	2
0.29867	2
0.30233	0
0.30600	1
0.30967	-2
0.31333	-4
0.31700	-4
0.32067	-4
0.32433	-2
0.32800	-2
0.33167	-3
0.33533	-3
0.33900	-3
0.34267	-3
0.34633	-3
0.35000	-2
0.35367	-2
0.35733	-2
0.36100	-1
0.36467	-1
0.36833	-0
0.37200	0
0.37567	-1
0.37933	-1
0.38300	-1
0.38667	0
0.39033	-0
0.39400	1
0.39767	2
0.40133	3
0.40500	1
0.40867	-0
0.41233	-2
0.41600	-3
0.41967	-2
0.42333	-3
0.42700	-2
0.43067	-2
0.43433	-1
0.43800	-1
0.44167	-1
0.44533	0
0.44900	1
0.45267	1
0.45633	-0
0.46000	-2
0.46367	-2
0.46733	1
0.47100	3
0.47467	3
0.47833	2
0.48200	-0
0.48567	-1
0.48933	-0
0.49300	1
0.49667	1
0.50033	-1
0.50400	-0
0.50767	0
0.51133	0
0.51500	2
0.51867	2
0.52233	3
0.52600	3
0.52967	1
0.53333	0
0.53700	-2
0.54067	-3
0.54433	-3
0.54800	-3
0.55167	-3
0.55533	-1
0.55900	-1
0.56267	-0
0.56633	-1
0.57000	0
0.57367	1
0.57733	2
0.58100	3
0.58467	4
0.58833	0
0.59200	-2
0.59567	-2
0.59933	-0
0.60300	1
0.60667	3
0.61033	5
0.61400	6
0.61767	6
0.62133	4
0.62500	4
0.62867	5
0.63233	5
0.63600	4
0.63967	5
0.64333	5
0.64700	5
0.65067	5
0.65433	5
0.65800	5
0.66167	6
0.66533	7
0.66900	7
0.67267	7
0.67633	6
0.68000	4
0.68367	3
0.68733	4
0.69100	4
0.69467	5
0.69833	6
0.70200	7
0.70567	7
0.70933	6
0.71300	7
0.71667	9
0.72033	11
0.72400	14
0.72767	17
0.73133	17
0.73500	13
0.73867	11
0.74233	11
0.74600	12
0.74967	11
0.75333	11
0.75700	10
0.76067	10
0.76433	10
0.76800	11
0.77167	12
0.77533	11
0.77900	10
0.78267	10
0.78633	11
0.79000	12
0.79367	13
0.79733	13
0.80100	13
0.80467	13
0.80833	12
0.81200	12
0.81567	12
0.81933	11
0.82300	13
0.82667	17
0.83033	17
0.83400	17
0.83767	15
0.84133	16
0.84500	18
0.84867	19
0.85233	17
0.85600	15
0.85967	13
0.86333	13
0.86700	12
0.87067	10
0.87433	12
0.87800	14
0.88167	15
0.88533	16
0.88900	19
0.89267	21
0.89633	22
0.90000	21
0.90367	20
0.90733	19
0.91100	18
0.91467	17
0.91833	17
0.92200	19
0.92567	21
0.92933	22
0.93300	22
0.93667	22
0.94033	21
0.94400	20
0.94767	21
0.95133	22
0.95500	23
0.95867	22
0.96233	22
0.96600	21
0.96967	21
0.97333	22
0.97700	21
0.98067	19
0.98433	19
0.98800	20
0.99167	17
0.99533	15
0.99900	16
1.00267	17
1.00633	19
1.01000	21
1.01367	21
1.01733	20
1.02100	18
1.02467	18
1.02833	19
1.03200	21
1.03567	25
1.03933	29
1.04300	30
1.04667	30
1.05033	28
1.05400	27
1.05767	24
1.06133	21
1.06500	22
1.06867	24
1.07233	23
1.07600	22
1.07967	21
1.08333	21
1.08700	21
1.09067	20
1.09433	22
1.09800	24
1.10167	25
1.10533	26
1.10900	27
1.11267	26
1.11633	26
1.12000	25
1.12367	26
1.12733	27
1.13100	27
1.13467	26
1.13833	25
1.14200	24
1.14567	23
1.14933	23
1.15300	25
1.15667	29
1.16033	32
1.16400	34
1.16767	35
1.17133	34
1.17500	33
1.17867	31
1.18233	29
1.18600	27
1.18967	25
1.19333	24
1.19700	23
1.20067	25
1.20433	27
1.20800	26
1.21167	24
1.21533	23
1.21900	23
1.22267	25
1.22633	26
1.23000	25
1.23367	25
1.23733	25
1.24100	27
1.24467	28
1.24833	29
1.25200	29
1.25567	31
1.25933	31
1.26300	30
1.26667	29
1.27033	31
1.27400	34
1.27767	35
1.28133	33
1.28500	32
1.28867	32
1.29233	33
1.29600	32
1.29967	30
1.30333	28
1.30700	26
1.31067	26
1.31433	27
1.31800	28
1.32167	31
1.32533	36
1.32900	38
1.33267	38
1.33633	38
1.34000	37
1.34367	35
1.34733	35
1.35100	34
1.35467	32
1.35833	29
1.36200	29
1.36567	31
1.36933	33
1.37300	35
1.37667	36
1.38033	36
1.38400	38
1.38767	39
1.39133	40
1.39500	43
1.39867	44
1.40233	41
1.40600	39
1.40967	37
1.41333	38
1.41700	39
1.42067	39
1.42433	37
1.42800	37
1.43167	36
1.43533	35
1.43900	35
1.44267	34
1.44633	35
1.45000	34
1.45367	36
1.45733	38
1.46100	38
1.46467	34
1.46833	33
1.47200	35
1.47567	36
1.47933	38
1.48300	42
1.48667	45
1.49033	45
1.49400	44
1.49767	45
1.50133	45
1.50500	44
1.50867	43
1.51233	42
1.51600	40
1.51967	37
1.52333	36
1.52700	36
1.53067	38
1.53433	42
1.53800	43
1.54167	45
1.54533	46
1.54900	45
1.55267	44
1.55633	43
1.56000	44
1.56367	46
1.56733	48
1.57100	45
1.57467	44
1.57833	44
1.58200	44
1.58567	42
1.58933	42
1.59300	45
1.59667	47
1.60033	48
1.60400	47
1.60767	46
1.61133	46
1.61500	44
1.61867	44
1.62233	45
1.62600	45
1.62967	46
1.63333	47
1.63700	48
1.64067	49
1.64433	51
1.64800	50
1.65167	49
1.65533	49
1.65900	48
1.66267	48
1.66633	51
1.67000	53
1.67367	54
1.67733	54
1.68100	55
1.68467	56
1.68833	58
1.69200	57
1.69567	56
1.69933	57
1.70300	57
1.70667	58
1.71033	60
1.71400	60
1.71767	58
1.72133	57
1.72500	59
1.72867	59
1.73233	59
1.73600	58
1.73967	60
1.74333	60
1.74700	60
1.75067	60
1.75433	62
1.75800	62
1.76167	60
1.76533	59
1.76900	60
1.77267	62
1.77633	64
1.78000	65
1.78367	64
1.78733	64
1.79100	64
1.79467	66
1.79833	66
1.80200	67
1.80567	69
1.80933	69
1.81300	68
1.81667	68
1.82033	69
1.82400	69
1.82767	69
1.83133	66
1.83500	65
1.83867	66
1.84233	68
1.84600	69
1.84967	72
1.85333	72
1.85700	71
1.86067	71
1.86433	70
1.86800	70
1.87167	73
1.87533	75
1.87900	76
1.88267	75
1.88633	74
1.89000	73
1.89367	75
1.89733	78
1.90100	82
1.90467	83
1.90833	81
1.91200	80
1.91567	80
1.91933	82
1.92300	85
1.92667	86
1.93033	87
1.93400	87
1.93767	88
1.94133	89
1.94500	90
1.94867	89
1.95233	87
1.95600	88
1.95967	91
1.96333	93
1.96700	94
1.97067	94
1.97433	94
1.97800	93
1.98167	93
1.98533	93
1.98900	92
1.99267	92
1.99633	94
2.00000	96
2.00367	97
2.00733	97
2.01100	98
2.01467	99
2.01833	100
2.02200	101
2.02567	103
2.02933	105
2.03300	107
2.03667	110
2.04033	110
2.04400	109
2.04767	106
2.05133	106
2.05500	105
2.05867	105
2.06233	107
2.06600	109
2.06967	109
2.07333	110
2.07700	110
2.08067	111
2.08433	111
2.08800	114
2.09167	119
2.09533	121
2.09900	122
2.10267	122
2.10633	122
2.11000	123
2.11367	123
2.11733	123
2.12100	122
2.12467	123
2.12833	126
2.13200	129
2.13567	131
2.13933	130
2.14300	129
2.14667	129
2.15033	130
2.15400	132
2.15767	134
2.16133	134
2.16500	134
2.16867	133
2.17233	132
2.17600	133
2.17967	136
2.18333	137
2.18700	137
2.19067	139
2.19433	140
2.19800	142
2.20167	143
2.20533	144
2.20900	146
2.21267	147
2.21633	151
2.22000	152
2.22367	152
2.22733	152
2.23100	153
2.23467	155
2.23833	158
2.24200	159
2.24567	161
2.24933	162
2.25300	164
2.25667	164
2.26033	163
2.26400	163
2.26767	164
2.27133	164
2.27500	167
2.27867	169
2.28233	174
2.28600	177
2.28967	179
2.29333	179
2.29700	179
2.30067	180
2.30433	181
2.30800	182
2.31167	182
2.31533	183
2.31900	182
2.32267	183
2.32633	184
2.33000	187
2.33367	191
2.33733	195
2.34100	199
2.34467	202
2.34833	203
2.35200	202
2.35567	200
2.35933	200
2.36300	200
2.36667	200
2.37033	202
2.37400	205
2.37767	206
2.38133	205
2.38500	205
2.38867	203
2.39233	203
2.39600	207
2.39967	213
2.40333	218
2.40700	222
2.41067	225
2.41433	225
2.41800	225
2.42167	225
2.42533	225
2.42900	226
2.43267	228
2.43633	232
2.44000	236
2.44367	261
2.44733	330
2.45100	404
2.45467	464
2.45833	504
2.46200	510
2.46567	492
2.46933	471
2.47300	455
2.47667	440
2.48033	430
2.48400	422
2.48767	411
2.49133	394
2.49500	374
2.49867	354
2.50233	339
2.50600	327
2.50967	319
2.51333	315
2.51700	311
2.52067	307
2.52433	305
2.52800	305
2.53167	307
2.53533	313
2.53900	322
2.54267	330
2.54633	336
2.55000	338
2.55367	335
2.55733	329
2.56100	324
2.56467	318
2.56833	309
2.57200	300
2.57567	294
2.57933	290
2.58300	286
2.58667	283
2.59033	280
2.59400	276
2.59767	271
2.60133	262
2.60500	249
2.60867	231
2.61233	212
2.61600	193
2.61967	175
2.62333	160
2.62700	146
2.63067	134
2.63433	125
2.63800	117
2.64167	113
2.64533	113
2.64900	118
2.65267	126
2.65633	137
2.66000	148
2.66367	157
2.66733	165
2.67100	175
2.67467	184
2.67833	192
2.68200	203
2.68567	212
2.68933	218
2.69300	222
2.69667	225
2.70033	229
2.70400	234
2.70767	237
2.71133	235
2.71500	232
2.71867	231
2.72233	231
2.72600	232
2.72967	233
2.73333	233
2.73700	231
2.74067	231
2.74433	232
2.74800	232
2.75167	231
2.75533	229
2.75900	228
2.76267	230
2.76633	231
2.77000	232
2.77367	232
2.77733	233
2.78100	234
2.78467	236
2.78833	237
2.79200	237
2.79567	238
2.79933	239
2.80300	238
2.80667	238
2.81033	237
2.81400	239
2.81767	246
2.82133	266
2.82500	309
2.82867	389
2.83233	527
2.83600	749
2.83967	1072
2.84333	1499
2.84700	2013
2.85067	2587
2.85433	3186
2.85800	3759
2.86167	4259
2.86533	4645
2.86900	4893
2.87267	4994
2.87633	4959
2.88000	4809
2.88367	4569
2.88733	4264
2.89100	3923
2.89467	3570
2.89833	3221
2.90200	2889
2.90567	2577
2.90933	2288
2.91300	2028
2.91667	1797
2.92033	1592
2.92400	1412
2.92767	1254
2.93133	1115
2.93500	995
2.93867	892
2.94233	802
2.94600	724
2.94967	659
2.95333	604
2.95700	557
2.96067	515
2.96433	476
2.96800	443
2.97167	415
2.97533	390
2.97900	370
2.98267	353
2.98633	338
2.99000	326
2.99367	316
2.99733	308
3.00100	301
3.00467	292
3.00833	283
3.01200	274
3.01567	265
3.01933	260
3.02300	256
3.02667	252
3.03033	249
3.03400	247
3.03767	247
3.04133	246
3.04500	239
3.04867	231
3.05233	225
3.05600	223
3.05967	224
3.06333	223
3.06700	220
3.07067	216
3.07433	211
3.07800	209
3.08167	208
3.08533	207
3.08900	206
3.09267	204
3.09633	204
3.10000	204
3.10367	204
3.10733	203
3.11100	202
3.11467	198
3.11833	194
3.12200	192
3.12567	191
3.12933	187
3.13300	184
3.13667	184
3.14033	184
3.14400	187
3.14767	187
3.15133	186
3.15500	186
3.15867	186
3.16233	183
3.16600	182
3.16967	183
3.17333	183
3.17700	183
3.18067	186
3.18433	187
3.18800	186
3.19167	184
3.19533	181
3.19900	180
3.20267	181
3.20633	182
3.21000	183
3.21367	182
3.21733	183
3.22100	182
3.22467	182
3.22833	181
3.23200	180
3.23567	181
3.23933	181
3.24300	179
3.24667	178
3.25033	180
3.25400	181
3.25767	181
3.26133	179
3.26500	181
3.26867	183
3.27233	185
3.27600	185
3.27967	186
3.28333	187
3.28700	186
3.29067	184
3.29433	182
3.29800	182
3.30167	181
3.30533	180
3.30900	179
3.31267	179
3.31633	181
3.32000	179
3.32367	177
3.32733	175
3.33100	174
3.33467	172
3.33833	170
3.34200	170
3.34567	169
3.34933	169
3.35300	171
3.35667	174
3.36033	175
3.36400	175
3.36767	175
3.37133	174
3.37500	174
3.37867	171
3.38233	167
3.38600	166
3.38967	165
3.39333	164
3.39700	163
3.40067	164
3.40433	164
3.40800	165
3.41167	167
3.41533	165
3.41900	164
3.42267	167
3.42633	167
3.43000	166
3.43367	167
3.43733	169
3.44100	168
3.44467	168
3.44833	168
3.45200	165
3.45567	161
3.45933	161
3.46300	165
3.46667	166
3.47033	167
3.47400	169
3.47767	170
3.48133	170
3.48500	169
3.48867	167
3.49233	164
3.49600	162
3.49967	161
3.50333	162
3.50700	160
3.51067	161
3.51433	164
3.51800	165
3.52167	164
3.52533	165
3.52900	167
3.53267	169
3.53633	169
3.54000	168
3.54367	167
3.54733	169
3.55100	170
3.55467	170
3.55833	170
3.56200	170
3.56567	170
3.56933	171
3.57300	171
3.57667	172
3.58033	173
3.58400	175
3.58767	177
3.59133	178
3.59500	178
3.59867	177
3.60233	175
3.60600	174
3.60967	173
3.61333	172
3.61700	172
3.62067	174
3.62433	177
3.62800	179
3.63167	180
3.63533	179
3.63900	176
3.64267	171
3.64633	162
3.65000	152
3.65367	142
3.65733	131
3.66100	122
3.66467	116
3.66833	115
3.67200	116
3.67567	125
3.67933	135
3.68300	146
3.68667	158
3.69033	168
3.69400	176
3.69767	184
3.70133	193
3.70500	203
3.70867	218
3.71233	235
3.71600	252
3.71967	268
3.72333	283
3.72700	298
3.73067	312
3.73433	326
3.73800	338
3.74167	349
3.74533	360
3.74900	371
3.75267	377
3.75633	384
3.76000	392
3.76367	398
3.76733	404
3.77100	408
3.77467	412
3.77833	415
3.78200	418
3.78567	420
3.78933	422
3.79300	422
3.79667	421
3.80033	421
3.80400	420
3.80767	420
3.81133	419
3.81500	420
3.81867	420
3.82233	422
3.82600	422
3.82967	423
3.83333	422
3.83700	422
3.84067	420
3.84433	418
3.84800	414
3.85167	412
3.85533	412
3.85900	414
3.86267	416
3.86633	416
3.87000	414
3.87367	413
3.87733	413
3.88100	411
3.88467	410
3.88833	407
3.89200	405
3.89567	405
3.89933	403
3.90300	401
3.90667	400
3.91033	399
3.91400	399
3.91767	400
3.92133	402
3.92500	403
3.92867	401
3.93233	402
3.93600	403
3.93967	400
3.94333	399
3.94700	397
3.95067	397
3.95433	398
3.95800	400
3.96167	401
3.96533	401
3.96900	399
3.97267	397
3.97633	397
3.98000	397
3.98367	398
3.98733	398
3.99100	401
3.99467	401
3.99833	398

[Status Trace (Column Oven Temperature)]
Interval(msec)	1000
# of Points	239
Start Time(min)	0.016
End Time(min)	3.982
Intensity Units	
Intensity Multiplier	1
R.Time (min)	Intensity
0.01578	35.07
0.03245	35.06
0.04912	35.05
0.06578	35.04
0.08245	35.04
0.09912	35.04
0.11578	35.03
0.13245	35.02
0.14912	35.03
0.16578	35.04
0.18245	35.05
0.19912	35.04
0.21578	35.04
0.23245	35.04
0.24912	35.04
0.26578	35.03
0.28245	35.02
0.29912	35.00
0.31578	34.99
0.33245	34.98
0.34912	34.98
0.36578	34.98
0.38245	35.00
0.39912	35.01
0.41578	35.02
0.43245	35.03
0.44912	35.03
0.46578	35.04
0.48245	35.05
0.49912	35.04
0.51578	35.03
0.53245	35.02
0.54912	35.02
0.56578	35.02
0.58245	35.02
0.59912	35.03
0.61578	35.01
0.63245	35.00
0.64912	34.99
0.66578	34.99
0.68245	34.98
0.69912	34.97
0.71578	34.97
0.73245	34.98
0.74912	34.99
0.76578	35.00
0.78245	35.01
0.79912	35.01
0.81578	35.01
0.83245	35.00
0.84912	35.00
0.86578	35.00
0.88245	34.99
0.89912	35.00
0.91578	35.00
0.93245	35.01
0.94912	35.02
0.96578	35.02
0.98245	35.01
0.99912	35.01
1.01578	35.00
1.03245	35.00
1.04912	34.99
1.06578	34.99
1.08245	34.98
1.09912	34.99
1.11578	35.01
1.13245	35.02
1.14912	35.03
1.16578	35.04
1.18245	35.03
1.19912	35.01
1.21578	34.99
1.23245	34.99
1.24912	34.99
1.26578	35.00
1.28245	35.01
1.29912	35.02
1.31578	35.02
1.33245	35.02
1.34912	35.02
1.36578	35.03
1.38245	35.03
1.39912	35.02
1.41578	35.01
1.43245	35.00
1.44912	34.99
1.46578	34.99
1.48245	34.98
1.49912	34.98
1.51578	34.96
1.53245	34.97
1.54912	34.97
1.56578	34.97
1.58245	34.97
1.59912	35.00
1.61578	35.09
1.63245	35.24
1.64912	35.47
1.66578	35.77
1.68245	36.14
1.69912	36.50
1.71578	36.86
1.73245	37.19
1.74912	37.50
1.76578	37.80
1.78245	38.14
1.79912	38.48
1.81578	38.80
1.83245	39.13
1.84912	39.47
1.86578	39.80
1.88245	40.12
1.89912	40.46
1.91578	40.78
1.93245	41.12
1.94912	41.43
1.96578	41.75
1.98245	42.08
1.99912	42.40
2.01578	42.73
2.03245	43.06
2.04912	43.38
2.06578	43.71
2.08245	44.01
2.09912	44.34
2.11578	44.67
2.13245	45.01
2.14912	45.34
2.16578	45.67
2.18245	46.00
2.19912	46.33
2.21578	46.66
2.23245	46.97
2.24912	47.34
2.26578	47.67
2.28245	47.97
2.29912	48.34
2.31578	48.68
2.33245	48.99
2.34912	49.29
2.36578	49.52
2.38245	49.63
2.39912	49.65
2.41578	49.65
2.43245	49.65
2.44912	49.68
2.46578	49.71
2.48245	49.71
2.49912	49.73
2.51578	49.76
2.53245	49.76
2.54912	49.78
2.56578	49.79
2.58245	49.81
2.59912	49.82
2.61578	49.82
2.63245	49.83
2.64912	49.85
2.66578	49.85
2.68245	49.85
2.69912	49.87
2.71578	49.87
2.73245	49.86
2.74912	49.84
2.76578	49.86
2.78245	49.89
2.79912	49.91
2.81578	49.92
2.83245	49.92
2.84912	49.92
2.86578	49.93
2.88245	49.93
2.89912	49.94
2.91578	49.94
2.93245	49.94
2.94912	49.93
2.96578	49.94
2.98245	49.96
2.99912	49.98
3.01578	49.99
3.03245	49.99
3.04912	49.99
3.06578	49.99
3.08245	49.99
3.09912	50.01
3.11578	50.02
3.13245	50.03
3.14912	50.05
3.16578	50.06
3.18245	50.07
3.19912	50.09
3.21578	50.09
3.23245	50.09
3.24912	50.09
3.26578	50.09
3.28245	50.09
3.29912	50.09
3.31578	50.10
3.33245	50.10
3.34912	50.10
3.36578	50.10
3.38245	50.11
3.39912	50.10
3.41578	50.09
3.43245	50.08
3.44912	50.07
3.46578	50.07
3.48245	50.06
3.49912	50.05
3.51578	50.04
3.53245	50.02
3.54912	50.02
3.56578	50.03
3.58245	50.03
3.59912	50.04
3.61578	50.05
3.63245	50.05
3.64912	50.06
3.66578	50.06
3.68245	50.06
3.69912	50.06
3.71578	50.05
3.73245	50.05
3.74912	50.04
3.76578	50.04
3.78245	50.03
3.79912	50.03
3.81578	50.03
3.83245	50.02
3.84912	50.03
3.86578	50.02
3.88245	50.02
3.89912	50.02
3.91578	50.03
3.93245	50.04
3.94912	50.05
3.96578	50.07
3.98245	50.07

[Status Trace (Injection Unit Temperature)]
Interval(msec)	1000
# of Points	239
Start Time(min)	0.016
End Time(min)	3.982
Intensity Units	
Intensity Multiplier	1
R.Time (min)	Intensity
0.01578	99.98
0.03245	99.98
0.04912	99.98
0.06578	99.98
0.08245	99.98
0.09912	99.98
0.11578	99.98
0.13245	99.98
0.14912	99.98
0.16578	99.98
0.18245	99.98
0.19912	99.98
0.21578	99.98
0.23245	99.98
0.24912	99.98
0.26578	99.98
0.28245	99.97
0.29912	99.98
0.31578	99.98
0.33245	99.98
0.34912	99.98
0.36578	99.98
0.38245	99.98
0.39912	99.98
0.41578	99.98
0.43245	99.98
0.44912	99.98
0.46578	99.98
0.48245	99.99
0.49912	99.98
0.51578	99.98
0.53245	99.99
0.54912	99.98
0.56578	99.98
0.58245	99.97
0.59912	99.99
0.61578	99.98
0.63245	99.99
0.64912	99.99
0.66578	99.98
0.68245	99.98
0.69912	99.98
0.71578	99.98
0.73245	99.98
0.74912	99.98
0.76578	99.98
0.78245	99.98
0.79912	99.98
0.81578	99.98
0.83245	99.98
0.84912	99.98
0.86578	99.98
0.88245	99.98
0.89912	99.98
0.91578	99.98
0.93245	99.98
0.94912	99.98
0.96578	99.98
0.98245	99.98
0.99912	99.98
1.01578	99.98
1.03245	99.98
1.04912	99.98
1.06578	99.98
1.08245	99.98
1.09912	99.98
1.11578	99.98
1.13245	99.98
1.14912	99.98
1.16578	99.98
1.18245	99.98
1.19912	99.98
1.21578	99.98
1.23245	99.98
1.24912	99.98
1.26578	99.98
1.28245	99.98
1.29912	99.98
1.31578	99.99
1.33245	99.99
1.34912	99.98
1.36578	99.98
1.38245	99.98
1.39912	99.98
1.41578	99.99
1.43245	99.99
1.44912	99.98
1.46578	99.98
1.48245	99.98
1.49912	99.98
1.51578	99.99
1.53245	99.98
1.54912	99.98
1.56578	99.98
1.58245	99.99
1.59912	99.98
1.61578	99.98
1.63245	99.99
1.64912	99.99
1.66578	99.98
1.68245	99.99
1.69912	99.98
1.71578	99.98
1.73245	99.98
1.74912	99.98
1.76578	99.98
1.78245	99.98
1.79912	99.98
1.81578	99.98
1.83245	99.98
1.84912	99.98
1.86578	99.98
1.88245	99.98
1.89912	99.98
1.91578	99.98
1.93245	99.98
1.94912	99.98
1.96578	99.98
1.98245	99.97
1.99912	99.98
2.01578	99.97
2.03245	99.97
2.04912	99.97
2.06578	99.97
2.08245	99.97
2.09912	99.97
2.11578	99.97
2.13245	99.97
2.14912	99.97
2.16578	99.97
2.18245	99.97
2.19912	99.97
2.21578	99.97
2.23245	99.96
2.24912	99.97
2.26578	99.97
2.28245	99.96
2.29912	99.96
2.31578	99.97
2.33245	99.96
2.34912	99.96
2.36578	99.96
2.38245	99.96
2.39912	99.96
2.41578	99.97
2.43245	99.96
2.44912	99.96
2.46578	99.97
2.48245	99.97
2.49912	99.97
2.51578	99.97
2.53245	99.96
2.54912	99.97
2.56578	99.97
2.58245	99.97
2.59912	99.97
2.61578	99.98
2.63245	99.97
2.64912	99.98
2.66578	99.98
2.68245	99.98
2.69912	99.98
2.71578	99.98
2.73245	99.99
2.74912	99.99
2.76578	99.99
2.78245	99.99
2.79912	99.99
2.81578	99.99
2.83245	100.00
2.84912	99.99
2.86578	100.00
2.88245	100.00
2.89912	100.00
2.91578	100.00
2.93245	100.01
2.94912	100.01
2.96578	100.00
2.98245	100.01
2.99912	100.01
3.01578	100.00
3.03245	100.01
3.04912	100.01
3.06578	100.01
3.08245	100.02
3.09912	100.01
3.11578	100.02
3.13245	100.02
3.14912	100.02
3.16578	100.02
3.18245	100.02
3.19912	100.02
3.21578	100.02
3.23245	100.03
3.24912	100.03
3.26578	100.03
3.28245	100.03
3.29912	100.03
3.31578	100.03
3.33245	100.03
3.34912	100.03
3.36578	100.03
3.38245	100.04
3.39912	100.04
3.41578	100.04
3.43245	100.04
3.44912	100.04
3.46578	100.04
3.48245	100.04
3.49912	100.04
3.51578	100.05
3.53245	100.04
3.54912	100.04
3.56578	100.05
3.58245	100.05
3.59912	100.04
3.61578	100.05
3.63245	100.04
3.64912	100.05
3.66578	100.05
3.68245	100.05
3.69912	100.05
3.71578	100.05
3.73245	100.04
3.74912	100.05
3.76578	100.05
3.78245	100.05
3.79912	100.05
3.81578	100.06
3.83245	100.05
3.84912	100.05
3.86578	100.05
3.88245	100.05
3.89912	100.05
3.91578	100.05
3.93245	100.05
3.94912	100.05
3.96578	100.05
3.98245	100.05

[Status Trace (Carrier Gas Pressure)]
Interval(msec)	1000
# of Points	239
Start Time(min)	0.016
End Time(min)	3.982
Intensity Units	
Intensity Multiplier	1
R.Time (min)	Intensity
0.01578	56.97
0.03245	55.88
0.04912	58.13
0.06578	59.89
0.08245	58.49
0.09912	57.97
0.11578	58.00
0.13245	58.01
0.14912	58.01
0.16578	58.00
0.18245	58.00
0.19912	58.00
0.21578	58.00
0.23245	58.00
0.24912	58.00
0.26578	58.00
0.28245	58.00
0.29912	58.00
0.31578	58.00
0.33245	58.00
0.34912	58.00
0.36578	58.00
0.38245	58.00
0.39912	58.00
0.41578	58.00
0.43245	58.00
0.44912	58.00
0.46578	58.00
0.48245	58.00
0.49912	58.00
0.51578	58.00
0.53245	58.00
0.54912	58.00
0.56578	58.00
0.58245	58.00
0.59912	58.00
0.61578	58.00
0.63245	58.00
0.64912	58.00
0.66578	58.00
0.68245	58.00
0.69912	58.00
0.71578	58.00
0.73245	58.00
0.74912	58.00
0.76578	58.00
0.78245	58.00
0.79912	58.00
0.81578	58.00
0.83245	58.00
0.84912	58.00
0.86578	58.00
0.88245	58.00
0.89912	58.00
0.91578	58.00
0.93245	58.00
0.94912	58.00
0.96578	58.00
0.98245	58.00
0.99912	58.00
1.01578	58.00
1.03245	58.00
1.04912	58.00
1.06578	58.00
1.08245	58.00
1.09912	58.00
1.11578	58.00
1.13245	58.00
1.14912	58.00
1.16578	58.00
1.18245	58.00
1.19912	58.00
1.21578	58.00
1.23245	58.00
1.24912	58.00
1.26578	58.00
1.28245	58.00
1.29912	58.00
1.31578	58.00
1.33245	58.00
1.34912	58.00
1.36578	58.00
1.38245	58.00
1.39912	58.00
1.41578	58.00
1.43245	58.00
1.44912	58.00
1.46578	58.00
1.48245	58.00
1.49912	58.00
1.51578	58.00
1.53245	58.00
1.54912	58.00
1.56578	58.00
1.58245	58.00
1.59912	58.00
1.61578	58.00
1.63245	58.00
1.64912	58.01
1.66578	58.01
1.68245	58.01
1.69912	58.00
1.71578	58.00
1.73245	58.00
1.74912	58.00
1.76578	58.00
1.78245	58.00
1.79912	58.00
1.81578	58.00
1.83245	58.00
1.84912	58.00
1.86578	58.00
1.88245	58.00
1.89912	58.00
1.91578	58.00
1.93245	58.00
1.94912	58.00
1.96578	58.00
1.98245	58.00
1.99912	58.00
2.01578	58.00
2.03245	58.00
2.04912	58.00
2.06578	58.00
2.08245	58.00
2.09912	58.00
2.11578	58.00
2.13245	58.00
2.14912	58.00
2.16578	58.00
2.18245	58.00
2.19912	58.00
2.21578	58.00
2.23245	58.00
2.24912	58.00
2.26578	58.00
2.28245	58.00
2.29912	58.00
2.31578	58.00
2.33245	58.00
2.34912	58.00
2.36578	58.00
2.38245	57.99
2.39912	57.99
2.41578	58.00
2.43245	58.00
2.44912	58.00
2.46578	58.00
2.48245	58.00
2.49912	58.00
2.51578	57.99
2.53245	57.99
2.54912	58.00
2.56578	58.00
2.58245	58.00
2.59912	58.00
2.61578	58.00
2.63245	58.00
2.64912	58.00
2.66578	58.00
2.68245	58.00
2.69912	58.00
2.71578	58.00
2.73245	58.00
2.74912	58.00
2.76578	58.00
2.78245	58.00
2.79912	58.00
2.81578	58.00
2.83245	58.00
2.84912	58.00
2.86578	58.00
2.88245	58.00
2.89912	58.00
2.91578	58.00
2.93245	58.00
2.94912	58.00
2.96578	58.00
2.98245	58.00
2.99912	58.00
3.01578	58.00
3.03245	58.00
3.04912	58.00
3.06578	58.00
3.08245	58.00
3.09912	58.00
3.11578	58.00
3.13245	58.00
3.14912	58.00
3.16578	58.00
3.18245	58.00
3.19912	58.00
3.21578	58.00
3.23245	58.00
3.24912	58.00
3.26578	58.00
3.28245	58.00
3.29912	58.00
3.31578	58.00
3.33245	58.00
3.34912	58.00
3.36578	58.00
3.38245	58.00
3.39912	58.00
3.41578	58.00
3.43245	58.00
3.44912	58.00
3.46578	58.00
3.48245	58.00
3.49912	58.00
3.51578	58.00
3.53245	58.00
3.54912	58.00
3.56578	58.00
3.58245	58.00
3.59912	58.00
3.61578	58.00
3.63245	58.00
3.64912	58.00
3.66578	58.00
3.68245	58.00
3.69912	58.00
3.71578	58.00
3.73245	58.00
3.74912	58.00
3.76578	58.00
3.78245	58.00
3.79912	58.00
3.81578	58.00
3.83245	58.00
3.84912	58.00
3.86578	58.00
3.88245	58.00
3.89912	58.00
3.91578	58.00
3.93245	58.00
3.94912	58.00
3.96578	58.00
3.98245	58.00

[Status Trace (Carrier Gas Flow)]
Interval(msec)	1000
# of Points	239
Start Time(min)	0.016
End Time(min)	3.982
Intensity Units	
Intensity Multiplier	1
R.Time (min)	Intensity
0.01578	33.85
0.03245	34.54
0.04912	34.54
0.06578	34.50
0.08245	34.50
0.09912	34.52
0.11578	34.51
0.13245	34.52
0.14912	34.52
0.16578	34.52
0.18245	34.52
0.19912	34.52
0.21578	34.52
0.23245	34.52
0.24912	34.52
0.26578	34.52
0.28245	34.52
0.29912	34.52
0.31578	34.51
0.33245	34.52
0.34912	34.52
0.36578	34.51
0.38245	34.51
0.39912	34.51
0.41578	34.52
0.43245	34.52
0.44912	34.52
0.46578	34.52
0.48245	34.52
0.49912	34.53
0.51578	34.52
0.53245	34.51
0.54912	34.52
0.56578	34.52
0.58245	34.52
0.59912	34.52
0.61578	34.52
0.63245	34.52
0.64912	34.52
0.66578	34.52
0.68245	34.52
0.69912	34.52
0.71578	34.52
0.73245	34.52
0.74912	34.52
0.76578	34.52
0.78245	34.52
0.79912	34.52
0.81578	34.52
0.83245	34.52
0.84912	34.52
0.86578	34.52
0.88245	34.52
0.89912	34.52
0.91578	34.52
0.93245	34.52
0.94912	34.52
0.96578	34.52
0.98245	34.52
0.99912	34.52
1.01578	34.52
1.03245	34.52
1.04912	34.52
1.06578	34.52
1.08245	34.52
1.09912	34.52
1.11578	34.52
1.13245	34.52
1.14912	34.52
1.16578	34.52
1.18245	34.52
1.19912	34.52
1.21578	34.52
1.23245	34.52
1.24912	34.52
1.26578	34.52
1.28245	34.52
1.29912	34.52
1.31578	34.52
1.33245	34.52
1.34912	34.52
1.36578	34.52
1.38245	34.52
1.39912	34.52
1.41578	34.52
1.43245	34.52
1.44912	34.52
1.46578	34.52
1.48245	34.52
1.49912	34.52
1.51578	34.52
1.53245	34.52
1.54912	34.52
1.56578	34.52
1.58245	34.52
1.59912	34.52
1.61578	34.52
1.63245	34.52
1.64912	34.52
1.66578	34.52
1.68245	34.52
1.69912	34.52
1.71578	34.52
1.73245	34.52
1.74912	34.52
1.76578	34.52
1.78245	34.52
1.79912	34.51
1.81578	34.53
1.83245	34.53
1.84912	34.52
1.86578	34.52
1.88245	34.51
1.89912	34.52
1.91578	34.52
1.93245	34.52
1.94912	34.51
1.96578	34.52
1.98245	34.52
1.99912	34.51
2.01578	34.52
2.03245	34.52
2.04912	34.52
2.06578	34.52
2.08245	34.52
2.09912	34.52
2.11578	34.52
2.13245	34.51
2.14912	34.52
2.16578	34.52
2.18245	34.52
2.19912	34.52
2.21578	34.52
2.23245	34.52
2.24912	34.52
2.26578	34.52
2.28245	34.52
2.29912	34.52
2.31578	34.52
2.33245	34.52
2.34912	34.52
2.36578	34.52
2.38245	34.52
2.39912	34.52
2.41578	34.52
2.43245	34.52
2.44912	34.52
2.46578	34.52
2.48245	34.52
2.49912	34.52
2.51578	34.52
2.53245	34.52
2.54912	34.52
2.56578	34.52
2.58245	34.52
2.59912	34.52
2.61578	34.52
2.63245	34.52
2.64912	34.51
2.66578	34.52
2.68245	34.52
2.69912	34.52
2.71578	34.52
2.73245	34.52
2.74912	34.52
2.76578	34.52
2.78245	34.52
2.79912	34.52
2.81578	34.52
2.83245	34.52
2.84912	34.52
2.86578	34.52
2.88245	34.52
2.89912	34.52
2.91578	34.52
2.93245	34.52
2.94912	34.52
2.96578	34.52
2.98245	34.52
2.99912	34.52
3.01578	34.52
3.03245	34.52
3.04912	34.52
3.06578	34.52
3.08245	34.52
3.09912	34.52
3.11578	34.52
3.13245	34.52
3.14912	34.52
3.16578	34.52
3.18245	34.52
3.19912	34.52
3.21578	34.52
3.23245	34.52
3.24912	34.52
3.26578	34.52
3.28245	34.52
3.29912	34.52
3.31578	34.52
3.33245	34.52
3.34912	34.52
3.36578	34.52
3.38245	34.52
3.39912	34.52
3.41578	34.52
3.43245	34.52
3.44912	34.52
3.46578	34.52
3.48245	34.52
3.49912	34.52
3.51578	34.52
3.53245	34.52
3.54912	34.52
3.56578	34.52
3.58245	34.52
3.59912	34.52
3.61578	34.52
3.63245	34.52
3.64912	34.52
3.66578	34.52
3.68245	34.52
3.69912	34.52
3.71578	34.52
3.73245	34.52
3.74912	34.52
3.76578	34.52
3.78245	34.52
3.79912	34.52
3.81578	34.52
3.83245	34.52
3.84912	34.52
3.86578	34.52
3.88245	34.52
3.89912	34.52
3.91578	34.52
3.93245	34.52
3.94912	34.52
3.96578	34.52
3.98245	34.52

[Status Trace (Column Flow)]
Interval(msec)	1000
# of Points	239
Start Time(min)	0.016
End Time(min)	3.982
Intensity Units	
Intensity Multiplier	1
R.Time (min)	Intensity
0.01578	5.45
0.03245	5.32
0.04912	5.59
0.06578	5.80
0.08245	5.63
0.09912	5.57
0.11578	5.57
0.13245	5.57
0.14912	5.57
0.16578	5.57
0.18245	5.57
0.19912	5.57
0.21578	5.57
0.23245	5.57
0.24912	5.57
0.26578	5.57
0.28245	5.57
0.29912	5.57
0.31578	5.57
0.33245	5.58
0.34912	5.58
0.36578	5.58
0.38245	5.57
0.39912	5.57
0.41578	5.57
0.43245	5.57
0.44912	5.57
0.46578	5.57
0.48245	5.57
0.49912	5.57
0.51578	5.57
0.53245	5.57
0.54912	5.57
0.56578	5.57
0.58245	5.57
0.59912	5.57
0.61578	5.57
0.63245	5.57
0.64912	5.57
0.66578	5.57
0.68245	5.58
0.69912	5.58
0.71578	5.58
0.73245	5.58
0.74912	5.57
0.76578	5.57
0.78245	5.57
0.79912	5.57
0.81578	5.57
0.83245	5.57
0.84912	5.57
0.86578	5.57
0.88245	5.57
0.89912	5.57
0.91578	5.57
0.93245	5.57
0.94912	5.57
0.96578	5.57
0.98245	5.57
0.99912	5.57
1.01578	5.57
1.03245	5.57
1.04912	5.57
1.06578	5.57
1.08245	5.57
1.09912	5.57
1.11578	5.57
1.13245	5.57
1.14912	5.57
1.16578	5.57
1.18245	5.57
1.19912	5.57
1.21578	5.57
1.23245	5.57
1.24912	5.57
1.26578	5.57
1.28245	5.57
1.29912	5.57
1.31578	5.57
1.33245	5.57
1.34912	5.57
1.36578	5.57
1.38245	5.57
1.39912	5.57
1.41578	5.57
1.43245	5.57
1.44912	5.57
1.46578	5.57
1.48245	5.57
1.49912	5.58
1.51578	5.58
1.53245	5.58
1.54912	5.58
1.56578	5.58
1.58245	5.58
1.59912	5.57
1.61578	5.57
1.63245	5.57
1.64912	5.56
1.66578	5.55
1.68245	5.54
1.69912	5.53
1.71578	5.52
1.73245	5.51
1.74912	5.50
1.76578	5.49
1.78245	5.48
1.79912	5.47
1.81578	5.45
1.83245	5.45
1.84912	5.44
1.86578	5.42
1.88245	5.41
1.89912	5.41
1.91578	5.40
1.93245	5.38
1.94912	5.38
1.96578	5.37
1.98245	5.36
1.99912	5.35
2.01578	5.34
2.03245	5.33
2.04912	5.32
2.06578	5.31
2.08245	5.30
2.09912	5.29
2.11578	5.28
2.13245	5.27
2.14912	5.26
2.16578	5.25
2.18245	5.24
2.19912	5.23
2.21578	5.22
2.23245	5.21
2.24912	5.20
2.26578	5.19
2.28245	5.18
2.29912	5.17
2.31578	5.16
2.33245	5.15
2.34912	5.15
2.36578	5.14
2.38245	5.14
2.39912	5.14
2.41578	5.14
2.43245	5.14
2.44912	5.14
2.46578	5.13
2.48245	5.13
2.49912	5.13
2.51578	5.13
2.53245	5.13
2.54912	5.13
2.56578	5.13
2.58245	5.13
2.59912	5.13
2.61578	5.13
2.63245	5.13
2.64912	5.13
2.66578	5.13
2.68245	5.13
2.69912	5.13
2.71578	5.13
2.73245	5.13
2.74912	5.13
2.76578	5.13
2.78245	5.13
2.79912	5.13
2.81578	5.13
2.83245	5.13
2.84912	5.13
2.86578	5.13
2.88245	5.13
2.89912	5.13
2.91578	5.13
2.93245	5.13
2.94912	5.13
2.96578	5.13
2.98245	5.13
2.99912	5.13
3.01578	5.13
3.03245	5.13
3.04912	5.13
3.06578	5.13
3.08245	5.13
3.09912	5.13
3.11578	5.13
3.13245	5.13
3.14912	5.13
3.16578	5.13
3.18245	5.12
3.19912	5.12
3.21578	5.12
3.23245	5.12
3.24912	5.12
3.26578	5.12
3.28245	5.12
3.29912	5.12
3.31578	5.12
3.33245	5.12
3.34912	5.12
3.36578	5.12
3.38245	5.12
3.39912	5.12
3.41578	5.12
3.43245	5.12
3.44912	5.13
3.46578	5.12
3.48245	5.13
3.49912	5.13
3.51578	5.13
3.53245	5.13
3.54912	5.13
3.56578	5.13
3.58245	5.13
3.59912	5.13
3.61578	5.13
3.63245	5.13
3.64912	5.13
3.66578	5.13
3.68245	5.13
3.69912	5.13
3.71578	5.13
3.73245	5.13
3.74912	5.13
3.76578	5.13
3.78245	5.13
3.79912	5.13
3.81578	5.13
3.83245	5.13
3.84912	5.13
3.86578	5.13
3.88245	5.13
3.89912	5.13
3.91578	5.13
3.93245	5.13
3.94912	5.13
3.96578	5.12
3.98245	5.12

[Status Trace (Linear Velocity)]
Interval(msec)	1000
# of Points	239
Start Time(min)	0.016
End Time(min)	3.982
Intensity Units	
Intensity Multiplier	1
R.Time (min)	Intensity
0.01578	38.35
0.03245	37.63
0.04912	39.11
0.06578	40.26
0.08245	39.34
0.09912	39.01
0.11578	39.03
0.13245	39.04
0.14912	39.03
0.16578	39.03
0.18245	39.03
0.19912	39.03
0.21578	39.03
0.23245	39.03
0.24912	39.03
0.26578	39.03
0.28245	39.03
0.29912	39.03
0.31578	39.03
0.33245	39.03
0.34912	39.03
0.36578	39.03
0.38245	39.03
0.39912	39.03
0.41578	39.03
0.43245	39.03
0.44912	39.03
0.46578	39.03
0.48245	39.02
0.49912	39.02
0.51578	39.03
0.53245	39.03
0.54912	39.03
0.56578	39.03
0.58245	39.03
0.59912	39.03
0.61578	39.03
0.63245	39.03
0.64912	39.03
0.66578	39.03
0.68245	39.03
0.69912	39.03
0.71578	39.03
0.73245	39.03
0.74912	39.03
0.76578	39.03
0.78245	39.03
0.79912	39.03
0.81578	39.03
0.83245	39.03
0.84912	39.03
0.86578	39.03
0.88245	39.03
0.89912	39.03
0.91578	39.03
0.93245	39.03
0.94912	39.03
0.96578	39.03
0.98245	39.03
0.99912	39.03
1.01578	39.03
1.03245	39.03
1.04912	39.03
1.06578	39.03
1.08245	39.03
1.09912	39.03
1.11578	39.03
1.13245	39.03
1.14912	39.03
1.16578	39.03
1.18245	39.03
1.19912	39.03
1.21578	39.03
1.23245	39.03
1.24912	39.03
1.26578	39.03
1.28245	39.03
1.29912	39.03
1.31578	39.03
1.33245	39.03
1.34912	39.03
1.36578	39.03
1.38245	39.03
1.39912	39.03
1.41578	39.03
1.43245	39.03
1.44912	39.03
1.46578	39.03
1.48245	39.03
1.49912	39.03
1.51578	39.03
1.53245	39.03
1.54912	39.03
1.56578	39.03
1.58245	39.03
1.59912	39.03
1.61578	39.02
1.63245	39.01
1.64912	38.99
1.66578	38.96
1.68245	38.92
1.69912	38.89
1.71578	38.85
1.73245	38.82
1.74912	38.79
1.76578	38.76
1.78245	38.73
1.79912	38.70
1.81578	38.67
1.83245	38.64
1.84912	38.61
1.86578	38.57
1.88245	38.54
1.89912	38.51
1.91578	38.48
1.93245	38.45
1.94912	38.42
1.96578	38.39
1.98245	38.36
1.99912	38.33
2.01578	38.30
2.03245	38.27
2.04912	38.24
2.06578	38.21
2.08245	38.18
2.09912	38.16
2.11578	38.12
2.13245	38.09
2.14912	38.06
2.16578	38.03
2.18245	38.00
2.19912	37.98
2.21578	37.94
2.23245	37.91
2.24912	37.89
2.26578	37.85
2.28245	37.82
2.29912	37.80
2.31578	37.76
2.33245	37.73
2.34912	37.71
2.36578	37.69
2.38245	37.67
2.39912	37.67
2.41578	37.67
2.43245	37.67
2.44912	37.67
2.46578	37.67
2.48245	37.67
2.49912	37.67
2.51578	37.66
2.53245	37.66
2.54912	37.66
2.56578	37.66
2.58245	37.66
2.59912	37.66
2.61578	37.66
2.63245	37.66
2.64912	37.66
2.66578	37.66
2.68245	37.66
2.69912	37.66
2.71578	37.66
2.73245	37.66
2.74912	37.66
2.76578	37.66
2.78245	37.65
2.79912	37.65
2.81578	37.65
2.83245	37.65
2.84912	37.65
2.86578	37.65
2.88245	37.65
2.89912	37.65
2.91578	37.65
2.93245	37.65
2.94912	37.65
2.96578	37.65
2.98245	37.65
2.99912	37.65
3.01578	37.65
3.03245	37.65
3.04912	37.64
3.06578	37.65
3.08245	37.65
3.09912	37.64
3.11578	37.64
3.13245	37.64
3.14912	37.64
3.16578	37.64
3.18245	37.64
3.19912	37.64
3.21578	37.64
3.23245	37.64
3.24912	37.64
3.26578	37.64
3.28245	37.64
3.29912	37.64
3.31578	37.64
3.33245	37.64
3.34912	37.64
3.36578	37.64
3.38245	37.63
3.39912	37.63
3.41578	37.64
3.43245	37.64
3.44912	37.64
3.46578	37.64
3.48245	37.64
3.49912	37.64
3.51578	37.64
3.53245	37.64
3.54912	37.64
3.56578	37.64
3.58245	37.64
3.59912	37.64
3.61578	37.64
3.63245	37.64
3.64912	37.64
3.66578	37.64
3.68245	37.64
3.69912	37.64
3.71578	37.64
3.73245	37.64
3.74912	37.64
3.76578	37.64
3.78245	37.64
3.79912	37.64
3.81578	37.64
3.83245	37.64
3.84912	37.64
3.86578	37.64
3.88245	37.64
3.89912	37.64
3.91578	37.64
3.93245	37.64
3.94912	37.64
3.96578	37.64
3.98245	37.64

