[Header]
Application Name	LabSolutions
Version	5.110
Data File Name	C:\Users\User\Desktop\GC Analyses\Jack\Nachusa Grasslands Sampling\T0 Timepoint July 12th\T0_07122022_074.gcd
Output Date	3/14/2023
Output Time	3:40:38 PM

[File Information]
Type	Data File
Generated	3/7/2023 10:02:09 PM
Generated by	System Administrator
Modified	3/7/2023 10:08:52 PM
Modified by	System Administrator

[Sample Information]
Operator Name	System Administrator
Acquired	3/7/2023 10:04:51 PM
Sample Type	0:Unknown
Level	0
Sample Name	074
Sample ID	074
ISTD Amount1	1
ISTD Amount2	1
ISTD Amount3	1
ISTD Amount4	1
ISTD Amount5	1
ISTD Amount6	1
ISTD Amount7	1
ISTD Amount8	1
ISTD Amount9	1
ISTD Amount10	1
ISTD Amount11	1
ISTD Amount12	1
ISTD Amount13	1
ISTD Amount14	1
ISTD Amount15	1
ISTD Amount16	1
ISTD Amount17	1
ISTD Amount18	1
ISTD Amount19	1
ISTD Amount20	1
ISTD Amount21	1
ISTD Amount22	1
ISTD Amount23	1
ISTD Amount24	1
ISTD Amount25	1
ISTD Amount26	1
ISTD Amount27	1
ISTD Amount28	1
ISTD Amount29	1
ISTD Amount30	1
ISTD Amount31	1
ISTD Amount32	1
Sample Amount	1
Dilution Factor	1
Vial#	73
Injection Volume	1
Injection Count	1
Bar Code	

[Original Files]
Data File	C:\Users\User\Desktop\GC Analyses\Jack\Nachusa Grasslands Sampling\T0 Timepoint July 12th\T0_07122022_074.gcd
Method File	C:\LabSolutions\Data\GHG_4min_2022\ghg3_togas_w_acet_4 min_new_int.gcm
Batch File	C:\LabSolutions\Data\AutoSamplerTesting\T0_07122022.gcb
Report Format File	c:\LabSolutions\System\DEFAULT.lsr

[File Description]


[Configuration]
Instrument Name	C0B7VH3-Instrument1
Instrument #	1
Line #	1
# of Detectors	3
Detector ID	DET#1	DET#2	DET#3
Detector Name	FID	PTCD	ECD
# of Channels	1	1	1

[Peak Table(Ch1)]
# of Peaks	3
Peak#	R.Time	I.Time	F.Time	Area	Height	A/H	Conc.	Mark	ID#	Name	k'	Plate #	Plate Ht.	Tailing	Resolution	Sep.Factor	Area Ratio	Height Ratio	Conc. %	Norm Conc.
1	1.476	1.439	1.538	31194	14776	2.111	220.230	   	1	CO	0.000	9415	15.932	1.322	0.000	0.000	0	0	36.535	36.535
2	1.567	1.538	1.626	5061	2507	2.018	97.855	 V 	2	CH4	0.062	10738	13.969	0.000	1.511	0.000	0	0	16.234	16.234
3	1.996	1.949	2.557	1134412	536098	2.116	284.707	   	3	CO2	0.353	17287	8.677	1.292	7.077	5.680	0	0	47.231	47.231

[Peak Table(Ch2)]
# of Peaks	0

[Peak Table(Ch3)]
# of Peaks	5
Peak#	R.Time	I.Time	F.Time	Area	Height	A/H	Conc.	Mark	ID#	Name	k'	Plate #	Plate Ht.	Tailing	Resolution	Sep.Factor	Area Ratio	Height Ratio	Conc. %	Norm Conc.
1	2.458	2.271	2.521	1930	440	4.387	0.000	   			0.000	8300	18.072	0.000	0.000	0.000	0	0	0.000	0.000
2	2.546	2.521	2.631	877	202	4.337	0.000	 V 			0.036	3053	49.139	0.000	0.602	0.000	0	0	0.000	0.000
3	2.704	2.642	2.748	581	122	4.745	0.000	   			0.100	1360	110.289	0.000	0.660	2.792	0	0	0.000	0.000
4	2.873	2.748	3.118	20721	4924	4.208	0.529	 V 	1	N2O	0.169	12897	11.631	1.770	0.855	1.687	0	0	100.000	100.000
5	3.254	3.126	3.995	15777	598	26.384	0.000	   	2	SF6	0.324	363	413.631	3.279	0.972	1.920	0	0	0.000	0.000

[Compound Results(Ch1)]
# of IDs	6
ID#	Name	R.Time	Area	Height	Conc.	Curve	3rd	2nd	1st	Constant	Area Ratio	Height Ratio	Conc. %	Norm Conc.
1	CO	1.476	31194	14776	220.230	Linear	0.000000e+00	0.000000e+00	1.416423e+002	0.000000e+00	0	0	36.535	36.535
2	CH4	1.567	5061	2507	97.855	Linear	0.000000e+00	0.000000e+00	5.171738e+001	0.000000e+00	0	0	16.234	16.234
3	CO2	1.996	1134412	536098	284.707	Linear	0.000000e+00	0.000000e+00	3.984494e+003	0.000000e+00	0	0	47.231	47.231
4	Ethylene	0.000	0	0	0.000	Linear	0.000000e+00	0.000000e+00	0.000000e+00	0.000000e+00	0	0	0.000	0.000
5	Acetylene	0.000	0	0	0.000	Linear	0.000000e+00	0.000000e+00	0.000000e+00	0.000000e+00	0	0	0.000	0.000
6	Ethane	0.000	0	0	0.000	Linear	0.000000e+00	0.000000e+00	0.000000e+00	0.000000e+00	0	0	0.000	0.000

[Compound Results(Ch2)]
# of IDs	5
ID#	Name	R.Time	Area	Height	Conc.	Curve	3rd	2nd	1st	Constant	Area Ratio	Height Ratio	Conc. %	Norm Conc.
1	Hydrogen	0.000	0	0	0.000	Linear	0.000000e+00	0.000000e+00	0.000000e+00	0.000000e+00	0	0	0.000	0.000
2	Oxygen	0.000	0	0	0.000	Linear	0.000000e+00	0.000000e+00	0.000000e+00	0.000000e+00	0	0	0.000	0.000
3	Nitrogen	0.000	0	0	0.000	Linear	0.000000e+00	0.000000e+00	0.000000e+00	0.000000e+00	0	0	0.000	0.000
4	Methane	0.000	0	0	0.000	Linear	0.000000e+00	0.000000e+00	0.000000e+00	0.000000e+00	0	0	0.000	0.000
5	Carbon Monoxide	0.000	0	0	0.000	Linear	0.000000e+00	0.000000e+00	0.000000e+00	0.000000e+00	0	0	0.000	0.000

[Compound Results(Ch3)]
# of IDs	2
ID#	Name	R.Time	Area	Height	Conc.	Curve	3rd	2nd	1st	Constant	Area Ratio	Height Ratio	Conc. %	Norm Conc.
1	N2O	2.873	20721	4924	0.529	Linear	0.000000e+00	0.000000e+00	3.915173e+004	0.000000e+00	0	0	100.000	100.000
2	SF6	3.254	15777	598	0.000	Linear	0.000000e+00	0.000000e+00	0.000000e+00	0.000000e+00	0	0	0.000	0.000

[Group Results(Ch1)]
# of Groups	0

[Group Results(Ch2)]
# of Groups	0

[Group Results(Ch3)]
# of Groups	0

[Chromatogram (Ch1)]
Interval(msec)	220
# of Points	1091
Start Time(min)	0.002
End Time(min)	3.998
R.Time (min)	Intensity
0.00167	-18
0.00533	-18
0.00900	-12
0.01267	-10
0.01633	-14
0.02000	-20
0.02367	-22
0.02733	-22
0.03100	-21
0.03467	-18
0.03833	-13
0.04200	-7
0.04567	-4
0.04933	-0
0.05300	3
0.05667	6
0.06033	7
0.06400	4
0.06767	-1
0.07133	-4
0.07500	-7
0.07867	-8
0.08233	-8
0.08600	-7
0.08967	-8
0.09333	-8
0.09700	-3
0.10067	5
0.10433	13
0.10800	19
0.11167	21
0.11533	16
0.11900	9
0.12267	6
0.12633	4
0.13000	5
0.13367	8
0.13733	9
0.14100	8
0.14467	6
0.14833	4
0.15200	2
0.15567	-0
0.15933	-0
0.16300	3
0.16667	9
0.17033	20
0.17400	36
0.17767	50
0.18133	57
0.18500	60
0.18867	55
0.19233	44
0.19600	33
0.19967	25
0.20333	24
0.20700	31
0.21067	39
0.21433	45
0.21800	47
0.22167	50
0.22533	55
0.22900	65
0.23267	75
0.23633	80
0.24000	78
0.24367	74
0.24733	72
0.25100	68
0.25467	59
0.25833	52
0.26200	49
0.26567	52
0.26933	59
0.27300	65
0.27667	66
0.28033	68
0.28400	74
0.28767	79
0.29133	82
0.29500	80
0.29867	75
0.30233	66
0.30600	53
0.30967	42
0.31333	32
0.31700	25
0.32067	20
0.32433	20
0.32800	21
0.33167	22
0.33533	21
0.33900	20
0.34267	19
0.34633	18
0.35000	18
0.35367	15
0.35733	14
0.36100	14
0.36467	17
0.36833	21
0.37200	24
0.37567	22
0.37933	16
0.38300	7
0.38667	0
0.39033	-1
0.39400	1
0.39767	4
0.40133	4
0.40500	1
0.40867	-2
0.41233	-6
0.41600	-9
0.41967	-9
0.42333	-7
0.42700	-7
0.43067	-7
0.43433	-4
0.43800	2
0.44167	8
0.44533	12
0.44900	14
0.45267	14
0.45633	12
0.46000	6
0.46367	1
0.46733	-2
0.47100	-1
0.47467	2
0.47833	8
0.48200	14
0.48567	19
0.48933	22
0.49300	21
0.49667	18
0.50033	14
0.50400	8
0.50767	5
0.51133	10
0.51500	15
0.51867	16
0.52233	14
0.52600	12
0.52967	9
0.53333	6
0.53700	5
0.54067	8
0.54433	13
0.54800	14
0.55167	11
0.55533	6
0.55900	3
0.56267	4
0.56633	6
0.57000	11
0.57367	16
0.57733	21
0.58100	25
0.58467	24
0.58833	19
0.59200	10
0.59567	5
0.59933	3
0.60300	5
0.60667	9
0.61033	11
0.61400	12
0.61767	11
0.62133	16
0.62500	23
0.62867	27
0.63233	23
0.63600	15
0.63967	8
0.64333	0
0.64700	-4
0.65067	-5
0.65433	-0
0.65800	6
0.66167	8
0.66533	5
0.66900	1
0.67267	-2
0.67633	-3
0.68000	-3
0.68367	-2
0.68733	3
0.69100	8
0.69467	10
0.69833	8
0.70200	7
0.70567	5
0.70933	5
0.71300	5
0.71667	5
0.72033	8
0.72400	10
0.72767	10
0.73133	11
0.73500	12
0.73867	11
0.74233	7
0.74600	4
0.74967	2
0.75333	3
0.75700	6
0.76067	12
0.76433	20
0.76800	28
0.77167	28
0.77533	22
0.77900	18
0.78267	16
0.78633	15
0.79000	15
0.79367	18
0.79733	23
0.80100	26
0.80467	27
0.80833	25
0.81200	19
0.81567	10
0.81933	1
0.82300	-8
0.82667	-17
0.83033	-23
0.83400	-21
0.83767	-8
0.84133	6
0.84500	13
0.84867	11
0.85233	5
0.85600	-4
0.85967	-8
0.86333	-6
0.86700	3
0.87067	13
0.87433	13
0.87800	9
0.88167	7
0.88533	5
0.88900	1
0.89267	-7
0.89633	-15
0.90000	-23
0.90367	-30
0.90733	-32
0.91100	-25
0.91467	-16
0.91833	-11
0.92200	-12
0.92567	-14
0.92933	-16
0.93300	-19
0.93667	-23
0.94033	-24
0.94400	-22
0.94767	-16
0.95133	-13
0.95500	-11
0.95867	-10
0.96233	-7
0.96600	-2
0.96967	4
0.97333	9
0.97700	16
0.98067	24
0.98433	28
0.98800	27
0.99167	18
0.99533	5
0.99900	-10
1.00267	-24
1.00633	-34
1.01000	-39
1.01367	-38
1.01733	-31
1.02100	-19
1.02467	-8
1.02833	-2
1.03200	1
1.03567	-0
1.03933	-5
1.04300	-7
1.04667	-7
1.05033	-4
1.05400	7
1.05767	25
1.06133	42
1.06500	52
1.06867	54
1.07233	49
1.07600	41
1.07967	32
1.08333	28
1.08700	26
1.09067	24
1.09433	19
1.09800	11
1.10167	7
1.10533	9
1.10900	15
1.11267	22
1.11633	24
1.12000	23
1.12367	21
1.12733	19
1.13100	19
1.13467	22
1.13833	28
1.14200	33
1.14567	36
1.14933	41
1.15300	47
1.15667	52
1.16033	51
1.16400	49
1.16767	48
1.17133	50
1.17500	54
1.17867	52
1.18233	45
1.18600	37
1.18967	32
1.19333	28
1.19700	26
1.20067	23
1.20433	18
1.20800	15
1.21167	17
1.21533	20
1.21900	24
1.22267	29
1.22633	31
1.23000	34
1.23367	40
1.23733	40
1.24100	37
1.24467	35
1.24833	35
1.25200	37
1.25567	38
1.25933	37
1.26300	34
1.26667	27
1.27033	23
1.27400	26
1.27767	30
1.28133	33
1.28500	36
1.28867	42
1.29233	48
1.29600	47
1.29967	41
1.30333	32
1.30700	29
1.31067	31
1.31433	39
1.31800	47
1.32167	51
1.32533	51
1.32900	48
1.33267	43
1.33633	37
1.34000	31
1.34367	23
1.34733	14
1.35100	9
1.35467	11
1.35833	15
1.36200	18
1.36567	18
1.36933	19
1.37300	22
1.37667	25
1.38033	28
1.38400	28
1.38767	25
1.39133	19
1.39500	13
1.39867	13
1.40233	20
1.40600	29
1.40967	32
1.41333	30
1.41700	24
1.42067	18
1.42433	10
1.42800	3
1.43167	-5
1.43533	-8
1.43900	13
1.44267	111
1.44633	364
1.45000	988
1.45367	2434
1.45733	4823
1.46100	7676
1.46467	10390
1.46833	12597
1.47200	14112
1.47567	14795
1.47933	14523
1.48300	13302
1.48667	11371
1.49033	9136
1.49400	6990
1.49767	5166
1.50133	3740
1.50500	2687
1.50867	1936
1.51233	1413
1.51600	1047
1.51967	791
1.52333	611
1.52700	484
1.53067	397
1.53433	338
1.53800	313
1.54167	353
1.54533	526
1.54900	862
1.55267	1303
1.55633	1749
1.56000	2131
1.56367	2407
1.56733	2544
1.57100	2511
1.57467	2293
1.57833	1931
1.58200	1511
1.58567	1115
1.58933	789
1.59300	544
1.59667	373
1.60033	258
1.60400	180
1.60767	127
1.61133	91
1.61500	69
1.61867	59
1.62233	52
1.62600	48
1.62967	47
1.63333	48
1.63700	47
1.64067	42
1.64433	31
1.64800	19
1.65167	9
1.65533	5
1.65900	4
1.66267	6
1.66633	10
1.67000	15
1.67367	18
1.67733	19
1.68100	20
1.68467	23
1.68833	24
1.69200	24
1.69567	24
1.69933	23
1.70300	19
1.70667	13
1.71033	8
1.71400	7
1.71767	9
1.72133	11
1.72500	15
1.72867	19
1.73233	24
1.73600	29
1.73967	32
1.74333	32
1.74700	29
1.75067	19
1.75433	7
1.75800	0
1.76167	3
1.76533	11
1.76900	18
1.77267	18
1.77633	14
1.78000	10
1.78367	6
1.78733	5
1.79100	6
1.79467	7
1.79833	10
1.80200	13
1.80567	15
1.80933	15
1.81300	14
1.81667	13
1.82033	13
1.82400	17
1.82767	26
1.83133	35
1.83500	40
1.83867	39
1.84233	31
1.84600	20
1.84967	8
1.85333	1
1.85700	-2
1.86067	1
1.86433	8
1.86800	16
1.87167	24
1.87533	31
1.87900	33
1.88267	30
1.88633	25
1.89000	21
1.89367	21
1.89733	22
1.90100	22
1.90467	23
1.90833	28
1.91200	32
1.91567	35
1.91933	39
1.92300	43
1.92667	47
1.93033	50
1.93400	53
1.93767	52
1.94133	47
1.94500	44
1.94867	46
1.95233	65
1.95600	182
1.95967	812
1.96333	3546
1.96700	12661
1.97067	36014
1.97433	82694
1.97800	156716
1.98167	251695
1.98533	352500
1.98900	441944
1.99267	506297
1.99633	536173
2.00000	527612
2.00367	483760
2.00733	414782
2.01100	334725
2.01467	256624
2.01833	189035
2.02200	135393
2.02567	95384
2.02933	66800
2.03300	46955
2.03667	33417
2.04033	24256
2.04400	18067
2.04767	13865
2.05133	10972
2.05500	8946
2.05867	7498
2.06233	6431
2.06600	5624
2.06967	4997
2.07333	4499
2.07700	4091
2.08067	3752
2.08433	3465
2.08800	3221
2.09167	3013
2.09533	2837
2.09900	2681
2.10267	2536
2.10633	2401
2.11000	2277
2.11367	2168
2.11733	2073
2.12100	1985
2.12467	1899
2.12833	1816
2.13200	1742
2.13567	1677
2.13933	1618
2.14300	1564
2.14667	1513
2.15033	1467
2.15400	1424
2.15767	1384
2.16133	1346
2.16500	1311
2.16867	1279
2.17233	1248
2.17600	1220
2.17967	1192
2.18333	1164
2.18700	1134
2.19067	1103
2.19433	1072
2.19800	1040
2.20167	1013
2.20533	991
2.20900	974
2.21267	958
2.21633	939
2.22000	920
2.22367	902
2.22733	884
2.23100	865
2.23467	847
2.23833	830
2.24200	814
2.24567	800
2.24933	790
2.25300	783
2.25667	776
2.26033	769
2.26400	760
2.26767	749
2.27133	736
2.27500	723
2.27867	711
2.28233	698
2.28600	687
2.28967	677
2.29333	669
2.29700	660
2.30067	651
2.30433	642
2.30800	636
2.31167	631
2.31533	626
2.31900	622
2.32267	620
2.32633	619
2.33000	615
2.33367	607
2.33733	596
2.34100	589
2.34467	587
2.34833	582
2.35200	573
2.35567	562
2.35933	550
2.36300	542
2.36667	539
2.37033	537
2.37400	536
2.37767	535
2.38133	532
2.38500	527
2.38867	523
2.39233	520
2.39600	522
2.39967	526
2.40333	530
2.40700	530
2.41067	524
2.41433	519
2.41800	517
2.42167	513
2.42533	504
2.42900	496
2.43267	490
2.43633	484
2.44000	481
2.44367	482
2.44733	480
2.45100	476
2.45467	474
2.45833	471
2.46200	468
2.46567	467
2.46933	464
2.47300	459
2.47667	455
2.48033	454
2.48400	456
2.48767	458
2.49133	457
2.49500	454
2.49867	447
2.50233	438
2.50600	431
2.50967	431
2.51333	436
2.51700	444
2.52067	452
2.52433	459
2.52800	458
2.53167	450
2.53533	441
2.53900	435
2.54267	432
2.54633	428
2.55000	421
2.55367	417
2.55733	413
2.56100	409
2.56467	407
2.56833	406
2.57200	405
2.57567	409
2.57933	414
2.58300	416
2.58667	415
2.59033	412
2.59400	410
2.59767	412
2.60133	414
2.60500	418
2.60867	422
2.61233	427
2.61600	431
2.61967	437
2.62333	444
2.62700	445
2.63067	440
2.63433	431
2.63800	421
2.64167	413
2.64533	407
2.64900	402
2.65267	397
2.65633	393
2.66000	391
2.66367	392
2.66733	394
2.67100	395
2.67467	396
2.67833	398
2.68200	400
2.68567	404
2.68933	409
2.69300	414
2.69667	419
2.70033	418
2.70400	411
2.70767	400
2.71133	390
2.71500	385
2.71867	385
2.72233	386
2.72600	386
2.72967	387
2.73333	389
2.73700	392
2.74067	395
2.74433	397
2.74800	396
2.75167	395
2.75533	398
2.75900	398
2.76267	397
2.76633	393
2.77000	390
2.77367	389
2.77733	383
2.78100	375
2.78467	373
2.78833	373
2.79200	376
2.79567	383
2.79933	392
2.80300	396
2.80667	395
2.81033	393
2.81400	391
2.81767	391
2.82133	389
2.82500	386
2.82867	385
2.83233	386
2.83600	389
2.83967	392
2.84333	395
2.84700	400
2.85067	403
2.85433	404
2.85800	402
2.86167	399
2.86533	397
2.86900	394
2.87267	393
2.87633	393
2.88000	394
2.88367	397
2.88733	400
2.89100	403
2.89467	404
2.89833	402
2.90200	401
2.90567	402
2.90933	405
2.91300	408
2.91667	407
2.92033	404
2.92400	401
2.92767	400
2.93133	405
2.93500	409
2.93867	408
2.94233	405
2.94600	404
2.94967	402
2.95333	398
2.95700	396
2.96067	394
2.96433	395
2.96800	397
2.97167	398
2.97533	398
2.97900	400
2.98267	401
2.98633	401
2.99000	400
2.99367	400
2.99733	399
3.00100	398
3.00467	397
3.00833	395
3.01200	393
3.01567	394
3.01933	397
3.02300	398
3.02667	394
3.03033	389
3.03400	383
3.03767	380
3.04133	384
3.04500	394
3.04867	400
3.05233	397
3.05600	391
3.05967	384
3.06333	379
3.06700	375
3.07067	376
3.07433	378
3.07800	381
3.08167	383
3.08533	384
3.08900	385
3.09267	386
3.09633	384
3.10000	381
3.10367	382
3.10733	384
3.11100	384
3.11467	382
3.11833	378
3.12200	375
3.12567	376
3.12933	379
3.13300	380
3.13667	381
3.14033	385
3.14400	389
3.14767	391
3.15133	390
3.15500	387
3.15867	386
3.16233	386
3.16600	385
3.16967	385
3.17333	384
3.17700	384
3.18067	386
3.18433	383
3.18800	377
3.19167	369
3.19533	362
3.19900	353
3.20267	348
3.20633	349
3.21000	349
3.21367	354
3.21733	361
3.22100	367
3.22467	373
3.22833	378
3.23200	379
3.23567	377
3.23933	373
3.24300	367
3.24667	358
3.25033	348
3.25400	341
3.25767	337
3.26133	339
3.26500	347
3.26867	354
3.27233	357
3.27600	355
3.27967	350
3.28333	344
3.28700	338
3.29067	336
3.29433	337
3.29800	337
3.30167	338
3.30533	340
3.30900	340
3.31267	339
3.31633	336
3.32000	334
3.32367	333
3.32733	334
3.33100	340
3.33467	347
3.33833	355
3.34200	361
3.34567	359
3.34933	354
3.35300	350
3.35667	348
3.36033	346
3.36400	346
3.36767	348
3.37133	353
3.37500	359
3.37867	364
3.38233	365
3.38600	363
3.38967	358
3.39333	349
3.39700	345
3.40067	345
3.40433	346
3.40800	346
3.41167	343
3.41533	338
3.41900	337
3.42267	339
3.42633	344
3.43000	348
3.43367	349
3.43733	346
3.44100	346
3.44467	348
3.44833	349
3.45200	345
3.45567	339
3.45933	334
3.46300	332
3.46667	329
3.47033	324
3.47400	317
3.47767	315
3.48133	318
3.48500	327
3.48867	339
3.49233	345
3.49600	345
3.49967	341
3.50333	334
3.50700	327
3.51067	321
3.51433	317
3.51800	315
3.52167	315
3.52533	315
3.52900	317
3.53267	322
3.53633	328
3.54000	329
3.54367	329
3.54733	329
3.55100	327
3.55467	327
3.55833	328
3.56200	328
3.56567	324
3.56933	318
3.57300	311
3.57667	305
3.58033	301
3.58400	299
3.58767	296
3.59133	297
3.59500	298
3.59867	295
3.60233	289
3.60600	282
3.60967	279
3.61333	282
3.61700	285
3.62067	287
3.62433	288
3.62800	290
3.63167	291
3.63533	293
3.63900	295
3.64267	295
3.64633	295
3.65000	297
3.65367	304
3.65733	311
3.66100	314
3.66467	310
3.66833	304
3.67200	297
3.67567	291
3.67933	288
3.68300	286
3.68667	285
3.69033	286
3.69400	288
3.69767	290
3.70133	296
3.70500	300
3.70867	298
3.71233	289
3.71600	281
3.71967	280
3.72333	282
3.72700	282
3.73067	279
3.73433	275
3.73800	270
3.74167	269
3.74533	270
3.74900	272
3.75267	273
3.75633	275
3.76000	277
3.76367	278
3.76733	278
3.77100	273
3.77467	268
3.77833	266
3.78200	269
3.78567	273
3.78933	274
3.79300	275
3.79667	275
3.80033	274
3.80400	275
3.80767	278
3.81133	280
3.81500	281
3.81867	281
3.82233	274
3.82600	267
3.82967	266
3.83333	266
3.83700	263
3.84067	259
3.84433	257
3.84800	256
3.85167	258
3.85533	264
3.85900	269
3.86267	271
3.86633	272
3.87000	270
3.87367	264
3.87733	254
3.88100	244
3.88467	238
3.88833	237
3.89200	240
3.89567	243
3.89933	243
3.90300	241
3.90667	234
3.91033	232
3.91400	235
3.91767	235
3.92133	232
3.92500	233
3.92867	234
3.93233	236
3.93600	239
3.93967	243
3.94333	248
3.94700	252
3.95067	251
3.95433	244
3.95800	235
3.96167	225
3.96533	219
3.96900	219
3.97267	228
3.97633	240
3.98000	252
3.98367	256
3.98733	252
3.99100	245
3.99467	239
3.99833	232

[Chromatogram (Ch2)]
Interval(msec)	220
# of Points	1091
Start Time(min)	0.002
End Time(min)	3.998
R.Time (min)	Intensity
0.00167	1
0.00533	1
0.00900	2
0.01267	2
0.01633	2
0.02000	2
0.02367	2
0.02733	2
0.03100	2
0.03467	2
0.03833	2
0.04200	2
0.04567	2
0.04933	2
0.05300	2
0.05667	2
0.06033	2
0.06400	1
0.06767	1
0.07133	1
0.07500	0
0.07867	-0
0.08233	-0
0.08600	-1
0.08967	-1
0.09333	-1
0.09700	-1
0.10067	-1
0.10433	-1
0.10800	-1
0.11167	-1
0.11533	-1
0.11900	-1
0.12267	-1
0.12633	-1
0.13000	-1
0.13367	-1
0.13733	-1
0.14100	-2
0.14467	-2
0.14833	-2
0.15200	-2
0.15567	-1
0.15933	-1
0.16300	-1
0.16667	-0
0.17033	0
0.17400	1
0.17767	1
0.18133	1
0.18500	1
0.18867	1
0.19233	1
0.19600	0
0.19967	0
0.20333	-0
0.20700	-0
0.21067	-1
0.21433	-1
0.21800	-1
0.22167	-1
0.22533	-2
0.22900	-2
0.23267	-2
0.23633	-2
0.24000	-2
0.24367	-3
0.24733	-3
0.25100	-2
0.25467	-2
0.25833	-2
0.26200	-2
0.26567	-1
0.26933	-1
0.27300	-1
0.27667	-1
0.28033	-0
0.28400	-0
0.28767	-0
0.29133	0
0.29500	0
0.29867	0
0.30233	1
0.30600	1
0.30967	1
0.31333	1
0.31700	1
0.32067	1
0.32433	1
0.32800	1
0.33167	1
0.33533	1
0.33900	1
0.34267	1
0.34633	1
0.35000	1
0.35367	0
0.35733	0
0.36100	-0
0.36467	-0
0.36833	-1
0.37200	-1
0.37567	-0
0.37933	-0
0.38300	-0
0.38667	-0
0.39033	-0
0.39400	-0
0.39767	0
0.40133	0
0.40500	0
0.40867	0
0.41233	0
0.41600	0
0.41967	1
0.42333	1
0.42700	1
0.43067	1
0.43433	1
0.43800	1
0.44167	1
0.44533	2
0.44900	2
0.45267	2
0.45633	2
0.46000	2
0.46367	2
0.46733	2
0.47100	2
0.47467	2
0.47833	1
0.48200	1
0.48567	1
0.48933	0
0.49300	-0
0.49667	-0
0.50033	-0
0.50400	-0
0.50767	0
0.51133	0
0.51500	0
0.51867	0
0.52233	0
0.52600	0
0.52967	0
0.53333	0
0.53700	1
0.54067	1
0.54433	1
0.54800	1
0.55167	1
0.55533	1
0.55900	1
0.56267	1
0.56633	0
0.57000	-0
0.57367	-1
0.57733	-1
0.58100	-1
0.58467	-1
0.58833	-1
0.59200	-1
0.59567	-1
0.59933	-1
0.60300	-1
0.60667	-1
0.61033	-2
0.61400	-2
0.61767	-2
0.62133	-2
0.62500	-2
0.62867	-2
0.63233	-3
0.63600	-3
0.63967	-3
0.64333	-2
0.64700	-2
0.65067	-1
0.65433	-1
0.65800	-0
0.66167	0
0.66533	0
0.66900	1
0.67267	1
0.67633	2
0.68000	2
0.68367	2
0.68733	2
0.69100	3
0.69467	3
0.69833	3
0.70200	3
0.70567	4
0.70933	4
0.71300	4
0.71667	4
0.72033	4
0.72400	4
0.72767	4
0.73133	4
0.73500	3
0.73867	3
0.74233	2
0.74600	2
0.74967	1
0.75333	1
0.75700	1
0.76067	0
0.76433	0
0.76800	-0
0.77167	-1
0.77533	-1
0.77900	-1
0.78267	-1
0.78633	-2
0.79000	-2
0.79367	-3
0.79733	-3
0.80100	-4
0.80467	-4
0.80833	-5
0.81200	-5
0.81567	-5
0.81933	-5
0.82300	-5
0.82667	-5
0.83033	-5
0.83400	-5
0.83767	-5
0.84133	-5
0.84500	-4
0.84867	-4
0.85233	-4
0.85600	-3
0.85967	-3
0.86333	-3
0.86700	-3
0.87067	-2
0.87433	-2
0.87800	-2
0.88167	-2
0.88533	-2
0.88900	-2
0.89267	-2
0.89633	-1
0.90000	-1
0.90367	-1
0.90733	-1
0.91100	-1
0.91467	-1
0.91833	-0
0.92200	-0
0.92567	-1
0.92933	-1
0.93300	-1
0.93667	-1
0.94033	-2
0.94400	-2
0.94767	-2
0.95133	-2
0.95500	-2
0.95867	-2
0.96233	-2
0.96600	-2
0.96967	-2
0.97333	-2
0.97700	-2
0.98067	-1
0.98433	-1
0.98800	-1
0.99167	-1
0.99533	-1
0.99900	-1
1.00267	-2
1.00633	-2
1.01000	-2
1.01367	-2
1.01733	-3
1.02100	-3
1.02467	-3
1.02833	-3
1.03200	-3
1.03567	-3
1.03933	-3
1.04300	-3
1.04667	-3
1.05033	-3
1.05400	-3
1.05767	-2
1.06133	-2
1.06500	-2
1.06867	-1
1.07233	-1
1.07600	-1
1.07967	-1
1.08333	-0
1.08700	0
1.09067	0
1.09433	1
1.09800	1
1.10167	1
1.10533	1
1.10900	1
1.11267	1
1.11633	1
1.12000	1
1.12367	1
1.12733	1
1.13100	1
1.13467	0
1.13833	0
1.14200	0
1.14567	-0
1.14933	-1
1.15300	-1
1.15667	-1
1.16033	-2
1.16400	-2
1.16767	-2
1.17133	-2
1.17500	-2
1.17867	-1
1.18233	-1
1.18600	-1
1.18967	-1
1.19333	-1
1.19700	-1
1.20067	-0
1.20433	-0
1.20800	-0
1.21167	-1
1.21533	-1
1.21900	-1
1.22267	-2
1.22633	-2
1.23000	-2
1.23367	-1
1.23733	-2
1.24100	-2
1.24467	-1
1.24833	-1
1.25200	-1
1.25567	-0
1.25933	0
1.26300	0
1.26667	0
1.27033	-0
1.27400	-0
1.27767	-0
1.28133	-1
1.28500	-1
1.28867	-1
1.29233	-1
1.29600	-2
1.29967	-2
1.30333	-2
1.30700	-2
1.31067	-2
1.31433	-2
1.31800	-2
1.32167	-1
1.32533	-1
1.32900	-1
1.33267	-2
1.33633	-2
1.34000	-2
1.34367	-3
1.34733	-3
1.35100	-3
1.35467	-3
1.35833	-3
1.36200	-3
1.36567	-3
1.36933	-3
1.37300	-3
1.37667	-3
1.38033	-3
1.38400	-3
1.38767	-3
1.39133	-3
1.39500	-3
1.39867	-3
1.40233	-3
1.40600	-3
1.40967	-2
1.41333	-2
1.41700	-2
1.42067	-2
1.42433	-2
1.42800	-2
1.43167	-1
1.43533	-1
1.43900	-1
1.44267	-1
1.44633	-0
1.45000	-0
1.45367	0
1.45733	0
1.46100	1
1.46467	1
1.46833	1
1.47200	1
1.47567	1
1.47933	1
1.48300	1
1.48667	0
1.49033	0
1.49400	-0
1.49767	-0
1.50133	-0
1.50500	-0
1.50867	-1
1.51233	-1
1.51600	-2
1.51967	-2
1.52333	-3
1.52700	-4
1.53067	-4
1.53433	-5
1.53800	-5
1.54167	-6
1.54533	-6
1.54900	-6
1.55267	-5
1.55633	-5
1.56000	-5
1.56367	-4
1.56733	-4
1.57100	-4
1.57467	-4
1.57833	-3
1.58200	-3
1.58567	-3
1.58933	-4
1.59300	-4
1.59667	-5
1.60033	-6
1.60400	-7
1.60767	-8
1.61133	-10
1.61500	-12
1.61867	-14
1.62233	-16
1.62600	-19
1.62967	-22
1.63333	-26
1.63700	-29
1.64067	-33
1.64433	-37
1.64800	-41
1.65167	-44
1.65533	-48
1.65900	-51
1.66267	-55
1.66633	-59
1.67000	-62
1.67367	-66
1.67733	-70
1.68100	-74
1.68467	-79
1.68833	-83
1.69200	-88
1.69567	-92
1.69933	-96
1.70300	-99
1.70667	-102
1.71033	-104
1.71400	-106
1.71767	-107
1.72133	-109
1.72500	-110
1.72867	-111
1.73233	-111
1.73600	-112
1.73967	-113
1.74333	-113
1.74700	-113
1.75067	-114
1.75433	-114
1.75800	-115
1.76167	-116
1.76533	-116
1.76900	-117
1.77267	-117
1.77633	-117
1.78000	-117
1.78367	-117
1.78733	-116
1.79100	-116
1.79467	-115
1.79833	-115
1.80200	-116
1.80567	-116
1.80933	-117
1.81300	-118
1.81667	-119
1.82033	-119
1.82400	-120
1.82767	-120
1.83133	-120
1.83500	-120
1.83867	-120
1.84233	-121
1.84600	-121
1.84967	-121
1.85333	-121
1.85700	-121
1.86067	-121
1.86433	-121
1.86800	-121
1.87167	-120
1.87533	-119
1.87900	-118
1.88267	-117
1.88633	-117
1.89000	-116
1.89367	-116
1.89733	-116
1.90100	-116
1.90467	-116
1.90833	-116
1.91200	-116
1.91567	-116
1.91933	-116
1.92300	-116
1.92667	-116
1.93033	-115
1.93400	-115
1.93767	-115
1.94133	-115
1.94500	-114
1.94867	-114
1.95233	-114
1.95600	-113
1.95967	-113
1.96333	-113
1.96700	-113
1.97067	-113
1.97433	-113
1.97800	-112
1.98167	-112
1.98533	-112
1.98900	-112
1.99267	-112
1.99633	-112
2.00000	-112
2.00367	-111
2.00733	-111
2.01100	-110
2.01467	-110
2.01833	-110
2.02200	-110
2.02567	-110
2.02933	-110
2.03300	-109
2.03667	-108
2.04033	-108
2.04400	-107
2.04767	-107
2.05133	-107
2.05500	-106
2.05867	-105
2.06233	-105
2.06600	-104
2.06967	-104
2.07333	-104
2.07700	-104
2.08067	-104
2.08433	-104
2.08800	-104
2.09167	-103
2.09533	-103
2.09900	-102
2.10267	-102
2.10633	-101
2.11000	-101
2.11367	-100
2.11733	-100
2.12100	-99
2.12467	-99
2.12833	-99
2.13200	-99
2.13567	-99
2.13933	-99
2.14300	-99
2.14667	-99
2.15033	-99
2.15400	-98
2.15767	-97
2.16133	-97
2.16500	-96
2.16867	-96
2.17233	-96
2.17600	-97
2.17967	-97
2.18333	-96
2.18700	-96
2.19067	-96
2.19433	-96
2.19800	-95
2.20167	-95
2.20533	-95
2.20900	-94
2.21267	-94
2.21633	-93
2.22000	-93
2.22367	-92
2.22733	-92
2.23100	-91
2.23467	-90
2.23833	-89
2.24200	-89
2.24567	-88
2.24933	-88
2.25300	-88
2.25667	-88
2.26033	-88
2.26400	-88
2.26767	-88
2.27133	-88
2.27500	-88
2.27867	-88
2.28233	-87
2.28600	-87
2.28967	-87
2.29333	-86
2.29700	-86
2.30067	-86
2.30433	-86
2.30800	-87
2.31167	-88
2.31533	-89
2.31900	-89
2.32267	-89
2.32633	-89
2.33000	-88
2.33367	-87
2.33733	-86
2.34100	-85
2.34467	-84
2.34833	-82
2.35200	-81
2.35567	-79
2.35933	-77
2.36300	-75
2.36667	-73
2.37033	-70
2.37400	-67
2.37767	-63
2.38133	-60
2.38500	-55
2.38867	-51
2.39233	-47
2.39600	-42
2.39967	-38
2.40333	-34
2.40700	-31
2.41067	-28
2.41433	-25
2.41800	-23
2.42167	-21
2.42533	-20
2.42900	-18
2.43267	-17
2.43633	-15
2.44000	-13
2.44367	-11
2.44733	-9
2.45100	-8
2.45467	-6
2.45833	-5
2.46200	-4
2.46567	-3
2.46933	-2
2.47300	-1
2.47667	0
2.48033	1
2.48400	3
2.48767	4
2.49133	5
2.49500	5
2.49867	6
2.50233	7
2.50600	7
2.50967	8
2.51333	8
2.51700	9
2.52067	10
2.52433	11
2.52800	12
2.53167	13
2.53533	13
2.53900	14
2.54267	15
2.54633	15
2.55000	16
2.55367	16
2.55733	16
2.56100	15
2.56467	15
2.56833	15
2.57200	14
2.57567	14
2.57933	14
2.58300	14
2.58667	14
2.59033	14
2.59400	15
2.59767	15
2.60133	14
2.60500	14
2.60867	14
2.61233	13
2.61600	13
2.61967	13
2.62333	13
2.62700	14
2.63067	14
2.63433	14
2.63800	15
2.64167	15
2.64533	16
2.64900	16
2.65267	17
2.65633	17
2.66000	17
2.66367	18
2.66733	18
2.67100	18
2.67467	18
2.67833	19
2.68200	19
2.68567	20
2.68933	20
2.69300	21
2.69667	21
2.70033	22
2.70400	22
2.70767	22
2.71133	23
2.71500	23
2.71867	23
2.72233	23
2.72600	23
2.72967	23
2.73333	23
2.73700	24
2.74067	24
2.74433	25
2.74800	25
2.75167	26
2.75533	26
2.75900	27
2.76267	27
2.76633	26
2.77000	26
2.77367	25
2.77733	25
2.78100	24
2.78467	24
2.78833	23
2.79200	23
2.79567	23
2.79933	22
2.80300	23
2.80667	23
2.81033	24
2.81400	24
2.81767	25
2.82133	25
2.82500	26
2.82867	26
2.83233	26
2.83600	26
2.83967	24
2.84333	21
2.84700	17
2.85067	9
2.85433	-1
2.85800	-15
2.86167	-33
2.86533	-55
2.86900	-81
2.87267	-111
2.87633	-146
2.88000	-184
2.88367	-226
2.88733	-271
2.89100	-318
2.89467	-368
2.89833	-420
2.90200	-473
2.90567	-527
2.90933	-581
2.91300	-635
2.91667	-689
2.92033	-743
2.92400	-795
2.92767	-846
2.93133	-900
2.93500	-958
2.93867	-1019
2.94233	-1071
2.94600	-1105
2.94967	-1114
2.95333	-1096
2.95700	-1055
2.96067	-996
2.96433	-924
2.96800	-846
2.97167	-764
2.97533	-684
2.97900	-606
2.98267	-533
2.98633	-466
2.99000	-406
2.99367	-351
2.99733	-302
3.00100	-259
3.00467	-222
3.00833	-189
3.01200	-161
3.01567	-136
3.01933	-115
3.02300	-97
3.02667	-81
3.03033	-67
3.03400	-56
3.03767	-46
3.04133	-37
3.04500	-30
3.04867	-24
3.05233	-19
3.05600	-14
3.05967	-10
3.06333	-7
3.06700	-4
3.07067	-2
3.07433	1
3.07800	2
3.08167	4
3.08533	6
3.08900	7
3.09267	9
3.09633	10
3.10000	11
3.10367	12
3.10733	12
3.11100	13
3.11467	14
3.11833	14
3.12200	15
3.12567	15
3.12933	15
3.13300	16
3.13667	16
3.14033	16
3.14400	17
3.14767	17
3.15133	17
3.15500	18
3.15867	18
3.16233	18
3.16600	19
3.16967	19
3.17333	19
3.17700	19
3.18067	19
3.18433	20
3.18800	20
3.19167	20
3.19533	21
3.19900	21
3.20267	21
3.20633	21
3.21000	21
3.21367	21
3.21733	21
3.22100	21
3.22467	21
3.22833	21
3.23200	21
3.23567	22
3.23933	22
3.24300	22
3.24667	22
3.25033	22
3.25400	22
3.25767	21
3.26133	21
3.26500	21
3.26867	21
3.27233	21
3.27600	21
3.27967	21
3.28333	20
3.28700	20
3.29067	20
3.29433	21
3.29800	21
3.30167	21
3.30533	21
3.30900	21
3.31267	21
3.31633	21
3.32000	22
3.32367	22
3.32733	22
3.33100	23
3.33467	24
3.33833	24
3.34200	24
3.34567	25
3.34933	25
3.35300	25
3.35667	25
3.36033	25
3.36400	26
3.36767	26
3.37133	26
3.37500	26
3.37867	26
3.38233	26
3.38600	26
3.38967	26
3.39333	27
3.39700	27
3.40067	26
3.40433	26
3.40800	26
3.41167	27
3.41533	27
3.41900	27
3.42267	27
3.42633	28
3.43000	28
3.43367	28
3.43733	28
3.44100	28
3.44467	28
3.44833	28
3.45200	28
3.45567	28
3.45933	28
3.46300	27
3.46667	27
3.47033	27
3.47400	27
3.47767	27
3.48133	27
3.48500	26
3.48867	26
3.49233	26
3.49600	26
3.49967	25
3.50333	25
3.50700	25
3.51067	25
3.51433	24
3.51800	24
3.52167	24
3.52533	24
3.52900	24
3.53267	25
3.53633	25
3.54000	25
3.54367	25
3.54733	25
3.55100	25
3.55467	25
3.55833	25
3.56200	25
3.56567	25
3.56933	26
3.57300	26
3.57667	26
3.58033	26
3.58400	27
3.58767	27
3.59133	27
3.59500	27
3.59867	27
3.60233	27
3.60600	26
3.60967	26
3.61333	26
3.61700	25
3.62067	25
3.62433	25
3.62800	24
3.63167	24
3.63533	24
3.63900	24
3.64267	25
3.64633	25
3.65000	25
3.65367	25
3.65733	24
3.66100	24
3.66467	24
3.66833	24
3.67200	25
3.67567	25
3.67933	25
3.68300	25
3.68667	25
3.69033	25
3.69400	25
3.69767	24
3.70133	24
3.70500	24
3.70867	25
3.71233	25
3.71600	25
3.71967	26
3.72333	26
3.72700	26
3.73067	26
3.73433	26
3.73800	26
3.74167	26
3.74533	26
3.74900	26
3.75267	26
3.75633	25
3.76000	25
3.76367	25
3.76733	25
3.77100	25
3.77467	24
3.77833	24
3.78200	24
3.78567	24
3.78933	24
3.79300	24
3.79667	23
3.80033	23
3.80400	23
3.80767	23
3.81133	23
3.81500	23
3.81867	24
3.82233	24
3.82600	24
3.82967	24
3.83333	25
3.83700	25
3.84067	25
3.84433	25
3.84800	25
3.85167	25
3.85533	25
3.85900	25
3.86267	25
3.86633	25
3.87000	25
3.87367	25
3.87733	26
3.88100	26
3.88467	26
3.88833	26
3.89200	26
3.89567	26
3.89933	26
3.90300	26
3.90667	26
3.91033	26
3.91400	26
3.91767	26
3.92133	25
3.92500	25
3.92867	25
3.93233	24
3.93600	24
3.93967	24
3.94333	24
3.94700	23
3.95067	23
3.95433	23
3.95800	23
3.96167	23
3.96533	23
3.96900	23
3.97267	23
3.97633	23
3.98000	24
3.98367	24
3.98733	24
3.99100	24
3.99467	24
3.99833	24

[Chromatogram (Ch3)]
Interval(msec)	220
# of Points	1091
Start Time(min)	0.002
End Time(min)	3.998
R.Time (min)	Intensity
0.00167	0
0.00533	2
0.00900	4
0.01267	5
0.01633	4
0.02000	2
0.02367	-2
0.02733	-3
0.03100	-3
0.03467	-2
0.03833	-0
0.04200	1
0.04567	1
0.04933	2
0.05300	3
0.05667	2
0.06033	2
0.06400	5
0.06767	4
0.07133	3
0.07500	2
0.07867	3
0.08233	4
0.08600	2
0.08967	1
0.09333	1
0.09700	1
0.10067	2
0.10433	4
0.10800	5
0.11167	3
0.11533	3
0.11900	5
0.12267	7
0.12633	6
0.13000	5
0.13367	7
0.13733	6
0.14100	5
0.14467	6
0.14833	6
0.15200	7
0.15567	6
0.15933	3
0.16300	3
0.16667	4
0.17033	5
0.17400	7
0.17767	8
0.18133	9
0.18500	8
0.18867	7
0.19233	8
0.19600	8
0.19967	7
0.20333	6
0.20700	5
0.21067	4
0.21433	5
0.21800	6
0.22167	6
0.22533	7
0.22900	8
0.23267	6
0.23633	5
0.24000	6
0.24367	5
0.24733	5
0.25100	7
0.25467	8
0.25833	11
0.26200	15
0.26567	16
0.26933	15
0.27300	15
0.27667	16
0.28033	15
0.28400	13
0.28767	12
0.29133	12
0.29500	10
0.29867	9
0.30233	9
0.30600	10
0.30967	7
0.31333	6
0.31700	8
0.32067	8
0.32433	9
0.32800	8
0.33167	9
0.33533	8
0.33900	7
0.34267	5
0.34633	6
0.35000	7
0.35367	7
0.35733	8
0.36100	10
0.36467	11
0.36833	11
0.37200	11
0.37567	11
0.37933	10
0.38300	10
0.38667	12
0.39033	13
0.39400	12
0.39767	11
0.40133	9
0.40500	10
0.40867	14
0.41233	16
0.41600	17
0.41967	18
0.42333	18
0.42700	17
0.43067	14
0.43433	13
0.43800	15
0.44167	17
0.44533	18
0.44900	19
0.45267	19
0.45633	17
0.46000	16
0.46367	15
0.46733	13
0.47100	13
0.47467	14
0.47833	14
0.48200	14
0.48567	14
0.48933	14
0.49300	13
0.49667	11
0.50033	11
0.50400	12
0.50767	13
0.51133	15
0.51500	15
0.51867	13
0.52233	14
0.52600	16
0.52967	14
0.53333	10
0.53700	11
0.54067	11
0.54433	10
0.54800	8
0.55167	7
0.55533	8
0.55900	12
0.56267	13
0.56633	14
0.57000	14
0.57367	16
0.57733	16
0.58100	15
0.58467	15
0.58833	16
0.59200	17
0.59567	17
0.59933	16
0.60300	17
0.60667	17
0.61033	17
0.61400	17
0.61767	17
0.62133	16
0.62500	14
0.62867	10
0.63233	9
0.63600	10
0.63967	12
0.64333	15
0.64700	18
0.65067	19
0.65433	20
0.65800	20
0.66167	18
0.66533	17
0.66900	15
0.67267	13
0.67633	14
0.68000	14
0.68367	15
0.68733	14
0.69100	14
0.69467	12
0.69833	13
0.70200	16
0.70567	17
0.70933	18
0.71300	19
0.71667	19
0.72033	19
0.72400	19
0.72767	19
0.73133	19
0.73500	18
0.73867	18
0.74233	18
0.74600	19
0.74967	20
0.75333	21
0.75700	20
0.76067	19
0.76433	20
0.76800	21
0.77167	22
0.77533	24
0.77900	23
0.78267	21
0.78633	19
0.79000	19
0.79367	20
0.79733	21
0.80100	22
0.80467	23
0.80833	23
0.81200	22
0.81567	19
0.81933	20
0.82300	20
0.82667	20
0.83033	19
0.83400	18
0.83767	18
0.84133	18
0.84500	18
0.84867	18
0.85233	17
0.85600	20
0.85967	21
0.86333	22
0.86700	22
0.87067	22
0.87433	24
0.87800	26
0.88167	24
0.88533	23
0.88900	22
0.89267	21
0.89633	21
0.90000	20
0.90367	20
0.90733	19
0.91100	17
0.91467	18
0.91833	18
0.92200	19
0.92567	19
0.92933	20
0.93300	22
0.93667	24
0.94033	24
0.94400	23
0.94767	22
0.95133	22
0.95500	24
0.95867	26
0.96233	25
0.96600	26
0.96967	26
0.97333	27
0.97700	27
0.98067	25
0.98433	23
0.98800	23
0.99167	24
0.99533	25
0.99900	25
1.00267	23
1.00633	24
1.01000	27
1.01367	29
1.01733	30
1.02100	28
1.02467	27
1.02833	26
1.03200	23
1.03567	21
1.03933	23
1.04300	27
1.04667	28
1.05033	29
1.05400	27
1.05767	24
1.06133	22
1.06500	24
1.06867	25
1.07233	25
1.07600	26
1.07967	26
1.08333	27
1.08700	29
1.09067	29
1.09433	29
1.09800	29
1.10167	28
1.10533	27
1.10900	27
1.11267	26
1.11633	25
1.12000	27
1.12367	30
1.12733	31
1.13100	32
1.13467	32
1.13833	31
1.14200	31
1.14567	31
1.14933	31
1.15300	32
1.15667	32
1.16033	31
1.16400	31
1.16767	31
1.17133	31
1.17500	33
1.17867	34
1.18233	34
1.18600	33
1.18967	30
1.19333	30
1.19700	32
1.20067	34
1.20433	35
1.20800	35
1.21167	36
1.21533	36
1.21900	37
1.22267	37
1.22633	37
1.23000	38
1.23367	39
1.23733	39
1.24100	40
1.24467	40
1.24833	40
1.25200	39
1.25567	36
1.25933	33
1.26300	32
1.26667	31
1.27033	34
1.27400	35
1.27767	35
1.28133	37
1.28500	39
1.28867	39
1.29233	36
1.29600	35
1.29967	35
1.30333	35
1.30700	34
1.31067	35
1.31433	36
1.31800	38
1.32167	39
1.32533	37
1.32900	37
1.33267	38
1.33633	38
1.34000	40
1.34367	42
1.34733	42
1.35100	42
1.35467	41
1.35833	39
1.36200	39
1.36567	39
1.36933	40
1.37300	41
1.37667	40
1.38033	38
1.38400	39
1.38767	40
1.39133	41
1.39500	44
1.39867	46
1.40233	46
1.40600	42
1.40967	41
1.41333	44
1.41700	47
1.42067	50
1.42433	50
1.42800	51
1.43167	52
1.43533	52
1.43900	51
1.44267	47
1.44633	45
1.45000	47
1.45367	50
1.45733	51
1.46100	50
1.46467	50
1.46833	51
1.47200	51
1.47567	52
1.47933	50
1.48300	46
1.48667	45
1.49033	44
1.49400	42
1.49767	42
1.50133	42
1.50500	44
1.50867	46
1.51233	47
1.51600	46
1.51967	46
1.52333	45
1.52700	44
1.53067	47
1.53433	49
1.53800	50
1.54167	51
1.54533	52
1.54900	51
1.55267	49
1.55633	48
1.56000	46
1.56367	45
1.56733	44
1.57100	44
1.57467	45
1.57833	47
1.58200	47
1.58567	47
1.58933	45
1.59300	44
1.59667	46
1.60033	49
1.60400	50
1.60767	51
1.61133	51
1.61500	48
1.61867	46
1.62233	45
1.62600	46
1.62967	47
1.63333	48
1.63700	48
1.64067	48
1.64433	47
1.64800	50
1.65167	53
1.65533	55
1.65900	55
1.66267	54
1.66633	52
1.67000	51
1.67367	49
1.67733	50
1.68100	52
1.68467	53
1.68833	53
1.69200	54
1.69567	53
1.69933	51
1.70300	48
1.70667	45
1.71033	45
1.71400	48
1.71767	51
1.72133	52
1.72500	53
1.72867	54
1.73233	54
1.73600	55
1.73967	56
1.74333	59
1.74700	60
1.75067	60
1.75433	60
1.75800	61
1.76167	61
1.76533	60
1.76900	58
1.77267	58
1.77633	59
1.78000	58
1.78367	58
1.78733	58
1.79100	59
1.79467	61
1.79833	62
1.80200	65
1.80567	69
1.80933	72
1.81300	72
1.81667	73
1.82033	73
1.82400	73
1.82767	74
1.83133	75
1.83500	75
1.83867	73
1.84233	70
1.84600	70
1.84967	68
1.85333	67
1.85700	69
1.86067	71
1.86433	74
1.86800	77
1.87167	79
1.87533	80
1.87900	79
1.88267	79
1.88633	81
1.89000	83
1.89367	84
1.89733	83
1.90100	83
1.90467	83
1.90833	84
1.91200	86
1.91567	87
1.91933	85
1.92300	84
1.92667	84
1.93033	85
1.93400	86
1.93767	87
1.94133	87
1.94500	88
1.94867	87
1.95233	85
1.95600	84
1.95967	85
1.96333	86
1.96700	88
1.97067	90
1.97433	92
1.97800	93
1.98167	93
1.98533	95
1.98900	97
1.99267	98
1.99633	97
2.00000	98
2.00367	99
2.00733	98
2.01100	99
2.01467	97
2.01833	99
2.02200	102
2.02567	103
2.02933	102
2.03300	104
2.03667	107
2.04033	108
2.04400	109
2.04767	109
2.05133	109
2.05500	109
2.05867	108
2.06233	107
2.06600	108
2.06967	110
2.07333	113
2.07700	114
2.08067	116
2.08433	116
2.08800	117
2.09167	118
2.09533	118
2.09900	118
2.10267	118
2.10633	118
2.11000	121
2.11367	124
2.11733	123
2.12100	125
2.12467	128
2.12833	129
2.13200	129
2.13567	130
2.13933	130
2.14300	129
2.14667	129
2.15033	128
2.15400	130
2.15767	132
2.16133	132
2.16500	133
2.16867	135
2.17233	137
2.17600	140
2.17967	143
2.18333	146
2.18700	148
2.19067	149
2.19433	150
2.19800	151
2.20167	153
2.20533	154
2.20900	153
2.21267	153
2.21633	153
2.22000	153
2.22367	156
2.22733	158
2.23100	161
2.23467	164
2.23833	166
2.24200	166
2.24567	166
2.24933	168
2.25300	171
2.25667	172
2.26033	172
2.26400	174
2.26767	175
2.27133	175
2.27500	176
2.27867	176
2.28233	176
2.28600	179
2.28967	182
2.29333	182
2.29700	181
2.30067	182
2.30433	185
2.30800	186
2.31167	187
2.31533	188
2.31900	191
2.32267	193
2.32633	193
2.33000	191
2.33367	192
2.33733	195
2.34100	197
2.34467	198
2.34833	201
2.35200	203
2.35567	206
2.35933	209
2.36300	210
2.36667	212
2.37033	214
2.37400	214
2.37767	213
2.38133	213
2.38500	213
2.38867	214
2.39233	217
2.39600	222
2.39967	224
2.40333	227
2.40700	227
2.41067	230
2.41433	233
2.41800	235
2.42167	236
2.42533	238
2.42900	240
2.43267	241
2.43633	242
2.44000	245
2.44367	274
2.44733	356
2.45100	446
2.45467	513
2.45833	552
2.46200	549
2.46567	518
2.46933	482
2.47300	450
2.47667	429
2.48033	413
2.48400	399
2.48767	384
2.49133	362
2.49500	335
2.49867	310
2.50233	288
2.50600	274
2.50967	265
2.51333	258
2.51700	253
2.52067	250
2.52433	250
2.52800	254
2.53167	259
2.53533	268
2.53900	277
2.54267	283
2.54633	285
2.55000	280
2.55367	272
2.55733	264
2.56100	253
2.56467	241
2.56833	230
2.57200	221
2.57567	215
2.57933	209
2.58300	204
2.58667	201
2.59033	199
2.59400	195
2.59767	188
2.60133	177
2.60500	164
2.60867	148
2.61233	130
2.61600	111
2.61967	93
2.62333	76
2.62700	62
2.63067	54
2.63433	49
2.63800	46
2.64167	48
2.64533	54
2.64900	61
2.65267	69
2.65633	78
2.66000	87
2.66367	95
2.66733	106
2.67100	118
2.67467	130
2.67833	140
2.68200	148
2.68567	154
2.68933	159
2.69300	160
2.69667	161
2.70033	162
2.70400	162
2.70767	161
2.71133	161
2.71500	161
2.71867	160
2.72233	159
2.72600	155
2.72967	152
2.73333	149
2.73700	146
2.74067	144
2.74433	144
2.74800	144
2.75167	144
2.75533	144
2.75900	143
2.76267	144
2.76633	149
2.77000	153
2.77367	154
2.77733	153
2.78100	152
2.78467	149
2.78833	148
2.79200	147
2.79567	147
2.79933	147
2.80300	149
2.80667	152
2.81033	153
2.81400	158
2.81767	167
2.82133	187
2.82500	229
2.82867	314
2.83233	464
2.83600	699
2.83967	1035
2.84333	1472
2.84700	1999
2.85067	2588
2.85433	3194
2.85800	3767
2.86167	4260
2.86533	4631
2.86900	4860
2.87267	4944
2.87633	4894
2.88000	4730
2.88367	4476
2.88733	4167
2.89100	3826
2.89467	3477
2.89833	3132
2.90200	2800
2.90567	2489
2.90933	2202
2.91300	1944
2.91667	1714
2.92033	1509
2.92400	1328
2.92767	1172
2.93133	1036
2.93500	919
2.93867	816
2.94233	727
2.94600	649
2.94967	581
2.95333	523
2.95700	475
2.96067	435
2.96433	401
2.96800	371
2.97167	344
2.97533	321
2.97900	299
2.98267	278
2.98633	261
2.99000	248
2.99367	236
2.99733	226
3.00100	217
3.00467	210
3.00833	203
3.01200	195
3.01567	191
3.01933	190
3.02300	187
3.02667	182
3.03033	180
3.03400	176
3.03767	171
3.04133	166
3.04500	159
3.04867	155
3.05233	151
3.05600	148
3.05967	146
3.06333	144
3.06700	141
3.07067	138
3.07433	133
3.07800	129
3.08167	127
3.08533	124
3.08900	122
3.09267	122
3.09633	122
3.10000	121
3.10367	119
3.10733	113
3.11100	83
3.11467	32
3.11833	-11
3.12200	-27
3.12567	-12
3.12933	30
3.13300	82
3.13667	136
3.14033	189
3.14400	239
3.14767	288
3.15133	333
3.15500	374
3.15867	410
3.16233	443
3.16600	471
3.16967	495
3.17333	515
3.17700	533
3.18067	549
3.18433	562
3.18800	572
3.19167	581
3.19533	589
3.19900	597
3.20267	605
3.20633	609
3.21000	612
3.21367	615
3.21733	620
3.22100	621
3.22467	624
3.22833	627
3.23200	631
3.23567	635
3.23933	638
3.24300	640
3.24667	642
3.25033	645
3.25400	647
3.25767	647
3.26133	647
3.26500	648
3.26867	650
3.27233	655
3.27600	657
3.27967	659
3.28333	659
3.28700	659
3.29067	661
3.29433	663
3.29800	663
3.30167	665
3.30533	666
3.30900	666
3.31267	665
3.31633	662
3.32000	658
3.32367	652
3.32733	648
3.33100	645
3.33467	641
3.33833	636
3.34200	633
3.34567	630
3.34933	628
3.35300	626
3.35667	622
3.36033	619
3.36400	616
3.36767	613
3.37133	611
3.37500	609
3.37867	605
3.38233	600
3.38600	595
3.38967	590
3.39333	587
3.39700	585
3.40067	584
3.40433	582
3.40800	580
3.41167	578
3.41533	577
3.41900	576
3.42267	574
3.42633	571
3.43000	567
3.43367	564
3.43733	562
3.44100	558
3.44467	556
3.44833	555
3.45200	552
3.45567	550
3.45933	549
3.46300	547
3.46667	544
3.47033	542
3.47400	541
3.47767	540
3.48133	539
3.48500	537
3.48867	537
3.49233	537
3.49600	537
3.49967	535
3.50333	532
3.50700	529
3.51067	527
3.51433	525
3.51800	521
3.52167	518
3.52533	515
3.52900	516
3.53267	515
3.53633	513
3.54000	513
3.54367	511
3.54733	507
3.55100	504
3.55467	501
3.55833	502
3.56200	503
3.56567	501
3.56933	499
3.57300	497
3.57667	493
3.58033	489
3.58400	486
3.58767	486
3.59133	486
3.59500	486
3.59867	487
3.60233	486
3.60600	485
3.60967	481
3.61333	475
3.61700	470
3.62067	470
3.62433	470
3.62800	470
3.63167	469
3.63533	467
3.63900	465
3.64267	464
3.64633	461
3.65000	457
3.65367	455
3.65733	455
3.66100	451
3.66467	448
3.66833	446
3.67200	443
3.67567	441
3.67933	443
3.68300	444
3.68667	443
3.69033	442
3.69400	441
3.69767	442
3.70133	441
3.70500	439
3.70867	438
3.71233	439
3.71600	438
3.71967	434
3.72333	430
3.72700	428
3.73067	429
3.73433	431
3.73800	432
3.74167	430
3.74533	429
3.74900	430
3.75267	432
3.75633	434
3.76000	434
3.76367	433
3.76733	432
3.77100	432
3.77467	432
3.77833	431
3.78200	430
3.78567	430
3.78933	430
3.79300	430
3.79667	431
3.80033	432
3.80400	430
3.80767	428
3.81133	429
3.81500	432
3.81867	432
3.82233	432
3.82600	430
3.82967	428
3.83333	428
3.83700	429
3.84067	429
3.84433	429
3.84800	429
3.85167	429
3.85533	427
3.85900	425
3.86267	423
3.86633	422
3.87000	423
3.87367	423
3.87733	420
3.88100	416
3.88467	416
3.88833	417
3.89200	417
3.89567	416
3.89933	415
3.90300	417
3.90667	416
3.91033	413
3.91400	413
3.91767	412
3.92133	414
3.92500	415
3.92867	415
3.93233	416
3.93600	418
3.93967	419
3.94333	417
3.94700	413
3.95067	411
3.95433	412
3.95800	411
3.96167	410
3.96533	407
3.96900	405
3.97267	405
3.97633	404
3.98000	403
3.98367	402
3.98733	403
3.99100	403
3.99467	402
3.99833	398

[Status Trace (Column Oven Temperature)]
Interval(msec)	1000
# of Points	240
Start Time(min)	0.012
End Time(min)	3.996
Intensity Units	
Intensity Multiplier	1
R.Time (min)	Intensity
0.01228	35.04
0.02895	35.03
0.04562	35.03
0.06228	35.04
0.07895	35.04
0.09562	35.05
0.11228	35.05
0.12895	35.05
0.14562	35.05
0.16228	35.05
0.17895	35.04
0.19562	35.05
0.21228	35.05
0.22895	35.06
0.24562	35.06
0.26228	35.05
0.27895	35.05
0.29562	35.03
0.31228	35.03
0.32895	35.03
0.34562	35.03
0.36228	35.03
0.37895	35.03
0.39562	35.03
0.41228	35.05
0.42895	35.04
0.44562	35.02
0.46228	35.02
0.47895	35.02
0.49562	35.02
0.51228	35.02
0.52895	35.01
0.54562	35.00
0.56228	35.00
0.57895	35.00
0.59562	35.01
0.61228	35.02
0.62895	35.03
0.64562	35.03
0.66228	35.01
0.67895	34.99
0.69562	34.97
0.71228	34.95
0.72895	34.94
0.74562	34.94
0.76228	34.95
0.77895	34.96
0.79562	34.98
0.81228	35.00
0.82895	35.01
0.84562	35.01
0.86228	35.02
0.87895	35.02
0.89562	35.02
0.91228	35.00
0.92895	35.00
0.94562	35.01
0.96228	35.01
0.97895	35.00
0.99562	35.01
1.01228	35.02
1.02895	35.03
1.04562	35.03
1.06228	35.02
1.07895	35.02
1.09562	35.00
1.11228	34.98
1.12895	34.98
1.14562	34.99
1.16228	34.99
1.17895	34.99
1.19562	34.98
1.21228	34.99
1.22895	34.99
1.24562	34.98
1.26228	34.98
1.27895	35.00
1.29562	35.02
1.31228	35.01
1.32895	35.01
1.34562	35.01
1.36228	35.01
1.37895	35.02
1.39562	35.02
1.41228	35.01
1.42895	35.00
1.44562	34.98
1.46228	34.98
1.47895	34.96
1.49562	34.96
1.51228	34.98
1.52895	34.99
1.54562	35.00
1.56228	35.00
1.57895	34.99
1.59562	35.03
1.61228	35.11
1.62895	35.26
1.64562	35.47
1.66228	35.72
1.67895	36.05
1.69562	36.41
1.71228	36.75
1.72895	37.10
1.74562	37.44
1.76228	37.78
1.77895	38.10
1.79562	38.43
1.81228	38.77
1.82895	39.10
1.84562	39.44
1.86228	39.77
1.87895	40.09
1.89562	40.42
1.91228	40.75
1.92895	41.07
1.94562	41.40
1.96228	41.73
1.97895	42.05
1.99562	42.37
2.01228	42.71
2.02895	43.04
2.04562	43.36
2.06228	43.66
2.07895	43.99
2.09562	44.32
2.11228	44.63
2.12895	44.98
2.14562	45.30
2.16228	45.62
2.17895	45.95
2.19562	46.28
2.21228	46.61
2.22895	46.92
2.24562	47.25
2.26228	47.59
2.27895	47.91
2.29562	48.24
2.31228	48.63
2.32895	48.95
2.34562	49.27
2.36228	49.51
2.37895	49.62
2.39562	49.63
2.41228	49.62
2.42895	49.63
2.44562	49.64
2.46228	49.66
2.47895	49.66
2.49562	49.69
2.51228	49.70
2.52895	49.71
2.54562	49.71
2.56228	49.74
2.57895	49.75
2.59562	49.76
2.61228	49.81
2.62895	49.82
2.64562	49.82
2.66228	49.83
2.67895	49.85
2.69562	49.85
2.71228	49.86
2.72895	49.85
2.74562	49.84
2.76228	49.84
2.77895	49.87
2.79562	49.88
2.81228	49.88
2.82895	49.87
2.84562	49.87
2.86228	49.87
2.87895	49.88
2.89562	49.91
2.91228	49.92
2.92895	49.93
2.94562	49.96
2.96228	49.97
2.97895	49.97
2.99562	49.98
3.01228	49.99
3.02895	50.00
3.04562	50.01
3.06228	50.02
3.07895	50.02
3.09562	50.02
3.11228	50.03
3.12895	50.04
3.14562	50.04
3.16228	50.04
3.17895	50.04
3.19562	50.04
3.21228	50.05
3.22895	50.05
3.24562	50.06
3.26228	50.07
3.27895	50.09
3.29562	50.11
3.31228	50.11
3.32895	50.10
3.34562	50.09
3.36228	50.09
3.37895	50.07
3.39562	50.07
3.41228	50.05
3.42895	50.03
3.44562	50.03
3.46228	50.03
3.47895	50.03
3.49562	50.03
3.51228	50.03
3.52895	50.04
3.54562	50.03
3.56228	50.03
3.57895	50.02
3.59562	50.02
3.61228	50.03
3.62895	50.05
3.64562	50.05
3.66228	50.06
3.67895	50.06
3.69562	50.07
3.71228	50.06
3.72895	50.05
3.74562	50.05
3.76228	50.05
3.77895	50.06
3.79562	50.07
3.81228	50.07
3.82895	50.06
3.84562	50.05
3.86228	50.05
3.87895	50.05
3.89562	50.04
3.91228	50.05
3.92895	50.06
3.94562	50.08
3.96228	50.08
3.97895	50.08
3.99562	50.08

[Status Trace (Injection Unit Temperature)]
Interval(msec)	1000
# of Points	240
Start Time(min)	0.012
End Time(min)	3.996
Intensity Units	
Intensity Multiplier	1
R.Time (min)	Intensity
0.01228	99.98
0.02895	99.98
0.04562	99.98
0.06228	99.98
0.07895	99.98
0.09562	99.99
0.11228	99.98
0.12895	99.98
0.14562	99.99
0.16228	99.99
0.17895	99.98
0.19562	99.99
0.21228	99.99
0.22895	99.99
0.24562	99.98
0.26228	99.99
0.27895	99.99
0.29562	99.98
0.31228	99.99
0.32895	99.99
0.34562	99.99
0.36228	99.99
0.37895	99.99
0.39562	99.98
0.41228	99.99
0.42895	99.99
0.44562	99.98
0.46228	99.99
0.47895	99.99
0.49562	99.99
0.51228	99.98
0.52895	99.98
0.54562	99.99
0.56228	99.99
0.57895	99.98
0.59562	99.98
0.61228	99.98
0.62895	99.98
0.64562	99.98
0.66228	99.98
0.67895	99.98
0.69562	99.98
0.71228	99.98
0.72895	99.98
0.74562	99.98
0.76228	99.98
0.77895	99.98
0.79562	99.97
0.81228	99.98
0.82895	99.98
0.84562	99.98
0.86228	99.98
0.87895	99.98
0.89562	99.98
0.91228	99.98
0.92895	99.98
0.94562	99.98
0.96228	99.98
0.97895	99.98
0.99562	99.98
1.01228	99.98
1.02895	99.98
1.04562	99.98
1.06228	99.98
1.07895	99.98
1.09562	99.98
1.11228	99.98
1.12895	99.98
1.14562	99.99
1.16228	99.98
1.17895	99.98
1.19562	99.98
1.21228	99.98
1.22895	99.98
1.24562	99.98
1.26228	99.98
1.27895	99.98
1.29562	99.98
1.31228	99.98
1.32895	99.98
1.34562	99.98
1.36228	99.98
1.37895	99.98
1.39562	99.99
1.41228	99.98
1.42895	99.98
1.44562	99.98
1.46228	99.99
1.47895	99.98
1.49562	99.99
1.51228	99.99
1.52895	99.98
1.54562	99.98
1.56228	99.98
1.57895	99.99
1.59562	99.99
1.61228	99.99
1.62895	99.98
1.64562	99.99
1.66228	99.98
1.67895	99.99
1.69562	99.99
1.71228	99.99
1.72895	99.99
1.74562	99.99
1.76228	99.99
1.77895	99.98
1.79562	99.98
1.81228	99.99
1.82895	99.98
1.84562	99.98
1.86228	99.98
1.87895	99.99
1.89562	99.98
1.91228	99.99
1.92895	99.98
1.94562	99.98
1.96228	99.98
1.97895	99.98
1.99562	99.98
2.01228	99.98
2.02895	99.98
2.04562	99.98
2.06228	99.98
2.07895	99.98
2.09562	99.98
2.11228	99.97
2.12895	99.97
2.14562	99.97
2.16228	99.97
2.17895	99.97
2.19562	99.97
2.21228	99.97
2.22895	99.96
2.24562	99.97
2.26228	99.97
2.27895	99.97
2.29562	99.97
2.31228	99.97
2.32895	99.96
2.34562	99.97
2.36228	99.97
2.37895	99.96
2.39562	99.97
2.41228	99.97
2.42895	99.97
2.44562	99.96
2.46228	99.97
2.47895	99.97
2.49562	99.97
2.51228	99.97
2.52895	99.97
2.54562	99.97
2.56228	99.97
2.57895	99.97
2.59562	99.97
2.61228	99.98
2.62895	99.98
2.64562	99.98
2.66228	99.98
2.67895	99.98
2.69562	99.98
2.71228	99.98
2.72895	99.98
2.74562	99.99
2.76228	99.99
2.77895	99.99
2.79562	99.99
2.81228	99.99
2.82895	99.99
2.84562	99.99
2.86228	99.99
2.87895	100.00
2.89562	100.00
2.91228	100.00
2.92895	100.00
2.94562	100.00
2.96228	100.01
2.97895	100.01
2.99562	100.00
3.01228	100.00
3.02895	100.01
3.04562	100.01
3.06228	100.02
3.07895	100.01
3.09562	100.01
3.11228	100.02
3.12895	100.02
3.14562	100.02
3.16228	100.02
3.17895	100.02
3.19562	100.02
3.21228	100.02
3.22895	100.02
3.24562	100.02
3.26228	100.02
3.27895	100.03
3.29562	100.03
3.31228	100.03
3.32895	100.03
3.34562	100.03
3.36228	100.03
3.37895	100.03
3.39562	100.03
3.41228	100.03
3.42895	100.03
3.44562	100.03
3.46228	100.03
3.47895	100.04
3.49562	100.03
3.51228	100.04
3.52895	100.04
3.54562	100.04
3.56228	100.04
3.57895	100.04
3.59562	100.04
3.61228	100.04
3.62895	100.04
3.64562	100.05
3.66228	100.04
3.67895	100.04
3.69562	100.04
3.71228	100.04
3.72895	100.04
3.74562	100.05
3.76228	100.04
3.77895	100.05
3.79562	100.05
3.81228	100.05
3.82895	100.05
3.84562	100.04
3.86228	100.05
3.87895	100.05
3.89562	100.04
3.91228	100.04
3.92895	100.05
3.94562	100.05
3.96228	100.05
3.97895	100.05
3.99562	100.05

[Status Trace (Carrier Gas Pressure)]
Interval(msec)	1000
# of Points	240
Start Time(min)	0.012
End Time(min)	3.996
Intensity Units	
Intensity Multiplier	1
R.Time (min)	Intensity
0.01228	57.98
0.02895	55.03
0.04562	57.67
0.06228	59.72
0.07895	58.84
0.09562	57.99
0.11228	57.99
0.12895	58.01
0.14562	58.01
0.16228	58.00
0.17895	58.00
0.19562	58.00
0.21228	58.00
0.22895	58.00
0.24562	58.00
0.26228	58.00
0.27895	58.00
0.29562	58.00
0.31228	58.00
0.32895	58.00
0.34562	58.00
0.36228	58.00
0.37895	58.00
0.39562	58.00
0.41228	58.00
0.42895	58.00
0.44562	58.00
0.46228	58.00
0.47895	58.00
0.49562	58.00
0.51228	58.00
0.52895	58.00
0.54562	58.00
0.56228	58.00
0.57895	58.00
0.59562	58.00
0.61228	58.00
0.62895	58.00
0.64562	58.00
0.66228	58.00
0.67895	58.00
0.69562	58.00
0.71228	58.00
0.72895	58.00
0.74562	58.00
0.76228	58.00
0.77895	58.00
0.79562	58.00
0.81228	58.00
0.82895	58.00
0.84562	58.00
0.86228	58.00
0.87895	58.00
0.89562	58.00
0.91228	58.00
0.92895	58.00
0.94562	58.00
0.96228	58.00
0.97895	58.00
0.99562	58.00
1.01228	58.00
1.02895	58.00
1.04562	58.00
1.06228	58.00
1.07895	58.00
1.09562	58.00
1.11228	58.00
1.12895	58.00
1.14562	58.00
1.16228	58.00
1.17895	58.00
1.19562	58.00
1.21228	58.00
1.22895	58.00
1.24562	58.00
1.26228	58.00
1.27895	58.00
1.29562	58.00
1.31228	58.00
1.32895	58.00
1.34562	58.00
1.36228	58.00
1.37895	58.00
1.39562	58.00
1.41228	58.00
1.42895	58.00
1.44562	58.00
1.46228	58.00
1.47895	58.00
1.49562	58.00
1.51228	58.00
1.52895	58.00
1.54562	58.00
1.56228	58.00
1.57895	58.00
1.59562	58.00
1.61228	58.00
1.62895	58.00
1.64562	58.00
1.66228	58.00
1.67895	58.01
1.69562	58.01
1.71228	58.00
1.72895	58.00
1.74562	58.00
1.76228	58.00
1.77895	58.00
1.79562	58.00
1.81228	58.00
1.82895	58.00
1.84562	58.00
1.86228	58.00
1.87895	58.00
1.89562	58.00
1.91228	58.00
1.92895	58.00
1.94562	58.00
1.96228	58.00
1.97895	58.00
1.99562	58.00
2.01228	58.00
2.02895	58.00
2.04562	58.00
2.06228	58.00
2.07895	58.00
2.09562	58.00
2.11228	58.00
2.12895	58.00
2.14562	58.00
2.16228	58.00
2.17895	58.00
2.19562	58.00
2.21228	58.00
2.22895	58.00
2.24562	58.00
2.26228	58.00
2.27895	58.00
2.29562	58.00
2.31228	58.00
2.32895	58.00
2.34562	58.00
2.36228	58.00
2.37895	57.99
2.39562	57.99
2.41228	58.00
2.42895	58.00
2.44562	58.00
2.46228	58.00
2.47895	58.00
2.49562	58.00
2.51228	57.99
2.52895	57.98
2.54562	58.00
2.56228	58.00
2.57895	58.00
2.59562	58.00
2.61228	58.00
2.62895	58.00
2.64562	58.00
2.66228	58.00
2.67895	58.00
2.69562	58.00
2.71228	58.00
2.72895	58.00
2.74562	58.00
2.76228	58.00
2.77895	58.00
2.79562	58.00
2.81228	58.00
2.82895	58.00
2.84562	58.00
2.86228	58.00
2.87895	58.00
2.89562	58.00
2.91228	58.00
2.92895	58.00
2.94562	58.00
2.96228	58.00
2.97895	58.00
2.99562	58.00
3.01228	58.00
3.02895	58.00
3.04562	58.00
3.06228	58.00
3.07895	58.00
3.09562	58.00
3.11228	58.00
3.12895	58.00
3.14562	58.00
3.16228	58.00
3.17895	58.00
3.19562	58.00
3.21228	58.00
3.22895	58.00
3.24562	58.00
3.26228	58.00
3.27895	58.00
3.29562	58.00
3.31228	58.00
3.32895	58.00
3.34562	58.00
3.36228	58.00
3.37895	58.00
3.39562	58.00
3.41228	58.00
3.42895	58.00
3.44562	58.00
3.46228	58.00
3.47895	58.00
3.49562	58.00
3.51228	58.00
3.52895	58.00
3.54562	58.00
3.56228	58.00
3.57895	58.00
3.59562	58.00
3.61228	58.00
3.62895	58.00
3.64562	58.00
3.66228	58.00
3.67895	58.00
3.69562	58.00
3.71228	58.00
3.72895	58.00
3.74562	58.00
3.76228	58.00
3.77895	58.00
3.79562	58.00
3.81228	58.00
3.82895	58.00
3.84562	58.00
3.86228	58.00
3.87895	58.00
3.89562	58.00
3.91228	58.00
3.92895	58.00
3.94562	58.00
3.96228	58.00
3.97895	58.00
3.99562	58.00

[Status Trace (Carrier Gas Flow)]
Interval(msec)	1000
# of Points	240
Start Time(min)	0.012
End Time(min)	3.996
Intensity Units	
Intensity Multiplier	1
R.Time (min)	Intensity
0.01228	34.58
0.02895	34.54
0.04562	34.55
0.06228	34.52
0.07895	34.50
0.09562	34.52
0.11228	34.52
0.12895	34.52
0.14562	34.52
0.16228	34.52
0.17895	34.51
0.19562	34.52
0.21228	34.52
0.22895	34.51
0.24562	34.52
0.26228	34.52
0.27895	34.52
0.29562	34.51
0.31228	34.52
0.32895	34.52
0.34562	34.52
0.36228	34.51
0.37895	34.52
0.39562	34.52
0.41228	34.52
0.42895	34.52
0.44562	34.52
0.46228	34.52
0.47895	34.52
0.49562	34.52
0.51228	34.53
0.52895	34.52
0.54562	34.51
0.56228	34.52
0.57895	34.52
0.59562	34.52
0.61228	34.52
0.62895	34.52
0.64562	34.52
0.66228	34.52
0.67895	34.52
0.69562	34.52
0.71228	34.52
0.72895	34.52
0.74562	34.52
0.76228	34.52
0.77895	34.52
0.79562	34.52
0.81228	34.52
0.82895	34.52
0.84562	34.52
0.86228	34.52
0.87895	34.52
0.89562	34.52
0.91228	34.52
0.92895	34.52
0.94562	34.52
0.96228	34.52
0.97895	34.51
0.99562	34.52
1.01228	34.52
1.02895	34.52
1.04562	34.52
1.06228	34.52
1.07895	34.52
1.09562	34.52
1.11228	34.52
1.12895	34.52
1.14562	34.52
1.16228	34.52
1.17895	34.52
1.19562	34.52
1.21228	34.52
1.22895	34.52
1.24562	34.52
1.26228	34.52
1.27895	34.52
1.29562	34.52
1.31228	34.52
1.32895	34.52
1.34562	34.52
1.36228	34.52
1.37895	34.52
1.39562	34.52
1.41228	34.52
1.42895	34.52
1.44562	34.52
1.46228	34.52
1.47895	34.52
1.49562	34.52
1.51228	34.52
1.52895	34.52
1.54562	34.51
1.56228	34.52
1.57895	34.53
1.59562	34.51
1.61228	34.52
1.62895	34.52
1.64562	34.52
1.66228	34.53
1.67895	34.52
1.69562	34.52
1.71228	34.51
1.72895	34.51
1.74562	34.52
1.76228	34.52
1.77895	34.52
1.79562	34.52
1.81228	34.52
1.82895	34.52
1.84562	34.51
1.86228	34.52
1.87895	34.52
1.89562	34.52
1.91228	34.52
1.92895	34.52
1.94562	34.52
1.96228	34.52
1.97895	34.52
1.99562	34.52
2.01228	34.52
2.02895	34.52
2.04562	34.52
2.06228	34.52
2.07895	34.52
2.09562	34.52
2.11228	34.52
2.12895	34.52
2.14562	34.51
2.16228	34.52
2.17895	34.52
2.19562	34.52
2.21228	34.52
2.22895	34.52
2.24562	34.52
2.26228	34.52
2.27895	34.52
2.29562	34.52
2.31228	34.52
2.32895	34.52
2.34562	34.52
2.36228	34.52
2.37895	34.51
2.39562	34.52
2.41228	34.52
2.42895	34.52
2.44562	34.52
2.46228	34.52
2.47895	34.52
2.49562	34.52
2.51228	34.52
2.52895	34.52
2.54562	34.52
2.56228	34.51
2.57895	34.52
2.59562	34.52
2.61228	34.51
2.62895	34.52
2.64562	34.52
2.66228	34.52
2.67895	34.52
2.69562	34.51
2.71228	34.51
2.72895	34.53
2.74562	34.52
2.76228	34.51
2.77895	34.52
2.79562	34.52
2.81228	34.53
2.82895	34.51
2.84562	34.52
2.86228	34.52
2.87895	34.52
2.89562	34.52
2.91228	34.52
2.92895	34.52
2.94562	34.52
2.96228	34.52
2.97895	34.52
2.99562	34.53
3.01228	34.52
3.02895	34.52
3.04562	34.52
3.06228	34.52
3.07895	34.52
3.09562	34.52
3.11228	34.52
3.12895	34.52
3.14562	34.52
3.16228	34.52
3.17895	34.52
3.19562	34.52
3.21228	34.52
3.22895	34.52
3.24562	34.52
3.26228	34.52
3.27895	34.52
3.29562	34.52
3.31228	34.52
3.32895	34.52
3.34562	34.52
3.36228	34.52
3.37895	34.52
3.39562	34.52
3.41228	34.52
3.42895	34.52
3.44562	34.52
3.46228	34.52
3.47895	34.52
3.49562	34.52
3.51228	34.52
3.52895	34.52
3.54562	34.52
3.56228	34.52
3.57895	34.52
3.59562	34.52
3.61228	34.52
3.62895	34.52
3.64562	34.52
3.66228	34.51
3.67895	34.52
3.69562	34.52
3.71228	34.51
3.72895	34.52
3.74562	34.52
3.76228	34.52
3.77895	34.52
3.79562	34.52
3.81228	34.52
3.82895	34.52
3.84562	34.52
3.86228	34.52
3.87895	34.52
3.89562	34.52
3.91228	34.52
3.92895	34.53
3.94562	34.52
3.96228	34.52
3.97895	34.52
3.99562	34.52

[Status Trace (Column Flow)]
Interval(msec)	1000
# of Points	240
Start Time(min)	0.012
End Time(min)	3.996
Intensity Units	
Intensity Multiplier	1
R.Time (min)	Intensity
0.01228	5.57
0.02895	5.23
0.04562	5.54
0.06228	5.78
0.07895	5.67
0.09562	5.57
0.11228	5.57
0.12895	5.57
0.14562	5.57
0.16228	5.57
0.17895	5.57
0.19562	5.57
0.21228	5.57
0.22895	5.57
0.24562	5.57
0.26228	5.57
0.27895	5.57
0.29562	5.57
0.31228	5.57
0.32895	5.57
0.34562	5.57
0.36228	5.57
0.37895	5.57
0.39562	5.57
0.41228	5.57
0.42895	5.57
0.44562	5.57
0.46228	5.57
0.47895	5.57
0.49562	5.57
0.51228	5.57
0.52895	5.57
0.54562	5.57
0.56228	5.58
0.57895	5.57
0.59562	5.57
0.61228	5.57
0.62895	5.57
0.64562	5.57
0.66228	5.57
0.67895	5.58
0.69562	5.58
0.71228	5.58
0.72895	5.58
0.74562	5.58
0.76228	5.58
0.77895	5.58
0.79562	5.58
0.81228	5.57
0.82895	5.57
0.84562	5.57
0.86228	5.57
0.87895	5.57
0.89562	5.57
0.91228	5.57
0.92895	5.57
0.94562	5.57
0.96228	5.57
0.97895	5.57
0.99562	5.57
1.01228	5.57
1.02895	5.57
1.04562	5.57
1.06228	5.57
1.07895	5.57
1.09562	5.57
1.11228	5.58
1.12895	5.58
1.14562	5.58
1.16228	5.58
1.17895	5.58
1.19562	5.58
1.21228	5.58
1.22895	5.58
1.24562	5.58
1.26228	5.58
1.27895	5.58
1.29562	5.57
1.31228	5.57
1.32895	5.57
1.34562	5.57
1.36228	5.57
1.37895	5.57
1.39562	5.57
1.41228	5.57
1.42895	5.58
1.44562	5.58
1.46228	5.58
1.47895	5.58
1.49562	5.58
1.51228	5.58
1.52895	5.58
1.54562	5.58
1.56228	5.58
1.57895	5.58
1.59562	5.57
1.61228	5.57
1.62895	5.57
1.64562	5.56
1.66228	5.55
1.67895	5.54
1.69562	5.53
1.71228	5.52
1.72895	5.51
1.74562	5.50
1.76228	5.49
1.77895	5.48
1.79562	5.47
1.81228	5.46
1.82895	5.45
1.84562	5.44
1.86228	5.43
1.87895	5.42
1.89562	5.41
1.91228	5.40
1.92895	5.39
1.94562	5.38
1.96228	5.37
1.97895	5.36
1.99562	5.35
2.01228	5.34
2.02895	5.33
2.04562	5.32
2.06228	5.31
2.07895	5.30
2.09562	5.29
2.11228	5.28
2.12895	5.27
2.14562	5.26
2.16228	5.25
2.17895	5.24
2.19562	5.23
2.21228	5.22
2.22895	5.21
2.24562	5.21
2.26228	5.20
2.27895	5.19
2.29562	5.18
2.31228	5.17
2.32895	5.16
2.34562	5.15
2.36228	5.14
2.37895	5.14
2.39562	5.14
2.41228	5.14
2.42895	5.14
2.44562	5.14
2.46228	5.14
2.47895	5.14
2.49562	5.14
2.51228	5.13
2.52895	5.13
2.54562	5.14
2.56228	5.14
2.57895	5.13
2.59562	5.13
2.61228	5.13
2.62895	5.13
2.64562	5.13
2.66228	5.13
2.67895	5.13
2.69562	5.13
2.71228	5.13
2.72895	5.13
2.74562	5.13
2.76228	5.13
2.77895	5.13
2.79562	5.13
2.81228	5.13
2.82895	5.13
2.84562	5.13
2.86228	5.13
2.87895	5.13
2.89562	5.13
2.91228	5.13
2.92895	5.13
2.94562	5.13
2.96228	5.13
2.97895	5.13
2.99562	5.13
3.01228	5.13
3.02895	5.13
3.04562	5.13
3.06228	5.13
3.07895	5.13
3.09562	5.13
3.11228	5.13
3.12895	5.13
3.14562	5.13
3.16228	5.13
3.17895	5.13
3.19562	5.13
3.21228	5.13
3.22895	5.13
3.24562	5.13
3.26228	5.13
3.27895	5.13
3.29562	5.12
3.31228	5.12
3.32895	5.12
3.34562	5.13
3.36228	5.13
3.37895	5.13
3.39562	5.13
3.41228	5.13
3.42895	5.13
3.44562	5.13
3.46228	5.13
3.47895	5.13
3.49562	5.13
3.51228	5.13
3.52895	5.13
3.54562	5.13
3.56228	5.13
3.57895	5.13
3.59562	5.13
3.61228	5.13
3.62895	5.13
3.64562	5.13
3.66228	5.13
3.67895	5.13
3.69562	5.13
3.71228	5.13
3.72895	5.13
3.74562	5.13
3.76228	5.13
3.77895	5.13
3.79562	5.13
3.81228	5.13
3.82895	5.13
3.84562	5.13
3.86228	5.13
3.87895	5.13
3.89562	5.13
3.91228	5.13
3.92895	5.13
3.94562	5.13
3.96228	5.13
3.97895	5.13
3.99562	5.13

[Status Trace (Linear Velocity)]
Interval(msec)	1000
# of Points	240
Start Time(min)	0.012
End Time(min)	3.996
Intensity Units	
Intensity Multiplier	1
R.Time (min)	Intensity
0.01228	39.01
0.02895	37.07
0.04562	38.81
0.06228	40.15
0.07895	39.58
0.09562	39.02
0.11228	39.02
0.12895	39.03
0.14562	39.03
0.16228	39.03
0.17895	39.03
0.19562	39.03
0.21228	39.03
0.22895	39.02
0.24562	39.02
0.26228	39.02
0.27895	39.03
0.29562	39.03
0.31228	39.03
0.32895	39.03
0.34562	39.03
0.36228	39.03
0.37895	39.03
0.39562	39.03
0.41228	39.03
0.42895	39.03
0.44562	39.03
0.46228	39.03
0.47895	39.03
0.49562	39.03
0.51228	39.03
0.52895	39.03
0.54562	39.03
0.56228	39.03
0.57895	39.03
0.59562	39.03
0.61228	39.03
0.62895	39.03
0.64562	39.03
0.66228	39.03
0.67895	39.03
0.69562	39.03
0.71228	39.03
0.72895	39.04
0.74562	39.03
0.76228	39.03
0.77895	39.03
0.79562	39.03
0.81228	39.03
0.82895	39.03
0.84562	39.03
0.86228	39.03
0.87895	39.03
0.89562	39.03
0.91228	39.03
0.92895	39.03
0.94562	39.03
0.96228	39.03
0.97895	39.03
0.99562	39.03
1.01228	39.03
1.02895	39.03
1.04562	39.03
1.06228	39.03
1.07895	39.03
1.09562	39.03
1.11228	39.03
1.12895	39.03
1.14562	39.03
1.16228	39.03
1.17895	39.03
1.19562	39.03
1.21228	39.03
1.22895	39.03
1.24562	39.03
1.26228	39.03
1.27895	39.03
1.29562	39.03
1.31228	39.03
1.32895	39.03
1.34562	39.03
1.36228	39.03
1.37895	39.03
1.39562	39.03
1.41228	39.03
1.42895	39.03
1.44562	39.03
1.46228	39.03
1.47895	39.03
1.49562	39.03
1.51228	39.03
1.52895	39.03
1.54562	39.03
1.56228	39.03
1.57895	39.03
1.59562	39.03
1.61228	39.02
1.62895	39.01
1.64562	38.99
1.66228	38.96
1.67895	38.93
1.69562	38.90
1.71228	38.86
1.72895	38.83
1.74562	38.80
1.76228	38.76
1.77895	38.73
1.79562	38.71
1.81228	38.67
1.82895	38.64
1.84562	38.61
1.86228	38.58
1.87895	38.54
1.89562	38.52
1.91228	38.48
1.92895	38.45
1.94562	38.43
1.96228	38.39
1.97895	38.36
1.99562	38.34
2.01228	38.30
2.02895	38.27
2.04562	38.25
2.06228	38.22
2.07895	38.19
2.09562	38.16
2.11228	38.13
2.12895	38.10
2.14562	38.07
2.16228	38.04
2.17895	38.01
2.19562	37.98
2.21228	37.95
2.22895	37.92
2.24562	37.89
2.26228	37.86
2.27895	37.83
2.29562	37.80
2.31228	37.77
2.32895	37.74
2.34562	37.71
2.36228	37.69
2.37895	37.67
2.39562	37.67
2.41228	37.68
2.42895	37.68
2.44562	37.68
2.46228	37.67
2.47895	37.67
2.49562	37.67
2.51228	37.66
2.52895	37.66
2.54562	37.67
2.56228	37.67
2.57895	37.67
2.59562	37.67
2.61228	37.66
2.62895	37.66
2.64562	37.66
2.66228	37.66
2.67895	37.66
2.69562	37.66
2.71228	37.66
2.72895	37.66
2.74562	37.66
2.76228	37.66
2.77895	37.66
2.79562	37.65
2.81228	37.65
2.82895	37.66
2.84562	37.66
2.86228	37.66
2.87895	37.66
2.89562	37.65
2.91228	37.65
2.92895	37.65
2.94562	37.65
2.96228	37.65
2.97895	37.65
2.99562	37.65
3.01228	37.65
3.02895	37.64
3.04562	37.64
3.06228	37.64
3.07895	37.64
3.09562	37.64
3.11228	37.64
3.12895	37.64
3.14562	37.64
3.16228	37.64
3.17895	37.64
3.19562	37.64
3.21228	37.64
3.22895	37.64
3.24562	37.64
3.26228	37.64
3.27895	37.64
3.29562	37.64
3.31228	37.63
3.32895	37.63
3.34562	37.64
3.36228	37.64
3.37895	37.64
3.39562	37.64
3.41228	37.64
3.42895	37.64
3.44562	37.64
3.46228	37.64
3.47895	37.64
3.49562	37.64
3.51228	37.64
3.52895	37.64
3.54562	37.64
3.56228	37.64
3.57895	37.64
3.59562	37.64
3.61228	37.64
3.62895	37.64
3.64562	37.64
3.66228	37.64
3.67895	37.64
3.69562	37.64
3.71228	37.64
3.72895	37.64
3.74562	37.64
3.76228	37.64
3.77895	37.64
3.79562	37.64
3.81228	37.64
3.82895	37.64
3.84562	37.64
3.86228	37.64
3.87895	37.64
3.89562	37.64
3.91228	37.64
3.92895	37.64
3.94562	37.64
3.96228	37.64
3.97895	37.64
3.99562	37.64

