[Header]
Application Name	LabSolutions
Version	5.110
Data File Name	C:\Users\User\Desktop\GC Analyses\Jack\Nachusa Grasslands Sampling\T0 Timepoint July 12th\T0_07122022_061.gcd
Output Date	3/14/2023
Output Time	3:40:37 PM

[File Information]
Type	Data File
Generated	3/7/2023 8:33:50 PM
Generated by	System Administrator
Modified	3/7/2023 8:40:43 PM
Modified by	System Administrator

[Sample Information]
Operator Name	System Administrator
Acquired	3/7/2023 8:36:42 PM
Sample Type	0:Unknown
Level	0
Sample Name	061
Sample ID	061
ISTD Amount1	1
ISTD Amount2	1
ISTD Amount3	1
ISTD Amount4	1
ISTD Amount5	1
ISTD Amount6	1
ISTD Amount7	1
ISTD Amount8	1
ISTD Amount9	1
ISTD Amount10	1
ISTD Amount11	1
ISTD Amount12	1
ISTD Amount13	1
ISTD Amount14	1
ISTD Amount15	1
ISTD Amount16	1
ISTD Amount17	1
ISTD Amount18	1
ISTD Amount19	1
ISTD Amount20	1
ISTD Amount21	1
ISTD Amount22	1
ISTD Amount23	1
ISTD Amount24	1
ISTD Amount25	1
ISTD Amount26	1
ISTD Amount27	1
ISTD Amount28	1
ISTD Amount29	1
ISTD Amount30	1
ISTD Amount31	1
ISTD Amount32	1
Sample Amount	1
Dilution Factor	1
Vial#	60
Injection Volume	1
Injection Count	1
Bar Code	

[Original Files]
Data File	C:\Users\User\Desktop\GC Analyses\Jack\Nachusa Grasslands Sampling\T0 Timepoint July 12th\T0_07122022_061.gcd
Method File	C:\LabSolutions\Data\GHG_4min_2022\ghg3_togas_w_acet_4 min_new_int.gcm
Batch File	C:\LabSolutions\Data\AutoSamplerTesting\T0_07122022.gcb
Report Format File	c:\LabSolutions\System\DEFAULT.lsr

[File Description]


[Configuration]
Instrument Name	C0B7VH3-Instrument1
Instrument #	1
Line #	1
# of Detectors	3
Detector ID	DET#1	DET#2	DET#3
Detector Name	FID	PTCD	ECD
# of Channels	1	1	1

[Peak Table(Ch1)]
# of Peaks	3
Peak#	R.Time	I.Time	F.Time	Area	Height	A/H	Conc.	Mark	ID#	Name	k'	Plate #	Plate Ht.	Tailing	Resolution	Sep.Factor	Area Ratio	Height Ratio	Conc. %	Norm Conc.
1	1.476	1.435	1.538	28918	13625	2.122	204.163	   	1	CO	0.000	9328	16.081	1.316	0.000	0.000	0	0	29.531	29.531
2	1.567	1.538	1.622	4955	2417	2.050	95.808	 V 	2	CH4	0.062	10420	14.395	0.000	1.496	0.000	0	0	13.858	13.858
3	1.996	1.949	2.484	1559486	738362	2.112	391.389	   	3	CO2	0.353	17212	8.715	1.290	7.016	5.680	0	0	56.611	56.611

[Peak Table(Ch2)]
# of Peaks	0

[Peak Table(Ch3)]
# of Peaks	5
Peak#	R.Time	I.Time	F.Time	Area	Height	A/H	Conc.	Mark	ID#	Name	k'	Plate #	Plate Ht.	Tailing	Resolution	Sep.Factor	Area Ratio	Height Ratio	Conc. %	Norm Conc.
1	2.462	2.308	2.517	1753	415	4.223	0.000	   			0.000	6089	24.633	0.000	0.000	0.000	0	0	0.000	0.000
2	2.550	2.517	2.634	1180	248	4.768	0.000	 V 			0.036	2378	63.088	0.000	0.525	0.000	0	0	0.000	0.000
3	2.700	2.653	2.752	186	53	3.522	0.000	   			0.097	12712	11.800	1.051	0.986	2.708	0	0	0.000	0.000
4	2.873	2.810	3.038	17156	4678	3.667	0.438	   	1	N2O	0.167	13673	10.970	1.574	1.776	1.723	0	0	100.000	100.000
5	3.217	3.133	3.980	10354	474	21.855	0.000	   	2	SF6	0.307	196	763.579	5.007	0.678	1.839	0	0	0.000	0.000

[Compound Results(Ch1)]
# of IDs	6
ID#	Name	R.Time	Area	Height	Conc.	Curve	3rd	2nd	1st	Constant	Area Ratio	Height Ratio	Conc. %	Norm Conc.
1	CO	1.476	28918	13625	204.163	Linear	0.000000e+00	0.000000e+00	1.416423e+002	0.000000e+00	0	0	29.531	29.531
2	CH4	1.567	4955	2417	95.808	Linear	0.000000e+00	0.000000e+00	5.171738e+001	0.000000e+00	0	0	13.858	13.858
3	CO2	1.996	1559486	738362	391.389	Linear	0.000000e+00	0.000000e+00	3.984494e+003	0.000000e+00	0	0	56.611	56.611
4	Ethylene	0.000	0	0	0.000	Linear	0.000000e+00	0.000000e+00	0.000000e+00	0.000000e+00	0	0	0.000	0.000
5	Acetylene	0.000	0	0	0.000	Linear	0.000000e+00	0.000000e+00	0.000000e+00	0.000000e+00	0	0	0.000	0.000
6	Ethane	0.000	0	0	0.000	Linear	0.000000e+00	0.000000e+00	0.000000e+00	0.000000e+00	0	0	0.000	0.000

[Compound Results(Ch2)]
# of IDs	5
ID#	Name	R.Time	Area	Height	Conc.	Curve	3rd	2nd	1st	Constant	Area Ratio	Height Ratio	Conc. %	Norm Conc.
1	Hydrogen	0.000	0	0	0.000	Linear	0.000000e+00	0.000000e+00	0.000000e+00	0.000000e+00	0	0	0.000	0.000
2	Oxygen	0.000	0	0	0.000	Linear	0.000000e+00	0.000000e+00	0.000000e+00	0.000000e+00	0	0	0.000	0.000
3	Nitrogen	0.000	0	0	0.000	Linear	0.000000e+00	0.000000e+00	0.000000e+00	0.000000e+00	0	0	0.000	0.000
4	Methane	0.000	0	0	0.000	Linear	0.000000e+00	0.000000e+00	0.000000e+00	0.000000e+00	0	0	0.000	0.000
5	Carbon Monoxide	0.000	0	0	0.000	Linear	0.000000e+00	0.000000e+00	0.000000e+00	0.000000e+00	0	0	0.000	0.000

[Compound Results(Ch3)]
# of IDs	2
ID#	Name	R.Time	Area	Height	Conc.	Curve	3rd	2nd	1st	Constant	Area Ratio	Height Ratio	Conc. %	Norm Conc.
1	N2O	2.873	17156	4678	0.438	Linear	0.000000e+00	0.000000e+00	3.915173e+004	0.000000e+00	0	0	100.000	100.000
2	SF6	3.217	10354	474	0.000	Linear	0.000000e+00	0.000000e+00	0.000000e+00	0.000000e+00	0	0	0.000	0.000

[Group Results(Ch1)]
# of Groups	0

[Group Results(Ch2)]
# of Groups	0

[Group Results(Ch3)]
# of Groups	0

[Chromatogram (Ch1)]
Interval(msec)	220
# of Points	1091
Start Time(min)	0.002
End Time(min)	3.998
R.Time (min)	Intensity
0.00167	33
0.00533	39
0.00900	46
0.01267	56
0.01633	68
0.02000	79
0.02367	93
0.02733	109
0.03100	125
0.03467	137
0.03833	145
0.04200	146
0.04567	144
0.04933	142
0.05300	141
0.05667	141
0.06033	143
0.06400	146
0.06767	154
0.07133	166
0.07500	177
0.07867	183
0.08233	182
0.08600	176
0.08967	168
0.09333	160
0.09700	155
0.10067	153
0.10433	156
0.10800	162
0.11167	168
0.11533	172
0.11900	165
0.12267	149
0.12633	131
0.13000	113
0.13367	100
0.13733	93
0.14100	91
0.14467	89
0.14833	86
0.15200	82
0.15567	77
0.15933	73
0.16300	70
0.16667	68
0.17033	70
0.17400	70
0.17767	65
0.18133	60
0.18500	56
0.18867	53
0.19233	46
0.19600	37
0.19967	32
0.20333	32
0.20700	35
0.21067	40
0.21433	49
0.21800	58
0.22167	59
0.22533	53
0.22900	50
0.23267	50
0.23633	52
0.24000	51
0.24367	46
0.24733	38
0.25100	30
0.25467	25
0.25833	22
0.26200	24
0.26567	29
0.26933	32
0.27300	33
0.27667	33
0.28033	34
0.28400	36
0.28767	39
0.29133	41
0.29500	42
0.29867	47
0.30233	51
0.30600	49
0.30967	43
0.31333	38
0.31700	39
0.32067	43
0.32433	46
0.32800	45
0.33167	46
0.33533	51
0.33900	57
0.34267	56
0.34633	50
0.35000	45
0.35367	42
0.35733	42
0.36100	46
0.36467	51
0.36833	56
0.37200	58
0.37567	59
0.37933	59
0.38300	60
0.38667	58
0.39033	55
0.39400	52
0.39767	52
0.40133	50
0.40500	48
0.40867	44
0.41233	39
0.41600	35
0.41967	36
0.42333	38
0.42700	38
0.43067	35
0.43433	31
0.43800	29
0.44167	31
0.44533	35
0.44900	43
0.45267	49
0.45633	52
0.46000	47
0.46367	37
0.46733	27
0.47100	19
0.47467	15
0.47833	17
0.48200	20
0.48567	22
0.48933	22
0.49300	21
0.49667	21
0.50033	22
0.50400	21
0.50767	19
0.51133	17
0.51500	13
0.51867	9
0.52233	12
0.52600	20
0.52967	30
0.53333	36
0.53700	37
0.54067	36
0.54433	33
0.54800	32
0.55167	33
0.55533	37
0.55900	41
0.56267	43
0.56633	44
0.57000	46
0.57367	46
0.57733	43
0.58100	37
0.58467	33
0.58833	31
0.59200	33
0.59567	34
0.59933	34
0.60300	34
0.60667	30
0.61033	24
0.61400	16
0.61767	9
0.62133	10
0.62500	14
0.62867	21
0.63233	29
0.63600	37
0.63967	43
0.64333	50
0.64700	51
0.65067	44
0.65433	33
0.65800	25
0.66167	21
0.66533	21
0.66900	21
0.67267	19
0.67633	15
0.68000	14
0.68367	16
0.68733	21
0.69100	26
0.69467	30
0.69833	35
0.70200	39
0.70567	39
0.70933	35
0.71300	33
0.71667	35
0.72033	41
0.72400	48
0.72767	54
0.73133	57
0.73500	57
0.73867	54
0.74233	45
0.74600	34
0.74967	26
0.75333	24
0.75700	25
0.76067	26
0.76433	26
0.76800	22
0.77167	21
0.77533	25
0.77900	27
0.78267	28
0.78633	29
0.79000	29
0.79367	24
0.79733	17
0.80100	9
0.80467	2
0.80833	0
0.81200	4
0.81567	10
0.81933	13
0.82300	15
0.82667	15
0.83033	17
0.83400	21
0.83767	28
0.84133	31
0.84500	27
0.84867	22
0.85233	18
0.85600	18
0.85967	19
0.86333	20
0.86700	20
0.87067	22
0.87433	25
0.87800	29
0.88167	30
0.88533	27
0.88900	24
0.89267	23
0.89633	23
0.90000	22
0.90367	20
0.90733	19
0.91100	15
0.91467	8
0.91833	6
0.92200	9
0.92567	13
0.92933	14
0.93300	13
0.93667	16
0.94033	19
0.94400	20
0.94767	17
0.95133	11
0.95500	9
0.95867	10
0.96233	11
0.96600	7
0.96967	0
0.97333	-8
0.97700	-13
0.98067	-14
0.98433	-7
0.98800	6
0.99167	17
0.99533	24
0.99900	23
1.00267	18
1.00633	13
1.01000	13
1.01367	13
1.01733	17
1.02100	21
1.02467	24
1.02833	23
1.03200	20
1.03567	13
1.03933	7
1.04300	4
1.04667	2
1.05033	-1
1.05400	-3
1.05767	-4
1.06133	-5
1.06500	-3
1.06867	2
1.07233	7
1.07600	7
1.07967	5
1.08333	2
1.08700	4
1.09067	6
1.09433	7
1.09800	8
1.10167	8
1.10533	5
1.10900	-2
1.11267	-9
1.11633	-12
1.12000	-13
1.12367	-13
1.12733	-10
1.13100	-6
1.13467	-1
1.13833	6
1.14200	12
1.14567	14
1.14933	13
1.15300	10
1.15667	4
1.16033	-0
1.16400	-0
1.16767	2
1.17133	2
1.17500	1
1.17867	-5
1.18233	-12
1.18600	-19
1.18967	-25
1.19333	-26
1.19700	-23
1.20067	-20
1.20433	-20
1.20800	-19
1.21167	-13
1.21533	-6
1.21900	-2
1.22267	2
1.22633	4
1.23000	3
1.23367	-2
1.23733	-9
1.24100	-15
1.24467	-21
1.24833	-29
1.25200	-36
1.25567	-35
1.25933	-28
1.26300	-16
1.26667	-7
1.27033	-1
1.27400	-1
1.27767	-7
1.28133	-13
1.28500	-13
1.28867	-8
1.29233	-5
1.29600	-7
1.29967	-13
1.30333	-21
1.30700	-24
1.31067	-23
1.31433	-23
1.31800	-25
1.32167	-25
1.32533	-23
1.32900	-19
1.33267	-16
1.33633	-16
1.34000	-17
1.34367	-21
1.34733	-26
1.35100	-28
1.35467	-25
1.35833	-19
1.36200	-13
1.36567	-11
1.36933	-10
1.37300	-11
1.37667	-11
1.38033	-8
1.38400	-7
1.38767	-8
1.39133	-10
1.39500	-11
1.39867	-11
1.40233	-11
1.40600	-14
1.40967	-19
1.41333	-24
1.41700	-27
1.42067	-29
1.42433	-33
1.42800	-34
1.43167	-32
1.43533	-28
1.43900	-5
1.44267	90
1.44633	333
1.45000	933
1.45367	2296
1.45733	4512
1.46100	7139
1.46467	9621
1.46833	11628
1.47200	12999
1.47567	13610
1.47933	13347
1.48300	12213
1.48667	10433
1.49033	8384
1.49400	6420
1.49767	4753
1.50133	3446
1.50500	2475
1.50867	1777
1.51233	1284
1.51600	941
1.51967	707
1.52333	550
1.52700	443
1.53067	365
1.53433	307
1.53800	278
1.54167	319
1.54533	493
1.54900	823
1.55267	1251
1.55633	1680
1.56000	2040
1.56367	2297
1.56733	2430
1.57100	2407
1.57467	2208
1.57833	1874
1.58200	1481
1.58567	1106
1.58933	790
1.59300	547
1.59667	369
1.60033	244
1.60400	158
1.60767	103
1.61133	69
1.61500	50
1.61867	39
1.62233	31
1.62600	26
1.62967	26
1.63333	26
1.63700	23
1.64067	16
1.64433	5
1.64800	-5
1.65167	-14
1.65533	-23
1.65900	-29
1.66267	-30
1.66633	-28
1.67000	-22
1.67367	-12
1.67733	-5
1.68100	-2
1.68467	1
1.68833	4
1.69200	9
1.69567	12
1.69933	10
1.70300	0
1.70667	-12
1.71033	-22
1.71400	-27
1.71767	-26
1.72133	-22
1.72500	-20
1.72867	-23
1.73233	-26
1.73600	-22
1.73967	-10
1.74333	3
1.74700	7
1.75067	2
1.75433	-4
1.75800	-11
1.76167	-17
1.76533	-21
1.76900	-25
1.77267	-25
1.77633	-23
1.78000	-21
1.78367	-16
1.78733	-10
1.79100	-10
1.79467	-19
1.79833	-35
1.80200	-49
1.80567	-60
1.80933	-64
1.81300	-61
1.81667	-57
1.82033	-51
1.82400	-45
1.82767	-38
1.83133	-30
1.83500	-23
1.83867	-16
1.84233	-8
1.84600	-5
1.84967	-9
1.85333	-17
1.85700	-27
1.86067	-30
1.86433	-28
1.86800	-23
1.87167	-15
1.87533	-6
1.87900	0
1.88267	1
1.88633	-2
1.89000	-6
1.89367	-9
1.89733	-9
1.90100	-10
1.90467	-13
1.90833	-19
1.91200	-23
1.91567	-24
1.91933	-27
1.92300	-28
1.92667	-25
1.93033	-19
1.93400	-14
1.93767	-11
1.94133	-10
1.94500	-11
1.94867	-8
1.95233	16
1.95600	169
1.95967	1011
1.96333	4719
1.96700	17222
1.97067	49601
1.97433	114877
1.97800	218693
1.98167	351293
1.98533	490607
1.98900	612974
1.99267	699645
1.99633	738397
2.00000	724668
2.00367	663352
2.00733	568530
2.01100	458950
2.01467	352036
2.01833	259389
2.02200	185764
2.02567	130791
2.02933	91488
2.03300	64200
2.03667	45589
2.04033	33012
2.04400	24521
2.04767	18751
2.05133	14782
2.05500	12006
2.05867	10016
2.06233	8551
2.06600	7445
2.06967	6590
2.07333	5913
2.07700	5368
2.08067	4920
2.08433	4543
2.08800	4221
2.09167	3937
2.09533	3681
2.09900	3454
2.10267	3256
2.10633	3085
2.11000	2931
2.11367	2788
2.11733	2654
2.12100	2529
2.12467	2412
2.12833	2304
2.13200	2202
2.13567	2107
2.13933	2026
2.14300	1959
2.14667	1897
2.15033	1837
2.15400	1780
2.15767	1724
2.16133	1671
2.16500	1623
2.16867	1579
2.17233	1536
2.17600	1489
2.17967	1440
2.18333	1390
2.18700	1342
2.19067	1294
2.19433	1251
2.19800	1218
2.20167	1191
2.20533	1168
2.20900	1150
2.21267	1129
2.21633	1106
2.22000	1081
2.22367	1058
2.22733	1038
2.23100	1019
2.23467	1004
2.23833	988
2.24200	974
2.24567	962
2.24933	948
2.25300	931
2.25667	911
2.26033	888
2.26400	864
2.26767	840
2.27133	817
2.27500	796
2.27867	778
2.28233	761
2.28600	743
2.28967	725
2.29333	709
2.29700	698
2.30067	689
2.30433	679
2.30800	668
2.31167	663
2.31533	664
2.31900	668
2.32267	666
2.32633	658
2.33000	646
2.33367	631
2.33733	619
2.34100	612
2.34467	609
2.34833	606
2.35200	602
2.35567	591
2.35933	576
2.36300	563
2.36667	554
2.37033	548
2.37400	545
2.37767	541
2.38133	537
2.38500	531
2.38867	525
2.39233	522
2.39600	522
2.39967	522
2.40333	522
2.40700	520
2.41067	516
2.41433	510
2.41800	503
2.42167	494
2.42533	488
2.42900	485
2.43267	489
2.43633	495
2.44000	500
2.44367	501
2.44733	501
2.45100	500
2.45467	498
2.45833	495
2.46200	494
2.46567	490
2.46933	483
2.47300	479
2.47667	479
2.48033	475
2.48400	468
2.48767	464
2.49133	463
2.49500	463
2.49867	465
2.50233	466
2.50600	470
2.50967	473
2.51333	474
2.51700	473
2.52067	470
2.52433	471
2.52800	474
2.53167	477
2.53533	477
2.53900	475
2.54267	472
2.54633	469
2.55000	461
2.55367	449
2.55733	440
2.56100	433
2.56467	426
2.56833	421
2.57200	423
2.57567	428
2.57933	435
2.58300	436
2.58667	433
2.59033	431
2.59400	433
2.59767	435
2.60133	433
2.60500	426
2.60867	416
2.61233	406
2.61600	400
2.61967	396
2.62333	397
2.62700	400
2.63067	402
2.63433	404
2.63800	408
2.64167	413
2.64533	416
2.64900	417
2.65267	418
2.65633	416
2.66000	406
2.66367	392
2.66733	379
2.67100	371
2.67467	368
2.67833	367
2.68200	369
2.68567	370
2.68933	371
2.69300	373
2.69667	374
2.70033	369
2.70400	362
2.70767	362
2.71133	363
2.71500	364
2.71867	363
2.72233	365
2.72600	369
2.72967	371
2.73333	370
2.73700	368
2.74067	365
2.74433	361
2.74800	358
2.75167	361
2.75533	367
2.75900	372
2.76267	374
2.76633	371
2.77000	366
2.77367	362
2.77733	364
2.78100	367
2.78467	365
2.78833	358
2.79200	351
2.79567	342
2.79933	338
2.80300	340
2.80667	341
2.81033	339
2.81400	339
2.81767	347
2.82133	358
2.82500	369
2.82867	377
2.83233	376
2.83600	369
2.83967	359
2.84333	347
2.84700	336
2.85067	330
2.85433	330
2.85800	336
2.86167	343
2.86533	346
2.86900	348
2.87267	351
2.87633	353
2.88000	352
2.88367	348
2.88733	345
2.89100	341
2.89467	336
2.89833	334
2.90200	335
2.90567	341
2.90933	350
2.91300	355
2.91667	354
2.92033	350
2.92400	347
2.92767	348
2.93133	348
2.93500	349
2.93867	347
2.94233	343
2.94600	341
2.94967	342
2.95333	346
2.95700	350
2.96067	350
2.96433	347
2.96800	344
2.97167	340
2.97533	337
2.97900	337
2.98267	338
2.98633	340
2.99000	343
2.99367	348
2.99733	351
3.00100	354
3.00467	359
3.00833	363
3.01200	363
3.01567	359
3.01933	355
3.02300	352
3.02667	350
3.03033	345
3.03400	339
3.03767	334
3.04133	331
3.04500	331
3.04867	332
3.05233	330
3.05600	327
3.05967	324
3.06333	322
3.06700	324
3.07067	332
3.07433	341
3.07800	345
3.08167	347
3.08533	347
3.08900	345
3.09267	339
3.09633	335
3.10000	331
3.10367	327
3.10733	321
3.11100	320
3.11467	318
3.11833	315
3.12200	312
3.12567	308
3.12933	304
3.13300	302
3.13667	309
3.14033	323
3.14400	332
3.14767	329
3.15133	317
3.15500	303
3.15867	295
3.16233	292
3.16600	291
3.16967	292
3.17333	295
3.17700	296
3.18067	298
3.18433	300
3.18800	302
3.19167	306
3.19533	309
3.19900	312
3.20267	314
3.20633	315
3.21000	316
3.21367	314
3.21733	312
3.22100	310
3.22467	313
3.22833	316
3.23200	316
3.23567	313
3.23933	309
3.24300	305
3.24667	303
3.25033	304
3.25400	308
3.25767	309
3.26133	310
3.26500	310
3.26867	312
3.27233	318
3.27600	324
3.27967	322
3.28333	313
3.28700	303
3.29067	299
3.29433	301
3.29800	305
3.30167	306
3.30533	303
3.30900	299
3.31267	295
3.31633	294
3.32000	293
3.32367	293
3.32733	292
3.33100	295
3.33467	299
3.33833	300
3.34200	295
3.34567	291
3.34933	287
3.35300	285
3.35667	286
3.36033	287
3.36400	287
3.36767	286
3.37133	284
3.37500	286
3.37867	289
3.38233	293
3.38600	299
3.38967	306
3.39333	310
3.39700	306
3.40067	298
3.40433	289
3.40800	277
3.41167	263
3.41533	250
3.41900	239
3.42267	234
3.42633	238
3.43000	246
3.43367	253
3.43733	259
3.44100	263
3.44467	267
3.44833	272
3.45200	278
3.45567	282
3.45933	289
3.46300	292
3.46667	290
3.47033	286
3.47400	282
3.47767	278
3.48133	272
3.48500	262
3.48867	254
3.49233	250
3.49600	249
3.49967	251
3.50333	255
3.50700	262
3.51067	270
3.51433	275
3.51800	280
3.52167	284
3.52533	288
3.52900	293
3.53267	300
3.53633	308
3.54000	312
3.54367	307
3.54733	297
3.55100	283
3.55467	269
3.55833	256
3.56200	243
3.56567	232
3.56933	227
3.57300	228
3.57667	233
3.58033	239
3.58400	246
3.58767	249
3.59133	246
3.59500	242
3.59867	243
3.60233	247
3.60600	249
3.60967	249
3.61333	246
3.61700	244
3.62067	243
3.62433	243
3.62800	248
3.63167	253
3.63533	253
3.63900	250
3.64267	249
3.64633	250
3.65000	252
3.65367	255
3.65733	259
3.66100	262
3.66467	262
3.66833	257
3.67200	248
3.67567	240
3.67933	236
3.68300	236
3.68667	235
3.69033	234
3.69400	236
3.69767	238
3.70133	240
3.70500	241
3.70867	242
3.71233	244
3.71600	245
3.71967	246
3.72333	245
3.72700	244
3.73067	240
3.73433	236
3.73800	232
3.74167	229
3.74533	228
3.74900	229
3.75267	233
3.75633	243
3.76000	252
3.76367	256
3.76733	256
3.77100	250
3.77467	239
3.77833	230
3.78200	224
3.78567	219
3.78933	212
3.79300	205
3.79667	203
3.80033	206
3.80400	211
3.80767	213
3.81133	211
3.81500	208
3.81867	209
3.82233	211
3.82600	210
3.82967	208
3.83333	210
3.83700	217
3.84067	220
3.84433	219
3.84800	217
3.85167	217
3.85533	219
3.85900	222
3.86267	224
3.86633	228
3.87000	232
3.87367	229
3.87733	225
3.88100	222
3.88467	219
3.88833	214
3.89200	212
3.89567	212
3.89933	218
3.90300	225
3.90667	229
3.91033	226
3.91400	220
3.91767	215
3.92133	209
3.92500	201
3.92867	192
3.93233	186
3.93600	183
3.93967	186
3.94333	193
3.94700	198
3.95067	200
3.95433	201
3.95800	201
3.96167	200
3.96533	195
3.96900	188
3.97267	180
3.97633	171
3.98000	166
3.98367	163
3.98733	161
3.99100	164
3.99467	173
3.99833	187

[Chromatogram (Ch2)]
Interval(msec)	220
# of Points	1091
Start Time(min)	0.002
End Time(min)	3.998
R.Time (min)	Intensity
0.00167	2
0.00533	2
0.00900	2
0.01267	2
0.01633	2
0.02000	2
0.02367	2
0.02733	2
0.03100	2
0.03467	2
0.03833	2
0.04200	1
0.04567	1
0.04933	1
0.05300	0
0.05667	-0
0.06033	-1
0.06400	-1
0.06767	-1
0.07133	-1
0.07500	-1
0.07867	-1
0.08233	-0
0.08600	-0
0.08967	-0
0.09333	-0
0.09700	-0
0.10067	-0
0.10433	-1
0.10800	-1
0.11167	-1
0.11533	-1
0.11900	-1
0.12267	-1
0.12633	-1
0.13000	-1
0.13367	-1
0.13733	-1
0.14100	-1
0.14467	-1
0.14833	-0
0.15200	-0
0.15567	0
0.15933	0
0.16300	1
0.16667	1
0.17033	1
0.17400	1
0.17767	1
0.18133	1
0.18500	1
0.18867	1
0.19233	1
0.19600	2
0.19967	2
0.20333	2
0.20700	2
0.21067	2
0.21433	2
0.21800	2
0.22167	1
0.22533	1
0.22900	1
0.23267	1
0.23633	1
0.24000	1
0.24367	1
0.24733	1
0.25100	1
0.25467	1
0.25833	1
0.26200	1
0.26567	0
0.26933	-0
0.27300	-1
0.27667	-1
0.28033	-2
0.28400	-2
0.28767	-3
0.29133	-3
0.29500	-4
0.29867	-4
0.30233	-4
0.30600	-4
0.30967	-4
0.31333	-4
0.31700	-3
0.32067	-3
0.32433	-2
0.32800	-2
0.33167	-2
0.33533	-2
0.33900	-2
0.34267	-3
0.34633	-2
0.35000	-2
0.35367	-2
0.35733	-2
0.36100	-2
0.36467	-2
0.36833	-2
0.37200	-2
0.37567	-1
0.37933	-1
0.38300	-1
0.38667	-1
0.39033	-0
0.39400	0
0.39767	1
0.40133	1
0.40500	1
0.40867	1
0.41233	1
0.41600	1
0.41967	1
0.42333	1
0.42700	1
0.43067	1
0.43433	2
0.43800	2
0.44167	2
0.44533	2
0.44900	2
0.45267	2
0.45633	2
0.46000	2
0.46367	2
0.46733	2
0.47100	2
0.47467	2
0.47833	2
0.48200	2
0.48567	2
0.48933	2
0.49300	2
0.49667	1
0.50033	1
0.50400	0
0.50767	-0
0.51133	-1
0.51500	-2
0.51867	-3
0.52233	-3
0.52600	-3
0.52967	-4
0.53333	-4
0.53700	-4
0.54067	-4
0.54433	-4
0.54800	-4
0.55167	-4
0.55533	-3
0.55900	-3
0.56267	-3
0.56633	-3
0.57000	-2
0.57367	-2
0.57733	-2
0.58100	-2
0.58467	-2
0.58833	-2
0.59200	-2
0.59567	-2
0.59933	-2
0.60300	-2
0.60667	-2
0.61033	-2
0.61400	-2
0.61767	-2
0.62133	-2
0.62500	-2
0.62867	-2
0.63233	-2
0.63600	-3
0.63967	-2
0.64333	-2
0.64700	-2
0.65067	-2
0.65433	-2
0.65800	-1
0.66167	-1
0.66533	-1
0.66900	-2
0.67267	-2
0.67633	-2
0.68000	-2
0.68367	-2
0.68733	-3
0.69100	-3
0.69467	-3
0.69833	-3
0.70200	-3
0.70567	-4
0.70933	-4
0.71300	-4
0.71667	-4
0.72033	-4
0.72400	-4
0.72767	-4
0.73133	-4
0.73500	-4
0.73867	-3
0.74233	-3
0.74600	-3
0.74967	-2
0.75333	-2
0.75700	-2
0.76067	-1
0.76433	-1
0.76800	-1
0.77167	-1
0.77533	-1
0.77900	-1
0.78267	-1
0.78633	-1
0.79000	-0
0.79367	-0
0.79733	0
0.80100	0
0.80467	0
0.80833	-0
0.81200	-0
0.81567	-1
0.81933	-1
0.82300	-1
0.82667	-1
0.83033	-1
0.83400	-1
0.83767	-1
0.84133	-1
0.84500	-1
0.84867	-1
0.85233	-1
0.85600	-1
0.85967	-0
0.86333	-0
0.86700	0
0.87067	0
0.87433	0
0.87800	1
0.88167	1
0.88533	1
0.88900	1
0.89267	1
0.89633	1
0.90000	1
0.90367	1
0.90733	0
0.91100	-0
0.91467	-0
0.91833	-0
0.92200	-1
0.92567	-1
0.92933	-0
0.93300	-0
0.93667	-0
0.94033	-0
0.94400	-1
0.94767	-2
0.95133	-2
0.95500	-3
0.95867	-3
0.96233	-3
0.96600	-3
0.96967	-3
0.97333	-3
0.97700	-3
0.98067	-3
0.98433	-3
0.98800	-3
0.99167	-2
0.99533	-2
0.99900	-3
1.00267	-3
1.00633	-3
1.01000	-3
1.01367	-3
1.01733	-3
1.02100	-3
1.02467	-3
1.02833	-3
1.03200	-2
1.03567	-2
1.03933	-2
1.04300	-2
1.04667	-1
1.05033	-1
1.05400	-1
1.05767	-1
1.06133	-1
1.06500	-1
1.06867	-1
1.07233	-1
1.07600	-1
1.07967	-1
1.08333	-1
1.08700	-1
1.09067	-1
1.09433	-1
1.09800	-1
1.10167	-1
1.10533	-1
1.10900	-2
1.11267	-2
1.11633	-2
1.12000	-2
1.12367	-2
1.12733	-2
1.13100	-2
1.13467	-2
1.13833	-2
1.14200	-2
1.14567	-2
1.14933	-2
1.15300	-2
1.15667	-2
1.16033	-3
1.16400	-3
1.16767	-3
1.17133	-3
1.17500	-3
1.17867	-3
1.18233	-3
1.18600	-3
1.18967	-3
1.19333	-3
1.19700	-3
1.20067	-3
1.20433	-3
1.20800	-3
1.21167	-3
1.21533	-3
1.21900	-3
1.22267	-3
1.22633	-3
1.23000	-3
1.23367	-3
1.23733	-4
1.24100	-4
1.24467	-4
1.24833	-4
1.25200	-4
1.25567	-4
1.25933	-4
1.26300	-3
1.26667	-3
1.27033	-3
1.27400	-3
1.27767	-3
1.28133	-3
1.28500	-3
1.28867	-3
1.29233	-3
1.29600	-3
1.29967	-3
1.30333	-3
1.30700	-3
1.31067	-3
1.31433	-3
1.31800	-3
1.32167	-3
1.32533	-3
1.32900	-3
1.33267	-3
1.33633	-3
1.34000	-3
1.34367	-3
1.34733	-3
1.35100	-3
1.35467	-3
1.35833	-3
1.36200	-3
1.36567	-3
1.36933	-3
1.37300	-3
1.37667	-2
1.38033	-2
1.38400	-2
1.38767	-2
1.39133	-2
1.39500	-2
1.39867	-2
1.40233	-2
1.40600	-2
1.40967	-2
1.41333	-2
1.41700	-2
1.42067	-2
1.42433	-1
1.42800	-1
1.43167	-1
1.43533	-1
1.43900	-1
1.44267	-1
1.44633	-1
1.45000	-1
1.45367	-1
1.45733	-1
1.46100	-1
1.46467	-1
1.46833	-1
1.47200	-1
1.47567	-1
1.47933	-2
1.48300	-2
1.48667	-2
1.49033	-2
1.49400	-3
1.49767	-3
1.50133	-3
1.50500	-3
1.50867	-3
1.51233	-3
1.51600	-3
1.51967	-4
1.52333	-4
1.52700	-5
1.53067	-5
1.53433	-5
1.53800	-6
1.54167	-6
1.54533	-6
1.54900	-6
1.55267	-6
1.55633	-6
1.56000	-6
1.56367	-6
1.56733	-5
1.57100	-5
1.57467	-5
1.57833	-4
1.58200	-4
1.58567	-3
1.58933	-3
1.59300	-3
1.59667	-3
1.60033	-4
1.60400	-5
1.60767	-6
1.61133	-7
1.61500	-9
1.61867	-12
1.62233	-15
1.62600	-18
1.62967	-22
1.63333	-26
1.63700	-29
1.64067	-33
1.64433	-37
1.64800	-41
1.65167	-44
1.65533	-48
1.65900	-51
1.66267	-54
1.66633	-58
1.67000	-62
1.67367	-67
1.67733	-72
1.68100	-77
1.68467	-82
1.68833	-87
1.69200	-92
1.69567	-96
1.69933	-99
1.70300	-103
1.70667	-105
1.71033	-108
1.71400	-109
1.71767	-111
1.72133	-111
1.72500	-112
1.72867	-113
1.73233	-113
1.73600	-113
1.73967	-113
1.74333	-113
1.74700	-113
1.75067	-112
1.75433	-112
1.75800	-112
1.76167	-111
1.76533	-111
1.76900	-111
1.77267	-112
1.77633	-113
1.78000	-114
1.78367	-115
1.78733	-116
1.79100	-116
1.79467	-117
1.79833	-117
1.80200	-117
1.80567	-118
1.80933	-118
1.81300	-118
1.81667	-118
1.82033	-118
1.82400	-118
1.82767	-118
1.83133	-117
1.83500	-117
1.83867	-116
1.84233	-116
1.84600	-116
1.84967	-116
1.85333	-117
1.85700	-117
1.86067	-118
1.86433	-118
1.86800	-118
1.87167	-118
1.87533	-118
1.87900	-118
1.88267	-118
1.88633	-118
1.89000	-118
1.89367	-118
1.89733	-118
1.90100	-117
1.90467	-117
1.90833	-117
1.91200	-116
1.91567	-116
1.91933	-115
1.92300	-115
1.92667	-115
1.93033	-115
1.93400	-115
1.93767	-114
1.94133	-114
1.94500	-114
1.94867	-114
1.95233	-114
1.95600	-114
1.95967	-113
1.96333	-113
1.96700	-112
1.97067	-112
1.97433	-112
1.97800	-112
1.98167	-113
1.98533	-113
1.98900	-113
1.99267	-113
1.99633	-112
2.00000	-112
2.00367	-112
2.00733	-112
2.01100	-112
2.01467	-111
2.01833	-111
2.02200	-110
2.02567	-109
2.02933	-108
2.03300	-107
2.03667	-107
2.04033	-107
2.04400	-107
2.04767	-106
2.05133	-106
2.05500	-106
2.05867	-105
2.06233	-105
2.06600	-105
2.06967	-104
2.07333	-104
2.07700	-104
2.08067	-104
2.08433	-104
2.08800	-104
2.09167	-104
2.09533	-104
2.09900	-104
2.10267	-104
2.10633	-103
2.11000	-103
2.11367	-103
2.11733	-102
2.12100	-102
2.12467	-102
2.12833	-102
2.13200	-102
2.13567	-103
2.13933	-103
2.14300	-103
2.14667	-102
2.15033	-101
2.15400	-101
2.15767	-100
2.16133	-99
2.16500	-99
2.16867	-99
2.17233	-99
2.17600	-99
2.17967	-99
2.18333	-99
2.18700	-98
2.19067	-98
2.19433	-97
2.19800	-96
2.20167	-95
2.20533	-94
2.20900	-94
2.21267	-93
2.21633	-93
2.22000	-93
2.22367	-93
2.22733	-93
2.23100	-93
2.23467	-92
2.23833	-92
2.24200	-91
2.24567	-90
2.24933	-89
2.25300	-89
2.25667	-89
2.26033	-89
2.26400	-90
2.26767	-91
2.27133	-92
2.27500	-92
2.27867	-92
2.28233	-91
2.28600	-91
2.28967	-90
2.29333	-89
2.29700	-89
2.30067	-88
2.30433	-88
2.30800	-87
2.31167	-86
2.31533	-86
2.31900	-85
2.32267	-85
2.32633	-84
2.33000	-84
2.33367	-84
2.33733	-83
2.34100	-83
2.34467	-83
2.34833	-82
2.35200	-81
2.35567	-80
2.35933	-78
2.36300	-77
2.36667	-75
2.37033	-73
2.37400	-70
2.37767	-67
2.38133	-63
2.38500	-60
2.38867	-56
2.39233	-52
2.39600	-48
2.39967	-44
2.40333	-40
2.40700	-36
2.41067	-33
2.41433	-30
2.41800	-27
2.42167	-24
2.42533	-21
2.42900	-19
2.43267	-17
2.43633	-15
2.44000	-13
2.44367	-11
2.44733	-9
2.45100	-7
2.45467	-5
2.45833	-4
2.46200	-3
2.46567	-2
2.46933	-1
2.47300	-1
2.47667	0
2.48033	1
2.48400	2
2.48767	3
2.49133	3
2.49500	4
2.49867	5
2.50233	5
2.50600	6
2.50967	7
2.51333	8
2.51700	9
2.52067	10
2.52433	11
2.52800	11
2.53167	12
2.53533	12
2.53900	13
2.54267	13
2.54633	14
2.55000	15
2.55367	15
2.55733	15
2.56100	15
2.56467	15
2.56833	15
2.57200	15
2.57567	15
2.57933	15
2.58300	15
2.58667	15
2.59033	15
2.59400	15
2.59767	15
2.60133	15
2.60500	15
2.60867	15
2.61233	15
2.61600	15
2.61967	16
2.62333	16
2.62700	17
2.63067	17
2.63433	17
2.63800	18
2.64167	18
2.64533	18
2.64900	19
2.65267	19
2.65633	19
2.66000	19
2.66367	19
2.66733	19
2.67100	19
2.67467	19
2.67833	20
2.68200	20
2.68567	20
2.68933	20
2.69300	20
2.69667	21
2.70033	21
2.70400	21
2.70767	21
2.71133	21
2.71500	22
2.71867	22
2.72233	22
2.72600	22
2.72967	22
2.73333	22
2.73700	22
2.74067	23
2.74433	23
2.74800	23
2.75167	24
2.75533	24
2.75900	25
2.76267	26
2.76633	26
2.77000	27
2.77367	27
2.77733	27
2.78100	27
2.78467	26
2.78833	26
2.79200	25
2.79567	24
2.79933	24
2.80300	23
2.80667	23
2.81033	23
2.81400	23
2.81767	23
2.82133	23
2.82500	23
2.82867	24
2.83233	24
2.83600	24
2.83967	22
2.84333	20
2.84700	15
2.85067	8
2.85433	-3
2.85800	-17
2.86167	-35
2.86533	-57
2.86900	-83
2.87267	-113
2.87633	-147
2.88000	-185
2.88367	-227
2.88733	-271
2.89100	-319
2.89467	-368
2.89833	-419
2.90200	-471
2.90567	-524
2.90933	-578
2.91300	-631
2.91667	-684
2.92033	-737
2.92400	-788
2.92767	-839
2.93133	-892
2.93500	-949
2.93867	-1008
2.94233	-1061
2.94600	-1096
2.94967	-1107
2.95333	-1092
2.95700	-1053
2.96067	-995
2.96433	-925
2.96800	-847
2.97167	-766
2.97533	-686
2.97900	-609
2.98267	-536
2.98633	-469
2.99000	-409
2.99367	-354
2.99733	-305
3.00100	-262
3.00467	-224
3.00833	-191
3.01200	-162
3.01567	-137
3.01933	-116
3.02300	-97
3.02667	-81
3.03033	-68
3.03400	-56
3.03767	-46
3.04133	-38
3.04500	-30
3.04867	-23
3.05233	-18
3.05600	-13
3.05967	-9
3.06333	-5
3.06700	-2
3.07067	0
3.07433	3
3.07800	4
3.08167	6
3.08533	7
3.08900	8
3.09267	9
3.09633	10
3.10000	11
3.10367	11
3.10733	12
3.11100	12
3.11467	13
3.11833	13
3.12200	13
3.12567	14
3.12933	14
3.13300	14
3.13667	15
3.14033	16
3.14400	16
3.14767	16
3.15133	16
3.15500	17
3.15867	17
3.16233	17
3.16600	17
3.16967	18
3.17333	18
3.17700	18
3.18067	18
3.18433	18
3.18800	18
3.19167	18
3.19533	19
3.19900	19
3.20267	19
3.20633	19
3.21000	19
3.21367	19
3.21733	20
3.22100	20
3.22467	20
3.22833	20
3.23200	20
3.23567	20
3.23933	20
3.24300	20
3.24667	20
3.25033	20
3.25400	20
3.25767	20
3.26133	20
3.26500	20
3.26867	20
3.27233	20
3.27600	20
3.27967	20
3.28333	20
3.28700	20
3.29067	20
3.29433	20
3.29800	21
3.30167	21
3.30533	21
3.30900	21
3.31267	22
3.31633	22
3.32000	23
3.32367	23
3.32733	23
3.33100	23
3.33467	24
3.33833	24
3.34200	24
3.34567	24
3.34933	25
3.35300	25
3.35667	25
3.36033	25
3.36400	25
3.36767	25
3.37133	26
3.37500	26
3.37867	26
3.38233	27
3.38600	27
3.38967	27
3.39333	27
3.39700	28
3.40067	28
3.40433	28
3.40800	28
3.41167	29
3.41533	29
3.41900	29
3.42267	29
3.42633	29
3.43000	29
3.43367	29
3.43733	29
3.44100	29
3.44467	29
3.44833	28
3.45200	28
3.45567	28
3.45933	28
3.46300	28
3.46667	28
3.47033	27
3.47400	27
3.47767	27
3.48133	27
3.48500	27
3.48867	27
3.49233	27
3.49600	27
3.49967	27
3.50333	27
3.50700	27
3.51067	27
3.51433	27
3.51800	27
3.52167	27
3.52533	27
3.52900	27
3.53267	27
3.53633	27
3.54000	27
3.54367	27
3.54733	27
3.55100	27
3.55467	27
3.55833	27
3.56200	27
3.56567	27
3.56933	27
3.57300	26
3.57667	26
3.58033	26
3.58400	26
3.58767	26
3.59133	26
3.59500	26
3.59867	25
3.60233	25
3.60600	25
3.60967	25
3.61333	25
3.61700	25
3.62067	25
3.62433	25
3.62800	24
3.63167	24
3.63533	24
3.63900	24
3.64267	24
3.64633	23
3.65000	23
3.65367	23
3.65733	23
3.66100	24
3.66467	24
3.66833	24
3.67200	24
3.67567	24
3.67933	23
3.68300	23
3.68667	24
3.69033	24
3.69400	24
3.69767	24
3.70133	24
3.70500	24
3.70867	24
3.71233	24
3.71600	24
3.71967	24
3.72333	23
3.72700	23
3.73067	23
3.73433	23
3.73800	23
3.74167	23
3.74533	23
3.74900	23
3.75267	23
3.75633	23
3.76000	23
3.76367	23
3.76733	24
3.77100	24
3.77467	24
3.77833	24
3.78200	25
3.78567	25
3.78933	25
3.79300	25
3.79667	26
3.80033	26
3.80400	26
3.80767	26
3.81133	26
3.81500	26
3.81867	27
3.82233	26
3.82600	26
3.82967	26
3.83333	26
3.83700	26
3.84067	26
3.84433	26
3.84800	26
3.85167	26
3.85533	26
3.85900	26
3.86267	26
3.86633	26
3.87000	25
3.87367	25
3.87733	25
3.88100	25
3.88467	25
3.88833	25
3.89200	25
3.89567	25
3.89933	24
3.90300	24
3.90667	24
3.91033	25
3.91400	25
3.91767	25
3.92133	25
3.92500	25
3.92867	24
3.93233	24
3.93600	24
3.93967	24
3.94333	24
3.94700	24
3.95067	24
3.95433	24
3.95800	24
3.96167	24
3.96533	24
3.96900	24
3.97267	24
3.97633	24
3.98000	24
3.98367	24
3.98733	24
3.99100	24
3.99467	25
3.99833	25

[Chromatogram (Ch3)]
Interval(msec)	220
# of Points	1091
Start Time(min)	0.002
End Time(min)	3.998
R.Time (min)	Intensity
0.00167	1
0.00533	1
0.00900	1
0.01267	2
0.01633	4
0.02000	5
0.02367	5
0.02733	5
0.03100	5
0.03467	6
0.03833	8
0.04200	10
0.04567	9
0.04933	7
0.05300	3
0.05667	2
0.06033	3
0.06400	5
0.06767	5
0.07133	7
0.07500	5
0.07867	4
0.08233	3
0.08600	0
0.08967	0
0.09333	0
0.09700	0
0.10067	4
0.10433	7
0.10800	8
0.11167	7
0.11533	6
0.11900	5
0.12267	6
0.12633	7
0.13000	7
0.13367	10
0.13733	9
0.14100	6
0.14467	3
0.14833	0
0.15200	-2
0.15567	-2
0.15933	-1
0.16300	1
0.16667	3
0.17033	2
0.17400	0
0.17767	0
0.18133	-1
0.18500	-2
0.18867	-1
0.19233	-1
0.19600	-3
0.19967	-4
0.20333	-4
0.20700	-4
0.21067	-4
0.21433	-5
0.21800	-7
0.22167	-6
0.22533	-6
0.22900	-6
0.23267	-4
0.23633	-4
0.24000	-5
0.24367	-7
0.24733	-7
0.25100	-6
0.25467	-5
0.25833	-5
0.26200	-3
0.26567	-4
0.26933	-5
0.27300	-8
0.27667	-11
0.28033	-10
0.28400	-10
0.28767	-10
0.29133	-12
0.29500	-11
0.29867	-9
0.30233	-9
0.30600	-11
0.30967	-12
0.31333	-11
0.31700	-11
0.32067	-10
0.32433	-8
0.32800	-6
0.33167	-3
0.33533	-2
0.33900	-4
0.34267	-5
0.34633	-5
0.35000	-4
0.35367	-6
0.35733	-8
0.36100	-8
0.36467	-8
0.36833	-11
0.37200	-13
0.37567	-13
0.37933	-14
0.38300	-14
0.38667	-13
0.39033	-11
0.39400	-12
0.39767	-14
0.40133	-15
0.40500	-15
0.40867	-16
0.41233	-18
0.41600	-16
0.41967	-15
0.42333	-15
0.42700	-16
0.43067	-16
0.43433	-17
0.43800	-14
0.44167	-11
0.44533	-11
0.44900	-13
0.45267	-14
0.45633	-15
0.46000	-16
0.46367	-15
0.46733	-16
0.47100	-16
0.47467	-16
0.47833	-17
0.48200	-18
0.48567	-20
0.48933	-21
0.49300	-21
0.49667	-21
0.50033	-20
0.50400	-18
0.50767	-18
0.51133	-20
0.51500	-23
0.51867	-25
0.52233	-24
0.52600	-24
0.52967	-24
0.53333	-23
0.53700	-23
0.54067	-23
0.54433	-23
0.54800	-23
0.55167	-20
0.55533	-20
0.55900	-20
0.56267	-22
0.56633	-23
0.57000	-23
0.57367	-24
0.57733	-24
0.58100	-23
0.58467	-21
0.58833	-21
0.59200	-22
0.59567	-21
0.59933	-19
0.60300	-18
0.60667	-18
0.61033	-17
0.61400	-17
0.61767	-18
0.62133	-19
0.62500	-19
0.62867	-17
0.63233	-17
0.63600	-18
0.63967	-18
0.64333	-19
0.64700	-20
0.65067	-20
0.65433	-21
0.65800	-18
0.66167	-17
0.66533	-16
0.66900	-16
0.67267	-17
0.67633	-19
0.68000	-19
0.68367	-19
0.68733	-21
0.69100	-21
0.69467	-21
0.69833	-21
0.70200	-18
0.70567	-18
0.70933	-18
0.71300	-18
0.71667	-18
0.72033	-18
0.72400	-20
0.72767	-21
0.73133	-21
0.73500	-20
0.73867	-20
0.74233	-19
0.74600	-19
0.74967	-21
0.75333	-23
0.75700	-25
0.76067	-26
0.76433	-27
0.76800	-25
0.77167	-24
0.77533	-24
0.77900	-24
0.78267	-23
0.78633	-23
0.79000	-25
0.79367	-25
0.79733	-24
0.80100	-22
0.80467	-21
0.80833	-19
0.81200	-17
0.81567	-18
0.81933	-22
0.82300	-24
0.82667	-23
0.83033	-22
0.83400	-21
0.83767	-22
0.84133	-24
0.84500	-23
0.84867	-24
0.85233	-25
0.85600	-24
0.85967	-24
0.86333	-23
0.86700	-23
0.87067	-23
0.87433	-23
0.87800	-22
0.88167	-21
0.88533	-19
0.88900	-19
0.89267	-18
0.89633	-16
0.90000	-17
0.90367	-20
0.90733	-24
0.91100	-25
0.91467	-22
0.91833	-20
0.92200	-18
0.92567	-17
0.92933	-16
0.93300	-16
0.93667	-15
0.94033	-16
0.94400	-17
0.94767	-18
0.95133	-20
0.95500	-20
0.95867	-20
0.96233	-20
0.96600	-19
0.96967	-18
0.97333	-17
0.97700	-17
0.98067	-18
0.98433	-17
0.98800	-17
0.99167	-15
0.99533	-14
0.99900	-13
1.00267	-12
1.00633	-12
1.01000	-11
1.01367	-9
1.01733	-10
1.02100	-11
1.02467	-12
1.02833	-12
1.03200	-13
1.03567	-12
1.03933	-13
1.04300	-12
1.04667	-8
1.05033	-5
1.05400	-3
1.05767	-2
1.06133	-5
1.06500	-5
1.06867	-4
1.07233	-3
1.07600	-0
1.07967	0
1.08333	-1
1.08700	-3
1.09067	-2
1.09433	-2
1.09800	-2
1.10167	-4
1.10533	-7
1.10900	-9
1.11267	-9
1.11633	-5
1.12000	-2
1.12367	-1
1.12733	-1
1.13100	-1
1.13467	1
1.13833	4
1.14200	4
1.14567	3
1.14933	3
1.15300	3
1.15667	5
1.16033	4
1.16400	3
1.16767	3
1.17133	1
1.17500	-1
1.17867	-0
1.18233	-1
1.18600	-1
1.18967	-3
1.19333	-4
1.19700	-2
1.20067	0
1.20433	2
1.20800	3
1.21167	2
1.21533	1
1.21900	1
1.22267	1
1.22633	2
1.23000	3
1.23367	2
1.23733	3
1.24100	4
1.24467	6
1.24833	6
1.25200	5
1.25567	5
1.25933	6
1.26300	5
1.26667	2
1.27033	2
1.27400	5
1.27767	5
1.28133	4
1.28500	6
1.28867	4
1.29233	1
1.29600	0
1.29967	1
1.30333	2
1.30700	4
1.31067	5
1.31433	5
1.31800	4
1.32167	3
1.32533	0
1.32900	-2
1.33267	-3
1.33633	-0
1.34000	0
1.34367	1
1.34733	4
1.35100	5
1.35467	4
1.35833	5
1.36200	6
1.36567	6
1.36933	4
1.37300	0
1.37667	-3
1.38033	-5
1.38400	-4
1.38767	-1
1.39133	1
1.39500	1
1.39867	0
1.40233	1
1.40600	1
1.40967	1
1.41333	2
1.41700	3
1.42067	3
1.42433	4
1.42800	6
1.43167	10
1.43533	9
1.43900	9
1.44267	6
1.44633	6
1.45000	7
1.45367	7
1.45733	7
1.46100	6
1.46467	4
1.46833	4
1.47200	7
1.47567	9
1.47933	10
1.48300	12
1.48667	13
1.49033	12
1.49400	9
1.49767	7
1.50133	7
1.50500	8
1.50867	7
1.51233	6
1.51600	5
1.51967	5
1.52333	3
1.52700	4
1.53067	6
1.53433	8
1.53800	7
1.54167	7
1.54533	7
1.54900	7
1.55267	6
1.55633	7
1.56000	7
1.56367	7
1.56733	6
1.57100	6
1.57467	4
1.57833	0
1.58200	1
1.58567	5
1.58933	7
1.59300	9
1.59667	10
1.60033	12
1.60400	11
1.60767	10
1.61133	10
1.61500	9
1.61867	7
1.62233	6
1.62600	5
1.62967	4
1.63333	5
1.63700	7
1.64067	7
1.64433	7
1.64800	10
1.65167	12
1.65533	12
1.65900	11
1.66267	10
1.66633	11
1.67000	12
1.67367	13
1.67733	13
1.68100	15
1.68467	17
1.68833	18
1.69200	18
1.69567	20
1.69933	21
1.70300	20
1.70667	19
1.71033	17
1.71400	15
1.71767	16
1.72133	17
1.72500	17
1.72867	20
1.73233	24
1.73600	25
1.73967	26
1.74333	26
1.74700	28
1.75067	26
1.75433	25
1.75800	26
1.76167	28
1.76533	29
1.76900	30
1.77267	27
1.77633	27
1.78000	30
1.78367	33
1.78733	34
1.79100	35
1.79467	34
1.79833	33
1.80200	31
1.80567	31
1.80933	33
1.81300	35
1.81667	36
1.82033	39
1.82400	39
1.82767	38
1.83133	36
1.83500	35
1.83867	35
1.84233	36
1.84600	40
1.84967	43
1.85333	43
1.85700	41
1.86067	39
1.86433	38
1.86800	39
1.87167	41
1.87533	42
1.87900	44
1.88267	45
1.88633	44
1.89000	45
1.89367	47
1.89733	50
1.90100	53
1.90467	54
1.90833	55
1.91200	57
1.91567	58
1.91933	59
1.92300	58
1.92667	57
1.93033	57
1.93400	58
1.93767	60
1.94133	63
1.94500	66
1.94867	66
1.95233	64
1.95600	64
1.95967	65
1.96333	68
1.96700	73
1.97067	76
1.97433	78
1.97800	77
1.98167	75
1.98533	73
1.98900	73
1.99267	73
1.99633	73
2.00000	75
2.00367	74
2.00733	75
2.01100	77
2.01467	77
2.01833	77
2.02200	77
2.02567	79
2.02933	81
2.03300	82
2.03667	82
2.04033	82
2.04400	84
2.04767	88
2.05133	90
2.05500	92
2.05867	93
2.06233	92
2.06600	92
2.06967	93
2.07333	94
2.07700	95
2.08067	99
2.08433	100
2.08800	99
2.09167	99
2.09533	99
2.09900	99
2.10267	100
2.10633	100
2.11000	101
2.11367	101
2.11733	102
2.12100	102
2.12467	101
2.12833	102
2.13200	102
2.13567	103
2.13933	103
2.14300	103
2.14667	104
2.15033	105
2.15400	106
2.15767	107
2.16133	108
2.16500	111
2.16867	116
2.17233	119
2.17600	119
2.17967	116
2.18333	116
2.18700	118
2.19067	120
2.19433	120
2.19800	122
2.20167	125
2.20533	129
2.20900	133
2.21267	135
2.21633	137
2.22000	136
2.22367	137
2.22733	138
2.23100	141
2.23467	142
2.23833	142
2.24200	143
2.24567	142
2.24933	143
2.25300	146
2.25667	149
2.26033	151
2.26400	153
2.26767	155
2.27133	158
2.27500	159
2.27867	160
2.28233	161
2.28600	161
2.28967	162
2.29333	165
2.29700	167
2.30067	170
2.30433	170
2.30800	168
2.31167	170
2.31533	173
2.31900	174
2.32267	174
2.32633	174
2.33000	176
2.33367	177
2.33733	180
2.34100	183
2.34467	185
2.34833	186
2.35200	185
2.35567	185
2.35933	186
2.36300	187
2.36667	189
2.37033	192
2.37400	194
2.37767	196
2.38133	197
2.38500	196
2.38867	194
2.39233	192
2.39600	194
2.39967	197
2.40333	204
2.40700	211
2.41067	216
2.41433	219
2.41800	219
2.42167	220
2.42533	222
2.42900	225
2.43267	227
2.43633	225
2.44000	228
2.44367	256
2.44733	332
2.45100	415
2.45467	478
2.45833	517
2.46200	522
2.46567	502
2.46933	475
2.47300	451
2.47667	435
2.48033	423
2.48400	411
2.48767	399
2.49133	382
2.49500	359
2.49867	338
2.50233	319
2.50600	305
2.50967	293
2.51333	283
2.51700	278
2.52067	279
2.52433	283
2.52800	286
2.53167	292
2.53533	300
2.53900	308
2.54267	316
2.54633	319
2.55000	318
2.55367	312
2.55733	303
2.56100	292
2.56467	280
2.56833	267
2.57200	256
2.57567	245
2.57933	236
2.58300	233
2.58667	231
2.59033	229
2.59400	225
2.59767	217
2.60133	205
2.60500	189
2.60867	169
2.61233	146
2.61600	122
2.61967	100
2.62333	80
2.62700	62
2.63067	47
2.63433	37
2.63800	32
2.64167	32
2.64533	36
2.64900	44
2.65267	49
2.65633	57
2.66000	65
2.66367	74
2.66733	86
2.67100	95
2.67467	106
2.67833	116
2.68200	124
2.68567	131
2.68933	139
2.69300	144
2.69667	148
2.70033	152
2.70400	153
2.70767	154
2.71133	157
2.71500	159
2.71867	160
2.72233	162
2.72600	162
2.72967	159
2.73333	156
2.73700	153
2.74067	155
2.74433	155
2.74800	154
2.75167	153
2.75533	152
2.75900	148
2.76267	145
2.76633	146
2.77000	148
2.77367	151
2.77733	154
2.78100	156
2.78467	157
2.78833	157
2.79200	158
2.79567	157
2.79933	156
2.80300	155
2.80667	155
2.81033	155
2.81400	158
2.81767	166
2.82133	187
2.82500	233
2.82867	318
2.83233	466
2.83600	699
2.83967	1032
2.84333	1466
2.84700	1986
2.85067	2564
2.85433	3155
2.85800	3713
2.86167	4188
2.86533	4542
2.86900	4758
2.87267	4833
2.87633	4777
2.88000	4609
2.88367	4356
2.88733	4051
2.89100	3717
2.89467	3372
2.89833	3029
2.90200	2702
2.90567	2398
2.90933	2122
2.91300	1872
2.91667	1650
2.92033	1454
2.92400	1278
2.92767	1124
2.93133	990
2.93500	875
2.93867	777
2.94233	692
2.94600	616
2.94967	552
2.95333	497
2.95700	451
2.96067	413
2.96433	381
2.96800	352
2.97167	325
2.97533	299
2.97900	276
2.98267	259
2.98633	245
2.99000	234
2.99367	224
2.99733	215
3.00100	206
3.00467	198
3.00833	190
3.01200	184
3.01567	177
3.01933	172
3.02300	168
3.02667	164
3.03033	158
3.03400	155
3.03767	154
3.04133	151
3.04500	149
3.04867	145
3.05233	144
3.05600	144
3.05967	142
3.06333	139
3.06700	137
3.07067	135
3.07433	133
3.07800	133
3.08167	134
3.08533	135
3.08900	134
3.09267	132
3.09633	129
3.10000	127
3.10367	124
3.10733	125
3.11100	127
3.11467	126
3.11833	125
3.12200	124
3.12567	122
3.12933	119
3.13300	119
3.13667	129
3.14033	145
3.14400	164
3.14767	183
3.15133	202
3.15500	223
3.15867	250
3.16233	282
3.16600	314
3.16967	349
3.17333	385
3.17700	419
3.18067	453
3.18433	483
3.18800	510
3.19167	536
3.19533	558
3.19900	575
3.20267	591
3.20633	603
3.21000	610
3.21367	612
3.21733	614
3.22100	614
3.22467	614
3.22833	615
3.23200	613
3.23567	612
3.23933	611
3.24300	609
3.24667	605
3.25033	602
3.25400	599
3.25767	599
3.26133	598
3.26500	593
3.26867	588
3.27233	584
3.27600	577
3.27967	571
3.28333	563
3.28700	556
3.29067	551
3.29433	547
3.29800	543
3.30167	539
3.30533	536
3.30900	533
3.31267	532
3.31633	528
3.32000	523
3.32367	517
3.32733	513
3.33100	510
3.33467	508
3.33833	505
3.34200	502
3.34567	498
3.34933	496
3.35300	494
3.35667	491
3.36033	489
3.36400	489
3.36767	491
3.37133	490
3.37500	489
3.37867	487
3.38233	483
3.38600	481
3.38967	482
3.39333	481
3.39700	479
3.40067	479
3.40433	478
3.40800	477
3.41167	478
3.41533	479
3.41900	481
3.42267	481
3.42633	480
3.43000	477
3.43367	475
3.43733	476
3.44100	477
3.44467	476
3.44833	473
3.45200	471
3.45567	472
3.45933	471
3.46300	470
3.46667	470
3.47033	471
3.47400	470
3.47767	471
3.48133	472
3.48500	471
3.48867	471
3.49233	472
3.49600	474
3.49967	474
3.50333	473
3.50700	472
3.51067	471
3.51433	470
3.51800	466
3.52167	464
3.52533	462
3.52900	459
3.53267	457
3.53633	456
3.54000	456
3.54367	459
3.54733	459
3.55100	455
3.55467	453
3.55833	450
3.56200	448
3.56567	445
3.56933	440
3.57300	438
3.57667	435
3.58033	430
3.58400	427
3.58767	427
3.59133	428
3.59500	428
3.59867	430
3.60233	430
3.60600	431
3.60967	428
3.61333	426
3.61700	427
3.62067	424
3.62433	421
3.62800	418
3.63167	415
3.63533	414
3.63900	414
3.64267	413
3.64633	411
3.65000	411
3.65367	411
3.65733	409
3.66100	404
3.66467	402
3.66833	401
3.67200	398
3.67567	396
3.67933	394
3.68300	392
3.68667	391
3.69033	390
3.69400	388
3.69767	385
3.70133	384
3.70500	385
3.70867	384
3.71233	383
3.71600	383
3.71967	384
3.72333	383
3.72700	380
3.73067	378
3.73433	379
3.73800	379
3.74167	378
3.74533	378
3.74900	377
3.75267	375
3.75633	374
3.76000	373
3.76367	370
3.76733	370
3.77100	369
3.77467	369
3.77833	367
3.78200	367
3.78567	366
3.78933	364
3.79300	364
3.79667	364
3.80033	363
3.80400	361
3.80767	360
3.81133	360
3.81500	358
3.81867	358
3.82233	359
3.82600	360
3.82967	362
3.83333	361
3.83700	361
3.84067	359
3.84433	358
3.84800	358
3.85167	360
3.85533	360
3.85900	359
3.86267	358
3.86633	355
3.87000	354
3.87367	353
3.87733	351
3.88100	350
3.88467	348
3.88833	345
3.89200	345
3.89567	345
3.89933	345
3.90300	346
3.90667	346
3.91033	344
3.91400	343
3.91767	343
3.92133	344
3.92500	344
3.92867	344
3.93233	342
3.93600	343
3.93967	343
3.94333	342
3.94700	341
3.95067	340
3.95433	341
3.95800	343
3.96167	341
3.96533	339
3.96900	339
3.97267	339
3.97633	338
3.98000	337
3.98367	336
3.98733	336
3.99100	340
3.99467	343
3.99833	342

[Status Trace (Column Oven Temperature)]
Interval(msec)	1000
# of Points	240
Start Time(min)	0.006
End Time(min)	3.989
Intensity Units	
Intensity Multiplier	1
R.Time (min)	Intensity
0.00578	35.04
0.02245	35.04
0.03912	35.04
0.05578	35.04
0.07245	35.04
0.08912	35.04
0.10578	35.05
0.12245	35.05
0.13912	35.05
0.15578	35.04
0.17245	35.03
0.18912	35.02
0.20578	35.02
0.22245	35.01
0.23912	35.01
0.25578	35.01
0.27245	35.02
0.28912	35.03
0.30578	35.05
0.32245	35.05
0.33912	35.05
0.35578	35.05
0.37245	35.04
0.38912	35.02
0.40578	35.01
0.42245	35.01
0.43912	35.00
0.45578	34.98
0.47245	34.96
0.48912	34.96
0.50578	34.97
0.52245	34.99
0.53912	34.99
0.55578	35.00
0.57245	35.00
0.58912	35.00
0.60578	35.00
0.62245	35.00
0.63912	35.00
0.65578	35.01
0.67245	35.01
0.68912	35.02
0.70578	35.03
0.72245	35.03
0.73912	35.03
0.75578	35.03
0.77245	35.03
0.78912	35.02
0.80578	35.02
0.82245	35.03
0.83912	35.02
0.85578	35.01
0.87245	35.00
0.88912	34.99
0.90578	34.98
0.92245	34.98
0.93912	34.99
0.95578	34.99
0.97245	35.00
0.98912	35.01
1.00578	35.01
1.02245	35.01
1.03912	35.00
1.05578	34.99
1.07245	34.98
1.08912	34.98
1.10578	34.97
1.12245	34.98
1.13912	34.98
1.15578	34.99
1.17245	35.00
1.18912	34.99
1.20578	35.00
1.22245	35.00
1.23912	35.00
1.25578	35.00
1.27245	35.00
1.28912	35.00
1.30578	35.01
1.32245	35.01
1.33912	35.02
1.35578	35.02
1.37245	35.01
1.38912	35.01
1.40578	35.00
1.42245	34.99
1.43912	34.98
1.45578	34.97
1.47245	34.96
1.48912	34.98
1.50578	34.99
1.52245	35.00
1.53912	35.02
1.55578	35.02
1.57245	35.01
1.58912	35.01
1.60578	35.06
1.62245	35.18
1.63912	35.36
1.65578	35.58
1.67245	35.90
1.68912	36.28
1.70578	36.64
1.72245	36.98
1.73912	37.32
1.75578	37.61
1.77245	37.95
1.78912	38.28
1.80578	38.63
1.82245	38.95
1.83912	39.27
1.85578	39.62
1.87245	39.94
1.88912	40.27
1.90578	40.59
1.92245	40.91
1.93912	41.25
1.95578	41.57
1.97245	41.89
1.98912	42.21
2.00578	42.55
2.02245	42.85
2.03912	43.18
2.05578	43.50
2.07245	43.82
2.08912	44.16
2.10578	44.48
2.12245	44.80
2.13912	45.14
2.15578	45.46
2.17245	45.81
2.18912	46.14
2.20578	46.46
2.22245	46.80
2.23912	47.11
2.25578	47.45
2.27245	47.81
2.28912	48.13
2.30578	48.47
2.32245	48.80
2.33912	49.10
2.35578	49.41
2.37245	49.60
2.38912	49.67
2.40578	49.67
2.42245	49.67
2.43912	49.67
2.45578	49.66
2.47245	49.69
2.48912	49.70
2.50578	49.73
2.52245	49.74
2.53912	49.75
2.55578	49.76
2.57245	49.77
2.58912	49.80
2.60578	49.81
2.62245	49.81
2.63912	49.81
2.65578	49.82
2.67245	49.83
2.68912	49.84
2.70578	49.84
2.72245	49.86
2.73912	49.87
2.75578	49.85
2.77245	49.84
2.78912	49.87
2.80578	49.88
2.82245	49.89
2.83912	49.89
2.85578	49.89
2.87245	49.91
2.88912	49.92
2.90578	49.93
2.92245	49.93
2.93912	49.93
2.95578	49.94
2.97245	49.93
2.98912	49.94
3.00578	49.95
3.02245	49.95
3.03912	49.96
3.05578	49.96
3.07245	49.96
3.08912	49.96
3.10578	49.98
3.12245	49.98
3.13912	49.99
3.15578	50.00
3.17245	50.00
3.18912	50.02
3.20578	50.03
3.22245	50.04
3.23912	50.05
3.25578	50.07
3.27245	50.08
3.28912	50.10
3.30578	50.11
3.32245	50.11
3.33912	50.10
3.35578	50.10
3.37245	50.09
3.38912	50.07
3.40578	50.05
3.42245	50.03
3.43912	50.01
3.45578	50.01
3.47245	50.00
3.48912	50.00
3.50578	49.99
3.52245	49.98
3.53912	49.98
3.55578	49.98
3.57245	49.98
3.58912	49.99
3.60578	49.99
3.62245	50.00
3.63912	50.01
3.65578	50.02
3.67245	50.03
3.68912	50.03
3.70578	50.04
3.72245	50.06
3.73912	50.07
3.75578	50.08
3.77245	50.08
3.78912	50.07
3.80578	50.06
3.82245	50.06
3.83912	50.06
3.85578	50.06
3.87245	50.06
3.88912	50.07
3.90578	50.06
3.92245	50.07
3.93912	50.07
3.95578	50.08
3.97245	50.09
3.98912	50.08

[Status Trace (Injection Unit Temperature)]
Interval(msec)	1000
# of Points	240
Start Time(min)	0.006
End Time(min)	3.989
Intensity Units	
Intensity Multiplier	1
R.Time (min)	Intensity
0.00578	99.98
0.02245	99.98
0.03912	99.98
0.05578	99.98
0.07245	99.98
0.08912	99.98
0.10578	99.98
0.12245	99.98
0.13912	99.98
0.15578	99.99
0.17245	99.98
0.18912	99.98
0.20578	99.98
0.22245	99.98
0.23912	99.98
0.25578	99.98
0.27245	99.98
0.28912	99.98
0.30578	99.98
0.32245	99.98
0.33912	99.98
0.35578	99.98
0.37245	99.98
0.38912	99.98
0.40578	99.98
0.42245	99.98
0.43912	99.98
0.45578	99.98
0.47245	99.98
0.48912	99.98
0.50578	99.98
0.52245	99.97
0.53912	99.98
0.55578	99.98
0.57245	99.98
0.58912	99.98
0.60578	99.97
0.62245	99.98
0.63912	99.98
0.65578	99.98
0.67245	99.98
0.68912	99.98
0.70578	99.98
0.72245	99.98
0.73912	99.98
0.75578	99.98
0.77245	99.98
0.78912	99.98
0.80578	99.98
0.82245	99.98
0.83912	99.98
0.85578	99.98
0.87245	99.98
0.88912	99.98
0.90578	99.98
0.92245	99.98
0.93912	99.98
0.95578	99.98
0.97245	99.98
0.98912	99.98
1.00578	99.98
1.02245	99.98
1.03912	99.98
1.05578	99.98
1.07245	99.98
1.08912	99.98
1.10578	99.98
1.12245	99.99
1.13912	99.98
1.15578	99.98
1.17245	99.99
1.18912	99.99
1.20578	99.98
1.22245	99.98
1.23912	99.98
1.25578	99.99
1.27245	99.99
1.28912	99.99
1.30578	99.98
1.32245	99.98
1.33912	99.99
1.35578	99.99
1.37245	99.98
1.38912	99.99
1.40578	99.98
1.42245	99.99
1.43912	99.99
1.45578	99.98
1.47245	99.98
1.48912	99.98
1.50578	99.99
1.52245	99.98
1.53912	99.98
1.55578	99.98
1.57245	99.98
1.58912	99.99
1.60578	99.99
1.62245	99.99
1.63912	99.99
1.65578	99.99
1.67245	99.99
1.68912	99.99
1.70578	99.98
1.72245	99.99
1.73912	99.99
1.75578	99.99
1.77245	99.99
1.78912	99.99
1.80578	99.98
1.82245	99.98
1.83912	99.99
1.85578	99.98
1.87245	99.98
1.88912	99.99
1.90578	99.98
1.92245	99.98
1.93912	99.98
1.95578	99.98
1.97245	99.98
1.98912	99.98
2.00578	99.98
2.02245	99.97
2.03912	99.98
2.05578	99.98
2.07245	99.97
2.08912	99.98
2.10578	99.97
2.12245	99.98
2.13912	99.97
2.15578	99.98
2.17245	99.97
2.18912	99.97
2.20578	99.97
2.22245	99.97
2.23912	99.97
2.25578	99.97
2.27245	99.97
2.28912	99.97
2.30578	99.97
2.32245	99.97
2.33912	99.97
2.35578	99.97
2.37245	99.97
2.38912	99.97
2.40578	99.97
2.42245	99.97
2.43912	99.97
2.45578	99.97
2.47245	99.96
2.48912	99.97
2.50578	99.96
2.52245	99.97
2.53912	99.97
2.55578	99.97
2.57245	99.97
2.58912	99.97
2.60578	99.97
2.62245	99.97
2.63912	99.97
2.65578	99.97
2.67245	99.98
2.68912	99.98
2.70578	99.98
2.72245	99.98
2.73912	99.98
2.75578	99.98
2.77245	99.98
2.78912	99.98
2.80578	99.98
2.82245	99.98
2.83912	99.99
2.85578	99.99
2.87245	99.99
2.88912	99.99
2.90578	100.00
2.92245	99.99
2.93912	99.99
2.95578	99.99
2.97245	100.00
2.98912	100.00
3.00578	100.00
3.02245	100.00
3.03912	100.00
3.05578	100.01
3.07245	100.01
3.08912	100.01
3.10578	100.01
3.12245	100.01
3.13912	100.02
3.15578	100.02
3.17245	100.02
3.18912	100.01
3.20578	100.02
3.22245	100.02
3.23912	100.02
3.25578	100.02
3.27245	100.02
3.28912	100.02
3.30578	100.03
3.32245	100.02
3.33912	100.03
3.35578	100.02
3.37245	100.03
3.38912	100.03
3.40578	100.03
3.42245	100.03
3.43912	100.03
3.45578	100.03
3.47245	100.03
3.48912	100.03
3.50578	100.04
3.52245	100.04
3.53912	100.04
3.55578	100.04
3.57245	100.04
3.58912	100.04
3.60578	100.04
3.62245	100.04
3.63912	100.03
3.65578	100.04
3.67245	100.04
3.68912	100.04
3.70578	100.04
3.72245	100.04
3.73912	100.04
3.75578	100.04
3.77245	100.04
3.78912	100.04
3.80578	100.04
3.82245	100.04
3.83912	100.04
3.85578	100.04
3.87245	100.05
3.88912	100.04
3.90578	100.04
3.92245	100.04
3.93912	100.04
3.95578	100.04
3.97245	100.04
3.98912	100.05

[Status Trace (Carrier Gas Pressure)]
Interval(msec)	1000
# of Points	240
Start Time(min)	0.006
End Time(min)	3.989
Intensity Units	
Intensity Multiplier	1
R.Time (min)	Intensity
0.00578	58.00
0.02245	55.69
0.03912	56.88
0.05578	58.96
0.07245	59.64
0.08912	58.12
0.10578	57.97
0.12245	58.01
0.13912	58.01
0.15578	58.01
0.17245	58.00
0.18912	58.00
0.20578	58.00
0.22245	58.00
0.23912	58.00
0.25578	58.00
0.27245	58.00
0.28912	58.00
0.30578	58.00
0.32245	58.00
0.33912	58.00
0.35578	58.00
0.37245	58.00
0.38912	58.00
0.40578	58.00
0.42245	58.00
0.43912	58.00
0.45578	58.00
0.47245	58.00
0.48912	58.00
0.50578	58.00
0.52245	58.00
0.53912	58.00
0.55578	58.00
0.57245	58.00
0.58912	58.00
0.60578	58.00
0.62245	58.00
0.63912	58.00
0.65578	58.00
0.67245	58.00
0.68912	58.00
0.70578	58.00
0.72245	58.00
0.73912	58.00
0.75578	58.00
0.77245	58.00
0.78912	58.00
0.80578	58.00
0.82245	58.00
0.83912	58.00
0.85578	58.00
0.87245	58.00
0.88912	58.00
0.90578	58.00
0.92245	58.00
0.93912	58.00
0.95578	58.00
0.97245	58.00
0.98912	58.00
1.00578	58.00
1.02245	58.00
1.03912	58.00
1.05578	58.00
1.07245	58.00
1.08912	58.00
1.10578	58.00
1.12245	58.00
1.13912	58.00
1.15578	58.00
1.17245	58.00
1.18912	58.00
1.20578	58.00
1.22245	58.00
1.23912	58.00
1.25578	58.00
1.27245	58.00
1.28912	58.00
1.30578	58.00
1.32245	58.00
1.33912	58.00
1.35578	58.00
1.37245	58.00
1.38912	58.00
1.40578	58.00
1.42245	58.00
1.43912	58.00
1.45578	58.00
1.47245	58.00
1.48912	58.00
1.50578	58.00
1.52245	58.00
1.53912	58.00
1.55578	58.00
1.57245	58.00
1.58912	58.00
1.60578	58.00
1.62245	58.00
1.63912	58.01
1.65578	58.00
1.67245	58.01
1.68912	58.01
1.70578	58.00
1.72245	58.00
1.73912	58.00
1.75578	58.00
1.77245	58.00
1.78912	58.00
1.80578	58.00
1.82245	58.00
1.83912	58.00
1.85578	58.00
1.87245	58.00
1.88912	58.00
1.90578	58.00
1.92245	58.00
1.93912	58.00
1.95578	58.00
1.97245	58.00
1.98912	58.00
2.00578	58.00
2.02245	58.00
2.03912	58.00
2.05578	58.00
2.07245	58.00
2.08912	58.00
2.10578	58.00
2.12245	58.00
2.13912	58.00
2.15578	58.00
2.17245	58.00
2.18912	58.00
2.20578	58.00
2.22245	58.00
2.23912	58.00
2.25578	58.00
2.27245	58.00
2.28912	58.00
2.30578	58.00
2.32245	58.00
2.33912	58.00
2.35578	58.00
2.37245	58.00
2.38912	57.99
2.40578	57.99
2.42245	58.00
2.43912	58.00
2.45578	58.00
2.47245	58.00
2.48912	58.00
2.50578	57.99
2.52245	57.98
2.53912	58.00
2.55578	58.00
2.57245	58.00
2.58912	58.00
2.60578	58.00
2.62245	58.00
2.63912	58.00
2.65578	58.00
2.67245	58.00
2.68912	58.00
2.70578	58.00
2.72245	58.00
2.73912	58.00
2.75578	58.00
2.77245	58.00
2.78912	58.00
2.80578	58.00
2.82245	58.00
2.83912	58.00
2.85578	58.00
2.87245	58.00
2.88912	58.00
2.90578	58.00
2.92245	58.00
2.93912	58.00
2.95578	58.00
2.97245	58.00
2.98912	58.00
3.00578	58.00
3.02245	58.00
3.03912	58.00
3.05578	58.00
3.07245	58.00
3.08912	58.00
3.10578	58.00
3.12245	58.00
3.13912	58.00
3.15578	58.00
3.17245	58.00
3.18912	58.00
3.20578	58.00
3.22245	58.00
3.23912	58.00
3.25578	58.00
3.27245	58.00
3.28912	58.00
3.30578	58.00
3.32245	58.00
3.33912	58.00
3.35578	58.00
3.37245	58.00
3.38912	58.00
3.40578	58.00
3.42245	58.00
3.43912	58.00
3.45578	58.00
3.47245	58.00
3.48912	58.00
3.50578	58.00
3.52245	58.00
3.53912	58.00
3.55578	58.00
3.57245	58.00
3.58912	58.00
3.60578	58.00
3.62245	58.00
3.63912	58.00
3.65578	58.00
3.67245	58.00
3.68912	58.00
3.70578	58.00
3.72245	58.00
3.73912	58.00
3.75578	58.00
3.77245	58.00
3.78912	58.00
3.80578	58.00
3.82245	58.00
3.83912	58.00
3.85578	58.00
3.87245	58.00
3.88912	58.00
3.90578	58.00
3.92245	58.00
3.93912	58.00
3.95578	58.00
3.97245	58.00
3.98912	58.00

[Status Trace (Carrier Gas Flow)]
Interval(msec)	1000
# of Points	240
Start Time(min)	0.006
End Time(min)	3.989
Intensity Units	
Intensity Multiplier	1
R.Time (min)	Intensity
0.00578	34.52
0.02245	34.54
0.03912	34.54
0.05578	34.55
0.07245	34.50
0.08912	34.52
0.10578	34.52
0.12245	34.52
0.13912	34.52
0.15578	34.52
0.17245	34.52
0.18912	34.52
0.20578	34.52
0.22245	34.52
0.23912	34.52
0.25578	34.52
0.27245	34.52
0.28912	34.52
0.30578	34.52
0.32245	34.52
0.33912	34.52
0.35578	34.52
0.37245	34.52
0.38912	34.52
0.40578	34.52
0.42245	34.52
0.43912	34.52
0.45578	34.52
0.47245	34.52
0.48912	34.52
0.50578	34.52
0.52245	34.52
0.53912	34.51
0.55578	34.52
0.57245	34.52
0.58912	34.51
0.60578	34.52
0.62245	34.52
0.63912	34.52
0.65578	34.52
0.67245	34.52
0.68912	34.52
0.70578	34.52
0.72245	34.52
0.73912	34.52
0.75578	34.52
0.77245	34.51
0.78912	34.52
0.80578	34.52
0.82245	34.52
0.83912	34.52
0.85578	34.52
0.87245	34.52
0.88912	34.52
0.90578	34.52
0.92245	34.52
0.93912	34.52
0.95578	34.52
0.97245	34.52
0.98912	34.52
1.00578	34.52
1.02245	34.52
1.03912	34.52
1.05578	34.52
1.07245	34.52
1.08912	34.52
1.10578	34.52
1.12245	34.52
1.13912	34.52
1.15578	34.52
1.17245	34.52
1.18912	34.52
1.20578	34.52
1.22245	34.52
1.23912	34.52
1.25578	34.52
1.27245	34.52
1.28912	34.52
1.30578	34.52
1.32245	34.52
1.33912	34.52
1.35578	34.52
1.37245	34.52
1.38912	34.52
1.40578	34.52
1.42245	34.52
1.43912	34.52
1.45578	34.52
1.47245	34.52
1.48912	34.52
1.50578	34.52
1.52245	34.52
1.53912	34.52
1.55578	34.52
1.57245	34.52
1.58912	34.52
1.60578	34.52
1.62245	34.52
1.63912	34.52
1.65578	34.52
1.67245	34.52
1.68912	34.52
1.70578	34.52
1.72245	34.52
1.73912	34.52
1.75578	34.52
1.77245	34.52
1.78912	34.52
1.80578	34.52
1.82245	34.52
1.83912	34.52
1.85578	34.52
1.87245	34.52
1.88912	34.52
1.90578	34.52
1.92245	34.52
1.93912	34.52
1.95578	34.52
1.97245	34.52
1.98912	34.52
2.00578	34.52
2.02245	34.52
2.03912	34.52
2.05578	34.52
2.07245	34.52
2.08912	34.52
2.10578	34.52
2.12245	34.52
2.13912	34.52
2.15578	34.52
2.17245	34.52
2.18912	34.52
2.20578	34.52
2.22245	34.51
2.23912	34.52
2.25578	34.52
2.27245	34.52
2.28912	34.52
2.30578	34.52
2.32245	34.52
2.33912	34.52
2.35578	34.52
2.37245	34.52
2.38912	34.52
2.40578	34.52
2.42245	34.52
2.43912	34.52
2.45578	34.52
2.47245	34.52
2.48912	34.52
2.50578	34.52
2.52245	34.52
2.53912	34.52
2.55578	34.52
2.57245	34.51
2.58912	34.52
2.60578	34.52
2.62245	34.51
2.63912	34.52
2.65578	34.52
2.67245	34.52
2.68912	34.52
2.70578	34.52
2.72245	34.52
2.73912	34.52
2.75578	34.52
2.77245	34.52
2.78912	34.52
2.80578	34.52
2.82245	34.52
2.83912	34.52
2.85578	34.51
2.87245	34.52
2.88912	34.51
2.90578	34.53
2.92245	34.51
2.93912	34.52
2.95578	34.51
2.97245	34.52
2.98912	34.52
3.00578	34.52
3.02245	34.52
3.03912	34.52
3.05578	34.52
3.07245	34.52
3.08912	34.52
3.10578	34.52
3.12245	34.52
3.13912	34.52
3.15578	34.52
3.17245	34.52
3.18912	34.52
3.20578	34.52
3.22245	34.52
3.23912	34.52
3.25578	34.52
3.27245	34.52
3.28912	34.52
3.30578	34.52
3.32245	34.52
3.33912	34.52
3.35578	34.52
3.37245	34.52
3.38912	34.52
3.40578	34.51
3.42245	34.51
3.43912	34.52
3.45578	34.52
3.47245	34.51
3.48912	34.52
3.50578	34.52
3.52245	34.53
3.53912	34.51
3.55578	34.52
3.57245	34.51
3.58912	34.52
3.60578	34.52
3.62245	34.52
3.63912	34.51
3.65578	34.52
3.67245	34.52
3.68912	34.51
3.70578	34.51
3.72245	34.52
3.73912	34.52
3.75578	34.51
3.77245	34.53
3.78912	34.51
3.80578	34.52
3.82245	34.52
3.83912	34.52
3.85578	34.51
3.87245	34.52
3.88912	34.52
3.90578	34.52
3.92245	34.52
3.93912	34.52
3.95578	34.52
3.97245	34.52
3.98912	34.52

[Status Trace (Column Flow)]
Interval(msec)	1000
# of Points	240
Start Time(min)	0.006
End Time(min)	3.989
Intensity Units	
Intensity Multiplier	1
R.Time (min)	Intensity
0.00578	5.57
0.02245	5.30
0.03912	5.44
0.05578	5.69
0.07245	5.77
0.08912	5.59
0.10578	5.57
0.12245	5.57
0.13912	5.57
0.15578	5.57
0.17245	5.57
0.18912	5.57
0.20578	5.57
0.22245	5.57
0.23912	5.57
0.25578	5.57
0.27245	5.57
0.28912	5.57
0.30578	5.57
0.32245	5.57
0.33912	5.57
0.35578	5.57
0.37245	5.57
0.38912	5.57
0.40578	5.57
0.42245	5.57
0.43912	5.57
0.45578	5.57
0.47245	5.58
0.48912	5.58
0.50578	5.58
0.52245	5.57
0.53912	5.57
0.55578	5.57
0.57245	5.57
0.58912	5.57
0.60578	5.57
0.62245	5.57
0.63912	5.57
0.65578	5.57
0.67245	5.57
0.68912	5.57
0.70578	5.57
0.72245	5.57
0.73912	5.57
0.75578	5.57
0.77245	5.57
0.78912	5.57
0.80578	5.57
0.82245	5.57
0.83912	5.57
0.85578	5.57
0.87245	5.57
0.88912	5.57
0.90578	5.57
0.92245	5.57
0.93912	5.57
0.95578	5.57
0.97245	5.57
0.98912	5.57
1.00578	5.57
1.02245	5.57
1.03912	5.57
1.05578	5.57
1.07245	5.57
1.08912	5.57
1.10578	5.57
1.12245	5.57
1.13912	5.57
1.15578	5.57
1.17245	5.57
1.18912	5.57
1.20578	5.57
1.22245	5.57
1.23912	5.57
1.25578	5.57
1.27245	5.57
1.28912	5.57
1.30578	5.57
1.32245	5.57
1.33912	5.57
1.35578	5.57
1.37245	5.57
1.38912	5.57
1.40578	5.57
1.42245	5.57
1.43912	5.57
1.45578	5.57
1.47245	5.58
1.48912	5.57
1.50578	5.57
1.52245	5.57
1.53912	5.57
1.55578	5.57
1.57245	5.57
1.58912	5.57
1.60578	5.57
1.62245	5.57
1.63912	5.56
1.65578	5.56
1.67245	5.55
1.68912	5.53
1.70578	5.52
1.72245	5.51
1.73912	5.50
1.75578	5.49
1.77245	5.48
1.78912	5.47
1.80578	5.46
1.82245	5.45
1.83912	5.44
1.85578	5.43
1.87245	5.42
1.88912	5.41
1.90578	5.40
1.92245	5.39
1.93912	5.38
1.95578	5.37
1.97245	5.36
1.98912	5.35
2.00578	5.34
2.02245	5.33
2.03912	5.32
2.05578	5.31
2.07245	5.30
2.08912	5.29
2.10578	5.29
2.12245	5.27
2.13912	5.26
2.15578	5.26
2.17245	5.25
2.18912	5.24
2.20578	5.23
2.22245	5.22
2.23912	5.21
2.25578	5.20
2.27245	5.19
2.28912	5.18
2.30578	5.17
2.32245	5.16
2.33912	5.15
2.35578	5.14
2.37245	5.14
2.38912	5.13
2.40578	5.13
2.42245	5.14
2.43912	5.14
2.45578	5.14
2.47245	5.14
2.48912	5.13
2.50578	5.13
2.52245	5.13
2.53912	5.13
2.55578	5.13
2.57245	5.13
2.58912	5.13
2.60578	5.13
2.62245	5.13
2.63912	5.13
2.65578	5.13
2.67245	5.13
2.68912	5.13
2.70578	5.13
2.72245	5.13
2.73912	5.13
2.75578	5.13
2.77245	5.13
2.78912	5.13
2.80578	5.13
2.82245	5.13
2.83912	5.13
2.85578	5.13
2.87245	5.13
2.88912	5.13
2.90578	5.13
2.92245	5.13
2.93912	5.13
2.95578	5.13
2.97245	5.13
2.98912	5.13
3.00578	5.13
3.02245	5.13
3.03912	5.13
3.05578	5.13
3.07245	5.13
3.08912	5.13
3.10578	5.13
3.12245	5.13
3.13912	5.13
3.15578	5.13
3.17245	5.13
3.18912	5.13
3.20578	5.13
3.22245	5.13
3.23912	5.12
3.25578	5.12
3.27245	5.12
3.28912	5.12
3.30578	5.12
3.32245	5.12
3.33912	5.12
3.35578	5.12
3.37245	5.12
3.38912	5.12
3.40578	5.12
3.42245	5.13
3.43912	5.13
3.45578	5.13
3.47245	5.13
3.48912	5.13
3.50578	5.13
3.52245	5.13
3.53912	5.13
3.55578	5.13
3.57245	5.13
3.58912	5.13
3.60578	5.13
3.62245	5.13
3.63912	5.13
3.65578	5.13
3.67245	5.13
3.68912	5.13
3.70578	5.13
3.72245	5.13
3.73912	5.12
3.75578	5.12
3.77245	5.12
3.78912	5.12
3.80578	5.12
3.82245	5.12
3.83912	5.12
3.85578	5.12
3.87245	5.12
3.88912	5.12
3.90578	5.12
3.92245	5.12
3.93912	5.12
3.95578	5.12
3.97245	5.12
3.98912	5.12

[Status Trace (Linear Velocity)]
Interval(msec)	1000
# of Points	240
Start Time(min)	0.006
End Time(min)	3.989
Intensity Units	
Intensity Multiplier	1
R.Time (min)	Intensity
0.00578	39.02
0.02245	37.51
0.03912	38.29
0.05578	39.65
0.07245	40.10
0.08912	39.10
0.10578	39.01
0.12245	39.03
0.13912	39.03
0.15578	39.03
0.17245	39.03
0.18912	39.03
0.20578	39.03
0.22245	39.03
0.23912	39.03
0.25578	39.03
0.27245	39.03
0.28912	39.03
0.30578	39.03
0.32245	39.03
0.33912	39.02
0.35578	39.02
0.37245	39.02
0.38912	39.03
0.40578	39.03
0.42245	39.03
0.43912	39.03
0.45578	39.03
0.47245	39.03
0.48912	39.03
0.50578	39.03
0.52245	39.03
0.53912	39.03
0.55578	39.03
0.57245	39.03
0.58912	39.03
0.60578	39.03
0.62245	39.03
0.63912	39.03
0.65578	39.03
0.67245	39.03
0.68912	39.03
0.70578	39.03
0.72245	39.03
0.73912	39.03
0.75578	39.03
0.77245	39.03
0.78912	39.03
0.80578	39.03
0.82245	39.03
0.83912	39.03
0.85578	39.03
0.87245	39.03
0.88912	39.03
0.90578	39.03
0.92245	39.03
0.93912	39.03
0.95578	39.03
0.97245	39.03
0.98912	39.03
1.00578	39.03
1.02245	39.03
1.03912	39.03
1.05578	39.03
1.07245	39.03
1.08912	39.03
1.10578	39.03
1.12245	39.03
1.13912	39.03
1.15578	39.03
1.17245	39.03
1.18912	39.03
1.20578	39.03
1.22245	39.03
1.23912	39.03
1.25578	39.03
1.27245	39.03
1.28912	39.03
1.30578	39.03
1.32245	39.03
1.33912	39.03
1.35578	39.03
1.37245	39.03
1.38912	39.03
1.40578	39.03
1.42245	39.03
1.43912	39.03
1.45578	39.03
1.47245	39.03
1.48912	39.03
1.50578	39.03
1.52245	39.03
1.53912	39.03
1.55578	39.03
1.57245	39.03
1.58912	39.03
1.60578	39.03
1.62245	39.01
1.63912	39.00
1.65578	38.98
1.67245	38.95
1.68912	38.91
1.70578	38.88
1.72245	38.84
1.73912	38.81
1.75578	38.78
1.77245	38.75
1.78912	38.72
1.80578	38.69
1.82245	38.65
1.83912	38.62
1.85578	38.59
1.87245	38.56
1.88912	38.53
1.90578	38.50
1.92245	38.47
1.93912	38.44
1.95578	38.41
1.97245	38.38
1.98912	38.35
2.00578	38.32
2.02245	38.29
2.03912	38.26
2.05578	38.23
2.07245	38.20
2.08912	38.17
2.10578	38.14
2.12245	38.11
2.13912	38.08
2.15578	38.05
2.17245	38.02
2.18912	37.99
2.20578	37.96
2.22245	37.93
2.23912	37.90
2.25578	37.87
2.27245	37.84
2.28912	37.81
2.30578	37.78
2.32245	37.75
2.33912	37.72
2.35578	37.70
2.37245	37.68
2.38912	37.67
2.40578	37.67
2.42245	37.67
2.43912	37.67
2.45578	37.67
2.47245	37.67
2.48912	37.67
2.50578	37.66
2.52245	37.66
2.53912	37.66
2.55578	37.67
2.57245	37.66
2.58912	37.66
2.60578	37.66
2.62245	37.66
2.63912	37.66
2.65578	37.66
2.67245	37.66
2.68912	37.66
2.70578	37.66
2.72245	37.66
2.73912	37.66
2.75578	37.66
2.77245	37.66
2.78912	37.66
2.80578	37.65
2.82245	37.65
2.83912	37.65
2.85578	37.65
2.87245	37.65
2.88912	37.65
2.90578	37.65
2.92245	37.65
2.93912	37.65
2.95578	37.65
2.97245	37.65
2.98912	37.65
3.00578	37.65
3.02245	37.65
3.03912	37.65
3.05578	37.65
3.07245	37.65
3.08912	37.65
3.10578	37.65
3.12245	37.65
3.13912	37.65
3.15578	37.64
3.17245	37.64
3.18912	37.64
3.20578	37.64
3.22245	37.64
3.23912	37.64
3.25578	37.64
3.27245	37.64
3.28912	37.64
3.30578	37.63
3.32245	37.63
3.33912	37.64
3.35578	37.64
3.37245	37.64
3.38912	37.64
3.40578	37.64
3.42245	37.64
3.43912	37.64
3.45578	37.64
3.47245	37.64
3.48912	37.64
3.50578	37.65
3.52245	37.65
3.53912	37.65
3.55578	37.65
3.57245	37.65
3.58912	37.65
3.60578	37.65
3.62245	37.64
3.63912	37.64
3.65578	37.64
3.67245	37.64
3.68912	37.64
3.70578	37.64
3.72245	37.64
3.73912	37.64
3.75578	37.64
3.77245	37.64
3.78912	37.64
3.80578	37.64
3.82245	37.64
3.83912	37.64
3.85578	37.64
3.87245	37.64
3.88912	37.64
3.90578	37.64
3.92245	37.64
3.93912	37.64
3.95578	37.64
3.97245	37.64
3.98912	37.64

