[Header]
Application Name	LabSolutions
Version	5.110
Data File Name	C:\Users\User\Desktop\GC Analyses\Jack\Nachusa Grasslands Sampling\T0 Timepoint July 12th\T0_07122022_024.gcd
Output Date	3/14/2023
Output Time	3:40:35 PM

[File Information]
Type	Data File
Generated	3/7/2023 4:21:28 PM
Generated by	System Administrator
Modified	3/7/2023 4:28:10 PM
Modified by	System Administrator

[Sample Information]
Operator Name	System Administrator
Acquired	3/7/2023 4:24:09 PM
Sample Type	0:Unknown
Level	0
Sample Name	024
Sample ID	024
ISTD Amount1	1
ISTD Amount2	1
ISTD Amount3	1
ISTD Amount4	1
ISTD Amount5	1
ISTD Amount6	1
ISTD Amount7	1
ISTD Amount8	1
ISTD Amount9	1
ISTD Amount10	1
ISTD Amount11	1
ISTD Amount12	1
ISTD Amount13	1
ISTD Amount14	1
ISTD Amount15	1
ISTD Amount16	1
ISTD Amount17	1
ISTD Amount18	1
ISTD Amount19	1
ISTD Amount20	1
ISTD Amount21	1
ISTD Amount22	1
ISTD Amount23	1
ISTD Amount24	1
ISTD Amount25	1
ISTD Amount26	1
ISTD Amount27	1
ISTD Amount28	1
ISTD Amount29	1
ISTD Amount30	1
ISTD Amount31	1
ISTD Amount32	1
Sample Amount	1
Dilution Factor	1
Vial#	23
Injection Volume	1
Injection Count	1
Bar Code	

[Original Files]
Data File	C:\Users\User\Desktop\GC Analyses\Jack\Nachusa Grasslands Sampling\T0 Timepoint July 12th\T0_07122022_024.gcd
Method File	C:\LabSolutions\Data\GHG_4min_2022\ghg3_togas_w_acet_4 min_new_int.gcm
Batch File	C:\LabSolutions\Data\AutoSamplerTesting\T0_07122022.gcb
Report Format File	c:\LabSolutions\System\DEFAULT.lsr

[File Description]


[Configuration]
Instrument Name	C0B7VH3-Instrument1
Instrument #	1
Line #	1
# of Detectors	3
Detector ID	DET#1	DET#2	DET#3
Detector Name	FID	PTCD	ECD
# of Channels	1	1	1

[Peak Table(Ch1)]
# of Peaks	3
Peak#	R.Time	I.Time	F.Time	Area	Height	A/H	Conc.	Mark	ID#	Name	k'	Plate #	Plate Ht.	Tailing	Resolution	Sep.Factor	Area Ratio	Height Ratio	Conc. %	Norm Conc.
1	1.476	1.439	1.538	34178	16209	2.109	241.297	   	1	CO	0.000	9207	16.292	1.351	0.000	0.000	0	0	35.337	35.337
2	1.567	1.538	1.633	5108	2391	2.136	98.770	 V 	2	CH4	0.062	10138	14.797	0.000	1.481	0.000	0	0	14.464	14.464
3	1.996	1.949	2.499	1365793	643234	2.123	342.777	   	3	CO2	0.353	17306	8.667	1.324	6.978	5.680	0	0	50.198	50.198

[Peak Table(Ch2)]
# of Peaks	0

[Peak Table(Ch3)]
# of Peaks	4
Peak#	R.Time	I.Time	F.Time	Area	Height	A/H	Conc.	Mark	ID#	Name	k'	Plate #	Plate Ht.	Tailing	Resolution	Sep.Factor	Area Ratio	Height Ratio	Conc. %	Norm Conc.
1	2.462	2.253	2.524	1773	363	4.880	0.000	   			0.000	4249	35.304	0.000	0.000	0.000	0	0	0.000	0.000
2	2.550	2.524	2.638	1092	229	4.761	0.000	 V 			0.036	2402	62.436	0.000	0.490	0.000	0	0	0.000	0.000
3	2.759	2.649	2.807	919	121	7.590	0.023	   	1	N2O	0.121	1004	149.351	0.000	0.751	3.375	0	0	4.740	4.740
4	2.873	2.807	3.173	18462	4738	3.897	0.472	 V 	1	N2O	0.167	13301	11.277	1.640	0.508	1.383	0	0	95.260	95.260

[Compound Results(Ch1)]
# of IDs	6
ID#	Name	R.Time	Area	Height	Conc.	Curve	3rd	2nd	1st	Constant	Area Ratio	Height Ratio	Conc. %	Norm Conc.
1	CO	1.476	34178	16209	241.297	Linear	0.000000e+00	0.000000e+00	1.416423e+002	0.000000e+00	0	0	35.337	35.337
2	CH4	1.567	5108	2391	98.770	Linear	0.000000e+00	0.000000e+00	5.171738e+001	0.000000e+00	0	0	14.464	14.464
3	CO2	1.996	1365793	643234	342.777	Linear	0.000000e+00	0.000000e+00	3.984494e+003	0.000000e+00	0	0	50.198	50.198
4	Ethylene	0.000	0	0	0.000	Linear	0.000000e+00	0.000000e+00	0.000000e+00	0.000000e+00	0	0	0.000	0.000
5	Acetylene	0.000	0	0	0.000	Linear	0.000000e+00	0.000000e+00	0.000000e+00	0.000000e+00	0	0	0.000	0.000
6	Ethane	0.000	0	0	0.000	Linear	0.000000e+00	0.000000e+00	0.000000e+00	0.000000e+00	0	0	0.000	0.000

[Compound Results(Ch2)]
# of IDs	5
ID#	Name	R.Time	Area	Height	Conc.	Curve	3rd	2nd	1st	Constant	Area Ratio	Height Ratio	Conc. %	Norm Conc.
1	Hydrogen	0.000	0	0	0.000	Linear	0.000000e+00	0.000000e+00	0.000000e+00	0.000000e+00	0	0	0.000	0.000
2	Oxygen	0.000	0	0	0.000	Linear	0.000000e+00	0.000000e+00	0.000000e+00	0.000000e+00	0	0	0.000	0.000
3	Nitrogen	0.000	0	0	0.000	Linear	0.000000e+00	0.000000e+00	0.000000e+00	0.000000e+00	0	0	0.000	0.000
4	Methane	0.000	0	0	0.000	Linear	0.000000e+00	0.000000e+00	0.000000e+00	0.000000e+00	0	0	0.000	0.000
5	Carbon Monoxide	0.000	0	0	0.000	Linear	0.000000e+00	0.000000e+00	0.000000e+00	0.000000e+00	0	0	0.000	0.000

[Compound Results(Ch3)]
# of IDs	2
ID#	Name	R.Time	Area	Height	Conc.	Curve	3rd	2nd	1st	Constant	Area Ratio	Height Ratio	Conc. %	Norm Conc.
1	N2O	2.873	19381	4859	0.495	Linear	0.000000e+00	0.000000e+00	3.915173e+004	0.000000e+00	0	0	100.000	100.000
2	SF6	0.000	0	0	0.000	Linear	0.000000e+00	0.000000e+00	0.000000e+00	0.000000e+00	0	0	0.000	0.000

[Group Results(Ch1)]
# of Groups	0

[Group Results(Ch2)]
# of Groups	0

[Group Results(Ch3)]
# of Groups	0

[Chromatogram (Ch1)]
Interval(msec)	220
# of Points	1091
Start Time(min)	0.002
End Time(min)	3.998
R.Time (min)	Intensity
0.00167	-19
0.00533	-15
0.00900	-10
0.01267	-7
0.01633	-4
0.02000	1
0.02367	5
0.02733	8
0.03100	12
0.03467	15
0.03833	19
0.04200	25
0.04567	31
0.04933	34
0.05300	35
0.05667	32
0.06033	26
0.06400	21
0.06767	15
0.07133	12
0.07500	11
0.07867	17
0.08233	29
0.08600	39
0.08967	44
0.09333	43
0.09700	37
0.10067	28
0.10433	22
0.10800	19
0.11167	16
0.11533	14
0.11900	12
0.12267	11
0.12633	11
0.13000	12
0.13367	14
0.13733	16
0.14100	19
0.14467	19
0.14833	20
0.15200	19
0.15567	20
0.15933	23
0.16300	26
0.16667	32
0.17033	40
0.17400	46
0.17767	48
0.18133	42
0.18500	36
0.18867	36
0.19233	39
0.19600	41
0.19967	41
0.20333	41
0.20700	42
0.21067	45
0.21433	47
0.21800	45
0.22167	41
0.22533	37
0.22900	34
0.23267	34
0.23633	36
0.24000	38
0.24367	41
0.24733	40
0.25100	36
0.25467	33
0.25833	31
0.26200	29
0.26567	25
0.26933	20
0.27300	16
0.27667	17
0.28033	23
0.28400	33
0.28767	40
0.29133	43
0.29500	42
0.29867	41
0.30233	38
0.30600	38
0.30967	43
0.31333	49
0.31700	53
0.32067	53
0.32433	52
0.32800	49
0.33167	44
0.33533	38
0.33900	32
0.34267	29
0.34633	28
0.35000	27
0.35367	23
0.35733	20
0.36100	20
0.36467	27
0.36833	35
0.37200	43
0.37567	47
0.37933	49
0.38300	51
0.38667	57
0.39033	63
0.39400	66
0.39767	65
0.40133	60
0.40500	54
0.40867	48
0.41233	39
0.41600	28
0.41967	21
0.42333	17
0.42700	16
0.43067	17
0.43433	19
0.43800	23
0.44167	29
0.44533	34
0.44900	38
0.45267	43
0.45633	50
0.46000	59
0.46367	65
0.46733	67
0.47100	64
0.47467	63
0.47833	62
0.48200	60
0.48567	56
0.48933	48
0.49300	39
0.49667	34
0.50033	34
0.50400	37
0.50767	41
0.51133	44
0.51500	45
0.51867	45
0.52233	45
0.52600	46
0.52967	48
0.53333	50
0.53700	52
0.54067	50
0.54433	45
0.54800	41
0.55167	41
0.55533	45
0.55900	51
0.56267	53
0.56633	50
0.57000	43
0.57367	37
0.57733	35
0.58100	33
0.58467	33
0.58833	36
0.59200	41
0.59567	46
0.59933	44
0.60300	36
0.60667	29
0.61033	22
0.61400	18
0.61767	19
0.62133	23
0.62500	27
0.62867	26
0.63233	24
0.63600	25
0.63967	30
0.64333	39
0.64700	50
0.65067	55
0.65433	54
0.65800	49
0.66167	40
0.66533	34
0.66900	32
0.67267	34
0.67633	38
0.68000	40
0.68367	36
0.68733	29
0.69100	24
0.69467	25
0.69833	34
0.70200	41
0.70567	41
0.70933	36
0.71300	32
0.71667	32
0.72033	35
0.72400	40
0.72767	42
0.73133	43
0.73500	46
0.73867	48
0.74233	52
0.74600	57
0.74967	62
0.75333	63
0.75700	57
0.76067	50
0.76433	43
0.76800	38
0.77167	36
0.77533	30
0.77900	24
0.78267	21
0.78633	22
0.79000	24
0.79367	29
0.79733	35
0.80100	38
0.80467	36
0.80833	32
0.81200	28
0.81567	29
0.81933	31
0.82300	36
0.82667	42
0.83033	46
0.83400	45
0.83767	41
0.84133	35
0.84500	30
0.84867	27
0.85233	27
0.85600	30
0.85967	33
0.86333	34
0.86700	34
0.87067	33
0.87433	30
0.87800	29
0.88167	31
0.88533	35
0.88900	38
0.89267	40
0.89633	40
0.90000	36
0.90367	33
0.90733	29
0.91100	26
0.91467	23
0.91833	24
0.92200	27
0.92567	31
0.92933	33
0.93300	33
0.93667	32
0.94033	30
0.94400	29
0.94767	30
0.95133	32
0.95500	29
0.95867	22
0.96233	17
0.96600	17
0.96967	19
0.97333	22
0.97700	22
0.98067	19
0.98433	20
0.98800	23
0.99167	29
0.99533	34
0.99900	37
1.00267	34
1.00633	29
1.01000	22
1.01367	17
1.01733	12
1.02100	10
1.02467	13
1.02833	19
1.03200	25
1.03567	29
1.03933	29
1.04300	27
1.04667	25
1.05033	24
1.05400	24
1.05767	21
1.06133	18
1.06500	14
1.06867	12
1.07233	8
1.07600	4
1.07967	3
1.08333	4
1.08700	5
1.09067	6
1.09433	5
1.09800	6
1.10167	8
1.10533	11
1.10900	15
1.11267	20
1.11633	24
1.12000	23
1.12367	19
1.12733	13
1.13100	8
1.13467	2
1.13833	-4
1.14200	-6
1.14567	-5
1.14933	-2
1.15300	-1
1.15667	-2
1.16033	2
1.16400	8
1.16767	13
1.17133	15
1.17500	18
1.17867	20
1.18233	19
1.18600	20
1.18967	23
1.19333	24
1.19700	21
1.20067	15
1.20433	10
1.20800	9
1.21167	10
1.21533	14
1.21900	20
1.22267	23
1.22633	21
1.23000	20
1.23367	15
1.23733	10
1.24100	8
1.24467	8
1.24833	9
1.25200	10
1.25567	11
1.25933	12
1.26300	13
1.26667	16
1.27033	18
1.27400	19
1.27767	17
1.28133	15
1.28500	16
1.28867	18
1.29233	19
1.29600	16
1.29967	15
1.30333	16
1.30700	18
1.31067	18
1.31433	19
1.31800	22
1.32167	21
1.32533	20
1.32900	20
1.33267	23
1.33633	27
1.34000	30
1.34367	33
1.34733	36
1.35100	38
1.35467	37
1.35833	33
1.36200	27
1.36567	25
1.36933	25
1.37300	24
1.37667	24
1.38033	25
1.38400	25
1.38767	25
1.39133	24
1.39500	23
1.39867	24
1.40233	28
1.40600	37
1.40967	49
1.41333	57
1.41700	59
1.42067	54
1.42433	44
1.42800	33
1.43167	25
1.43533	24
1.43900	44
1.44267	130
1.44633	355
1.45000	958
1.45367	2450
1.45733	5011
1.46100	8152
1.46467	11185
1.46833	13672
1.47200	15413
1.47567	16255
1.47933	16054
1.48300	14797
1.48667	12724
1.49033	10272
1.49400	7884
1.49767	5840
1.50133	4232
1.50500	3036
1.50867	2180
1.51233	1584
1.51600	1176
1.51967	895
1.52333	702
1.52700	565
1.53067	466
1.53433	396
1.53800	361
1.54167	394
1.54533	548
1.54900	852
1.55267	1262
1.55633	1682
1.56000	2038
1.56367	2298
1.56733	2439
1.57100	2427
1.57467	2245
1.57833	1924
1.58200	1538
1.58567	1163
1.58933	848
1.59300	608
1.59667	435
1.60033	322
1.60400	254
1.60767	217
1.61133	192
1.61500	168
1.61867	140
1.62233	112
1.62600	87
1.62967	66
1.63333	49
1.63700	41
1.64067	40
1.64433	45
1.64800	51
1.65167	55
1.65533	56
1.65900	58
1.66267	66
1.66633	79
1.67000	87
1.67367	87
1.67733	79
1.68100	71
1.68467	66
1.68833	62
1.69200	59
1.69567	55
1.69933	50
1.70300	44
1.70667	39
1.71033	37
1.71400	39
1.71767	43
1.72133	47
1.72500	48
1.72867	49
1.73233	47
1.73600	49
1.73967	53
1.74333	53
1.74700	47
1.75067	41
1.75433	37
1.75800	37
1.76167	41
1.76533	50
1.76900	59
1.77267	65
1.77633	67
1.78000	71
1.78367	77
1.78733	79
1.79100	74
1.79467	67
1.79833	65
1.80200	66
1.80567	67
1.80933	64
1.81300	58
1.81667	52
1.82033	46
1.82400	39
1.82767	30
1.83133	24
1.83500	25
1.83867	30
1.84233	35
1.84600	37
1.84967	41
1.85333	47
1.85700	52
1.86067	53
1.86433	51
1.86800	49
1.87167	51
1.87533	57
1.87900	66
1.88267	70
1.88633	68
1.89000	65
1.89367	63
1.89733	60
1.90100	55
1.90467	55
1.90833	56
1.91200	56
1.91567	55
1.91933	54
1.92300	54
1.92667	55
1.93033	56
1.93400	59
1.93767	63
1.94133	66
1.94500	69
1.94867	72
1.95233	89
1.95600	195
1.95967	777
1.96333	3401
1.96700	12570
1.97067	37257
1.97433	88910
1.97800	173914
1.98167	286213
1.98533	408290
1.98900	519304
1.99267	601665
1.99633	643340
2.00000	639236
2.00367	592154
2.00733	513116
2.01100	418214
2.01467	323326
2.01833	239695
2.02200	172423
2.02567	121761
2.02933	85332
2.03300	59933
2.03667	42556
2.04033	30782
2.04400	22819
2.04767	17408
2.05133	13688
2.05500	11086
2.05867	9227
2.06233	7866
2.06600	6847
2.06967	6064
2.07333	5444
2.07700	4940
2.08067	4526
2.08433	4179
2.08800	3881
2.09167	3621
2.09533	3391
2.09900	3190
2.10267	3014
2.10633	2858
2.11000	2714
2.11367	2579
2.11733	2456
2.12100	2347
2.12467	2249
2.12833	2161
2.13200	2076
2.13567	1995
2.13933	1919
2.14300	1847
2.14667	1782
2.15033	1717
2.15400	1655
2.15767	1601
2.16133	1556
2.16500	1516
2.16867	1479
2.17233	1440
2.17600	1400
2.17967	1360
2.18333	1317
2.18700	1277
2.19067	1243
2.19433	1211
2.19800	1182
2.20167	1158
2.20533	1135
2.20900	1110
2.21267	1084
2.21633	1059
2.22000	1038
2.22367	1019
2.22733	1000
2.23100	983
2.23467	965
2.23833	944
2.24200	921
2.24567	899
2.24933	884
2.25300	872
2.25667	862
2.26033	851
2.26400	838
2.26767	827
2.27133	819
2.27500	810
2.27867	797
2.28233	781
2.28600	765
2.28967	748
2.29333	732
2.29700	722
2.30067	718
2.30433	714
2.30800	709
2.31167	702
2.31533	696
2.31900	689
2.32267	682
2.32633	676
2.33000	669
2.33367	661
2.33733	655
2.34100	647
2.34467	636
2.34833	625
2.35200	615
2.35567	609
2.35933	608
2.36300	610
2.36667	613
2.37033	610
2.37400	602
2.37767	592
2.38133	581
2.38500	571
2.38867	562
2.39233	558
2.39600	554
2.39967	550
2.40333	546
2.40700	543
2.41067	543
2.41433	544
2.41800	542
2.42167	536
2.42533	531
2.42900	525
2.43267	521
2.43633	521
2.44000	522
2.44367	525
2.44733	525
2.45100	522
2.45467	514
2.45833	504
2.46200	497
2.46567	493
2.46933	491
2.47300	493
2.47667	495
2.48033	494
2.48400	490
2.48767	482
2.49133	474
2.49500	468
2.49867	466
2.50233	464
2.50600	461
2.50967	460
2.51333	460
2.51700	463
2.52067	467
2.52433	473
2.52800	480
2.53167	489
2.53533	493
2.53900	492
2.54267	483
2.54633	471
2.55000	460
2.55367	452
2.55733	448
2.56100	444
2.56467	439
2.56833	434
2.57200	429
2.57567	425
2.57933	427
2.58300	433
2.58667	435
2.59033	429
2.59400	421
2.59767	415
2.60133	410
2.60500	407
2.60867	407
2.61233	408
2.61600	409
2.61967	408
2.62333	406
2.62700	405
2.63067	406
2.63433	408
2.63800	410
2.64167	411
2.64533	416
2.64900	422
2.65267	426
2.65633	428
2.66000	431
2.66367	430
2.66733	423
2.67100	413
2.67467	405
2.67833	401
2.68200	398
2.68567	397
2.68933	399
2.69300	401
2.69667	401
2.70033	400
2.70400	396
2.70767	391
2.71133	391
2.71500	395
2.71867	400
2.72233	404
2.72600	409
2.72967	412
2.73333	415
2.73700	415
2.74067	410
2.74433	402
2.74800	394
2.75167	391
2.75533	390
2.75900	388
2.76267	386
2.76633	385
2.77000	384
2.77367	383
2.77733	383
2.78100	385
2.78467	387
2.78833	393
2.79200	400
2.79567	402
2.79933	400
2.80300	396
2.80667	391
2.81033	383
2.81400	376
2.81767	372
2.82133	374
2.82500	380
2.82867	388
2.83233	394
2.83600	395
2.83967	391
2.84333	386
2.84700	382
2.85067	380
2.85433	382
2.85800	385
2.86167	383
2.86533	379
2.86900	374
2.87267	369
2.87633	367
2.88000	365
2.88367	367
2.88733	372
2.89100	378
2.89467	383
2.89833	389
2.90200	398
2.90567	405
2.90933	408
2.91300	408
2.91667	402
2.92033	391
2.92400	377
2.92767	365
2.93133	359
2.93500	357
2.93867	358
2.94233	360
2.94600	364
2.94967	368
2.95333	372
2.95700	375
2.96067	377
2.96433	377
2.96800	381
2.97167	385
2.97533	390
2.97900	395
2.98267	402
2.98633	407
2.99000	412
2.99367	414
2.99733	413
3.00100	407
3.00467	400
3.00833	396
3.01200	393
3.01567	390
3.01933	385
3.02300	382
3.02667	379
3.03033	375
3.03400	368
3.03767	361
3.04133	355
3.04500	352
3.04867	354
3.05233	357
3.05600	362
3.05967	370
3.06333	377
3.06700	383
3.07067	385
3.07433	384
3.07800	377
3.08167	369
3.08533	364
3.08900	360
3.09267	356
3.09633	353
3.10000	352
3.10367	355
3.10733	361
3.11100	363
3.11467	363
3.11833	365
3.12200	369
3.12567	367
3.12933	363
3.13300	358
3.13667	358
3.14033	364
3.14400	373
3.14767	379
3.15133	382
3.15500	381
3.15867	381
3.16233	382
3.16600	380
3.16967	373
3.17333	363
3.17700	350
3.18067	335
3.18433	322
3.18800	313
3.19167	309
3.19533	311
3.19900	318
3.20267	331
3.20633	341
3.21000	345
3.21367	345
3.21733	345
3.22100	343
3.22467	339
3.22833	339
3.23200	344
3.23567	349
3.23933	352
3.24300	351
3.24667	348
3.25033	346
3.25400	346
3.25767	344
3.26133	341
3.26500	340
3.26867	346
3.27233	357
3.27600	364
3.27967	367
3.28333	368
3.28700	366
3.29067	362
3.29433	357
3.29800	351
3.30167	343
3.30533	337
3.30900	335
3.31267	333
3.31633	330
3.32000	328
3.32367	328
3.32733	326
3.33100	324
3.33467	322
3.33833	323
3.34200	326
3.34567	329
3.34933	329
3.35300	326
3.35667	324
3.36033	327
3.36400	336
3.36767	343
3.37133	345
3.37500	341
3.37867	334
3.38233	328
3.38600	328
3.38967	330
3.39333	328
3.39700	323
3.40067	317
3.40433	310
3.40800	304
3.41167	301
3.41533	300
3.41900	303
3.42267	311
3.42633	318
3.43000	320
3.43367	318
3.43733	316
3.44100	314
3.44467	318
3.44833	321
3.45200	319
3.45567	314
3.45933	312
3.46300	315
3.46667	316
3.47033	315
3.47400	312
3.47767	312
3.48133	311
3.48500	311
3.48867	313
3.49233	319
3.49600	329
3.49967	335
3.50333	332
3.50700	322
3.51067	313
3.51433	306
3.51800	301
3.52167	297
3.52533	292
3.52900	287
3.53267	281
3.53633	277
3.54000	276
3.54367	279
3.54733	283
3.55100	286
3.55467	289
3.55833	298
3.56200	312
3.56567	321
3.56933	321
3.57300	313
3.57667	301
3.58033	290
3.58400	286
3.58767	286
3.59133	286
3.59500	286
3.59867	286
3.60233	291
3.60600	304
3.60967	314
3.61333	317
3.61700	311
3.62067	298
3.62433	285
3.62800	276
3.63167	271
3.63533	270
3.63900	273
3.64267	275
3.64633	277
3.65000	278
3.65367	276
3.65733	271
3.66100	265
3.66467	264
3.66833	264
3.67200	266
3.67567	267
3.67933	268
3.68300	272
3.68667	279
3.69033	285
3.69400	287
3.69767	285
3.70133	285
3.70500	285
3.70867	283
3.71233	279
3.71600	275
3.71967	272
3.72333	269
3.72700	273
3.73067	283
3.73433	294
3.73800	301
3.74167	301
3.74533	295
3.74900	287
3.75267	280
3.75633	273
3.76000	270
3.76367	270
3.76733	272
3.77100	274
3.77467	274
3.77833	273
3.78200	267
3.78567	262
3.78933	259
3.79300	258
3.79667	257
3.80033	255
3.80400	253
3.80767	248
3.81133	242
3.81500	235
3.81867	231
3.82233	229
3.82600	229
3.82967	232
3.83333	236
3.83700	243
3.84067	249
3.84433	253
3.84800	255
3.85167	260
3.85533	262
3.85900	261
3.86267	257
3.86633	253
3.87000	249
3.87367	244
3.87733	243
3.88100	241
3.88467	238
3.88833	237
3.89200	240
3.89567	246
3.89933	253
3.90300	256
3.90667	260
3.91033	265
3.91400	266
3.91767	262
3.92133	256
3.92500	250
3.92867	242
3.93233	236
3.93600	235
3.93967	241
3.94333	248
3.94700	245
3.95067	235
3.95433	223
3.95800	210
3.96167	199
3.96533	195
3.96900	193
3.97267	192
3.97633	195
3.98000	199
3.98367	199
3.98733	198
3.99100	197
3.99467	198
3.99833	205

[Chromatogram (Ch2)]
Interval(msec)	220
# of Points	1091
Start Time(min)	0.002
End Time(min)	3.998
R.Time (min)	Intensity
0.00167	-0
0.00533	-0
0.00900	-0
0.01267	-1
0.01633	-1
0.02000	-1
0.02367	-2
0.02733	-2
0.03100	-2
0.03467	-1
0.03833	-1
0.04200	-1
0.04567	-1
0.04933	-0
0.05300	-0
0.05667	-0
0.06033	0
0.06400	0
0.06767	0
0.07133	0
0.07500	1
0.07867	1
0.08233	1
0.08600	1
0.08967	1
0.09333	1
0.09700	1
0.10067	1
0.10433	1
0.10800	1
0.11167	1
0.11533	1
0.11900	2
0.12267	2
0.12633	2
0.13000	2
0.13367	2
0.13733	2
0.14100	2
0.14467	2
0.14833	2
0.15200	1
0.15567	1
0.15933	1
0.16300	1
0.16667	1
0.17033	1
0.17400	1
0.17767	1
0.18133	1
0.18500	1
0.18867	1
0.19233	1
0.19600	1
0.19967	1
0.20333	1
0.20700	1
0.21067	0
0.21433	0
0.21800	0
0.22167	-0
0.22533	-1
0.22900	-1
0.23267	-1
0.23633	-1
0.24000	-1
0.24367	-2
0.24733	-2
0.25100	-1
0.25467	-1
0.25833	-1
0.26200	-1
0.26567	-1
0.26933	-0
0.27300	-0
0.27667	-0
0.28033	-0
0.28400	-1
0.28767	-1
0.29133	-1
0.29500	-1
0.29867	-0
0.30233	0
0.30600	0
0.30967	1
0.31333	1
0.31700	1
0.32067	1
0.32433	1
0.32800	1
0.33167	1
0.33533	2
0.33900	2
0.34267	2
0.34633	2
0.35000	2
0.35367	1
0.35733	1
0.36100	1
0.36467	1
0.36833	1
0.37200	0
0.37567	0
0.37933	0
0.38300	0
0.38667	-0
0.39033	-0
0.39400	-0
0.39767	-0
0.40133	-0
0.40500	-1
0.40867	-1
0.41233	-1
0.41600	-1
0.41967	-1
0.42333	-1
0.42700	-1
0.43067	-1
0.43433	-1
0.43800	-2
0.44167	-2
0.44533	-2
0.44900	-3
0.45267	-3
0.45633	-2
0.46000	-2
0.46367	-2
0.46733	-2
0.47100	-2
0.47467	-2
0.47833	-2
0.48200	-2
0.48567	-1
0.48933	-1
0.49300	-1
0.49667	-1
0.50033	-1
0.50400	-1
0.50767	-1
0.51133	-1
0.51500	-0
0.51867	-0
0.52233	-0
0.52600	-0
0.52967	-1
0.53333	-1
0.53700	-1
0.54067	-1
0.54433	-2
0.54800	-2
0.55167	-2
0.55533	-2
0.55900	-2
0.56267	-2
0.56633	-2
0.57000	-2
0.57367	-3
0.57733	-3
0.58100	-3
0.58467	-3
0.58833	-4
0.59200	-4
0.59567	-4
0.59933	-4
0.60300	-4
0.60667	-4
0.61033	-4
0.61400	-4
0.61767	-4
0.62133	-4
0.62500	-4
0.62867	-4
0.63233	-4
0.63600	-4
0.63967	-4
0.64333	-4
0.64700	-4
0.65067	-4
0.65433	-4
0.65800	-3
0.66167	-3
0.66533	-3
0.66900	-3
0.67267	-3
0.67633	-2
0.68000	-2
0.68367	-2
0.68733	-2
0.69100	-1
0.69467	-1
0.69833	-1
0.70200	-0
0.70567	-0
0.70933	0
0.71300	0
0.71667	1
0.72033	1
0.72400	1
0.72767	1
0.73133	1
0.73500	1
0.73867	0
0.74233	0
0.74600	0
0.74967	0
0.75333	1
0.75700	1
0.76067	1
0.76433	1
0.76800	1
0.77167	0
0.77533	0
0.77900	0
0.78267	-0
0.78633	-0
0.79000	-0
0.79367	-0
0.79733	-0
0.80100	-0
0.80467	-0
0.80833	0
0.81200	0
0.81567	0
0.81933	0
0.82300	0
0.82667	0
0.83033	0
0.83400	1
0.83767	1
0.84133	1
0.84500	0
0.84867	0
0.85233	0
0.85600	0
0.85967	0
0.86333	0
0.86700	1
0.87067	1
0.87433	1
0.87800	1
0.88167	1
0.88533	1
0.88900	1
0.89267	1
0.89633	1
0.90000	0
0.90367	-0
0.90733	-1
0.91100	-1
0.91467	-1
0.91833	-1
0.92200	-2
0.92567	-2
0.92933	-2
0.93300	-2
0.93667	-3
0.94033	-3
0.94400	-3
0.94767	-3
0.95133	-3
0.95500	-3
0.95867	-2
0.96233	-2
0.96600	-2
0.96967	-1
0.97333	-1
0.97700	-1
0.98067	-1
0.98433	-2
0.98800	-2
0.99167	-2
0.99533	-2
0.99900	-2
1.00267	-1
1.00633	-1
1.01000	-0
1.01367	-0
1.01733	0
1.02100	0
1.02467	0
1.02833	0
1.03200	0
1.03567	0
1.03933	0
1.04300	0
1.04667	-0
1.05033	-1
1.05400	-1
1.05767	-2
1.06133	-2
1.06500	-3
1.06867	-3
1.07233	-3
1.07600	-3
1.07967	-3
1.08333	-2
1.08700	-2
1.09067	-2
1.09433	-2
1.09800	-2
1.10167	-3
1.10533	-3
1.10900	-3
1.11267	-3
1.11633	-3
1.12000	-3
1.12367	-4
1.12733	-4
1.13100	-4
1.13467	-5
1.13833	-5
1.14200	-5
1.14567	-5
1.14933	-5
1.15300	-5
1.15667	-5
1.16033	-5
1.16400	-5
1.16767	-5
1.17133	-5
1.17500	-4
1.17867	-4
1.18233	-4
1.18600	-4
1.18967	-4
1.19333	-4
1.19700	-4
1.20067	-4
1.20433	-4
1.20800	-3
1.21167	-3
1.21533	-3
1.21900	-3
1.22267	-3
1.22633	-2
1.23000	-2
1.23367	-2
1.23733	-2
1.24100	-2
1.24467	-2
1.24833	-2
1.25200	-2
1.25567	-2
1.25933	-1
1.26300	-1
1.26667	-1
1.27033	-1
1.27400	-1
1.27767	-1
1.28133	-1
1.28500	-1
1.28867	-1
1.29233	-2
1.29600	-2
1.29967	-2
1.30333	-2
1.30700	-2
1.31067	-2
1.31433	-2
1.31800	-1
1.32167	-1
1.32533	-1
1.32900	-1
1.33267	-1
1.33633	-1
1.34000	-1
1.34367	-1
1.34733	-0
1.35100	0
1.35467	0
1.35833	0
1.36200	0
1.36567	0
1.36933	0
1.37300	-0
1.37667	-0
1.38033	-1
1.38400	-1
1.38767	-1
1.39133	-1
1.39500	-1
1.39867	-1
1.40233	-2
1.40600	-2
1.40967	-2
1.41333	-2
1.41700	-2
1.42067	-2
1.42433	-2
1.42800	-2
1.43167	-2
1.43533	-2
1.43900	-2
1.44267	-2
1.44633	-2
1.45000	-2
1.45367	-2
1.45733	-2
1.46100	-2
1.46467	-2
1.46833	-2
1.47200	-2
1.47567	-2
1.47933	-2
1.48300	-2
1.48667	-2
1.49033	-2
1.49400	-2
1.49767	-2
1.50133	-2
1.50500	-3
1.50867	-3
1.51233	-3
1.51600	-2
1.51967	-2
1.52333	-2
1.52700	-2
1.53067	-1
1.53433	-1
1.53800	-1
1.54167	-2
1.54533	-2
1.54900	-2
1.55267	-2
1.55633	-3
1.56000	-3
1.56367	-3
1.56733	-2
1.57100	-2
1.57467	-2
1.57833	-2
1.58200	-2
1.58567	-2
1.58933	-2
1.59300	-3
1.59667	-4
1.60033	-4
1.60400	-6
1.60767	-7
1.61133	-9
1.61500	-11
1.61867	-13
1.62233	-15
1.62600	-18
1.62967	-21
1.63333	-24
1.63700	-27
1.64067	-31
1.64433	-34
1.64800	-38
1.65167	-41
1.65533	-45
1.65900	-49
1.66267	-54
1.66633	-58
1.67000	-63
1.67367	-68
1.67733	-73
1.68100	-79
1.68467	-84
1.68833	-89
1.69200	-93
1.69567	-97
1.69933	-100
1.70300	-103
1.70667	-105
1.71033	-107
1.71400	-109
1.71767	-110
1.72133	-111
1.72500	-111
1.72867	-112
1.73233	-113
1.73600	-113
1.73967	-114
1.74333	-115
1.74700	-115
1.75067	-115
1.75433	-116
1.75800	-115
1.76167	-115
1.76533	-115
1.76900	-114
1.77267	-115
1.77633	-115
1.78000	-115
1.78367	-116
1.78733	-117
1.79100	-117
1.79467	-118
1.79833	-119
1.80200	-119
1.80567	-119
1.80933	-119
1.81300	-119
1.81667	-119
1.82033	-119
1.82400	-119
1.82767	-119
1.83133	-119
1.83500	-119
1.83867	-119
1.84233	-119
1.84600	-119
1.84967	-119
1.85333	-118
1.85700	-118
1.86067	-118
1.86433	-118
1.86800	-118
1.87167	-118
1.87533	-118
1.87900	-118
1.88267	-118
1.88633	-118
1.89000	-118
1.89367	-117
1.89733	-116
1.90100	-116
1.90467	-116
1.90833	-116
1.91200	-116
1.91567	-116
1.91933	-117
1.92300	-117
1.92667	-117
1.93033	-117
1.93400	-117
1.93767	-116
1.94133	-116
1.94500	-116
1.94867	-115
1.95233	-115
1.95600	-115
1.95967	-115
1.96333	-115
1.96700	-115
1.97067	-115
1.97433	-114
1.97800	-114
1.98167	-114
1.98533	-114
1.98900	-115
1.99267	-115
1.99633	-114
2.00000	-114
2.00367	-113
2.00733	-113
2.01100	-113
2.01467	-113
2.01833	-113
2.02200	-113
2.02567	-112
2.02933	-112
2.03300	-111
2.03667	-110
2.04033	-108
2.04400	-107
2.04767	-106
2.05133	-106
2.05500	-106
2.05867	-106
2.06233	-106
2.06600	-106
2.06967	-105
2.07333	-105
2.07700	-104
2.08067	-104
2.08433	-103
2.08800	-103
2.09167	-104
2.09533	-103
2.09900	-103
2.10267	-103
2.10633	-103
2.11000	-103
2.11367	-103
2.11733	-103
2.12100	-102
2.12467	-102
2.12833	-102
2.13200	-101
2.13567	-101
2.13933	-101
2.14300	-100
2.14667	-100
2.15033	-99
2.15400	-99
2.15767	-98
2.16133	-98
2.16500	-98
2.16867	-97
2.17233	-96
2.17600	-95
2.17967	-95
2.18333	-94
2.18700	-94
2.19067	-95
2.19433	-95
2.19800	-95
2.20167	-95
2.20533	-95
2.20900	-95
2.21267	-94
2.21633	-94
2.22000	-93
2.22367	-93
2.22733	-93
2.23100	-92
2.23467	-92
2.23833	-92
2.24200	-91
2.24567	-91
2.24933	-92
2.25300	-94
2.25667	-95
2.26033	-95
2.26400	-96
2.26767	-96
2.27133	-95
2.27500	-94
2.27867	-93
2.28233	-92
2.28600	-91
2.28967	-91
2.29333	-90
2.29700	-89
2.30067	-89
2.30433	-89
2.30800	-89
2.31167	-88
2.31533	-88
2.31900	-87
2.32267	-86
2.32633	-85
2.33000	-83
2.33367	-82
2.33733	-81
2.34100	-81
2.34467	-80
2.34833	-79
2.35200	-78
2.35567	-77
2.35933	-76
2.36300	-74
2.36667	-73
2.37033	-70
2.37400	-68
2.37767	-65
2.38133	-62
2.38500	-59
2.38867	-55
2.39233	-51
2.39600	-48
2.39967	-44
2.40333	-40
2.40700	-36
2.41067	-33
2.41433	-30
2.41800	-27
2.42167	-24
2.42533	-22
2.42900	-20
2.43267	-18
2.43633	-16
2.44000	-14
2.44367	-13
2.44733	-11
2.45100	-9
2.45467	-7
2.45833	-6
2.46200	-5
2.46567	-4
2.46933	-3
2.47300	-2
2.47667	-1
2.48033	-0
2.48400	1
2.48767	3
2.49133	4
2.49500	5
2.49867	6
2.50233	7
2.50600	7
2.50967	8
2.51333	8
2.51700	8
2.52067	9
2.52433	9
2.52800	10
2.53167	11
2.53533	11
2.53900	12
2.54267	13
2.54633	13
2.55000	14
2.55367	14
2.55733	14
2.56100	14
2.56467	14
2.56833	14
2.57200	14
2.57567	14
2.57933	14
2.58300	14
2.58667	14
2.59033	14
2.59400	14
2.59767	14
2.60133	14
2.60500	13
2.60867	13
2.61233	13
2.61600	13
2.61967	13
2.62333	13
2.62700	14
2.63067	14
2.63433	14
2.63800	15
2.64167	16
2.64533	16
2.64900	17
2.65267	17
2.65633	18
2.66000	18
2.66367	18
2.66733	19
2.67100	19
2.67467	19
2.67833	19
2.68200	19
2.68567	19
2.68933	19
2.69300	19
2.69667	19
2.70033	19
2.70400	20
2.70767	20
2.71133	20
2.71500	20
2.71867	21
2.72233	21
2.72600	21
2.72967	22
2.73333	22
2.73700	23
2.74067	23
2.74433	23
2.74800	23
2.75167	23
2.75533	22
2.75900	22
2.76267	22
2.76633	22
2.77000	22
2.77367	22
2.77733	23
2.78100	23
2.78467	23
2.78833	24
2.79200	24
2.79567	24
2.79933	25
2.80300	25
2.80667	25
2.81033	25
2.81400	25
2.81767	25
2.82133	25
2.82500	26
2.82867	26
2.83233	26
2.83600	26
2.83967	25
2.84333	22
2.84700	18
2.85067	11
2.85433	1
2.85800	-12
2.86167	-29
2.86533	-50
2.86900	-75
2.87267	-104
2.87633	-138
2.88000	-175
2.88367	-215
2.88733	-259
2.89100	-305
2.89467	-354
2.89833	-404
2.90200	-456
2.90567	-509
2.90933	-562
2.91300	-615
2.91667	-669
2.92033	-721
2.92400	-773
2.92767	-825
2.93133	-877
2.93500	-934
2.93867	-995
2.94233	-1051
2.94600	-1092
2.94967	-1110
2.95333	-1101
2.95700	-1067
2.96067	-1013
2.96433	-945
2.96800	-868
2.97167	-788
2.97533	-707
2.97900	-628
2.98267	-554
2.98633	-486
2.99000	-423
2.99367	-367
2.99733	-317
3.00100	-273
3.00467	-233
3.00833	-199
3.01200	-169
3.01567	-143
3.01933	-121
3.02300	-101
3.02667	-84
3.03033	-70
3.03400	-58
3.03767	-47
3.04133	-38
3.04500	-31
3.04867	-24
3.05233	-19
3.05600	-14
3.05967	-11
3.06333	-7
3.06700	-4
3.07067	-2
3.07433	0
3.07800	2
3.08167	4
3.08533	5
3.08900	6
3.09267	7
3.09633	9
3.10000	10
3.10367	11
3.10733	11
3.11100	12
3.11467	13
3.11833	14
3.12200	14
3.12567	15
3.12933	15
3.13300	16
3.13667	16
3.14033	16
3.14400	16
3.14767	16
3.15133	16
3.15500	17
3.15867	17
3.16233	17
3.16600	17
3.16967	18
3.17333	18
3.17700	18
3.18067	19
3.18433	19
3.18800	19
3.19167	19
3.19533	19
3.19900	19
3.20267	20
3.20633	20
3.21000	19
3.21367	19
3.21733	19
3.22100	18
3.22467	18
3.22833	18
3.23200	17
3.23567	17
3.23933	17
3.24300	17
3.24667	17
3.25033	16
3.25400	16
3.25767	16
3.26133	16
3.26500	16
3.26867	16
3.27233	16
3.27600	17
3.27967	17
3.28333	17
3.28700	18
3.29067	18
3.29433	19
3.29800	19
3.30167	20
3.30533	20
3.30900	21
3.31267	21
3.31633	21
3.32000	22
3.32367	22
3.32733	23
3.33100	23
3.33467	24
3.33833	24
3.34200	24
3.34567	25
3.34933	25
3.35300	25
3.35667	25
3.36033	25
3.36400	26
3.36767	26
3.37133	26
3.37500	26
3.37867	26
3.38233	26
3.38600	26
3.38967	26
3.39333	26
3.39700	26
3.40067	26
3.40433	26
3.40800	26
3.41167	26
3.41533	26
3.41900	25
3.42267	25
3.42633	25
3.43000	25
3.43367	25
3.43733	25
3.44100	25
3.44467	25
3.44833	25
3.45200	25
3.45567	25
3.45933	25
3.46300	25
3.46667	25
3.47033	25
3.47400	25
3.47767	25
3.48133	25
3.48500	25
3.48867	25
3.49233	24
3.49600	24
3.49967	24
3.50333	24
3.50700	24
3.51067	24
3.51433	24
3.51800	24
3.52167	24
3.52533	25
3.52900	25
3.53267	24
3.53633	24
3.54000	24
3.54367	24
3.54733	23
3.55100	23
3.55467	23
3.55833	23
3.56200	23
3.56567	23
3.56933	23
3.57300	23
3.57667	23
3.58033	23
3.58400	23
3.58767	23
3.59133	23
3.59500	23
3.59867	23
3.60233	23
3.60600	23
3.60967	23
3.61333	23
3.61700	23
3.62067	23
3.62433	23
3.62800	23
3.63167	23
3.63533	23
3.63900	23
3.64267	23
3.64633	23
3.65000	23
3.65367	23
3.65733	23
3.66100	23
3.66467	23
3.66833	23
3.67200	23
3.67567	23
3.67933	23
3.68300	23
3.68667	23
3.69033	23
3.69400	23
3.69767	23
3.70133	23
3.70500	23
3.70867	23
3.71233	23
3.71600	22
3.71967	22
3.72333	22
3.72700	22
3.73067	22
3.73433	22
3.73800	22
3.74167	22
3.74533	23
3.74900	23
3.75267	23
3.75633	23
3.76000	23
3.76367	24
3.76733	24
3.77100	24
3.77467	24
3.77833	24
3.78200	25
3.78567	24
3.78933	24
3.79300	24
3.79667	24
3.80033	24
3.80400	24
3.80767	24
3.81133	24
3.81500	24
3.81867	24
3.82233	24
3.82600	23
3.82967	23
3.83333	23
3.83700	23
3.84067	23
3.84433	23
3.84800	23
3.85167	23
3.85533	23
3.85900	23
3.86267	24
3.86633	24
3.87000	24
3.87367	24
3.87733	25
3.88100	25
3.88467	25
3.88833	25
3.89200	24
3.89567	24
3.89933	24
3.90300	24
3.90667	23
3.91033	23
3.91400	23
3.91767	23
3.92133	23
3.92500	23
3.92867	23
3.93233	23
3.93600	23
3.93967	23
3.94333	23
3.94700	23
3.95067	23
3.95433	23
3.95800	23
3.96167	23
3.96533	23
3.96900	23
3.97267	23
3.97633	24
3.98000	24
3.98367	24
3.98733	24
3.99100	24
3.99467	24
3.99833	24

[Chromatogram (Ch3)]
Interval(msec)	220
# of Points	1091
Start Time(min)	0.002
End Time(min)	3.998
R.Time (min)	Intensity
0.00167	-0
0.00533	-1
0.00900	-1
0.01267	2
0.01633	7
0.02000	10
0.02367	11
0.02733	10
0.03100	9
0.03467	9
0.03833	11
0.04200	11
0.04567	9
0.04933	9
0.05300	8
0.05667	8
0.06033	7
0.06400	9
0.06767	7
0.07133	7
0.07500	9
0.07867	9
0.08233	9
0.08600	9
0.08967	9
0.09333	6
0.09700	5
0.10067	5
0.10433	7
0.10800	7
0.11167	5
0.11533	4
0.11900	5
0.12267	5
0.12633	6
0.13000	6
0.13367	8
0.13733	11
0.14100	13
0.14467	11
0.14833	11
0.15200	12
0.15567	12
0.15933	10
0.16300	8
0.16667	5
0.17033	5
0.17400	7
0.17767	8
0.18133	10
0.18500	10
0.18867	10
0.19233	10
0.19600	8
0.19967	7
0.20333	6
0.20700	6
0.21067	6
0.21433	6
0.21800	4
0.22167	4
0.22533	4
0.22900	5
0.23267	7
0.23633	6
0.24000	4
0.24367	4
0.24733	6
0.25100	6
0.25467	8
0.25833	7
0.26200	6
0.26567	6
0.26933	8
0.27300	9
0.27667	9
0.28033	9
0.28400	9
0.28767	11
0.29133	12
0.29500	12
0.29867	13
0.30233	14
0.30600	16
0.30967	17
0.31333	16
0.31700	15
0.32067	13
0.32433	11
0.32800	11
0.33167	11
0.33533	11
0.33900	10
0.34267	8
0.34633	9
0.35000	9
0.35367	8
0.35733	6
0.36100	5
0.36467	4
0.36833	2
0.37200	4
0.37567	6
0.37933	8
0.38300	11
0.38667	12
0.39033	14
0.39400	14
0.39767	16
0.40133	14
0.40500	12
0.40867	11
0.41233	10
0.41600	7
0.41967	6
0.42333	7
0.42700	8
0.43067	8
0.43433	7
0.43800	9
0.44167	10
0.44533	8
0.44900	8
0.45267	8
0.45633	9
0.46000	11
0.46367	13
0.46733	12
0.47100	10
0.47467	7
0.47833	7
0.48200	9
0.48567	9
0.48933	9
0.49300	8
0.49667	9
0.50033	11
0.50400	12
0.50767	12
0.51133	11
0.51500	12
0.51867	16
0.52233	16
0.52600	13
0.52967	9
0.53333	10
0.53700	9
0.54067	8
0.54433	5
0.54800	4
0.55167	7
0.55533	7
0.55900	6
0.56267	7
0.56633	9
0.57000	9
0.57367	8
0.57733	8
0.58100	7
0.58467	5
0.58833	4
0.59200	6
0.59567	9
0.59933	11
0.60300	14
0.60667	15
0.61033	15
0.61400	13
0.61767	13
0.62133	13
0.62500	13
0.62867	13
0.63233	14
0.63600	15
0.63967	16
0.64333	16
0.64700	14
0.65067	13
0.65433	13
0.65800	13
0.66167	12
0.66533	12
0.66900	15
0.67267	17
0.67633	18
0.68000	17
0.68367	17
0.68733	17
0.69100	18
0.69467	16
0.69833	15
0.70200	12
0.70567	11
0.70933	11
0.71300	10
0.71667	10
0.72033	12
0.72400	13
0.72767	15
0.73133	16
0.73500	16
0.73867	16
0.74233	18
0.74600	18
0.74967	18
0.75333	19
0.75700	19
0.76067	20
0.76433	21
0.76800	19
0.77167	19
0.77533	21
0.77900	22
0.78267	22
0.78633	21
0.79000	19
0.79367	20
0.79733	20
0.80100	20
0.80467	22
0.80833	23
0.81200	23
0.81567	25
0.81933	24
0.82300	23
0.82667	22
0.83033	23
0.83400	24
0.83767	26
0.84133	27
0.84500	29
0.84867	29
0.85233	29
0.85600	29
0.85967	30
0.86333	32
0.86700	32
0.87067	32
0.87433	30
0.87800	29
0.88167	29
0.88533	30
0.88900	31
0.89267	30
0.89633	29
0.90000	30
0.90367	30
0.90733	31
0.91100	34
0.91467	33
0.91833	32
0.92200	32
0.92567	30
0.92933	28
0.93300	28
0.93667	30
0.94033	31
0.94400	32
0.94767	33
0.95133	33
0.95500	31
0.95867	31
0.96233	29
0.96600	30
0.96967	31
0.97333	33
0.97700	32
0.98067	32
0.98433	32
0.98800	31
0.99167	33
0.99533	32
0.99900	31
1.00267	29
1.00633	27
1.01000	26
1.01367	24
1.01733	23
1.02100	24
1.02467	24
1.02833	22
1.03200	22
1.03567	23
1.03933	28
1.04300	32
1.04667	34
1.05033	35
1.05400	37
1.05767	37
1.06133	36
1.06500	35
1.06867	35
1.07233	33
1.07600	30
1.07967	27
1.08333	26
1.08700	25
1.09067	26
1.09433	29
1.09800	32
1.10167	34
1.10533	38
1.10900	41
1.11267	38
1.11633	36
1.12000	34
1.12367	31
1.12733	29
1.13100	28
1.13467	29
1.13833	29
1.14200	29
1.14567	28
1.14933	26
1.15300	28
1.15667	28
1.16033	28
1.16400	26
1.16767	25
1.17133	27
1.17500	29
1.17867	30
1.18233	33
1.18600	34
1.18967	34
1.19333	31
1.19700	29
1.20067	28
1.20433	28
1.20800	29
1.21167	32
1.21533	37
1.21900	40
1.22267	39
1.22633	39
1.23000	37
1.23367	37
1.23733	35
1.24100	35
1.24467	35
1.24833	33
1.25200	31
1.25567	31
1.25933	33
1.26300	36
1.26667	38
1.27033	40
1.27400	40
1.27767	39
1.28133	40
1.28500	42
1.28867	42
1.29233	42
1.29600	42
1.29967	42
1.30333	41
1.30700	37
1.31067	35
1.31433	34
1.31800	36
1.32167	39
1.32533	42
1.32900	43
1.33267	44
1.33633	42
1.34000	39
1.34367	38
1.34733	40
1.35100	41
1.35467	41
1.35833	39
1.36200	39
1.36567	39
1.36933	39
1.37300	38
1.37667	36
1.38033	36
1.38400	36
1.38767	35
1.39133	34
1.39500	36
1.39867	37
1.40233	35
1.40600	35
1.40967	34
1.41333	34
1.41700	34
1.42067	35
1.42433	36
1.42800	37
1.43167	37
1.43533	36
1.43900	37
1.44267	37
1.44633	37
1.45000	38
1.45367	40
1.45733	41
1.46100	41
1.46467	42
1.46833	42
1.47200	42
1.47567	42
1.47933	41
1.48300	42
1.48667	42
1.49033	42
1.49400	43
1.49767	43
1.50133	44
1.50500	44
1.50867	44
1.51233	43
1.51600	43
1.51967	43
1.52333	43
1.52700	43
1.53067	42
1.53433	45
1.53800	47
1.54167	47
1.54533	46
1.54900	46
1.55267	45
1.55633	43
1.56000	42
1.56367	40
1.56733	42
1.57100	42
1.57467	41
1.57833	41
1.58200	41
1.58567	40
1.58933	39
1.59300	38
1.59667	38
1.60033	38
1.60400	40
1.60767	42
1.61133	41
1.61500	40
1.61867	42
1.62233	44
1.62600	45
1.62967	43
1.63333	42
1.63700	40
1.64067	41
1.64433	43
1.64800	44
1.65167	46
1.65533	48
1.65900	49
1.66267	48
1.66633	47
1.67000	47
1.67367	46
1.67733	44
1.68100	46
1.68467	46
1.68833	45
1.69200	44
1.69567	43
1.69933	42
1.70300	41
1.70667	41
1.71033	42
1.71400	44
1.71767	45
1.72133	46
1.72500	46
1.72867	47
1.73233	48
1.73600	49
1.73967	50
1.74333	51
1.74700	52
1.75067	56
1.75433	58
1.75800	57
1.76167	55
1.76533	53
1.76900	51
1.77267	51
1.77633	51
1.78000	51
1.78367	54
1.78733	55
1.79100	54
1.79467	55
1.79833	58
1.80200	61
1.80567	62
1.80933	61
1.81300	64
1.81667	67
1.82033	68
1.82400	66
1.82767	63
1.83133	64
1.83500	65
1.83867	65
1.84233	66
1.84600	67
1.84967	68
1.85333	70
1.85700	72
1.86067	75
1.86433	76
1.86800	78
1.87167	80
1.87533	81
1.87900	81
1.88267	81
1.88633	80
1.89000	81
1.89367	81
1.89733	80
1.90100	80
1.90467	81
1.90833	82
1.91200	81
1.91567	81
1.91933	81
1.92300	82
1.92667	85
1.93033	84
1.93400	84
1.93767	85
1.94133	83
1.94500	83
1.94867	84
1.95233	87
1.95600	91
1.95967	95
1.96333	99
1.96700	99
1.97067	96
1.97433	91
1.97800	88
1.98167	86
1.98533	86
1.98900	90
1.99267	94
1.99633	96
2.00000	99
2.00367	99
2.00733	99
2.01100	98
2.01467	96
2.01833	98
2.02200	101
2.02567	104
2.02933	106
2.03300	107
2.03667	107
2.04033	105
2.04400	102
2.04767	101
2.05133	102
2.05500	106
2.05867	108
2.06233	109
2.06600	108
2.06967	107
2.07333	107
2.07700	108
2.08067	110
2.08433	109
2.08800	109
2.09167	109
2.09533	108
2.09900	106
2.10267	107
2.10633	109
2.11000	110
2.11367	111
2.11733	112
2.12100	112
2.12467	112
2.12833	113
2.13200	115
2.13567	116
2.13933	115
2.14300	115
2.14667	117
2.15033	118
2.15400	118
2.15767	118
2.16133	118
2.16500	119
2.16867	118
2.17233	116
2.17600	115
2.17967	116
2.18333	118
2.18700	119
2.19067	121
2.19433	124
2.19800	126
2.20167	128
2.20533	130
2.20900	130
2.21267	131
2.21633	131
2.22000	132
2.22367	133
2.22733	134
2.23100	134
2.23467	134
2.23833	138
2.24200	138
2.24567	137
2.24933	137
2.25300	138
2.25667	140
2.26033	142
2.26400	142
2.26767	141
2.27133	143
2.27500	144
2.27867	143
2.28233	142
2.28600	141
2.28967	141
2.29333	144
2.29700	147
2.30067	149
2.30433	151
2.30800	152
2.31167	154
2.31533	156
2.31900	157
2.32267	158
2.32633	159
2.33000	159
2.33367	159
2.33733	160
2.34100	162
2.34467	164
2.34833	164
2.35200	164
2.35567	166
2.35933	166
2.36300	164
2.36667	164
2.37033	166
2.37400	167
2.37767	170
2.38133	173
2.38500	174
2.38867	172
2.39233	173
2.39600	175
2.39967	177
2.40333	181
2.40700	186
2.41067	188
2.41433	191
2.41800	193
2.42167	194
2.42533	193
2.42900	195
2.43267	197
2.43633	197
2.44000	197
2.44367	219
2.44733	280
2.45100	351
2.45467	411
2.45833	453
2.46200	466
2.46567	457
2.46933	439
2.47300	420
2.47667	404
2.48033	395
2.48400	385
2.48767	377
2.49133	366
2.49500	354
2.49867	341
2.50233	330
2.50600	319
2.50967	307
2.51333	298
2.51700	291
2.52067	286
2.52433	282
2.52800	283
2.53167	289
2.53533	298
2.53900	306
2.54267	312
2.54633	316
2.55000	317
2.55367	316
2.55733	310
2.56100	303
2.56467	295
2.56833	288
2.57200	281
2.57567	275
2.57933	268
2.58300	264
2.58667	263
2.59033	260
2.59400	255
2.59767	250
2.60133	241
2.60500	227
2.60867	210
2.61233	189
2.61600	167
2.61967	145
2.62333	126
2.62700	109
2.63067	93
2.63433	80
2.63800	73
2.64167	69
2.64533	67
2.64900	71
2.65267	78
2.65633	85
2.66000	95
2.66367	105
2.66733	116
2.67100	127
2.67467	137
2.67833	145
2.68200	154
2.68567	163
2.68933	172
2.69300	182
2.69667	187
2.70033	191
2.70400	195
2.70767	198
2.71133	201
2.71500	203
2.71867	203
2.72233	202
2.72600	201
2.72967	200
2.73333	199
2.73700	199
2.74067	201
2.74433	205
2.74800	208
2.75167	208
2.75533	209
2.75900	210
2.76267	209
2.76633	208
2.77000	205
2.77367	204
2.77733	204
2.78100	203
2.78467	205
2.78833	206
2.79200	206
2.79567	206
2.79933	207
2.80300	207
2.80667	206
2.81033	207
2.81400	211
2.81767	217
2.82133	235
2.82500	270
2.82867	340
2.83233	464
2.83600	662
2.83967	955
2.84333	1352
2.84700	1843
2.85067	2401
2.85433	2988
2.85800	3557
2.86167	4062
2.86533	4460
2.86900	4725
2.87267	4846
2.87633	4832
2.88000	4699
2.88367	4473
2.88733	4183
2.89100	3855
2.89467	3510
2.89833	3165
2.90200	2837
2.90567	2531
2.90933	2247
2.91300	1988
2.91667	1755
2.92033	1549
2.92400	1369
2.92767	1211
2.93133	1073
2.93500	952
2.93867	850
2.94233	762
2.94600	687
2.94967	621
2.95333	564
2.95700	513
2.96067	468
2.96433	431
2.96800	400
2.97167	373
2.97533	347
2.97900	326
2.98267	306
2.98633	289
2.99000	278
2.99367	267
2.99733	257
3.00100	248
3.00467	240
3.00833	234
3.01200	229
3.01567	224
3.01933	221
3.02300	219
3.02667	214
3.03033	209
3.03400	205
3.03767	201
3.04133	197
3.04500	195
3.04867	193
3.05233	193
3.05600	193
3.05967	194
3.06333	196
3.06700	193
3.07067	191
3.07433	188
3.07800	185
3.08167	183
3.08533	183
3.08900	181
3.09267	180
3.09633	179
3.10000	180
3.10367	178
3.10733	177
3.11100	175
3.11467	171
3.11833	167
3.12200	164
3.12567	161
3.12933	161
3.13300	160
3.13667	158
3.14033	156
3.14400	157
3.14767	158
3.15133	157
3.15500	156
3.15867	158
3.16233	158
3.16600	159
3.16967	159
3.17333	158
3.17700	158
3.18067	158
3.18433	158
3.18800	156
3.19167	154
3.19533	155
3.19900	155
3.20267	156
3.20633	156
3.21000	156
3.21367	156
3.21733	155
3.22100	154
3.22467	155
3.22833	156
3.23200	156
3.23567	156
3.23933	155
3.24300	155
3.24667	156
3.25033	158
3.25400	160
3.25767	158
3.26133	156
3.26500	157
3.26867	157
3.27233	156
3.27600	155
3.27967	153
3.28333	152
3.28700	152
3.29067	153
3.29433	154
3.29800	155
3.30167	156
3.30533	157
3.30900	156
3.31267	154
3.31633	150
3.32000	148
3.32367	149
3.32733	151
3.33100	150
3.33467	147
3.33833	145
3.34200	144
3.34567	144
3.34933	144
3.35300	146
3.35667	146
3.36033	146
3.36400	144
3.36767	142
3.37133	139
3.37500	137
3.37867	138
3.38233	140
3.38600	143
3.38967	144
3.39333	145
3.39700	144
3.40067	145
3.40433	145
3.40800	141
3.41167	138
3.41533	137
3.41900	136
3.42267	134
3.42633	136
3.43000	137
3.43367	138
3.43733	136
3.44100	133
3.44467	130
3.44833	130
3.45200	130
3.45567	130
3.45933	129
3.46300	127
3.46667	126
3.47033	127
3.47400	129
3.47767	130
3.48133	129
3.48500	128
3.48867	126
3.49233	125
3.49600	127
3.49967	128
3.50333	128
3.50700	126
3.51067	125
3.51433	125
3.51800	125
3.52167	124
3.52533	122
3.52900	122
3.53267	122
3.53633	122
3.54000	122
3.54367	122
3.54733	123
3.55100	124
3.55467	125
3.55833	127
3.56200	128
3.56567	128
3.56933	128
3.57300	127
3.57667	126
3.58033	127
3.58400	127
3.58767	127
3.59133	128
3.59500	128
3.59867	130
3.60233	130
3.60600	128
3.60967	126
3.61333	125
3.61700	126
3.62067	128
3.62433	130
3.62800	132
3.63167	132
3.63533	131
3.63900	128
3.64267	124
3.64633	114
3.65000	101
3.65367	90
3.65733	82
3.66100	81
3.66467	84
3.66833	91
3.67200	99
3.67567	109
3.67933	121
3.68300	136
3.68667	153
3.69033	170
3.69400	185
3.69767	196
3.70133	208
3.70500	220
3.70867	229
3.71233	239
3.71600	246
3.71967	254
3.72333	260
3.72700	266
3.73067	273
3.73433	281
3.73800	290
3.74167	297
3.74533	302
3.74900	310
3.75267	320
3.75633	328
3.76000	334
3.76367	339
3.76733	345
3.77100	349
3.77467	354
3.77833	358
3.78200	362
3.78567	364
3.78933	368
3.79300	369
3.79667	370
3.80033	370
3.80400	370
3.80767	373
3.81133	376
3.81500	378
3.81867	377
3.82233	375
3.82600	375
3.82967	376
3.83333	379
3.83700	382
3.84067	383
3.84433	384
3.84800	384
3.85167	384
3.85533	382
3.85900	379
3.86267	378
3.86633	377
3.87000	373
3.87367	371
3.87733	372
3.88100	376
3.88467	376
3.88833	374
3.89200	369
3.89567	365
3.89933	365
3.90300	364
3.90667	362
3.91033	361
3.91400	362
3.91767	362
3.92133	361
3.92500	360
3.92867	360
3.93233	361
3.93600	360
3.93967	358
3.94333	355
3.94700	352
3.95067	349
3.95433	348
3.95800	348
3.96167	348
3.96533	347
3.96900	345
3.97267	344
3.97633	341
3.98000	339
3.98367	340
3.98733	339
3.99100	336
3.99467	335
3.99833	335

[Status Trace (Column Oven Temperature)]
Interval(msec)	1000
# of Points	239
Start Time(min)	0.009
End Time(min)	3.975
Intensity Units	
Intensity Multiplier	1
R.Time (min)	Intensity
0.00878	35.04
0.02545	35.04
0.04212	35.03
0.05878	35.03
0.07545	35.02
0.09212	35.02
0.10878	35.01
0.12545	35.01
0.14212	35.01
0.15878	35.01
0.17545	35.01
0.19212	35.01
0.20878	35.01
0.22545	35.01
0.24212	35.01
0.25878	35.01
0.27545	35.01
0.29212	35.01
0.30878	35.00
0.32545	35.00
0.34212	34.99
0.35878	34.99
0.37545	34.99
0.39212	34.99
0.40878	35.00
0.42545	35.01
0.44212	35.01
0.45878	35.01
0.47545	35.02
0.49212	35.01
0.50878	35.01
0.52545	35.02
0.54212	35.02
0.55878	35.02
0.57545	35.03
0.59212	35.04
0.60878	35.05
0.62545	35.05
0.64212	35.05
0.65878	35.05
0.67545	35.05
0.69212	35.04
0.70878	35.04
0.72545	35.04
0.74212	35.03
0.75878	35.03
0.77545	35.02
0.79212	35.01
0.80878	35.00
0.82545	35.00
0.84212	35.00
0.85878	34.99
0.87545	34.97
0.89212	34.98
0.90878	34.99
0.92545	34.99
0.94212	34.99
0.95878	34.99
0.97545	34.99
0.99212	35.00
1.00878	34.99
1.02545	34.99
1.04212	34.98
1.05878	34.99
1.07545	34.98
1.09212	34.99
1.10878	35.00
1.12545	35.00
1.14212	35.02
1.15878	35.02
1.17545	35.03
1.19212	35.03
1.20878	35.03
1.22545	35.03
1.24212	35.02
1.25878	35.01
1.27545	35.00
1.29212	34.99
1.30878	34.99
1.32545	35.00
1.34212	34.99
1.35878	34.98
1.37545	34.98
1.39212	35.00
1.40878	35.00
1.42545	35.00
1.44212	34.99
1.45878	35.00
1.47545	35.00
1.49212	35.00
1.50878	34.99
1.52545	34.98
1.54212	34.98
1.55878	34.98
1.57545	34.97
1.59212	34.99
1.60878	35.07
1.62545	35.19
1.64212	35.36
1.65878	35.62
1.67545	35.97
1.69212	36.34
1.70878	36.69
1.72545	37.03
1.74212	37.38
1.75878	37.68
1.77545	38.01
1.79212	38.36
1.80878	38.68
1.82545	39.01
1.84212	39.34
1.85878	39.66
1.87545	40.00
1.89212	40.31
1.90878	40.64
1.92545	40.97
1.94212	41.29
1.95878	41.61
1.97545	41.93
1.99212	42.27
2.00878	42.60
2.02545	42.93
2.04212	43.24
2.05878	43.57
2.07545	43.90
2.09212	44.21
2.10878	44.55
2.12545	44.88
2.14212	45.20
2.15878	45.53
2.17545	45.84
2.19212	46.18
2.20878	46.50
2.22545	46.83
2.24212	47.17
2.25878	47.57
2.27545	47.88
2.29212	48.21
2.30878	48.55
2.32545	48.86
2.34212	49.18
2.35878	49.45
2.37545	49.61
2.39212	49.67
2.40878	49.66
2.42545	49.67
2.44212	49.67
2.45878	49.68
2.47545	49.70
2.49212	49.70
2.50878	49.73
2.52545	49.74
2.54212	49.75
2.55878	49.77
2.57545	49.78
2.59212	49.79
2.60878	49.81
2.62545	49.81
2.64212	49.81
2.65878	49.83
2.67545	49.84
2.69212	49.84
2.70878	49.86
2.72545	49.85
2.74212	49.85
2.75878	49.86
2.77545	49.88
2.79212	49.87
2.80878	49.87
2.82545	49.87
2.84212	49.86
2.85878	49.86
2.87545	49.86
2.89212	49.87
2.90878	49.88
2.92545	49.91
2.94212	49.93
2.95878	49.95
2.97545	49.96
2.99212	49.97
3.00878	49.98
3.02545	49.98
3.04212	49.99
3.05878	49.99
3.07545	50.00
3.09212	50.00
3.10878	50.00
3.12545	50.00
3.14212	50.00
3.15878	50.00
3.17545	50.00
3.19212	50.00
3.20878	50.01
3.22545	50.04
3.24212	50.07
3.25878	50.10
3.27545	50.11
3.29212	50.11
3.30878	50.11
3.32545	50.09
3.34212	50.08
3.35878	50.06
3.37545	50.06
3.39212	50.05
3.40878	50.04
3.42545	50.05
3.44212	50.04
3.45878	50.04
3.47545	50.04
3.49212	50.03
3.50878	50.02
3.52545	50.03
3.54212	50.05
3.55878	50.05
3.57545	50.05
3.59212	50.05
3.60878	50.06
3.62545	50.07
3.64212	50.06
3.65878	50.06
3.67545	50.06
3.69212	50.06
3.70878	50.07
3.72545	50.08
3.74212	50.07
3.75878	50.07
3.77545	50.06
3.79212	50.06
3.80878	50.05
3.82545	50.05
3.84212	50.05
3.85878	50.05
3.87545	50.04
3.89212	50.04
3.90878	50.04
3.92545	50.06
3.94212	50.06
3.95878	50.05
3.97545	50.05

[Status Trace (Injection Unit Temperature)]
Interval(msec)	1000
# of Points	239
Start Time(min)	0.009
End Time(min)	3.975
Intensity Units	
Intensity Multiplier	1
R.Time (min)	Intensity
0.00878	99.97
0.02545	99.97
0.04212	99.97
0.05878	99.97
0.07545	99.97
0.09212	99.97
0.10878	99.97
0.12545	99.97
0.14212	99.97
0.15878	99.96
0.17545	99.97
0.19212	99.97
0.20878	99.97
0.22545	99.97
0.24212	99.97
0.25878	99.97
0.27545	99.97
0.29212	99.97
0.30878	99.97
0.32545	99.97
0.34212	99.97
0.35878	99.97
0.37545	99.97
0.39212	99.98
0.40878	99.98
0.42545	99.98
0.44212	99.97
0.45878	99.98
0.47545	99.98
0.49212	99.98
0.50878	99.97
0.52545	99.98
0.54212	99.98
0.55878	99.98
0.57545	99.98
0.59212	99.98
0.60878	99.98
0.62545	99.99
0.64212	99.97
0.65878	99.98
0.67545	99.99
0.69212	99.98
0.70878	99.98
0.72545	99.98
0.74212	99.98
0.75878	99.99
0.77545	99.99
0.79212	99.99
0.80878	99.99
0.82545	99.99
0.84212	99.99
0.85878	99.98
0.87545	99.99
0.89212	99.98
0.90878	99.98
0.92545	99.99
0.94212	99.98
0.95878	99.98
0.97545	99.99
0.99212	99.97
1.00878	99.98
1.02545	99.98
1.04212	99.99
1.05878	99.98
1.07545	99.98
1.09212	99.98
1.10878	99.98
1.12545	99.98
1.14212	99.98
1.15878	99.98
1.17545	99.98
1.19212	99.98
1.20878	99.98
1.22545	99.98
1.24212	99.98
1.25878	99.98
1.27545	99.98
1.29212	99.98
1.30878	99.98
1.32545	99.98
1.34212	99.98
1.35878	99.98
1.37545	99.98
1.39212	99.98
1.40878	99.98
1.42545	99.98
1.44212	99.98
1.45878	99.98
1.47545	99.98
1.49212	99.98
1.50878	99.98
1.52545	99.98
1.54212	99.98
1.55878	99.98
1.57545	99.98
1.59212	99.98
1.60878	99.98
1.62545	99.98
1.64212	99.98
1.65878	99.98
1.67545	99.98
1.69212	99.98
1.70878	99.98
1.72545	99.98
1.74212	99.97
1.75878	99.98
1.77545	99.98
1.79212	99.98
1.80878	99.98
1.82545	99.98
1.84212	99.98
1.85878	99.98
1.87545	99.98
1.89212	99.98
1.90878	99.98
1.92545	99.98
1.94212	99.97
1.95878	99.98
1.97545	99.98
1.99212	99.98
2.00878	99.98
2.02545	99.97
2.04212	99.97
2.05878	99.97
2.07545	99.98
2.09212	99.98
2.10878	99.97
2.12545	99.97
2.14212	99.97
2.15878	99.97
2.17545	99.97
2.19212	99.97
2.20878	99.97
2.22545	99.97
2.24212	99.97
2.25878	99.97
2.27545	99.97
2.29212	99.97
2.30878	99.97
2.32545	99.97
2.34212	99.97
2.35878	99.97
2.37545	99.97
2.39212	99.97
2.40878	99.97
2.42545	99.97
2.44212	99.97
2.45878	99.97
2.47545	99.97
2.49212	99.97
2.50878	99.97
2.52545	99.97
2.54212	99.97
2.55878	99.97
2.57545	99.97
2.59212	99.98
2.60878	99.97
2.62545	99.98
2.64212	99.98
2.65878	99.98
2.67545	99.98
2.69212	99.98
2.70878	99.98
2.72545	99.98
2.74212	99.99
2.75878	99.98
2.77545	99.99
2.79212	99.99
2.80878	99.99
2.82545	99.99
2.84212	100.00
2.85878	100.00
2.87545	100.00
2.89212	99.99
2.90878	100.00
2.92545	100.01
2.94212	100.01
2.95878	100.01
2.97545	100.01
2.99212	100.00
3.00878	100.01
3.02545	100.01
3.04212	100.01
3.05878	100.01
3.07545	100.01
3.09212	100.01
3.10878	100.01
3.12545	100.01
3.14212	100.01
3.15878	100.01
3.17545	100.02
3.19212	100.02
3.20878	100.02
3.22545	100.02
3.24212	100.02
3.25878	100.02
3.27545	100.02
3.29212	100.02
3.30878	100.02
3.32545	100.02
3.34212	100.02
3.35878	100.02
3.37545	100.02
3.39212	100.02
3.40878	100.03
3.42545	100.02
3.44212	100.02
3.45878	100.03
3.47545	100.03
3.49212	100.03
3.50878	100.03
3.52545	100.03
3.54212	100.03
3.55878	100.03
3.57545	100.03
3.59212	100.03
3.60878	100.04
3.62545	100.04
3.64212	100.03
3.65878	100.03
3.67545	100.04
3.69212	100.04
3.70878	100.04
3.72545	100.04
3.74212	100.04
3.75878	100.04
3.77545	100.04
3.79212	100.04
3.80878	100.04
3.82545	100.04
3.84212	100.04
3.85878	100.05
3.87545	100.04
3.89212	100.04
3.90878	100.04
3.92545	100.05
3.94212	100.04
3.95878	100.05
3.97545	100.05

[Status Trace (Carrier Gas Pressure)]
Interval(msec)	1000
# of Points	239
Start Time(min)	0.009
End Time(min)	3.975
Intensity Units	
Intensity Multiplier	1
R.Time (min)	Intensity
0.00878	58.00
0.02545	55.24
0.04212	57.21
0.05878	59.37
0.07545	59.26
0.09212	58.05
0.10878	57.98
0.12545	58.01
0.14212	58.01
0.15878	58.01
0.17545	58.00
0.19212	58.00
0.20878	58.00
0.22545	58.00
0.24212	58.00
0.25878	58.00
0.27545	58.00
0.29212	58.00
0.30878	58.00
0.32545	58.00
0.34212	58.00
0.35878	58.00
0.37545	58.00
0.39212	58.00
0.40878	58.00
0.42545	58.00
0.44212	58.00
0.45878	58.00
0.47545	58.00
0.49212	58.00
0.50878	58.00
0.52545	58.00
0.54212	58.00
0.55878	58.00
0.57545	58.00
0.59212	58.00
0.60878	58.00
0.62545	58.00
0.64212	58.00
0.65878	58.00
0.67545	58.00
0.69212	58.00
0.70878	58.00
0.72545	58.00
0.74212	58.00
0.75878	58.00
0.77545	58.00
0.79212	58.00
0.80878	58.00
0.82545	58.00
0.84212	58.00
0.85878	58.00
0.87545	58.00
0.89212	58.00
0.90878	58.00
0.92545	58.00
0.94212	58.00
0.95878	58.00
0.97545	58.00
0.99212	58.00
1.00878	58.00
1.02545	58.00
1.04212	58.00
1.05878	58.00
1.07545	58.00
1.09212	58.00
1.10878	58.00
1.12545	58.00
1.14212	58.00
1.15878	58.00
1.17545	58.00
1.19212	58.00
1.20878	58.00
1.22545	58.00
1.24212	58.00
1.25878	58.00
1.27545	58.00
1.29212	58.00
1.30878	58.00
1.32545	58.00
1.34212	58.00
1.35878	58.00
1.37545	58.00
1.39212	58.00
1.40878	58.00
1.42545	58.00
1.44212	58.00
1.45878	58.00
1.47545	58.00
1.49212	58.00
1.50878	58.00
1.52545	58.00
1.54212	58.00
1.55878	58.00
1.57545	58.00
1.59212	58.00
1.60878	58.00
1.62545	58.00
1.64212	58.00
1.65878	58.00
1.67545	58.01
1.69212	58.00
1.70878	58.00
1.72545	58.00
1.74212	58.00
1.75878	58.00
1.77545	58.00
1.79212	58.00
1.80878	58.00
1.82545	58.00
1.84212	58.00
1.85878	58.00
1.87545	58.00
1.89212	58.00
1.90878	58.00
1.92545	58.00
1.94212	58.00
1.95878	58.00
1.97545	58.00
1.99212	58.00
2.00878	58.00
2.02545	58.00
2.04212	58.00
2.05878	58.00
2.07545	58.00
2.09212	58.00
2.10878	58.00
2.12545	58.00
2.14212	58.00
2.15878	58.00
2.17545	58.00
2.19212	58.00
2.20878	58.00
2.22545	58.00
2.24212	58.00
2.25878	58.00
2.27545	58.00
2.29212	58.00
2.30878	58.00
2.32545	58.00
2.34212	58.00
2.35878	58.00
2.37545	58.00
2.39212	57.99
2.40878	57.99
2.42545	58.00
2.44212	58.00
2.45878	58.00
2.47545	58.00
2.49212	58.00
2.50878	58.00
2.52545	57.98
2.54212	58.00
2.55878	58.00
2.57545	58.00
2.59212	58.00
2.60878	58.00
2.62545	58.00
2.64212	58.00
2.65878	58.00
2.67545	58.00
2.69212	58.00
2.70878	58.00
2.72545	58.00
2.74212	58.00
2.75878	58.00
2.77545	58.00
2.79212	58.00
2.80878	58.00
2.82545	58.00
2.84212	58.00
2.85878	58.00
2.87545	58.00
2.89212	58.00
2.90878	58.00
2.92545	58.00
2.94212	58.00
2.95878	58.00
2.97545	58.00
2.99212	58.00
3.00878	58.00
3.02545	58.00
3.04212	58.00
3.05878	58.00
3.07545	58.00
3.09212	58.00
3.10878	58.00
3.12545	58.00
3.14212	58.00
3.15878	58.00
3.17545	58.00
3.19212	58.00
3.20878	58.00
3.22545	58.00
3.24212	58.00
3.25878	58.00
3.27545	58.00
3.29212	58.00
3.30878	58.00
3.32545	58.00
3.34212	58.00
3.35878	58.00
3.37545	58.00
3.39212	58.00
3.40878	58.00
3.42545	58.00
3.44212	58.00
3.45878	58.00
3.47545	58.00
3.49212	58.00
3.50878	58.00
3.52545	58.00
3.54212	58.00
3.55878	58.00
3.57545	58.00
3.59212	58.00
3.60878	58.00
3.62545	58.00
3.64212	58.00
3.65878	58.00
3.67545	58.00
3.69212	58.00
3.70878	58.00
3.72545	58.00
3.74212	58.00
3.75878	58.00
3.77545	58.00
3.79212	58.00
3.80878	58.00
3.82545	58.00
3.84212	58.00
3.85878	58.00
3.87545	58.00
3.89212	58.00
3.90878	58.00
3.92545	58.00
3.94212	58.00
3.95878	58.00
3.97545	58.00

[Status Trace (Carrier Gas Flow)]
Interval(msec)	1000
# of Points	239
Start Time(min)	0.009
End Time(min)	3.975
Intensity Units	
Intensity Multiplier	1
R.Time (min)	Intensity
0.00878	34.53
0.02545	34.53
0.04212	34.55
0.05878	34.54
0.07545	34.51
0.09212	34.52
0.10878	34.52
0.12545	34.52
0.14212	34.52
0.15878	34.52
0.17545	34.52
0.19212	34.52
0.20878	34.52
0.22545	34.52
0.24212	34.52
0.25878	34.52
0.27545	34.52
0.29212	34.52
0.30878	34.52
0.32545	34.52
0.34212	34.52
0.35878	34.52
0.37545	34.52
0.39212	34.52
0.40878	34.52
0.42545	34.52
0.44212	34.52
0.45878	34.52
0.47545	34.52
0.49212	34.52
0.50878	34.52
0.52545	34.52
0.54212	34.52
0.55878	34.52
0.57545	34.52
0.59212	34.52
0.60878	34.52
0.62545	34.51
0.64212	34.52
0.65878	34.52
0.67545	34.52
0.69212	34.52
0.70878	34.52
0.72545	34.52
0.74212	34.51
0.75878	34.52
0.77545	34.52
0.79212	34.52
0.80878	34.52
0.82545	34.51
0.84212	34.52
0.85878	34.52
0.87545	34.52
0.89212	34.52
0.90878	34.52
0.92545	34.52
0.94212	34.51
0.95878	34.52
0.97545	34.52
0.99212	34.53
1.00878	34.52
1.02545	34.52
1.04212	34.52
1.05878	34.52
1.07545	34.52
1.09212	34.52
1.10878	34.52
1.12545	34.52
1.14212	34.52
1.15878	34.52
1.17545	34.52
1.19212	34.52
1.20878	34.52
1.22545	34.52
1.24212	34.52
1.25878	34.52
1.27545	34.52
1.29212	34.52
1.30878	34.52
1.32545	34.52
1.34212	34.52
1.35878	34.52
1.37545	34.52
1.39212	34.52
1.40878	34.52
1.42545	34.52
1.44212	34.52
1.45878	34.52
1.47545	34.52
1.49212	34.52
1.50878	34.52
1.52545	34.52
1.54212	34.52
1.55878	34.51
1.57545	34.52
1.59212	34.52
1.60878	34.52
1.62545	34.52
1.64212	34.52
1.65878	34.52
1.67545	34.52
1.69212	34.52
1.70878	34.52
1.72545	34.52
1.74212	34.52
1.75878	34.52
1.77545	34.52
1.79212	34.52
1.80878	34.52
1.82545	34.52
1.84212	34.52
1.85878	34.52
1.87545	34.52
1.89212	34.52
1.90878	34.52
1.92545	34.52
1.94212	34.52
1.95878	34.52
1.97545	34.52
1.99212	34.51
2.00878	34.52
2.02545	34.52
2.04212	34.52
2.05878	34.52
2.07545	34.52
2.09212	34.52
2.10878	34.52
2.12545	34.52
2.14212	34.52
2.15878	34.52
2.17545	34.52
2.19212	34.52
2.20878	34.52
2.22545	34.52
2.24212	34.52
2.25878	34.52
2.27545	34.52
2.29212	34.52
2.30878	34.52
2.32545	34.52
2.34212	34.51
2.35878	34.52
2.37545	34.52
2.39212	34.52
2.40878	34.52
2.42545	34.52
2.44212	34.52
2.45878	34.52
2.47545	34.52
2.49212	34.52
2.50878	34.49
2.52545	34.52
2.54212	34.52
2.55878	34.52
2.57545	34.52
2.59212	34.51
2.60878	34.52
2.62545	34.52
2.64212	34.52
2.65878	34.52
2.67545	34.52
2.69212	34.52
2.70878	34.52
2.72545	34.52
2.74212	34.52
2.75878	34.52
2.77545	34.52
2.79212	34.52
2.80878	34.52
2.82545	34.52
2.84212	34.52
2.85878	34.52
2.87545	34.52
2.89212	34.52
2.90878	34.52
2.92545	34.52
2.94212	34.52
2.95878	34.52
2.97545	34.52
2.99212	34.52
3.00878	34.52
3.02545	34.52
3.04212	34.52
3.05878	34.52
3.07545	34.52
3.09212	34.52
3.10878	34.52
3.12545	34.52
3.14212	34.52
3.15878	34.51
3.17545	34.52
3.19212	34.52
3.20878	34.52
3.22545	34.52
3.24212	34.52
3.25878	34.52
3.27545	34.52
3.29212	34.52
3.30878	34.52
3.32545	34.52
3.34212	34.52
3.35878	34.52
3.37545	34.52
3.39212	34.52
3.40878	34.51
3.42545	34.52
3.44212	34.52
3.45878	34.52
3.47545	34.52
3.49212	34.52
3.50878	34.52
3.52545	34.52
3.54212	34.52
3.55878	34.52
3.57545	34.52
3.59212	34.52
3.60878	34.52
3.62545	34.52
3.64212	34.52
3.65878	34.52
3.67545	34.52
3.69212	34.52
3.70878	34.52
3.72545	34.52
3.74212	34.52
3.75878	34.52
3.77545	34.52
3.79212	34.52
3.80878	34.52
3.82545	34.52
3.84212	34.52
3.85878	34.51
3.87545	34.52
3.89212	34.52
3.90878	34.52
3.92545	34.52
3.94212	34.52
3.95878	34.52
3.97545	34.52

[Status Trace (Column Flow)]
Interval(msec)	1000
# of Points	239
Start Time(min)	0.009
End Time(min)	3.975
Intensity Units	
Intensity Multiplier	1
R.Time (min)	Intensity
0.00878	5.57
0.02545	5.25
0.04212	5.48
0.05878	5.73
0.07545	5.72
0.09212	5.58
0.10878	5.57
0.12545	5.57
0.14212	5.57
0.15878	5.57
0.17545	5.57
0.19212	5.57
0.20878	5.57
0.22545	5.57
0.24212	5.57
0.25878	5.57
0.27545	5.57
0.29212	5.57
0.30878	5.57
0.32545	5.57
0.34212	5.57
0.35878	5.57
0.37545	5.57
0.39212	5.57
0.40878	5.57
0.42545	5.57
0.44212	5.57
0.45878	5.57
0.47545	5.57
0.49212	5.57
0.50878	5.57
0.52545	5.57
0.54212	5.57
0.55878	5.57
0.57545	5.57
0.59212	5.57
0.60878	5.57
0.62545	5.57
0.64212	5.57
0.65878	5.57
0.67545	5.57
0.69212	5.57
0.70878	5.57
0.72545	5.57
0.74212	5.57
0.75878	5.57
0.77545	5.57
0.79212	5.57
0.80878	5.57
0.82545	5.57
0.84212	5.57
0.85878	5.57
0.87545	5.57
0.89212	5.57
0.90878	5.57
0.92545	5.57
0.94212	5.57
0.95878	5.57
0.97545	5.57
0.99212	5.57
1.00878	5.57
1.02545	5.57
1.04212	5.57
1.05878	5.57
1.07545	5.57
1.09212	5.57
1.10878	5.57
1.12545	5.57
1.14212	5.57
1.15878	5.57
1.17545	5.57
1.19212	5.57
1.20878	5.57
1.22545	5.57
1.24212	5.57
1.25878	5.57
1.27545	5.57
1.29212	5.57
1.30878	5.57
1.32545	5.57
1.34212	5.57
1.35878	5.57
1.37545	5.57
1.39212	5.57
1.40878	5.57
1.42545	5.57
1.44212	5.57
1.45878	5.57
1.47545	5.57
1.49212	5.57
1.50878	5.57
1.52545	5.57
1.54212	5.57
1.55878	5.57
1.57545	5.57
1.59212	5.57
1.60878	5.57
1.62545	5.57
1.64212	5.56
1.65878	5.55
1.67545	5.54
1.69212	5.53
1.70878	5.52
1.72545	5.51
1.74212	5.50
1.75878	5.49
1.77545	5.48
1.79212	5.47
1.80878	5.46
1.82545	5.45
1.84212	5.44
1.85878	5.43
1.87545	5.42
1.89212	5.41
1.90878	5.40
1.92545	5.39
1.94212	5.38
1.95878	5.37
1.97545	5.36
1.99212	5.35
2.00878	5.34
2.02545	5.33
2.04212	5.32
2.05878	5.31
2.07545	5.30
2.09212	5.29
2.10878	5.28
2.12545	5.27
2.14212	5.26
2.15878	5.25
2.17545	5.24
2.19212	5.23
2.20878	5.22
2.22545	5.21
2.24212	5.21
2.25878	5.19
2.27545	5.18
2.29212	5.18
2.30878	5.17
2.32545	5.16
2.34212	5.15
2.35878	5.14
2.37545	5.14
2.39212	5.13
2.40878	5.13
2.42545	5.13
2.44212	5.13
2.45878	5.13
2.47545	5.13
2.49212	5.13
2.50878	5.13
2.52545	5.13
2.54212	5.13
2.55878	5.13
2.57545	5.13
2.59212	5.13
2.60878	5.13
2.62545	5.13
2.64212	5.13
2.65878	5.13
2.67545	5.13
2.69212	5.13
2.70878	5.13
2.72545	5.13
2.74212	5.13
2.75878	5.13
2.77545	5.13
2.79212	5.13
2.80878	5.13
2.82545	5.13
2.84212	5.13
2.85878	5.13
2.87545	5.13
2.89212	5.13
2.90878	5.13
2.92545	5.13
2.94212	5.13
2.95878	5.13
2.97545	5.13
2.99212	5.13
3.00878	5.13
3.02545	5.13
3.04212	5.13
3.05878	5.13
3.07545	5.13
3.09212	5.13
3.10878	5.13
3.12545	5.13
3.14212	5.13
3.15878	5.13
3.17545	5.13
3.19212	5.13
3.20878	5.13
3.22545	5.12
3.24212	5.12
3.25878	5.12
3.27545	5.12
3.29212	5.12
3.30878	5.12
3.32545	5.12
3.34212	5.12
3.35878	5.12
3.37545	5.12
3.39212	5.12
3.40878	5.12
3.42545	5.12
3.44212	5.12
3.45878	5.12
3.47545	5.12
3.49212	5.12
3.50878	5.12
3.52545	5.12
3.54212	5.12
3.55878	5.12
3.57545	5.12
3.59212	5.12
3.60878	5.12
3.62545	5.12
3.64212	5.12
3.65878	5.12
3.67545	5.12
3.69212	5.12
3.70878	5.12
3.72545	5.12
3.74212	5.12
3.75878	5.12
3.77545	5.12
3.79212	5.12
3.80878	5.12
3.82545	5.12
3.84212	5.12
3.85878	5.12
3.87545	5.12
3.89212	5.12
3.90878	5.12
3.92545	5.12
3.94212	5.12
3.95878	5.12
3.97545	5.12

[Status Trace (Linear Velocity)]
Interval(msec)	1000
# of Points	239
Start Time(min)	0.009
End Time(min)	3.975
Intensity Units	
Intensity Multiplier	1
R.Time (min)	Intensity
0.00878	39.02
0.02545	37.21
0.04212	38.51
0.05878	39.92
0.07545	39.85
0.09212	39.06
0.10878	39.02
0.12545	39.03
0.14212	39.03
0.15878	39.03
0.17545	39.03
0.19212	39.03
0.20878	39.03
0.22545	39.03
0.24212	39.03
0.25878	39.03
0.27545	39.03
0.29212	39.03
0.30878	39.03
0.32545	39.03
0.34212	39.03
0.35878	39.03
0.37545	39.03
0.39212	39.03
0.40878	39.03
0.42545	39.03
0.44212	39.03
0.45878	39.03
0.47545	39.03
0.49212	39.03
0.50878	39.03
0.52545	39.03
0.54212	39.03
0.55878	39.03
0.57545	39.03
0.59212	39.03
0.60878	39.02
0.62545	39.02
0.64212	39.02
0.65878	39.02
0.67545	39.02
0.69212	39.02
0.70878	39.02
0.72545	39.03
0.74212	39.03
0.75878	39.03
0.77545	39.03
0.79212	39.03
0.80878	39.03
0.82545	39.03
0.84212	39.03
0.85878	39.03
0.87545	39.03
0.89212	39.03
0.90878	39.03
0.92545	39.03
0.94212	39.03
0.95878	39.03
0.97545	39.03
0.99212	39.03
1.00878	39.03
1.02545	39.03
1.04212	39.03
1.05878	39.03
1.07545	39.03
1.09212	39.03
1.10878	39.03
1.12545	39.03
1.14212	39.03
1.15878	39.03
1.17545	39.03
1.19212	39.02
1.20878	39.03
1.22545	39.03
1.24212	39.03
1.25878	39.03
1.27545	39.03
1.29212	39.03
1.30878	39.03
1.32545	39.03
1.34212	39.03
1.35878	39.03
1.37545	39.03
1.39212	39.03
1.40878	39.03
1.42545	39.03
1.44212	39.03
1.45878	39.03
1.47545	39.03
1.49212	39.03
1.50878	39.03
1.52545	39.03
1.54212	39.03
1.55878	39.03
1.57545	39.03
1.59212	39.03
1.60878	39.02
1.62545	39.01
1.64212	39.00
1.65878	38.97
1.67545	38.94
1.69212	38.91
1.70878	38.87
1.72545	38.83
1.74212	38.81
1.75878	38.77
1.77545	38.74
1.79212	38.71
1.80878	38.68
1.82545	38.65
1.84212	38.62
1.85878	38.59
1.87545	38.55
1.89212	38.53
1.90878	38.49
1.92545	38.46
1.94212	38.44
1.95878	38.40
1.97545	38.37
1.99212	38.35
2.00878	38.31
2.02545	38.28
2.04212	38.26
2.05878	38.22
2.07545	38.19
2.09212	38.17
2.10878	38.13
2.12545	38.10
2.14212	38.08
2.15878	38.04
2.17545	38.02
2.19212	37.99
2.20878	37.96
2.22545	37.93
2.24212	37.90
2.25878	37.86
2.27545	37.83
2.29212	37.81
2.30878	37.77
2.32545	37.74
2.34212	37.72
2.35878	37.69
2.37545	37.68
2.39212	37.67
2.40878	37.67
2.42545	37.67
2.44212	37.67
2.45878	37.67
2.47545	37.67
2.49212	37.67
2.50878	37.67
2.52545	37.65
2.54212	37.67
2.55878	37.67
2.57545	37.66
2.59212	37.66
2.60878	37.66
2.62545	37.66
2.64212	37.66
2.65878	37.66
2.67545	37.66
2.69212	37.66
2.70878	37.66
2.72545	37.66
2.74212	37.66
2.75878	37.66
2.77545	37.65
2.79212	37.65
2.80878	37.66
2.82545	37.66
2.84212	37.66
2.85878	37.66
2.87545	37.66
2.89212	37.66
2.90878	37.65
2.92545	37.65
2.94212	37.65
2.95878	37.65
2.97545	37.65
2.99212	37.65
3.00878	37.65
3.02545	37.65
3.04212	37.65
3.05878	37.65
3.07545	37.64
3.09212	37.64
3.10878	37.64
3.12545	37.64
3.14212	37.64
3.15878	37.64
3.17545	37.64
3.19212	37.64
3.20878	37.64
3.22545	37.64
3.24212	37.64
3.25878	37.63
3.27545	37.63
3.29212	37.63
3.30878	37.63
3.32545	37.64
3.34212	37.64
3.35878	37.64
3.37545	37.64
3.39212	37.64
3.40878	37.64
3.42545	37.64
3.44212	37.64
3.45878	37.64
3.47545	37.64
3.49212	37.64
3.50878	37.64
3.52545	37.64
3.54212	37.64
3.55878	37.64
3.57545	37.64
3.59212	37.64
3.60878	37.64
3.62545	37.64
3.64212	37.64
3.65878	37.64
3.67545	37.64
3.69212	37.64
3.70878	37.64
3.72545	37.64
3.74212	37.64
3.75878	37.64
3.77545	37.64
3.79212	37.64
3.80878	37.64
3.82545	37.64
3.84212	37.64
3.85878	37.64
3.87545	37.64
3.89212	37.64
3.90878	37.64
3.92545	37.64
3.94212	37.64
3.95878	37.64
3.97545	37.64

