[Header]
Application Name	LabSolutions
Version	5.110
Data File Name	C:\Users\User\Desktop\GC Analyses\Jack\Nachusa Grasslands Sampling\T0 Timepoint July 12th\T0_07122022_073.gcd
Output Date	3/14/2023
Output Time	3:40:38 PM

[File Information]
Type	Data File
Generated	3/7/2023 9:55:29 PM
Generated by	System Administrator
Modified	3/7/2023 10:02:03 PM
Modified by	System Administrator

[Sample Information]
Operator Name	System Administrator
Acquired	3/7/2023 9:58:02 PM
Sample Type	0:Unknown
Level	0
Sample Name	073
Sample ID	073
ISTD Amount1	1
ISTD Amount2	1
ISTD Amount3	1
ISTD Amount4	1
ISTD Amount5	1
ISTD Amount6	1
ISTD Amount7	1
ISTD Amount8	1
ISTD Amount9	1
ISTD Amount10	1
ISTD Amount11	1
ISTD Amount12	1
ISTD Amount13	1
ISTD Amount14	1
ISTD Amount15	1
ISTD Amount16	1
ISTD Amount17	1
ISTD Amount18	1
ISTD Amount19	1
ISTD Amount20	1
ISTD Amount21	1
ISTD Amount22	1
ISTD Amount23	1
ISTD Amount24	1
ISTD Amount25	1
ISTD Amount26	1
ISTD Amount27	1
ISTD Amount28	1
ISTD Amount29	1
ISTD Amount30	1
ISTD Amount31	1
ISTD Amount32	1
Sample Amount	1
Dilution Factor	1
Vial#	72
Injection Volume	1
Injection Count	1
Bar Code	

[Original Files]
Data File	C:\Users\User\Desktop\GC Analyses\Jack\Nachusa Grasslands Sampling\T0 Timepoint July 12th\T0_07122022_073.gcd
Method File	C:\LabSolutions\Data\GHG_4min_2022\ghg3_togas_w_acet_4 min_new_int.gcm
Batch File	C:\LabSolutions\Data\AutoSamplerTesting\T0_07122022.gcb
Report Format File	c:\LabSolutions\System\DEFAULT.lsr

[File Description]


[Configuration]
Instrument Name	C0B7VH3-Instrument1
Instrument #	1
Line #	1
# of Detectors	3
Detector ID	DET#1	DET#2	DET#3
Detector Name	FID	PTCD	ECD
# of Channels	1	1	1

[Peak Table(Ch1)]
# of Peaks	3
Peak#	R.Time	I.Time	F.Time	Area	Height	A/H	Conc.	Mark	ID#	Name	k'	Plate #	Plate Ht.	Tailing	Resolution	Sep.Factor	Area Ratio	Height Ratio	Conc. %	Norm Conc.
1	1.476	1.439	1.538	43838	20946	2.093	309.499	   	1	CO	0.000	9262	16.195	1.337	0.000	0.000	0	0	42.208	42.208
2	1.567	1.538	1.641	5184	2424	2.139	100.242	 V 	2	CH4	0.062	9882	15.179	0.000	1.474	0.000	0	0	13.671	13.671
3	1.996	1.949	2.473	1289092	607587	2.122	323.527	   	3	CO2	0.353	17269	8.686	1.311	6.929	5.680	0	0	44.121	44.121

[Peak Table(Ch2)]
# of Peaks	0

[Peak Table(Ch3)]
# of Peaks	5
Peak#	R.Time	I.Time	F.Time	Area	Height	A/H	Conc.	Mark	ID#	Name	k'	Plate #	Plate Ht.	Tailing	Resolution	Sep.Factor	Area Ratio	Height Ratio	Conc. %	Norm Conc.
1	2.458	2.246	2.521	2055	440	4.673	0.000	   			0.000	7822	19.176	0.000	0.000	0.000	0	0	0.000	0.000
2	2.543	2.521	2.631	960	213	4.514	0.000	 V 			0.034	3055	49.103	0.000	0.571	0.000	0	0	0.000	0.000
3	2.711	2.645	2.755	602	119	5.043	0.000	   			0.103	682	219.811	0.000	0.563	3.000	0	0	0.000	0.000
4	2.873	2.755	3.166	20375	4890	4.167	0.520	 V 	1	N2O	0.169	13038	11.505	1.724	0.626	1.638	0	0	100.000	100.000
5	3.283	3.173	3.976	14110	555	25.415	0.000	   	2	SF6	0.336	416	360.299	3.597	1.103	1.991	0	0	0.000	0.000

[Compound Results(Ch1)]
# of IDs	6
ID#	Name	R.Time	Area	Height	Conc.	Curve	3rd	2nd	1st	Constant	Area Ratio	Height Ratio	Conc. %	Norm Conc.
1	CO	1.476	43838	20946	309.499	Linear	0.000000e+00	0.000000e+00	1.416423e+002	0.000000e+00	0	0	42.208	42.208
2	CH4	1.567	5184	2424	100.242	Linear	0.000000e+00	0.000000e+00	5.171738e+001	0.000000e+00	0	0	13.671	13.671
3	CO2	1.996	1289092	607587	323.527	Linear	0.000000e+00	0.000000e+00	3.984494e+003	0.000000e+00	0	0	44.121	44.121
4	Ethylene	0.000	0	0	0.000	Linear	0.000000e+00	0.000000e+00	0.000000e+00	0.000000e+00	0	0	0.000	0.000
5	Acetylene	0.000	0	0	0.000	Linear	0.000000e+00	0.000000e+00	0.000000e+00	0.000000e+00	0	0	0.000	0.000
6	Ethane	0.000	0	0	0.000	Linear	0.000000e+00	0.000000e+00	0.000000e+00	0.000000e+00	0	0	0.000	0.000

[Compound Results(Ch2)]
# of IDs	5
ID#	Name	R.Time	Area	Height	Conc.	Curve	3rd	2nd	1st	Constant	Area Ratio	Height Ratio	Conc. %	Norm Conc.
1	Hydrogen	0.000	0	0	0.000	Linear	0.000000e+00	0.000000e+00	0.000000e+00	0.000000e+00	0	0	0.000	0.000
2	Oxygen	0.000	0	0	0.000	Linear	0.000000e+00	0.000000e+00	0.000000e+00	0.000000e+00	0	0	0.000	0.000
3	Nitrogen	0.000	0	0	0.000	Linear	0.000000e+00	0.000000e+00	0.000000e+00	0.000000e+00	0	0	0.000	0.000
4	Methane	0.000	0	0	0.000	Linear	0.000000e+00	0.000000e+00	0.000000e+00	0.000000e+00	0	0	0.000	0.000
5	Carbon Monoxide	0.000	0	0	0.000	Linear	0.000000e+00	0.000000e+00	0.000000e+00	0.000000e+00	0	0	0.000	0.000

[Compound Results(Ch3)]
# of IDs	2
ID#	Name	R.Time	Area	Height	Conc.	Curve	3rd	2nd	1st	Constant	Area Ratio	Height Ratio	Conc. %	Norm Conc.
1	N2O	2.873	20375	4890	0.520	Linear	0.000000e+00	0.000000e+00	3.915173e+004	0.000000e+00	0	0	100.000	100.000
2	SF6	3.283	14110	555	0.000	Linear	0.000000e+00	0.000000e+00	0.000000e+00	0.000000e+00	0	0	0.000	0.000

[Group Results(Ch1)]
# of Groups	0

[Group Results(Ch2)]
# of Groups	0

[Group Results(Ch3)]
# of Groups	0

[Chromatogram (Ch1)]
Interval(msec)	220
# of Points	1091
Start Time(min)	0.002
End Time(min)	3.998
R.Time (min)	Intensity
0.00167	-3
0.00533	-5
0.00900	-10
0.01267	-13
0.01633	-14
0.02000	-15
0.02367	-15
0.02733	-13
0.03100	-12
0.03467	-6
0.03833	1
0.04200	5
0.04567	6
0.04933	5
0.05300	2
0.05667	-3
0.06033	-8
0.06400	-9
0.06767	-4
0.07133	2
0.07500	3
0.07867	0
0.08233	-5
0.08600	-10
0.08967	-13
0.09333	-9
0.09700	-5
0.10067	1
0.10433	7
0.10800	8
0.11167	4
0.11533	-1
0.11900	-11
0.12267	-22
0.12633	-28
0.13000	-28
0.13367	-23
0.13733	-17
0.14100	-14
0.14467	-10
0.14833	-3
0.15200	8
0.15567	14
0.15933	13
0.16300	10
0.16667	8
0.17033	9
0.17400	11
0.17767	11
0.18133	8
0.18500	4
0.18867	-3
0.19233	-8
0.19600	-13
0.19967	-18
0.20333	-19
0.20700	-17
0.21067	-13
0.21433	-14
0.21800	-16
0.22167	-19
0.22533	-20
0.22900	-17
0.23267	-13
0.23633	-9
0.24000	-5
0.24367	-3
0.24733	-3
0.25100	-2
0.25467	-0
0.25833	3
0.26200	7
0.26567	10
0.26933	11
0.27300	10
0.27667	14
0.28033	21
0.28400	30
0.28767	37
0.29133	41
0.29500	43
0.29867	42
0.30233	39
0.30600	36
0.30967	31
0.31333	24
0.31700	21
0.32067	22
0.32433	28
0.32800	34
0.33167	39
0.33533	45
0.33900	49
0.34267	51
0.34633	51
0.35000	53
0.35367	55
0.35733	58
0.36100	59
0.36467	62
0.36833	69
0.37200	74
0.37567	78
0.37933	80
0.38300	79
0.38667	77
0.39033	74
0.39400	72
0.39767	73
0.40133	76
0.40500	80
0.40867	81
0.41233	78
0.41600	72
0.41967	64
0.42333	60
0.42700	57
0.43067	54
0.43433	52
0.43800	51
0.44167	51
0.44533	52
0.44900	52
0.45267	51
0.45633	48
0.46000	43
0.46367	41
0.46733	38
0.47100	39
0.47467	44
0.47833	47
0.48200	46
0.48567	43
0.48933	37
0.49300	29
0.49667	21
0.50033	15
0.50400	14
0.50767	15
0.51133	16
0.51500	16
0.51867	11
0.52233	8
0.52600	4
0.52967	-2
0.53333	-4
0.53700	-2
0.54067	-0
0.54433	3
0.54800	11
0.55167	19
0.55533	22
0.55900	23
0.56267	24
0.56633	29
0.57000	34
0.57367	34
0.57733	26
0.58100	16
0.58467	8
0.58833	1
0.59200	-4
0.59567	-4
0.59933	0
0.60300	7
0.60667	11
0.61033	9
0.61400	7
0.61767	11
0.62133	16
0.62500	13
0.62867	10
0.63233	10
0.63600	10
0.63967	9
0.64333	7
0.64700	4
0.65067	1
0.65433	1
0.65800	3
0.66167	6
0.66533	10
0.66900	15
0.67267	18
0.67633	16
0.68000	10
0.68367	6
0.68733	5
0.69100	8
0.69467	11
0.69833	13
0.70200	15
0.70567	14
0.70933	10
0.71300	7
0.71667	8
0.72033	6
0.72400	-2
0.72767	-10
0.73133	-16
0.73500	-20
0.73867	-20
0.74233	-17
0.74600	-13
0.74967	-12
0.75333	-11
0.75700	-5
0.76067	2
0.76433	6
0.76800	8
0.77167	10
0.77533	8
0.77900	2
0.78267	-4
0.78633	-6
0.79000	-8
0.79367	-6
0.79733	-1
0.80100	4
0.80467	5
0.80833	1
0.81200	-5
0.81567	-9
0.81933	-12
0.82300	-15
0.82667	-18
0.83033	-20
0.83400	-17
0.83767	-8
0.84133	1
0.84500	5
0.84867	7
0.85233	6
0.85600	4
0.85967	6
0.86333	10
0.86700	13
0.87067	15
0.87433	12
0.87800	4
0.88167	-5
0.88533	-15
0.88900	-25
0.89267	-31
0.89633	-34
0.90000	-33
0.90367	-29
0.90733	-22
0.91100	-16
0.91467	-7
0.91833	-0
0.92200	3
0.92567	8
0.92933	14
0.93300	17
0.93667	14
0.94033	6
0.94400	-4
0.94767	-10
0.95133	-14
0.95500	-18
0.95867	-24
0.96233	-27
0.96600	-27
0.96967	-25
0.97333	-22
0.97700	-20
0.98067	-20
0.98433	-21
0.98800	-21
0.99167	-21
0.99533	-18
0.99900	-10
1.00267	-7
1.00633	-16
1.01000	-31
1.01367	-40
1.01733	-40
1.02100	-38
1.02467	-37
1.02833	-36
1.03200	-34
1.03567	-30
1.03933	-26
1.04300	-21
1.04667	-16
1.05033	-14
1.05400	-14
1.05767	-16
1.06133	-21
1.06500	-26
1.06867	-29
1.07233	-28
1.07600	-25
1.07967	-23
1.08333	-23
1.08700	-23
1.09067	-23
1.09433	-22
1.09800	-20
1.10167	-20
1.10533	-22
1.10900	-27
1.11267	-29
1.11633	-24
1.12000	-16
1.12367	-12
1.12733	-10
1.13100	-8
1.13467	-10
1.13833	-14
1.14200	-19
1.14567	-24
1.14933	-30
1.15300	-37
1.15667	-43
1.16033	-47
1.16400	-47
1.16767	-46
1.17133	-48
1.17500	-52
1.17867	-53
1.18233	-49
1.18600	-41
1.18967	-33
1.19333	-28
1.19700	-28
1.20067	-34
1.20433	-43
1.20800	-49
1.21167	-56
1.21533	-60
1.21900	-60
1.22267	-58
1.22633	-56
1.23000	-54
1.23367	-50
1.23733	-46
1.24100	-41
1.24467	-41
1.24833	-44
1.25200	-44
1.25567	-41
1.25933	-34
1.26300	-30
1.26667	-28
1.27033	-28
1.27400	-31
1.27767	-37
1.28133	-46
1.28500	-48
1.28867	-49
1.29233	-49
1.29600	-50
1.29967	-50
1.30333	-54
1.30700	-58
1.31067	-60
1.31433	-59
1.31800	-59
1.32167	-59
1.32533	-57
1.32900	-57
1.33267	-57
1.33633	-54
1.34000	-48
1.34367	-45
1.34733	-46
1.35100	-47
1.35467	-50
1.35833	-53
1.36200	-54
1.36567	-54
1.36933	-55
1.37300	-54
1.37667	-52
1.38033	-50
1.38400	-45
1.38767	-41
1.39133	-40
1.39500	-41
1.39867	-43
1.40233	-47
1.40600	-50
1.40967	-51
1.41333	-49
1.41700	-48
1.42067	-47
1.42433	-48
1.42800	-51
1.43167	-54
1.43533	-57
1.43900	-44
1.44267	44
1.44633	315
1.45000	1117
1.45367	3128
1.45733	6524
1.46100	10620
1.46467	14533
1.46833	17716
1.47200	19905
1.47567	20912
1.47933	20558
1.48300	18845
1.48667	16104
1.49033	12917
1.49400	9843
1.49767	7230
1.50133	5188
1.50500	3683
1.50867	2614
1.51233	1869
1.51600	1356
1.51967	1004
1.52333	763
1.52700	596
1.53067	480
1.53433	397
1.53800	347
1.54167	363
1.54533	512
1.54900	822
1.55267	1238
1.55633	1662
1.56000	2022
1.56367	2279
1.56733	2412
1.57100	2391
1.57467	2207
1.57833	1888
1.58200	1506
1.58567	1137
1.58933	826
1.59300	580
1.59667	396
1.60033	267
1.60400	182
1.60767	127
1.61133	89
1.61500	64
1.61867	50
1.62233	44
1.62600	41
1.62967	37
1.63333	28
1.63700	16
1.64067	5
1.64433	-1
1.64800	-6
1.65167	-10
1.65533	-13
1.65900	-15
1.66267	-18
1.66633	-20
1.67000	-25
1.67367	-29
1.67733	-29
1.68100	-29
1.68467	-31
1.68833	-35
1.69200	-34
1.69567	-30
1.69933	-25
1.70300	-22
1.70667	-21
1.71033	-21
1.71400	-22
1.71767	-24
1.72133	-21
1.72500	-17
1.72867	-12
1.73233	-10
1.73600	-10
1.73967	-14
1.74333	-21
1.74700	-29
1.75067	-37
1.75433	-46
1.75800	-49
1.76167	-47
1.76533	-44
1.76900	-40
1.77267	-35
1.77633	-30
1.78000	-25
1.78367	-21
1.78733	-20
1.79100	-21
1.79467	-25
1.79833	-30
1.80200	-31
1.80567	-35
1.80933	-40
1.81300	-46
1.81667	-51
1.82033	-55
1.82400	-57
1.82767	-55
1.83133	-51
1.83500	-47
1.83867	-42
1.84233	-35
1.84600	-28
1.84967	-23
1.85333	-21
1.85700	-23
1.86067	-25
1.86433	-25
1.86800	-24
1.87167	-24
1.87533	-25
1.87900	-26
1.88267	-25
1.88633	-26
1.89000	-32
1.89367	-40
1.89733	-46
1.90100	-50
1.90467	-53
1.90833	-58
1.91200	-64
1.91567	-66
1.91933	-65
1.92300	-57
1.92667	-43
1.93033	-31
1.93400	-28
1.93767	-29
1.94133	-29
1.94500	-28
1.94867	-25
1.95233	-6
1.95600	104
1.95967	708
1.96333	3425
1.96700	12767
1.97067	37384
1.97433	87903
1.97800	169702
1.98167	276504
1.98533	391434
1.98900	494730
1.99267	570316
1.99633	607600
2.00000	601872
2.00367	555790
2.00733	479924
2.01100	389807
2.01467	300481
2.01833	222246
2.02200	159598
2.02567	112570
2.02933	78833
2.03300	55347
2.03667	39298
2.04033	28430
2.04400	21084
2.04767	16092
2.05133	12660
2.05500	10264
2.05867	8556
2.06233	7305
2.06600	6366
2.06967	5642
2.07333	5067
2.07700	4597
2.08067	4204
2.08433	3871
2.08800	3589
2.09167	3343
2.09533	3124
2.09900	2930
2.10267	2761
2.10633	2610
2.11000	2474
2.11367	2349
2.11733	2237
2.12100	2136
2.12467	2044
2.12833	1960
2.13200	1882
2.13567	1807
2.13933	1737
2.14300	1669
2.14667	1608
2.15033	1552
2.15400	1505
2.15767	1462
2.16133	1421
2.16500	1379
2.16867	1335
2.17233	1296
2.17600	1260
2.17967	1224
2.18333	1188
2.18700	1156
2.19067	1127
2.19433	1100
2.19800	1078
2.20167	1059
2.20533	1039
2.20900	1013
2.21267	983
2.21633	950
2.22000	917
2.22367	887
2.22733	864
2.23100	847
2.23467	836
2.23833	823
2.24200	809
2.24567	798
2.24933	786
2.25300	770
2.25667	754
2.26033	738
2.26400	723
2.26767	712
2.27133	705
2.27500	699
2.27867	689
2.28233	672
2.28600	654
2.28967	639
2.29333	630
2.29700	626
2.30067	626
2.30433	629
2.30800	631
2.31167	630
2.31533	621
2.31900	603
2.32267	584
2.32633	571
2.33000	562
2.33367	552
2.33733	541
2.34100	532
2.34467	526
2.34833	519
2.35200	515
2.35567	513
2.35933	513
2.36300	511
2.36667	508
2.37033	503
2.37400	497
2.37767	490
2.38133	486
2.38500	482
2.38867	474
2.39233	464
2.39600	454
2.39967	445
2.40333	439
2.40700	440
2.41067	446
2.41433	449
2.41800	453
2.42167	456
2.42533	458
2.42900	456
2.43267	447
2.43633	433
2.44000	420
2.44367	414
2.44733	411
2.45100	409
2.45467	409
2.45833	410
2.46200	409
2.46567	404
2.46933	396
2.47300	392
2.47667	389
2.48033	389
2.48400	394
2.48767	404
2.49133	410
2.49500	407
2.49867	397
2.50233	391
2.50600	393
2.50967	400
2.51333	405
2.51700	405
2.52067	405
2.52433	403
2.52800	395
2.53167	384
2.53533	373
2.53900	361
2.54267	355
2.54633	352
2.55000	349
2.55367	347
2.55733	348
2.56100	352
2.56467	359
2.56833	368
2.57200	375
2.57567	378
2.57933	374
2.58300	363
2.58667	352
2.59033	346
2.59400	346
2.59767	348
2.60133	349
2.60500	349
2.60867	351
2.61233	352
2.61600	350
2.61967	347
2.62333	347
2.62700	349
2.63067	349
2.63433	346
2.63800	345
2.64167	347
2.64533	350
2.64900	350
2.65267	351
2.65633	353
2.66000	354
2.66367	354
2.66733	352
2.67100	350
2.67467	358
2.67833	372
2.68200	385
2.68567	391
2.68933	392
2.69300	391
2.69667	392
2.70033	392
2.70400	391
2.70767	389
2.71133	390
2.71500	395
2.71867	400
2.72233	402
2.72600	401
2.72967	396
2.73333	392
2.73700	390
2.74067	391
2.74433	392
2.74800	392
2.75167	391
2.75533	391
2.75900	392
2.76267	392
2.76633	390
2.77000	388
2.77367	386
2.77733	381
2.78100	377
2.78467	375
2.78833	378
2.79200	385
2.79567	391
2.79933	398
2.80300	398
2.80667	396
2.81033	392
2.81400	388
2.81767	386
2.82133	383
2.82500	381
2.82867	382
2.83233	383
2.83600	383
2.83967	385
2.84333	388
2.84700	392
2.85067	396
2.85433	397
2.85800	394
2.86167	388
2.86533	380
2.86900	376
2.87267	374
2.87633	376
2.88000	381
2.88367	386
2.88733	392
2.89100	398
2.89467	400
2.89833	395
2.90200	386
2.90567	380
2.90933	379
2.91300	382
2.91667	384
2.92033	383
2.92400	384
2.92767	386
2.93133	388
2.93500	388
2.93867	385
2.94233	381
2.94600	378
2.94967	375
2.95333	374
2.95700	375
2.96067	377
2.96433	380
2.96800	389
2.97167	402
2.97533	414
2.97900	421
2.98267	423
2.98633	418
2.99000	410
2.99367	403
2.99733	397
3.00100	392
3.00467	386
3.00833	383
3.01200	382
3.01567	386
3.01933	388
3.02300	387
3.02667	386
3.03033	387
3.03400	391
3.03767	397
3.04133	401
3.04500	404
3.04867	406
3.05233	404
3.05600	395
3.05967	383
3.06333	375
3.06700	369
3.07067	366
3.07433	369
3.07800	369
3.08167	367
3.08533	365
3.08900	366
3.09267	368
3.09633	368
3.10000	366
3.10367	365
3.10733	365
3.11100	364
3.11467	365
3.11833	370
3.12200	378
3.12567	387
3.12933	388
3.13300	382
3.13667	377
3.14033	373
3.14400	366
3.14767	358
3.15133	353
3.15500	352
3.15867	352
3.16233	354
3.16600	358
3.16967	363
3.17333	366
3.17700	363
3.18067	358
3.18433	355
3.18800	353
3.19167	349
3.19533	347
3.19900	350
3.20267	354
3.20633	359
3.21000	363
3.21367	364
3.21733	363
3.22100	357
3.22467	351
3.22833	347
3.23200	345
3.23567	342
3.23933	337
3.24300	335
3.24667	337
3.25033	338
3.25400	338
3.25767	340
3.26133	346
3.26500	353
3.26867	357
3.27233	358
3.27600	354
3.27967	348
3.28333	344
3.28700	344
3.29067	347
3.29433	351
3.29800	354
3.30167	355
3.30533	355
3.30900	352
3.31267	348
3.31633	344
3.32000	340
3.32367	335
3.32733	334
3.33100	339
3.33467	341
3.33833	340
3.34200	337
3.34567	337
3.34933	341
3.35300	344
3.35667	344
3.36033	342
3.36400	341
3.36767	343
3.37133	346
3.37500	347
3.37867	344
3.38233	339
3.38600	331
3.38967	321
3.39333	312
3.39700	309
3.40067	309
3.40433	309
3.40800	312
3.41167	320
3.41533	331
3.41900	342
3.42267	346
3.42633	342
3.43000	339
3.43367	337
3.43733	333
3.44100	328
3.44467	319
3.44833	308
3.45200	300
3.45567	298
3.45933	301
3.46300	306
3.46667	310
3.47033	309
3.47400	304
3.47767	298
3.48133	295
3.48500	295
3.48867	297
3.49233	300
3.49600	302
3.49967	304
3.50333	303
3.50700	304
3.51067	302
3.51433	297
3.51800	289
3.52167	282
3.52533	280
3.52900	282
3.53267	285
3.53633	291
3.54000	295
3.54367	298
3.54733	302
3.55100	306
3.55467	309
3.55833	308
3.56200	306
3.56567	305
3.56933	308
3.57300	312
3.57667	312
3.58033	309
3.58400	304
3.58767	298
3.59133	295
3.59500	296
3.59867	298
3.60233	296
3.60600	291
3.60967	284
3.61333	281
3.61700	283
3.62067	286
3.62433	288
3.62800	288
3.63167	287
3.63533	286
3.63900	286
3.64267	283
3.64633	279
3.65000	276
3.65367	274
3.65733	267
3.66100	258
3.66467	252
3.66833	250
3.67200	247
3.67567	241
3.67933	234
3.68300	232
3.68667	234
3.69033	237
3.69400	244
3.69767	251
3.70133	261
3.70500	272
3.70867	285
3.71233	293
3.71600	292
3.71967	285
3.72333	278
3.72700	269
3.73067	264
3.73433	265
3.73800	264
3.74167	261
3.74533	259
3.74900	258
3.75267	257
3.75633	255
3.76000	254
3.76367	253
3.76733	251
3.77100	250
3.77467	250
3.77833	253
3.78200	255
3.78567	254
3.78933	251
3.79300	248
3.79667	248
3.80033	253
3.80400	259
3.80767	264
3.81133	268
3.81500	271
3.81867	273
3.82233	274
3.82600	276
3.82967	275
3.83333	276
3.83700	272
3.84067	265
3.84433	255
3.84800	247
3.85167	242
3.85533	239
3.85900	238
3.86267	239
3.86633	239
3.87000	234
3.87367	225
3.87733	218
3.88100	218
3.88467	221
3.88833	226
3.89200	230
3.89567	232
3.89933	234
3.90300	237
3.90667	238
3.91033	241
3.91400	244
3.91767	246
3.92133	248
3.92500	245
3.92867	240
3.93233	237
3.93600	239
3.93967	241
3.94333	243
3.94700	242
3.95067	238
3.95433	235
3.95800	237
3.96167	245
3.96533	250
3.96900	251
3.97267	243
3.97633	231
3.98000	224
3.98367	223
3.98733	223
3.99100	220
3.99467	218
3.99833	221

[Chromatogram (Ch2)]
Interval(msec)	220
# of Points	1091
Start Time(min)	0.002
End Time(min)	3.998
R.Time (min)	Intensity
0.00167	0
0.00533	0
0.00900	1
0.01267	1
0.01633	1
0.02000	1
0.02367	1
0.02733	1
0.03100	1
0.03467	1
0.03833	1
0.04200	1
0.04567	1
0.04933	1
0.05300	1
0.05667	2
0.06033	2
0.06400	2
0.06767	1
0.07133	1
0.07500	1
0.07867	1
0.08233	1
0.08600	1
0.08967	1
0.09333	1
0.09700	1
0.10067	2
0.10433	3
0.10800	3
0.11167	4
0.11533	4
0.11900	4
0.12267	4
0.12633	4
0.13000	4
0.13367	4
0.13733	4
0.14100	4
0.14467	3
0.14833	3
0.15200	2
0.15567	2
0.15933	2
0.16300	2
0.16667	2
0.17033	2
0.17400	2
0.17767	2
0.18133	2
0.18500	2
0.18867	2
0.19233	2
0.19600	2
0.19967	2
0.20333	2
0.20700	2
0.21067	2
0.21433	2
0.21800	2
0.22167	2
0.22533	2
0.22900	2
0.23267	2
0.23633	3
0.24000	3
0.24367	2
0.24733	2
0.25100	2
0.25467	2
0.25833	2
0.26200	2
0.26567	1
0.26933	1
0.27300	1
0.27667	1
0.28033	1
0.28400	1
0.28767	1
0.29133	1
0.29500	2
0.29867	2
0.30233	2
0.30600	2
0.30967	3
0.31333	3
0.31700	4
0.32067	4
0.32433	4
0.32800	4
0.33167	4
0.33533	4
0.33900	4
0.34267	4
0.34633	4
0.35000	4
0.35367	4
0.35733	4
0.36100	4
0.36467	4
0.36833	5
0.37200	5
0.37567	5
0.37933	5
0.38300	5
0.38667	5
0.39033	5
0.39400	5
0.39767	5
0.40133	4
0.40500	4
0.40867	3
0.41233	3
0.41600	2
0.41967	1
0.42333	0
0.42700	-0
0.43067	-0
0.43433	-1
0.43800	-0
0.44167	-0
0.44533	-0
0.44900	0
0.45267	1
0.45633	1
0.46000	1
0.46367	1
0.46733	1
0.47100	1
0.47467	1
0.47833	1
0.48200	1
0.48567	1
0.48933	1
0.49300	1
0.49667	0
0.50033	0
0.50400	0
0.50767	0
0.51133	0
0.51500	0
0.51867	0
0.52233	0
0.52600	0
0.52967	1
0.53333	1
0.53700	2
0.54067	2
0.54433	2
0.54800	2
0.55167	2
0.55533	2
0.55900	2
0.56267	2
0.56633	3
0.57000	3
0.57367	3
0.57733	3
0.58100	3
0.58467	4
0.58833	4
0.59200	4
0.59567	4
0.59933	3
0.60300	3
0.60667	3
0.61033	2
0.61400	2
0.61767	2
0.62133	1
0.62500	1
0.62867	1
0.63233	0
0.63600	0
0.63967	-0
0.64333	-0
0.64700	-0
0.65067	-0
0.65433	-0
0.65800	-1
0.66167	-1
0.66533	-0
0.66900	-0
0.67267	-0
0.67633	-0
0.68000	0
0.68367	0
0.68733	0
0.69100	0
0.69467	1
0.69833	1
0.70200	1
0.70567	1
0.70933	1
0.71300	2
0.71667	2
0.72033	2
0.72400	2
0.72767	2
0.73133	2
0.73500	2
0.73867	2
0.74233	2
0.74600	2
0.74967	2
0.75333	2
0.75700	2
0.76067	2
0.76433	2
0.76800	2
0.77167	2
0.77533	2
0.77900	2
0.78267	2
0.78633	2
0.79000	2
0.79367	2
0.79733	2
0.80100	2
0.80467	2
0.80833	2
0.81200	2
0.81567	3
0.81933	3
0.82300	3
0.82667	3
0.83033	3
0.83400	3
0.83767	4
0.84133	4
0.84500	4
0.84867	4
0.85233	4
0.85600	4
0.85967	4
0.86333	5
0.86700	5
0.87067	5
0.87433	5
0.87800	5
0.88167	4
0.88533	4
0.88900	3
0.89267	2
0.89633	2
0.90000	1
0.90367	1
0.90733	0
0.91100	0
0.91467	0
0.91833	-0
0.92200	-0
0.92567	-0
0.92933	-0
0.93300	-0
0.93667	-0
0.94033	-0
0.94400	-0
0.94767	-0
0.95133	-0
0.95500	-1
0.95867	-1
0.96233	-0
0.96600	-0
0.96967	0
0.97333	0
0.97700	0
0.98067	0
0.98433	1
0.98800	1
0.99167	1
0.99533	2
0.99900	2
1.00267	2
1.00633	2
1.01000	3
1.01367	3
1.01733	2
1.02100	2
1.02467	2
1.02833	2
1.03200	1
1.03567	1
1.03933	0
1.04300	0
1.04667	-0
1.05033	0
1.05400	0
1.05767	0
1.06133	0
1.06500	0
1.06867	0
1.07233	1
1.07600	1
1.07967	1
1.08333	2
1.08700	2
1.09067	2
1.09433	2
1.09800	2
1.10167	2
1.10533	2
1.10900	3
1.11267	3
1.11633	3
1.12000	3
1.12367	3
1.12733	3
1.13100	3
1.13467	3
1.13833	2
1.14200	2
1.14567	2
1.14933	2
1.15300	2
1.15667	2
1.16033	2
1.16400	1
1.16767	1
1.17133	1
1.17500	0
1.17867	-0
1.18233	-0
1.18600	-0
1.18967	-0
1.19333	-0
1.19700	-0
1.20067	0
1.20433	0
1.20800	0
1.21167	0
1.21533	-0
1.21900	-0
1.22267	-0
1.22633	-0
1.23000	-1
1.23367	-1
1.23733	-1
1.24100	-1
1.24467	-1
1.24833	-0
1.25200	-0
1.25567	-0
1.25933	-0
1.26300	0
1.26667	0
1.27033	0
1.27400	1
1.27767	1
1.28133	2
1.28500	2
1.28867	2
1.29233	2
1.29600	2
1.29967	2
1.30333	2
1.30700	1
1.31067	1
1.31433	1
1.31800	0
1.32167	-0
1.32533	-0
1.32900	-1
1.33267	-1
1.33633	-1
1.34000	-1
1.34367	-0
1.34733	-0
1.35100	0
1.35467	0
1.35833	1
1.36200	1
1.36567	2
1.36933	2
1.37300	2
1.37667	2
1.38033	2
1.38400	2
1.38767	2
1.39133	2
1.39500	2
1.39867	2
1.40233	3
1.40600	3
1.40967	3
1.41333	3
1.41700	3
1.42067	3
1.42433	2
1.42800	2
1.43167	1
1.43533	1
1.43900	0
1.44267	-0
1.44633	-1
1.45000	-1
1.45367	-1
1.45733	-2
1.46100	-2
1.46467	-2
1.46833	-2
1.47200	-2
1.47567	-2
1.47933	-1
1.48300	-1
1.48667	-1
1.49033	-1
1.49400	-1
1.49767	-1
1.50133	-1
1.50500	-0
1.50867	-0
1.51233	-0
1.51600	0
1.51967	0
1.52333	0
1.52700	-0
1.53067	-1
1.53433	-1
1.53800	-1
1.54167	-1
1.54533	-1
1.54900	-1
1.55267	-1
1.55633	-1
1.56000	-1
1.56367	-0
1.56733	-0
1.57100	0
1.57467	0
1.57833	0
1.58200	1
1.58567	1
1.58933	1
1.59300	1
1.59667	1
1.60033	0
1.60400	-0
1.60767	-2
1.61133	-3
1.61500	-5
1.61867	-8
1.62233	-11
1.62600	-14
1.62967	-17
1.63333	-21
1.63700	-25
1.64067	-28
1.64433	-32
1.64800	-35
1.65167	-38
1.65533	-42
1.65900	-46
1.66267	-50
1.66633	-54
1.67000	-59
1.67367	-64
1.67733	-70
1.68100	-75
1.68467	-80
1.68833	-85
1.69200	-90
1.69567	-94
1.69933	-97
1.70300	-100
1.70667	-102
1.71033	-104
1.71400	-106
1.71767	-107
1.72133	-108
1.72500	-109
1.72867	-109
1.73233	-109
1.73600	-109
1.73967	-109
1.74333	-108
1.74700	-108
1.75067	-108
1.75433	-108
1.75800	-109
1.76167	-110
1.76533	-111
1.76900	-112
1.77267	-113
1.77633	-114
1.78000	-115
1.78367	-115
1.78733	-116
1.79100	-116
1.79467	-115
1.79833	-114
1.80200	-114
1.80567	-113
1.80933	-113
1.81300	-113
1.81667	-113
1.82033	-113
1.82400	-114
1.82767	-114
1.83133	-114
1.83500	-114
1.83867	-114
1.84233	-114
1.84600	-115
1.84967	-115
1.85333	-115
1.85700	-115
1.86067	-116
1.86433	-115
1.86800	-115
1.87167	-115
1.87533	-115
1.87900	-115
1.88267	-115
1.88633	-115
1.89000	-115
1.89367	-114
1.89733	-114
1.90100	-114
1.90467	-114
1.90833	-113
1.91200	-113
1.91567	-112
1.91933	-112
1.92300	-111
1.92667	-111
1.93033	-111
1.93400	-111
1.93767	-112
1.94133	-112
1.94500	-111
1.94867	-111
1.95233	-111
1.95600	-111
1.95967	-112
1.96333	-112
1.96700	-112
1.97067	-113
1.97433	-113
1.97800	-114
1.98167	-113
1.98533	-113
1.98900	-112
1.99267	-110
1.99633	-109
2.00000	-108
2.00367	-107
2.00733	-107
2.01100	-107
2.01467	-106
2.01833	-106
2.02200	-106
2.02567	-106
2.02933	-107
2.03300	-107
2.03667	-107
2.04033	-107
2.04400	-106
2.04767	-106
2.05133	-105
2.05500	-104
2.05867	-103
2.06233	-103
2.06600	-102
2.06967	-102
2.07333	-102
2.07700	-102
2.08067	-101
2.08433	-101
2.08800	-101
2.09167	-101
2.09533	-101
2.09900	-100
2.10267	-100
2.10633	-99
2.11000	-99
2.11367	-98
2.11733	-98
2.12100	-97
2.12467	-97
2.12833	-97
2.13200	-96
2.13567	-96
2.13933	-96
2.14300	-96
2.14667	-96
2.15033	-96
2.15400	-96
2.15767	-95
2.16133	-95
2.16500	-95
2.16867	-95
2.17233	-95
2.17600	-95
2.17967	-94
2.18333	-94
2.18700	-93
2.19067	-92
2.19433	-92
2.19800	-92
2.20167	-91
2.20533	-91
2.20900	-90
2.21267	-90
2.21633	-89
2.22000	-88
2.22367	-88
2.22733	-88
2.23100	-88
2.23467	-88
2.23833	-88
2.24200	-88
2.24567	-88
2.24933	-88
2.25300	-87
2.25667	-87
2.26033	-87
2.26400	-86
2.26767	-86
2.27133	-85
2.27500	-85
2.27867	-85
2.28233	-84
2.28600	-84
2.28967	-83
2.29333	-83
2.29700	-83
2.30067	-82
2.30433	-82
2.30800	-82
2.31167	-82
2.31533	-82
2.31900	-82
2.32267	-82
2.32633	-82
2.33000	-82
2.33367	-81
2.33733	-81
2.34100	-80
2.34467	-79
2.34833	-77
2.35200	-76
2.35567	-74
2.35933	-73
2.36300	-72
2.36667	-71
2.37033	-69
2.37400	-67
2.37767	-64
2.38133	-61
2.38500	-57
2.38867	-54
2.39233	-50
2.39600	-45
2.39967	-41
2.40333	-37
2.40700	-33
2.41067	-29
2.41433	-26
2.41800	-23
2.42167	-21
2.42533	-19
2.42900	-17
2.43267	-15
2.43633	-13
2.44000	-11
2.44367	-9
2.44733	-7
2.45100	-5
2.45467	-4
2.45833	-3
2.46200	-1
2.46567	-0
2.46933	1
2.47300	2
2.47667	3
2.48033	4
2.48400	5
2.48767	6
2.49133	7
2.49500	8
2.49867	9
2.50233	10
2.50600	11
2.50967	12
2.51333	13
2.51700	13
2.52067	14
2.52433	14
2.52800	14
2.53167	14
2.53533	15
2.53900	16
2.54267	16
2.54633	17
2.55000	17
2.55367	17
2.55733	17
2.56100	18
2.56467	17
2.56833	17
2.57200	17
2.57567	17
2.57933	17
2.58300	17
2.58667	17
2.59033	17
2.59400	17
2.59767	17
2.60133	18
2.60500	18
2.60867	19
2.61233	19
2.61600	19
2.61967	19
2.62333	19
2.62700	19
2.63067	19
2.63433	19
2.63800	19
2.64167	18
2.64533	19
2.64900	19
2.65267	19
2.65633	19
2.66000	20
2.66367	20
2.66733	21
2.67100	21
2.67467	22
2.67833	22
2.68200	22
2.68567	23
2.68933	23
2.69300	23
2.69667	23
2.70033	23
2.70400	23
2.70767	22
2.71133	22
2.71500	23
2.71867	23
2.72233	23
2.72600	23
2.72967	24
2.73333	25
2.73700	26
2.74067	26
2.74433	27
2.74800	28
2.75167	29
2.75533	29
2.75900	30
2.76267	31
2.76633	31
2.77000	32
2.77367	32
2.77733	32
2.78100	31
2.78467	31
2.78833	30
2.79200	30
2.79567	29
2.79933	29
2.80300	28
2.80667	28
2.81033	28
2.81400	28
2.81767	28
2.82133	28
2.82500	28
2.82867	28
2.83233	28
2.83600	27
2.83967	25
2.84333	22
2.84700	17
2.85067	10
2.85433	-1
2.85800	-15
2.86167	-33
2.86533	-55
2.86900	-81
2.87267	-112
2.87633	-147
2.88000	-185
2.88367	-227
2.88733	-272
2.89100	-319
2.89467	-369
2.89833	-419
2.90200	-472
2.90567	-525
2.90933	-578
2.91300	-631
2.91667	-684
2.92033	-736
2.92400	-787
2.92767	-838
2.93133	-891
2.93500	-948
2.93867	-1008
2.94233	-1060
2.94600	-1094
2.94967	-1104
2.95333	-1087
2.95700	-1046
2.96067	-988
2.96433	-917
2.96800	-839
2.97167	-758
2.97533	-678
2.97900	-600
2.98267	-528
2.98633	-461
2.99000	-401
2.99367	-346
2.99733	-298
3.00100	-255
3.00467	-217
3.00833	-185
3.01200	-156
3.01567	-131
3.01933	-110
3.02300	-92
3.02667	-76
3.03033	-63
3.03400	-51
3.03767	-42
3.04133	-33
3.04500	-26
3.04867	-20
3.05233	-14
3.05600	-10
3.05967	-6
3.06333	-3
3.06700	1
3.07067	3
3.07433	5
3.07800	7
3.08167	9
3.08533	10
3.08900	11
3.09267	12
3.09633	13
3.10000	14
3.10367	14
3.10733	15
3.11100	15
3.11467	16
3.11833	16
3.12200	17
3.12567	17
3.12933	18
3.13300	18
3.13667	18
3.14033	18
3.14400	19
3.14767	19
3.15133	19
3.15500	19
3.15867	19
3.16233	20
3.16600	20
3.16967	21
3.17333	21
3.17700	21
3.18067	22
3.18433	22
3.18800	22
3.19167	23
3.19533	23
3.19900	23
3.20267	24
3.20633	24
3.21000	24
3.21367	24
3.21733	24
3.22100	24
3.22467	25
3.22833	25
3.23200	25
3.23567	26
3.23933	26
3.24300	27
3.24667	27
3.25033	27
3.25400	27
3.25767	27
3.26133	27
3.26500	27
3.26867	27
3.27233	27
3.27600	27
3.27967	27
3.28333	27
3.28700	27
3.29067	27
3.29433	27
3.29800	27
3.30167	27
3.30533	27
3.30900	27
3.31267	27
3.31633	27
3.32000	27
3.32367	27
3.32733	27
3.33100	27
3.33467	27
3.33833	27
3.34200	27
3.34567	27
3.34933	27
3.35300	27
3.35667	27
3.36033	27
3.36400	27
3.36767	26
3.37133	26
3.37500	27
3.37867	27
3.38233	27
3.38600	28
3.38967	28
3.39333	28
3.39700	29
3.40067	29
3.40433	29
3.40800	30
3.41167	30
3.41533	30
3.41900	31
3.42267	31
3.42633	31
3.43000	32
3.43367	32
3.43733	32
3.44100	32
3.44467	32
3.44833	32
3.45200	31
3.45567	31
3.45933	31
3.46300	31
3.46667	30
3.47033	30
3.47400	30
3.47767	30
3.48133	30
3.48500	30
3.48867	30
3.49233	30
3.49600	30
3.49967	29
3.50333	29
3.50700	30
3.51067	30
3.51433	30
3.51800	30
3.52167	30
3.52533	31
3.52900	31
3.53267	31
3.53633	31
3.54000	31
3.54367	31
3.54733	31
3.55100	31
3.55467	31
3.55833	31
3.56200	30
3.56567	30
3.56933	30
3.57300	30
3.57667	30
3.58033	30
3.58400	30
3.58767	30
3.59133	30
3.59500	30
3.59867	30
3.60233	30
3.60600	30
3.60967	30
3.61333	30
3.61700	30
3.62067	30
3.62433	30
3.62800	30
3.63167	30
3.63533	30
3.63900	30
3.64267	30
3.64633	30
3.65000	30
3.65367	30
3.65733	30
3.66100	30
3.66467	30
3.66833	29
3.67200	29
3.67567	29
3.67933	29
3.68300	29
3.68667	29
3.69033	29
3.69400	29
3.69767	29
3.70133	29
3.70500	29
3.70867	29
3.71233	29
3.71600	30
3.71967	30
3.72333	30
3.72700	30
3.73067	31
3.73433	31
3.73800	30
3.74167	30
3.74533	30
3.74900	30
3.75267	30
3.75633	29
3.76000	29
3.76367	28
3.76733	28
3.77100	28
3.77467	27
3.77833	27
3.78200	27
3.78567	27
3.78933	27
3.79300	28
3.79667	28
3.80033	28
3.80400	28
3.80767	28
3.81133	29
3.81500	29
3.81867	29
3.82233	29
3.82600	29
3.82967	29
3.83333	29
3.83700	30
3.84067	30
3.84433	29
3.84800	29
3.85167	29
3.85533	29
3.85900	29
3.86267	29
3.86633	29
3.87000	29
3.87367	29
3.87733	29
3.88100	29
3.88467	29
3.88833	29
3.89200	29
3.89567	29
3.89933	29
3.90300	29
3.90667	29
3.91033	29
3.91400	29
3.91767	29
3.92133	29
3.92500	29
3.92867	29
3.93233	29
3.93600	28
3.93967	28
3.94333	28
3.94700	28
3.95067	28
3.95433	28
3.95800	28
3.96167	29
3.96533	29
3.96900	29
3.97267	29
3.97633	29
3.98000	29
3.98367	28
3.98733	28
3.99100	28
3.99467	28
3.99833	28

[Chromatogram (Ch3)]
Interval(msec)	220
# of Points	1091
Start Time(min)	0.002
End Time(min)	3.998
R.Time (min)	Intensity
0.00167	-1
0.00533	-2
0.00900	-1
0.01267	1
0.01633	1
0.02000	-0
0.02367	0
0.02733	1
0.03100	1
0.03467	-1
0.03833	-0
0.04200	-1
0.04567	-2
0.04933	-2
0.05300	-2
0.05667	-1
0.06033	-2
0.06400	-2
0.06767	-2
0.07133	-2
0.07500	-1
0.07867	-0
0.08233	0
0.08600	1
0.08967	2
0.09333	1
0.09700	1
0.10067	2
0.10433	1
0.10800	-0
0.11167	-1
0.11533	-2
0.11900	-1
0.12267	-0
0.12633	0
0.13000	-1
0.13367	1
0.13733	2
0.14100	1
0.14467	1
0.14833	3
0.15200	3
0.15567	4
0.15933	5
0.16300	6
0.16667	5
0.17033	6
0.17400	6
0.17767	6
0.18133	7
0.18500	8
0.18867	6
0.19233	5
0.19600	6
0.19967	6
0.20333	7
0.20700	4
0.21067	2
0.21433	-1
0.21800	-3
0.22167	-3
0.22533	-1
0.22900	-0
0.23267	2
0.23633	3
0.24000	2
0.24367	-0
0.24733	-1
0.25100	-3
0.25467	-4
0.25833	-5
0.26200	-6
0.26567	-5
0.26933	-4
0.27300	-1
0.27667	2
0.28033	6
0.28400	10
0.28767	9
0.29133	7
0.29500	5
0.29867	4
0.30233	5
0.30600	5
0.30967	5
0.31333	5
0.31700	5
0.32067	4
0.32433	3
0.32800	3
0.33167	4
0.33533	6
0.33900	5
0.34267	4
0.34633	3
0.35000	4
0.35367	5
0.35733	4
0.36100	4
0.36467	5
0.36833	3
0.37200	0
0.37567	-0
0.37933	-0
0.38300	-1
0.38667	-1
0.39033	-1
0.39400	-1
0.39767	-2
0.40133	-2
0.40500	-1
0.40867	-2
0.41233	-1
0.41600	-0
0.41967	-1
0.42333	-4
0.42700	-5
0.43067	-5
0.43433	-3
0.43800	-1
0.44167	-2
0.44533	-3
0.44900	-3
0.45267	-3
0.45633	-4
0.46000	-4
0.46367	-4
0.46733	-3
0.47100	-2
0.47467	-2
0.47833	-3
0.48200	-4
0.48567	-4
0.48933	-3
0.49300	-2
0.49667	-1
0.50033	-0
0.50400	-0
0.50767	-1
0.51133	-3
0.51500	-2
0.51867	-3
0.52233	-3
0.52600	-3
0.52967	-3
0.53333	-3
0.53700	-4
0.54067	-4
0.54433	-3
0.54800	-2
0.55167	0
0.55533	0
0.55900	-0
0.56267	-3
0.56633	-4
0.57000	-2
0.57367	-1
0.57733	-2
0.58100	-0
0.58467	-0
0.58833	-0
0.59200	-1
0.59567	-2
0.59933	-1
0.60300	-1
0.60667	-2
0.61033	-4
0.61400	-4
0.61767	-5
0.62133	-4
0.62500	-1
0.62867	1
0.63233	2
0.63600	3
0.63967	2
0.64333	2
0.64700	2
0.65067	3
0.65433	4
0.65800	3
0.66167	1
0.66533	1
0.66900	1
0.67267	2
0.67633	1
0.68000	1
0.68367	2
0.68733	3
0.69100	4
0.69467	5
0.69833	5
0.70200	5
0.70567	5
0.70933	6
0.71300	7
0.71667	7
0.72033	7
0.72400	6
0.72767	6
0.73133	4
0.73500	4
0.73867	4
0.74233	5
0.74600	6
0.74967	6
0.75333	6
0.75700	3
0.76067	1
0.76433	0
0.76800	-0
0.77167	0
0.77533	0
0.77900	2
0.78267	3
0.78633	3
0.79000	4
0.79367	6
0.79733	7
0.80100	5
0.80467	5
0.80833	6
0.81200	7
0.81567	7
0.81933	9
0.82300	11
0.82667	13
0.83033	12
0.83400	10
0.83767	8
0.84133	8
0.84500	7
0.84867	6
0.85233	5
0.85600	5
0.85967	4
0.86333	2
0.86700	1
0.87067	1
0.87433	2
0.87800	3
0.88167	4
0.88533	4
0.88900	4
0.89267	4
0.89633	6
0.90000	7
0.90367	8
0.90733	7
0.91100	6
0.91467	5
0.91833	6
0.92200	9
0.92567	10
0.92933	10
0.93300	10
0.93667	10
0.94033	7
0.94400	6
0.94767	7
0.95133	7
0.95500	8
0.95867	9
0.96233	8
0.96600	7
0.96967	6
0.97333	6
0.97700	7
0.98067	8
0.98433	8
0.98800	9
0.99167	11
0.99533	12
0.99900	12
1.00267	11
1.00633	12
1.01000	14
1.01367	14
1.01733	14
1.02100	14
1.02467	14
1.02833	14
1.03200	13
1.03567	13
1.03933	12
1.04300	12
1.04667	13
1.05033	15
1.05400	15
1.05767	13
1.06133	11
1.06500	10
1.06867	8
1.07233	7
1.07600	9
1.07967	12
1.08333	14
1.08700	13
1.09067	14
1.09433	12
1.09800	11
1.10167	10
1.10533	10
1.10900	12
1.11267	13
1.11633	12
1.12000	12
1.12367	11
1.12733	10
1.13100	9
1.13467	11
1.13833	12
1.14200	11
1.14567	10
1.14933	10
1.15300	11
1.15667	15
1.16033	18
1.16400	19
1.16767	20
1.17133	22
1.17500	21
1.17867	18
1.18233	16
1.18600	14
1.18967	10
1.19333	11
1.19700	12
1.20067	14
1.20433	15
1.20800	16
1.21167	17
1.21533	16
1.21900	15
1.22267	14
1.22633	16
1.23000	18
1.23367	18
1.23733	18
1.24100	18
1.24467	18
1.24833	19
1.25200	21
1.25567	21
1.25933	21
1.26300	20
1.26667	20
1.27033	19
1.27400	18
1.27767	17
1.28133	17
1.28500	18
1.28867	20
1.29233	20
1.29600	21
1.29967	22
1.30333	22
1.30700	19
1.31067	18
1.31433	17
1.31800	16
1.32167	15
1.32533	15
1.32900	17
1.33267	20
1.33633	21
1.34000	21
1.34367	20
1.34733	19
1.35100	19
1.35467	21
1.35833	21
1.36200	21
1.36567	23
1.36933	21
1.37300	19
1.37667	19
1.38033	20
1.38400	19
1.38767	20
1.39133	22
1.39500	22
1.39867	23
1.40233	24
1.40600	24
1.40967	23
1.41333	22
1.41700	20
1.42067	20
1.42433	19
1.42800	20
1.43167	21
1.43533	22
1.43900	24
1.44267	27
1.44633	27
1.45000	28
1.45367	27
1.45733	26
1.46100	24
1.46467	24
1.46833	27
1.47200	29
1.47567	29
1.47933	30
1.48300	30
1.48667	31
1.49033	30
1.49400	29
1.49767	28
1.50133	27
1.50500	28
1.50867	28
1.51233	28
1.51600	27
1.51967	24
1.52333	23
1.52700	24
1.53067	23
1.53433	22
1.53800	23
1.54167	24
1.54533	24
1.54900	25
1.55267	26
1.55633	27
1.56000	28
1.56367	29
1.56733	28
1.57100	28
1.57467	29
1.57833	29
1.58200	27
1.58567	25
1.58933	25
1.59300	23
1.59667	24
1.60033	27
1.60400	28
1.60767	27
1.61133	26
1.61500	27
1.61867	29
1.62233	30
1.62600	30
1.62967	32
1.63333	31
1.63700	29
1.64067	27
1.64433	28
1.64800	28
1.65167	28
1.65533	29
1.65900	33
1.66267	37
1.66633	39
1.67000	40
1.67367	39
1.67733	37
1.68100	35
1.68467	35
1.68833	35
1.69200	32
1.69567	31
1.69933	31
1.70300	34
1.70667	37
1.71033	37
1.71400	36
1.71767	36
1.72133	36
1.72500	35
1.72867	36
1.73233	36
1.73600	36
1.73967	37
1.74333	36
1.74700	36
1.75067	38
1.75433	41
1.75800	47
1.76167	49
1.76533	48
1.76900	47
1.77267	45
1.77633	44
1.78000	41
1.78367	40
1.78733	38
1.79100	39
1.79467	40
1.79833	41
1.80200	41
1.80567	41
1.80933	44
1.81300	45
1.81667	46
1.82033	48
1.82400	48
1.82767	48
1.83133	49
1.83500	51
1.83867	52
1.84233	52
1.84600	53
1.84967	55
1.85333	56
1.85700	56
1.86067	53
1.86433	51
1.86800	51
1.87167	52
1.87533	51
1.87900	51
1.88267	52
1.88633	54
1.89000	57
1.89367	60
1.89733	61
1.90100	61
1.90467	63
1.90833	64
1.91200	65
1.91567	67
1.91933	66
1.92300	63
1.92667	61
1.93033	61
1.93400	61
1.93767	61
1.94133	62
1.94500	65
1.94867	68
1.95233	67
1.95600	66
1.95967	66
1.96333	66
1.96700	65
1.97067	66
1.97433	70
1.97800	73
1.98167	75
1.98533	75
1.98900	73
1.99267	72
1.99633	73
2.00000	75
2.00367	75
2.00733	75
2.01100	76
2.01467	76
2.01833	78
2.02200	80
2.02567	82
2.02933	82
2.03300	81
2.03667	81
2.04033	83
2.04400	87
2.04767	90
2.05133	90
2.05500	89
2.05867	89
2.06233	90
2.06600	92
2.06967	94
2.07333	95
2.07700	94
2.08067	91
2.08433	88
2.08800	87
2.09167	88
2.09533	91
2.09900	94
2.10267	93
2.10633	92
2.11000	93
2.11367	94
2.11733	97
2.12100	99
2.12467	103
2.12833	107
2.13200	109
2.13567	108
2.13933	107
2.14300	106
2.14667	106
2.15033	104
2.15400	104
2.15767	107
2.16133	108
2.16500	110
2.16867	111
2.17233	112
2.17600	112
2.17967	114
2.18333	119
2.18700	124
2.19067	128
2.19433	129
2.19800	127
2.20167	127
2.20533	128
2.20900	130
2.21267	131
2.21633	134
2.22000	137
2.22367	139
2.22733	138
2.23100	138
2.23467	138
2.23833	138
2.24200	138
2.24567	139
2.24933	139
2.25300	140
2.25667	143
2.26033	145
2.26400	147
2.26767	150
2.27133	153
2.27500	154
2.27867	154
2.28233	155
2.28600	156
2.28967	156
2.29333	157
2.29700	158
2.30067	160
2.30433	162
2.30800	165
2.31167	167
2.31533	168
2.31900	165
2.32267	165
2.32633	166
2.33000	168
2.33367	170
2.33733	173
2.34100	175
2.34467	174
2.34833	175
2.35200	175
2.35567	179
2.35933	182
2.36300	187
2.36667	191
2.37033	193
2.37400	193
2.37767	193
2.38133	191
2.38500	190
2.38867	191
2.39233	194
2.39600	198
2.39967	203
2.40333	208
2.40700	211
2.41067	212
2.41433	214
2.41800	215
2.42167	216
2.42533	219
2.42900	222
2.43267	224
2.43633	224
2.44000	226
2.44367	255
2.44733	335
2.45100	424
2.45467	495
2.45833	537
2.46200	535
2.46567	507
2.46933	473
2.47300	445
2.47667	426
2.48033	414
2.48400	404
2.48767	389
2.49133	366
2.49500	342
2.49867	317
2.50233	296
2.50600	281
2.50967	272
2.51333	265
2.51700	258
2.52067	254
2.52433	255
2.52800	262
2.53167	271
2.53533	281
2.53900	289
2.54267	293
2.54633	292
2.55000	290
2.55367	284
2.55733	277
2.56100	269
2.56467	261
2.56833	251
2.57200	240
2.57567	229
2.57933	221
2.58300	217
2.58667	216
2.59033	216
2.59400	213
2.59767	205
2.60133	195
2.60500	181
2.60867	166
2.61233	148
2.61600	126
2.61967	106
2.62333	90
2.62700	75
2.63067	63
2.63433	54
2.63800	51
2.64167	53
2.64533	57
2.64900	64
2.65267	73
2.65633	85
2.66000	96
2.66367	106
2.66733	115
2.67100	125
2.67467	135
2.67833	146
2.68200	156
2.68567	163
2.68933	168
2.69300	170
2.69667	170
2.70033	171
2.70400	172
2.70767	175
2.71133	177
2.71500	175
2.71867	171
2.72233	168
2.72600	167
2.72967	170
2.73333	172
2.73700	173
2.74067	171
2.74433	171
2.74800	169
2.75167	167
2.75533	167
2.75900	169
2.76267	169
2.76633	168
2.77000	167
2.77367	169
2.77733	174
2.78100	177
2.78467	177
2.78833	176
2.79200	177
2.79567	177
2.79933	175
2.80300	174
2.80667	174
2.81033	176
2.81400	180
2.81767	189
2.82133	209
2.82500	250
2.82867	331
2.83233	472
2.83600	693
2.83967	1015
2.84333	1441
2.84700	1957
2.85067	2538
2.85433	3139
2.85800	3713
2.86167	4215
2.86533	4602
2.86900	4848
2.87267	4947
2.87633	4910
2.88000	4755
2.88367	4513
2.88733	4210
2.89100	3873
2.89467	3519
2.89833	3169
2.90200	2836
2.90567	2528
2.90933	2246
2.91300	1986
2.91667	1753
2.92033	1547
2.92400	1367
2.92767	1207
2.93133	1068
2.93500	947
2.93867	843
2.94233	755
2.94600	678
2.94967	612
2.95333	554
2.95700	505
2.96067	464
2.96433	427
2.96800	394
2.97167	367
2.97533	345
2.97900	325
2.98267	306
2.98633	291
2.99000	278
2.99367	266
2.99733	256
3.00100	248
3.00467	242
3.00833	236
3.01200	230
3.01567	224
3.01933	218
3.02300	212
3.02667	209
3.03033	204
3.03400	199
3.03767	193
3.04133	190
3.04500	188
3.04867	186
3.05233	184
3.05600	180
3.05967	174
3.06333	170
3.06700	165
3.07067	162
3.07433	161
3.07800	159
3.08167	157
3.08533	153
3.08900	151
3.09267	149
3.09633	146
3.10000	143
3.10367	141
3.10733	141
3.11100	140
3.11467	139
3.11833	140
3.12200	140
3.12567	139
3.12933	138
3.13300	136
3.13667	135
3.14033	134
3.14400	131
3.14767	130
3.15133	130
3.15500	128
3.15867	120
3.16233	87
3.16600	57
3.16967	51
3.17333	69
3.17700	103
3.18067	146
3.18433	189
3.18800	232
3.19167	275
3.19533	316
3.19900	357
3.20267	395
3.20633	430
3.21000	465
3.21367	496
3.21733	522
3.22100	545
3.22467	567
3.22833	585
3.23200	600
3.23567	611
3.23933	621
3.24300	631
3.24667	638
3.25033	645
3.25400	651
3.25767	655
3.26133	660
3.26500	663
3.26867	664
3.27233	665
3.27600	669
3.27967	673
3.28333	675
3.28700	675
3.29067	674
3.29433	673
3.29800	671
3.30167	669
3.30533	669
3.30900	670
3.31267	673
3.31633	675
3.32000	676
3.32367	677
3.32733	680
3.33100	680
3.33467	678
3.33833	679
3.34200	682
3.34567	685
3.34933	685
3.35300	687
3.35667	686
3.36033	686
3.36400	687
3.36767	685
3.37133	685
3.37500	688
3.37867	692
3.38233	695
3.38600	697
3.38967	699
3.39333	702
3.39700	703
3.40067	700
3.40433	698
3.40800	700
3.41167	699
3.41533	696
3.41900	691
3.42267	687
3.42633	683
3.43000	679
3.43367	676
3.43733	676
3.44100	676
3.44467	672
3.44833	666
3.45200	662
3.45567	656
3.45933	653
3.46300	651
3.46667	647
3.47033	644
3.47400	639
3.47767	633
3.48133	630
3.48500	628
3.48867	627
3.49233	625
3.49600	621
3.49967	615
3.50333	612
3.50700	611
3.51067	609
3.51433	604
3.51800	600
3.52167	598
3.52533	595
3.52900	593
3.53267	591
3.53633	590
3.54000	587
3.54367	585
3.54733	582
3.55100	581
3.55467	581
3.55833	580
3.56200	575
3.56567	573
3.56933	570
3.57300	566
3.57667	562
3.58033	560
3.58400	559
3.58767	558
3.59133	556
3.59500	554
3.59867	552
3.60233	550
3.60600	547
3.60967	542
3.61333	540
3.61700	538
3.62067	534
3.62433	533
3.62800	531
3.63167	527
3.63533	522
3.63900	519
3.64267	517
3.64633	516
3.65000	516
3.65367	513
3.65733	511
3.66100	512
3.66467	514
3.66833	514
3.67200	513
3.67567	509
3.67933	504
3.68300	499
3.68667	497
3.69033	494
3.69400	494
3.69767	492
3.70133	489
3.70500	489
3.70867	490
3.71233	491
3.71600	489
3.71967	486
3.72333	485
3.72700	484
3.73067	483
3.73433	481
3.73800	479
3.74167	478
3.74533	476
3.74900	476
3.75267	473
3.75633	470
3.76000	469
3.76367	472
3.76733	474
3.77100	475
3.77467	474
3.77833	473
3.78200	471
3.78567	470
3.78933	468
3.79300	466
3.79667	466
3.80033	467
3.80400	468
3.80767	469
3.81133	467
3.81500	465
3.81867	464
3.82233	463
3.82600	462
3.82967	461
3.83333	462
3.83700	463
3.84067	465
3.84433	463
3.84800	463
3.85167	462
3.85533	460
3.85900	460
3.86267	460
3.86633	458
3.87000	457
3.87367	457
3.87733	458
3.88100	458
3.88467	457
3.88833	455
3.89200	454
3.89567	456
3.89933	456
3.90300	456
3.90667	455
3.91033	456
3.91400	458
3.91767	458
3.92133	458
3.92500	457
3.92867	453
3.93233	452
3.93600	453
3.93967	454
3.94333	454
3.94700	451
3.95067	447
3.95433	443
3.95800	439
3.96167	437
3.96533	438
3.96900	438
3.97267	439
3.97633	439
3.98000	439
3.98367	439
3.98733	441
3.99100	444
3.99467	443
3.99833	440

[Status Trace (Column Oven Temperature)]
Interval(msec)	1000
# of Points	240
Start Time(min)	0.009
End Time(min)	3.992
Intensity Units	
Intensity Multiplier	1
R.Time (min)	Intensity
0.00912	35.06
0.02578	35.06
0.04245	35.06
0.05912	35.05
0.07578	35.06
0.09245	35.07
0.10912	35.05
0.12578	35.05
0.14245	35.04
0.15912	35.05
0.17578	35.05
0.19245	35.05
0.20912	35.04
0.22578	35.04
0.24245	35.04
0.25912	35.04
0.27578	35.04
0.29245	35.03
0.30912	35.03
0.32578	35.02
0.34245	35.01
0.35912	35.00
0.37578	34.98
0.39245	34.97
0.40912	34.98
0.42578	34.99
0.44245	35.00
0.45912	35.00
0.47578	35.01
0.49245	35.01
0.50912	35.01
0.52578	35.02
0.54245	35.01
0.55912	35.00
0.57578	35.01
0.59245	35.01
0.60912	35.01
0.62578	35.01
0.64245	35.02
0.65912	35.03
0.67578	35.03
0.69245	35.02
0.70912	35.01
0.72578	35.01
0.74245	35.01
0.75912	35.00
0.77578	35.00
0.79245	34.99
0.80912	34.99
0.82578	34.99
0.84245	34.99
0.85912	34.98
0.87578	34.97
0.89245	34.99
0.90912	34.98
0.92578	34.99
0.94245	35.00
0.95912	35.00
0.97578	35.00
0.99245	34.99
1.00912	34.99
1.02578	34.99
1.04245	35.00
1.05912	35.01
1.07578	34.99
1.09245	34.99
1.10912	34.98
1.12578	34.98
1.14245	34.99
1.15912	34.99
1.17578	34.99
1.19245	34.99
1.20912	35.00
1.22578	35.01
1.24245	35.00
1.25912	35.00
1.27578	34.99
1.29245	34.98
1.30912	34.99
1.32578	34.99
1.34245	34.99
1.35912	34.99
1.37578	34.99
1.39245	34.97
1.40912	34.97
1.42578	34.98
1.44245	34.99
1.45912	35.00
1.47578	35.00
1.49245	35.00
1.50912	35.00
1.52578	35.02
1.54245	35.02
1.55912	35.02
1.57578	35.01
1.59245	35.01
1.60912	35.07
1.62578	35.19
1.64245	35.37
1.65912	35.62
1.67578	35.98
1.69245	36.35
1.70912	36.71
1.72578	37.05
1.74245	37.36
1.75912	37.71
1.77578	38.05
1.79245	38.36
1.80912	38.68
1.82578	39.02
1.84245	39.34
1.85912	39.67
1.87578	40.01
1.89245	40.33
1.90912	40.66
1.92578	40.98
1.94245	41.30
1.95912	41.64
1.97578	41.98
1.99245	42.30
2.00912	42.62
2.02578	42.95
2.04245	43.28
2.05912	43.61
2.07578	43.94
2.09245	44.26
2.10912	44.58
2.12578	44.90
2.14245	45.24
2.15912	45.58
2.17578	45.91
2.19245	46.23
2.20912	46.56
2.22578	46.89
2.24245	47.21
2.25912	47.54
2.27578	47.87
2.29245	48.19
2.30912	48.53
2.32578	48.87
2.34245	49.18
2.35912	49.46
2.37578	49.65
2.39245	49.71
2.40912	49.69
2.42578	49.71
2.44245	49.70
2.45912	49.72
2.47578	49.74
2.49245	49.75
2.50912	49.75
2.52578	49.78
2.54245	49.78
2.55912	49.79
2.57578	49.80
2.59245	49.81
2.60912	49.80
2.62578	49.81
2.64245	49.83
2.65912	49.84
2.67578	49.84
2.69245	49.85
2.70912	49.88
2.72578	49.90
2.74245	49.88
2.75912	49.85
2.77578	49.85
2.79245	49.87
2.80912	49.87
2.82578	49.89
2.84245	49.89
2.85912	49.91
2.87578	49.92
2.89245	49.91
2.90912	49.91
2.92578	49.92
2.94245	49.93
2.95912	49.95
2.97578	49.97
2.99245	49.97
3.00912	49.98
3.02578	49.99
3.04245	50.00
3.05912	50.01
3.07578	50.02
3.09245	50.02
3.10912	50.04
3.12578	50.05
3.14245	50.07
3.15912	50.08
3.17578	50.09
3.19245	50.08
3.20912	50.08
3.22578	50.08
3.24245	50.07
3.25912	50.07
3.27578	50.08
3.29245	50.09
3.30912	50.08
3.32578	50.09
3.34245	50.10
3.35912	50.11
3.37578	50.12
3.39245	50.10
3.40912	50.09
3.42578	50.08
3.44245	50.07
3.45912	50.08
3.47578	50.08
3.49245	50.09
3.50912	50.07
3.52578	50.07
3.54245	50.06
3.55912	50.06
3.57578	50.06
3.59245	50.06
3.60912	50.05
3.62578	50.04
3.64245	50.03
3.65912	50.03
3.67578	50.04
3.69245	50.04
3.70912	50.03
3.72578	50.02
3.74245	50.02
3.75912	50.03
3.77578	50.04
3.79245	50.05
3.80912	50.05
3.82578	50.04
3.84245	50.04
3.85912	50.04
3.87578	50.04
3.89245	50.05
3.90912	50.05
3.92578	50.05
3.94245	50.06
3.95912	50.06
3.97578	50.07
3.99245	50.08

[Status Trace (Injection Unit Temperature)]
Interval(msec)	1000
# of Points	240
Start Time(min)	0.009
End Time(min)	3.992
Intensity Units	
Intensity Multiplier	1
R.Time (min)	Intensity
0.00912	99.97
0.02578	99.97
0.04245	99.97
0.05912	99.98
0.07578	99.98
0.09245	99.97
0.10912	99.97
0.12578	99.97
0.14245	99.97
0.15912	99.98
0.17578	99.98
0.19245	99.98
0.20912	99.97
0.22578	99.98
0.24245	99.97
0.25912	99.98
0.27578	99.98
0.29245	99.98
0.30912	99.98
0.32578	99.98
0.34245	99.98
0.35912	99.98
0.37578	99.98
0.39245	99.98
0.40912	99.98
0.42578	99.98
0.44245	99.97
0.45912	99.98
0.47578	99.98
0.49245	99.98
0.50912	99.98
0.52578	99.98
0.54245	99.98
0.55912	99.98
0.57578	99.97
0.59245	99.98
0.60912	99.98
0.62578	99.98
0.64245	99.98
0.65912	99.98
0.67578	99.98
0.69245	99.97
0.70912	99.97
0.72578	99.98
0.74245	99.98
0.75912	99.97
0.77578	99.97
0.79245	99.98
0.80912	99.98
0.82578	99.98
0.84245	99.97
0.85912	99.98
0.87578	99.97
0.89245	99.97
0.90912	99.98
0.92578	99.98
0.94245	99.97
0.95912	99.97
0.97578	99.97
0.99245	99.98
1.00912	99.97
1.02578	99.97
1.04245	99.97
1.05912	99.97
1.07578	99.97
1.09245	99.98
1.10912	99.97
1.12578	99.97
1.14245	99.97
1.15912	99.97
1.17578	99.98
1.19245	99.98
1.20912	99.98
1.22578	99.97
1.24245	99.98
1.25912	99.98
1.27578	99.98
1.29245	99.98
1.30912	99.98
1.32578	99.98
1.34245	99.97
1.35912	99.98
1.37578	99.97
1.39245	99.98
1.40912	99.98
1.42578	99.98
1.44245	99.98
1.45912	99.98
1.47578	99.98
1.49245	99.98
1.50912	99.98
1.52578	99.98
1.54245	99.98
1.55912	99.98
1.57578	99.98
1.59245	99.98
1.60912	99.98
1.62578	99.98
1.64245	99.97
1.65912	99.98
1.67578	99.97
1.69245	99.98
1.70912	99.98
1.72578	99.98
1.74245	99.97
1.75912	99.98
1.77578	99.98
1.79245	99.97
1.80912	99.98
1.82578	99.98
1.84245	99.98
1.85912	99.98
1.87578	99.98
1.89245	99.98
1.90912	99.98
1.92578	99.98
1.94245	99.97
1.95912	99.98
1.97578	99.97
1.99245	99.97
2.00912	99.97
2.02578	99.97
2.04245	99.97
2.05912	99.97
2.07578	99.97
2.09245	99.97
2.10912	99.97
2.12578	99.97
2.14245	99.97
2.15912	99.97
2.17578	99.96
2.19245	99.97
2.20912	99.97
2.22578	99.96
2.24245	99.97
2.25912	99.97
2.27578	99.97
2.29245	99.97
2.30912	99.96
2.32578	99.97
2.34245	99.97
2.35912	99.97
2.37578	99.97
2.39245	99.97
2.40912	99.97
2.42578	99.97
2.44245	99.97
2.45912	99.97
2.47578	99.97
2.49245	99.97
2.50912	99.97
2.52578	99.97
2.54245	99.97
2.55912	99.97
2.57578	99.98
2.59245	99.98
2.60912	99.98
2.62578	99.98
2.64245	99.97
2.65912	99.98
2.67578	99.98
2.69245	99.98
2.70912	99.98
2.72578	99.98
2.74245	99.98
2.75912	99.99
2.77578	99.99
2.79245	99.99
2.80912	100.00
2.82578	100.00
2.84245	100.00
2.85912	100.00
2.87578	100.00
2.89245	100.00
2.90912	100.00
2.92578	100.01
2.94245	100.00
2.95912	100.00
2.97578	100.01
2.99245	100.01
3.00912	100.01
3.02578	100.01
3.04245	100.01
3.05912	100.01
3.07578	100.01
3.09245	100.02
3.10912	100.02
3.12578	100.01
3.14245	100.02
3.15912	100.02
3.17578	100.02
3.19245	100.02
3.20912	100.02
3.22578	100.03
3.24245	100.02
3.25912	100.02
3.27578	100.03
3.29245	100.02
3.30912	100.02
3.32578	100.03
3.34245	100.03
3.35912	100.02
3.37578	100.03
3.39245	100.03
3.40912	100.03
3.42578	100.03
3.44245	100.03
3.45912	100.03
3.47578	100.03
3.49245	100.03
3.50912	100.03
3.52578	100.03
3.54245	100.02
3.55912	100.03
3.57578	100.03
3.59245	100.03
3.60912	100.03
3.62578	100.03
3.64245	100.03
3.65912	100.03
3.67578	100.04
3.69245	100.04
3.70912	100.04
3.72578	100.04
3.74245	100.04
3.75912	100.04
3.77578	100.04
3.79245	100.04
3.80912	100.04
3.82578	100.04
3.84245	100.03
3.85912	100.04
3.87578	100.04
3.89245	100.04
3.90912	100.04
3.92578	100.04
3.94245	100.04
3.95912	100.04
3.97578	100.04
3.99245	100.04

[Status Trace (Carrier Gas Pressure)]
Interval(msec)	1000
# of Points	240
Start Time(min)	0.009
End Time(min)	3.992
Intensity Units	
Intensity Multiplier	1
R.Time (min)	Intensity
0.00912	58.00
0.02578	55.24
0.04245	57.33
0.05912	59.36
0.07578	59.27
0.09245	58.03
0.10912	57.98
0.12578	58.01
0.14245	58.01
0.15912	58.00
0.17578	58.00
0.19245	58.00
0.20912	58.00
0.22578	58.00
0.24245	58.00
0.25912	58.00
0.27578	58.00
0.29245	58.00
0.30912	58.00
0.32578	58.00
0.34245	58.00
0.35912	58.00
0.37578	58.00
0.39245	58.00
0.40912	58.00
0.42578	58.00
0.44245	58.00
0.45912	58.00
0.47578	58.00
0.49245	58.00
0.50912	58.00
0.52578	58.00
0.54245	58.00
0.55912	58.00
0.57578	58.00
0.59245	58.00
0.60912	58.00
0.62578	58.00
0.64245	58.00
0.65912	58.00
0.67578	58.00
0.69245	58.00
0.70912	58.00
0.72578	58.00
0.74245	58.00
0.75912	58.00
0.77578	58.00
0.79245	58.00
0.80912	58.00
0.82578	58.00
0.84245	58.00
0.85912	58.00
0.87578	58.00
0.89245	58.00
0.90912	58.00
0.92578	58.00
0.94245	58.00
0.95912	58.00
0.97578	58.00
0.99245	58.00
1.00912	58.00
1.02578	58.00
1.04245	58.00
1.05912	58.00
1.07578	58.00
1.09245	58.00
1.10912	58.00
1.12578	58.00
1.14245	58.00
1.15912	58.00
1.17578	58.00
1.19245	58.00
1.20912	58.00
1.22578	58.00
1.24245	58.00
1.25912	58.00
1.27578	58.00
1.29245	58.00
1.30912	58.00
1.32578	58.00
1.34245	58.00
1.35912	58.00
1.37578	58.00
1.39245	58.00
1.40912	58.00
1.42578	58.00
1.44245	58.00
1.45912	58.00
1.47578	58.00
1.49245	58.00
1.50912	58.00
1.52578	58.00
1.54245	58.00
1.55912	58.00
1.57578	58.00
1.59245	58.00
1.60912	58.00
1.62578	58.00
1.64245	58.00
1.65912	58.00
1.67578	58.01
1.69245	58.00
1.70912	58.00
1.72578	58.00
1.74245	58.00
1.75912	58.00
1.77578	58.00
1.79245	58.00
1.80912	58.00
1.82578	58.00
1.84245	58.00
1.85912	58.00
1.87578	58.00
1.89245	58.00
1.90912	58.00
1.92578	58.00
1.94245	58.00
1.95912	58.00
1.97578	58.00
1.99245	58.00
2.00912	58.00
2.02578	58.00
2.04245	58.00
2.05912	58.00
2.07578	58.00
2.09245	58.00
2.10912	58.00
2.12578	58.00
2.14245	58.00
2.15912	58.00
2.17578	58.00
2.19245	58.00
2.20912	58.00
2.22578	58.00
2.24245	58.00
2.25912	58.00
2.27578	58.00
2.29245	58.00
2.30912	58.00
2.32578	58.00
2.34245	58.00
2.35912	58.00
2.37578	58.00
2.39245	57.99
2.40912	57.99
2.42578	58.00
2.44245	58.00
2.45912	58.00
2.47578	58.00
2.49245	58.00
2.50912	57.99
2.52578	57.98
2.54245	58.00
2.55912	58.00
2.57578	58.00
2.59245	58.00
2.60912	58.00
2.62578	58.00
2.64245	58.00
2.65912	58.00
2.67578	58.00
2.69245	58.00
2.70912	58.00
2.72578	58.00
2.74245	58.00
2.75912	58.00
2.77578	58.00
2.79245	58.00
2.80912	58.00
2.82578	58.00
2.84245	58.00
2.85912	58.00
2.87578	58.00
2.89245	58.00
2.90912	58.00
2.92578	58.00
2.94245	58.00
2.95912	58.00
2.97578	58.00
2.99245	58.00
3.00912	58.00
3.02578	58.00
3.04245	58.00
3.05912	58.00
3.07578	58.00
3.09245	58.00
3.10912	58.00
3.12578	58.00
3.14245	58.00
3.15912	58.00
3.17578	58.00
3.19245	58.00
3.20912	58.00
3.22578	58.00
3.24245	58.00
3.25912	58.00
3.27578	58.00
3.29245	58.00
3.30912	58.00
3.32578	58.00
3.34245	58.00
3.35912	58.00
3.37578	58.00
3.39245	58.00
3.40912	58.00
3.42578	58.00
3.44245	58.00
3.45912	58.00
3.47578	58.00
3.49245	58.00
3.50912	58.00
3.52578	58.00
3.54245	58.00
3.55912	58.00
3.57578	58.00
3.59245	58.00
3.60912	58.00
3.62578	58.00
3.64245	58.00
3.65912	58.00
3.67578	58.00
3.69245	58.00
3.70912	58.00
3.72578	58.00
3.74245	58.00
3.75912	58.00
3.77578	58.00
3.79245	58.00
3.80912	58.00
3.82578	58.00
3.84245	58.00
3.85912	58.00
3.87578	58.00
3.89245	58.00
3.90912	58.00
3.92578	58.00
3.94245	58.00
3.95912	58.00
3.97578	58.00
3.99245	58.00

[Status Trace (Carrier Gas Flow)]
Interval(msec)	1000
# of Points	240
Start Time(min)	0.009
End Time(min)	3.992
Intensity Units	
Intensity Multiplier	1
R.Time (min)	Intensity
0.00912	34.52
0.02578	34.53
0.04245	34.55
0.05912	34.55
0.07578	34.50
0.09245	34.52
0.10912	34.52
0.12578	34.52
0.14245	34.52
0.15912	34.52
0.17578	34.52
0.19245	34.52
0.20912	34.52
0.22578	34.52
0.24245	34.52
0.25912	34.52
0.27578	34.53
0.29245	34.52
0.30912	34.52
0.32578	34.52
0.34245	34.52
0.35912	34.52
0.37578	34.52
0.39245	34.52
0.40912	34.52
0.42578	34.52
0.44245	34.53
0.45912	34.52
0.47578	34.52
0.49245	34.52
0.50912	34.52
0.52578	34.52
0.54245	34.52
0.55912	34.51
0.57578	34.52
0.59245	34.52
0.60912	34.52
0.62578	34.52
0.64245	34.52
0.65912	34.52
0.67578	34.52
0.69245	34.52
0.70912	34.52
0.72578	34.52
0.74245	34.52
0.75912	34.52
0.77578	34.52
0.79245	34.52
0.80912	34.52
0.82578	34.52
0.84245	34.52
0.85912	34.52
0.87578	34.52
0.89245	34.52
0.90912	34.52
0.92578	34.52
0.94245	34.52
0.95912	34.52
0.97578	34.52
0.99245	34.52
1.00912	34.52
1.02578	34.52
1.04245	34.52
1.05912	34.52
1.07578	34.52
1.09245	34.52
1.10912	34.52
1.12578	34.52
1.14245	34.52
1.15912	34.52
1.17578	34.52
1.19245	34.52
1.20912	34.52
1.22578	34.52
1.24245	34.52
1.25912	34.52
1.27578	34.52
1.29245	34.52
1.30912	34.52
1.32578	34.52
1.34245	34.52
1.35912	34.52
1.37578	34.51
1.39245	34.52
1.40912	34.52
1.42578	34.52
1.44245	34.52
1.45912	34.52
1.47578	34.52
1.49245	34.52
1.50912	34.52
1.52578	34.52
1.54245	34.52
1.55912	34.52
1.57578	34.52
1.59245	34.52
1.60912	34.52
1.62578	34.51
1.64245	34.51
1.65912	34.52
1.67578	34.52
1.69245	34.52
1.70912	34.52
1.72578	34.51
1.74245	34.51
1.75912	34.51
1.77578	34.51
1.79245	34.53
1.80912	34.51
1.82578	34.52
1.84245	34.52
1.85912	34.52
1.87578	34.52
1.89245	34.52
1.90912	34.52
1.92578	34.52
1.94245	34.52
1.95912	34.52
1.97578	34.51
1.99245	34.52
2.00912	34.52
2.02578	34.52
2.04245	34.52
2.05912	34.52
2.07578	34.52
2.09245	34.52
2.10912	34.52
2.12578	34.52
2.14245	34.52
2.15912	34.52
2.17578	34.52
2.19245	34.52
2.20912	34.52
2.22578	34.52
2.24245	34.52
2.25912	34.52
2.27578	34.52
2.29245	34.52
2.30912	34.52
2.32578	34.52
2.34245	34.52
2.35912	34.52
2.37578	34.52
2.39245	34.52
2.40912	34.52
2.42578	34.52
2.44245	34.52
2.45912	34.52
2.47578	34.52
2.49245	34.52
2.50912	34.49
2.52578	34.52
2.54245	34.52
2.55912	34.51
2.57578	34.53
2.59245	34.51
2.60912	34.53
2.62578	34.52
2.64245	34.53
2.65912	34.52
2.67578	34.52
2.69245	34.50
2.70912	34.52
2.72578	34.52
2.74245	34.52
2.75912	34.52
2.77578	34.51
2.79245	34.52
2.80912	34.52
2.82578	34.52
2.84245	34.52
2.85912	34.52
2.87578	34.52
2.89245	34.53
2.90912	34.51
2.92578	34.52
2.94245	34.52
2.95912	34.52
2.97578	34.51
2.99245	34.53
3.00912	34.52
3.02578	34.51
3.04245	34.52
3.05912	34.52
3.07578	34.52
3.09245	34.52
3.10912	34.52
3.12578	34.51
3.14245	34.52
3.15912	34.52
3.17578	34.52
3.19245	34.52
3.20912	34.52
3.22578	34.52
3.24245	34.52
3.25912	34.52
3.27578	34.52
3.29245	34.52
3.30912	34.52
3.32578	34.52
3.34245	34.52
3.35912	34.51
3.37578	34.52
3.39245	34.52
3.40912	34.51
3.42578	34.52
3.44245	34.52
3.45912	34.52
3.47578	34.52
3.49245	34.52
3.50912	34.52
3.52578	34.52
3.54245	34.52
3.55912	34.52
3.57578	34.52
3.59245	34.52
3.60912	34.52
3.62578	34.52
3.64245	34.52
3.65912	34.52
3.67578	34.52
3.69245	34.52
3.70912	34.52
3.72578	34.52
3.74245	34.52
3.75912	34.52
3.77578	34.51
3.79245	34.52
3.80912	34.52
3.82578	34.52
3.84245	34.52
3.85912	34.52
3.87578	34.52
3.89245	34.52
3.90912	34.52
3.92578	34.52
3.94245	34.52
3.95912	34.52
3.97578	34.51
3.99245	34.52

[Status Trace (Column Flow)]
Interval(msec)	1000
# of Points	240
Start Time(min)	0.009
End Time(min)	3.992
Intensity Units	
Intensity Multiplier	1
R.Time (min)	Intensity
0.00912	5.57
0.02578	5.25
0.04245	5.49
0.05912	5.73
0.07578	5.72
0.09245	5.58
0.10912	5.57
0.12578	5.57
0.14245	5.57
0.15912	5.57
0.17578	5.57
0.19245	5.57
0.20912	5.57
0.22578	5.57
0.24245	5.57
0.25912	5.57
0.27578	5.57
0.29245	5.57
0.30912	5.57
0.32578	5.57
0.34245	5.57
0.35912	5.57
0.37578	5.58
0.39245	5.58
0.40912	5.58
0.42578	5.57
0.44245	5.57
0.45912	5.57
0.47578	5.57
0.49245	5.57
0.50912	5.57
0.52578	5.57
0.54245	5.57
0.55912	5.57
0.57578	5.57
0.59245	5.57
0.60912	5.57
0.62578	5.57
0.64245	5.57
0.65912	5.57
0.67578	5.57
0.69245	5.57
0.70912	5.57
0.72578	5.57
0.74245	5.57
0.75912	5.57
0.77578	5.57
0.79245	5.57
0.80912	5.57
0.82578	5.57
0.84245	5.58
0.85912	5.58
0.87578	5.58
0.89245	5.58
0.90912	5.58
0.92578	5.58
0.94245	5.57
0.95912	5.57
0.97578	5.57
0.99245	5.57
1.00912	5.57
1.02578	5.58
1.04245	5.57
1.05912	5.57
1.07578	5.57
1.09245	5.57
1.10912	5.58
1.12578	5.58
1.14245	5.58
1.15912	5.57
1.17578	5.57
1.19245	5.57
1.20912	5.57
1.22578	5.57
1.24245	5.57
1.25912	5.57
1.27578	5.57
1.29245	5.58
1.30912	5.57
1.32578	5.57
1.34245	5.57
1.35912	5.57
1.37578	5.57
1.39245	5.58
1.40912	5.58
1.42578	5.58
1.44245	5.57
1.45912	5.57
1.47578	5.57
1.49245	5.57
1.50912	5.57
1.52578	5.57
1.54245	5.57
1.55912	5.57
1.57578	5.57
1.59245	5.57
1.60912	5.57
1.62578	5.57
1.64245	5.56
1.65912	5.56
1.67578	5.54
1.69245	5.53
1.70912	5.52
1.72578	5.51
1.74245	5.50
1.75912	5.49
1.77578	5.48
1.79245	5.47
1.80912	5.46
1.82578	5.45
1.84245	5.44
1.85912	5.43
1.87578	5.42
1.89245	5.41
1.90912	5.40
1.92578	5.39
1.94245	5.38
1.95912	5.37
1.97578	5.36
1.99245	5.35
2.00912	5.34
2.02578	5.33
2.04245	5.32
2.05912	5.31
2.07578	5.30
2.09245	5.29
2.10912	5.28
2.12578	5.27
2.14245	5.26
2.15912	5.25
2.17578	5.24
2.19245	5.23
2.20912	5.23
2.22578	5.22
2.24245	5.21
2.25912	5.20
2.27578	5.19
2.29245	5.18
2.30912	5.17
2.32578	5.16
2.34245	5.15
2.35912	5.14
2.37578	5.14
2.39245	5.13
2.40912	5.13
2.42578	5.14
2.44245	5.14
2.45912	5.14
2.47578	5.13
2.49245	5.13
2.50912	5.13
2.52578	5.13
2.54245	5.13
2.55912	5.13
2.57578	5.13
2.59245	5.13
2.60912	5.13
2.62578	5.13
2.64245	5.13
2.65912	5.13
2.67578	5.13
2.69245	5.13
2.70912	5.13
2.72578	5.13
2.74245	5.13
2.75912	5.13
2.77578	5.13
2.79245	5.13
2.80912	5.13
2.82578	5.13
2.84245	5.13
2.85912	5.13
2.87578	5.13
2.89245	5.13
2.90912	5.13
2.92578	5.13
2.94245	5.13
2.95912	5.13
2.97578	5.13
2.99245	5.13
3.00912	5.13
3.02578	5.13
3.04245	5.13
3.05912	5.13
3.07578	5.13
3.09245	5.13
3.10912	5.13
3.12578	5.13
3.14245	5.13
3.15912	5.12
3.17578	5.12
3.19245	5.12
3.20912	5.12
3.22578	5.13
3.24245	5.13
3.25912	5.13
3.27578	5.13
3.29245	5.12
3.30912	5.13
3.32578	5.12
3.34245	5.12
3.35912	5.12
3.37578	5.12
3.39245	5.12
3.40912	5.12
3.42578	5.12
3.44245	5.13
3.45912	5.13
3.47578	5.13
3.49245	5.12
3.50912	5.13
3.52578	5.13
3.54245	5.13
3.55912	5.13
3.57578	5.13
3.59245	5.13
3.60912	5.13
3.62578	5.13
3.64245	5.13
3.65912	5.13
3.67578	5.13
3.69245	5.13
3.70912	5.13
3.72578	5.13
3.74245	5.13
3.75912	5.13
3.77578	5.13
3.79245	5.13
3.80912	5.13
3.82578	5.13
3.84245	5.13
3.85912	5.13
3.87578	5.13
3.89245	5.13
3.90912	5.13
3.92578	5.13
3.94245	5.13
3.95912	5.13
3.97578	5.13
3.99245	5.12

[Status Trace (Linear Velocity)]
Interval(msec)	1000
# of Points	240
Start Time(min)	0.009
End Time(min)	3.992
Intensity Units	
Intensity Multiplier	1
R.Time (min)	Intensity
0.00912	39.02
0.02578	37.21
0.04245	38.59
0.05912	39.92
0.07578	39.86
0.09245	39.04
0.10912	39.01
0.12578	39.03
0.14245	39.03
0.15912	39.03
0.17578	39.03
0.19245	39.03
0.20912	39.03
0.22578	39.03
0.24245	39.03
0.25912	39.03
0.27578	39.03
0.29245	39.03
0.30912	39.03
0.32578	39.03
0.34245	39.03
0.35912	39.03
0.37578	39.03
0.39245	39.03
0.40912	39.03
0.42578	39.03
0.44245	39.03
0.45912	39.03
0.47578	39.03
0.49245	39.03
0.50912	39.03
0.52578	39.03
0.54245	39.03
0.55912	39.03
0.57578	39.03
0.59245	39.03
0.60912	39.03
0.62578	39.03
0.64245	39.03
0.65912	39.03
0.67578	39.03
0.69245	39.03
0.70912	39.03
0.72578	39.03
0.74245	39.03
0.75912	39.03
0.77578	39.03
0.79245	39.03
0.80912	39.03
0.82578	39.03
0.84245	39.03
0.85912	39.03
0.87578	39.03
0.89245	39.03
0.90912	39.03
0.92578	39.03
0.94245	39.03
0.95912	39.03
0.97578	39.03
0.99245	39.03
1.00912	39.03
1.02578	39.03
1.04245	39.03
1.05912	39.03
1.07578	39.03
1.09245	39.03
1.10912	39.03
1.12578	39.03
1.14245	39.03
1.15912	39.03
1.17578	39.03
1.19245	39.03
1.20912	39.03
1.22578	39.03
1.24245	39.03
1.25912	39.03
1.27578	39.03
1.29245	39.03
1.30912	39.03
1.32578	39.03
1.34245	39.03
1.35912	39.03
1.37578	39.03
1.39245	39.03
1.40912	39.03
1.42578	39.03
1.44245	39.03
1.45912	39.03
1.47578	39.03
1.49245	39.03
1.50912	39.03
1.52578	39.03
1.54245	39.03
1.55912	39.03
1.57578	39.03
1.59245	39.03
1.60912	39.03
1.62578	39.01
1.64245	39.00
1.65912	38.97
1.67578	38.94
1.69245	38.90
1.70912	38.87
1.72578	38.83
1.74245	38.80
1.75912	38.77
1.77578	38.74
1.79245	38.71
1.80912	38.68
1.82578	38.65
1.84245	38.62
1.85912	38.59
1.87578	38.55
1.89245	38.52
1.90912	38.49
1.92578	38.46
1.94245	38.43
1.95912	38.40
1.97578	38.37
1.99245	38.34
2.00912	38.31
2.02578	38.28
2.04245	38.25
2.05912	38.22
2.07578	38.19
2.09245	38.16
2.10912	38.13
2.12578	38.10
2.14245	38.07
2.15912	38.04
2.17578	38.01
2.19245	37.98
2.20912	37.96
2.22578	37.92
2.24245	37.89
2.25912	37.87
2.27578	37.83
2.29245	37.80
2.30912	37.78
2.32578	37.74
2.34245	37.72
2.35912	37.69
2.37578	37.67
2.39245	37.67
2.40912	37.67
2.42578	37.67
2.44245	37.67
2.45912	37.67
2.47578	37.67
2.49245	37.67
2.50912	37.66
2.52578	37.65
2.54245	37.66
2.55912	37.66
2.57578	37.66
2.59245	37.66
2.60912	37.66
2.62578	37.66
2.64245	37.66
2.65912	37.66
2.67578	37.66
2.69245	37.66
2.70912	37.66
2.72578	37.65
2.74245	37.65
2.75912	37.66
2.77578	37.66
2.79245	37.66
2.80912	37.66
2.82578	37.65
2.84245	37.65
2.85912	37.65
2.87578	37.65
2.89245	37.65
2.90912	37.65
2.92578	37.65
2.94245	37.65
2.95912	37.65
2.97578	37.65
2.99245	37.65
3.00912	37.65
3.02578	37.65
3.04245	37.64
3.05912	37.64
3.07578	37.64
3.09245	37.64
3.10912	37.64
3.12578	37.64
3.14245	37.64
3.15912	37.64
3.17578	37.64
3.19245	37.64
3.20912	37.64
3.22578	37.64
3.24245	37.64
3.25912	37.64
3.27578	37.64
3.29245	37.64
3.30912	37.64
3.32578	37.64
3.34245	37.64
3.35912	37.63
3.37578	37.63
3.39245	37.63
3.40912	37.64
3.42578	37.64
3.44245	37.64
3.45912	37.64
3.47578	37.64
3.49245	37.64
3.50912	37.64
3.52578	37.64
3.54245	37.64
3.55912	37.64
3.57578	37.64
3.59245	37.64
3.60912	37.64
3.62578	37.64
3.64245	37.64
3.65912	37.64
3.67578	37.64
3.69245	37.64
3.70912	37.64
3.72578	37.64
3.74245	37.64
3.75912	37.64
3.77578	37.64
3.79245	37.64
3.80912	37.64
3.82578	37.64
3.84245	37.64
3.85912	37.64
3.87578	37.64
3.89245	37.64
3.90912	37.64
3.92578	37.64
3.94245	37.64
3.95912	37.64
3.97578	37.64
3.99245	37.64

