[Header]
Application Name	LabSolutions
Version	5.110
Data File Name	C:\Users\User\Desktop\GC Analyses\Jack\Nachusa Grasslands Sampling\T0 Timepoint July 12th\T0_07122022_050.gcd
Output Date	3/14/2023
Output Time	3:40:37 PM

[File Information]
Type	Data File
Generated	3/7/2023 7:18:33 PM
Generated by	System Administrator
Modified	3/7/2023 7:25:23 PM
Modified by	System Administrator

[Sample Information]
Operator Name	System Administrator
Acquired	3/7/2023 7:21:22 PM
Sample Type	0:Unknown
Level	0
Sample Name	050
Sample ID	050
ISTD Amount1	1
ISTD Amount2	1
ISTD Amount3	1
ISTD Amount4	1
ISTD Amount5	1
ISTD Amount6	1
ISTD Amount7	1
ISTD Amount8	1
ISTD Amount9	1
ISTD Amount10	1
ISTD Amount11	1
ISTD Amount12	1
ISTD Amount13	1
ISTD Amount14	1
ISTD Amount15	1
ISTD Amount16	1
ISTD Amount17	1
ISTD Amount18	1
ISTD Amount19	1
ISTD Amount20	1
ISTD Amount21	1
ISTD Amount22	1
ISTD Amount23	1
ISTD Amount24	1
ISTD Amount25	1
ISTD Amount26	1
ISTD Amount27	1
ISTD Amount28	1
ISTD Amount29	1
ISTD Amount30	1
ISTD Amount31	1
ISTD Amount32	1
Sample Amount	1
Dilution Factor	1
Vial#	49
Injection Volume	1
Injection Count	1
Bar Code	

[Original Files]
Data File	C:\Users\User\Desktop\GC Analyses\Jack\Nachusa Grasslands Sampling\T0 Timepoint July 12th\T0_07122022_050.gcd
Method File	C:\LabSolutions\Data\GHG_4min_2022\ghg3_togas_w_acet_4 min_new_int.gcm
Batch File	C:\LabSolutions\Data\AutoSamplerTesting\T0_07122022.gcb
Report Format File	c:\LabSolutions\System\DEFAULT.lsr

[File Description]


[Configuration]
Instrument Name	C0B7VH3-Instrument1
Instrument #	1
Line #	1
# of Detectors	3
Detector ID	DET#1	DET#2	DET#3
Detector Name	FID	PTCD	ECD
# of Channels	1	1	1

[Peak Table(Ch1)]
# of Peaks	3
Peak#	R.Time	I.Time	F.Time	Area	Height	A/H	Conc.	Mark	ID#	Name	k'	Plate #	Plate Ht.	Tailing	Resolution	Sep.Factor	Area Ratio	Height Ratio	Conc. %	Norm Conc.
1	1.476	1.421	1.538	26546	12407	2.140	187.414	   	1	CO	0.000	9252	16.213	1.322	0.000	0.000	0	0	32.773	32.773
2	1.567	1.538	1.626	4786	2314	2.068	92.547	 V 	2	CH4	0.062	10325	14.528	0.000	1.490	0.000	0	0	16.183	16.183
3	1.996	1.949	2.418	1163079	550792	2.112	291.901	   	3	CO2	0.353	17221	8.710	1.285	7.001	5.680	0	0	51.044	51.044

[Peak Table(Ch2)]
# of Peaks	0

[Peak Table(Ch3)]
# of Peaks	5
Peak#	R.Time	I.Time	F.Time	Area	Height	A/H	Conc.	Mark	ID#	Name	k'	Plate #	Plate Ht.	Tailing	Resolution	Sep.Factor	Area Ratio	Height Ratio	Conc. %	Norm Conc.
1	2.462	2.161	2.524	2440	412	5.923	0.000	   			0.000	6008	24.966	0.000	0.000	0.000	0	0	0.000	0.000
2	2.554	2.524	2.634	998	221	4.524	0.000	 V 			0.037	2444	61.382	0.000	0.549	0.000	0	0	0.000	0.000
3	2.722	2.649	2.792	672	100	6.704	0.017	   	1	N2O	0.106	697	215.160	0.000	0.545	2.840	0	0	3.562	3.562
4	2.873	2.792	3.089	18191	4661	3.903	0.465	 V 	1	N2O	0.167	13239	11.330	1.627	0.587	1.577	0	0	96.438	96.438
5	3.228	3.100	3.995	13106	564	23.221	0.000	   	2	SF6	0.311	340	440.832	3.515	0.889	1.866	0	0	0.000	0.000

[Compound Results(Ch1)]
# of IDs	6
ID#	Name	R.Time	Area	Height	Conc.	Curve	3rd	2nd	1st	Constant	Area Ratio	Height Ratio	Conc. %	Norm Conc.
1	CO	1.476	26546	12407	187.414	Linear	0.000000e+00	0.000000e+00	1.416423e+002	0.000000e+00	0	0	32.773	32.773
2	CH4	1.567	4786	2314	92.547	Linear	0.000000e+00	0.000000e+00	5.171738e+001	0.000000e+00	0	0	16.183	16.183
3	CO2	1.996	1163079	550792	291.901	Linear	0.000000e+00	0.000000e+00	3.984494e+003	0.000000e+00	0	0	51.044	51.044
4	Ethylene	0.000	0	0	0.000	Linear	0.000000e+00	0.000000e+00	0.000000e+00	0.000000e+00	0	0	0.000	0.000
5	Acetylene	0.000	0	0	0.000	Linear	0.000000e+00	0.000000e+00	0.000000e+00	0.000000e+00	0	0	0.000	0.000
6	Ethane	0.000	0	0	0.000	Linear	0.000000e+00	0.000000e+00	0.000000e+00	0.000000e+00	0	0	0.000	0.000

[Compound Results(Ch2)]
# of IDs	5
ID#	Name	R.Time	Area	Height	Conc.	Curve	3rd	2nd	1st	Constant	Area Ratio	Height Ratio	Conc. %	Norm Conc.
1	Hydrogen	0.000	0	0	0.000	Linear	0.000000e+00	0.000000e+00	0.000000e+00	0.000000e+00	0	0	0.000	0.000
2	Oxygen	0.000	0	0	0.000	Linear	0.000000e+00	0.000000e+00	0.000000e+00	0.000000e+00	0	0	0.000	0.000
3	Nitrogen	0.000	0	0	0.000	Linear	0.000000e+00	0.000000e+00	0.000000e+00	0.000000e+00	0	0	0.000	0.000
4	Methane	0.000	0	0	0.000	Linear	0.000000e+00	0.000000e+00	0.000000e+00	0.000000e+00	0	0	0.000	0.000
5	Carbon Monoxide	0.000	0	0	0.000	Linear	0.000000e+00	0.000000e+00	0.000000e+00	0.000000e+00	0	0	0.000	0.000

[Compound Results(Ch3)]
# of IDs	2
ID#	Name	R.Time	Area	Height	Conc.	Curve	3rd	2nd	1st	Constant	Area Ratio	Height Ratio	Conc. %	Norm Conc.
1	N2O	2.873	18862	4761	0.482	Linear	0.000000e+00	0.000000e+00	3.915173e+004	0.000000e+00	0	0	100.000	100.000
2	SF6	3.228	13106	564	0.000	Linear	0.000000e+00	0.000000e+00	0.000000e+00	0.000000e+00	0	0	0.000	0.000

[Group Results(Ch1)]
# of Groups	0

[Group Results(Ch2)]
# of Groups	0

[Group Results(Ch3)]
# of Groups	0

[Chromatogram (Ch1)]
Interval(msec)	220
# of Points	1091
Start Time(min)	0.002
End Time(min)	3.998
R.Time (min)	Intensity
0.00167	21
0.00533	27
0.00900	32
0.01267	34
0.01633	34
0.02000	31
0.02367	26
0.02733	23
0.03100	22
0.03467	23
0.03833	23
0.04200	23
0.04567	19
0.04933	15
0.05300	13
0.05667	14
0.06033	20
0.06400	26
0.06767	29
0.07133	32
0.07500	38
0.07867	47
0.08233	60
0.08600	70
0.08967	80
0.09333	85
0.09700	88
0.10067	87
0.10433	83
0.10800	84
0.11167	88
0.11533	91
0.11900	90
0.12267	87
0.12633	87
0.13000	87
0.13367	89
0.13733	90
0.14100	90
0.14467	89
0.14833	87
0.15200	84
0.15567	79
0.15933	73
0.16300	68
0.16667	66
0.17033	62
0.17400	58
0.17767	55
0.18133	53
0.18500	50
0.18867	47
0.19233	51
0.19600	58
0.19967	61
0.20333	55
0.20700	43
0.21067	34
0.21433	28
0.21800	22
0.22167	13
0.22533	6
0.22900	3
0.23267	4
0.23633	7
0.24000	12
0.24367	16
0.24733	18
0.25100	14
0.25467	8
0.25833	2
0.26200	-5
0.26567	-11
0.26933	-13
0.27300	-10
0.27667	-4
0.28033	1
0.28400	6
0.28767	12
0.29133	18
0.29500	19
0.29867	14
0.30233	12
0.30600	11
0.30967	7
0.31333	4
0.31700	2
0.32067	-1
0.32433	-7
0.32800	-14
0.33167	-16
0.33533	-14
0.33900	-11
0.34267	-10
0.34633	-9
0.35000	-9
0.35367	-10
0.35733	-9
0.36100	-11
0.36467	-13
0.36833	-12
0.37200	-10
0.37567	-7
0.37933	-5
0.38300	-4
0.38667	-4
0.39033	-3
0.39400	2
0.39767	5
0.40133	4
0.40500	3
0.40867	1
0.41233	1
0.41600	4
0.41967	8
0.42333	10
0.42700	8
0.43067	5
0.43433	1
0.43800	-2
0.44167	-5
0.44533	-6
0.44900	-6
0.45267	-7
0.45633	-8
0.46000	-11
0.46367	-13
0.46733	-13
0.47100	-13
0.47467	-9
0.47833	-6
0.48200	-7
0.48567	-10
0.48933	-10
0.49300	-7
0.49667	-3
0.50033	0
0.50400	-0
0.50767	-3
0.51133	-6
0.51500	-9
0.51867	-14
0.52233	-17
0.52600	-18
0.52967	-16
0.53333	-11
0.53700	-7
0.54067	-3
0.54433	-0
0.54800	2
0.55167	0
0.55533	-6
0.55900	-14
0.56267	-24
0.56633	-31
0.57000	-35
0.57367	-32
0.57733	-26
0.58100	-22
0.58467	-20
0.58833	-19
0.59200	-16
0.59567	-16
0.59933	-18
0.60300	-19
0.60667	-16
0.61033	-9
0.61400	1
0.61767	9
0.62133	12
0.62500	8
0.62867	3
0.63233	-5
0.63600	-10
0.63967	-15
0.64333	-18
0.64700	-18
0.65067	-15
0.65433	-14
0.65800	-14
0.66167	-17
0.66533	-21
0.66900	-23
0.67267	-21
0.67633	-19
0.68000	-20
0.68367	-22
0.68733	-23
0.69100	-21
0.69467	-18
0.69833	-15
0.70200	-11
0.70567	-9
0.70933	-4
0.71300	3
0.71667	9
0.72033	11
0.72400	6
0.72767	-3
0.73133	-12
0.73500	-21
0.73867	-26
0.74233	-25
0.74600	-25
0.74967	-25
0.75333	-22
0.75700	-17
0.76067	-11
0.76433	-7
0.76800	-6
0.77167	-8
0.77533	-14
0.77900	-20
0.78267	-21
0.78633	-17
0.79000	-16
0.79367	-18
0.79733	-23
0.80100	-27
0.80467	-31
0.80833	-33
0.81200	-32
0.81567	-27
0.81933	-17
0.82300	-6
0.82667	3
0.83033	9
0.83400	11
0.83767	15
0.84133	25
0.84500	32
0.84867	30
0.85233	26
0.85600	23
0.85967	19
0.86333	15
0.86700	11
0.87067	9
0.87433	9
0.87800	12
0.88167	19
0.88533	23
0.88900	27
0.89267	27
0.89633	23
0.90000	16
0.90367	10
0.90733	6
0.91100	2
0.91467	3
0.91833	8
0.92200	14
0.92567	21
0.92933	24
0.93300	23
0.93667	23
0.94033	27
0.94400	29
0.94767	30
0.95133	28
0.95500	23
0.95867	20
0.96233	19
0.96600	22
0.96967	24
0.97333	24
0.97700	24
0.98067	25
0.98433	29
0.98800	32
0.99167	31
0.99533	29
0.99900	28
1.00267	27
1.00633	25
1.01000	22
1.01367	21
1.01733	23
1.02100	25
1.02467	25
1.02833	22
1.03200	17
1.03567	12
1.03933	10
1.04300	13
1.04667	19
1.05033	20
1.05400	14
1.05767	14
1.06133	19
1.06500	27
1.06867	36
1.07233	36
1.07600	31
1.07967	26
1.08333	23
1.08700	24
1.09067	24
1.09433	23
1.09800	22
1.10167	18
1.10533	15
1.10900	15
1.11267	20
1.11633	26
1.12000	33
1.12367	41
1.12733	47
1.13100	46
1.13467	42
1.13833	38
1.14200	33
1.14567	27
1.14933	20
1.15300	13
1.15667	11
1.16033	10
1.16400	6
1.16767	1
1.17133	-3
1.17500	-3
1.17867	-2
1.18233	-3
1.18600	-1
1.18967	4
1.19333	9
1.19700	11
1.20067	10
1.20433	9
1.20800	15
1.21167	20
1.21533	20
1.21900	12
1.22267	3
1.22633	-4
1.23000	-11
1.23367	-18
1.23733	-23
1.24100	-22
1.24467	-18
1.24833	-15
1.25200	-13
1.25567	-15
1.25933	-17
1.26300	-17
1.26667	-16
1.27033	-18
1.27400	-18
1.27767	-15
1.28133	-5
1.28500	6
1.28867	18
1.29233	27
1.29600	28
1.29967	22
1.30333	15
1.30700	8
1.31067	1
1.31433	-7
1.31800	-15
1.32167	-22
1.32533	-24
1.32900	-22
1.33267	-16
1.33633	-14
1.34000	-16
1.34367	-19
1.34733	-20
1.35100	-17
1.35467	-12
1.35833	-7
1.36200	-6
1.36567	-8
1.36933	-12
1.37300	-16
1.37667	-21
1.38033	-24
1.38400	-24
1.38767	-19
1.39133	-11
1.39500	-6
1.39867	-10
1.40233	-19
1.40600	-30
1.40967	-38
1.41333	-39
1.41700	-35
1.42067	-28
1.42433	-21
1.42800	-15
1.43167	-10
1.43533	-1
1.43900	27
1.44267	128
1.44633	366
1.45000	920
1.45367	2164
1.45733	4179
1.46100	6557
1.46467	8800
1.46833	10606
1.47200	11838
1.47567	12387
1.47933	12149
1.48300	11125
1.48667	9511
1.49033	7645
1.49400	5851
1.49767	4328
1.50133	3138
1.50500	2259
1.50867	1635
1.51233	1197
1.51600	893
1.51967	678
1.52333	526
1.52700	422
1.53067	344
1.53433	285
1.53800	250
1.54167	279
1.54533	440
1.54900	757
1.55267	1169
1.55633	1583
1.56000	1930
1.56367	2179
1.56733	2306
1.57100	2278
1.57467	2084
1.57833	1767
1.58200	1399
1.58567	1047
1.58933	753
1.59300	524
1.59667	356
1.60033	237
1.60400	155
1.60767	102
1.61133	67
1.61500	43
1.61867	24
1.62233	10
1.62600	0
1.62967	-3
1.63333	-4
1.63700	-4
1.64067	-5
1.64433	-2
1.64800	4
1.65167	9
1.65533	12
1.65900	11
1.66267	7
1.66633	3
1.67000	5
1.67367	4
1.67733	-1
1.68100	-9
1.68467	-18
1.68833	-26
1.69200	-33
1.69567	-31
1.69933	-24
1.70300	-20
1.70667	-18
1.71033	-18
1.71400	-20
1.71767	-21
1.72133	-23
1.72500	-21
1.72867	-14
1.73233	1
1.73600	19
1.73967	29
1.74333	35
1.74700	33
1.75067	25
1.75433	12
1.75800	-0
1.76167	-12
1.76533	-22
1.76900	-31
1.77267	-38
1.77633	-43
1.78000	-47
1.78367	-49
1.78733	-51
1.79100	-51
1.79467	-50
1.79833	-45
1.80200	-41
1.80567	-39
1.80933	-37
1.81300	-35
1.81667	-31
1.82033	-28
1.82400	-24
1.82767	-21
1.83133	-18
1.83500	-14
1.83867	-8
1.84233	-2
1.84600	2
1.84967	4
1.85333	5
1.85700	4
1.86067	2
1.86433	-1
1.86800	-3
1.87167	-1
1.87533	4
1.87900	5
1.88267	0
1.88633	-6
1.89000	-12
1.89367	-14
1.89733	-15
1.90100	-12
1.90467	-10
1.90833	-10
1.91200	-11
1.91567	-11
1.91933	-5
1.92300	5
1.92667	10
1.93033	7
1.93400	-0
1.93767	-7
1.94133	-10
1.94500	-10
1.94867	-8
1.95233	11
1.95600	138
1.95967	827
1.96333	3800
1.96700	13603
1.97067	38476
1.97433	87652
1.97800	164702
1.98167	262516
1.98533	365585
1.98900	456682
1.99267	521544
1.99633	550827
2.00000	540876
2.00367	495104
2.00733	423905
2.01100	341625
2.01467	261584
2.01833	192478
2.02200	137739
2.02567	96969
2.02933	67880
2.03300	47704
2.03667	33949
2.04033	24650
2.04400	18365
2.04767	14090
2.05133	11145
2.05500	9085
2.05867	7609
2.06233	6523
2.06600	5704
2.06967	5065
2.07333	4552
2.07700	4131
2.08067	3783
2.08433	3490
2.08800	3237
2.09167	3018
2.09533	2830
2.09900	2664
2.10267	2516
2.10633	2380
2.11000	2257
2.11367	2143
2.11733	2040
2.12100	1949
2.12467	1871
2.12833	1801
2.13200	1731
2.13567	1660
2.13933	1595
2.14300	1535
2.14667	1476
2.15033	1423
2.15400	1377
2.15767	1333
2.16133	1287
2.16500	1245
2.16867	1210
2.17233	1182
2.17600	1157
2.17967	1128
2.18333	1091
2.18700	1052
2.19067	1013
2.19433	980
2.19800	952
2.20167	929
2.20533	911
2.20900	895
2.21267	878
2.21633	862
2.22000	847
2.22367	828
2.22733	808
2.23100	789
2.23467	772
2.23833	757
2.24200	743
2.24567	729
2.24933	713
2.25300	692
2.25667	672
2.26033	659
2.26400	652
2.26767	646
2.27133	640
2.27500	632
2.27867	626
2.28233	618
2.28600	606
2.28967	593
2.29333	577
2.29700	565
2.30067	556
2.30433	547
2.30800	542
2.31167	540
2.31533	536
2.31900	530
2.32267	521
2.32633	509
2.33000	496
2.33367	487
2.33733	479
2.34100	475
2.34467	477
2.34833	481
2.35200	483
2.35567	482
2.35933	478
2.36300	471
2.36667	461
2.37033	451
2.37400	445
2.37767	444
2.38133	443
2.38500	442
2.38867	439
2.39233	434
2.39600	428
2.39967	422
2.40333	420
2.40700	418
2.41067	415
2.41433	411
2.41800	410
2.42167	414
2.42533	417
2.42900	415
2.43267	409
2.43633	401
2.44000	395
2.44367	390
2.44733	387
2.45100	378
2.45467	364
2.45833	353
2.46200	353
2.46567	358
2.46933	360
2.47300	352
2.47667	341
2.48033	332
2.48400	326
2.48767	324
2.49133	324
2.49500	325
2.49867	327
2.50233	330
2.50600	334
2.50967	337
2.51333	334
2.51700	330
2.52067	324
2.52433	320
2.52800	316
2.53167	312
2.53533	308
2.53900	304
2.54267	301
2.54633	301
2.55000	301
2.55367	299
2.55733	299
2.56100	306
2.56467	313
2.56833	317
2.57200	322
2.57567	328
2.57933	335
2.58300	338
2.58667	334
2.59033	321
2.59400	309
2.59767	301
2.60133	292
2.60500	286
2.60867	285
2.61233	287
2.61600	290
2.61967	289
2.62333	284
2.62700	278
2.63067	275
2.63433	274
2.63800	272
2.64167	270
2.64533	267
2.64900	266
2.65267	267
2.65633	270
2.66000	275
2.66367	280
2.66733	285
2.67100	288
2.67467	289
2.67833	290
2.68200	290
2.68567	283
2.68933	275
2.69300	270
2.69667	269
2.70033	272
2.70400	277
2.70767	282
2.71133	284
2.71500	287
2.71867	295
2.72233	299
2.72600	296
2.72967	289
2.73333	280
2.73700	272
2.74067	266
2.74433	263
2.74800	264
2.75167	265
2.75533	267
2.75900	269
2.76267	269
2.76633	267
2.77000	266
2.77367	266
2.77733	264
2.78100	258
2.78467	254
2.78833	254
2.79200	259
2.79567	264
2.79933	266
2.80300	265
2.80667	266
2.81033	269
2.81400	271
2.81767	273
2.82133	271
2.82500	266
2.82867	261
2.83233	256
2.83600	255
2.83967	257
2.84333	262
2.84700	267
2.85067	272
2.85433	275
2.85800	275
2.86167	275
2.86533	274
2.86900	270
2.87267	266
2.87633	263
2.88000	262
2.88367	261
2.88733	257
2.89100	255
2.89467	253
2.89833	254
2.90200	257
2.90567	259
2.90933	258
2.91300	253
2.91667	247
2.92033	244
2.92400	244
2.92767	248
2.93133	249
2.93500	250
2.93867	254
2.94233	258
2.94600	262
2.94967	263
2.95333	259
2.95700	251
2.96067	244
2.96433	243
2.96800	246
2.97167	251
2.97533	256
2.97900	258
2.98267	255
2.98633	247
2.99000	238
2.99367	234
2.99733	234
3.00100	234
3.00467	235
3.00833	235
3.01200	238
3.01567	244
3.01933	249
3.02300	251
3.02667	252
3.03033	250
3.03400	246
3.03767	246
3.04133	255
3.04500	267
3.04867	272
3.05233	272
3.05600	268
3.05967	260
3.06333	246
3.06700	230
3.07067	218
3.07433	215
3.07800	217
3.08167	218
3.08533	217
3.08900	214
3.09267	209
3.09633	205
3.10000	204
3.10367	203
3.10733	205
3.11100	208
3.11467	213
3.11833	216
3.12200	217
3.12567	220
3.12933	225
3.13300	228
3.13667	229
3.14033	229
3.14400	226
3.14767	220
3.15133	213
3.15500	209
3.15867	210
3.16233	211
3.16600	213
3.16967	214
3.17333	213
3.17700	213
3.18067	216
3.18433	223
3.18800	229
3.19167	234
3.19533	237
3.19900	236
3.20267	232
3.20633	230
3.21000	227
3.21367	224
3.21733	220
3.22100	220
3.22467	220
3.22833	221
3.23200	219
3.23567	215
3.23933	208
3.24300	199
3.24667	195
3.25033	197
3.25400	201
3.25767	203
3.26133	205
3.26500	209
3.26867	215
3.27233	216
3.27600	218
3.27967	216
3.28333	213
3.28700	211
3.29067	208
3.29433	207
3.29800	204
3.30167	203
3.30533	207
3.30900	210
3.31267	208
3.31633	207
3.32000	207
3.32367	207
3.32733	208
3.33100	207
3.33467	201
3.33833	196
3.34200	191
3.34567	188
3.34933	188
3.35300	191
3.35667	194
3.36033	193
3.36400	193
3.36767	196
3.37133	198
3.37500	202
3.37867	206
3.38233	207
3.38600	205
3.38967	201
3.39333	197
3.39700	192
3.40067	185
3.40433	179
3.40800	175
3.41167	175
3.41533	178
3.41900	182
3.42267	186
3.42633	188
3.43000	192
3.43367	195
3.43733	194
3.44100	189
3.44467	181
3.44833	176
3.45200	177
3.45567	180
3.45933	180
3.46300	181
3.46667	181
3.47033	182
3.47400	180
3.47767	175
3.48133	171
3.48500	173
3.48867	177
3.49233	176
3.49600	173
3.49967	168
3.50333	163
3.50700	162
3.51067	162
3.51433	161
3.51800	161
3.52167	162
3.52533	166
3.52900	171
3.53267	177
3.53633	181
3.54000	181
3.54367	177
3.54733	172
3.55100	167
3.55467	163
3.55833	158
3.56200	154
3.56567	156
3.56933	162
3.57300	167
3.57667	166
3.58033	163
3.58400	161
3.58767	160
3.59133	158
3.59500	158
3.59867	160
3.60233	164
3.60600	166
3.60967	163
3.61333	160
3.61700	160
3.62067	163
3.62433	161
3.62800	156
3.63167	153
3.63533	155
3.63900	157
3.64267	154
3.64633	148
3.65000	141
3.65367	135
3.65733	134
3.66100	137
3.66467	142
3.66833	146
3.67200	151
3.67567	154
3.67933	155
3.68300	155
3.68667	157
3.69033	161
3.69400	165
3.69767	164
3.70133	157
3.70500	149
3.70867	141
3.71233	134
3.71600	129
3.71967	125
3.72333	122
3.72700	121
3.73067	122
3.73433	124
3.73800	129
3.74167	134
3.74533	138
3.74900	143
3.75267	146
3.75633	148
3.76000	149
3.76367	149
3.76733	144
3.77100	138
3.77467	133
3.77833	132
3.78200	132
3.78567	135
3.78933	136
3.79300	136
3.79667	136
3.80033	135
3.80400	133
3.80767	128
3.81133	121
3.81500	111
3.81867	105
3.82233	107
3.82600	117
3.82967	130
3.83333	137
3.83700	135
3.84067	128
3.84433	120
3.84800	117
3.85167	120
3.85533	125
3.85900	128
3.86267	129
3.86633	126
3.87000	119
3.87367	111
3.87733	111
3.88100	114
3.88467	119
3.88833	118
3.89200	114
3.89567	113
3.89933	117
3.90300	121
3.90667	121
3.91033	116
3.91400	109
3.91767	102
3.92133	97
3.92500	95
3.92867	97
3.93233	99
3.93600	102
3.93967	105
3.94333	113
3.94700	121
3.95067	126
3.95433	127
3.95800	125
3.96167	119
3.96533	113
3.96900	106
3.97267	100
3.97633	94
3.98000	88
3.98367	84
3.98733	81
3.99100	83
3.99467	90
3.99833	97

[Chromatogram (Ch2)]
Interval(msec)	220
# of Points	1091
Start Time(min)	0.002
End Time(min)	3.998
R.Time (min)	Intensity
0.00167	-1
0.00533	-1
0.00900	-2
0.01267	-2
0.01633	-3
0.02000	-3
0.02367	-3
0.02733	-3
0.03100	-3
0.03467	-3
0.03833	-3
0.04200	-3
0.04567	-3
0.04933	-2
0.05300	-2
0.05667	-1
0.06033	-1
0.06400	-0
0.06767	0
0.07133	1
0.07500	1
0.07867	1
0.08233	2
0.08600	2
0.08967	2
0.09333	3
0.09700	3
0.10067	3
0.10433	3
0.10800	3
0.11167	3
0.11533	3
0.11900	3
0.12267	3
0.12633	3
0.13000	3
0.13367	3
0.13733	3
0.14100	3
0.14467	3
0.14833	3
0.15200	4
0.15567	4
0.15933	4
0.16300	3
0.16667	3
0.17033	3
0.17400	3
0.17767	3
0.18133	2
0.18500	2
0.18867	2
0.19233	2
0.19600	1
0.19967	0
0.20333	-0
0.20700	-1
0.21067	-1
0.21433	-2
0.21800	-2
0.22167	-2
0.22533	-2
0.22900	-2
0.23267	-2
0.23633	-2
0.24000	-2
0.24367	-2
0.24733	-2
0.25100	-2
0.25467	-2
0.25833	-2
0.26200	-2
0.26567	-2
0.26933	-1
0.27300	-1
0.27667	-1
0.28033	-1
0.28400	-1
0.28767	-1
0.29133	-1
0.29500	-1
0.29867	-1
0.30233	-1
0.30600	-1
0.30967	-1
0.31333	-1
0.31700	-1
0.32067	-1
0.32433	-0
0.32800	-0
0.33167	0
0.33533	0
0.33900	1
0.34267	1
0.34633	1
0.35000	1
0.35367	1
0.35733	1
0.36100	2
0.36467	2
0.36833	2
0.37200	2
0.37567	3
0.37933	3
0.38300	3
0.38667	3
0.39033	3
0.39400	4
0.39767	4
0.40133	4
0.40500	4
0.40867	3
0.41233	3
0.41600	3
0.41967	3
0.42333	2
0.42700	2
0.43067	2
0.43433	2
0.43800	1
0.44167	1
0.44533	1
0.44900	1
0.45267	1
0.45633	0
0.46000	0
0.46367	-0
0.46733	-1
0.47100	-1
0.47467	-1
0.47833	-1
0.48200	-1
0.48567	-1
0.48933	-0
0.49300	-0
0.49667	-0
0.50033	-0
0.50400	0
0.50767	0
0.51133	0
0.51500	1
0.51867	1
0.52233	1
0.52600	1
0.52967	1
0.53333	1
0.53700	1
0.54067	1
0.54433	1
0.54800	0
0.55167	0
0.55533	0
0.55900	0
0.56267	0
0.56633	0
0.57000	0
0.57367	1
0.57733	1
0.58100	1
0.58467	2
0.58833	2
0.59200	2
0.59567	2
0.59933	2
0.60300	2
0.60667	2
0.61033	2
0.61400	2
0.61767	2
0.62133	2
0.62500	2
0.62867	2
0.63233	2
0.63600	2
0.63967	2
0.64333	2
0.64700	2
0.65067	2
0.65433	2
0.65800	2
0.66167	2
0.66533	2
0.66900	2
0.67267	2
0.67633	2
0.68000	2
0.68367	2
0.68733	1
0.69100	1
0.69467	1
0.69833	1
0.70200	1
0.70567	0
0.70933	1
0.71300	1
0.71667	0
0.72033	0
0.72400	-0
0.72767	-1
0.73133	-1
0.73500	-2
0.73867	-2
0.74233	-1
0.74600	-1
0.74967	-1
0.75333	-0
0.75700	0
0.76067	1
0.76433	1
0.76800	1
0.77167	1
0.77533	1
0.77900	1
0.78267	1
0.78633	1
0.79000	1
0.79367	1
0.79733	1
0.80100	1
0.80467	1
0.80833	1
0.81200	0
0.81567	1
0.81933	1
0.82300	1
0.82667	1
0.83033	1
0.83400	2
0.83767	2
0.84133	2
0.84500	2
0.84867	2
0.85233	2
0.85600	2
0.85967	2
0.86333	2
0.86700	2
0.87067	2
0.87433	3
0.87800	3
0.88167	3
0.88533	3
0.88900	3
0.89267	3
0.89633	3
0.90000	3
0.90367	2
0.90733	2
0.91100	1
0.91467	1
0.91833	0
0.92200	-0
0.92567	-1
0.92933	-1
0.93300	-2
0.93667	-3
0.94033	-3
0.94400	-3
0.94767	-4
0.95133	-4
0.95500	-4
0.95867	-4
0.96233	-4
0.96600	-4
0.96967	-4
0.97333	-4
0.97700	-4
0.98067	-4
0.98433	-4
0.98800	-4
0.99167	-4
0.99533	-4
0.99900	-4
1.00267	-4
1.00633	-4
1.01000	-4
1.01367	-3
1.01733	-3
1.02100	-3
1.02467	-2
1.02833	-2
1.03200	-2
1.03567	-2
1.03933	-2
1.04300	-2
1.04667	-2
1.05033	-1
1.05400	-1
1.05767	-1
1.06133	-1
1.06500	-1
1.06867	-1
1.07233	-1
1.07600	-1
1.07967	-1
1.08333	-1
1.08700	-1
1.09067	-1
1.09433	-1
1.09800	-1
1.10167	-1
1.10533	-1
1.10900	-2
1.11267	-2
1.11633	-2
1.12000	-2
1.12367	-2
1.12733	-3
1.13100	-3
1.13467	-3
1.13833	-3
1.14200	-3
1.14567	-3
1.14933	-2
1.15300	-2
1.15667	-2
1.16033	-2
1.16400	-1
1.16767	-1
1.17133	-1
1.17500	-1
1.17867	-1
1.18233	-1
1.18600	-1
1.18967	-1
1.19333	-1
1.19700	-1
1.20067	-1
1.20433	-1
1.20800	-0
1.21167	-0
1.21533	-0
1.21900	-0
1.22267	-0
1.22633	-0
1.23000	0
1.23367	0
1.23733	1
1.24100	1
1.24467	1
1.24833	1
1.25200	1
1.25567	1
1.25933	1
1.26300	1
1.26667	0
1.27033	0
1.27400	-0
1.27767	-0
1.28133	-0
1.28500	-0
1.28867	-0
1.29233	-0
1.29600	0
1.29967	0
1.30333	0
1.30700	0
1.31067	1
1.31433	1
1.31800	1
1.32167	0
1.32533	0
1.32900	0
1.33267	-0
1.33633	-0
1.34000	-0
1.34367	-1
1.34733	-1
1.35100	-1
1.35467	-1
1.35833	-1
1.36200	-1
1.36567	-1
1.36933	-1
1.37300	-1
1.37667	-1
1.38033	-2
1.38400	-2
1.38767	-2
1.39133	-2
1.39500	-2
1.39867	-2
1.40233	-2
1.40600	-2
1.40967	-2
1.41333	-2
1.41700	-1
1.42067	-1
1.42433	-1
1.42800	-0
1.43167	-0
1.43533	-0
1.43900	-0
1.44267	-0
1.44633	-1
1.45000	-1
1.45367	-1
1.45733	-1
1.46100	-1
1.46467	-1
1.46833	-1
1.47200	-1
1.47567	-1
1.47933	-1
1.48300	-1
1.48667	-1
1.49033	-1
1.49400	-1
1.49767	-2
1.50133	-2
1.50500	-2
1.50867	-2
1.51233	-2
1.51600	-2
1.51967	-2
1.52333	-2
1.52700	-2
1.53067	-2
1.53433	-2
1.53800	-2
1.54167	-2
1.54533	-3
1.54900	-3
1.55267	-3
1.55633	-4
1.56000	-4
1.56367	-4
1.56733	-4
1.57100	-4
1.57467	-5
1.57833	-5
1.58200	-5
1.58567	-5
1.58933	-5
1.59300	-6
1.59667	-6
1.60033	-7
1.60400	-8
1.60767	-9
1.61133	-11
1.61500	-13
1.61867	-15
1.62233	-17
1.62600	-20
1.62967	-22
1.63333	-25
1.63700	-29
1.64067	-32
1.64433	-36
1.64800	-40
1.65167	-43
1.65533	-47
1.65900	-51
1.66267	-54
1.66633	-58
1.67000	-63
1.67367	-67
1.67733	-72
1.68100	-77
1.68467	-82
1.68833	-86
1.69200	-91
1.69567	-95
1.69933	-98
1.70300	-100
1.70667	-102
1.71033	-103
1.71400	-104
1.71767	-105
1.72133	-106
1.72500	-107
1.72867	-108
1.73233	-109
1.73600	-110
1.73967	-111
1.74333	-112
1.74700	-113
1.75067	-113
1.75433	-113
1.75800	-113
1.76167	-113
1.76533	-112
1.76900	-112
1.77267	-112
1.77633	-112
1.78000	-113
1.78367	-114
1.78733	-115
1.79100	-116
1.79467	-117
1.79833	-117
1.80200	-118
1.80567	-118
1.80933	-118
1.81300	-118
1.81667	-118
1.82033	-118
1.82400	-117
1.82767	-117
1.83133	-117
1.83500	-117
1.83867	-118
1.84233	-118
1.84600	-118
1.84967	-118
1.85333	-118
1.85700	-118
1.86067	-118
1.86433	-117
1.86800	-116
1.87167	-116
1.87533	-115
1.87900	-115
1.88267	-115
1.88633	-115
1.89000	-115
1.89367	-115
1.89733	-115
1.90100	-114
1.90467	-114
1.90833	-114
1.91200	-113
1.91567	-114
1.91933	-114
1.92300	-114
1.92667	-115
1.93033	-115
1.93400	-116
1.93767	-116
1.94133	-116
1.94500	-116
1.94867	-116
1.95233	-116
1.95600	-116
1.95967	-116
1.96333	-115
1.96700	-115
1.97067	-114
1.97433	-113
1.97800	-112
1.98167	-112
1.98533	-111
1.98900	-111
1.99267	-111
1.99633	-111
2.00000	-111
2.00367	-111
2.00733	-111
2.01100	-111
2.01467	-110
2.01833	-110
2.02200	-109
2.02567	-108
2.02933	-107
2.03300	-107
2.03667	-106
2.04033	-106
2.04400	-106
2.04767	-105
2.05133	-105
2.05500	-105
2.05867	-105
2.06233	-105
2.06600	-105
2.06967	-104
2.07333	-104
2.07700	-104
2.08067	-104
2.08433	-104
2.08800	-104
2.09167	-104
2.09533	-104
2.09900	-104
2.10267	-103
2.10633	-102
2.11000	-101
2.11367	-101
2.11733	-101
2.12100	-100
2.12467	-100
2.12833	-100
2.13200	-100
2.13567	-100
2.13933	-99
2.14300	-99
2.14667	-99
2.15033	-99
2.15400	-98
2.15767	-97
2.16133	-96
2.16500	-95
2.16867	-94
2.17233	-93
2.17600	-93
2.17967	-92
2.18333	-92
2.18700	-91
2.19067	-91
2.19433	-91
2.19800	-91
2.20167	-91
2.20533	-91
2.20900	-91
2.21267	-92
2.21633	-92
2.22000	-92
2.22367	-92
2.22733	-93
2.23100	-93
2.23467	-93
2.23833	-93
2.24200	-93
2.24567	-92
2.24933	-91
2.25300	-90
2.25667	-89
2.26033	-89
2.26400	-88
2.26767	-87
2.27133	-87
2.27500	-87
2.27867	-87
2.28233	-87
2.28600	-87
2.28967	-86
2.29333	-85
2.29700	-84
2.30067	-84
2.30433	-83
2.30800	-83
2.31167	-84
2.31533	-84
2.31900	-85
2.32267	-85
2.32633	-84
2.33000	-84
2.33367	-83
2.33733	-83
2.34100	-82
2.34467	-81
2.34833	-81
2.35200	-80
2.35567	-79
2.35933	-78
2.36300	-77
2.36667	-75
2.37033	-73
2.37400	-70
2.37767	-66
2.38133	-63
2.38500	-59
2.38867	-54
2.39233	-50
2.39600	-46
2.39967	-42
2.40333	-38
2.40700	-34
2.41067	-31
2.41433	-28
2.41800	-26
2.42167	-24
2.42533	-22
2.42900	-20
2.43267	-18
2.43633	-17
2.44000	-15
2.44367	-13
2.44733	-11
2.45100	-10
2.45467	-8
2.45833	-7
2.46200	-5
2.46567	-4
2.46933	-3
2.47300	-1
2.47667	0
2.48033	2
2.48400	3
2.48767	4
2.49133	5
2.49500	6
2.49867	6
2.50233	7
2.50600	7
2.50967	8
2.51333	8
2.51700	9
2.52067	9
2.52433	10
2.52800	10
2.53167	11
2.53533	12
2.53900	12
2.54267	13
2.54633	13
2.55000	14
2.55367	14
2.55733	14
2.56100	14
2.56467	14
2.56833	14
2.57200	15
2.57567	15
2.57933	15
2.58300	16
2.58667	16
2.59033	16
2.59400	16
2.59767	15
2.60133	15
2.60500	15
2.60867	15
2.61233	15
2.61600	15
2.61967	16
2.62333	16
2.62700	17
2.63067	17
2.63433	17
2.63800	17
2.64167	17
2.64533	17
2.64900	17
2.65267	17
2.65633	17
2.66000	17
2.66367	18
2.66733	18
2.67100	18
2.67467	18
2.67833	18
2.68200	19
2.68567	19
2.68933	20
2.69300	21
2.69667	21
2.70033	21
2.70400	22
2.70767	22
2.71133	22
2.71500	22
2.71867	22
2.72233	22
2.72600	23
2.72967	23
2.73333	24
2.73700	24
2.74067	25
2.74433	25
2.74800	25
2.75167	26
2.75533	26
2.75900	26
2.76267	26
2.76633	26
2.77000	26
2.77367	26
2.77733	26
2.78100	25
2.78467	25
2.78833	25
2.79200	25
2.79567	25
2.79933	25
2.80300	25
2.80667	25
2.81033	25
2.81400	25
2.81767	25
2.82133	26
2.82500	26
2.82867	26
2.83233	26
2.83600	25
2.83967	23
2.84333	21
2.84700	16
2.85067	8
2.85433	-2
2.85800	-16
2.86167	-34
2.86533	-55
2.86900	-82
2.87267	-112
2.87633	-146
2.88000	-184
2.88367	-225
2.88733	-269
2.89100	-316
2.89467	-366
2.89833	-417
2.90200	-469
2.90567	-522
2.90933	-576
2.91300	-629
2.91667	-683
2.92033	-736
2.92400	-787
2.92767	-839
2.93133	-892
2.93500	-950
2.93867	-1010
2.94233	-1063
2.94600	-1098
2.94967	-1109
2.95333	-1093
2.95700	-1053
2.96067	-995
2.96433	-924
2.96800	-846
2.97167	-765
2.97533	-685
2.97900	-608
2.98267	-536
2.98633	-468
2.99000	-407
2.99367	-352
2.99733	-304
3.00100	-261
3.00467	-223
3.00833	-190
3.01200	-161
3.01567	-136
3.01933	-114
3.02300	-95
3.02667	-79
3.03033	-66
3.03400	-54
3.03767	-44
3.04133	-35
3.04500	-27
3.04867	-21
3.05233	-16
3.05600	-11
3.05967	-7
3.06333	-4
3.06700	-1
3.07067	1
3.07433	3
3.07800	5
3.08167	6
3.08533	7
3.08900	9
3.09267	9
3.09633	10
3.10000	11
3.10367	12
3.10733	12
3.11100	13
3.11467	13
3.11833	13
3.12200	14
3.12567	14
3.12933	15
3.13300	15
3.13667	16
3.14033	16
3.14400	17
3.14767	17
3.15133	18
3.15500	18
3.15867	18
3.16233	18
3.16600	18
3.16967	18
3.17333	19
3.17700	19
3.18067	19
3.18433	20
3.18800	20
3.19167	20
3.19533	21
3.19900	21
3.20267	21
3.20633	21
3.21000	22
3.21367	22
3.21733	22
3.22100	22
3.22467	22
3.22833	22
3.23200	22
3.23567	22
3.23933	22
3.24300	22
3.24667	22
3.25033	22
3.25400	21
3.25767	21
3.26133	21
3.26500	21
3.26867	21
3.27233	21
3.27600	20
3.27967	20
3.28333	20
3.28700	20
3.29067	20
3.29433	20
3.29800	20
3.30167	21
3.30533	21
3.30900	21
3.31267	22
3.31633	22
3.32000	23
3.32367	24
3.32733	24
3.33100	25
3.33467	25
3.33833	26
3.34200	26
3.34567	27
3.34933	27
3.35300	27
3.35667	27
3.36033	27
3.36400	28
3.36767	28
3.37133	28
3.37500	28
3.37867	28
3.38233	28
3.38600	28
3.38967	28
3.39333	28
3.39700	29
3.40067	29
3.40433	29
3.40800	29
3.41167	29
3.41533	29
3.41900	29
3.42267	29
3.42633	29
3.43000	29
3.43367	28
3.43733	28
3.44100	28
3.44467	28
3.44833	28
3.45200	28
3.45567	28
3.45933	28
3.46300	28
3.46667	28
3.47033	28
3.47400	27
3.47767	27
3.48133	27
3.48500	27
3.48867	26
3.49233	26
3.49600	26
3.49967	26
3.50333	26
3.50700	26
3.51067	27
3.51433	27
3.51800	27
3.52167	27
3.52533	27
3.52900	27
3.53267	28
3.53633	28
3.54000	27
3.54367	27
3.54733	27
3.55100	27
3.55467	27
3.55833	27
3.56200	26
3.56567	26
3.56933	26
3.57300	26
3.57667	26
3.58033	27
3.58400	27
3.58767	26
3.59133	26
3.59500	26
3.59867	26
3.60233	26
3.60600	26
3.60967	26
3.61333	26
3.61700	26
3.62067	26
3.62433	26
3.62800	26
3.63167	26
3.63533	26
3.63900	27
3.64267	27
3.64633	27
3.65000	27
3.65367	27
3.65733	27
3.66100	27
3.66467	27
3.66833	27
3.67200	26
3.67567	26
3.67933	26
3.68300	26
3.68667	25
3.69033	25
3.69400	24
3.69767	24
3.70133	24
3.70500	24
3.70867	24
3.71233	24
3.71600	23
3.71967	23
3.72333	23
3.72700	23
3.73067	23
3.73433	23
3.73800	23
3.74167	23
3.74533	23
3.74900	23
3.75267	24
3.75633	24
3.76000	24
3.76367	24
3.76733	24
3.77100	24
3.77467	25
3.77833	25
3.78200	25
3.78567	25
3.78933	25
3.79300	26
3.79667	26
3.80033	26
3.80400	26
3.80767	27
3.81133	27
3.81500	27
3.81867	27
3.82233	27
3.82600	27
3.82967	27
3.83333	27
3.83700	27
3.84067	27
3.84433	27
3.84800	27
3.85167	27
3.85533	27
3.85900	26
3.86267	26
3.86633	26
3.87000	26
3.87367	26
3.87733	26
3.88100	26
3.88467	26
3.88833	26
3.89200	26
3.89567	26
3.89933	26
3.90300	26
3.90667	26
3.91033	26
3.91400	26
3.91767	27
3.92133	27
3.92500	27
3.92867	27
3.93233	27
3.93600	27
3.93967	26
3.94333	26
3.94700	26
3.95067	26
3.95433	26
3.95800	26
3.96167	26
3.96533	26
3.96900	26
3.97267	26
3.97633	25
3.98000	25
3.98367	25
3.98733	25
3.99100	25
3.99467	25
3.99833	25

[Chromatogram (Ch3)]
Interval(msec)	220
# of Points	1091
Start Time(min)	0.002
End Time(min)	3.998
R.Time (min)	Intensity
0.00167	-1
0.00533	-2
0.00900	-1
0.01267	-2
0.01633	-3
0.02000	-5
0.02367	-3
0.02733	-3
0.03100	-3
0.03467	-2
0.03833	-1
0.04200	-2
0.04567	-1
0.04933	-1
0.05300	-1
0.05667	-0
0.06033	2
0.06400	4
0.06767	2
0.07133	1
0.07500	-0
0.07867	-1
0.08233	-1
0.08600	-3
0.08967	-5
0.09333	-5
0.09700	-3
0.10067	-2
0.10433	-1
0.10800	-2
0.11167	-4
0.11533	-4
0.11900	-3
0.12267	-4
0.12633	-4
0.13000	-5
0.13367	-6
0.13733	-4
0.14100	-2
0.14467	-1
0.14833	1
0.15200	0
0.15567	-1
0.15933	-4
0.16300	-6
0.16667	-9
0.17033	-9
0.17400	-9
0.17767	-8
0.18133	-7
0.18500	-7
0.18867	-8
0.19233	-6
0.19600	-7
0.19967	-5
0.20333	-5
0.20700	-6
0.21067	-5
0.21433	-5
0.21800	-5
0.22167	-6
0.22533	-6
0.22900	-4
0.23267	-2
0.23633	-3
0.24000	-2
0.24367	-1
0.24733	-0
0.25100	1
0.25467	3
0.25833	2
0.26200	-2
0.26567	-5
0.26933	-7
0.27300	-7
0.27667	-7
0.28033	-6
0.28400	-7
0.28767	-6
0.29133	-3
0.29500	-2
0.29867	-3
0.30233	-2
0.30600	-2
0.30967	-3
0.31333	-3
0.31700	-3
0.32067	-7
0.32433	-7
0.32800	-5
0.33167	-3
0.33533	-1
0.33900	3
0.34267	3
0.34633	2
0.35000	-2
0.35367	-2
0.35733	-3
0.36100	-2
0.36467	-2
0.36833	-2
0.37200	-2
0.37567	-1
0.37933	-1
0.38300	-1
0.38667	-3
0.39033	-4
0.39400	-5
0.39767	-7
0.40133	-7
0.40500	-7
0.40867	-9
0.41233	-8
0.41600	-8
0.41967	-7
0.42333	-5
0.42700	-2
0.43067	-2
0.43433	-1
0.43800	-0
0.44167	0
0.44533	1
0.44900	0
0.45267	0
0.45633	-0
0.46000	-2
0.46367	-1
0.46733	1
0.47100	0
0.47467	1
0.47833	1
0.48200	-0
0.48567	-1
0.48933	-0
0.49300	1
0.49667	1
0.50033	1
0.50400	1
0.50767	-0
0.51133	-1
0.51500	-1
0.51867	-0
0.52233	0
0.52600	1
0.52967	0
0.53333	2
0.53700	4
0.54067	4
0.54433	2
0.54800	2
0.55167	1
0.55533	-1
0.55900	-1
0.56267	-0
0.56633	2
0.57000	6
0.57367	9
0.57733	10
0.58100	9
0.58467	9
0.58833	10
0.59200	9
0.59567	8
0.59933	7
0.60300	5
0.60667	3
0.61033	-0
0.61400	-1
0.61767	1
0.62133	4
0.62500	5
0.62867	5
0.63233	5
0.63600	4
0.63967	4
0.64333	5
0.64700	5
0.65067	4
0.65433	5
0.65800	5
0.66167	8
0.66533	10
0.66900	11
0.67267	11
0.67633	11
0.68000	11
0.68367	11
0.68733	9
0.69100	9
0.69467	6
0.69833	3
0.70200	3
0.70567	3
0.70933	4
0.71300	4
0.71667	4
0.72033	4
0.72400	3
0.72767	5
0.73133	7
0.73500	9
0.73867	11
0.74233	13
0.74600	12
0.74967	12
0.75333	14
0.75700	14
0.76067	11
0.76433	10
0.76800	10
0.77167	11
0.77533	11
0.77900	11
0.78267	13
0.78633	14
0.79000	14
0.79367	12
0.79733	13
0.80100	13
0.80467	13
0.80833	12
0.81200	12
0.81567	11
0.81933	8
0.82300	7
0.82667	7
0.83033	6
0.83400	6
0.83767	6
0.84133	8
0.84500	8
0.84867	10
0.85233	11
0.85600	11
0.85967	11
0.86333	11
0.86700	12
0.87067	13
0.87433	14
0.87800	14
0.88167	14
0.88533	15
0.88900	15
0.89267	15
0.89633	15
0.90000	13
0.90367	13
0.90733	13
0.91100	14
0.91467	16
0.91833	16
0.92200	14
0.92567	15
0.92933	17
0.93300	17
0.93667	18
0.94033	17
0.94400	16
0.94767	15
0.95133	14
0.95500	16
0.95867	17
0.96233	18
0.96600	19
0.96967	20
0.97333	20
0.97700	18
0.98067	18
0.98433	19
0.98800	22
0.99167	24
0.99533	24
0.99900	21
1.00267	19
1.00633	19
1.01000	21
1.01367	22
1.01733	22
1.02100	24
1.02467	24
1.02833	23
1.03200	23
1.03567	23
1.03933	24
1.04300	23
1.04667	24
1.05033	24
1.05400	22
1.05767	23
1.06133	25
1.06500	25
1.06867	24
1.07233	24
1.07600	24
1.07967	25
1.08333	25
1.08700	23
1.09067	22
1.09433	22
1.09800	21
1.10167	21
1.10533	23
1.10900	24
1.11267	22
1.11633	23
1.12000	24
1.12367	24
1.12733	24
1.13100	24
1.13467	24
1.13833	25
1.14200	24
1.14567	24
1.14933	26
1.15300	29
1.15667	28
1.16033	30
1.16400	29
1.16767	26
1.17133	27
1.17500	28
1.17867	28
1.18233	29
1.18600	31
1.18967	32
1.19333	31
1.19700	32
1.20067	32
1.20433	29
1.20800	26
1.21167	24
1.21533	25
1.21900	28
1.22267	29
1.22633	28
1.23000	28
1.23367	28
1.23733	28
1.24100	29
1.24467	30
1.24833	31
1.25200	32
1.25567	32
1.25933	32
1.26300	32
1.26667	31
1.27033	30
1.27400	28
1.27767	28
1.28133	29
1.28500	32
1.28867	34
1.29233	34
1.29600	34
1.29967	34
1.30333	32
1.30700	31
1.31067	31
1.31433	30
1.31800	31
1.32167	34
1.32533	36
1.32900	37
1.33267	37
1.33633	37
1.34000	37
1.34367	36
1.34733	36
1.35100	36
1.35467	36
1.35833	37
1.36200	35
1.36567	35
1.36933	36
1.37300	35
1.37667	37
1.38033	37
1.38400	37
1.38767	37
1.39133	40
1.39500	41
1.39867	40
1.40233	41
1.40600	40
1.40967	38
1.41333	37
1.41700	38
1.42067	39
1.42433	39
1.42800	38
1.43167	38
1.43533	39
1.43900	39
1.44267	41
1.44633	41
1.45000	41
1.45367	42
1.45733	42
1.46100	42
1.46467	41
1.46833	42
1.47200	42
1.47567	44
1.47933	45
1.48300	45
1.48667	45
1.49033	44
1.49400	44
1.49767	41
1.50133	38
1.50500	40
1.50867	41
1.51233	42
1.51600	43
1.51967	42
1.52333	40
1.52700	40
1.53067	41
1.53433	43
1.53800	44
1.54167	46
1.54533	46
1.54900	44
1.55267	44
1.55633	45
1.56000	44
1.56367	44
1.56733	43
1.57100	43
1.57467	43
1.57833	43
1.58200	45
1.58567	44
1.58933	45
1.59300	44
1.59667	45
1.60033	46
1.60400	49
1.60767	49
1.61133	49
1.61500	49
1.61867	51
1.62233	53
1.62600	55
1.62967	55
1.63333	52
1.63700	50
1.64067	50
1.64433	51
1.64800	52
1.65167	51
1.65533	52
1.65900	55
1.66267	57
1.66633	59
1.67000	59
1.67367	59
1.67733	61
1.68100	60
1.68467	59
1.68833	59
1.69200	57
1.69567	57
1.69933	60
1.70300	63
1.70667	63
1.71033	64
1.71400	64
1.71767	63
1.72133	61
1.72500	60
1.72867	60
1.73233	64
1.73600	67
1.73967	70
1.74333	69
1.74700	67
1.75067	67
1.75433	66
1.75800	67
1.76167	68
1.76533	67
1.76900	65
1.77267	64
1.77633	64
1.78000	66
1.78367	69
1.78733	70
1.79100	70
1.79467	70
1.79833	70
1.80200	69
1.80567	70
1.80933	72
1.81300	73
1.81667	73
1.82033	73
1.82400	72
1.82767	75
1.83133	77
1.83500	77
1.83867	75
1.84233	74
1.84600	77
1.84967	78
1.85333	77
1.85700	77
1.86067	77
1.86433	80
1.86800	80
1.87167	80
1.87533	84
1.87900	86
1.88267	85
1.88633	83
1.89000	83
1.89367	83
1.89733	85
1.90100	88
1.90467	90
1.90833	92
1.91200	91
1.91567	92
1.91933	94
1.92300	95
1.92667	96
1.93033	94
1.93400	92
1.93767	94
1.94133	95
1.94500	94
1.94867	94
1.95233	96
1.95600	96
1.95967	97
1.96333	98
1.96700	100
1.97067	103
1.97433	106
1.97800	107
1.98167	106
1.98533	103
1.98900	100
1.99267	99
1.99633	101
2.00000	104
2.00367	107
2.00733	108
2.01100	110
2.01467	112
2.01833	114
2.02200	113
2.02567	111
2.02933	109
2.03300	108
2.03667	110
2.04033	113
2.04400	117
2.04767	120
2.05133	120
2.05500	119
2.05867	118
2.06233	119
2.06600	120
2.06967	119
2.07333	119
2.07700	119
2.08067	122
2.08433	126
2.08800	128
2.09167	129
2.09533	130
2.09900	130
2.10267	132
2.10633	135
2.11000	138
2.11367	139
2.11733	140
2.12100	141
2.12467	142
2.12833	143
2.13200	142
2.13567	141
2.13933	142
2.14300	143
2.14667	147
2.15033	148
2.15400	148
2.15767	148
2.16133	150
2.16500	152
2.16867	152
2.17233	153
2.17600	153
2.17967	152
2.18333	152
2.18700	153
2.19067	153
2.19433	154
2.19800	154
2.20167	156
2.20533	158
2.20900	160
2.21267	163
2.21633	166
2.22000	168
2.22367	170
2.22733	169
2.23100	167
2.23467	168
2.23833	168
2.24200	170
2.24567	171
2.24933	173
2.25300	175
2.25667	177
2.26033	178
2.26400	180
2.26767	181
2.27133	182
2.27500	181
2.27867	182
2.28233	180
2.28600	182
2.28967	186
2.29333	192
2.29700	196
2.30067	195
2.30433	195
2.30800	195
2.31167	195
2.31533	196
2.31900	194
2.32267	196
2.32633	200
2.33000	203
2.33367	205
2.33733	207
2.34100	209
2.34467	210
2.34833	209
2.35200	209
2.35567	209
2.35933	211
2.36300	214
2.36667	217
2.37033	220
2.37400	221
2.37767	222
2.38133	223
2.38500	224
2.38867	224
2.39233	226
2.39600	231
2.39967	237
2.40333	239
2.40700	240
2.41067	242
2.41433	244
2.41800	246
2.42167	251
2.42533	253
2.42900	254
2.43267	253
2.43633	252
2.44000	253
2.44367	278
2.44733	347
2.45100	423
2.45467	480
2.45833	518
2.46200	522
2.46567	502
2.46933	476
2.47300	451
2.47667	431
2.48033	419
2.48400	411
2.48767	399
2.49133	381
2.49500	361
2.49867	341
2.50233	322
2.50600	309
2.50967	298
2.51333	290
2.51700	287
2.52067	285
2.52433	285
2.52800	288
2.53167	293
2.53533	300
2.53900	308
2.54267	315
2.54633	319
2.55000	319
2.55367	319
2.55733	316
2.56100	310
2.56467	303
2.56833	293
2.57200	283
2.57567	273
2.57933	265
2.58300	258
2.58667	253
2.59033	249
2.59400	246
2.59767	241
2.60133	231
2.60500	218
2.60867	200
2.61233	180
2.61600	159
2.61967	139
2.62333	121
2.62700	105
2.63067	94
2.63433	88
2.63800	84
2.64167	84
2.64533	85
2.64900	89
2.65267	95
2.65633	102
2.66000	109
2.66367	118
2.66733	126
2.67100	138
2.67467	151
2.67833	160
2.68200	168
2.68567	173
2.68933	178
2.69300	183
2.69667	185
2.70033	187
2.70400	188
2.70767	189
2.71133	191
2.71500	193
2.71867	193
2.72233	194
2.72600	192
2.72967	190
2.73333	188
2.73700	186
2.74067	184
2.74433	184
2.74800	185
2.75167	186
2.75533	187
2.75900	189
2.76267	188
2.76633	186
2.77000	185
2.77367	185
2.77733	185
2.78100	185
2.78467	183
2.78833	181
2.79200	182
2.79567	184
2.79933	184
2.80300	184
2.80667	186
2.81033	190
2.81400	192
2.81767	198
2.82133	218
2.82500	260
2.82867	343
2.83233	489
2.83600	715
2.83967	1037
2.84333	1459
2.84700	1965
2.85067	2527
2.85433	3104
2.85800	3648
2.86167	4115
2.86533	4469
2.86900	4686
2.87267	4765
2.87633	4714
2.88000	4551
2.88367	4306
2.88733	4008
2.89100	3679
2.89467	3339
2.89833	3006
2.90200	2689
2.90567	2394
2.90933	2122
2.91300	1875
2.91667	1656
2.92033	1463
2.92400	1293
2.92767	1144
2.93133	1015
2.93500	902
2.93867	806
2.94233	720
2.94600	646
2.94967	584
2.95333	531
2.95700	484
2.96067	443
2.96433	408
2.96800	377
2.97167	351
2.97533	330
2.97900	312
2.98267	296
2.98633	283
2.99000	273
2.99367	263
2.99733	254
3.00100	247
3.00467	240
3.00833	235
3.01200	228
3.01567	223
3.01933	219
3.02300	213
3.02667	206
3.03033	200
3.03400	197
3.03767	194
3.04133	194
3.04500	192
3.04867	189
3.05233	187
3.05600	185
3.05967	184
3.06333	182
3.06700	180
3.07067	178
3.07433	176
3.07800	171
3.08167	159
3.08533	137
3.08900	119
3.09267	116
3.09633	120
3.10000	124
3.10367	130
3.10733	142
3.11100	162
3.11467	193
3.11833	233
3.12200	276
3.12567	319
3.12933	359
3.13300	398
3.13667	434
3.14033	467
3.14400	497
3.14767	523
3.15133	546
3.15500	564
3.15867	580
3.16233	594
3.16600	607
3.16967	619
3.17333	628
3.17700	637
3.18067	647
3.18433	657
3.18800	668
3.19167	677
3.19533	683
3.19900	689
3.20267	693
3.20633	699
3.21000	705
3.21367	712
3.21733	717
3.22100	720
3.22467	723
3.22833	724
3.23200	724
3.23567	723
3.23933	720
3.24300	717
3.24667	714
3.25033	710
3.25400	707
3.25767	708
3.26133	707
3.26500	704
3.26867	698
3.27233	692
3.27600	686
3.27967	680
3.28333	674
3.28700	667
3.29067	659
3.29433	654
3.29800	649
3.30167	644
3.30533	640
3.30900	635
3.31267	629
3.31633	623
3.32000	616
3.32367	612
3.32733	605
3.33100	598
3.33467	591
3.33833	586
3.34200	581
3.34567	576
3.34933	573
3.35300	571
3.35667	569
3.36033	569
3.36400	565
3.36767	563
3.37133	561
3.37500	561
3.37867	561
3.38233	561
3.38600	557
3.38967	554
3.39333	552
3.39700	552
3.40067	554
3.40433	554
3.40800	554
3.41167	554
3.41533	554
3.41900	554
3.42267	555
3.42633	554
3.43000	552
3.43367	548
3.43733	547
3.44100	544
3.44467	543
3.44833	539
3.45200	538
3.45567	538
3.45933	539
3.46300	539
3.46667	539
3.47033	539
3.47400	538
3.47767	538
3.48133	537
3.48500	534
3.48867	532
3.49233	529
3.49600	526
3.49967	525
3.50333	523
3.50700	522
3.51067	520
3.51433	516
3.51800	510
3.52167	508
3.52533	507
3.52900	505
3.53267	502
3.53633	501
3.54000	498
3.54367	494
3.54733	490
3.55100	487
3.55467	484
3.55833	482
3.56200	480
3.56567	478
3.56933	477
3.57300	475
3.57667	474
3.58033	471
3.58400	469
3.58767	467
3.59133	463
3.59500	462
3.59867	461
3.60233	461
3.60600	461
3.60967	461
3.61333	461
3.61700	458
3.62067	456
3.62433	454
3.62800	451
3.63167	448
3.63533	447
3.63900	448
3.64267	448
3.64633	447
3.65000	446
3.65367	443
3.65733	440
3.66100	439
3.66467	437
3.66833	436
3.67200	436
3.67567	437
3.67933	437
3.68300	434
3.68667	430
3.69033	427
3.69400	425
3.69767	426
3.70133	425
3.70500	424
3.70867	426
3.71233	427
3.71600	427
3.71967	426
3.72333	425
3.72700	423
3.73067	421
3.73433	419
3.73800	416
3.74167	416
3.74533	415
3.74900	415
3.75267	416
3.75633	415
3.76000	415
3.76367	414
3.76733	412
3.77100	413
3.77467	412
3.77833	411
3.78200	409
3.78567	409
3.78933	406
3.79300	403
3.79667	402
3.80033	402
3.80400	400
3.80767	400
3.81133	401
3.81500	402
3.81867	400
3.82233	399
3.82600	400
3.82967	398
3.83333	398
3.83700	402
3.84067	402
3.84433	401
3.84800	400
3.85167	400
3.85533	401
3.85900	401
3.86267	398
3.86633	397
3.87000	396
3.87367	392
3.87733	390
3.88100	390
3.88467	392
3.88833	395
3.89200	396
3.89567	396
3.89933	393
3.90300	390
3.90667	388
3.91033	389
3.91400	389
3.91767	386
3.92133	385
3.92500	386
3.92867	388
3.93233	388
3.93600	388
3.93967	388
3.94333	388
3.94700	385
3.95067	381
3.95433	380
3.95800	379
3.96167	378
3.96533	377
3.96900	377
3.97267	379
3.97633	380
3.98000	379
3.98367	376
3.98733	374
3.99100	374
3.99467	373
3.99833	372

[Status Trace (Column Oven Temperature)]
Interval(msec)	1000
# of Points	240
Start Time(min)	0.002
End Time(min)	3.986
Intensity Units	
Intensity Multiplier	1
R.Time (min)	Intensity
0.00228	35.07
0.01895	35.09
0.03562	35.09
0.05228	35.09
0.06895	35.08
0.08562	35.08
0.10228	35.06
0.11895	35.06
0.13562	35.05
0.15228	35.04
0.16895	35.03
0.18562	35.04
0.20228	35.05
0.21895	35.06
0.23562	35.08
0.25228	35.08
0.26895	35.08
0.28562	35.08
0.30228	35.10
0.31895	35.09
0.33562	35.07
0.35228	35.07
0.36895	35.05
0.38562	35.02
0.40228	35.02
0.41895	35.02
0.43562	35.02
0.45228	35.03
0.46895	35.04
0.48562	35.04
0.50228	35.04
0.51895	35.02
0.53562	35.03
0.55228	35.03
0.56895	35.02
0.58562	35.02
0.60228	35.02
0.61895	35.01
0.63562	35.00
0.65228	34.99
0.66895	34.98
0.68562	34.98
0.70228	34.99
0.71895	35.00
0.73562	35.00
0.75228	34.99
0.76895	35.00
0.78562	35.01
0.80228	35.01
0.81895	35.01
0.83562	35.00
0.85228	34.99
0.86895	34.97
0.88562	34.96
0.90228	34.96
0.91895	34.97
0.93562	34.98
0.95228	35.00
0.96895	35.01
0.98562	35.02
1.00228	35.03
1.01895	35.02
1.03562	35.01
1.05228	35.02
1.06895	35.01
1.08562	35.01
1.10228	35.02
1.11895	35.03
1.13562	35.04
1.15228	35.04
1.16895	35.03
1.18562	35.03
1.20228	35.02
1.21895	35.02
1.23562	35.01
1.25228	34.99
1.26895	34.99
1.28562	34.99
1.30228	34.98
1.31895	34.98
1.33562	34.98
1.35228	34.99
1.36895	34.99
1.38562	34.99
1.40228	34.99
1.41895	34.98
1.43562	34.98
1.45228	34.97
1.46895	34.97
1.48562	34.96
1.50228	34.95
1.51895	34.97
1.53562	34.97
1.55228	34.99
1.56895	35.01
1.58562	35.01
1.60228	35.06
1.61895	35.17
1.63562	35.33
1.65228	35.55
1.66895	35.84
1.68562	36.21
1.70228	36.55
1.71895	36.89
1.73562	37.24
1.75228	37.57
1.76895	37.88
1.78562	38.22
1.80228	38.57
1.81895	38.88
1.83562	39.23
1.85228	39.57
1.86895	39.89
1.88562	40.21
1.90228	40.52
1.91895	40.84
1.93562	41.17
1.95228	41.52
1.96895	41.84
1.98562	42.17
2.00228	42.50
2.01895	42.83
2.03562	43.13
2.05228	43.46
2.06895	43.78
2.08562	44.11
2.10228	44.43
2.11895	44.76
2.13562	45.09
2.15228	45.42
2.16895	45.74
2.18562	46.06
2.20228	46.39
2.21895	46.72
2.23562	47.07
2.25228	47.39
2.26895	47.72
2.28562	48.05
2.30228	48.38
2.31895	48.73
2.33562	49.06
2.35228	49.36
2.36895	49.57
2.38562	49.64
2.40228	49.63
2.41895	49.63
2.43562	49.65
2.45228	49.66
2.46895	49.67
2.48562	49.68
2.50228	49.69
2.51895	49.71
2.53562	49.72
2.55228	49.74
2.56895	49.75
2.58562	49.75
2.60228	49.79
2.61895	49.79
2.63562	49.81
2.65228	49.82
2.66895	49.85
2.68562	49.84
2.70228	49.86
2.71895	49.86
2.73562	49.85
2.75228	49.85
2.76895	49.87
2.78562	49.86
2.80228	49.86
2.81895	49.86
2.83562	49.87
2.85228	49.88
2.86895	49.89
2.88562	49.91
2.90228	49.91
2.91895	49.93
2.93562	49.95
2.95228	49.96
2.96895	49.97
2.98562	49.97
3.00228	49.99
3.01895	49.99
3.03562	49.98
3.05228	49.99
3.06895	49.99
3.08562	50.00
3.10228	50.01
3.11895	50.02
3.13562	50.03
3.15228	50.03
3.16895	50.03
3.18562	50.02
3.20228	50.03
3.21895	50.04
3.23562	50.05
3.25228	50.07
3.26895	50.09
3.28562	50.11
3.30228	50.12
3.31895	50.10
3.33562	50.09
3.35228	50.07
3.36895	50.06
3.38562	50.06
3.40228	50.04
3.41895	50.03
3.43562	50.03
3.45228	50.02
3.46895	50.03
3.48562	50.03
3.50228	50.02
3.51895	50.01
3.53562	50.01
3.55228	50.01
3.56895	50.01
3.58562	50.01
3.60228	50.02
3.61895	50.01
3.63562	50.01
3.65228	50.00
3.66895	50.02
3.68562	50.04
3.70228	50.06
3.71895	50.07
3.73562	50.09
3.75228	50.09
3.76895	50.10
3.78562	50.10
3.80228	50.08
3.81895	50.07
3.83562	50.07
3.85228	50.07
3.86895	50.07
3.88562	50.07
3.90228	50.08
3.91895	50.07
3.93562	50.07
3.95228	50.06
3.96895	50.06
3.98562	50.07

[Status Trace (Injection Unit Temperature)]
Interval(msec)	1000
# of Points	240
Start Time(min)	0.002
End Time(min)	3.986
Intensity Units	
Intensity Multiplier	1
R.Time (min)	Intensity
0.00228	99.98
0.01895	99.98
0.03562	99.98
0.05228	99.98
0.06895	99.98
0.08562	99.98
0.10228	99.98
0.11895	99.98
0.13562	99.98
0.15228	99.98
0.16895	99.98
0.18562	99.98
0.20228	99.98
0.21895	99.98
0.23562	99.99
0.25228	99.98
0.26895	99.99
0.28562	99.98
0.30228	99.98
0.31895	99.98
0.33562	99.98
0.35228	99.99
0.36895	99.98
0.38562	99.98
0.40228	99.99
0.41895	99.99
0.43562	99.99
0.45228	99.98
0.46895	99.99
0.48562	99.98
0.50228	99.99
0.51895	99.99
0.53562	99.99
0.55228	99.99
0.56895	99.99
0.58562	99.98
0.60228	99.99
0.61895	99.99
0.63562	99.99
0.65228	99.98
0.66895	99.99
0.68562	99.99
0.70228	99.98
0.71895	99.99
0.73562	99.99
0.75228	99.98
0.76895	99.98
0.78562	99.98
0.80228	99.98
0.81895	99.98
0.83562	99.98
0.85228	99.98
0.86895	99.99
0.88562	99.98
0.90228	99.98
0.91895	99.99
0.93562	99.99
0.95228	99.98
0.96895	99.98
0.98562	99.99
1.00228	99.98
1.01895	99.98
1.03562	99.99
1.05228	99.99
1.06895	99.98
1.08562	99.98
1.10228	99.98
1.11895	99.98
1.13562	99.98
1.15228	99.98
1.16895	99.98
1.18562	99.98
1.20228	99.98
1.21895	99.99
1.23562	99.98
1.25228	99.98
1.26895	99.99
1.28562	99.98
1.30228	99.98
1.31895	99.98
1.33562	99.99
1.35228	99.99
1.36895	99.98
1.38562	99.98
1.40228	99.99
1.41895	99.98
1.43562	99.99
1.45228	99.98
1.46895	99.98
1.48562	99.98
1.50228	99.98
1.51895	99.99
1.53562	99.99
1.55228	99.99
1.56895	99.99
1.58562	99.99
1.60228	99.98
1.61895	99.99
1.63562	99.99
1.65228	99.99
1.66895	99.99
1.68562	99.99
1.70228	99.99
1.71895	99.99
1.73562	99.99
1.75228	99.99
1.76895	99.99
1.78562	99.99
1.80228	99.99
1.81895	99.99
1.83562	99.98
1.85228	99.98
1.86895	99.98
1.88562	99.98
1.90228	99.98
1.91895	99.98
1.93562	99.98
1.95228	99.98
1.96895	99.98
1.98562	99.98
2.00228	99.98
2.01895	99.98
2.03562	99.98
2.05228	99.97
2.06895	99.97
2.08562	99.97
2.10228	99.97
2.11895	99.97
2.13562	99.97
2.15228	99.97
2.16895	99.97
2.18562	99.97
2.20228	99.97
2.21895	99.97
2.23562	99.97
2.25228	99.96
2.26895	99.95
2.28562	99.97
2.30228	99.96
2.31895	99.97
2.33562	99.96
2.35228	99.96
2.36895	99.97
2.38562	99.96
2.40228	99.96
2.41895	99.97
2.43562	99.96
2.45228	99.96
2.46895	99.97
2.48562	99.97
2.50228	99.97
2.51895	99.97
2.53562	99.97
2.55228	99.96
2.56895	99.97
2.58562	99.97
2.60228	99.97
2.61895	99.97
2.63562	99.97
2.65228	99.97
2.66895	99.97
2.68562	99.98
2.70228	99.98
2.71895	99.98
2.73562	99.98
2.75228	99.98
2.76895	99.98
2.78562	99.97
2.80228	99.98
2.81895	99.98
2.83562	99.98
2.85228	99.99
2.86895	99.99
2.88562	99.99
2.90228	99.99
2.91895	99.99
2.93562	100.00
2.95228	100.00
2.96895	100.00
2.98562	100.00
3.00228	99.99
3.01895	100.00
3.03562	100.00
3.05228	100.00
3.06895	100.01
3.08562	100.01
3.10228	100.01
3.11895	100.01
3.13562	100.01
3.15228	100.01
3.16895	100.01
3.18562	100.01
3.20228	100.01
3.21895	100.01
3.23562	100.02
3.25228	100.02
3.26895	100.02
3.28562	100.02
3.30228	100.02
3.31895	100.03
3.33562	100.02
3.35228	100.03
3.36895	100.03
3.38562	100.03
3.40228	100.03
3.41895	100.03
3.43562	100.03
3.45228	100.04
3.46895	100.03
3.48562	100.03
3.50228	100.03
3.51895	100.04
3.53562	100.03
3.55228	100.03
3.56895	100.04
3.58562	100.04
3.60228	100.04
3.61895	100.04
3.63562	100.04
3.65228	100.04
3.66895	100.04
3.68562	100.04
3.70228	100.04
3.71895	100.04
3.73562	100.04
3.75228	100.04
3.76895	100.05
3.78562	100.05
3.80228	100.05
3.81895	100.05
3.83562	100.04
3.85228	100.04
3.86895	100.04
3.88562	100.04
3.90228	100.05
3.91895	100.05
3.93562	100.04
3.95228	100.04
3.96895	100.05
3.98562	100.05

[Status Trace (Carrier Gas Pressure)]
Interval(msec)	1000
# of Points	240
Start Time(min)	0.002
End Time(min)	3.986
Intensity Units	
Intensity Multiplier	1
R.Time (min)	Intensity
0.00228	58.00
0.01895	56.23
0.03562	56.28
0.05228	58.58
0.06895	59.83
0.08562	58.30
0.10228	57.97
0.11895	58.01
0.13562	58.01
0.15228	58.01
0.16895	58.00
0.18562	58.00
0.20228	58.00
0.21895	58.00
0.23562	58.00
0.25228	58.00
0.26895	58.00
0.28562	58.00
0.30228	58.00
0.31895	58.00
0.33562	58.00
0.35228	58.00
0.36895	58.00
0.38562	58.00
0.40228	58.00
0.41895	58.00
0.43562	58.00
0.45228	58.00
0.46895	58.00
0.48562	58.00
0.50228	58.00
0.51895	58.00
0.53562	58.00
0.55228	58.00
0.56895	58.00
0.58562	58.00
0.60228	58.00
0.61895	58.00
0.63562	58.00
0.65228	58.00
0.66895	58.00
0.68562	58.00
0.70228	58.00
0.71895	58.00
0.73562	58.00
0.75228	58.00
0.76895	58.00
0.78562	58.00
0.80228	58.00
0.81895	58.00
0.83562	58.00
0.85228	58.00
0.86895	58.00
0.88562	58.00
0.90228	58.00
0.91895	58.00
0.93562	58.00
0.95228	58.00
0.96895	58.00
0.98562	58.00
1.00228	58.00
1.01895	58.00
1.03562	58.00
1.05228	58.00
1.06895	58.00
1.08562	58.00
1.10228	58.00
1.11895	58.00
1.13562	58.00
1.15228	58.00
1.16895	58.00
1.18562	58.00
1.20228	58.00
1.21895	58.00
1.23562	58.00
1.25228	58.00
1.26895	58.00
1.28562	58.00
1.30228	58.00
1.31895	58.00
1.33562	58.00
1.35228	58.00
1.36895	58.00
1.38562	58.00
1.40228	58.00
1.41895	58.00
1.43562	58.00
1.45228	58.00
1.46895	58.00
1.48562	58.00
1.50228	58.00
1.51895	58.00
1.53562	58.00
1.55228	58.00
1.56895	58.00
1.58562	58.00
1.60228	58.00
1.61895	58.00
1.63562	58.00
1.65228	58.00
1.66895	58.01
1.68562	58.01
1.70228	58.00
1.71895	58.00
1.73562	58.00
1.75228	58.00
1.76895	58.00
1.78562	58.00
1.80228	58.00
1.81895	58.00
1.83562	58.00
1.85228	58.00
1.86895	58.00
1.88562	58.00
1.90228	58.00
1.91895	58.00
1.93562	58.00
1.95228	58.00
1.96895	58.00
1.98562	58.00
2.00228	58.00
2.01895	58.00
2.03562	58.00
2.05228	58.00
2.06895	58.00
2.08562	58.00
2.10228	58.00
2.11895	58.00
2.13562	58.00
2.15228	58.00
2.16895	58.00
2.18562	58.00
2.20228	58.00
2.21895	58.00
2.23562	58.00
2.25228	58.00
2.26895	58.00
2.28562	58.00
2.30228	58.00
2.31895	58.00
2.33562	58.00
2.35228	58.00
2.36895	58.00
2.38562	57.99
2.40228	57.99
2.41895	58.00
2.43562	58.00
2.45228	58.00
2.46895	58.00
2.48562	58.00
2.50228	57.98
2.51895	58.02
2.53562	57.99
2.55228	58.00
2.56895	58.00
2.58562	58.00
2.60228	58.00
2.61895	58.00
2.63562	58.00
2.65228	58.00
2.66895	58.00
2.68562	58.00
2.70228	58.00
2.71895	58.00
2.73562	58.00
2.75228	58.00
2.76895	58.00
2.78562	58.00
2.80228	58.00
2.81895	58.00
2.83562	58.00
2.85228	58.00
2.86895	58.00
2.88562	58.00
2.90228	58.00
2.91895	58.00
2.93562	58.00
2.95228	58.00
2.96895	58.00
2.98562	58.00
3.00228	58.00
3.01895	58.00
3.03562	58.00
3.05228	58.00
3.06895	58.00
3.08562	58.00
3.10228	58.00
3.11895	58.00
3.13562	58.00
3.15228	58.00
3.16895	58.00
3.18562	58.00
3.20228	58.00
3.21895	58.00
3.23562	58.00
3.25228	58.00
3.26895	58.00
3.28562	58.00
3.30228	58.00
3.31895	58.00
3.33562	58.00
3.35228	58.00
3.36895	58.00
3.38562	58.00
3.40228	58.00
3.41895	58.00
3.43562	58.00
3.45228	58.00
3.46895	58.00
3.48562	58.00
3.50228	58.00
3.51895	58.00
3.53562	58.00
3.55228	58.00
3.56895	58.00
3.58562	58.00
3.60228	58.00
3.61895	58.00
3.63562	58.00
3.65228	58.00
3.66895	58.00
3.68562	58.00
3.70228	58.00
3.71895	58.00
3.73562	58.00
3.75228	58.00
3.76895	58.00
3.78562	58.00
3.80228	58.00
3.81895	58.00
3.83562	58.00
3.85228	58.00
3.86895	58.00
3.88562	58.00
3.90228	58.00
3.91895	58.00
3.93562	58.00
3.95228	58.00
3.96895	58.00
3.98562	58.00

[Status Trace (Carrier Gas Flow)]
Interval(msec)	1000
# of Points	240
Start Time(min)	0.002
End Time(min)	3.986
Intensity Units	
Intensity Multiplier	1
R.Time (min)	Intensity
0.00228	34.52
0.01895	34.60
0.03562	34.54
0.05228	34.55
0.06895	34.49
0.08562	34.52
0.10228	34.52
0.11895	34.52
0.13562	34.52
0.15228	34.52
0.16895	34.52
0.18562	34.52
0.20228	34.52
0.21895	34.52
0.23562	34.52
0.25228	34.51
0.26895	34.52
0.28562	34.52
0.30228	34.52
0.31895	34.52
0.33562	34.52
0.35228	34.52
0.36895	34.52
0.38562	34.52
0.40228	34.52
0.41895	34.52
0.43562	34.52
0.45228	34.52
0.46895	34.52
0.48562	34.51
0.50228	34.52
0.51895	34.52
0.53562	34.52
0.55228	34.52
0.56895	34.52
0.58562	34.52
0.60228	34.52
0.61895	34.52
0.63562	34.52
0.65228	34.51
0.66895	34.52
0.68562	34.52
0.70228	34.52
0.71895	34.52
0.73562	34.52
0.75228	34.52
0.76895	34.52
0.78562	34.52
0.80228	34.52
0.81895	34.52
0.83562	34.52
0.85228	34.52
0.86895	34.52
0.88562	34.52
0.90228	34.52
0.91895	34.52
0.93562	34.52
0.95228	34.52
0.96895	34.52
0.98562	34.52
1.00228	34.52
1.01895	34.52
1.03562	34.51
1.05228	34.52
1.06895	34.52
1.08562	34.52
1.10228	34.52
1.11895	34.51
1.13562	34.52
1.15228	34.52
1.16895	34.52
1.18562	34.52
1.20228	34.52
1.21895	34.52
1.23562	34.52
1.25228	34.52
1.26895	34.52
1.28562	34.52
1.30228	34.52
1.31895	34.52
1.33562	34.52
1.35228	34.52
1.36895	34.52
1.38562	34.52
1.40228	34.52
1.41895	34.52
1.43562	34.52
1.45228	34.52
1.46895	34.52
1.48562	34.52
1.50228	34.52
1.51895	34.52
1.53562	34.52
1.55228	34.52
1.56895	34.52
1.58562	34.52
1.60228	34.52
1.61895	34.52
1.63562	34.52
1.65228	34.52
1.66895	34.51
1.68562	34.52
1.70228	34.52
1.71895	34.52
1.73562	34.52
1.75228	34.52
1.76895	34.52
1.78562	34.52
1.80228	34.52
1.81895	34.51
1.83562	34.52
1.85228	34.52
1.86895	34.52
1.88562	34.52
1.90228	34.52
1.91895	34.51
1.93562	34.52
1.95228	34.53
1.96895	34.51
1.98562	34.52
2.00228	34.52
2.01895	34.52
2.03562	34.52
2.05228	34.52
2.06895	34.52
2.08562	34.52
2.10228	34.52
2.11895	34.52
2.13562	34.52
2.15228	34.52
2.16895	34.52
2.18562	34.52
2.20228	34.52
2.21895	34.51
2.23562	34.52
2.25228	34.52
2.26895	34.52
2.28562	34.52
2.30228	34.52
2.31895	34.52
2.33562	34.52
2.35228	34.52
2.36895	34.52
2.38562	34.52
2.40228	34.52
2.41895	34.52
2.43562	34.52
2.45228	34.52
2.46895	34.52
2.48562	34.52
2.50228	34.57
2.51895	34.52
2.53562	34.52
2.55228	34.52
2.56895	34.52
2.58562	34.52
2.60228	34.52
2.61895	34.52
2.63562	34.52
2.65228	34.52
2.66895	34.52
2.68562	34.52
2.70228	34.52
2.71895	34.52
2.73562	34.52
2.75228	34.52
2.76895	34.52
2.78562	34.52
2.80228	34.52
2.81895	34.52
2.83562	34.52
2.85228	34.52
2.86895	34.52
2.88562	34.52
2.90228	34.52
2.91895	34.52
2.93562	34.52
2.95228	34.52
2.96895	34.52
2.98562	34.52
3.00228	34.52
3.01895	34.52
3.03562	34.52
3.05228	34.52
3.06895	34.52
3.08562	34.52
3.10228	34.52
3.11895	34.52
3.13562	34.52
3.15228	34.52
3.16895	34.52
3.18562	34.52
3.20228	34.52
3.21895	34.52
3.23562	34.52
3.25228	34.52
3.26895	34.52
3.28562	34.51
3.30228	34.52
3.31895	34.52
3.33562	34.52
3.35228	34.52
3.36895	34.52
3.38562	34.52
3.40228	34.52
3.41895	34.51
3.43562	34.52
3.45228	34.52
3.46895	34.52
3.48562	34.52
3.50228	34.52
3.51895	34.52
3.53562	34.52
3.55228	34.52
3.56895	34.52
3.58562	34.52
3.60228	34.52
3.61895	34.52
3.63562	34.52
3.65228	34.52
3.66895	34.52
3.68562	34.52
3.70228	34.52
3.71895	34.52
3.73562	34.52
3.75228	34.52
3.76895	34.52
3.78562	34.52
3.80228	34.52
3.81895	34.52
3.83562	34.52
3.85228	34.52
3.86895	34.52
3.88562	34.52
3.90228	34.52
3.91895	34.52
3.93562	34.52
3.95228	34.52
3.96895	34.52
3.98562	34.52

[Status Trace (Column Flow)]
Interval(msec)	1000
# of Points	240
Start Time(min)	0.002
End Time(min)	3.986
Intensity Units	
Intensity Multiplier	1
R.Time (min)	Intensity
0.00228	5.57
0.01895	5.36
0.03562	5.37
0.05228	5.64
0.06895	5.79
0.08562	5.61
0.10228	5.57
0.11895	5.57
0.13562	5.57
0.15228	5.57
0.16895	5.57
0.18562	5.57
0.20228	5.57
0.21895	5.57
0.23562	5.57
0.25228	5.57
0.26895	5.57
0.28562	5.57
0.30228	5.57
0.31895	5.57
0.33562	5.57
0.35228	5.57
0.36895	5.57
0.38562	5.57
0.40228	5.57
0.41895	5.57
0.43562	5.57
0.45228	5.57
0.46895	5.57
0.48562	5.57
0.50228	5.57
0.51895	5.57
0.53562	5.57
0.55228	5.57
0.56895	5.57
0.58562	5.57
0.60228	5.57
0.61895	5.57
0.63562	5.57
0.65228	5.57
0.66895	5.58
0.68562	5.58
0.70228	5.57
0.71895	5.57
0.73562	5.57
0.75228	5.57
0.76895	5.57
0.78562	5.57
0.80228	5.57
0.81895	5.57
0.83562	5.57
0.85228	5.57
0.86895	5.58
0.88562	5.58
0.90228	5.58
0.91895	5.58
0.93562	5.57
0.95228	5.57
0.96895	5.57
0.98562	5.57
1.00228	5.57
1.01895	5.57
1.03562	5.57
1.05228	5.57
1.06895	5.57
1.08562	5.57
1.10228	5.57
1.11895	5.57
1.13562	5.57
1.15228	5.57
1.16895	5.57
1.18562	5.57
1.20228	5.57
1.21895	5.57
1.23562	5.57
1.25228	5.57
1.26895	5.57
1.28562	5.57
1.30228	5.57
1.31895	5.57
1.33562	5.58
1.35228	5.57
1.36895	5.57
1.38562	5.57
1.40228	5.57
1.41895	5.58
1.43562	5.57
1.45228	5.58
1.46895	5.58
1.48562	5.58
1.50228	5.58
1.51895	5.58
1.53562	5.58
1.55228	5.57
1.56895	5.57
1.58562	5.57
1.60228	5.57
1.61895	5.57
1.63562	5.56
1.65228	5.56
1.66895	5.55
1.68562	5.54
1.70228	5.53
1.71895	5.51
1.73562	5.50
1.75228	5.49
1.76895	5.48
1.78562	5.47
1.80228	5.46
1.81895	5.45
1.83562	5.44
1.85228	5.43
1.86895	5.42
1.88562	5.41
1.90228	5.40
1.91895	5.39
1.93562	5.38
1.95228	5.37
1.96895	5.36
1.98562	5.35
2.00228	5.34
2.01895	5.33
2.03562	5.33
2.05228	5.31
2.06895	5.31
2.08562	5.30
2.10228	5.29
2.11895	5.28
2.13562	5.27
2.15228	5.26
2.16895	5.25
2.18562	5.24
2.20228	5.23
2.21895	5.22
2.23562	5.21
2.25228	5.20
2.26895	5.19
2.28562	5.18
2.30228	5.17
2.31895	5.16
2.33562	5.15
2.35228	5.14
2.36895	5.14
2.38562	5.14
2.40228	5.14
2.41895	5.14
2.43562	5.14
2.45228	5.14
2.46895	5.14
2.48562	5.14
2.50228	5.13
2.51895	5.14
2.53562	5.13
2.55228	5.13
2.56895	5.13
2.58562	5.13
2.60228	5.13
2.61895	5.13
2.63562	5.13
2.65228	5.13
2.66895	5.13
2.68562	5.13
2.70228	5.13
2.71895	5.13
2.73562	5.13
2.75228	5.13
2.76895	5.13
2.78562	5.13
2.80228	5.13
2.81895	5.13
2.83562	5.13
2.85228	5.13
2.86895	5.13
2.88562	5.13
2.90228	5.13
2.91895	5.13
2.93562	5.13
2.95228	5.13
2.96895	5.13
2.98562	5.13
3.00228	5.13
3.01895	5.13
3.03562	5.13
3.05228	5.13
3.06895	5.13
3.08562	5.13
3.10228	5.13
3.11895	5.13
3.13562	5.13
3.15228	5.13
3.16895	5.13
3.18562	5.13
3.20228	5.13
3.21895	5.13
3.23562	5.13
3.25228	5.12
3.26895	5.12
3.28562	5.12
3.30228	5.12
3.31895	5.12
3.33562	5.12
3.35228	5.12
3.36895	5.13
3.38562	5.13
3.40228	5.13
3.41895	5.13
3.43562	5.13
3.45228	5.13
3.46895	5.13
3.48562	5.13
3.50228	5.13
3.51895	5.13
3.53562	5.13
3.55228	5.13
3.56895	5.13
3.58562	5.13
3.60228	5.13
3.61895	5.13
3.63562	5.13
3.65228	5.13
3.66895	5.13
3.68562	5.13
3.70228	5.13
3.71895	5.12
3.73562	5.12
3.75228	5.12
3.76895	5.12
3.78562	5.12
3.80228	5.12
3.81895	5.12
3.83562	5.13
3.85228	5.12
3.86895	5.13
3.88562	5.12
3.90228	5.12
3.91895	5.12
3.93562	5.13
3.95228	5.13
3.96895	5.13
3.98562	5.12

[Status Trace (Linear Velocity)]
Interval(msec)	1000
# of Points	240
Start Time(min)	0.002
End Time(min)	3.986
Intensity Units	
Intensity Multiplier	1
R.Time (min)	Intensity
0.00228	39.02
0.01895	37.86
0.03562	37.89
0.05228	39.40
0.06895	40.22
0.08562	39.22
0.10228	39.00
0.11895	39.03
0.13562	39.03
0.15228	39.03
0.16895	39.03
0.18562	39.03
0.20228	39.03
0.21895	39.02
0.23562	39.02
0.25228	39.02
0.26895	39.02
0.28562	39.02
0.30228	39.02
0.31895	39.02
0.33562	39.02
0.35228	39.02
0.36895	39.02
0.38562	39.03
0.40228	39.03
0.41895	39.03
0.43562	39.03
0.45228	39.03
0.46895	39.03
0.48562	39.03
0.50228	39.03
0.51895	39.03
0.53562	39.03
0.55228	39.03
0.56895	39.03
0.58562	39.03
0.60228	39.03
0.61895	39.03
0.63562	39.03
0.65228	39.03
0.66895	39.03
0.68562	39.03
0.70228	39.03
0.71895	39.03
0.73562	39.03
0.75228	39.03
0.76895	39.03
0.78562	39.03
0.80228	39.03
0.81895	39.03
0.83562	39.03
0.85228	39.03
0.86895	39.03
0.88562	39.03
0.90228	39.03
0.91895	39.03
0.93562	39.03
0.95228	39.03
0.96895	39.03
0.98562	39.03
1.00228	39.03
1.01895	39.03
1.03562	39.03
1.05228	39.03
1.06895	39.03
1.08562	39.03
1.10228	39.03
1.11895	39.03
1.13562	39.02
1.15228	39.02
1.16895	39.03
1.18562	39.03
1.20228	39.03
1.21895	39.03
1.23562	39.03
1.25228	39.03
1.26895	39.03
1.28562	39.03
1.30228	39.03
1.31895	39.03
1.33562	39.03
1.35228	39.03
1.36895	39.03
1.38562	39.03
1.40228	39.03
1.41895	39.03
1.43562	39.03
1.45228	39.03
1.46895	39.03
1.48562	39.03
1.50228	39.03
1.51895	39.03
1.53562	39.03
1.55228	39.03
1.56895	39.03
1.58562	39.03
1.60228	39.02
1.61895	39.02
1.63562	39.00
1.65228	38.98
1.66895	38.95
1.68562	38.92
1.70228	38.88
1.71895	38.85
1.73562	38.82
1.75228	38.78
1.76895	38.75
1.78562	38.73
1.80228	38.69
1.81895	38.66
1.83562	38.63
1.85228	38.59
1.86895	38.56
1.88562	38.54
1.90228	38.51
1.91895	38.48
1.93562	38.45
1.95228	38.41
1.96895	38.38
1.98562	38.35
2.00228	38.32
2.01895	38.29
2.03562	38.27
2.05228	38.23
2.06895	38.20
2.08562	38.18
2.10228	38.14
2.11895	38.11
2.13562	38.09
2.15228	38.05
2.16895	38.03
2.18562	38.00
2.20228	37.97
2.21895	37.94
2.23562	37.91
2.25228	37.88
2.26895	37.85
2.28562	37.82
2.30228	37.79
2.31895	37.76
2.33562	37.73
2.35228	37.70
2.36895	37.68
2.38562	37.67
2.40228	37.67
2.41895	37.68
2.43562	37.68
2.45228	37.67
2.46895	37.67
2.48562	37.67
2.50228	37.66
2.51895	37.68
2.53562	37.66
2.55228	37.67
2.56895	37.67
2.58562	37.67
2.60228	37.66
2.61895	37.66
2.63562	37.66
2.65228	37.66
2.66895	37.66
2.68562	37.66
2.70228	37.66
2.71895	37.66
2.73562	37.66
2.75228	37.66
2.76895	37.66
2.78562	37.66
2.80228	37.66
2.81895	37.66
2.83562	37.66
2.85228	37.66
2.86895	37.65
2.88562	37.65
2.90228	37.65
2.91895	37.65
2.93562	37.65
2.95228	37.65
2.96895	37.65
2.98562	37.65
3.00228	37.65
3.01895	37.65
3.03562	37.65
3.05228	37.65
3.06895	37.65
3.08562	37.64
3.10228	37.64
3.11895	37.64
3.13562	37.64
3.15228	37.64
3.16895	37.64
3.18562	37.64
3.20228	37.64
3.21895	37.64
3.23562	37.64
3.25228	37.64
3.26895	37.64
3.28562	37.63
3.30228	37.63
3.31895	37.63
3.33562	37.64
3.35228	37.64
3.36895	37.64
3.38562	37.64
3.40228	37.64
3.41895	37.64
3.43562	37.64
3.45228	37.64
3.46895	37.64
3.48562	37.64
3.50228	37.64
3.51895	37.64
3.53562	37.64
3.55228	37.64
3.56895	37.64
3.58562	37.64
3.60228	37.64
3.61895	37.64
3.63562	37.64
3.65228	37.64
3.66895	37.64
3.68562	37.64
3.70228	37.64
3.71895	37.64
3.73562	37.64
3.75228	37.64
3.76895	37.64
3.78562	37.64
3.80228	37.64
3.81895	37.64
3.83562	37.64
3.85228	37.64
3.86895	37.64
3.88562	37.64
3.90228	37.64
3.91895	37.64
3.93562	37.64
3.95228	37.64
3.96895	37.64
3.98562	37.64

