[Header]
Application Name	LabSolutions
Version	5.110
Data File Name	C:\Users\User\Desktop\GC Analyses\Jack\Nachusa Grasslands Sampling\T0 Timepoint July 12th\T0_07122022_064.gcd
Output Date	3/14/2023
Output Time	3:40:38 PM

[File Information]
Type	Data File
Generated	3/7/2023 8:54:17 PM
Generated by	System Administrator
Modified	3/7/2023 9:00:50 PM
Modified by	System Administrator

[Sample Information]
Operator Name	System Administrator
Acquired	3/7/2023 8:56:49 PM
Sample Type	0:Unknown
Level	0
Sample Name	064
Sample ID	064
ISTD Amount1	1
ISTD Amount2	1
ISTD Amount3	1
ISTD Amount4	1
ISTD Amount5	1
ISTD Amount6	1
ISTD Amount7	1
ISTD Amount8	1
ISTD Amount9	1
ISTD Amount10	1
ISTD Amount11	1
ISTD Amount12	1
ISTD Amount13	1
ISTD Amount14	1
ISTD Amount15	1
ISTD Amount16	1
ISTD Amount17	1
ISTD Amount18	1
ISTD Amount19	1
ISTD Amount20	1
ISTD Amount21	1
ISTD Amount22	1
ISTD Amount23	1
ISTD Amount24	1
ISTD Amount25	1
ISTD Amount26	1
ISTD Amount27	1
ISTD Amount28	1
ISTD Amount29	1
ISTD Amount30	1
ISTD Amount31	1
ISTD Amount32	1
Sample Amount	1
Dilution Factor	1
Vial#	63
Injection Volume	1
Injection Count	1
Bar Code	

[Original Files]
Data File	C:\Users\User\Desktop\GC Analyses\Jack\Nachusa Grasslands Sampling\T0 Timepoint July 12th\T0_07122022_064.gcd
Method File	C:\LabSolutions\Data\GHG_4min_2022\ghg3_togas_w_acet_4 min_new_int.gcm
Batch File	C:\LabSolutions\Data\AutoSamplerTesting\T0_07122022.gcb
Report Format File	c:\LabSolutions\System\DEFAULT.lsr

[File Description]


[Configuration]
Instrument Name	C0B7VH3-Instrument1
Instrument #	1
Line #	1
# of Detectors	3
Detector ID	DET#1	DET#2	DET#3
Detector Name	FID	PTCD	ECD
# of Channels	1	1	1

[Peak Table(Ch1)]
# of Peaks	3
Peak#	R.Time	I.Time	F.Time	Area	Height	A/H	Conc.	Mark	ID#	Name	k'	Plate #	Plate Ht.	Tailing	Resolution	Sep.Factor	Area Ratio	Height Ratio	Conc. %	Norm Conc.
1	1.476	1.428	1.538	27507	12931	2.127	194.203	   	1	CO	0.000	9049	16.576	1.326	0.000	0.000	0	0	32.886	32.886
2	1.567	1.538	1.637	4830	2314	2.087	93.386	 V 	2	CH4	0.062	10330	14.521	0.000	1.482	0.000	0	0	15.814	15.814
3	1.996	1.952	2.535	1207063	567473	2.127	302.940	   	3	CO2	0.353	17287	8.677	1.322	7.009	5.680	0	0	51.300	51.300

[Peak Table(Ch2)]
# of Peaks	0

[Peak Table(Ch3)]
# of Peaks	5
Peak#	R.Time	I.Time	F.Time	Area	Height	A/H	Conc.	Mark	ID#	Name	k'	Plate #	Plate Ht.	Tailing	Resolution	Sep.Factor	Area Ratio	Height Ratio	Conc. %	Norm Conc.
1	2.462	2.110	2.521	2310	416	5.549	0.000	   			0.000	6910	21.706	0.000	0.000	0.000	0	0	0.000	0.000
2	2.543	2.521	2.634	1016	224	4.532	0.000	 V 			0.033	2401	62.475	0.000	0.495	0.000	0	0	0.000	0.000
3	2.711	2.649	2.752	444	95	4.655	0.000	   			0.101	2214	67.766	0.000	0.770	3.091	0	0	0.000	0.000
4	2.873	2.752	3.133	19136	4852	3.944	0.489	 V 	1	N2O	0.167	13279	11.296	1.652	0.977	1.647	0	0	100.000	100.000
5	3.404	3.280	3.962	9875	472	20.899	0.000	   	2	SF6	0.383	526	285.241	2.596	1.533	2.295	0	0	0.000	0.000

[Compound Results(Ch1)]
# of IDs	6
ID#	Name	R.Time	Area	Height	Conc.	Curve	3rd	2nd	1st	Constant	Area Ratio	Height Ratio	Conc. %	Norm Conc.
1	CO	1.476	27507	12931	194.203	Linear	0.000000e+00	0.000000e+00	1.416423e+002	0.000000e+00	0	0	32.886	32.886
2	CH4	1.567	4830	2314	93.386	Linear	0.000000e+00	0.000000e+00	5.171738e+001	0.000000e+00	0	0	15.814	15.814
3	CO2	1.996	1207063	567473	302.940	Linear	0.000000e+00	0.000000e+00	3.984494e+003	0.000000e+00	0	0	51.300	51.300
4	Ethylene	0.000	0	0	0.000	Linear	0.000000e+00	0.000000e+00	0.000000e+00	0.000000e+00	0	0	0.000	0.000
5	Acetylene	0.000	0	0	0.000	Linear	0.000000e+00	0.000000e+00	0.000000e+00	0.000000e+00	0	0	0.000	0.000
6	Ethane	0.000	0	0	0.000	Linear	0.000000e+00	0.000000e+00	0.000000e+00	0.000000e+00	0	0	0.000	0.000

[Compound Results(Ch2)]
# of IDs	5
ID#	Name	R.Time	Area	Height	Conc.	Curve	3rd	2nd	1st	Constant	Area Ratio	Height Ratio	Conc. %	Norm Conc.
1	Hydrogen	0.000	0	0	0.000	Linear	0.000000e+00	0.000000e+00	0.000000e+00	0.000000e+00	0	0	0.000	0.000
2	Oxygen	0.000	0	0	0.000	Linear	0.000000e+00	0.000000e+00	0.000000e+00	0.000000e+00	0	0	0.000	0.000
3	Nitrogen	0.000	0	0	0.000	Linear	0.000000e+00	0.000000e+00	0.000000e+00	0.000000e+00	0	0	0.000	0.000
4	Methane	0.000	0	0	0.000	Linear	0.000000e+00	0.000000e+00	0.000000e+00	0.000000e+00	0	0	0.000	0.000
5	Carbon Monoxide	0.000	0	0	0.000	Linear	0.000000e+00	0.000000e+00	0.000000e+00	0.000000e+00	0	0	0.000	0.000

[Compound Results(Ch3)]
# of IDs	2
ID#	Name	R.Time	Area	Height	Conc.	Curve	3rd	2nd	1st	Constant	Area Ratio	Height Ratio	Conc. %	Norm Conc.
1	N2O	2.873	19136	4852	0.489	Linear	0.000000e+00	0.000000e+00	3.915173e+004	0.000000e+00	0	0	100.000	100.000
2	SF6	3.404	9875	472	0.000	Linear	0.000000e+00	0.000000e+00	0.000000e+00	0.000000e+00	0	0	0.000	0.000

[Group Results(Ch1)]
# of Groups	0

[Group Results(Ch2)]
# of Groups	0

[Group Results(Ch3)]
# of Groups	0

[Chromatogram (Ch1)]
Interval(msec)	220
# of Points	1091
Start Time(min)	0.002
End Time(min)	3.998
R.Time (min)	Intensity
0.00167	19
0.00533	23
0.00900	23
0.01267	21
0.01633	21
0.02000	24
0.02367	28
0.02733	30
0.03100	29
0.03467	28
0.03833	25
0.04200	22
0.04567	20
0.04933	22
0.05300	27
0.05667	34
0.06033	38
0.06400	36
0.06767	30
0.07133	22
0.07500	12
0.07867	5
0.08233	3
0.08600	2
0.08967	5
0.09333	12
0.09700	23
0.10067	32
0.10433	33
0.10800	26
0.11167	21
0.11533	21
0.11900	26
0.12267	29
0.12633	33
0.13000	33
0.13367	31
0.13733	32
0.14100	33
0.14467	33
0.14833	32
0.15200	30
0.15567	26
0.15933	21
0.16300	18
0.16667	18
0.17033	25
0.17400	33
0.17767	39
0.18133	37
0.18500	33
0.18867	31
0.19233	31
0.19600	32
0.19967	33
0.20333	36
0.20700	40
0.21067	40
0.21433	39
0.21800	36
0.22167	35
0.22533	32
0.22900	29
0.23267	24
0.23633	21
0.24000	23
0.24367	23
0.24733	21
0.25100	21
0.25467	25
0.25833	28
0.26200	33
0.26567	39
0.26933	43
0.27300	43
0.27667	41
0.28033	37
0.28400	31
0.28767	26
0.29133	20
0.29500	12
0.29867	6
0.30233	4
0.30600	5
0.30967	12
0.31333	20
0.31700	30
0.32067	38
0.32433	46
0.32800	53
0.33167	59
0.33533	66
0.33900	74
0.34267	79
0.34633	78
0.35000	72
0.35367	64
0.35733	56
0.36100	46
0.36467	40
0.36833	42
0.37200	46
0.37567	51
0.37933	55
0.38300	58
0.38667	61
0.39033	65
0.39400	69
0.39767	71
0.40133	70
0.40500	67
0.40867	66
0.41233	71
0.41600	76
0.41967	79
0.42333	80
0.42700	81
0.43067	80
0.43433	77
0.43800	76
0.44167	70
0.44533	62
0.44900	54
0.45267	48
0.45633	44
0.46000	42
0.46367	42
0.46733	43
0.47100	43
0.47467	43
0.47833	43
0.48200	44
0.48567	44
0.48933	44
0.49300	44
0.49667	45
0.50033	47
0.50400	50
0.50767	51
0.51133	50
0.51500	48
0.51867	47
0.52233	49
0.52600	49
0.52967	47
0.53333	45
0.53700	38
0.54067	29
0.54433	20
0.54800	11
0.55167	5
0.55533	4
0.55900	6
0.56267	10
0.56633	16
0.57000	22
0.57367	24
0.57733	26
0.58100	26
0.58467	24
0.58833	24
0.59200	25
0.59567	24
0.59933	23
0.60300	23
0.60667	24
0.61033	22
0.61400	21
0.61767	22
0.62133	23
0.62500	25
0.62867	25
0.63233	22
0.63600	17
0.63967	13
0.64333	9
0.64700	6
0.65067	6
0.65433	5
0.65800	6
0.66167	9
0.66533	8
0.66900	6
0.67267	0
0.67633	-7
0.68000	-10
0.68367	-9
0.68733	-4
0.69100	3
0.69467	7
0.69833	7
0.70200	9
0.70567	13
0.70933	18
0.71300	20
0.71667	20
0.72033	22
0.72400	26
0.72767	30
0.73133	30
0.73500	28
0.73867	25
0.74233	22
0.74600	19
0.74967	18
0.75333	18
0.75700	18
0.76067	17
0.76433	15
0.76800	14
0.77167	11
0.77533	9
0.77900	6
0.78267	3
0.78633	4
0.79000	7
0.79367	9
0.79733	8
0.80100	7
0.80467	7
0.80833	5
0.81200	4
0.81567	1
0.81933	0
0.82300	4
0.82667	10
0.83033	11
0.83400	4
0.83767	-5
0.84133	-10
0.84500	-10
0.84867	-8
0.85233	-3
0.85600	5
0.85967	11
0.86333	13
0.86700	13
0.87067	11
0.87433	6
0.87800	3
0.88167	4
0.88533	6
0.88900	6
0.89267	4
0.89633	-1
0.90000	-3
0.90367	-5
0.90733	-7
0.91100	-6
0.91467	-4
0.91833	-3
0.92200	-3
0.92567	-3
0.92933	-3
0.93300	-3
0.93667	-3
0.94033	-2
0.94400	-0
0.94767	0
0.95133	2
0.95500	4
0.95867	3
0.96233	-4
0.96600	-12
0.96967	-17
0.97333	-17
0.97700	-20
0.98067	-21
0.98433	-22
0.98800	-22
0.99167	-24
0.99533	-24
0.99900	-25
1.00267	-27
1.00633	-28
1.01000	-30
1.01367	-29
1.01733	-21
1.02100	-10
1.02467	2
1.02833	10
1.03200	12
1.03567	11
1.03933	11
1.04300	12
1.04667	12
1.05033	6
1.05400	-4
1.05767	-14
1.06133	-21
1.06500	-25
1.06867	-25
1.07233	-24
1.07600	-23
1.07967	-22
1.08333	-18
1.08700	-15
1.09067	-14
1.09433	-15
1.09800	-20
1.10167	-30
1.10533	-41
1.10900	-47
1.11267	-44
1.11633	-35
1.12000	-26
1.12367	-22
1.12733	-22
1.13100	-20
1.13467	-19
1.13833	-17
1.14200	-15
1.14567	-15
1.14933	-17
1.15300	-19
1.15667	-18
1.16033	-16
1.16400	-16
1.16767	-20
1.17133	-20
1.17500	-15
1.17867	-8
1.18233	-2
1.18600	0
1.18967	-4
1.19333	-15
1.19700	-31
1.20067	-48
1.20433	-59
1.20800	-63
1.21167	-62
1.21533	-56
1.21900	-52
1.22267	-47
1.22633	-40
1.23000	-33
1.23367	-27
1.23733	-22
1.24100	-27
1.24467	-34
1.24833	-33
1.25200	-29
1.25567	-25
1.25933	-21
1.26300	-17
1.26667	-18
1.27033	-24
1.27400	-31
1.27767	-36
1.28133	-35
1.28500	-28
1.28867	-17
1.29233	-10
1.29600	-9
1.29967	-17
1.30333	-31
1.30700	-43
1.31067	-49
1.31433	-52
1.31800	-52
1.32167	-50
1.32533	-51
1.32900	-49
1.33267	-44
1.33633	-33
1.34000	-22
1.34367	-16
1.34733	-14
1.35100	-15
1.35467	-18
1.35833	-22
1.36200	-27
1.36567	-36
1.36933	-45
1.37300	-49
1.37667	-51
1.38033	-50
1.38400	-44
1.38767	-37
1.39133	-34
1.39500	-34
1.39867	-36
1.40233	-39
1.40600	-42
1.40967	-43
1.41333	-44
1.41700	-47
1.42067	-44
1.42433	-38
1.42800	-32
1.43167	-28
1.43533	-23
1.43900	-3
1.44267	81
1.44633	303
1.45000	841
1.45367	2078
1.45733	4137
1.46100	6619
1.46467	8997
1.46833	10939
1.47200	12283
1.47567	12918
1.47933	12736
1.48300	11727
1.48667	10076
1.49033	8130
1.49400	6236
1.49767	4619
1.50133	3352
1.50500	2414
1.50867	1743
1.51233	1267
1.51600	930
1.51967	691
1.52333	524
1.52700	410
1.53067	333
1.53433	281
1.53800	261
1.54167	302
1.54533	459
1.54900	763
1.55267	1170
1.55633	1589
1.56000	1946
1.56367	2202
1.56733	2337
1.57100	2323
1.57467	2145
1.57833	1836
1.58200	1468
1.58567	1113
1.58933	814
1.59300	582
1.59667	412
1.60033	293
1.60400	210
1.60767	153
1.61133	116
1.61500	92
1.61867	77
1.62233	67
1.62600	62
1.62967	59
1.63333	55
1.63700	51
1.64067	49
1.64433	47
1.64800	47
1.65167	47
1.65533	48
1.65900	46
1.66267	42
1.66633	40
1.67000	41
1.67367	42
1.67733	40
1.68100	35
1.68467	27
1.68833	17
1.69200	10
1.69567	7
1.69933	11
1.70300	16
1.70667	15
1.71033	10
1.71400	4
1.71767	2
1.72133	4
1.72500	8
1.72867	11
1.73233	16
1.73600	22
1.73967	23
1.74333	19
1.74700	15
1.75067	12
1.75433	10
1.75800	9
1.76167	7
1.76533	7
1.76900	9
1.77267	12
1.77633	15
1.78000	20
1.78367	20
1.78733	16
1.79100	8
1.79467	1
1.79833	-1
1.80200	1
1.80567	1
1.80933	-4
1.81300	-7
1.81667	-8
1.82033	-7
1.82400	-5
1.82767	-4
1.83133	-4
1.83500	1
1.83867	11
1.84233	18
1.84600	22
1.84967	21
1.85333	17
1.85700	11
1.86067	8
1.86433	10
1.86800	16
1.87167	23
1.87533	28
1.87900	25
1.88267	16
1.88633	10
1.89000	8
1.89367	7
1.89733	6
1.90100	8
1.90467	8
1.90833	5
1.91200	1
1.91567	-4
1.91933	-5
1.92300	-3
1.92667	3
1.93033	10
1.93400	15
1.93767	16
1.94133	18
1.94500	18
1.94867	17
1.95233	26
1.95600	112
1.95967	635
1.96333	3025
1.96700	11316
1.97067	33386
1.97433	79048
1.97800	153677
1.98167	252151
1.98533	359441
1.98900	457248
1.99267	530110
1.99633	567524
2.00000	564669
2.00367	523667
2.00733	453964
2.01100	370010
2.01467	286068
2.01833	212099
2.02200	152596
2.02567	107769
2.02933	75514
2.03300	53016
2.03667	37621
2.04033	27193
2.04400	20146
2.04767	15358
2.05133	12067
2.05500	9766
2.05867	8123
2.06233	6922
2.06600	6025
2.06967	5337
2.07333	4792
2.07700	4347
2.08067	3978
2.08433	3666
2.08800	3397
2.09167	3161
2.09533	2952
2.09900	2772
2.10267	2619
2.10633	2485
2.11000	2363
2.11367	2250
2.11733	2150
2.12100	2063
2.12467	1986
2.12833	1910
2.13200	1834
2.13567	1755
2.13933	1677
2.14300	1600
2.14667	1527
2.15033	1462
2.15400	1407
2.15767	1362
2.16133	1320
2.16500	1280
2.16867	1244
2.17233	1212
2.17600	1182
2.17967	1149
2.18333	1115
2.18700	1083
2.19067	1056
2.19433	1032
2.19800	1006
2.20167	976
2.20533	947
2.20900	923
2.21267	908
2.21633	899
2.22000	889
2.22367	875
2.22733	859
2.23100	845
2.23467	829
2.23833	809
2.24200	783
2.24567	751
2.24933	724
2.25300	703
2.25667	690
2.26033	683
2.26400	677
2.26767	673
2.27133	668
2.27500	659
2.27867	649
2.28233	636
2.28600	620
2.28967	603
2.29333	587
2.29700	574
2.30067	568
2.30433	566
2.30800	565
2.31167	563
2.31533	562
2.31900	561
2.32267	561
2.32633	555
2.33000	542
2.33367	529
2.33733	516
2.34100	504
2.34467	495
2.34833	489
2.35200	488
2.35567	487
2.35933	482
2.36300	477
2.36667	477
2.37033	479
2.37400	477
2.37767	474
2.38133	467
2.38500	457
2.38867	444
2.39233	432
2.39600	423
2.39967	419
2.40333	418
2.40700	416
2.41067	414
2.41433	411
2.41800	406
2.42167	403
2.42533	405
2.42900	405
2.43267	405
2.43633	404
2.44000	401
2.44367	397
2.44733	394
2.45100	393
2.45467	393
2.45833	392
2.46200	391
2.46567	388
2.46933	384
2.47300	378
2.47667	376
2.48033	377
2.48400	378
2.48767	375
2.49133	369
2.49500	365
2.49867	361
2.50233	358
2.50600	357
2.50967	357
2.51333	360
2.51700	363
2.52067	365
2.52433	362
2.52800	357
2.53167	353
2.53533	347
2.53900	341
2.54267	338
2.54633	337
2.55000	339
2.55367	342
2.55733	343
2.56100	342
2.56467	339
2.56833	335
2.57200	332
2.57567	336
2.57933	341
2.58300	343
2.58667	342
2.59033	339
2.59400	336
2.59767	335
2.60133	335
2.60500	330
2.60867	322
2.61233	316
2.61600	310
2.61967	305
2.62333	301
2.62700	302
2.63067	303
2.63433	303
2.63800	302
2.64167	300
2.64533	299
2.64900	303
2.65267	310
2.65633	316
2.66000	316
2.66367	312
2.66733	309
2.67100	310
2.67467	310
2.67833	310
2.68200	309
2.68567	307
2.68933	302
2.69300	300
2.69667	300
2.70033	301
2.70400	303
2.70767	304
2.71133	305
2.71500	306
2.71867	308
2.72233	308
2.72600	306
2.72967	303
2.73333	301
2.73700	301
2.74067	303
2.74433	300
2.74800	297
2.75167	296
2.75533	299
2.75900	301
2.76267	302
2.76633	305
2.77000	305
2.77367	300
2.77733	295
2.78100	291
2.78467	290
2.78833	293
2.79200	296
2.79567	297
2.79933	296
2.80300	293
2.80667	292
2.81033	293
2.81400	292
2.81767	291
2.82133	291
2.82500	293
2.82867	296
2.83233	298
2.83600	302
2.83967	309
2.84333	317
2.84700	324
2.85067	326
2.85433	326
2.85800	323
2.86167	315
2.86533	307
2.86900	300
2.87267	296
2.87633	293
2.88000	292
2.88367	294
2.88733	297
2.89100	300
2.89467	299
2.89833	294
2.90200	291
2.90567	291
2.90933	287
2.91300	284
2.91667	282
2.92033	280
2.92400	281
2.92767	283
2.93133	287
2.93500	290
2.93867	293
2.94233	301
2.94600	310
2.94967	317
2.95333	318
2.95700	316
2.96067	311
2.96433	310
2.96800	310
2.97167	310
2.97533	304
2.97900	292
2.98267	280
2.98633	270
2.99000	264
2.99367	263
2.99733	270
3.00100	280
3.00467	287
3.00833	290
3.01200	288
3.01567	288
3.01933	288
3.02300	288
3.02667	287
3.03033	288
3.03400	292
3.03767	296
3.04133	298
3.04500	298
3.04867	294
3.05233	290
3.05600	290
3.05967	289
3.06333	288
3.06700	289
3.07067	295
3.07433	302
3.07800	305
3.08167	303
3.08533	305
3.08900	315
3.09267	322
3.09633	322
3.10000	317
3.10367	309
3.10733	299
3.11100	291
3.11467	286
3.11833	284
3.12200	285
3.12567	289
3.12933	292
3.13300	293
3.13667	292
3.14033	288
3.14400	283
3.14767	278
3.15133	274
3.15500	272
3.15867	272
3.16233	272
3.16600	274
3.16967	276
3.17333	277
3.17700	277
3.18067	276
3.18433	274
3.18800	271
3.19167	268
3.19533	266
3.19900	265
3.20267	264
3.20633	263
3.21000	263
3.21367	265
3.21733	268
3.22100	272
3.22467	276
3.22833	281
3.23200	285
3.23567	288
3.23933	287
3.24300	285
3.24667	286
3.25033	290
3.25400	293
3.25767	291
3.26133	288
3.26500	282
3.26867	275
3.27233	272
3.27600	269
3.27967	266
3.28333	263
3.28700	260
3.29067	257
3.29433	256
3.29800	257
3.30167	264
3.30533	273
3.30900	283
3.31267	289
3.31633	288
3.32000	286
3.32367	284
3.32733	279
3.33100	271
3.33467	265
3.33833	262
3.34200	259
3.34567	258
3.34933	257
3.35300	258
3.35667	261
3.36033	261
3.36400	260
3.36767	257
3.37133	251
3.37500	245
3.37867	243
3.38233	246
3.38600	254
3.38967	262
3.39333	266
3.39700	268
3.40067	267
3.40433	263
3.40800	259
3.41167	255
3.41533	251
3.41900	250
3.42267	249
3.42633	249
3.43000	250
3.43367	248
3.43733	245
3.44100	242
3.44467	242
3.44833	244
3.45200	249
3.45567	254
3.45933	256
3.46300	260
3.46667	263
3.47033	265
3.47400	269
3.47767	275
3.48133	282
3.48500	285
3.48867	284
3.49233	279
3.49600	272
3.49967	265
3.50333	258
3.50700	254
3.51067	253
3.51433	255
3.51800	254
3.52167	249
3.52533	238
3.52900	227
3.53267	221
3.53633	221
3.54000	227
3.54367	234
3.54733	241
3.55100	247
3.55467	254
3.55833	258
3.56200	255
3.56567	250
3.56933	242
3.57300	236
3.57667	236
3.58033	240
3.58400	244
3.58767	247
3.59133	249
3.59500	248
3.59867	246
3.60233	246
3.60600	247
3.60967	252
3.61333	257
3.61700	258
3.62067	253
3.62433	244
3.62800	234
3.63167	227
3.63533	227
3.63900	231
3.64267	236
3.64633	239
3.65000	238
3.65367	238
3.65733	237
3.66100	238
3.66467	235
3.66833	236
3.67200	242
3.67567	247
3.67933	248
3.68300	245
3.68667	237
3.69033	229
3.69400	222
3.69767	221
3.70133	224
3.70500	229
3.70867	233
3.71233	237
3.71600	236
3.71967	229
3.72333	224
3.72700	222
3.73067	222
3.73433	224
3.73800	226
3.74167	228
3.74533	231
3.74900	233
3.75267	234
3.75633	236
3.76000	238
3.76367	238
3.76733	236
3.77100	233
3.77467	229
3.77833	222
3.78200	214
3.78567	210
3.78933	211
3.79300	213
3.79667	213
3.80033	214
3.80400	220
3.80767	226
3.81133	228
3.81500	231
3.81867	233
3.82233	237
3.82600	236
3.82967	228
3.83333	217
3.83700	205
3.84067	197
3.84433	193
3.84800	189
3.85167	190
3.85533	195
3.85900	197
3.86267	197
3.86633	199
3.87000	205
3.87367	213
3.87733	216
3.88100	212
3.88467	205
3.88833	199
3.89200	197
3.89567	199
3.89933	204
3.90300	212
3.90667	219
3.91033	219
3.91400	213
3.91767	202
3.92133	194
3.92500	191
3.92867	188
3.93233	185
3.93600	184
3.93967	185
3.94333	187
3.94700	190
3.95067	196
3.95433	205
3.95800	211
3.96167	215
3.96533	215
3.96900	214
3.97267	213
3.97633	210
3.98000	208
3.98367	208
3.98733	211
3.99100	217
3.99467	223
3.99833	224

[Chromatogram (Ch2)]
Interval(msec)	220
# of Points	1091
Start Time(min)	0.002
End Time(min)	3.998
R.Time (min)	Intensity
0.00167	0
0.00533	0
0.00900	0
0.01267	-0
0.01633	-0
0.02000	-1
0.02367	-1
0.02733	-1
0.03100	-1
0.03467	-1
0.03833	-1
0.04200	-1
0.04567	-1
0.04933	-1
0.05300	-1
0.05667	-1
0.06033	-0
0.06400	-0
0.06767	-0
0.07133	-0
0.07500	-0
0.07867	-0
0.08233	0
0.08600	0
0.08967	1
0.09333	1
0.09700	2
0.10067	2
0.10433	3
0.10800	3
0.11167	4
0.11533	4
0.11900	4
0.12267	4
0.12633	4
0.13000	3
0.13367	3
0.13733	2
0.14100	2
0.14467	2
0.14833	1
0.15200	1
0.15567	1
0.15933	1
0.16300	1
0.16667	0
0.17033	-0
0.17400	-0
0.17767	-0
0.18133	-0
0.18500	-0
0.18867	-0
0.19233	0
0.19600	1
0.19967	1
0.20333	2
0.20700	3
0.21067	3
0.21433	3
0.21800	4
0.22167	4
0.22533	4
0.22900	4
0.23267	4
0.23633	4
0.24000	4
0.24367	3
0.24733	3
0.25100	3
0.25467	3
0.25833	3
0.26200	3
0.26567	3
0.26933	3
0.27300	3
0.27667	3
0.28033	3
0.28400	3
0.28767	3
0.29133	3
0.29500	3
0.29867	3
0.30233	3
0.30600	3
0.30967	3
0.31333	3
0.31700	3
0.32067	2
0.32433	2
0.32800	2
0.33167	2
0.33533	2
0.33900	2
0.34267	2
0.34633	2
0.35000	2
0.35367	2
0.35733	2
0.36100	2
0.36467	1
0.36833	1
0.37200	0
0.37567	0
0.37933	-0
0.38300	-0
0.38667	-0
0.39033	-0
0.39400	-0
0.39767	0
0.40133	1
0.40500	1
0.40867	1
0.41233	1
0.41600	1
0.41967	1
0.42333	1
0.42700	1
0.43067	1
0.43433	1
0.43800	2
0.44167	2
0.44533	2
0.44900	2
0.45267	2
0.45633	2
0.46000	2
0.46367	1
0.46733	1
0.47100	1
0.47467	1
0.47833	0
0.48200	0
0.48567	0
0.48933	0
0.49300	0
0.49667	0
0.50033	0
0.50400	0
0.50767	0
0.51133	0
0.51500	0
0.51867	1
0.52233	1
0.52600	1
0.52967	2
0.53333	2
0.53700	3
0.54067	3
0.54433	3
0.54800	4
0.55167	4
0.55533	3
0.55900	3
0.56267	3
0.56633	3
0.57000	3
0.57367	2
0.57733	2
0.58100	2
0.58467	2
0.58833	1
0.59200	1
0.59567	1
0.59933	0
0.60300	-0
0.60667	-1
0.61033	-1
0.61400	-2
0.61767	-3
0.62133	-3
0.62500	-3
0.62867	-3
0.63233	-4
0.63600	-4
0.63967	-4
0.64333	-4
0.64700	-4
0.65067	-4
0.65433	-3
0.65800	-4
0.66167	-3
0.66533	-3
0.66900	-3
0.67267	-2
0.67633	-1
0.68000	-0
0.68367	0
0.68733	1
0.69100	1
0.69467	2
0.69833	2
0.70200	2
0.70567	3
0.70933	3
0.71300	3
0.71667	2
0.72033	2
0.72400	2
0.72767	2
0.73133	2
0.73500	2
0.73867	2
0.74233	2
0.74600	2
0.74967	2
0.75333	2
0.75700	2
0.76067	3
0.76433	3
0.76800	3
0.77167	3
0.77533	3
0.77900	3
0.78267	3
0.78633	3
0.79000	3
0.79367	3
0.79733	3
0.80100	3
0.80467	2
0.80833	2
0.81200	2
0.81567	1
0.81933	1
0.82300	0
0.82667	-0
0.83033	-1
0.83400	-1
0.83767	-1
0.84133	-2
0.84500	-2
0.84867	-2
0.85233	-2
0.85600	-2
0.85967	-2
0.86333	-2
0.86700	-3
0.87067	-3
0.87433	-3
0.87800	-3
0.88167	-3
0.88533	-4
0.88900	-4
0.89267	-4
0.89633	-4
0.90000	-4
0.90367	-3
0.90733	-3
0.91100	-3
0.91467	-3
0.91833	-3
0.92200	-3
0.92567	-2
0.92933	-2
0.93300	-2
0.93667	-2
0.94033	-1
0.94400	-1
0.94767	-1
0.95133	-0
0.95500	0
0.95867	1
0.96233	1
0.96600	2
0.96967	2
0.97333	2
0.97700	3
0.98067	3
0.98433	3
0.98800	3
0.99167	3
0.99533	3
0.99900	4
1.00267	4
1.00633	4
1.01000	4
1.01367	4
1.01733	4
1.02100	4
1.02467	4
1.02833	3
1.03200	3
1.03567	3
1.03933	3
1.04300	2
1.04667	2
1.05033	2
1.05400	2
1.05767	1
1.06133	1
1.06500	1
1.06867	2
1.07233	2
1.07600	2
1.07967	2
1.08333	2
1.08700	2
1.09067	2
1.09433	2
1.09800	2
1.10167	2
1.10533	2
1.10900	1
1.11267	1
1.11633	2
1.12000	2
1.12367	2
1.12733	2
1.13100	2
1.13467	2
1.13833	1
1.14200	1
1.14567	1
1.14933	1
1.15300	1
1.15667	1
1.16033	0
1.16400	-0
1.16767	-0
1.17133	-1
1.17500	-1
1.17867	-1
1.18233	-1
1.18600	-1
1.18967	-1
1.19333	-1
1.19700	-1
1.20067	-1
1.20433	-1
1.20800	-1
1.21167	-1
1.21533	-2
1.21900	-2
1.22267	-2
1.22633	-2
1.23000	-3
1.23367	-3
1.23733	-2
1.24100	-2
1.24467	-2
1.24833	-1
1.25200	-1
1.25567	-1
1.25933	-1
1.26300	-1
1.26667	-1
1.27033	-2
1.27400	-2
1.27767	-1
1.28133	-1
1.28500	-1
1.28867	-1
1.29233	-1
1.29600	-1
1.29967	-0
1.30333	-0
1.30700	0
1.31067	1
1.31433	1
1.31800	1
1.32167	2
1.32533	2
1.32900	2
1.33267	2
1.33633	2
1.34000	2
1.34367	2
1.34733	2
1.35100	1
1.35467	1
1.35833	0
1.36200	-0
1.36567	-1
1.36933	-1
1.37300	-1
1.37667	-2
1.38033	-2
1.38400	-2
1.38767	-2
1.39133	-2
1.39500	-2
1.39867	-2
1.40233	-2
1.40600	-1
1.40967	-1
1.41333	-1
1.41700	-1
1.42067	-0
1.42433	0
1.42800	0
1.43167	1
1.43533	1
1.43900	1
1.44267	2
1.44633	2
1.45000	3
1.45367	3
1.45733	3
1.46100	3
1.46467	2
1.46833	2
1.47200	2
1.47567	1
1.47933	1
1.48300	0
1.48667	-0
1.49033	-1
1.49400	-1
1.49767	-1
1.50133	-2
1.50500	-2
1.50867	-2
1.51233	-2
1.51600	-2
1.51967	-1
1.52333	-1
1.52700	-1
1.53067	-2
1.53433	-2
1.53800	-2
1.54167	-2
1.54533	-2
1.54900	-2
1.55267	-2
1.55633	-2
1.56000	-2
1.56367	-1
1.56733	-1
1.57100	-1
1.57467	-1
1.57833	-1
1.58200	-1
1.58567	-1
1.58933	-1
1.59300	-1
1.59667	-2
1.60033	-2
1.60400	-3
1.60767	-4
1.61133	-5
1.61500	-7
1.61867	-9
1.62233	-11
1.62600	-14
1.62967	-16
1.63333	-19
1.63700	-22
1.64067	-26
1.64433	-29
1.64800	-33
1.65167	-37
1.65533	-41
1.65900	-46
1.66267	-50
1.66633	-56
1.67000	-61
1.67367	-67
1.67733	-72
1.68100	-77
1.68467	-81
1.68833	-86
1.69200	-89
1.69567	-93
1.69933	-96
1.70300	-99
1.70667	-101
1.71033	-103
1.71400	-104
1.71767	-105
1.72133	-106
1.72500	-107
1.72867	-108
1.73233	-109
1.73600	-110
1.73967	-111
1.74333	-112
1.74700	-112
1.75067	-113
1.75433	-113
1.75800	-113
1.76167	-113
1.76533	-113
1.76900	-112
1.77267	-112
1.77633	-111
1.78000	-111
1.78367	-111
1.78733	-111
1.79100	-112
1.79467	-113
1.79833	-114
1.80200	-115
1.80567	-116
1.80933	-116
1.81300	-116
1.81667	-116
1.82033	-116
1.82400	-117
1.82767	-117
1.83133	-117
1.83500	-117
1.83867	-116
1.84233	-116
1.84600	-116
1.84967	-116
1.85333	-116
1.85700	-116
1.86067	-117
1.86433	-117
1.86800	-117
1.87167	-118
1.87533	-117
1.87900	-117
1.88267	-117
1.88633	-116
1.89000	-116
1.89367	-116
1.89733	-116
1.90100	-116
1.90467	-116
1.90833	-115
1.91200	-115
1.91567	-115
1.91933	-115
1.92300	-114
1.92667	-115
1.93033	-115
1.93400	-115
1.93767	-114
1.94133	-114
1.94500	-113
1.94867	-112
1.95233	-112
1.95600	-111
1.95967	-110
1.96333	-110
1.96700	-109
1.97067	-109
1.97433	-108
1.97800	-108
1.98167	-108
1.98533	-108
1.98900	-109
1.99267	-109
1.99633	-109
2.00000	-109
2.00367	-109
2.00733	-109
2.01100	-109
2.01467	-108
2.01833	-108
2.02200	-107
2.02567	-107
2.02933	-106
2.03300	-106
2.03667	-106
2.04033	-106
2.04400	-106
2.04767	-106
2.05133	-106
2.05500	-105
2.05867	-105
2.06233	-105
2.06600	-105
2.06967	-105
2.07333	-104
2.07700	-104
2.08067	-104
2.08433	-103
2.08800	-103
2.09167	-103
2.09533	-102
2.09900	-101
2.10267	-101
2.10633	-100
2.11000	-100
2.11367	-99
2.11733	-99
2.12100	-98
2.12467	-98
2.12833	-98
2.13200	-98
2.13567	-98
2.13933	-98
2.14300	-98
2.14667	-98
2.15033	-98
2.15400	-98
2.15767	-97
2.16133	-97
2.16500	-97
2.16867	-96
2.17233	-96
2.17600	-95
2.17967	-94
2.18333	-93
2.18700	-93
2.19067	-93
2.19433	-92
2.19800	-92
2.20167	-92
2.20533	-92
2.20900	-91
2.21267	-91
2.21633	-91
2.22000	-91
2.22367	-90
2.22733	-90
2.23100	-90
2.23467	-90
2.23833	-89
2.24200	-89
2.24567	-89
2.24933	-88
2.25300	-88
2.25667	-87
2.26033	-87
2.26400	-87
2.26767	-87
2.27133	-87
2.27500	-86
2.27867	-86
2.28233	-86
2.28600	-85
2.28967	-84
2.29333	-83
2.29700	-83
2.30067	-83
2.30433	-82
2.30800	-82
2.31167	-82
2.31533	-82
2.31900	-82
2.32267	-82
2.32633	-81
2.33000	-81
2.33367	-81
2.33733	-80
2.34100	-79
2.34467	-78
2.34833	-77
2.35200	-76
2.35567	-75
2.35933	-74
2.36300	-73
2.36667	-71
2.37033	-69
2.37400	-67
2.37767	-65
2.38133	-62
2.38500	-58
2.38867	-55
2.39233	-51
2.39600	-48
2.39967	-43
2.40333	-39
2.40700	-35
2.41067	-32
2.41433	-28
2.41800	-25
2.42167	-22
2.42533	-20
2.42900	-18
2.43267	-16
2.43633	-14
2.44000	-12
2.44367	-10
2.44733	-8
2.45100	-6
2.45467	-4
2.45833	-3
2.46200	-1
2.46567	0
2.46933	2
2.47300	3
2.47667	4
2.48033	5
2.48400	6
2.48767	6
2.49133	7
2.49500	7
2.49867	8
2.50233	9
2.50600	10
2.50967	10
2.51333	11
2.51700	12
2.52067	12
2.52433	13
2.52800	14
2.53167	14
2.53533	14
2.53900	15
2.54267	15
2.54633	15
2.55000	16
2.55367	16
2.55733	16
2.56100	17
2.56467	17
2.56833	17
2.57200	17
2.57567	17
2.57933	18
2.58300	18
2.58667	18
2.59033	18
2.59400	19
2.59767	19
2.60133	19
2.60500	19
2.60867	18
2.61233	18
2.61600	17
2.61967	16
2.62333	15
2.62700	15
2.63067	15
2.63433	15
2.63800	16
2.64167	17
2.64533	18
2.64900	19
2.65267	20
2.65633	21
2.66000	22
2.66367	24
2.66733	25
2.67100	25
2.67467	26
2.67833	26
2.68200	25
2.68567	25
2.68933	25
2.69300	25
2.69667	25
2.70033	24
2.70400	24
2.70767	24
2.71133	24
2.71500	25
2.71867	25
2.72233	25
2.72600	26
2.72967	26
2.73333	27
2.73700	27
2.74067	27
2.74433	27
2.74800	27
2.75167	27
2.75533	27
2.75900	26
2.76267	26
2.76633	26
2.77000	26
2.77367	27
2.77733	27
2.78100	28
2.78467	28
2.78833	29
2.79200	29
2.79567	30
2.79933	30
2.80300	30
2.80667	30
2.81033	29
2.81400	29
2.81767	28
2.82133	28
2.82500	28
2.82867	28
2.83233	27
2.83600	26
2.83967	24
2.84333	21
2.84700	16
2.85067	9
2.85433	-2
2.85800	-16
2.86167	-34
2.86533	-56
2.86900	-82
2.87267	-113
2.87633	-147
2.88000	-186
2.88367	-227
2.88733	-272
2.89100	-320
2.89467	-369
2.89833	-421
2.90200	-473
2.90567	-527
2.90933	-580
2.91300	-634
2.91667	-688
2.92033	-741
2.92400	-792
2.92767	-844
2.93133	-897
2.93500	-956
2.93867	-1016
2.94233	-1068
2.94600	-1101
2.94967	-1109
2.95333	-1091
2.95700	-1050
2.96067	-991
2.96433	-919
2.96800	-840
2.97167	-758
2.97533	-677
2.97900	-600
2.98267	-527
2.98633	-461
2.99000	-400
2.99367	-346
2.99733	-298
3.00100	-256
3.00467	-219
3.00833	-186
3.01200	-158
3.01567	-134
3.01933	-113
3.02300	-94
3.02667	-78
3.03033	-65
3.03400	-53
3.03767	-43
3.04133	-35
3.04500	-27
3.04867	-21
3.05233	-16
3.05600	-12
3.05967	-8
3.06333	-5
3.06700	-2
3.07067	0
3.07433	3
3.07800	5
3.08167	7
3.08533	8
3.08900	9
3.09267	11
3.09633	12
3.10000	12
3.10367	13
3.10733	14
3.11100	14
3.11467	15
3.11833	15
3.12200	16
3.12567	16
3.12933	17
3.13300	18
3.13667	18
3.14033	18
3.14400	19
3.14767	19
3.15133	19
3.15500	20
3.15867	20
3.16233	20
3.16600	20
3.16967	21
3.17333	21
3.17700	21
3.18067	21
3.18433	22
3.18800	22
3.19167	22
3.19533	22
3.19900	23
3.20267	23
3.20633	23
3.21000	23
3.21367	23
3.21733	24
3.22100	24
3.22467	24
3.22833	24
3.23200	25
3.23567	25
3.23933	25
3.24300	26
3.24667	26
3.25033	26
3.25400	26
3.25767	26
3.26133	26
3.26500	26
3.26867	26
3.27233	26
3.27600	26
3.27967	26
3.28333	26
3.28700	26
3.29067	26
3.29433	26
3.29800	26
3.30167	26
3.30533	26
3.30900	26
3.31267	26
3.31633	26
3.32000	26
3.32367	26
3.32733	26
3.33100	25
3.33467	25
3.33833	25
3.34200	25
3.34567	25
3.34933	25
3.35300	25
3.35667	24
3.36033	24
3.36400	24
3.36767	24
3.37133	24
3.37500	24
3.37867	25
3.38233	25
3.38600	25
3.38967	26
3.39333	26
3.39700	26
3.40067	27
3.40433	27
3.40800	27
3.41167	27
3.41533	27
3.41900	28
3.42267	28
3.42633	28
3.43000	29
3.43367	29
3.43733	29
3.44100	30
3.44467	30
3.44833	30
3.45200	31
3.45567	31
3.45933	31
3.46300	31
3.46667	30
3.47033	30
3.47400	30
3.47767	30
3.48133	29
3.48500	29
3.48867	29
3.49233	29
3.49600	30
3.49967	29
3.50333	29
3.50700	29
3.51067	29
3.51433	29
3.51800	29
3.52167	29
3.52533	29
3.52900	29
3.53267	29
3.53633	29
3.54000	29
3.54367	30
3.54733	30
3.55100	30
3.55467	30
3.55833	30
3.56200	30
3.56567	30
3.56933	30
3.57300	31
3.57667	31
3.58033	31
3.58400	31
3.58767	31
3.59133	30
3.59500	30
3.59867	30
3.60233	29
3.60600	29
3.60967	28
3.61333	28
3.61700	28
3.62067	28
3.62433	28
3.62800	28
3.63167	28
3.63533	27
3.63900	27
3.64267	27
3.64633	28
3.65000	28
3.65367	28
3.65733	28
3.66100	28
3.66467	28
3.66833	28
3.67200	29
3.67567	29
3.67933	29
3.68300	29
3.68667	29
3.69033	29
3.69400	29
3.69767	29
3.70133	29
3.70500	29
3.70867	29
3.71233	29
3.71600	29
3.71967	29
3.72333	29
3.72700	29
3.73067	28
3.73433	28
3.73800	28
3.74167	27
3.74533	27
3.74900	26
3.75267	26
3.75633	25
3.76000	25
3.76367	25
3.76733	25
3.77100	25
3.77467	26
3.77833	26
3.78200	25
3.78567	25
3.78933	25
3.79300	25
3.79667	26
3.80033	26
3.80400	26
3.80767	26
3.81133	26
3.81500	27
3.81867	27
3.82233	27
3.82600	27
3.82967	27
3.83333	27
3.83700	27
3.84067	27
3.84433	27
3.84800	27
3.85167	27
3.85533	26
3.85900	26
3.86267	26
3.86633	26
3.87000	25
3.87367	25
3.87733	25
3.88100	25
3.88467	25
3.88833	25
3.89200	25
3.89567	25
3.89933	26
3.90300	26
3.90667	26
3.91033	27
3.91400	27
3.91767	27
3.92133	27
3.92500	27
3.92867	27
3.93233	27
3.93600	28
3.93967	28
3.94333	28
3.94700	28
3.95067	28
3.95433	29
3.95800	29
3.96167	29
3.96533	29
3.96900	29
3.97267	29
3.97633	29
3.98000	29
3.98367	28
3.98733	28
3.99100	28
3.99467	28
3.99833	27

[Chromatogram (Ch3)]
Interval(msec)	220
# of Points	1091
Start Time(min)	0.002
End Time(min)	3.998
R.Time (min)	Intensity
0.00167	1
0.00533	0
0.00900	-2
0.01267	-2
0.01633	-3
0.02000	-4
0.02367	-3
0.02733	0
0.03100	3
0.03467	2
0.03833	-1
0.04200	-3
0.04567	-4
0.04933	-5
0.05300	-6
0.05667	-6
0.06033	-5
0.06400	-5
0.06767	-4
0.07133	-2
0.07500	-0
0.07867	0
0.08233	-1
0.08600	-2
0.08967	-4
0.09333	-5
0.09700	-4
0.10067	-4
0.10433	-3
0.10800	-1
0.11167	0
0.11533	0
0.11900	-1
0.12267	-3
0.12633	-2
0.13000	-0
0.13367	1
0.13733	0
0.14100	-1
0.14467	-1
0.14833	0
0.15200	1
0.15567	1
0.15933	1
0.16300	-1
0.16667	-1
0.17033	-1
0.17400	-3
0.17767	-4
0.18133	-2
0.18500	1
0.18867	1
0.19233	0
0.19600	1
0.19967	1
0.20333	-0
0.20700	-1
0.21067	-0
0.21433	0
0.21800	1
0.22167	2
0.22533	1
0.22900	0
0.23267	1
0.23633	1
0.24000	2
0.24367	2
0.24733	1
0.25100	-0
0.25467	-2
0.25833	-3
0.26200	-3
0.26567	-1
0.26933	0
0.27300	2
0.27667	2
0.28033	3
0.28400	6
0.28767	6
0.29133	6
0.29500	5
0.29867	2
0.30233	1
0.30600	2
0.30967	3
0.31333	3
0.31700	2
0.32067	1
0.32433	-0
0.32800	-0
0.33167	1
0.33533	1
0.33900	0
0.34267	-0
0.34633	-1
0.35000	-0
0.35367	1
0.35733	3
0.36100	3
0.36467	2
0.36833	4
0.37200	5
0.37567	6
0.37933	6
0.38300	6
0.38667	7
0.39033	8
0.39400	9
0.39767	8
0.40133	8
0.40500	5
0.40867	4
0.41233	5
0.41600	6
0.41967	7
0.42333	8
0.42700	7
0.43067	4
0.43433	1
0.43800	-2
0.44167	-3
0.44533	-2
0.44900	-2
0.45267	0
0.45633	2
0.46000	5
0.46367	6
0.46733	6
0.47100	6
0.47467	7
0.47833	7
0.48200	4
0.48567	2
0.48933	3
0.49300	2
0.49667	0
0.50033	1
0.50400	3
0.50767	3
0.51133	2
0.51500	-1
0.51867	0
0.52233	1
0.52600	2
0.52967	5
0.53333	6
0.53700	5
0.54067	7
0.54433	6
0.54800	4
0.55167	5
0.55533	5
0.55900	6
0.56267	5
0.56633	5
0.57000	5
0.57367	5
0.57733	5
0.58100	6
0.58467	6
0.58833	5
0.59200	3
0.59567	3
0.59933	4
0.60300	4
0.60667	5
0.61033	4
0.61400	2
0.61767	0
0.62133	1
0.62500	1
0.62867	3
0.63233	4
0.63600	5
0.63967	5
0.64333	6
0.64700	5
0.65067	3
0.65433	1
0.65800	0
0.66167	0
0.66533	0
0.66900	1
0.67267	1
0.67633	2
0.68000	2
0.68367	1
0.68733	0
0.69100	0
0.69467	0
0.69833	2
0.70200	2
0.70567	2
0.70933	2
0.71300	3
0.71667	3
0.72033	4
0.72400	4
0.72767	4
0.73133	4
0.73500	5
0.73867	7
0.74233	6
0.74600	6
0.74967	5
0.75333	6
0.75700	7
0.76067	7
0.76433	6
0.76800	7
0.77167	6
0.77533	6
0.77900	7
0.78267	8
0.78633	7
0.79000	6
0.79367	6
0.79733	4
0.80100	4
0.80467	1
0.80833	-1
0.81200	-0
0.81567	2
0.81933	4
0.82300	5
0.82667	5
0.83033	3
0.83400	1
0.83767	-1
0.84133	-1
0.84500	3
0.84867	7
0.85233	9
0.85600	9
0.85967	8
0.86333	9
0.86700	10
0.87067	10
0.87433	11
0.87800	11
0.88167	11
0.88533	11
0.88900	10
0.89267	9
0.89633	10
0.90000	10
0.90367	10
0.90733	10
0.91100	11
0.91467	12
0.91833	11
0.92200	9
0.92567	8
0.92933	9
0.93300	11
0.93667	11
0.94033	12
0.94400	12
0.94767	12
0.95133	12
0.95500	12
0.95867	11
0.96233	12
0.96600	13
0.96967	12
0.97333	14
0.97700	15
0.98067	14
0.98433	14
0.98800	16
0.99167	19
0.99533	20
0.99900	20
1.00267	20
1.00633	20
1.01000	21
1.01367	21
1.01733	21
1.02100	21
1.02467	22
1.02833	24
1.03200	25
1.03567	26
1.03933	25
1.04300	24
1.04667	21
1.05033	17
1.05400	16
1.05767	16
1.06133	16
1.06500	16
1.06867	14
1.07233	14
1.07600	16
1.07967	16
1.08333	17
1.08700	19
1.09067	20
1.09433	19
1.09800	18
1.10167	17
1.10533	19
1.10900	18
1.11267	17
1.11633	17
1.12000	17
1.12367	15
1.12733	15
1.13100	16
1.13467	18
1.13833	19
1.14200	20
1.14567	19
1.14933	21
1.15300	24
1.15667	26
1.16033	27
1.16400	28
1.16767	26
1.17133	25
1.17500	27
1.17867	27
1.18233	26
1.18600	23
1.18967	21
1.19333	21
1.19700	21
1.20067	20
1.20433	21
1.20800	23
1.21167	23
1.21533	22
1.21900	22
1.22267	22
1.22633	22
1.23000	23
1.23367	22
1.23733	20
1.24100	20
1.24467	19
1.24833	19
1.25200	21
1.25567	21
1.25933	22
1.26300	23
1.26667	24
1.27033	26
1.27400	26
1.27767	25
1.28133	25
1.28500	25
1.28867	25
1.29233	23
1.29600	23
1.29967	22
1.30333	20
1.30700	18
1.31067	19
1.31433	20
1.31800	19
1.32167	18
1.32533	19
1.32900	19
1.33267	18
1.33633	17
1.34000	18
1.34367	18
1.34733	17
1.35100	15
1.35467	13
1.35833	12
1.36200	11
1.36567	9
1.36933	9
1.37300	12
1.37667	14
1.38033	16
1.38400	17
1.38767	18
1.39133	19
1.39500	18
1.39867	18
1.40233	20
1.40600	19
1.40967	18
1.41333	19
1.41700	21
1.42067	21
1.42433	20
1.42800	19
1.43167	21
1.43533	20
1.43900	20
1.44267	19
1.44633	18
1.45000	20
1.45367	19
1.45733	19
1.46100	19
1.46467	18
1.46833	19
1.47200	19
1.47567	19
1.47933	18
1.48300	17
1.48667	18
1.49033	20
1.49400	20
1.49767	19
1.50133	19
1.50500	19
1.50867	21
1.51233	23
1.51600	24
1.51967	24
1.52333	22
1.52700	21
1.53067	20
1.53433	18
1.53800	17
1.54167	17
1.54533	19
1.54900	20
1.55267	22
1.55633	23
1.56000	24
1.56367	25
1.56733	25
1.57100	24
1.57467	23
1.57833	24
1.58200	27
1.58567	30
1.58933	35
1.59300	36
1.59667	34
1.60033	33
1.60400	31
1.60767	31
1.61133	31
1.61500	30
1.61867	30
1.62233	30
1.62600	31
1.62967	31
1.63333	31
1.63700	30
1.64067	31
1.64433	31
1.64800	31
1.65167	30
1.65533	30
1.65900	31
1.66267	33
1.66633	34
1.67000	33
1.67367	32
1.67733	34
1.68100	34
1.68467	34
1.68833	34
1.69200	34
1.69567	33
1.69933	32
1.70300	34
1.70667	35
1.71033	37
1.71400	38
1.71767	38
1.72133	40
1.72500	42
1.72867	41
1.73233	40
1.73600	41
1.73967	41
1.74333	41
1.74700	41
1.75067	40
1.75433	39
1.75800	40
1.76167	41
1.76533	42
1.76900	44
1.77267	44
1.77633	44
1.78000	45
1.78367	45
1.78733	45
1.79100	43
1.79467	42
1.79833	45
1.80200	48
1.80567	49
1.80933	50
1.81300	51
1.81667	51
1.82033	52
1.82400	52
1.82767	53
1.83133	53
1.83500	54
1.83867	56
1.84233	59
1.84600	60
1.84967	62
1.85333	65
1.85700	65
1.86067	63
1.86433	62
1.86800	59
1.87167	59
1.87533	60
1.87900	58
1.88267	59
1.88633	59
1.89000	58
1.89367	59
1.89733	60
1.90100	60
1.90467	61
1.90833	61
1.91200	61
1.91567	63
1.91933	64
1.92300	66
1.92667	66
1.93033	66
1.93400	67
1.93767	69
1.94133	71
1.94500	72
1.94867	71
1.95233	70
1.95600	70
1.95967	70
1.96333	70
1.96700	69
1.97067	70
1.97433	72
1.97800	72
1.98167	73
1.98533	73
1.98900	70
1.99267	69
1.99633	70
2.00000	73
2.00367	75
2.00733	76
2.01100	76
2.01467	78
2.01833	78
2.02200	79
2.02567	80
2.02933	80
2.03300	79
2.03667	80
2.04033	83
2.04400	85
2.04767	86
2.05133	86
2.05500	87
2.05867	89
2.06233	90
2.06600	90
2.06967	93
2.07333	95
2.07700	95
2.08067	94
2.08433	93
2.08800	91
2.09167	90
2.09533	91
2.09900	92
2.10267	92
2.10633	93
2.11000	94
2.11367	95
2.11733	96
2.12100	98
2.12467	99
2.12833	99
2.13200	100
2.13567	102
2.13933	103
2.14300	105
2.14667	108
2.15033	109
2.15400	109
2.15767	108
2.16133	110
2.16500	113
2.16867	116
2.17233	119
2.17600	121
2.17967	120
2.18333	118
2.18700	117
2.19067	118
2.19433	121
2.19800	123
2.20167	122
2.20533	122
2.20900	125
2.21267	128
2.21633	129
2.22000	130
2.22367	130
2.22733	131
2.23100	132
2.23467	132
2.23833	134
2.24200	137
2.24567	140
2.24933	143
2.25300	144
2.25667	143
2.26033	144
2.26400	146
2.26767	147
2.27133	146
2.27500	144
2.27867	144
2.28233	146
2.28600	149
2.28967	155
2.29333	159
2.29700	160
2.30067	159
2.30433	158
2.30800	159
2.31167	160
2.31533	159
2.31900	159
2.32267	160
2.32633	163
2.33000	166
2.33367	168
2.33733	170
2.34100	172
2.34467	175
2.34833	177
2.35200	178
2.35567	179
2.35933	181
2.36300	184
2.36667	188
2.37033	190
2.37400	192
2.37767	192
2.38133	193
2.38500	192
2.38867	189
2.39233	188
2.39600	191
2.39967	196
2.40333	199
2.40700	200
2.41067	202
2.41433	205
2.41800	208
2.42167	210
2.42533	213
2.42900	216
2.43267	216
2.43633	215
2.44000	216
2.44367	244
2.44733	323
2.45100	408
2.45467	476
2.45833	520
2.46200	529
2.46567	513
2.46933	489
2.47300	469
2.47667	454
2.48033	443
2.48400	435
2.48767	421
2.49133	402
2.49500	381
2.49867	358
2.50233	338
2.50600	323
2.50967	313
2.51333	306
2.51700	304
2.52067	304
2.52433	306
2.52800	311
2.53167	320
2.53533	329
2.53900	338
2.54267	342
2.54633	341
2.55000	338
2.55367	334
2.55733	327
2.56100	317
2.56467	309
2.56833	304
2.57200	296
2.57567	288
2.57933	282
2.58300	275
2.58667	271
2.59033	265
2.59400	261
2.59767	258
2.60133	253
2.60500	240
2.60867	224
2.61233	205
2.61600	186
2.61967	169
2.62333	152
2.62700	138
2.63067	129
2.63433	123
2.63800	117
2.64167	117
2.64533	119
2.64900	124
2.65267	132
2.65633	142
2.66000	153
2.66367	163
2.66733	175
2.67100	183
2.67467	189
2.67833	197
2.68200	204
2.68567	212
2.68933	218
2.69300	219
2.69667	219
2.70033	220
2.70400	222
2.70767	224
2.71133	226
2.71500	225
2.71867	224
2.72233	221
2.72600	218
2.72967	216
2.73333	215
2.73700	215
2.74067	214
2.74433	213
2.74800	214
2.75167	216
2.75533	218
2.75900	216
2.76267	216
2.76633	218
2.77000	219
2.77367	220
2.77733	222
2.78100	224
2.78467	223
2.78833	224
2.79200	225
2.79567	224
2.79933	225
2.80300	226
2.80667	228
2.81033	230
2.81400	233
2.81767	241
2.82133	259
2.82500	297
2.82867	368
2.83233	502
2.83600	720
2.83967	1042
2.84333	1466
2.84700	1984
2.85067	2566
2.85433	3168
2.85800	3744
2.86167	4247
2.86533	4637
2.86900	4889
2.87267	4998
2.87633	4973
2.88000	4830
2.88367	4594
2.88733	4293
2.89100	3954
2.89467	3601
2.89833	3251
2.90200	2914
2.90567	2599
2.90933	2308
2.91300	2043
2.91667	1809
2.92033	1604
2.92400	1421
2.92767	1261
2.93133	1123
2.93500	1002
2.93867	896
2.94233	806
2.94600	726
2.94967	655
2.95333	597
2.95700	548
2.96067	504
2.96433	465
2.96800	434
2.97167	407
2.97533	384
2.97900	364
2.98267	347
2.98633	333
2.99000	322
2.99367	310
2.99733	299
3.00100	290
3.00467	280
3.00833	272
3.01200	267
3.01567	261
3.01933	256
3.02300	249
3.02667	244
3.03033	240
3.03400	235
3.03767	231
3.04133	227
3.04500	223
3.04867	218
3.05233	215
3.05600	213
3.05967	211
3.06333	212
3.06700	212
3.07067	210
3.07433	207
3.07800	203
3.08167	200
3.08533	197
3.08900	195
3.09267	194
3.09633	192
3.10000	191
3.10367	189
3.10733	187
3.11100	183
3.11467	178
3.11833	176
3.12200	176
3.12567	174
3.12933	174
3.13300	171
3.13667	169
3.14033	169
3.14400	169
3.14767	170
3.15133	171
3.15500	171
3.15867	169
3.16233	168
3.16600	167
3.16967	167
3.17333	168
3.17700	169
3.18067	169
3.18433	171
3.18800	170
3.19167	170
3.19533	169
3.19900	166
3.20267	167
3.20633	168
3.21000	168
3.21367	168
3.21733	169
3.22100	169
3.22467	168
3.22833	168
3.23200	171
3.23567	172
3.23933	173
3.24300	171
3.24667	171
3.25033	172
3.25400	170
3.25767	169
3.26133	166
3.26500	155
3.26867	130
3.27233	108
3.27600	103
3.27967	117
3.28333	144
3.28700	179
3.29067	215
3.29433	254
3.29800	292
3.30167	331
3.30533	367
3.30900	399
3.31267	430
3.31633	458
3.32000	481
3.32367	504
3.32733	524
3.33100	535
3.33467	543
3.33833	548
3.34200	551
3.34567	555
3.34933	560
3.35300	567
3.35667	574
3.36033	580
3.36400	587
3.36767	593
3.37133	600
3.37500	608
3.37867	616
3.38233	623
3.38600	631
3.38967	639
3.39333	645
3.39700	649
3.40067	652
3.40433	655
3.40800	656
3.41167	656
3.41533	656
3.41900	656
3.42267	658
3.42633	659
3.43000	660
3.43367	660
3.43733	657
3.44100	654
3.44467	651
3.44833	651
3.45200	650
3.45567	648
3.45933	645
3.46300	644
3.46667	641
3.47033	637
3.47400	633
3.47767	630
3.48133	628
3.48500	626
3.48867	623
3.49233	621
3.49600	621
3.49967	623
3.50333	625
3.50700	621
3.51067	615
3.51433	611
3.51800	610
3.52167	608
3.52533	605
3.52900	604
3.53267	604
3.53633	606
3.54000	605
3.54367	606
3.54733	606
3.55100	603
3.55467	601
3.55833	601
3.56200	598
3.56567	595
3.56933	594
3.57300	595
3.57667	595
3.58033	592
3.58400	590
3.58767	586
3.59133	584
3.59500	584
3.59867	583
3.60233	580
3.60600	578
3.60967	575
3.61333	574
3.61700	573
3.62067	571
3.62433	568
3.62800	564
3.63167	562
3.63533	561
3.63900	558
3.64267	557
3.64633	556
3.65000	555
3.65367	553
3.65733	551
3.66100	549
3.66467	545
3.66833	542
3.67200	540
3.67567	538
3.67933	534
3.68300	532
3.68667	531
3.69033	532
3.69400	531
3.69767	531
3.70133	531
3.70500	527
3.70867	524
3.71233	521
3.71600	520
3.71967	521
3.72333	520
3.72700	518
3.73067	514
3.73433	512
3.73800	513
3.74167	514
3.74533	514
3.74900	513
3.75267	512
3.75633	512
3.76000	509
3.76367	506
3.76733	505
3.77100	505
3.77467	505
3.77833	504
3.78200	503
3.78567	503
3.78933	501
3.79300	498
3.79667	496
3.80033	495
3.80400	492
3.80767	490
3.81133	491
3.81500	490
3.81867	489
3.82233	490
3.82600	490
3.82967	488
3.83333	486
3.83700	485
3.84067	482
3.84433	481
3.84800	480
3.85167	479
3.85533	480
3.85900	480
3.86267	482
3.86633	482
3.87000	479
3.87367	479
3.87733	479
3.88100	479
3.88467	478
3.88833	478
3.89200	477
3.89567	476
3.89933	476
3.90300	477
3.90667	479
3.91033	478
3.91400	476
3.91767	474
3.92133	473
3.92500	473
3.92867	474
3.93233	476
3.93600	475
3.93967	476
3.94333	479
3.94700	479
3.95067	480
3.95433	481
3.95800	479
3.96167	479
3.96533	475
3.96900	470
3.97267	469
3.97633	467
3.98000	467
3.98367	466
3.98733	465
3.99100	464
3.99467	462
3.99833	458

[Status Trace (Column Oven Temperature)]
Interval(msec)	1000
# of Points	240
Start Time(min)	0.014
End Time(min)	3.997
Intensity Units	
Intensity Multiplier	1
R.Time (min)	Intensity
0.01383	35.06
0.03050	35.06
0.04717	35.06
0.06383	35.06
0.08050	35.05
0.09717	35.05
0.11383	35.05
0.13050	35.05
0.14717	35.06
0.16383	35.06
0.18050	35.06
0.19717	35.06
0.21383	35.03
0.23050	35.01
0.24717	35.00
0.26383	35.00
0.28050	35.00
0.29717	35.00
0.31383	35.00
0.33050	35.00
0.34717	35.01
0.36383	35.01
0.38050	35.02
0.39717	35.03
0.41383	35.02
0.43050	35.01
0.44717	35.00
0.46383	35.00
0.48050	35.00
0.49717	34.99
0.51383	34.98
0.53050	34.97
0.54717	34.96
0.56383	34.95
0.58050	34.95
0.59717	34.97
0.61383	34.99
0.63050	35.01
0.64717	35.02
0.66383	35.02
0.68050	35.00
0.69717	34.99
0.71383	34.99
0.73050	34.99
0.74717	34.99
0.76383	34.98
0.78050	34.97
0.79717	34.97
0.81383	34.98
0.83050	34.98
0.84717	35.00
0.86383	35.00
0.88050	35.02
0.89717	35.03
0.91383	35.04
0.93050	35.03
0.94717	35.03
0.96383	35.02
0.98050	35.01
0.99717	35.00
1.01383	34.99
1.03050	34.98
1.04717	34.98
1.06383	34.97
1.08050	34.96
1.09717	34.96
1.11383	34.96
1.13050	34.95
1.14717	34.95
1.16383	34.96
1.18050	34.96
1.19717	34.97
1.21383	34.99
1.23050	35.00
1.24717	34.99
1.26383	35.00
1.28050	35.00
1.29717	35.00
1.31383	34.98
1.33050	34.98
1.34717	34.99
1.36383	34.99
1.38050	35.00
1.39717	35.00
1.41383	35.00
1.43050	34.99
1.44717	34.98
1.46383	34.98
1.48050	34.98
1.49717	34.99
1.51383	34.99
1.53050	35.00
1.54717	35.01
1.56383	35.01
1.58050	35.02
1.59717	35.04
1.61383	35.10
1.63050	35.23
1.64717	35.43
1.66383	35.73
1.68050	36.08
1.69717	36.44
1.71383	36.78
1.73050	37.13
1.74717	37.48
1.76383	37.79
1.78050	38.10
1.79717	38.45
1.81383	38.78
1.83050	39.12
1.84717	39.44
1.86383	39.79
1.88050	40.10
1.89717	40.45
1.91383	40.78
1.93050	41.12
1.94717	41.42
1.96383	41.74
1.98050	42.07
1.99717	42.38
2.01383	42.72
2.03050	43.04
2.04717	43.36
2.06383	43.70
2.08050	44.03
2.09717	44.34
2.11383	44.67
2.13050	44.99
2.14717	45.34
2.16383	45.67
2.18050	45.98
2.19717	46.32
2.21383	46.64
2.23050	46.98
2.24717	47.30
2.26383	47.64
2.28050	47.96
2.29717	48.29
2.31383	48.62
2.33050	48.97
2.34717	49.25
2.36383	49.52
2.38050	49.69
2.39717	49.71
2.41383	49.71
2.43050	49.71
2.44717	49.72
2.46383	49.74
2.48050	49.75
2.49717	49.76
2.51383	49.76
2.53050	49.79
2.54717	49.80
2.56383	49.81
2.58050	49.80
2.59717	49.80
2.61383	49.85
2.63050	49.88
2.64717	49.86
2.66383	49.83
2.68050	49.84
2.69717	49.85
2.71383	49.86
2.73050	49.84
2.74717	49.85
2.76383	49.86
2.78050	49.85
2.79717	49.85
2.81383	49.88
2.83050	49.90
2.84717	49.91
2.86383	49.92
2.88050	49.92
2.89717	49.92
2.91383	49.93
2.93050	49.94
2.94717	49.95
2.96383	49.95
2.98050	49.96
2.99717	49.97
3.01383	49.98
3.03050	49.99
3.04717	50.00
3.06383	50.01
3.08050	50.01
3.09717	50.03
3.11383	50.05
3.13050	50.05
3.14717	50.05
3.16383	50.06
3.18050	50.06
3.19717	50.07
3.21383	50.08
3.23050	50.07
3.24717	50.08
3.26383	50.07
3.28050	50.06
3.29717	50.06
3.31383	50.07
3.33050	50.08
3.34717	50.10
3.36383	50.11
3.38050	50.12
3.39717	50.11
3.41383	50.10
3.43050	50.09
3.44717	50.07
3.46383	50.06
3.48050	50.05
3.49717	50.04
3.51383	50.04
3.53050	50.04
3.54717	50.03
3.56383	50.02
3.58050	50.00
3.59717	50.01
3.61383	50.02
3.63050	50.03
3.64717	50.03
3.66383	50.03
3.68050	50.02
3.69717	50.02
3.71383	50.02
3.73050	50.03
3.74717	50.04
3.76383	50.05
3.78050	50.06
3.79717	50.08
3.81383	50.07
3.83050	50.07
3.84717	50.07
3.86383	50.08
3.88050	50.09
3.89717	50.09
3.91383	50.09
3.93050	50.08
3.94717	50.07
3.96383	50.05
3.98050	50.06
3.99717	50.06

[Status Trace (Injection Unit Temperature)]
Interval(msec)	1000
# of Points	240
Start Time(min)	0.014
End Time(min)	3.997
Intensity Units	
Intensity Multiplier	1
R.Time (min)	Intensity
0.01383	99.98
0.03050	99.98
0.04717	99.97
0.06383	99.98
0.08050	99.98
0.09717	99.98
0.11383	99.98
0.13050	99.98
0.14717	99.98
0.16383	99.98
0.18050	99.98
0.19717	99.98
0.21383	99.99
0.23050	99.98
0.24717	99.98
0.26383	99.98
0.28050	99.98
0.29717	99.99
0.31383	99.98
0.33050	99.99
0.34717	99.98
0.36383	99.99
0.38050	99.99
0.39717	99.99
0.41383	99.98
0.43050	99.99
0.44717	99.99
0.46383	99.98
0.48050	99.99
0.49717	99.99
0.51383	99.98
0.53050	99.99
0.54717	99.98
0.56383	99.99
0.58050	99.98
0.59717	99.99
0.61383	99.98
0.63050	99.98
0.64717	99.98
0.66383	99.98
0.68050	99.99
0.69717	99.98
0.71383	99.98
0.73050	99.98
0.74717	99.98
0.76383	99.98
0.78050	99.98
0.79717	99.98
0.81383	99.98
0.83050	99.98
0.84717	99.98
0.86383	99.98
0.88050	99.98
0.89717	99.98
0.91383	99.98
0.93050	99.98
0.94717	99.98
0.96383	99.98
0.98050	99.98
0.99717	99.98
1.01383	99.98
1.03050	99.99
1.04717	99.98
1.06383	99.98
1.08050	99.98
1.09717	99.99
1.11383	99.98
1.13050	99.99
1.14717	99.98
1.16383	99.98
1.18050	99.98
1.19717	99.98
1.21383	99.98
1.23050	99.99
1.24717	99.98
1.26383	99.99
1.28050	99.98
1.29717	99.99
1.31383	99.98
1.33050	99.99
1.34717	99.99
1.36383	99.98
1.38050	99.98
1.39717	99.99
1.41383	99.99
1.43050	99.99
1.44717	99.99
1.46383	99.98
1.48050	99.98
1.49717	99.98
1.51383	99.98
1.53050	99.98
1.54717	99.99
1.56383	99.98
1.58050	99.98
1.59717	99.97
1.61383	99.98
1.63050	99.98
1.64717	99.98
1.66383	99.99
1.68050	99.99
1.69717	99.99
1.71383	99.99
1.73050	99.98
1.74717	99.98
1.76383	99.98
1.78050	99.98
1.79717	99.98
1.81383	99.98
1.83050	99.98
1.84717	99.98
1.86383	99.98
1.88050	99.98
1.89717	99.98
1.91383	99.98
1.93050	99.98
1.94717	99.98
1.96383	99.97
1.98050	99.98
1.99717	99.98
2.01383	99.97
2.03050	99.97
2.04717	99.97
2.06383	99.97
2.08050	99.97
2.09717	99.96
2.11383	99.97
2.13050	99.97
2.14717	99.97
2.16383	99.97
2.18050	99.97
2.19717	99.97
2.21383	99.97
2.23050	99.97
2.24717	99.97
2.26383	99.97
2.28050	99.97
2.29717	99.97
2.31383	99.97
2.33050	99.96
2.34717	99.97
2.36383	99.97
2.38050	99.97
2.39717	99.96
2.41383	99.97
2.43050	99.97
2.44717	99.97
2.46383	99.97
2.48050	99.97
2.49717	99.97
2.51383	99.97
2.53050	99.96
2.54717	99.97
2.56383	99.96
2.58050	99.98
2.59717	99.97
2.61383	99.97
2.63050	99.97
2.64717	99.97
2.66383	99.97
2.68050	99.97
2.69717	99.97
2.71383	99.98
2.73050	99.98
2.74717	99.98
2.76383	99.98
2.78050	99.99
2.79717	99.98
2.81383	99.99
2.83050	99.99
2.84717	99.99
2.86383	99.99
2.88050	99.99
2.89717	99.99
2.91383	100.00
2.93050	100.00
2.94717	100.00
2.96383	100.00
2.98050	100.01
2.99717	100.01
3.01383	100.01
3.03050	100.01
3.04717	100.01
3.06383	100.01
3.08050	100.02
3.09717	100.02
3.11383	100.01
3.13050	100.02
3.14717	100.02
3.16383	100.02
3.18050	100.02
3.19717	100.02
3.21383	100.02
3.23050	100.02
3.24717	100.02
3.26383	100.03
3.28050	100.02
3.29717	100.03
3.31383	100.02
3.33050	100.02
3.34717	100.03
3.36383	100.03
3.38050	100.03
3.39717	100.03
3.41383	100.03
3.43050	100.03
3.44717	100.03
3.46383	100.03
3.48050	100.03
3.49717	100.03
3.51383	100.03
3.53050	100.03
3.54717	100.03
3.56383	100.04
3.58050	100.04
3.59717	100.03
3.61383	100.04
3.63050	100.03
3.64717	100.03
3.66383	100.03
3.68050	100.04
3.69717	100.03
3.71383	100.04
3.73050	100.04
3.74717	100.04
3.76383	100.04
3.78050	100.04
3.79717	100.04
3.81383	100.04
3.83050	100.04
3.84717	100.04
3.86383	100.04
3.88050	100.05
3.89717	100.04
3.91383	100.04
3.93050	100.05
3.94717	100.04
3.96383	100.04
3.98050	100.04
3.99717	100.04

[Status Trace (Carrier Gas Pressure)]
Interval(msec)	1000
# of Points	240
Start Time(min)	0.014
End Time(min)	3.997
Intensity Units	
Intensity Multiplier	1
R.Time (min)	Intensity
0.01383	57.46
0.03050	55.32
0.04717	57.91
0.06383	59.83
0.08050	58.76
0.09717	57.98
0.11383	58.00
0.13050	58.01
0.14717	58.01
0.16383	58.00
0.18050	58.00
0.19717	58.00
0.21383	58.00
0.23050	58.00
0.24717	58.00
0.26383	58.00
0.28050	58.00
0.29717	58.00
0.31383	58.00
0.33050	58.00
0.34717	58.00
0.36383	58.00
0.38050	58.00
0.39717	58.00
0.41383	58.00
0.43050	58.00
0.44717	58.00
0.46383	58.00
0.48050	58.00
0.49717	58.00
0.51383	58.00
0.53050	58.00
0.54717	58.00
0.56383	58.00
0.58050	58.00
0.59717	58.00
0.61383	58.00
0.63050	58.00
0.64717	58.00
0.66383	58.00
0.68050	58.00
0.69717	58.00
0.71383	58.00
0.73050	58.00
0.74717	58.00
0.76383	58.00
0.78050	58.00
0.79717	58.00
0.81383	58.00
0.83050	58.00
0.84717	58.00
0.86383	58.00
0.88050	58.00
0.89717	58.00
0.91383	58.00
0.93050	58.00
0.94717	58.00
0.96383	58.00
0.98050	58.00
0.99717	58.00
1.01383	58.00
1.03050	58.00
1.04717	58.00
1.06383	58.00
1.08050	58.00
1.09717	58.00
1.11383	58.00
1.13050	58.00
1.14717	58.00
1.16383	58.00
1.18050	58.00
1.19717	58.00
1.21383	58.00
1.23050	58.00
1.24717	58.00
1.26383	58.00
1.28050	58.00
1.29717	58.00
1.31383	58.00
1.33050	58.00
1.34717	58.00
1.36383	58.00
1.38050	58.00
1.39717	58.00
1.41383	58.00
1.43050	58.00
1.44717	58.00
1.46383	58.00
1.48050	58.00
1.49717	58.00
1.51383	58.00
1.53050	58.00
1.54717	58.00
1.56383	58.00
1.58050	58.00
1.59717	58.00
1.61383	58.00
1.63050	58.00
1.64717	58.00
1.66383	58.01
1.68050	58.01
1.69717	58.00
1.71383	58.00
1.73050	58.00
1.74717	58.00
1.76383	58.00
1.78050	58.00
1.79717	58.00
1.81383	58.00
1.83050	58.00
1.84717	58.00
1.86383	58.00
1.88050	58.00
1.89717	58.00
1.91383	58.00
1.93050	58.00
1.94717	58.00
1.96383	58.00
1.98050	58.00
1.99717	58.00
2.01383	58.00
2.03050	58.00
2.04717	58.00
2.06383	58.00
2.08050	58.00
2.09717	58.00
2.11383	58.00
2.13050	58.00
2.14717	58.00
2.16383	58.00
2.18050	58.00
2.19717	58.00
2.21383	58.00
2.23050	58.00
2.24717	58.00
2.26383	58.00
2.28050	58.00
2.29717	58.00
2.31383	58.00
2.33050	58.00
2.34717	58.00
2.36383	58.00
2.38050	57.99
2.39717	57.99
2.41383	57.99
2.43050	58.00
2.44717	58.00
2.46383	58.00
2.48050	58.00
2.49717	58.00
2.51383	57.99
2.53050	57.99
2.54717	58.00
2.56383	58.00
2.58050	58.00
2.59717	58.00
2.61383	58.00
2.63050	58.00
2.64717	58.00
2.66383	58.00
2.68050	58.00
2.69717	58.00
2.71383	58.00
2.73050	58.00
2.74717	58.00
2.76383	58.00
2.78050	58.00
2.79717	58.00
2.81383	58.00
2.83050	58.00
2.84717	58.00
2.86383	58.00
2.88050	58.00
2.89717	58.00
2.91383	58.00
2.93050	58.00
2.94717	58.00
2.96383	58.00
2.98050	58.00
2.99717	58.00
3.01383	58.00
3.03050	58.00
3.04717	58.00
3.06383	58.00
3.08050	58.00
3.09717	58.00
3.11383	58.00
3.13050	58.00
3.14717	58.00
3.16383	58.00
3.18050	58.00
3.19717	58.00
3.21383	58.00
3.23050	58.00
3.24717	58.00
3.26383	58.00
3.28050	58.00
3.29717	58.00
3.31383	58.00
3.33050	58.00
3.34717	58.00
3.36383	58.00
3.38050	58.00
3.39717	58.00
3.41383	58.00
3.43050	58.00
3.44717	58.00
3.46383	58.00
3.48050	58.00
3.49717	58.00
3.51383	58.00
3.53050	58.00
3.54717	58.00
3.56383	58.00
3.58050	58.00
3.59717	58.00
3.61383	58.00
3.63050	58.00
3.64717	58.00
3.66383	58.00
3.68050	58.00
3.69717	58.00
3.71383	58.00
3.73050	58.00
3.74717	58.00
3.76383	58.00
3.78050	58.00
3.79717	58.00
3.81383	58.00
3.83050	58.00
3.84717	58.00
3.86383	58.00
3.88050	58.00
3.89717	58.00
3.91383	58.00
3.93050	58.00
3.94717	58.00
3.96383	58.00
3.98050	58.00
3.99717	58.00

[Status Trace (Carrier Gas Flow)]
Interval(msec)	1000
# of Points	240
Start Time(min)	0.014
End Time(min)	3.997
Intensity Units	
Intensity Multiplier	1
R.Time (min)	Intensity
0.01383	34.09
0.03050	34.54
0.04717	34.55
0.06383	34.53
0.08050	34.52
0.09717	34.52
0.11383	34.52
0.13050	34.52
0.14717	34.52
0.16383	34.52
0.18050	34.52
0.19717	34.52
0.21383	34.52
0.23050	34.52
0.24717	34.53
0.26383	34.51
0.28050	34.53
0.29717	34.52
0.31383	34.51
0.33050	34.52
0.34717	34.52
0.36383	34.52
0.38050	34.52
0.39717	34.52
0.41383	34.51
0.43050	34.52
0.44717	34.53
0.46383	34.51
0.48050	34.52
0.49717	34.51
0.51383	34.51
0.53050	34.51
0.54717	34.51
0.56383	34.51
0.58050	34.53
0.59717	34.52
0.61383	34.51
0.63050	34.52
0.64717	34.53
0.66383	34.52
0.68050	34.52
0.69717	34.51
0.71383	34.53
0.73050	34.52
0.74717	34.51
0.76383	34.52
0.78050	34.53
0.79717	34.52
0.81383	34.52
0.83050	34.52
0.84717	34.51
0.86383	34.52
0.88050	34.52
0.89717	34.51
0.91383	34.50
0.93050	34.52
0.94717	34.52
0.96383	34.52
0.98050	34.52
0.99717	34.52
1.01383	34.52
1.03050	34.52
1.04717	34.51
1.06383	34.51
1.08050	34.53
1.09717	34.52
1.11383	34.51
1.13050	34.51
1.14717	34.52
1.16383	34.52
1.18050	34.52
1.19717	34.51
1.21383	34.53
1.23050	34.51
1.24717	34.51
1.26383	34.52
1.28050	34.51
1.29717	34.51
1.31383	34.52
1.33050	34.52
1.34717	34.53
1.36383	34.53
1.38050	34.52
1.39717	34.51
1.41383	34.52
1.43050	34.52
1.44717	34.52
1.46383	34.53
1.48050	34.52
1.49717	34.52
1.51383	34.52
1.53050	34.52
1.54717	34.52
1.56383	34.51
1.58050	34.53
1.59717	34.52
1.61383	34.51
1.63050	34.53
1.64717	34.52
1.66383	34.52
1.68050	34.52
1.69717	34.52
1.71383	34.52
1.73050	34.52
1.74717	34.52
1.76383	34.51
1.78050	34.52
1.79717	34.52
1.81383	34.52
1.83050	34.52
1.84717	34.52
1.86383	34.52
1.88050	34.52
1.89717	34.52
1.91383	34.51
1.93050	34.52
1.94717	34.51
1.96383	34.52
1.98050	34.51
1.99717	34.52
2.01383	34.52
2.03050	34.51
2.04717	34.52
2.06383	34.52
2.08050	34.52
2.09717	34.52
2.11383	34.52
2.13050	34.52
2.14717	34.52
2.16383	34.52
2.18050	34.52
2.19717	34.52
2.21383	34.52
2.23050	34.52
2.24717	34.52
2.26383	34.52
2.28050	34.52
2.29717	34.51
2.31383	34.52
2.33050	34.52
2.34717	34.51
2.36383	34.52
2.38050	34.52
2.39717	34.52
2.41383	34.52
2.43050	34.53
2.44717	34.52
2.46383	34.52
2.48050	34.51
2.49717	34.52
2.51383	34.52
2.53050	34.52
2.54717	34.51
2.56383	34.51
2.58050	34.52
2.59717	34.52
2.61383	34.52
2.63050	34.51
2.64717	34.52
2.66383	34.52
2.68050	34.52
2.69717	34.53
2.71383	34.52
2.73050	34.52
2.74717	34.52
2.76383	34.53
2.78050	34.53
2.79717	34.52
2.81383	34.52
2.83050	34.52
2.84717	34.51
2.86383	34.53
2.88050	34.52
2.89717	34.52
2.91383	34.52
2.93050	34.52
2.94717	34.52
2.96383	34.52
2.98050	34.52
2.99717	34.51
3.01383	34.51
3.03050	34.52
3.04717	34.52
3.06383	34.52
3.08050	34.52
3.09717	34.52
3.11383	34.52
3.13050	34.52
3.14717	34.52
3.16383	34.52
3.18050	34.52
3.19717	34.52
3.21383	34.52
3.23050	34.53
3.24717	34.52
3.26383	34.52
3.28050	34.52
3.29717	34.52
3.31383	34.52
3.33050	34.52
3.34717	34.52
3.36383	34.53
3.38050	34.51
3.39717	34.52
3.41383	34.52
3.43050	34.52
3.44717	34.51
3.46383	34.52
3.48050	34.52
3.49717	34.52
3.51383	34.52
3.53050	34.52
3.54717	34.52
3.56383	34.52
3.58050	34.52
3.59717	34.52
3.61383	34.52
3.63050	34.52
3.64717	34.52
3.66383	34.52
3.68050	34.52
3.69717	34.52
3.71383	34.52
3.73050	34.52
3.74717	34.52
3.76383	34.52
3.78050	34.52
3.79717	34.52
3.81383	34.52
3.83050	34.52
3.84717	34.52
3.86383	34.52
3.88050	34.52
3.89717	34.52
3.91383	34.52
3.93050	34.52
3.94717	34.52
3.96383	34.52
3.98050	34.52
3.99717	34.53

[Status Trace (Column Flow)]
Interval(msec)	1000
# of Points	240
Start Time(min)	0.014
End Time(min)	3.997
Intensity Units	
Intensity Multiplier	1
R.Time (min)	Intensity
0.01383	5.51
0.03050	5.26
0.04717	5.56
0.06383	5.79
0.08050	5.66
0.09717	5.57
0.11383	5.57
0.13050	5.57
0.14717	5.57
0.16383	5.57
0.18050	5.57
0.19717	5.57
0.21383	5.57
0.23050	5.57
0.24717	5.57
0.26383	5.57
0.28050	5.57
0.29717	5.57
0.31383	5.57
0.33050	5.57
0.34717	5.57
0.36383	5.57
0.38050	5.57
0.39717	5.57
0.41383	5.57
0.43050	5.57
0.44717	5.57
0.46383	5.57
0.48050	5.57
0.49717	5.57
0.51383	5.57
0.53050	5.57
0.54717	5.58
0.56383	5.58
0.58050	5.58
0.59717	5.57
0.61383	5.57
0.63050	5.57
0.64717	5.57
0.66383	5.57
0.68050	5.57
0.69717	5.57
0.71383	5.57
0.73050	5.57
0.74717	5.57
0.76383	5.57
0.78050	5.57
0.79717	5.57
0.81383	5.57
0.83050	5.57
0.84717	5.57
0.86383	5.57
0.88050	5.57
0.89717	5.57
0.91383	5.57
0.93050	5.57
0.94717	5.57
0.96383	5.57
0.98050	5.57
0.99717	5.57
1.01383	5.57
1.03050	5.57
1.04717	5.57
1.06383	5.57
1.08050	5.57
1.09717	5.57
1.11383	5.58
1.13050	5.58
1.14717	5.58
1.16383	5.58
1.18050	5.57
1.19717	5.57
1.21383	5.57
1.23050	5.57
1.24717	5.57
1.26383	5.57
1.28050	5.57
1.29717	5.57
1.31383	5.57
1.33050	5.57
1.34717	5.57
1.36383	5.57
1.38050	5.57
1.39717	5.57
1.41383	5.57
1.43050	5.57
1.44717	5.57
1.46383	5.57
1.48050	5.57
1.49717	5.57
1.51383	5.57
1.53050	5.57
1.54717	5.57
1.56383	5.57
1.58050	5.57
1.59717	5.57
1.61383	5.57
1.63050	5.57
1.64717	5.56
1.66383	5.55
1.68050	5.54
1.69717	5.53
1.71383	5.52
1.73050	5.51
1.74717	5.50
1.76383	5.49
1.78050	5.48
1.79717	5.47
1.81383	5.46
1.83050	5.45
1.84717	5.44
1.86383	5.42
1.88050	5.42
1.89717	5.40
1.91383	5.39
1.93050	5.39
1.94717	5.37
1.96383	5.37
1.98050	5.36
1.99717	5.35
2.01383	5.34
2.03050	5.33
2.04717	5.32
2.06383	5.31
2.08050	5.30
2.09717	5.29
2.11383	5.28
2.13050	5.27
2.14717	5.26
2.16383	5.25
2.18050	5.24
2.19717	5.23
2.21383	5.22
2.23050	5.21
2.24717	5.20
2.26383	5.19
2.28050	5.18
2.29717	5.17
2.31383	5.17
2.33050	5.16
2.34717	5.15
2.36383	5.14
2.38050	5.13
2.39717	5.13
2.41383	5.13
2.43050	5.13
2.44717	5.13
2.46383	5.13
2.48050	5.13
2.49717	5.13
2.51383	5.13
2.53050	5.13
2.54717	5.13
2.56383	5.13
2.58050	5.13
2.59717	5.13
2.61383	5.13
2.63050	5.13
2.64717	5.13
2.66383	5.13
2.68050	5.13
2.69717	5.13
2.71383	5.13
2.73050	5.13
2.74717	5.13
2.76383	5.13
2.78050	5.13
2.79717	5.13
2.81383	5.13
2.83050	5.13
2.84717	5.13
2.86383	5.13
2.88050	5.13
2.89717	5.13
2.91383	5.13
2.93050	5.13
2.94717	5.13
2.96383	5.13
2.98050	5.13
2.99717	5.13
3.01383	5.13
3.03050	5.13
3.04717	5.13
3.06383	5.13
3.08050	5.13
3.09717	5.13
3.11383	5.13
3.13050	5.13
3.14717	5.13
3.16383	5.13
3.18050	5.12
3.19717	5.12
3.21383	5.12
3.23050	5.12
3.24717	5.12
3.26383	5.12
3.28050	5.13
3.29717	5.13
3.31383	5.12
3.33050	5.12
3.34717	5.12
3.36383	5.12
3.38050	5.12
3.39717	5.12
3.41383	5.12
3.43050	5.12
3.44717	5.12
3.46383	5.12
3.48050	5.13
3.49717	5.13
3.51383	5.13
3.53050	5.13
3.54717	5.13
3.56383	5.13
3.58050	5.13
3.59717	5.13
3.61383	5.13
3.63050	5.13
3.64717	5.13
3.66383	5.13
3.68050	5.13
3.69717	5.13
3.71383	5.13
3.73050	5.13
3.74717	5.13
3.76383	5.12
3.78050	5.12
3.79717	5.12
3.81383	5.12
3.83050	5.12
3.84717	5.12
3.86383	5.12
3.88050	5.12
3.89717	5.12
3.91383	5.12
3.93050	5.12
3.94717	5.12
3.96383	5.13
3.98050	5.12
3.99717	5.12

[Status Trace (Linear Velocity)]
Interval(msec)	1000
# of Points	240
Start Time(min)	0.014
End Time(min)	3.997
Intensity Units	
Intensity Multiplier	1
R.Time (min)	Intensity
0.01383	38.67
0.03050	37.26
0.04717	38.96
0.06383	40.22
0.08050	39.52
0.09717	39.01
0.11383	39.02
0.13050	39.03
0.14717	39.03
0.16383	39.03
0.18050	39.02
0.19717	39.02
0.21383	39.03
0.23050	39.03
0.24717	39.03
0.26383	39.03
0.28050	39.03
0.29717	39.03
0.31383	39.03
0.33050	39.03
0.34717	39.03
0.36383	39.03
0.38050	39.03
0.39717	39.03
0.41383	39.03
0.43050	39.03
0.44717	39.03
0.46383	39.03
0.48050	39.03
0.49717	39.03
0.51383	39.03
0.53050	39.03
0.54717	39.03
0.56383	39.03
0.58050	39.03
0.59717	39.03
0.61383	39.03
0.63050	39.03
0.64717	39.03
0.66383	39.03
0.68050	39.03
0.69717	39.03
0.71383	39.03
0.73050	39.03
0.74717	39.03
0.76383	39.03
0.78050	39.03
0.79717	39.03
0.81383	39.03
0.83050	39.03
0.84717	39.03
0.86383	39.03
0.88050	39.03
0.89717	39.03
0.91383	39.02
0.93050	39.03
0.94717	39.03
0.96383	39.03
0.98050	39.03
0.99717	39.03
1.01383	39.03
1.03050	39.03
1.04717	39.03
1.06383	39.03
1.08050	39.03
1.09717	39.03
1.11383	39.03
1.13050	39.03
1.14717	39.03
1.16383	39.03
1.18050	39.03
1.19717	39.03
1.21383	39.03
1.23050	39.03
1.24717	39.03
1.26383	39.03
1.28050	39.03
1.29717	39.03
1.31383	39.03
1.33050	39.03
1.34717	39.03
1.36383	39.03
1.38050	39.03
1.39717	39.03
1.41383	39.03
1.43050	39.03
1.44717	39.03
1.46383	39.03
1.48050	39.03
1.49717	39.03
1.51383	39.03
1.53050	39.03
1.54717	39.03
1.56383	39.03
1.58050	39.03
1.59717	39.03
1.61383	39.02
1.63050	39.01
1.64717	38.99
1.66383	38.96
1.68050	38.93
1.69717	38.89
1.71383	38.86
1.73050	38.83
1.74717	38.79
1.76383	38.76
1.78050	38.74
1.79717	38.70
1.81383	38.67
1.83050	38.64
1.84717	38.61
1.86383	38.57
1.88050	38.55
1.89717	38.51
1.91383	38.48
1.93050	38.45
1.94717	38.42
1.96383	38.39
1.98050	38.36
1.99717	38.33
2.01383	38.30
2.03050	38.27
2.04717	38.24
2.06383	38.21
2.08050	38.18
2.09717	38.15
2.11383	38.12
2.13050	38.10
2.14717	38.06
2.16383	38.03
2.18050	38.01
2.19717	37.97
2.21383	37.94
2.23050	37.92
2.24717	37.88
2.26383	37.86
2.28050	37.83
2.29717	37.80
2.31383	37.77
2.33050	37.74
2.34717	37.71
2.36383	37.69
2.38050	37.67
2.39717	37.66
2.41383	37.67
2.43050	37.67
2.44717	37.67
2.46383	37.67
2.48050	37.67
2.49717	37.66
2.51383	37.66
2.53050	37.66
2.54717	37.66
2.56383	37.66
2.58050	37.66
2.59717	37.66
2.61383	37.66
2.63050	37.65
2.64717	37.65
2.66383	37.66
2.68050	37.66
2.69717	37.66
2.71383	37.66
2.73050	37.66
2.74717	37.66
2.76383	37.66
2.78050	37.66
2.79717	37.66
2.81383	37.66
2.83050	37.65
2.84717	37.65
2.86383	37.65
2.88050	37.65
2.89717	37.65
2.91383	37.65
2.93050	37.65
2.94717	37.65
2.96383	37.65
2.98050	37.65
2.99717	37.65
3.01383	37.65
3.03050	37.64
3.04717	37.64
3.06383	37.64
3.08050	37.64
3.09717	37.64
3.11383	37.64
3.13050	37.64
3.14717	37.64
3.16383	37.64
3.18050	37.64
3.19717	37.64
3.21383	37.64
3.23050	37.64
3.24717	37.64
3.26383	37.64
3.28050	37.64
3.29717	37.64
3.31383	37.64
3.33050	37.64
3.34717	37.64
3.36383	37.63
3.38050	37.63
3.39717	37.63
3.41383	37.64
3.43050	37.64
3.44717	37.64
3.46383	37.64
3.48050	37.64
3.49717	37.64
3.51383	37.64
3.53050	37.64
3.54717	37.64
3.56383	37.64
3.58050	37.64
3.59717	37.64
3.61383	37.64
3.63050	37.64
3.64717	37.64
3.66383	37.64
3.68050	37.64
3.69717	37.64
3.71383	37.64
3.73050	37.64
3.74717	37.64
3.76383	37.64
3.78050	37.64
3.79717	37.64
3.81383	37.64
3.83050	37.64
3.84717	37.64
3.86383	37.64
3.88050	37.64
3.89717	37.64
3.91383	37.64
3.93050	37.64
3.94717	37.64
3.96383	37.64
3.98050	37.64
3.99717	37.64

