[Header]
Application Name	LabSolutions
Version	5.110
Data File Name	C:\Users\User\Desktop\GC Analyses\Jack\Nachusa Grasslands Sampling\T0 Timepoint July 12th\T0_07122022_078.gcd
Output Date	3/14/2023
Output Time	3:40:39 PM

[File Information]
Type	Data File
Generated	3/7/2023 10:29:42 PM
Generated by	System Administrator
Modified	3/7/2023 10:36:31 PM
Modified by	System Administrator

[Sample Information]
Operator Name	System Administrator
Acquired	3/7/2023 10:32:29 PM
Sample Type	0:Unknown
Level	0
Sample Name	078
Sample ID	078
ISTD Amount1	1
ISTD Amount2	1
ISTD Amount3	1
ISTD Amount4	1
ISTD Amount5	1
ISTD Amount6	1
ISTD Amount7	1
ISTD Amount8	1
ISTD Amount9	1
ISTD Amount10	1
ISTD Amount11	1
ISTD Amount12	1
ISTD Amount13	1
ISTD Amount14	1
ISTD Amount15	1
ISTD Amount16	1
ISTD Amount17	1
ISTD Amount18	1
ISTD Amount19	1
ISTD Amount20	1
ISTD Amount21	1
ISTD Amount22	1
ISTD Amount23	1
ISTD Amount24	1
ISTD Amount25	1
ISTD Amount26	1
ISTD Amount27	1
ISTD Amount28	1
ISTD Amount29	1
ISTD Amount30	1
ISTD Amount31	1
ISTD Amount32	1
Sample Amount	1
Dilution Factor	1
Vial#	77
Injection Volume	1
Injection Count	1
Bar Code	

[Original Files]
Data File	C:\Users\User\Desktop\GC Analyses\Jack\Nachusa Grasslands Sampling\T0 Timepoint July 12th\T0_07122022_078.gcd
Method File	C:\LabSolutions\Data\GHG_4min_2022\ghg3_togas_w_acet_4 min_new_int.gcm
Batch File	C:\LabSolutions\Data\AutoSamplerTesting\T0_07122022.gcb
Report Format File	c:\LabSolutions\System\DEFAULT.lsr

[File Description]


[Configuration]
Instrument Name	C0B7VH3-Instrument1
Instrument #	1
Line #	1
# of Detectors	3
Detector ID	DET#1	DET#2	DET#3
Detector Name	FID	PTCD	ECD
# of Channels	1	1	1

[Peak Table(Ch1)]
# of Peaks	3
Peak#	R.Time	I.Time	F.Time	Area	Height	A/H	Conc.	Mark	ID#	Name	k'	Plate #	Plate Ht.	Tailing	Resolution	Sep.Factor	Area Ratio	Height Ratio	Conc. %	Norm Conc.
1	1.476	1.439	1.538	30712	14548	2.111	216.827	   	1	CO	0.000	9405	15.950	1.313	0.000	0.000	0	0	35.017	35.017
2	1.567	1.538	1.630	4845	2364	2.049	93.687	 V 	2	CH4	0.062	10546	14.224	0.000	1.504	0.000	0	0	15.130	15.130
3	1.996	1.952	2.491	1229979	581528	2.115	308.691	   	3	CO2	0.353	17306	8.667	1.300	7.047	5.680	0	0	49.853	49.853

[Peak Table(Ch2)]
# of Peaks	0

[Peak Table(Ch3)]
# of Peaks	4
Peak#	R.Time	I.Time	F.Time	Area	Height	A/H	Conc.	Mark	ID#	Name	k'	Plate #	Plate Ht.	Tailing	Resolution	Sep.Factor	Area Ratio	Height Ratio	Conc. %	Norm Conc.
1	2.458	2.260	2.521	2086	455	4.585	0.000	   			0.000	7898	18.993	0.000	0.000	0.000	0	0	0.000	0.000
2	2.546	2.521	2.631	927	212	4.375	0.000	 V 			0.036	2715	55.244	0.000	0.575	0.000	0	0	0.000	0.000
3	2.693	2.645	2.803	715	101	7.068	0.000	   			0.095	74	2014.357	0.000	0.203	2.667	0	0	0.000	0.000
4	2.873	2.803	3.129	18891	4883	3.869	0.483	 V 	1	N2O	0.169	13199	11.364	1.630	0.267	1.766	0	0	100.000	100.000

[Compound Results(Ch1)]
# of IDs	6
ID#	Name	R.Time	Area	Height	Conc.	Curve	3rd	2nd	1st	Constant	Area Ratio	Height Ratio	Conc. %	Norm Conc.
1	CO	1.476	30712	14548	216.827	Linear	0.000000e+00	0.000000e+00	1.416423e+002	0.000000e+00	0	0	35.017	35.017
2	CH4	1.567	4845	2364	93.687	Linear	0.000000e+00	0.000000e+00	5.171738e+001	0.000000e+00	0	0	15.130	15.130
3	CO2	1.996	1229979	581528	308.691	Linear	0.000000e+00	0.000000e+00	3.984494e+003	0.000000e+00	0	0	49.853	49.853
4	Ethylene	0.000	0	0	0.000	Linear	0.000000e+00	0.000000e+00	0.000000e+00	0.000000e+00	0	0	0.000	0.000
5	Acetylene	0.000	0	0	0.000	Linear	0.000000e+00	0.000000e+00	0.000000e+00	0.000000e+00	0	0	0.000	0.000
6	Ethane	0.000	0	0	0.000	Linear	0.000000e+00	0.000000e+00	0.000000e+00	0.000000e+00	0	0	0.000	0.000

[Compound Results(Ch2)]
# of IDs	5
ID#	Name	R.Time	Area	Height	Conc.	Curve	3rd	2nd	1st	Constant	Area Ratio	Height Ratio	Conc. %	Norm Conc.
1	Hydrogen	0.000	0	0	0.000	Linear	0.000000e+00	0.000000e+00	0.000000e+00	0.000000e+00	0	0	0.000	0.000
2	Oxygen	0.000	0	0	0.000	Linear	0.000000e+00	0.000000e+00	0.000000e+00	0.000000e+00	0	0	0.000	0.000
3	Nitrogen	0.000	0	0	0.000	Linear	0.000000e+00	0.000000e+00	0.000000e+00	0.000000e+00	0	0	0.000	0.000
4	Methane	0.000	0	0	0.000	Linear	0.000000e+00	0.000000e+00	0.000000e+00	0.000000e+00	0	0	0.000	0.000
5	Carbon Monoxide	0.000	0	0	0.000	Linear	0.000000e+00	0.000000e+00	0.000000e+00	0.000000e+00	0	0	0.000	0.000

[Compound Results(Ch3)]
# of IDs	2
ID#	Name	R.Time	Area	Height	Conc.	Curve	3rd	2nd	1st	Constant	Area Ratio	Height Ratio	Conc. %	Norm Conc.
1	N2O	2.873	18891	4883	0.483	Linear	0.000000e+00	0.000000e+00	3.915173e+004	0.000000e+00	0	0	100.000	100.000
2	SF6	0.000	0	0	0.000	Linear	0.000000e+00	0.000000e+00	0.000000e+00	0.000000e+00	0	0	0.000	0.000

[Group Results(Ch1)]
# of Groups	0

[Group Results(Ch2)]
# of Groups	0

[Group Results(Ch3)]
# of Groups	0

[Chromatogram (Ch1)]
Interval(msec)	220
# of Points	1091
Start Time(min)	0.002
End Time(min)	3.998
R.Time (min)	Intensity
0.00167	-16
0.00533	-15
0.00900	-12
0.01267	-9
0.01633	-6
0.02000	-3
0.02367	1
0.02733	4
0.03100	5
0.03467	7
0.03833	10
0.04200	16
0.04567	23
0.04933	33
0.05300	43
0.05667	50
0.06033	53
0.06400	49
0.06767	37
0.07133	20
0.07500	6
0.07867	-3
0.08233	-9
0.08600	-12
0.08967	-13
0.09333	-12
0.09700	-11
0.10067	-8
0.10433	-4
0.10800	-0
0.11167	6
0.11533	15
0.11900	22
0.12267	25
0.12633	26
0.13000	26
0.13367	25
0.13733	23
0.14100	17
0.14467	5
0.14833	-9
0.15200	-19
0.15567	-22
0.15933	-20
0.16300	-17
0.16667	-12
0.17033	-9
0.17400	-5
0.17767	-1
0.18133	4
0.18500	7
0.18867	5
0.19233	2
0.19600	4
0.19967	8
0.20333	13
0.20700	17
0.21067	17
0.21433	13
0.21800	9
0.22167	5
0.22533	0
0.22900	-3
0.23267	-6
0.23633	-5
0.24000	-1
0.24367	1
0.24733	-2
0.25100	-7
0.25467	-11
0.25833	-9
0.26200	-3
0.26567	3
0.26933	5
0.27300	4
0.27667	3
0.28033	1
0.28400	-3
0.28767	-11
0.29133	-18
0.29500	-20
0.29867	-20
0.30233	-20
0.30600	-19
0.30967	-18
0.31333	-12
0.31700	-2
0.32067	9
0.32433	13
0.32800	11
0.33167	6
0.33533	-2
0.33900	-9
0.34267	-15
0.34633	-18
0.35000	-17
0.35367	-16
0.35733	-15
0.36100	-14
0.36467	-14
0.36833	-10
0.37200	-4
0.37567	1
0.37933	4
0.38300	6
0.38667	4
0.39033	3
0.39400	2
0.39767	1
0.40133	-2
0.40500	-3
0.40867	2
0.41233	10
0.41600	17
0.41967	23
0.42333	26
0.42700	24
0.43067	16
0.43433	6
0.43800	-3
0.44167	-11
0.44533	-19
0.44900	-26
0.45267	-29
0.45633	-28
0.46000	-21
0.46367	-13
0.46733	-5
0.47100	2
0.47467	3
0.47833	-0
0.48200	-6
0.48567	-12
0.48933	-19
0.49300	-26
0.49667	-31
0.50033	-31
0.50400	-25
0.50767	-18
0.51133	-11
0.51500	-7
0.51867	-10
0.52233	-20
0.52600	-30
0.52967	-34
0.53333	-33
0.53700	-25
0.54067	-16
0.54433	-11
0.54800	-11
0.55167	-12
0.55533	-10
0.55900	-4
0.56267	-1
0.56633	-2
0.57000	-7
0.57367	-15
0.57733	-26
0.58100	-34
0.58467	-36
0.58833	-31
0.59200	-23
0.59567	-21
0.59933	-25
0.60300	-29
0.60667	-32
0.61033	-33
0.61400	-32
0.61767	-29
0.62133	-23
0.62500	-16
0.62867	-9
0.63233	-4
0.63600	1
0.63967	5
0.64333	6
0.64700	0
0.65067	-11
0.65433	-24
0.65800	-38
0.66167	-44
0.66533	-44
0.66900	-42
0.67267	-40
0.67633	-40
0.68000	-40
0.68367	-42
0.68733	-44
0.69100	-42
0.69467	-35
0.69833	-21
0.70200	-11
0.70567	-5
0.70933	-6
0.71300	-13
0.71667	-20
0.72033	-24
0.72400	-23
0.72767	-21
0.73133	-16
0.73500	-7
0.73867	4
0.74233	11
0.74600	8
0.74967	-5
0.75333	-20
0.75700	-34
0.76067	-40
0.76433	-35
0.76800	-29
0.77167	-28
0.77533	-31
0.77900	-30
0.78267	-25
0.78633	-18
0.79000	-11
0.79367	-2
0.79733	7
0.80100	10
0.80467	9
0.80833	9
0.81200	9
0.81567	8
0.81933	6
0.82300	2
0.82667	-2
0.83033	-3
0.83400	-0
0.83767	2
0.84133	5
0.84500	6
0.84867	6
0.85233	5
0.85600	3
0.85967	5
0.86333	9
0.86700	14
0.87067	19
0.87433	22
0.87800	27
0.88167	30
0.88533	31
0.88900	25
0.89267	13
0.89633	-1
0.90000	-11
0.90367	-15
0.90733	-18
0.91100	-17
0.91467	-13
0.91833	-5
0.92200	2
0.92567	3
0.92933	-0
0.93300	-6
0.93667	-9
0.94033	-7
0.94400	-4
0.94767	-4
0.95133	-6
0.95500	-9
0.95867	-11
0.96233	-10
0.96600	-10
0.96967	-7
0.97333	-5
0.97700	-6
0.98067	-6
0.98433	-4
0.98800	1
0.99167	7
0.99533	8
0.99900	8
1.00267	5
1.00633	1
1.01000	-2
1.01367	-1
1.01733	4
1.02100	6
1.02467	4
1.02833	1
1.03200	-2
1.03567	-10
1.03933	-18
1.04300	-24
1.04667	-27
1.05033	-28
1.05400	-28
1.05767	-28
1.06133	-30
1.06500	-31
1.06867	-32
1.07233	-33
1.07600	-34
1.07967	-31
1.08333	-27
1.08700	-23
1.09067	-19
1.09433	-19
1.09800	-25
1.10167	-31
1.10533	-33
1.10900	-33
1.11267	-33
1.11633	-33
1.12000	-34
1.12367	-32
1.12733	-28
1.13100	-26
1.13467	-25
1.13833	-25
1.14200	-24
1.14567	-22
1.14933	-21
1.15300	-23
1.15667	-27
1.16033	-32
1.16400	-34
1.16767	-32
1.17133	-28
1.17500	-23
1.17867	-16
1.18233	-6
1.18600	3
1.18967	6
1.19333	-1
1.19700	-14
1.20067	-29
1.20433	-37
1.20800	-39
1.21167	-38
1.21533	-37
1.21900	-40
1.22267	-43
1.22633	-42
1.23000	-36
1.23367	-31
1.23733	-28
1.24100	-27
1.24467	-27
1.24833	-29
1.25200	-33
1.25567	-39
1.25933	-46
1.26300	-52
1.26667	-54
1.27033	-52
1.27400	-49
1.27767	-46
1.28133	-40
1.28500	-36
1.28867	-35
1.29233	-36
1.29600	-41
1.29967	-45
1.30333	-43
1.30700	-37
1.31067	-32
1.31433	-31
1.31800	-35
1.32167	-42
1.32533	-45
1.32900	-44
1.33267	-42
1.33633	-45
1.34000	-45
1.34367	-40
1.34733	-32
1.35100	-26
1.35467	-23
1.35833	-22
1.36200	-27
1.36567	-35
1.36933	-40
1.37300	-41
1.37667	-43
1.38033	-48
1.38400	-55
1.38767	-59
1.39133	-61
1.39500	-62
1.39867	-65
1.40233	-67
1.40600	-68
1.40967	-67
1.41333	-66
1.41700	-64
1.42067	-61
1.42433	-57
1.42800	-52
1.43167	-48
1.43533	-45
1.43900	-19
1.44267	89
1.44633	351
1.45000	994
1.45367	2460
1.45733	4847
1.46100	7669
1.46467	10323
1.46833	12455
1.47200	13902
1.47567	14532
1.47933	14222
1.48300	12985
1.48667	11063
1.49033	8859
1.49400	6752
1.49767	4972
1.50133	3586
1.50500	2565
1.50867	1840
1.51233	1333
1.51600	981
1.51967	733
1.52333	555
1.52700	425
1.53067	331
1.53433	266
1.53800	237
1.54167	281
1.54533	459
1.54900	789
1.55267	1215
1.55633	1641
1.56000	1996
1.56367	2242
1.56733	2357
1.57100	2316
1.57467	2108
1.57833	1771
1.58200	1385
1.58567	1022
1.58933	722
1.59300	494
1.59667	331
1.60033	216
1.60400	141
1.60767	98
1.61133	72
1.61500	49
1.61867	31
1.62233	16
1.62600	4
1.62967	-2
1.63333	-5
1.63700	-6
1.64067	-5
1.64433	-4
1.64800	-4
1.65167	-5
1.65533	-12
1.65900	-22
1.66267	-33
1.66633	-40
1.67000	-43
1.67367	-44
1.67733	-41
1.68100	-37
1.68467	-34
1.68833	-31
1.69200	-30
1.69567	-29
1.69933	-26
1.70300	-25
1.70667	-28
1.71033	-35
1.71400	-42
1.71767	-46
1.72133	-45
1.72500	-41
1.72867	-39
1.73233	-39
1.73600	-37
1.73967	-35
1.74333	-31
1.74700	-31
1.75067	-32
1.75433	-33
1.75800	-33
1.76167	-31
1.76533	-31
1.76900	-36
1.77267	-44
1.77633	-52
1.78000	-57
1.78367	-57
1.78733	-50
1.79100	-43
1.79467	-40
1.79833	-39
1.80200	-40
1.80567	-41
1.80933	-43
1.81300	-49
1.81667	-55
1.82033	-57
1.82400	-58
1.82767	-59
1.83133	-58
1.83500	-53
1.83867	-47
1.84233	-43
1.84600	-46
1.84967	-47
1.85333	-49
1.85700	-51
1.86067	-52
1.86433	-51
1.86800	-44
1.87167	-34
1.87533	-24
1.87900	-20
1.88267	-19
1.88633	-17
1.89000	-12
1.89367	-11
1.89733	-17
1.90100	-26
1.90467	-34
1.90833	-38
1.91200	-38
1.91567	-37
1.91933	-36
1.92300	-31
1.92667	-22
1.93033	-12
1.93400	-7
1.93767	-10
1.94133	-16
1.94500	-20
1.94867	-19
1.95233	-1
1.95600	117
1.95967	759
1.96333	3575
1.96700	13053
1.97067	37547
1.97433	86953
1.97800	166118
1.98167	268623
1.98533	378302
1.98900	476458
1.99267	547676
1.99633	581557
2.00000	573815
2.00367	527648
2.00733	453778
2.01100	367277
2.01467	282297
2.01833	208331
2.02200	149375
2.02567	105265
2.02933	73681
2.03300	51723
2.03667	36733
2.04033	26594
2.04400	19748
2.04767	15096
2.05133	11897
2.05500	9660
2.05867	8062
2.06233	6891
2.06600	6008
2.06967	5324
2.07333	4784
2.07700	4348
2.08067	3986
2.08433	3680
2.08800	3416
2.09167	3187
2.09533	2992
2.09900	2822
2.10267	2673
2.10633	2536
2.11000	2407
2.11367	2286
2.11733	2175
2.12100	2074
2.12467	1985
2.12833	1903
2.13200	1827
2.13567	1755
2.13933	1689
2.14300	1628
2.14667	1570
2.15033	1517
2.15400	1465
2.15767	1416
2.16133	1374
2.16500	1334
2.16867	1292
2.17233	1249
2.17600	1205
2.17967	1164
2.18333	1125
2.18700	1093
2.19067	1066
2.19433	1046
2.19800	1031
2.20167	1016
2.20533	997
2.20900	974
2.21267	948
2.21633	925
2.22000	902
2.22367	873
2.22733	844
2.23100	821
2.23467	802
2.23833	783
2.24200	768
2.24567	759
2.24933	753
2.25300	746
2.25667	734
2.26033	716
2.26400	698
2.26767	679
2.27133	661
2.27500	644
2.27867	628
2.28233	616
2.28600	606
2.28967	598
2.29333	591
2.29700	586
2.30067	579
2.30433	571
2.30800	563
2.31167	558
2.31533	550
2.31900	544
2.32267	540
2.32633	539
2.33000	535
2.33367	529
2.33733	524
2.34100	523
2.34467	523
2.34833	521
2.35200	512
2.35567	500
2.35933	490
2.36300	486
2.36667	483
2.37033	480
2.37400	477
2.37767	471
2.38133	462
2.38500	453
2.38867	446
2.39233	444
2.39600	445
2.39967	445
2.40333	444
2.40700	443
2.41067	441
2.41433	439
2.41800	436
2.42167	433
2.42533	431
2.42900	430
2.43267	432
2.43633	431
2.44000	425
2.44367	415
2.44733	405
2.45100	398
2.45467	394
2.45833	388
2.46200	385
2.46567	383
2.46933	381
2.47300	379
2.47667	375
2.48033	373
2.48400	370
2.48767	369
2.49133	369
2.49500	369
2.49867	368
2.50233	365
2.50600	362
2.50967	357
2.51333	352
2.51700	354
2.52067	362
2.52433	376
2.52800	387
2.53167	391
2.53533	388
2.53900	380
2.54267	373
2.54633	365
2.55000	360
2.55367	358
2.55733	359
2.56100	362
2.56467	362
2.56833	358
2.57200	351
2.57567	344
2.57933	340
2.58300	337
2.58667	334
2.59033	333
2.59400	331
2.59767	328
2.60133	325
2.60500	321
2.60867	318
2.61233	318
2.61600	322
2.61967	326
2.62333	329
2.62700	330
2.63067	330
2.63433	328
2.63800	326
2.64167	330
2.64533	338
2.64900	342
2.65267	337
2.65633	328
2.66000	322
2.66367	319
2.66733	318
2.67100	315
2.67467	313
2.67833	314
2.68200	318
2.68567	320
2.68933	323
2.69300	329
2.69667	331
2.70033	330
2.70400	328
2.70767	325
2.71133	319
2.71500	312
2.71867	308
2.72233	309
2.72600	314
2.72967	318
2.73333	319
2.73700	318
2.74067	313
2.74433	310
2.74800	310
2.75167	312
2.75533	311
2.75900	310
2.76267	307
2.76633	299
2.77000	290
2.77367	283
2.77733	282
2.78100	289
2.78467	302
2.78833	313
2.79200	319
2.79567	322
2.79933	322
2.80300	317
2.80667	313
2.81033	311
2.81400	310
2.81767	307
2.82133	304
2.82500	304
2.82867	308
2.83233	315
2.83600	321
2.83967	323
2.84333	325
2.84700	330
2.85067	335
2.85433	338
2.85800	337
2.86167	334
2.86533	327
2.86900	324
2.87267	323
2.87633	325
2.88000	325
2.88367	320
2.88733	313
2.89100	309
2.89467	309
2.89833	315
2.90200	324
2.90567	329
2.90933	327
2.91300	323
2.91667	318
2.92033	316
2.92400	314
2.92767	310
2.93133	307
2.93500	307
2.93867	308
2.94233	310
2.94600	313
2.94967	312
2.95333	309
2.95700	309
2.96067	312
2.96433	315
2.96800	315
2.97167	314
2.97533	316
2.97900	322
2.98267	335
2.98633	348
2.99000	354
2.99367	354
2.99733	349
3.00100	343
3.00467	336
3.00833	331
3.01200	328
3.01567	327
3.01933	323
3.02300	315
3.02667	308
3.03033	308
3.03400	309
3.03767	310
3.04133	310
3.04500	310
3.04867	309
3.05233	310
3.05600	312
3.05967	318
3.06333	328
3.06700	338
3.07067	336
3.07433	328
3.07800	322
3.08167	319
3.08533	319
3.08900	319
3.09267	321
3.09633	321
3.10000	323
3.10367	327
3.10733	326
3.11100	320
3.11467	315
3.11833	311
3.12200	308
3.12567	305
3.12933	305
3.13300	306
3.13667	306
3.14033	308
3.14400	312
3.14767	315
3.15133	321
3.15500	328
3.15867	332
3.16233	331
3.16600	323
3.16967	316
3.17333	312
3.17700	306
3.18067	299
3.18433	294
3.18800	290
3.19167	290
3.19533	293
3.19900	298
3.20267	306
3.20633	313
3.21000	316
3.21367	317
3.21733	319
3.22100	323
3.22467	328
3.22833	332
3.23200	331
3.23567	327
3.23933	321
3.24300	315
3.24667	310
3.25033	307
3.25400	306
3.25767	305
3.26133	305
3.26500	305
3.26867	304
3.27233	301
3.27600	299
3.27967	298
3.28333	300
3.28700	306
3.29067	311
3.29433	313
3.29800	310
3.30167	307
3.30533	301
3.30900	295
3.31267	294
3.31633	298
3.32000	302
3.32367	302
3.32733	299
3.33100	296
3.33467	296
3.33833	299
3.34200	304
3.34567	307
3.34933	307
3.35300	307
3.35667	308
3.36033	312
3.36400	318
3.36767	326
3.37133	332
3.37500	330
3.37867	324
3.38233	317
3.38600	312
3.38967	312
3.39333	314
3.39700	310
3.40067	298
3.40433	283
3.40800	272
3.41167	269
3.41533	273
3.41900	279
3.42267	283
3.42633	286
3.43000	287
3.43367	288
3.43733	287
3.44100	284
3.44467	279
3.44833	273
3.45200	269
3.45567	269
3.45933	268
3.46300	266
3.46667	267
3.47033	271
3.47400	279
3.47767	284
3.48133	285
3.48500	284
3.48867	280
3.49233	279
3.49600	279
3.49967	278
3.50333	279
3.50700	284
3.51067	291
3.51433	298
3.51800	304
3.52167	307
3.52533	307
3.52900	305
3.53267	300
3.53633	295
3.54000	288
3.54367	283
3.54733	282
3.55100	281
3.55467	277
3.55833	275
3.56200	276
3.56567	276
3.56933	274
3.57300	271
3.57667	269
3.58033	268
3.58400	265
3.58767	262
3.59133	263
3.59500	266
3.59867	267
3.60233	266
3.60600	265
3.60967	264
3.61333	265
3.61700	259
3.62067	254
3.62433	248
3.62800	242
3.63167	241
3.63533	244
3.63900	250
3.64267	255
3.64633	254
3.65000	251
3.65367	248
3.65733	250
3.66100	253
3.66467	255
3.66833	260
3.67200	265
3.67567	269
3.67933	271
3.68300	273
3.68667	272
3.69033	268
3.69400	262
3.69767	261
3.70133	262
3.70500	257
3.70867	249
3.71233	244
3.71600	245
3.71967	249
3.72333	253
3.72700	256
3.73067	257
3.73433	253
3.73800	244
3.74167	235
3.74533	228
3.74900	227
3.75267	228
3.75633	226
3.76000	225
3.76367	226
3.76733	228
3.77100	231
3.77467	231
3.77833	234
3.78200	238
3.78567	239
3.78933	241
3.79300	242
3.79667	241
3.80033	240
3.80400	239
3.80767	241
3.81133	244
3.81500	244
3.81867	246
3.82233	247
3.82600	248
3.82967	251
3.83333	252
3.83700	249
3.84067	243
3.84433	237
3.84800	231
3.85167	227
3.85533	227
3.85900	227
3.86267	228
3.86633	229
3.87000	225
3.87367	221
3.87733	218
3.88100	215
3.88467	209
3.88833	201
3.89200	197
3.89567	197
3.89933	200
3.90300	206
3.90667	216
3.91033	226
3.91400	236
3.91767	241
3.92133	243
3.92500	239
3.92867	229
3.93233	216
3.93600	204
3.93967	197
3.94333	189
3.94700	183
3.95067	183
3.95433	188
3.95800	197
3.96167	205
3.96533	211
3.96900	214
3.97267	216
3.97633	217
3.98000	215
3.98367	212
3.98733	208
3.99100	200
3.99467	191
3.99833	186

[Chromatogram (Ch2)]
Interval(msec)	220
# of Points	1091
Start Time(min)	0.002
End Time(min)	3.998
R.Time (min)	Intensity
0.00167	0
0.00533	0
0.00900	0
0.01267	-0
0.01633	-1
0.02000	-2
0.02367	-2
0.02733	-2
0.03100	-2
0.03467	-3
0.03833	-3
0.04200	-3
0.04567	-3
0.04933	-3
0.05300	-3
0.05667	-3
0.06033	-3
0.06400	-2
0.06767	-2
0.07133	-2
0.07500	-2
0.07867	-2
0.08233	-1
0.08600	-1
0.08967	-1
0.09333	-1
0.09700	-0
0.10067	-0
0.10433	0
0.10800	0
0.11167	0
0.11533	0
0.11900	0
0.12267	-0
0.12633	-0
0.13000	-0
0.13367	-1
0.13733	-1
0.14100	-1
0.14467	-2
0.14833	-2
0.15200	-1
0.15567	-1
0.15933	-0
0.16300	0
0.16667	1
0.17033	1
0.17400	1
0.17767	1
0.18133	1
0.18500	1
0.18867	1
0.19233	0
0.19600	0
0.19967	0
0.20333	-0
0.20700	-0
0.21067	-1
0.21433	-1
0.21800	-1
0.22167	-1
0.22533	-1
0.22900	-2
0.23267	-2
0.23633	-2
0.24000	-2
0.24367	-2
0.24733	-2
0.25100	-2
0.25467	-2
0.25833	-1
0.26200	-1
0.26567	-1
0.26933	-1
0.27300	-1
0.27667	-1
0.28033	-1
0.28400	-1
0.28767	-1
0.29133	-1
0.29500	-1
0.29867	-1
0.30233	-1
0.30600	-1
0.30967	-1
0.31333	-1
0.31700	-1
0.32067	-0
0.32433	-0
0.32800	0
0.33167	0
0.33533	0
0.33900	1
0.34267	1
0.34633	1
0.35000	1
0.35367	1
0.35733	1
0.36100	1
0.36467	1
0.36833	1
0.37200	1
0.37567	1
0.37933	2
0.38300	2
0.38667	2
0.39033	2
0.39400	2
0.39767	1
0.40133	1
0.40500	1
0.40867	1
0.41233	1
0.41600	0
0.41967	0
0.42333	-0
0.42700	0
0.43067	0
0.43433	0
0.43800	0
0.44167	0
0.44533	0
0.44900	-0
0.45267	-0
0.45633	-0
0.46000	-1
0.46367	-1
0.46733	-1
0.47100	-1
0.47467	-1
0.47833	-1
0.48200	-1
0.48567	-1
0.48933	-1
0.49300	-1
0.49667	-1
0.50033	-2
0.50400	-2
0.50767	-2
0.51133	-2
0.51500	-2
0.51867	-2
0.52233	-2
0.52600	-2
0.52967	-2
0.53333	-2
0.53700	-2
0.54067	-3
0.54433	-3
0.54800	-3
0.55167	-4
0.55533	-4
0.55900	-4
0.56267	-5
0.56633	-5
0.57000	-5
0.57367	-5
0.57733	-5
0.58100	-5
0.58467	-5
0.58833	-4
0.59200	-4
0.59567	-3
0.59933	-3
0.60300	-3
0.60667	-2
0.61033	-2
0.61400	-2
0.61767	-2
0.62133	-1
0.62500	-1
0.62867	-1
0.63233	-0
0.63600	-0
0.63967	0
0.64333	0
0.64700	0
0.65067	0
0.65433	0
0.65800	0
0.66167	0
0.66533	0
0.66900	0
0.67267	0
0.67633	0
0.68000	-0
0.68367	-0
0.68733	-1
0.69100	-1
0.69467	-2
0.69833	-3
0.70200	-3
0.70567	-3
0.70933	-4
0.71300	-4
0.71667	-5
0.72033	-6
0.72400	-6
0.72767	-6
0.73133	-6
0.73500	-7
0.73867	-7
0.74233	-7
0.74600	-7
0.74967	-7
0.75333	-7
0.75700	-6
0.76067	-6
0.76433	-6
0.76800	-5
0.77167	-5
0.77533	-5
0.77900	-5
0.78267	-5
0.78633	-5
0.79000	-5
0.79367	-5
0.79733	-5
0.80100	-5
0.80467	-5
0.80833	-4
0.81200	-4
0.81567	-4
0.81933	-4
0.82300	-4
0.82667	-4
0.83033	-4
0.83400	-4
0.83767	-4
0.84133	-4
0.84500	-4
0.84867	-4
0.85233	-3
0.85600	-3
0.85967	-3
0.86333	-2
0.86700	-2
0.87067	-2
0.87433	-2
0.87800	-3
0.88167	-3
0.88533	-2
0.88900	-2
0.89267	-2
0.89633	-2
0.90000	-1
0.90367	-1
0.90733	-0
0.91100	-0
0.91467	0
0.91833	0
0.92200	0
0.92567	0
0.92933	0
0.93300	0
0.93667	0
0.94033	0
0.94400	0
0.94767	-0
0.95133	-0
0.95500	-1
0.95867	-1
0.96233	-1
0.96600	-1
0.96967	-2
0.97333	-2
0.97700	-2
0.98067	-3
0.98433	-3
0.98800	-3
0.99167	-4
0.99533	-4
0.99900	-4
1.00267	-4
1.00633	-4
1.01000	-4
1.01367	-4
1.01733	-4
1.02100	-4
1.02467	-4
1.02833	-4
1.03200	-3
1.03567	-3
1.03933	-3
1.04300	-2
1.04667	-2
1.05033	-2
1.05400	-1
1.05767	-1
1.06133	-1
1.06500	-1
1.06867	-1
1.07233	-1
1.07600	-1
1.07967	-1
1.08333	-1
1.08700	-1
1.09067	-2
1.09433	-2
1.09800	-2
1.10167	-3
1.10533	-3
1.10900	-3
1.11267	-3
1.11633	-3
1.12000	-3
1.12367	-3
1.12733	-3
1.13100	-3
1.13467	-3
1.13833	-3
1.14200	-3
1.14567	-3
1.14933	-3
1.15300	-3
1.15667	-3
1.16033	-3
1.16400	-3
1.16767	-3
1.17133	-3
1.17500	-3
1.17867	-3
1.18233	-3
1.18600	-3
1.18967	-2
1.19333	-2
1.19700	-2
1.20067	-1
1.20433	-1
1.20800	-1
1.21167	-2
1.21533	-2
1.21900	-3
1.22267	-3
1.22633	-4
1.23000	-4
1.23367	-5
1.23733	-5
1.24100	-6
1.24467	-6
1.24833	-7
1.25200	-7
1.25567	-6
1.25933	-6
1.26300	-5
1.26667	-5
1.27033	-4
1.27400	-3
1.27767	-3
1.28133	-3
1.28500	-2
1.28867	-2
1.29233	-2
1.29600	-3
1.29967	-3
1.30333	-3
1.30700	-3
1.31067	-2
1.31433	-2
1.31800	-3
1.32167	-3
1.32533	-2
1.32900	-2
1.33267	-2
1.33633	-2
1.34000	-2
1.34367	-2
1.34733	-2
1.35100	-2
1.35467	-2
1.35833	-2
1.36200	-2
1.36567	-2
1.36933	-3
1.37300	-3
1.37667	-3
1.38033	-3
1.38400	-4
1.38767	-4
1.39133	-4
1.39500	-5
1.39867	-5
1.40233	-5
1.40600	-5
1.40967	-5
1.41333	-5
1.41700	-5
1.42067	-4
1.42433	-4
1.42800	-4
1.43167	-4
1.43533	-3
1.43900	-3
1.44267	-3
1.44633	-3
1.45000	-3
1.45367	-2
1.45733	-2
1.46100	-2
1.46467	-2
1.46833	-2
1.47200	-2
1.47567	-2
1.47933	-3
1.48300	-3
1.48667	-3
1.49033	-3
1.49400	-3
1.49767	-3
1.50133	-3
1.50500	-3
1.50867	-3
1.51233	-3
1.51600	-4
1.51967	-4
1.52333	-4
1.52700	-5
1.53067	-5
1.53433	-6
1.53800	-6
1.54167	-7
1.54533	-7
1.54900	-8
1.55267	-8
1.55633	-8
1.56000	-7
1.56367	-7
1.56733	-7
1.57100	-7
1.57467	-7
1.57833	-7
1.58200	-7
1.58567	-6
1.58933	-6
1.59300	-7
1.59667	-7
1.60033	-8
1.60400	-8
1.60767	-9
1.61133	-11
1.61500	-12
1.61867	-14
1.62233	-17
1.62600	-19
1.62967	-22
1.63333	-25
1.63700	-29
1.64067	-32
1.64433	-35
1.64800	-39
1.65167	-43
1.65533	-46
1.65900	-50
1.66267	-54
1.66633	-58
1.67000	-63
1.67367	-67
1.67733	-72
1.68100	-78
1.68467	-82
1.68833	-87
1.69200	-91
1.69567	-95
1.69933	-99
1.70300	-101
1.70667	-104
1.71033	-105
1.71400	-107
1.71767	-108
1.72133	-110
1.72500	-111
1.72867	-112
1.73233	-113
1.73600	-115
1.73967	-115
1.74333	-116
1.74700	-116
1.75067	-116
1.75433	-116
1.75800	-116
1.76167	-115
1.76533	-116
1.76900	-116
1.77267	-117
1.77633	-118
1.78000	-118
1.78367	-119
1.78733	-119
1.79100	-119
1.79467	-119
1.79833	-118
1.80200	-118
1.80567	-117
1.80933	-117
1.81300	-117
1.81667	-117
1.82033	-118
1.82400	-118
1.82767	-119
1.83133	-119
1.83500	-119
1.83867	-120
1.84233	-120
1.84600	-120
1.84967	-120
1.85333	-120
1.85700	-121
1.86067	-121
1.86433	-122
1.86800	-122
1.87167	-122
1.87533	-122
1.87900	-122
1.88267	-122
1.88633	-121
1.89000	-121
1.89367	-120
1.89733	-119
1.90100	-118
1.90467	-117
1.90833	-117
1.91200	-117
1.91567	-117
1.91933	-117
1.92300	-117
1.92667	-117
1.93033	-117
1.93400	-117
1.93767	-116
1.94133	-116
1.94500	-116
1.94867	-115
1.95233	-115
1.95600	-115
1.95967	-115
1.96333	-115
1.96700	-115
1.97067	-115
1.97433	-115
1.97800	-114
1.98167	-114
1.98533	-113
1.98900	-113
1.99267	-113
1.99633	-112
2.00000	-112
2.00367	-113
2.00733	-113
2.01100	-112
2.01467	-112
2.01833	-111
2.02200	-110
2.02567	-109
2.02933	-109
2.03300	-108
2.03667	-108
2.04033	-107
2.04400	-107
2.04767	-107
2.05133	-107
2.05500	-108
2.05867	-108
2.06233	-108
2.06600	-108
2.06967	-107
2.07333	-107
2.07700	-106
2.08067	-106
2.08433	-106
2.08800	-105
2.09167	-105
2.09533	-105
2.09900	-104
2.10267	-104
2.10633	-104
2.11000	-104
2.11367	-104
2.11733	-104
2.12100	-104
2.12467	-104
2.12833	-104
2.13200	-103
2.13567	-103
2.13933	-102
2.14300	-102
2.14667	-101
2.15033	-101
2.15400	-101
2.15767	-100
2.16133	-100
2.16500	-100
2.16867	-100
2.17233	-100
2.17600	-99
2.17967	-99
2.18333	-99
2.18700	-99
2.19067	-99
2.19433	-99
2.19800	-98
2.20167	-98
2.20533	-97
2.20900	-96
2.21267	-95
2.21633	-95
2.22000	-94
2.22367	-93
2.22733	-93
2.23100	-92
2.23467	-91
2.23833	-91
2.24200	-91
2.24567	-91
2.24933	-91
2.25300	-91
2.25667	-90
2.26033	-90
2.26400	-89
2.26767	-89
2.27133	-89
2.27500	-88
2.27867	-88
2.28233	-88
2.28600	-87
2.28967	-87
2.29333	-87
2.29700	-88
2.30067	-89
2.30433	-89
2.30800	-90
2.31167	-90
2.31533	-90
2.31900	-89
2.32267	-88
2.32633	-87
2.33000	-86
2.33367	-85
2.33733	-85
2.34100	-84
2.34467	-84
2.34833	-83
2.35200	-82
2.35567	-81
2.35933	-80
2.36300	-79
2.36667	-77
2.37033	-74
2.37400	-71
2.37767	-68
2.38133	-64
2.38500	-60
2.38867	-56
2.39233	-52
2.39600	-47
2.39967	-43
2.40333	-39
2.40700	-35
2.41067	-31
2.41433	-28
2.41800	-26
2.42167	-24
2.42533	-22
2.42900	-21
2.43267	-20
2.43633	-18
2.44000	-16
2.44367	-14
2.44733	-13
2.45100	-11
2.45467	-9
2.45833	-8
2.46200	-7
2.46567	-5
2.46933	-4
2.47300	-3
2.47667	-1
2.48033	-0
2.48400	1
2.48767	1
2.49133	2
2.49500	3
2.49867	4
2.50233	5
2.50600	6
2.50967	6
2.51333	7
2.51700	7
2.52067	8
2.52433	8
2.52800	9
2.53167	9
2.53533	10
2.53900	10
2.54267	11
2.54633	11
2.55000	12
2.55367	12
2.55733	12
2.56100	12
2.56467	13
2.56833	13
2.57200	13
2.57567	14
2.57933	14
2.58300	14
2.58667	13
2.59033	13
2.59400	13
2.59767	12
2.60133	12
2.60500	12
2.60867	12
2.61233	12
2.61600	13
2.61967	13
2.62333	14
2.62700	14
2.63067	15
2.63433	15
2.63800	15
2.64167	15
2.64533	15
2.64900	16
2.65267	16
2.65633	16
2.66000	17
2.66367	17
2.66733	17
2.67100	17
2.67467	17
2.67833	18
2.68200	18
2.68567	19
2.68933	20
2.69300	20
2.69667	21
2.70033	22
2.70400	22
2.70767	22
2.71133	23
2.71500	23
2.71867	23
2.72233	23
2.72600	23
2.72967	23
2.73333	23
2.73700	23
2.74067	23
2.74433	24
2.74800	24
2.75167	24
2.75533	25
2.75900	25
2.76267	24
2.76633	24
2.77000	24
2.77367	23
2.77733	23
2.78100	23
2.78467	23
2.78833	23
2.79200	23
2.79567	23
2.79933	23
2.80300	23
2.80667	24
2.81033	24
2.81400	24
2.81767	25
2.82133	25
2.82500	25
2.82867	25
2.83233	25
2.83600	24
2.83967	23
2.84333	20
2.84700	15
2.85067	8
2.85433	-3
2.85800	-17
2.86167	-35
2.86533	-57
2.86900	-83
2.87267	-114
2.87633	-149
2.88000	-187
2.88367	-229
2.88733	-274
2.89100	-321
2.89467	-371
2.89833	-423
2.90200	-476
2.90567	-529
2.90933	-583
2.91300	-636
2.91667	-690
2.92033	-743
2.92400	-795
2.92767	-846
2.93133	-899
2.93500	-958
2.93867	-1018
2.94233	-1070
2.94600	-1104
2.94967	-1113
2.95333	-1097
2.95700	-1056
2.96067	-998
2.96433	-926
2.96800	-848
2.97167	-766
2.97533	-686
2.97900	-609
2.98267	-536
2.98633	-469
2.99000	-408
2.99367	-354
2.99733	-305
3.00100	-262
3.00467	-225
3.00833	-191
3.01200	-163
3.01567	-138
3.01933	-116
3.02300	-98
3.02667	-82
3.03033	-69
3.03400	-57
3.03767	-47
3.04133	-39
3.04500	-32
3.04867	-25
3.05233	-20
3.05600	-16
3.05967	-12
3.06333	-9
3.06700	-6
3.07067	-3
3.07433	-1
3.07800	1
3.08167	3
3.08533	5
3.08900	6
3.09267	7
3.09633	9
3.10000	10
3.10367	11
3.10733	11
3.11100	12
3.11467	12
3.11833	13
3.12200	13
3.12567	13
3.12933	13
3.13300	13
3.13667	13
3.14033	13
3.14400	13
3.14767	14
3.15133	14
3.15500	15
3.15867	15
3.16233	16
3.16600	16
3.16967	16
3.17333	16
3.17700	17
3.18067	17
3.18433	17
3.18800	17
3.19167	17
3.19533	17
3.19900	18
3.20267	18
3.20633	18
3.21000	19
3.21367	19
3.21733	20
3.22100	20
3.22467	21
3.22833	21
3.23200	22
3.23567	22
3.23933	23
3.24300	23
3.24667	23
3.25033	23
3.25400	23
3.25767	23
3.26133	23
3.26500	23
3.26867	22
3.27233	22
3.27600	22
3.27967	22
3.28333	23
3.28700	23
3.29067	23
3.29433	23
3.29800	23
3.30167	23
3.30533	22
3.30900	22
3.31267	22
3.31633	22
3.32000	22
3.32367	22
3.32733	22
3.33100	22
3.33467	22
3.33833	22
3.34200	22
3.34567	23
3.34933	23
3.35300	23
3.35667	23
3.36033	24
3.36400	24
3.36767	24
3.37133	24
3.37500	24
3.37867	24
3.38233	24
3.38600	24
3.38967	24
3.39333	24
3.39700	23
3.40067	23
3.40433	23
3.40800	23
3.41167	22
3.41533	22
3.41900	22
3.42267	22
3.42633	22
3.43000	22
3.43367	22
3.43733	22
3.44100	22
3.44467	23
3.44833	23
3.45200	23
3.45567	23
3.45933	23
3.46300	24
3.46667	24
3.47033	25
3.47400	25
3.47767	26
3.48133	26
3.48500	26
3.48867	26
3.49233	26
3.49600	26
3.49967	27
3.50333	27
3.50700	27
3.51067	27
3.51433	27
3.51800	27
3.52167	27
3.52533	27
3.52900	26
3.53267	26
3.53633	26
3.54000	26
3.54367	26
3.54733	26
3.55100	26
3.55467	26
3.55833	26
3.56200	26
3.56567	27
3.56933	27
3.57300	27
3.57667	27
3.58033	27
3.58400	27
3.58767	27
3.59133	27
3.59500	27
3.59867	27
3.60233	27
3.60600	27
3.60967	26
3.61333	26
3.61700	26
3.62067	26
3.62433	26
3.62800	26
3.63167	26
3.63533	26
3.63900	25
3.64267	25
3.64633	25
3.65000	25
3.65367	25
3.65733	25
3.66100	25
3.66467	25
3.66833	25
3.67200	25
3.67567	25
3.67933	24
3.68300	24
3.68667	24
3.69033	24
3.69400	24
3.69767	23
3.70133	23
3.70500	23
3.70867	23
3.71233	23
3.71600	23
3.71967	24
3.72333	24
3.72700	24
3.73067	24
3.73433	24
3.73800	25
3.74167	25
3.74533	26
3.74900	26
3.75267	26
3.75633	26
3.76000	26
3.76367	26
3.76733	26
3.77100	26
3.77467	26
3.77833	26
3.78200	26
3.78567	26
3.78933	26
3.79300	26
3.79667	26
3.80033	25
3.80400	25
3.80767	25
3.81133	24
3.81500	24
3.81867	23
3.82233	23
3.82600	23
3.82967	23
3.83333	23
3.83700	23
3.84067	23
3.84433	23
3.84800	23
3.85167	23
3.85533	24
3.85900	24
3.86267	24
3.86633	25
3.87000	25
3.87367	25
3.87733	25
3.88100	26
3.88467	26
3.88833	26
3.89200	26
3.89567	26
3.89933	26
3.90300	26
3.90667	26
3.91033	26
3.91400	26
3.91767	26
3.92133	26
3.92500	26
3.92867	26
3.93233	25
3.93600	25
3.93967	25
3.94333	25
3.94700	24
3.95067	24
3.95433	24
3.95800	23
3.96167	23
3.96533	23
3.96900	23
3.97267	22
3.97633	22
3.98000	23
3.98367	23
3.98733	23
3.99100	23
3.99467	23
3.99833	24

[Chromatogram (Ch3)]
Interval(msec)	220
# of Points	1091
Start Time(min)	0.002
End Time(min)	3.998
R.Time (min)	Intensity
0.00167	-0
0.00533	-0
0.00900	-3
0.01267	-7
0.01633	-9
0.02000	-11
0.02367	-8
0.02733	-3
0.03100	-1
0.03467	-4
0.03833	-6
0.04200	-8
0.04567	-7
0.04933	-7
0.05300	-6
0.05667	-7
0.06033	-9
0.06400	-11
0.06767	-12
0.07133	-12
0.07500	-11
0.07867	-9
0.08233	-6
0.08600	-6
0.08967	-5
0.09333	-5
0.09700	-6
0.10067	-8
0.10433	-8
0.10800	-6
0.11167	-6
0.11533	-4
0.11900	-4
0.12267	-6
0.12633	-6
0.13000	-5
0.13367	-3
0.13733	-2
0.14100	-5
0.14467	-8
0.14833	-9
0.15200	-9
0.15567	-9
0.15933	-8
0.16300	-5
0.16667	-3
0.17033	-2
0.17400	-2
0.17767	-2
0.18133	-2
0.18500	-3
0.18867	-5
0.19233	-6
0.19600	-7
0.19967	-7
0.20333	-7
0.20700	-8
0.21067	-10
0.21433	-12
0.21800	-13
0.22167	-13
0.22533	-14
0.22900	-14
0.23267	-13
0.23633	-11
0.24000	-8
0.24367	-8
0.24733	-8
0.25100	-10
0.25467	-10
0.25833	-9
0.26200	-9
0.26567	-8
0.26933	-6
0.27300	-6
0.27667	-7
0.28033	-8
0.28400	-8
0.28767	-7
0.29133	-7
0.29500	-6
0.29867	-5
0.30233	-6
0.30600	-6
0.30967	-4
0.31333	-2
0.31700	-3
0.32067	-3
0.32433	-2
0.32800	-2
0.33167	-1
0.33533	-1
0.33900	-2
0.34267	-5
0.34633	-7
0.35000	-6
0.35367	-7
0.35733	-10
0.36100	-13
0.36467	-10
0.36833	-9
0.37200	-7
0.37567	-6
0.37933	-5
0.38300	-5
0.38667	-6
0.39033	-5
0.39400	-4
0.39767	-3
0.40133	-3
0.40500	-3
0.40867	-2
0.41233	-3
0.41600	-5
0.41967	-6
0.42333	-6
0.42700	-6
0.43067	-4
0.43433	-4
0.43800	-6
0.44167	-7
0.44533	-6
0.44900	-6
0.45267	-7
0.45633	-8
0.46000	-8
0.46367	-9
0.46733	-8
0.47100	-6
0.47467	-10
0.47833	-11
0.48200	-9
0.48567	-8
0.48933	-5
0.49300	-2
0.49667	-0
0.50033	-2
0.50400	-2
0.50767	-2
0.51133	-2
0.51500	-3
0.51867	-2
0.52233	-2
0.52600	-2
0.52967	-2
0.53333	-2
0.53700	-4
0.54067	-6
0.54433	-7
0.54800	-8
0.55167	-7
0.55533	-7
0.55900	-7
0.56267	-8
0.56633	-8
0.57000	-8
0.57367	-7
0.57733	-7
0.58100	-7
0.58467	-7
0.58833	-9
0.59200	-9
0.59567	-9
0.59933	-8
0.60300	-8
0.60667	-5
0.61033	-3
0.61400	-3
0.61767	-3
0.62133	-5
0.62500	-6
0.62867	-3
0.63233	-1
0.63600	-1
0.63967	-0
0.64333	-0
0.64700	-3
0.65067	-5
0.65433	-5
0.65800	-6
0.66167	-6
0.66533	-6
0.66900	-7
0.67267	-8
0.67633	-8
0.68000	-8
0.68367	-7
0.68733	-5
0.69100	-6
0.69467	-7
0.69833	-8
0.70200	-9
0.70567	-8
0.70933	-8
0.71300	-7
0.71667	-7
0.72033	-9
0.72400	-10
0.72767	-8
0.73133	-7
0.73500	-7
0.73867	-7
0.74233	-7
0.74600	-7
0.74967	-6
0.75333	-6
0.75700	-5
0.76067	-5
0.76433	-5
0.76800	-4
0.77167	-2
0.77533	-0
0.77900	-1
0.78267	-2
0.78633	-1
0.79000	2
0.79367	3
0.79733	2
0.80100	1
0.80467	-2
0.80833	-3
0.81200	-3
0.81567	-3
0.81933	-2
0.82300	-1
0.82667	1
0.83033	3
0.83400	3
0.83767	2
0.84133	1
0.84500	1
0.84867	-1
0.85233	-3
0.85600	-4
0.85967	-5
0.86333	-6
0.86700	-5
0.87067	-4
0.87433	-4
0.87800	-4
0.88167	-3
0.88533	0
0.88900	2
0.89267	2
0.89633	2
0.90000	4
0.90367	5
0.90733	5
0.91100	4
0.91467	3
0.91833	2
0.92200	1
0.92567	1
0.92933	2
0.93300	1
0.93667	0
0.94033	-0
0.94400	-2
0.94767	-3
0.95133	-2
0.95500	-3
0.95867	-2
0.96233	-2
0.96600	-2
0.96967	-3
0.97333	-3
0.97700	-2
0.98067	-1
0.98433	-1
0.98800	-2
0.99167	-3
0.99533	-5
0.99900	-4
1.00267	-2
1.00633	-0
1.01000	1
1.01367	-0
1.01733	1
1.02100	4
1.02467	5
1.02833	3
1.03200	-1
1.03567	-0
1.03933	2
1.04300	3
1.04667	4
1.05033	5
1.05400	3
1.05767	0
1.06133	1
1.06500	1
1.06867	1
1.07233	1
1.07600	2
1.07967	3
1.08333	1
1.08700	2
1.09067	2
1.09433	3
1.09800	4
1.10167	5
1.10533	4
1.10900	5
1.11267	7
1.11633	7
1.12000	6
1.12367	7
1.12733	8
1.13100	10
1.13467	8
1.13833	6
1.14200	5
1.14567	5
1.14933	3
1.15300	3
1.15667	5
1.16033	9
1.16400	12
1.16767	13
1.17133	11
1.17500	10
1.17867	9
1.18233	9
1.18600	8
1.18967	7
1.19333	7
1.19700	6
1.20067	6
1.20433	9
1.20800	9
1.21167	7
1.21533	7
1.21900	8
1.22267	8
1.22633	8
1.23000	9
1.23367	9
1.23733	10
1.24100	8
1.24467	8
1.24833	9
1.25200	10
1.25567	10
1.25933	12
1.26300	15
1.26667	15
1.27033	13
1.27400	11
1.27767	11
1.28133	12
1.28500	12
1.28867	13
1.29233	14
1.29600	15
1.29967	13
1.30333	12
1.30700	13
1.31067	13
1.31433	13
1.31800	12
1.32167	13
1.32533	13
1.32900	13
1.33267	12
1.33633	12
1.34000	11
1.34367	10
1.34733	9
1.35100	9
1.35467	12
1.35833	13
1.36200	14
1.36567	13
1.36933	13
1.37300	11
1.37667	13
1.38033	15
1.38400	17
1.38767	19
1.39133	19
1.39500	17
1.39867	14
1.40233	12
1.40600	12
1.40967	14
1.41333	15
1.41700	15
1.42067	15
1.42433	14
1.42800	13
1.43167	11
1.43533	12
1.43900	13
1.44267	15
1.44633	17
1.45000	17
1.45367	18
1.45733	19
1.46100	18
1.46467	17
1.46833	16
1.47200	15
1.47567	13
1.47933	13
1.48300	14
1.48667	13
1.49033	11
1.49400	7
1.49767	8
1.50133	11
1.50500	14
1.50867	15
1.51233	15
1.51600	16
1.51967	17
1.52333	19
1.52700	19
1.53067	19
1.53433	19
1.53800	18
1.54167	18
1.54533	19
1.54900	20
1.55267	19
1.55633	16
1.56000	15
1.56367	16
1.56733	15
1.57100	14
1.57467	14
1.57833	13
1.58200	13
1.58567	14
1.58933	14
1.59300	13
1.59667	14
1.60033	14
1.60400	15
1.60767	17
1.61133	18
1.61500	19
1.61867	21
1.62233	21
1.62600	20
1.62967	18
1.63333	16
1.63700	15
1.64067	15
1.64433	18
1.64800	20
1.65167	20
1.65533	21
1.65900	21
1.66267	18
1.66633	16
1.67000	18
1.67367	20
1.67733	23
1.68100	26
1.68467	26
1.68833	25
1.69200	25
1.69567	28
1.69933	29
1.70300	28
1.70667	30
1.71033	31
1.71400	31
1.71767	32
1.72133	34
1.72500	34
1.72867	36
1.73233	36
1.73600	35
1.73967	33
1.74333	32
1.74700	33
1.75067	35
1.75433	37
1.75800	38
1.76167	37
1.76533	36
1.76900	36
1.77267	37
1.77633	37
1.78000	36
1.78367	34
1.78733	34
1.79100	38
1.79467	41
1.79833	42
1.80200	42
1.80567	41
1.80933	41
1.81300	40
1.81667	40
1.82033	41
1.82400	43
1.82767	44
1.83133	45
1.83500	44
1.83867	42
1.84233	41
1.84600	41
1.84967	39
1.85333	39
1.85700	42
1.86067	44
1.86433	46
1.86800	44
1.87167	43
1.87533	44
1.87900	45
1.88267	46
1.88633	46
1.89000	46
1.89367	46
1.89733	45
1.90100	46
1.90467	48
1.90833	51
1.91200	53
1.91567	55
1.91933	57
1.92300	58
1.92667	58
1.93033	58
1.93400	61
1.93767	62
1.94133	62
1.94500	60
1.94867	61
1.95233	63
1.95600	63
1.95967	61
1.96333	62
1.96700	63
1.97067	62
1.97433	62
1.97800	63
1.98167	63
1.98533	64
1.98900	66
1.99267	65
1.99633	64
2.00000	65
2.00367	65
2.00733	65
2.01100	65
2.01467	67
2.01833	67
2.02200	66
2.02567	66
2.02933	67
2.03300	71
2.03667	74
2.04033	76
2.04400	77
2.04767	76
2.05133	78
2.05500	77
2.05867	77
2.06233	78
2.06600	76
2.06967	76
2.07333	77
2.07700	78
2.08067	81
2.08433	82
2.08800	83
2.09167	84
2.09533	85
2.09900	86
2.10267	86
2.10633	85
2.11000	84
2.11367	85
2.11733	87
2.12100	89
2.12467	91
2.12833	95
2.13200	99
2.13567	100
2.13933	99
2.14300	98
2.14667	99
2.15033	100
2.15400	101
2.15767	101
2.16133	101
2.16500	103
2.16867	104
2.17233	108
2.17600	111
2.17967	114
2.18333	114
2.18700	114
2.19067	115
2.19433	116
2.19800	119
2.20167	120
2.20533	121
2.20900	120
2.21267	120
2.21633	121
2.22000	123
2.22367	124
2.22733	125
2.23100	126
2.23467	130
2.23833	134
2.24200	135
2.24567	138
2.24933	139
2.25300	139
2.25667	138
2.26033	139
2.26400	141
2.26767	142
2.27133	141
2.27500	141
2.27867	141
2.28233	142
2.28600	144
2.28967	146
2.29333	147
2.29700	147
2.30067	150
2.30433	152
2.30800	153
2.31167	154
2.31533	155
2.31900	156
2.32267	157
2.32633	160
2.33000	161
2.33367	162
2.33733	163
2.34100	167
2.34467	170
2.34833	173
2.35200	175
2.35567	178
2.35933	179
2.36300	180
2.36667	181
2.37033	180
2.37400	179
2.37767	178
2.38133	178
2.38500	178
2.38867	176
2.39233	177
2.39600	180
2.39967	184
2.40333	190
2.40700	194
2.41067	198
2.41433	202
2.41800	202
2.42167	203
2.42533	204
2.42900	207
2.43267	209
2.43633	210
2.44000	213
2.44367	244
2.44733	326
2.45100	415
2.45467	486
2.45833	524
2.46200	519
2.46567	488
2.46933	453
2.47300	425
2.47667	405
2.48033	390
2.48400	375
2.48767	357
2.49133	333
2.49500	307
2.49867	282
2.50233	263
2.50600	248
2.50967	236
2.51333	228
2.51700	222
2.52067	218
2.52433	220
2.52800	224
2.53167	231
2.53533	240
2.53900	246
2.54267	249
2.54633	250
2.55000	246
2.55367	240
2.55733	230
2.56100	217
2.56467	204
2.56833	192
2.57200	184
2.57567	177
2.57933	169
2.58300	161
2.58667	156
2.59033	152
2.59400	150
2.59767	144
2.60133	136
2.60500	127
2.60867	111
2.61233	92
2.61600	70
2.61967	51
2.62333	36
2.62700	22
2.63067	8
2.63433	-1
2.63800	-2
2.64167	-1
2.64533	4
2.64900	10
2.65267	21
2.65633	31
2.66000	44
2.66367	55
2.66733	63
2.67100	71
2.67467	80
2.67833	88
2.68200	95
2.68567	101
2.68933	107
2.69300	109
2.69667	109
2.70033	108
2.70400	106
2.70767	105
2.71133	105
2.71500	104
2.71867	103
2.72233	102
2.72600	99
2.72967	97
2.73333	95
2.73700	91
2.74067	89
2.74433	90
2.74800	91
2.75167	90
2.75533	92
2.75900	91
2.76267	90
2.76633	89
2.77000	91
2.77367	93
2.77733	93
2.78100	94
2.78467	96
2.78833	98
2.79200	99
2.79567	98
2.79933	96
2.80300	93
2.80667	94
2.81033	96
2.81400	99
2.81767	108
2.82133	130
2.82500	177
2.82867	267
2.83233	424
2.83600	669
2.83967	1018
2.84333	1467
2.84700	2001
2.85067	2593
2.85433	3198
2.85800	3766
2.86167	4250
2.86533	4614
2.86900	4833
2.87267	4908
2.87633	4849
2.88000	4678
2.88367	4421
2.88733	4107
2.89100	3762
2.89467	3408
2.89833	3059
2.90200	2727
2.90567	2418
2.90933	2135
2.91300	1878
2.91667	1648
2.92033	1443
2.92400	1264
2.92767	1110
2.93133	979
2.93500	863
2.93867	761
2.94233	670
2.94600	592
2.94967	524
2.95333	467
2.95700	418
2.96067	376
2.96433	339
2.96800	309
2.97167	282
2.97533	260
2.97900	243
2.98267	226
2.98633	208
2.99000	191
2.99367	178
2.99733	166
3.00100	158
3.00467	150
3.00833	142
3.01200	137
3.01567	131
3.01933	127
3.02300	122
3.02667	116
3.03033	110
3.03400	104
3.03767	100
3.04133	97
3.04500	94
3.04867	91
3.05233	90
3.05600	89
3.05967	87
3.06333	83
3.06700	82
3.07067	80
3.07433	77
3.07800	74
3.08167	73
3.08533	71
3.08900	69
3.09267	66
3.09633	65
3.10000	63
3.10367	59
3.10733	56
3.11100	55
3.11467	53
3.11833	53
3.12200	53
3.12567	52
3.12933	49
3.13300	48
3.13667	49
3.14033	49
3.14400	50
3.14767	50
3.15133	51
3.15500	51
3.15867	47
3.16233	44
3.16600	42
3.16967	43
3.17333	41
3.17700	38
3.18067	36
3.18433	35
3.18800	37
3.19167	40
3.19533	45
3.19900	46
3.20267	44
3.20633	44
3.21000	44
3.21367	42
3.21733	40
3.22100	40
3.22467	42
3.22833	44
3.23200	45
3.23567	46
3.23933	45
3.24300	46
3.24667	49
3.25033	49
3.25400	49
3.25767	50
3.26133	50
3.26500	49
3.26867	49
3.27233	49
3.27600	47
3.27967	45
3.28333	44
3.28700	42
3.29067	42
3.29433	40
3.29800	39
3.30167	37
3.30533	38
3.30900	39
3.31267	40
3.31633	39
3.32000	37
3.32367	37
3.32733	37
3.33100	37
3.33467	36
3.33833	36
3.34200	37
3.34567	38
3.34933	38
3.35300	38
3.35667	41
3.36033	41
3.36400	41
3.36767	40
3.37133	38
3.37500	35
3.37867	33
3.38233	33
3.38600	33
3.38967	32
3.39333	31
3.39700	33
3.40067	34
3.40433	33
3.40800	31
3.41167	33
3.41533	34
3.41900	35
3.42267	35
3.42633	33
3.43000	32
3.43367	31
3.43733	30
3.44100	31
3.44467	33
3.44833	32
3.45200	30
3.45567	29
3.45933	28
3.46300	28
3.46667	29
3.47033	30
3.47400	31
3.47767	34
3.48133	34
3.48500	34
3.48867	35
3.49233	37
3.49600	37
3.49967	38
3.50333	39
3.50700	38
3.51067	38
3.51433	39
3.51800	40
3.52167	42
3.52533	44
3.52900	43
3.53267	42
3.53633	41
3.54000	27
3.54367	-7
3.54733	-37
3.55100	-57
3.55467	-69
3.55833	-71
3.56200	-65
3.56567	-53
3.56933	-35
3.57300	-14
3.57667	8
3.58033	29
3.58400	47
3.58767	65
3.59133	83
3.59500	102
3.59867	121
3.60233	140
3.60600	156
3.60967	170
3.61333	183
3.61700	195
3.62067	210
3.62433	223
3.62800	234
3.63167	245
3.63533	256
3.63900	267
3.64267	277
3.64633	288
3.65000	297
3.65367	303
3.65733	307
3.66100	313
3.66467	316
3.66833	319
3.67200	324
3.67567	327
3.67933	330
3.68300	332
3.68667	333
3.69033	332
3.69400	332
3.69767	333
3.70133	334
3.70500	336
3.70867	336
3.71233	335
3.71600	335
3.71967	336
3.72333	335
3.72700	334
3.73067	335
3.73433	337
3.73800	336
3.74167	334
3.74533	332
3.74900	330
3.75267	328
3.75633	327
3.76000	329
3.76367	329
3.76733	328
3.77100	328
3.77467	330
3.77833	330
3.78200	329
3.78567	328
3.78933	329
3.79300	331
3.79667	330
3.80033	328
3.80400	327
3.80767	326
3.81133	325
3.81500	323
3.81867	320
3.82233	320
3.82600	320
3.82967	319
3.83333	317
3.83700	316
3.84067	316
3.84433	317
3.84800	316
3.85167	316
3.85533	317
3.85900	318
3.86267	318
3.86633	316
3.87000	315
3.87367	315
3.87733	315
3.88100	313
3.88467	312
3.88833	311
3.89200	309
3.89567	306
3.89933	303
3.90300	302
3.90667	301
3.91033	304
3.91400	306
3.91767	307
3.92133	306
3.92500	305
3.92867	305
3.93233	304
3.93600	302
3.93967	303
3.94333	303
3.94700	302
3.95067	301
3.95433	300
3.95800	299
3.96167	299
3.96533	299
3.96900	299
3.97267	297
3.97633	297
3.98000	298
3.98367	299
3.98733	301
3.99100	302
3.99467	303
3.99833	300

[Status Trace (Column Oven Temperature)]
Interval(msec)	1000
# of Points	240
Start Time(min)	0.007
End Time(min)	3.991
Intensity Units	
Intensity Multiplier	1
R.Time (min)	Intensity
0.00728	35.06
0.02395	35.07
0.04062	35.06
0.05728	35.07
0.07395	35.07
0.09062	35.07
0.10728	35.07
0.12395	35.07
0.14062	35.07
0.15728	35.06
0.17395	35.05
0.19062	35.05
0.20728	35.04
0.22395	35.04
0.24062	35.04
0.25728	35.04
0.27395	35.04
0.29062	35.04
0.30728	35.04
0.32395	35.03
0.34062	35.03
0.35728	35.02
0.37395	35.01
0.39062	35.00
0.40728	35.00
0.42395	34.99
0.44062	34.98
0.45728	34.98
0.47395	34.98
0.49062	34.98
0.50728	34.98
0.52395	34.98
0.54062	34.98
0.55728	34.99
0.57395	35.00
0.59062	35.00
0.60728	34.99
0.62395	34.98
0.64062	34.98
0.65728	34.97
0.67395	34.97
0.69062	34.97
0.70728	34.99
0.72395	34.99
0.74062	35.01
0.75728	35.01
0.77395	35.01
0.79062	35.01
0.80728	35.03
0.82395	35.03
0.84062	35.04
0.85728	35.03
0.87395	35.02
0.89062	35.02
0.90728	35.00
0.92395	34.98
0.94062	34.98
0.95728	34.99
0.97395	35.00
0.99062	35.00
1.00728	35.00
1.02395	35.00
1.04062	34.99
1.05728	34.99
1.07395	34.98
1.09062	34.99
1.10728	34.99
1.12395	34.99
1.14062	34.98
1.15728	34.98
1.17395	34.97
1.19062	34.97
1.20728	34.97
1.22395	34.98
1.24062	35.00
1.25728	35.00
1.27395	34.99
1.29062	34.99
1.30728	34.99
1.32395	34.98
1.34062	34.97
1.35728	34.97
1.37395	34.97
1.39062	34.99
1.40728	34.99
1.42395	34.99
1.44062	34.98
1.45728	34.99
1.47395	34.98
1.49062	34.97
1.50728	34.97
1.52395	34.98
1.54062	35.01
1.55728	35.01
1.57395	35.02
1.59062	35.04
1.60728	35.09
1.62395	35.20
1.64062	35.37
1.65728	35.60
1.67395	35.93
1.69062	36.30
1.70728	36.65
1.72395	37.01
1.74062	37.34
1.75728	37.66
1.77395	38.02
1.79062	38.33
1.80728	38.65
1.82395	39.00
1.84062	39.32
1.85728	39.66
1.87395	39.99
1.89062	40.30
1.90728	40.62
1.92395	40.96
1.94062	41.29
1.95728	41.63
1.97395	41.94
1.99062	42.25
2.00728	42.60
2.02395	42.90
2.04062	43.23
2.05728	43.57
2.07395	43.89
2.09062	44.21
2.10728	44.55
2.12395	44.86
2.14062	45.19
2.15728	45.52
2.17395	45.85
2.19062	46.19
2.20728	46.50
2.22395	46.83
2.24062	47.16
2.25728	47.48
2.27395	47.81
2.29062	48.15
2.30728	48.51
2.32395	48.84
2.34062	49.17
2.35728	49.48
2.37395	49.66
2.39062	49.70
2.40728	49.69
2.42395	49.69
2.44062	49.69
2.45728	49.69
2.47395	49.70
2.49062	49.71
2.50728	49.73
2.52395	49.75
2.54062	49.75
2.55728	49.77
2.57395	49.77
2.59062	49.82
2.60728	49.85
2.62395	49.83
2.64062	49.84
2.65728	49.85
2.67395	49.86
2.69062	49.84
2.70728	49.85
2.72395	49.86
2.74062	49.84
2.75728	49.85
2.77395	49.86
2.79062	49.87
2.80728	49.87
2.82395	49.86
2.84062	49.85
2.85728	49.87
2.87395	49.88
2.89062	49.89
2.90728	49.90
2.92395	49.93
2.94062	49.94
2.95728	49.94
2.97395	49.96
2.99062	49.96
3.00728	49.96
3.02395	49.97
3.04062	49.98
3.05728	50.00
3.07395	50.01
3.09062	50.01
3.10728	50.02
3.12395	50.04
3.14062	50.05
3.15728	50.06
3.17395	50.06
3.19062	50.07
3.20728	50.07
3.22395	50.07
3.24062	50.06
3.25728	50.06
3.27395	50.07
3.29062	50.07
3.30728	50.09
3.32395	50.09
3.34062	50.09
3.35728	50.09
3.37395	50.07
3.39062	50.09
3.40728	50.11
3.42395	50.12
3.44062	50.12
3.45728	50.11
3.47395	50.09
3.49062	50.08
3.50728	50.07
3.52395	50.06
3.54062	50.06
3.55728	50.05
3.57395	50.04
3.59062	50.03
3.60728	50.03
3.62395	50.03
3.64062	50.03
3.65728	50.02
3.67395	50.02
3.69062	50.04
3.70728	50.05
3.72395	50.05
3.74062	50.03
3.75728	50.02
3.77395	50.02
3.79062	50.01
3.80728	50.03
3.82395	50.05
3.84062	50.05
3.85728	50.05
3.87395	50.04
3.89062	50.04
3.90728	50.04
3.92395	50.04
3.94062	50.05
3.95728	50.05
3.97395	50.05
3.99062	50.05

[Status Trace (Injection Unit Temperature)]
Interval(msec)	1000
# of Points	240
Start Time(min)	0.007
End Time(min)	3.991
Intensity Units	
Intensity Multiplier	1
R.Time (min)	Intensity
0.00728	99.98
0.02395	99.98
0.04062	99.98
0.05728	99.98
0.07395	99.98
0.09062	99.98
0.10728	99.99
0.12395	99.98
0.14062	99.98
0.15728	99.99
0.17395	99.99
0.19062	99.98
0.20728	99.98
0.22395	99.98
0.24062	99.99
0.25728	99.98
0.27395	99.98
0.29062	99.98
0.30728	99.98
0.32395	99.98
0.34062	99.98
0.35728	99.98
0.37395	99.98
0.39062	99.97
0.40728	99.98
0.42395	99.98
0.44062	99.98
0.45728	99.98
0.47395	99.98
0.49062	99.98
0.50728	99.98
0.52395	99.98
0.54062	99.98
0.55728	99.98
0.57395	99.98
0.59062	99.98
0.60728	99.98
0.62395	99.98
0.64062	99.98
0.65728	99.98
0.67395	99.98
0.69062	99.98
0.70728	99.98
0.72395	99.98
0.74062	99.98
0.75728	99.98
0.77395	99.98
0.79062	99.98
0.80728	99.98
0.82395	99.98
0.84062	99.98
0.85728	99.98
0.87395	99.98
0.89062	99.98
0.90728	99.98
0.92395	99.98
0.94062	99.97
0.95728	99.98
0.97395	99.98
0.99062	99.98
1.00728	99.98
1.02395	99.98
1.04062	99.98
1.05728	99.98
1.07395	99.98
1.09062	99.98
1.10728	99.98
1.12395	99.98
1.14062	99.98
1.15728	99.98
1.17395	99.98
1.19062	99.98
1.20728	99.98
1.22395	99.98
1.24062	99.98
1.25728	99.98
1.27395	99.98
1.29062	99.98
1.30728	99.98
1.32395	99.98
1.34062	99.98
1.35728	99.98
1.37395	99.98
1.39062	99.99
1.40728	99.98
1.42395	99.99
1.44062	99.99
1.45728	99.98
1.47395	99.98
1.49062	99.98
1.50728	99.98
1.52395	99.99
1.54062	99.98
1.55728	99.98
1.57395	99.99
1.59062	99.98
1.60728	99.99
1.62395	99.98
1.64062	99.99
1.65728	99.98
1.67395	99.99
1.69062	99.98
1.70728	99.99
1.72395	99.99
1.74062	99.99
1.75728	99.98
1.77395	99.98
1.79062	99.98
1.80728	99.98
1.82395	99.98
1.84062	99.98
1.85728	99.98
1.87395	99.98
1.89062	99.98
1.90728	99.98
1.92395	99.98
1.94062	99.98
1.95728	99.98
1.97395	99.98
1.99062	99.98
2.00728	99.97
2.02395	99.97
2.04062	99.97
2.05728	99.97
2.07395	99.97
2.09062	99.97
2.10728	99.97
2.12395	99.97
2.14062	99.97
2.15728	99.97
2.17395	99.97
2.19062	99.96
2.20728	99.96
2.22395	99.96
2.24062	99.97
2.25728	99.96
2.27395	99.96
2.29062	99.96
2.30728	99.96
2.32395	99.96
2.34062	99.96
2.35728	99.96
2.37395	99.96
2.39062	99.96
2.40728	99.97
2.42395	99.97
2.44062	99.96
2.45728	99.97
2.47395	99.97
2.49062	99.97
2.50728	99.97
2.52395	99.97
2.54062	99.97
2.55728	99.97
2.57395	99.97
2.59062	99.97
2.60728	99.98
2.62395	99.98
2.64062	99.98
2.65728	99.98
2.67395	99.98
2.69062	99.98
2.70728	99.98
2.72395	99.97
2.74062	99.98
2.75728	99.99
2.77395	99.98
2.79062	99.99
2.80728	99.99
2.82395	99.99
2.84062	99.99
2.85728	100.00
2.87395	99.99
2.89062	100.00
2.90728	100.00
2.92395	100.00
2.94062	100.00
2.95728	100.00
2.97395	100.00
2.99062	100.01
3.00728	100.01
3.02395	100.01
3.04062	100.01
3.05728	100.01
3.07395	100.01
3.09062	100.01
3.10728	100.01
3.12395	100.01
3.14062	100.01
3.15728	100.01
3.17395	100.01
3.19062	100.02
3.20728	100.01
3.22395	100.01
3.24062	100.02
3.25728	100.01
3.27395	100.02
3.29062	100.02
3.30728	100.02
3.32395	100.02
3.34062	100.02
3.35728	100.02
3.37395	100.02
3.39062	100.02
3.40728	100.02
3.42395	100.02
3.44062	100.03
3.45728	100.03
3.47395	100.02
3.49062	100.03
3.50728	100.03
3.52395	100.03
3.54062	100.03
3.55728	100.03
3.57395	100.03
3.59062	100.03
3.60728	100.03
3.62395	100.03
3.64062	100.03
3.65728	100.03
3.67395	100.03
3.69062	100.04
3.70728	100.04
3.72395	100.03
3.74062	100.04
3.75728	100.04
3.77395	100.04
3.79062	100.04
3.80728	100.04
3.82395	100.04
3.84062	100.04
3.85728	100.04
3.87395	100.04
3.89062	100.04
3.90728	100.04
3.92395	100.04
3.94062	100.04
3.95728	100.04
3.97395	100.04
3.99062	100.04

[Status Trace (Carrier Gas Pressure)]
Interval(msec)	1000
# of Points	240
Start Time(min)	0.007
End Time(min)	3.991
Intensity Units	
Intensity Multiplier	1
R.Time (min)	Intensity
0.00728	58.00
0.02395	55.48
0.04062	57.07
0.05728	59.13
0.07395	59.50
0.09062	58.07
0.10728	57.98
0.12395	58.01
0.14062	58.01
0.15728	58.00
0.17395	58.00
0.19062	58.00
0.20728	58.00
0.22395	58.00
0.24062	58.00
0.25728	58.00
0.27395	58.00
0.29062	58.00
0.30728	58.00
0.32395	58.00
0.34062	58.00
0.35728	58.00
0.37395	58.00
0.39062	58.00
0.40728	58.00
0.42395	58.00
0.44062	58.00
0.45728	58.00
0.47395	58.00
0.49062	58.00
0.50728	58.00
0.52395	58.00
0.54062	58.00
0.55728	58.00
0.57395	58.00
0.59062	58.00
0.60728	58.00
0.62395	58.00
0.64062	58.00
0.65728	58.00
0.67395	58.00
0.69062	58.00
0.70728	58.00
0.72395	58.00
0.74062	58.00
0.75728	58.00
0.77395	58.00
0.79062	58.00
0.80728	58.00
0.82395	58.00
0.84062	58.00
0.85728	58.00
0.87395	58.00
0.89062	58.00
0.90728	58.00
0.92395	58.00
0.94062	58.00
0.95728	58.00
0.97395	58.00
0.99062	58.00
1.00728	58.00
1.02395	58.00
1.04062	58.00
1.05728	58.00
1.07395	58.00
1.09062	58.00
1.10728	58.00
1.12395	58.00
1.14062	58.00
1.15728	58.00
1.17395	58.00
1.19062	58.00
1.20728	58.00
1.22395	58.00
1.24062	58.00
1.25728	58.00
1.27395	58.00
1.29062	58.00
1.30728	58.00
1.32395	58.00
1.34062	58.00
1.35728	58.00
1.37395	58.00
1.39062	58.00
1.40728	58.00
1.42395	58.00
1.44062	58.00
1.45728	58.00
1.47395	58.00
1.49062	58.00
1.50728	58.00
1.52395	58.00
1.54062	58.00
1.55728	58.00
1.57395	58.00
1.59062	58.00
1.60728	58.00
1.62395	58.00
1.64062	58.00
1.65728	58.00
1.67395	58.01
1.69062	58.00
1.70728	58.00
1.72395	58.00
1.74062	58.00
1.75728	58.00
1.77395	58.00
1.79062	58.00
1.80728	58.00
1.82395	58.00
1.84062	58.00
1.85728	58.00
1.87395	58.00
1.89062	58.00
1.90728	58.00
1.92395	58.00
1.94062	58.00
1.95728	58.00
1.97395	58.00
1.99062	58.00
2.00728	58.00
2.02395	58.00
2.04062	58.00
2.05728	58.00
2.07395	58.00
2.09062	58.00
2.10728	58.00
2.12395	58.00
2.14062	58.00
2.15728	58.00
2.17395	58.00
2.19062	58.00
2.20728	58.00
2.22395	58.00
2.24062	58.00
2.25728	58.00
2.27395	58.00
2.29062	58.00
2.30728	58.00
2.32395	58.00
2.34062	58.00
2.35728	58.00
2.37395	58.00
2.39062	57.99
2.40728	57.99
2.42395	58.00
2.44062	58.00
2.45728	58.00
2.47395	58.00
2.49062	58.00
2.50728	57.99
2.52395	57.98
2.54062	58.00
2.55728	58.00
2.57395	58.00
2.59062	58.00
2.60728	58.00
2.62395	58.00
2.64062	58.00
2.65728	58.00
2.67395	58.00
2.69062	58.00
2.70728	58.00
2.72395	58.00
2.74062	58.00
2.75728	58.00
2.77395	58.00
2.79062	58.00
2.80728	58.00
2.82395	58.00
2.84062	58.00
2.85728	58.00
2.87395	58.00
2.89062	58.00
2.90728	58.00
2.92395	58.00
2.94062	58.00
2.95728	58.00
2.97395	58.00
2.99062	58.00
3.00728	58.00
3.02395	58.00
3.04062	58.00
3.05728	58.00
3.07395	58.00
3.09062	58.00
3.10728	58.00
3.12395	58.00
3.14062	58.00
3.15728	58.00
3.17395	58.00
3.19062	58.00
3.20728	58.00
3.22395	58.00
3.24062	58.00
3.25728	58.00
3.27395	58.00
3.29062	58.00
3.30728	58.00
3.32395	58.00
3.34062	58.00
3.35728	58.00
3.37395	58.00
3.39062	58.00
3.40728	58.00
3.42395	58.00
3.44062	58.00
3.45728	58.00
3.47395	58.00
3.49062	58.00
3.50728	58.00
3.52395	58.00
3.54062	58.00
3.55728	58.00
3.57395	58.00
3.59062	58.00
3.60728	58.00
3.62395	58.00
3.64062	58.00
3.65728	58.00
3.67395	58.00
3.69062	58.00
3.70728	58.00
3.72395	58.00
3.74062	58.00
3.75728	58.00
3.77395	58.00
3.79062	58.00
3.80728	58.00
3.82395	58.00
3.84062	58.00
3.85728	58.00
3.87395	58.00
3.89062	58.00
3.90728	58.00
3.92395	58.00
3.94062	58.00
3.95728	58.00
3.97395	58.00
3.99062	58.00

[Status Trace (Carrier Gas Flow)]
Interval(msec)	1000
# of Points	240
Start Time(min)	0.007
End Time(min)	3.991
Intensity Units	
Intensity Multiplier	1
R.Time (min)	Intensity
0.00728	34.52
0.02395	34.53
0.04062	34.55
0.05728	34.54
0.07395	34.49
0.09062	34.52
0.10728	34.52
0.12395	34.52
0.14062	34.52
0.15728	34.52
0.17395	34.52
0.19062	34.52
0.20728	34.52
0.22395	34.52
0.24062	34.52
0.25728	34.52
0.27395	34.52
0.29062	34.52
0.30728	34.52
0.32395	34.52
0.34062	34.52
0.35728	34.52
0.37395	34.52
0.39062	34.52
0.40728	34.52
0.42395	34.52
0.44062	34.52
0.45728	34.52
0.47395	34.51
0.49062	34.52
0.50728	34.52
0.52395	34.52
0.54062	34.52
0.55728	34.52
0.57395	34.52
0.59062	34.52
0.60728	34.52
0.62395	34.52
0.64062	34.52
0.65728	34.52
0.67395	34.52
0.69062	34.52
0.70728	34.52
0.72395	34.52
0.74062	34.52
0.75728	34.52
0.77395	34.52
0.79062	34.52
0.80728	34.52
0.82395	34.51
0.84062	34.52
0.85728	34.52
0.87395	34.52
0.89062	34.52
0.90728	34.52
0.92395	34.52
0.94062	34.52
0.95728	34.52
0.97395	34.52
0.99062	34.52
1.00728	34.52
1.02395	34.52
1.04062	34.52
1.05728	34.52
1.07395	34.52
1.09062	34.52
1.10728	34.52
1.12395	34.52
1.14062	34.52
1.15728	34.51
1.17395	34.52
1.19062	34.52
1.20728	34.52
1.22395	34.52
1.24062	34.52
1.25728	34.52
1.27395	34.52
1.29062	34.52
1.30728	34.52
1.32395	34.52
1.34062	34.52
1.35728	34.52
1.37395	34.52
1.39062	34.52
1.40728	34.52
1.42395	34.52
1.44062	34.52
1.45728	34.52
1.47395	34.52
1.49062	34.52
1.50728	34.52
1.52395	34.52
1.54062	34.52
1.55728	34.52
1.57395	34.52
1.59062	34.52
1.60728	34.52
1.62395	34.52
1.64062	34.52
1.65728	34.52
1.67395	34.52
1.69062	34.52
1.70728	34.52
1.72395	34.52
1.74062	34.52
1.75728	34.52
1.77395	34.51
1.79062	34.52
1.80728	34.52
1.82395	34.52
1.84062	34.52
1.85728	34.52
1.87395	34.52
1.89062	34.52
1.90728	34.52
1.92395	34.52
1.94062	34.52
1.95728	34.52
1.97395	34.51
1.99062	34.51
2.00728	34.52
2.02395	34.52
2.04062	34.52
2.05728	34.52
2.07395	34.52
2.09062	34.52
2.10728	34.52
2.12395	34.52
2.14062	34.52
2.15728	34.52
2.17395	34.52
2.19062	34.52
2.20728	34.52
2.22395	34.52
2.24062	34.52
2.25728	34.52
2.27395	34.52
2.29062	34.52
2.30728	34.52
2.32395	34.52
2.34062	34.52
2.35728	34.52
2.37395	34.52
2.39062	34.52
2.40728	34.52
2.42395	34.52
2.44062	34.52
2.45728	34.52
2.47395	34.52
2.49062	34.52
2.50728	34.36
2.52395	34.52
2.54062	34.52
2.55728	34.52
2.57395	34.52
2.59062	34.52
2.60728	34.52
2.62395	34.52
2.64062	34.52
2.65728	34.51
2.67395	34.52
2.69062	34.52
2.70728	34.52
2.72395	34.52
2.74062	34.52
2.75728	34.52
2.77395	34.52
2.79062	34.52
2.80728	34.52
2.82395	34.52
2.84062	34.52
2.85728	34.52
2.87395	34.52
2.89062	34.52
2.90728	34.52
2.92395	34.53
2.94062	34.51
2.95728	34.53
2.97395	34.53
2.99062	34.52
3.00728	34.51
3.02395	34.51
3.04062	34.51
3.05728	34.53
3.07395	34.52
3.09062	34.53
3.10728	34.52
3.12395	34.51
3.14062	34.52
3.15728	34.52
3.17395	34.52
3.19062	34.52
3.20728	34.51
3.22395	34.52
3.24062	34.52
3.25728	34.52
3.27395	34.52
3.29062	34.52
3.30728	34.52
3.32395	34.52
3.34062	34.52
3.35728	34.52
3.37395	34.52
3.39062	34.52
3.40728	34.52
3.42395	34.52
3.44062	34.52
3.45728	34.52
3.47395	34.52
3.49062	34.52
3.50728	34.52
3.52395	34.52
3.54062	34.52
3.55728	34.52
3.57395	34.52
3.59062	34.52
3.60728	34.52
3.62395	34.52
3.64062	34.52
3.65728	34.52
3.67395	34.52
3.69062	34.52
3.70728	34.52
3.72395	34.52
3.74062	34.52
3.75728	34.52
3.77395	34.52
3.79062	34.52
3.80728	34.52
3.82395	34.52
3.84062	34.52
3.85728	34.52
3.87395	34.52
3.89062	34.52
3.90728	34.52
3.92395	34.51
3.94062	34.52
3.95728	34.52
3.97395	34.52
3.99062	34.52

[Status Trace (Column Flow)]
Interval(msec)	1000
# of Points	240
Start Time(min)	0.007
End Time(min)	3.991
Intensity Units	
Intensity Multiplier	1
R.Time (min)	Intensity
0.00728	5.57
0.02395	5.28
0.04062	5.47
0.05728	5.71
0.07395	5.75
0.09062	5.58
0.10728	5.57
0.12395	5.58
0.14062	5.57
0.15728	5.57
0.17395	5.57
0.19062	5.57
0.20728	5.58
0.22395	5.58
0.24062	5.57
0.25728	5.58
0.27395	5.57
0.29062	5.57
0.30728	5.57
0.32395	5.58
0.34062	5.58
0.35728	5.58
0.37395	5.58
0.39062	5.58
0.40728	5.58
0.42395	5.58
0.44062	5.58
0.45728	5.58
0.47395	5.58
0.49062	5.58
0.50728	5.58
0.52395	5.58
0.54062	5.58
0.55728	5.58
0.57395	5.58
0.59062	5.58
0.60728	5.58
0.62395	5.58
0.64062	5.58
0.65728	5.58
0.67395	5.58
0.69062	5.58
0.70728	5.58
0.72395	5.58
0.74062	5.58
0.75728	5.58
0.77395	5.58
0.79062	5.58
0.80728	5.57
0.82395	5.57
0.84062	5.57
0.85728	5.57
0.87395	5.58
0.89062	5.58
0.90728	5.58
0.92395	5.58
0.94062	5.58
0.95728	5.58
0.97395	5.58
0.99062	5.58
1.00728	5.58
1.02395	5.58
1.04062	5.58
1.05728	5.58
1.07395	5.58
1.09062	5.58
1.10728	5.58
1.12395	5.58
1.14062	5.58
1.15728	5.58
1.17395	5.58
1.19062	5.58
1.20728	5.58
1.22395	5.58
1.24062	5.58
1.25728	5.58
1.27395	5.58
1.29062	5.58
1.30728	5.58
1.32395	5.58
1.34062	5.58
1.35728	5.58
1.37395	5.58
1.39062	5.58
1.40728	5.58
1.42395	5.58
1.44062	5.58
1.45728	5.58
1.47395	5.58
1.49062	5.58
1.50728	5.58
1.52395	5.58
1.54062	5.58
1.55728	5.58
1.57395	5.58
1.59062	5.57
1.60728	5.57
1.62395	5.57
1.64062	5.57
1.65728	5.56
1.67395	5.55
1.69062	5.54
1.70728	5.53
1.72395	5.51
1.74062	5.50
1.75728	5.49
1.77395	5.48
1.79062	5.47
1.80728	5.46
1.82395	5.45
1.84062	5.44
1.85728	5.43
1.87395	5.42
1.89062	5.41
1.90728	5.40
1.92395	5.39
1.94062	5.38
1.95728	5.37
1.97395	5.36
1.99062	5.35
2.00728	5.34
2.02395	5.33
2.04062	5.32
2.05728	5.31
2.07395	5.30
2.09062	5.29
2.10728	5.29
2.12395	5.28
2.14062	5.27
2.15728	5.26
2.17395	5.25
2.19062	5.24
2.20728	5.23
2.22395	5.22
2.24062	5.21
2.25728	5.20
2.27395	5.19
2.29062	5.18
2.30728	5.17
2.32395	5.16
2.34062	5.15
2.35728	5.14
2.37395	5.14
2.39062	5.14
2.40728	5.14
2.42395	5.14
2.44062	5.14
2.45728	5.14
2.47395	5.14
2.49062	5.14
2.50728	5.14
2.52395	5.13
2.54062	5.14
2.55728	5.14
2.57395	5.14
2.59062	5.13
2.60728	5.13
2.62395	5.13
2.64062	5.13
2.65728	5.13
2.67395	5.13
2.69062	5.13
2.70728	5.13
2.72395	5.13
2.74062	5.13
2.75728	5.13
2.77395	5.13
2.79062	5.13
2.80728	5.13
2.82395	5.13
2.84062	5.13
2.85728	5.13
2.87395	5.13
2.89062	5.13
2.90728	5.13
2.92395	5.13
2.94062	5.13
2.95728	5.13
2.97395	5.13
2.99062	5.13
3.00728	5.13
3.02395	5.13
3.04062	5.13
3.05728	5.13
3.07395	5.13
3.09062	5.13
3.10728	5.13
3.12395	5.13
3.14062	5.13
3.15728	5.13
3.17395	5.13
3.19062	5.13
3.20728	5.13
3.22395	5.13
3.24062	5.13
3.25728	5.13
3.27395	5.13
3.29062	5.13
3.30728	5.13
3.32395	5.13
3.34062	5.13
3.35728	5.13
3.37395	5.13
3.39062	5.13
3.40728	5.13
3.42395	5.13
3.44062	5.13
3.45728	5.13
3.47395	5.13
3.49062	5.13
3.50728	5.13
3.52395	5.13
3.54062	5.13
3.55728	5.13
3.57395	5.13
3.59062	5.13
3.60728	5.13
3.62395	5.13
3.64062	5.13
3.65728	5.13
3.67395	5.13
3.69062	5.13
3.70728	5.13
3.72395	5.13
3.74062	5.13
3.75728	5.13
3.77395	5.13
3.79062	5.13
3.80728	5.13
3.82395	5.13
3.84062	5.13
3.85728	5.13
3.87395	5.13
3.89062	5.13
3.90728	5.13
3.92395	5.13
3.94062	5.13
3.95728	5.13
3.97395	5.13
3.99062	5.13

[Status Trace (Linear Velocity)]
Interval(msec)	1000
# of Points	240
Start Time(min)	0.007
End Time(min)	3.991
Intensity Units	
Intensity Multiplier	1
R.Time (min)	Intensity
0.00728	39.02
0.02395	37.37
0.04062	38.41
0.05728	39.76
0.07395	40.00
0.09062	39.07
0.10728	39.01
0.12395	39.03
0.14062	39.03
0.15728	39.03
0.17395	39.03
0.19062	39.03
0.20728	39.03
0.22395	39.03
0.24062	39.03
0.25728	39.03
0.27395	39.03
0.29062	39.03
0.30728	39.03
0.32395	39.03
0.34062	39.03
0.35728	39.03
0.37395	39.03
0.39062	39.03
0.40728	39.03
0.42395	39.03
0.44062	39.03
0.45728	39.03
0.47395	39.03
0.49062	39.03
0.50728	39.03
0.52395	39.03
0.54062	39.03
0.55728	39.03
0.57395	39.03
0.59062	39.03
0.60728	39.03
0.62395	39.03
0.64062	39.03
0.65728	39.03
0.67395	39.03
0.69062	39.03
0.70728	39.03
0.72395	39.03
0.74062	39.03
0.75728	39.03
0.77395	39.03
0.79062	39.03
0.80728	39.03
0.82395	39.03
0.84062	39.03
0.85728	39.03
0.87395	39.03
0.89062	39.03
0.90728	39.03
0.92395	39.03
0.94062	39.03
0.95728	39.03
0.97395	39.03
0.99062	39.03
1.00728	39.03
1.02395	39.03
1.04062	39.03
1.05728	39.03
1.07395	39.03
1.09062	39.03
1.10728	39.03
1.12395	39.03
1.14062	39.03
1.15728	39.03
1.17395	39.03
1.19062	39.03
1.20728	39.03
1.22395	39.03
1.24062	39.03
1.25728	39.03
1.27395	39.03
1.29062	39.03
1.30728	39.03
1.32395	39.03
1.34062	39.03
1.35728	39.03
1.37395	39.03
1.39062	39.03
1.40728	39.03
1.42395	39.03
1.44062	39.03
1.45728	39.03
1.47395	39.03
1.49062	39.03
1.50728	39.03
1.52395	39.03
1.54062	39.03
1.55728	39.03
1.57395	39.03
1.59062	39.03
1.60728	39.02
1.62395	39.01
1.64062	39.00
1.65728	38.98
1.67395	38.94
1.69062	38.91
1.70728	38.87
1.72395	38.84
1.74062	38.81
1.75728	38.78
1.77395	38.74
1.79062	38.71
1.80728	38.68
1.82395	38.65
1.84062	38.62
1.85728	38.59
1.87395	38.56
1.89062	38.53
1.90728	38.50
1.92395	38.46
1.94062	38.43
1.95728	38.41
1.97395	38.37
1.99062	38.34
2.00728	38.32
2.02395	38.28
2.04062	38.26
2.05728	38.23
2.07395	38.19
2.09062	38.16
2.10728	38.14
2.12395	38.11
2.14062	38.08
2.15728	38.05
2.17395	38.02
2.19062	37.99
2.20728	37.96
2.22395	37.93
2.24062	37.90
2.25728	37.87
2.27395	37.84
2.29062	37.81
2.30728	37.78
2.32395	37.75
2.34062	37.72
2.35728	37.69
2.37395	37.67
2.39062	37.67
2.40728	37.67
2.42395	37.67
2.44062	37.67
2.45728	37.67
2.47395	37.67
2.49062	37.67
2.50728	37.67
2.52395	37.66
2.54062	37.67
2.55728	37.67
2.57395	37.66
2.59062	37.66
2.60728	37.66
2.62395	37.66
2.64062	37.66
2.65728	37.66
2.67395	37.66
2.69062	37.66
2.70728	37.66
2.72395	37.66
2.74062	37.66
2.75728	37.66
2.77395	37.66
2.79062	37.66
2.80728	37.66
2.82395	37.66
2.84062	37.66
2.85728	37.66
2.87395	37.66
2.89062	37.65
2.90728	37.65
2.92395	37.65
2.94062	37.65
2.95728	37.65
2.97395	37.65
2.99062	37.65
3.00728	37.65
3.02395	37.65
3.04062	37.65
3.05728	37.65
3.07395	37.64
3.09062	37.64
3.10728	37.64
3.12395	37.64
3.14062	37.64
3.15728	37.64
3.17395	37.64
3.19062	37.64
3.20728	37.64
3.22395	37.64
3.24062	37.64
3.25728	37.64
3.27395	37.64
3.29062	37.64
3.30728	37.64
3.32395	37.64
3.34062	37.64
3.35728	37.64
3.37395	37.64
3.39062	37.64
3.40728	37.64
3.42395	37.63
3.44062	37.63
3.45728	37.63
3.47395	37.64
3.49062	37.64
3.50728	37.64
3.52395	37.64
3.54062	37.64
3.55728	37.64
3.57395	37.64
3.59062	37.64
3.60728	37.64
3.62395	37.64
3.64062	37.64
3.65728	37.64
3.67395	37.64
3.69062	37.64
3.70728	37.64
3.72395	37.64
3.74062	37.64
3.75728	37.64
3.77395	37.64
3.79062	37.64
3.80728	37.64
3.82395	37.64
3.84062	37.64
3.85728	37.64
3.87395	37.64
3.89062	37.64
3.90728	37.64
3.92395	37.64
3.94062	37.64
3.95728	37.64
3.97395	37.64
3.99062	37.64

