[Header]
Application Name	LabSolutions
Version	5.110
Data File Name	C:\Users\User\Desktop\GC Analyses\Jack\Nachusa Grasslands Sampling\T0 Timepoint July 12th\T0_07122022_056.gcd
Output Date	3/14/2023
Output Time	3:40:37 PM

[File Information]
Type	Data File
Generated	3/7/2023 7:59:43 PM
Generated by	System Administrator
Modified	3/7/2023 8:06:17 PM
Modified by	System Administrator

[Sample Information]
Operator Name	System Administrator
Acquired	3/7/2023 8:02:15 PM
Sample Type	0:Unknown
Level	0
Sample Name	056
Sample ID	056
ISTD Amount1	1
ISTD Amount2	1
ISTD Amount3	1
ISTD Amount4	1
ISTD Amount5	1
ISTD Amount6	1
ISTD Amount7	1
ISTD Amount8	1
ISTD Amount9	1
ISTD Amount10	1
ISTD Amount11	1
ISTD Amount12	1
ISTD Amount13	1
ISTD Amount14	1
ISTD Amount15	1
ISTD Amount16	1
ISTD Amount17	1
ISTD Amount18	1
ISTD Amount19	1
ISTD Amount20	1
ISTD Amount21	1
ISTD Amount22	1
ISTD Amount23	1
ISTD Amount24	1
ISTD Amount25	1
ISTD Amount26	1
ISTD Amount27	1
ISTD Amount28	1
ISTD Amount29	1
ISTD Amount30	1
ISTD Amount31	1
ISTD Amount32	1
Sample Amount	1
Dilution Factor	1
Vial#	55
Injection Volume	1
Injection Count	1
Bar Code	

[Original Files]
Data File	C:\Users\User\Desktop\GC Analyses\Jack\Nachusa Grasslands Sampling\T0 Timepoint July 12th\T0_07122022_056.gcd
Method File	C:\LabSolutions\Data\GHG_4min_2022\ghg3_togas_w_acet_4 min_new_int.gcm
Batch File	C:\LabSolutions\Data\AutoSamplerTesting\T0_07122022.gcb
Report Format File	c:\LabSolutions\System\DEFAULT.lsr

[File Description]


[Configuration]
Instrument Name	C0B7VH3-Instrument1
Instrument #	1
Line #	1
# of Detectors	3
Detector ID	DET#1	DET#2	DET#3
Detector Name	FID	PTCD	ECD
# of Channels	1	1	1

[Peak Table(Ch1)]
# of Peaks	3
Peak#	R.Time	I.Time	F.Time	Area	Height	A/H	Conc.	Mark	ID#	Name	k'	Plate #	Plate Ht.	Tailing	Resolution	Sep.Factor	Area Ratio	Height Ratio	Conc. %	Norm Conc.
1	1.476	1.432	1.538	24347	11372	2.141	171.893	   	1	CO	0.000	9010	16.647	1.352	0.000	0.000	0	0	29.444	29.444
2	1.567	1.538	1.630	4885	2330	2.096	94.454	 V 	2	CH4	0.062	10369	14.466	0.000	1.481	0.000	0	0	16.179	16.179
3	1.996	1.941	2.466	1264872	595578	2.124	317.449	   	3	CO2	0.353	17287	8.677	1.318	7.016	5.680	0	0	54.377	54.377

[Peak Table(Ch2)]
# of Peaks	0

[Peak Table(Ch3)]
# of Peaks	5
Peak#	R.Time	I.Time	F.Time	Area	Height	A/H	Conc.	Mark	ID#	Name	k'	Plate #	Plate Ht.	Tailing	Resolution	Sep.Factor	Area Ratio	Height Ratio	Conc. %	Norm Conc.
1	2.462	2.216	2.524	1924	378	5.083	0.000	   			0.000	6386	23.488	0.000	0.000	0.000	0	0	0.000	0.000
2	2.546	2.524	2.634	959	212	4.515	0.000	 V 			0.034	2647	56.676	0.000	0.525	0.000	0	0	0.000	0.000
3	2.700	2.649	2.770	608	105	5.766	0.000	   			0.097	759	197.682	0.000	0.522	2.826	0	0	0.000	0.000
4	2.873	2.770	3.181	18824	4750	3.963	0.481	 V 	1	N2O	0.167	13221	11.345	1.660	0.700	1.723	0	0	100.000	100.000
5	3.426	3.276	3.976	10944	563	19.422	0.000	   	2	SF6	0.392	535	280.185	2.239	1.600	2.348	0	0	0.000	0.000

[Compound Results(Ch1)]
# of IDs	6
ID#	Name	R.Time	Area	Height	Conc.	Curve	3rd	2nd	1st	Constant	Area Ratio	Height Ratio	Conc. %	Norm Conc.
1	CO	1.476	24347	11372	171.893	Linear	0.000000e+00	0.000000e+00	1.416423e+002	0.000000e+00	0	0	29.444	29.444
2	CH4	1.567	4885	2330	94.454	Linear	0.000000e+00	0.000000e+00	5.171738e+001	0.000000e+00	0	0	16.179	16.179
3	CO2	1.996	1264872	595578	317.449	Linear	0.000000e+00	0.000000e+00	3.984494e+003	0.000000e+00	0	0	54.377	54.377
4	Ethylene	0.000	0	0	0.000	Linear	0.000000e+00	0.000000e+00	0.000000e+00	0.000000e+00	0	0	0.000	0.000
5	Acetylene	0.000	0	0	0.000	Linear	0.000000e+00	0.000000e+00	0.000000e+00	0.000000e+00	0	0	0.000	0.000
6	Ethane	0.000	0	0	0.000	Linear	0.000000e+00	0.000000e+00	0.000000e+00	0.000000e+00	0	0	0.000	0.000

[Compound Results(Ch2)]
# of IDs	5
ID#	Name	R.Time	Area	Height	Conc.	Curve	3rd	2nd	1st	Constant	Area Ratio	Height Ratio	Conc. %	Norm Conc.
1	Hydrogen	0.000	0	0	0.000	Linear	0.000000e+00	0.000000e+00	0.000000e+00	0.000000e+00	0	0	0.000	0.000
2	Oxygen	0.000	0	0	0.000	Linear	0.000000e+00	0.000000e+00	0.000000e+00	0.000000e+00	0	0	0.000	0.000
3	Nitrogen	0.000	0	0	0.000	Linear	0.000000e+00	0.000000e+00	0.000000e+00	0.000000e+00	0	0	0.000	0.000
4	Methane	0.000	0	0	0.000	Linear	0.000000e+00	0.000000e+00	0.000000e+00	0.000000e+00	0	0	0.000	0.000
5	Carbon Monoxide	0.000	0	0	0.000	Linear	0.000000e+00	0.000000e+00	0.000000e+00	0.000000e+00	0	0	0.000	0.000

[Compound Results(Ch3)]
# of IDs	2
ID#	Name	R.Time	Area	Height	Conc.	Curve	3rd	2nd	1st	Constant	Area Ratio	Height Ratio	Conc. %	Norm Conc.
1	N2O	2.873	18824	4750	0.481	Linear	0.000000e+00	0.000000e+00	3.915173e+004	0.000000e+00	0	0	100.000	100.000
2	SF6	3.426	10944	563	0.000	Linear	0.000000e+00	0.000000e+00	0.000000e+00	0.000000e+00	0	0	0.000	0.000

[Group Results(Ch1)]
# of Groups	0

[Group Results(Ch2)]
# of Groups	0

[Group Results(Ch3)]
# of Groups	0

[Chromatogram (Ch1)]
Interval(msec)	220
# of Points	1091
Start Time(min)	0.002
End Time(min)	3.998
R.Time (min)	Intensity
0.00167	-16
0.00533	-16
0.00900	-10
0.01267	-2
0.01633	5
0.02000	10
0.02367	11
0.02733	11
0.03100	15
0.03467	20
0.03833	26
0.04200	29
0.04567	29
0.04933	24
0.05300	14
0.05667	5
0.06033	-0
0.06400	-1
0.06767	0
0.07133	3
0.07500	7
0.07867	9
0.08233	9
0.08600	9
0.08967	12
0.09333	18
0.09700	25
0.10067	27
0.10433	22
0.10800	15
0.11167	13
0.11533	17
0.11900	23
0.12267	31
0.12633	36
0.13000	36
0.13367	33
0.13733	28
0.14100	21
0.14467	14
0.14833	9
0.15200	8
0.15567	9
0.15933	6
0.16300	-0
0.16667	-7
0.17033	-11
0.17400	-12
0.17767	-8
0.18133	0
0.18500	6
0.18867	8
0.19233	9
0.19600	12
0.19967	14
0.20333	16
0.20700	17
0.21067	13
0.21433	5
0.21800	-3
0.22167	-10
0.22533	-16
0.22900	-19
0.23267	-21
0.23633	-18
0.24000	-12
0.24367	-3
0.24733	4
0.25100	10
0.25467	12
0.25833	8
0.26200	2
0.26567	-3
0.26933	-5
0.27300	-0
0.27667	9
0.28033	17
0.28400	24
0.28767	31
0.29133	36
0.29500	35
0.29867	31
0.30233	28
0.30600	29
0.30967	32
0.31333	37
0.31700	40
0.32067	42
0.32433	45
0.32800	47
0.33167	49
0.33533	55
0.33900	61
0.34267	69
0.34633	76
0.35000	81
0.35367	86
0.35733	93
0.36100	101
0.36467	108
0.36833	117
0.37200	129
0.37567	142
0.37933	151
0.38300	153
0.38667	153
0.39033	155
0.39400	157
0.39767	155
0.40133	152
0.40500	150
0.40867	148
0.41233	145
0.41600	141
0.41967	139
0.42333	141
0.42700	146
0.43067	149
0.43433	147
0.43800	142
0.44167	132
0.44533	123
0.44900	117
0.45267	117
0.45633	117
0.46000	116
0.46367	114
0.46733	106
0.47100	92
0.47467	78
0.47833	65
0.48200	58
0.48567	58
0.48933	59
0.49300	63
0.49667	69
0.50033	73
0.50400	76
0.50767	77
0.51133	74
0.51500	67
0.51867	58
0.52233	51
0.52600	47
0.52967	44
0.53333	37
0.53700	29
0.54067	24
0.54433	21
0.54800	18
0.55167	15
0.55533	16
0.55900	18
0.56267	16
0.56633	7
0.57000	-3
0.57367	-9
0.57733	-13
0.58100	-20
0.58467	-29
0.58833	-35
0.59200	-35
0.59567	-33
0.59933	-30
0.60300	-26
0.60667	-22
0.61033	-20
0.61400	-17
0.61767	-12
0.62133	-5
0.62500	2
0.62867	7
0.63233	10
0.63600	10
0.63967	12
0.64333	13
0.64700	11
0.65067	4
0.65433	-3
0.65800	-10
0.66167	-15
0.66533	-16
0.66900	-16
0.67267	-16
0.67633	-15
0.68000	-10
0.68367	-2
0.68733	7
0.69100	16
0.69467	20
0.69833	21
0.70200	19
0.70567	15
0.70933	10
0.71300	3
0.71667	-2
0.72033	-5
0.72400	-8
0.72767	-12
0.73133	-14
0.73500	-15
0.73867	-16
0.74233	-21
0.74600	-24
0.74967	-25
0.75333	-22
0.75700	-18
0.76067	-14
0.76433	-13
0.76800	-14
0.77167	-15
0.77533	-14
0.77900	-13
0.78267	-13
0.78633	-14
0.79000	-10
0.79367	-8
0.79733	-7
0.80100	-9
0.80467	-11
0.80833	-11
0.81200	-10
0.81567	-9
0.81933	-10
0.82300	-14
0.82667	-17
0.83033	-21
0.83400	-21
0.83767	-19
0.84133	-16
0.84500	-16
0.84867	-20
0.85233	-23
0.85600	-24
0.85967	-21
0.86333	-15
0.86700	-12
0.87067	-14
0.87433	-18
0.87800	-22
0.88167	-25
0.88533	-26
0.88900	-27
0.89267	-27
0.89633	-23
0.90000	-18
0.90367	-14
0.90733	-10
0.91100	-6
0.91467	-4
0.91833	-4
0.92200	-5
0.92567	-9
0.92933	-16
0.93300	-22
0.93667	-29
0.94033	-36
0.94400	-41
0.94767	-45
0.95133	-46
0.95500	-43
0.95867	-37
0.96233	-30
0.96600	-26
0.96967	-26
0.97333	-27
0.97700	-29
0.98067	-33
0.98433	-34
0.98800	-35
0.99167	-33
0.99533	-28
0.99900	-20
1.00267	-13
1.00633	-10
1.01000	-10
1.01367	-11
1.01733	-11
1.02100	-10
1.02467	-9
1.02833	-4
1.03200	-1
1.03567	-5
1.03933	-16
1.04300	-28
1.04667	-38
1.05033	-48
1.05400	-54
1.05767	-56
1.06133	-54
1.06500	-51
1.06867	-44
1.07233	-40
1.07600	-38
1.07967	-31
1.08333	-23
1.08700	-20
1.09067	-21
1.09433	-22
1.09800	-22
1.10167	-25
1.10533	-31
1.10900	-36
1.11267	-40
1.11633	-42
1.12000	-41
1.12367	-39
1.12733	-36
1.13100	-35
1.13467	-34
1.13833	-33
1.14200	-31
1.14567	-32
1.14933	-36
1.15300	-37
1.15667	-37
1.16033	-36
1.16400	-34
1.16767	-30
1.17133	-26
1.17500	-27
1.17867	-32
1.18233	-37
1.18600	-37
1.18967	-35
1.19333	-33
1.19700	-34
1.20067	-39
1.20433	-44
1.20800	-49
1.21167	-52
1.21533	-54
1.21900	-55
1.22267	-52
1.22633	-44
1.23000	-35
1.23367	-29
1.23733	-26
1.24100	-27
1.24467	-30
1.24833	-36
1.25200	-43
1.25567	-50
1.25933	-51
1.26300	-50
1.26667	-48
1.27033	-44
1.27400	-44
1.27767	-46
1.28133	-48
1.28500	-51
1.28867	-55
1.29233	-62
1.29600	-69
1.29967	-73
1.30333	-73
1.30700	-69
1.31067	-63
1.31433	-61
1.31800	-61
1.32167	-63
1.32533	-64
1.32900	-63
1.33267	-61
1.33633	-61
1.34000	-64
1.34367	-65
1.34733	-61
1.35100	-55
1.35467	-51
1.35833	-49
1.36200	-49
1.36567	-48
1.36933	-47
1.37300	-46
1.37667	-47
1.38033	-53
1.38400	-61
1.38767	-68
1.39133	-69
1.39500	-67
1.39867	-63
1.40233	-60
1.40600	-58
1.40967	-58
1.41333	-58
1.41700	-57
1.42067	-58
1.42433	-57
1.42800	-53
1.43167	-46
1.43533	-39
1.43900	-23
1.44267	51
1.44633	248
1.45000	709
1.45367	1762
1.45733	3535
1.46100	5699
1.46467	7790
1.46833	9514
1.47200	10731
1.47567	11337
1.47933	11227
1.48300	10379
1.48667	8953
1.49033	7251
1.49400	5581
1.49767	4144
1.50133	3015
1.50500	2175
1.50867	1575
1.51233	1153
1.51600	856
1.51967	641
1.52333	483
1.52700	368
1.53067	286
1.53433	232
1.53800	206
1.54167	241
1.54533	401
1.54900	713
1.55267	1127
1.55633	1550
1.56000	1909
1.56367	2171
1.56733	2318
1.57100	2317
1.57467	2148
1.57833	1840
1.58200	1468
1.58567	1106
1.58933	801
1.59300	563
1.59667	389
1.60033	268
1.60400	185
1.60767	131
1.61133	94
1.61500	68
1.61867	47
1.62233	29
1.62600	14
1.62967	4
1.63333	1
1.63700	7
1.64067	17
1.64433	30
1.64800	40
1.65167	43
1.65533	41
1.65900	33
1.66267	20
1.66633	6
1.67000	-4
1.67367	-7
1.67733	-2
1.68100	3
1.68467	6
1.68833	6
1.69200	3
1.69567	-1
1.69933	-6
1.70300	-12
1.70667	-14
1.71033	-9
1.71400	-3
1.71767	2
1.72133	5
1.72500	4
1.72867	1
1.73233	-2
1.73600	-4
1.73967	-7
1.74333	-11
1.74700	-11
1.75067	-9
1.75433	-5
1.75800	-1
1.76167	4
1.76533	10
1.76900	14
1.77267	18
1.77633	17
1.78000	9
1.78367	0
1.78733	-8
1.79100	-12
1.79467	-14
1.79833	-13
1.80200	-9
1.80567	-6
1.80933	-8
1.81300	-14
1.81667	-17
1.82033	-17
1.82400	-15
1.82767	-13
1.83133	-10
1.83500	-8
1.83867	-6
1.84233	-2
1.84600	1
1.84967	5
1.85333	7
1.85700	10
1.86067	17
1.86433	25
1.86800	32
1.87167	32
1.87533	29
1.87900	26
1.88267	23
1.88633	19
1.89000	15
1.89367	11
1.89733	5
1.90100	-1
1.90467	-6
1.90833	-11
1.91200	-13
1.91567	-15
1.91933	-14
1.92300	-12
1.92667	-9
1.93033	-5
1.93400	-0
1.93767	3
1.94133	10
1.94500	17
1.94867	24
1.95233	41
1.95600	143
1.95967	712
1.96333	3285
1.96700	12161
1.97067	35601
1.97433	83886
1.97800	162618
1.98167	266253
1.98533	378844
1.98900	481229
1.99267	557146
1.99633	595625
2.00000	591754
2.00367	547980
2.00733	474496
2.01100	386376
2.01467	298447
2.01833	221088
2.02200	158947
2.02567	112198
2.02933	78604
2.03300	55190
2.03667	39178
2.04033	28331
2.04400	20999
2.04767	16017
2.05133	12595
2.05500	10202
2.05867	8491
2.06233	7234
2.06600	6286
2.06967	5552
2.07333	4972
2.07700	4505
2.08067	4125
2.08433	3807
2.08800	3534
2.09167	3296
2.09533	3087
2.09900	2905
2.10267	2747
2.10633	2604
2.11000	2475
2.11367	2359
2.11733	2254
2.12100	2159
2.12467	2068
2.12833	1985
2.13200	1907
2.13567	1831
2.13933	1756
2.14300	1687
2.14667	1622
2.15033	1561
2.15400	1507
2.15767	1454
2.16133	1403
2.16500	1355
2.16867	1308
2.17233	1263
2.17600	1224
2.17967	1194
2.18333	1170
2.18700	1147
2.19067	1125
2.19433	1099
2.19800	1072
2.20167	1047
2.20533	1017
2.20900	986
2.21267	958
2.21633	935
2.22000	914
2.22367	894
2.22733	873
2.23100	853
2.23467	836
2.23833	821
2.24200	806
2.24567	791
2.24933	779
2.25300	769
2.25667	756
2.26033	743
2.26400	731
2.26767	717
2.27133	703
2.27500	693
2.27867	680
2.28233	660
2.28600	639
2.28967	623
2.29333	616
2.29700	617
2.30067	620
2.30433	619
2.30800	608
2.31167	590
2.31533	573
2.31900	558
2.32267	546
2.32633	537
2.33000	530
2.33367	526
2.33733	523
2.34100	520
2.34467	515
2.34833	509
2.35200	505
2.35567	504
2.35933	504
2.36300	505
2.36667	504
2.37033	500
2.37400	490
2.37767	480
2.38133	474
2.38500	468
2.38867	460
2.39233	453
2.39600	448
2.39967	446
2.40333	445
2.40700	446
2.41067	445
2.41433	442
2.41800	439
2.42167	434
2.42533	429
2.42900	424
2.43267	418
2.43633	415
2.44000	413
2.44367	411
2.44733	409
2.45100	406
2.45467	399
2.45833	388
2.46200	377
2.46567	368
2.46933	365
2.47300	364
2.47667	365
2.48033	368
2.48400	373
2.48767	383
2.49133	395
2.49500	400
2.49867	396
2.50233	388
2.50600	380
2.50967	374
2.51333	368
2.51700	362
2.52067	354
2.52433	346
2.52800	344
2.53167	347
2.53533	351
2.53900	352
2.54267	349
2.54633	341
2.55000	333
2.55367	330
2.55733	328
2.56100	328
2.56467	329
2.56833	331
2.57200	332
2.57567	335
2.57933	333
2.58300	326
2.58667	320
2.59033	316
2.59400	313
2.59767	313
2.60133	315
2.60500	318
2.60867	322
2.61233	326
2.61600	327
2.61967	324
2.62333	320
2.62700	316
2.63067	313
2.63433	311
2.63800	308
2.64167	303
2.64533	300
2.64900	299
2.65267	299
2.65633	301
2.66000	302
2.66367	306
2.66733	312
2.67100	316
2.67467	318
2.67833	315
2.68200	311
2.68567	309
2.68933	305
2.69300	298
2.69667	291
2.70033	286
2.70400	286
2.70767	288
2.71133	290
2.71500	289
2.71867	289
2.72233	293
2.72600	299
2.72967	300
2.73333	297
2.73700	294
2.74067	288
2.74433	281
2.74800	276
2.75167	272
2.75533	270
2.75900	268
2.76267	269
2.76633	273
2.77000	282
2.77367	291
2.77733	295
2.78100	291
2.78467	284
2.78833	275
2.79200	268
2.79567	265
2.79933	263
2.80300	266
2.80667	268
2.81033	270
2.81400	271
2.81767	272
2.82133	270
2.82500	266
2.82867	260
2.83233	259
2.83600	261
2.83967	262
2.84333	262
2.84700	258
2.85067	257
2.85433	257
2.85800	258
2.86167	257
2.86533	256
2.86900	259
2.87267	264
2.87633	270
2.88000	275
2.88367	281
2.88733	287
2.89100	294
2.89467	301
2.89833	303
2.90200	299
2.90567	288
2.90933	278
2.91300	274
2.91667	272
2.92033	271
2.92400	268
2.92767	263
2.93133	259
2.93500	253
2.93867	247
2.94233	244
2.94600	244
2.94967	246
2.95333	249
2.95700	254
2.96067	258
2.96433	263
2.96800	267
2.97167	270
2.97533	269
2.97900	266
2.98267	263
2.98633	260
2.99000	261
2.99367	266
2.99733	271
3.00100	277
3.00467	285
3.00833	289
3.01200	289
3.01567	286
3.01933	284
3.02300	283
3.02667	281
3.03033	278
3.03400	272
3.03767	264
3.04133	258
3.04500	255
3.04867	251
3.05233	250
3.05600	251
3.05967	254
3.06333	255
3.06700	252
3.07067	245
3.07433	240
3.07800	236
3.08167	234
3.08533	232
3.08900	234
3.09267	238
3.09633	242
3.10000	247
3.10367	252
3.10733	254
3.11100	252
3.11467	249
3.11833	244
3.12200	238
3.12567	230
3.12933	224
3.13300	222
3.13667	224
3.14033	226
3.14400	228
3.14767	231
3.15133	232
3.15500	232
3.15867	231
3.16233	231
3.16600	234
3.16967	237
3.17333	234
3.17700	229
3.18067	230
3.18433	238
3.18800	247
3.19167	251
3.19533	249
3.19900	242
3.20267	237
3.20633	232
3.21000	231
3.21367	231
3.21733	231
3.22100	232
3.22467	236
3.22833	237
3.23200	236
3.23567	230
3.23933	225
3.24300	220
3.24667	216
3.25033	211
3.25400	206
3.25767	201
3.26133	198
3.26500	199
3.26867	202
3.27233	206
3.27600	212
3.27967	218
3.28333	222
3.28700	225
3.29067	229
3.29433	235
3.29800	239
3.30167	239
3.30533	236
3.30900	230
3.31267	230
3.31633	237
3.32000	243
3.32367	241
3.32733	235
3.33100	226
3.33467	220
3.33833	216
3.34200	213
3.34567	213
3.34933	214
3.35300	214
3.35667	214
3.36033	216
3.36400	218
3.36767	218
3.37133	216
3.37500	217
3.37867	219
3.38233	221
3.38600	227
3.38967	233
3.39333	235
3.39700	230
3.40067	221
3.40433	210
3.40800	201
3.41167	197
3.41533	194
3.41900	192
3.42267	191
3.42633	191
3.43000	193
3.43367	197
3.43733	200
3.44100	202
3.44467	201
3.44833	199
3.45200	196
3.45567	197
3.45933	200
3.46300	201
3.46667	204
3.47033	206
3.47400	206
3.47767	205
3.48133	204
3.48500	200
3.48867	196
3.49233	195
3.49600	192
3.49967	190
3.50333	187
3.50700	185
3.51067	185
3.51433	189
3.51800	193
3.52167	197
3.52533	198
3.52900	196
3.53267	193
3.53633	191
3.54000	189
3.54367	190
3.54733	191
3.55100	188
3.55467	183
3.55833	183
3.56200	193
3.56567	208
3.56933	216
3.57300	211
3.57667	198
3.58033	181
3.58400	168
3.58767	158
3.59133	153
3.59500	155
3.59867	159
3.60233	165
3.60600	170
3.60967	173
3.61333	175
3.61700	176
3.62067	173
3.62433	169
3.62800	167
3.63167	170
3.63533	173
3.63900	171
3.64267	170
3.64633	168
3.65000	164
3.65367	159
3.65733	157
3.66100	159
3.66467	160
3.66833	164
3.67200	171
3.67567	179
3.67933	183
3.68300	181
3.68667	176
3.69033	172
3.69400	168
3.69767	164
3.70133	163
3.70500	165
3.70867	167
3.71233	170
3.71600	171
3.71967	175
3.72333	179
3.72700	182
3.73067	181
3.73433	176
3.73800	169
3.74167	161
3.74533	157
3.74900	152
3.75267	143
3.75633	137
3.76000	134
3.76367	133
3.76733	133
3.77100	134
3.77467	132
3.77833	130
3.78200	130
3.78567	132
3.78933	131
3.79300	134
3.79667	136
3.80033	139
3.80400	142
3.80767	147
3.81133	155
3.81500	164
3.81867	173
3.82233	177
3.82600	175
3.82967	170
3.83333	165
3.83700	158
3.84067	151
3.84433	147
3.84800	144
3.85167	140
3.85533	137
3.85900	133
3.86267	127
3.86633	121
3.87000	116
3.87367	112
3.87733	108
3.88100	106
3.88467	109
3.88833	115
3.89200	124
3.89567	133
3.89933	138
3.90300	138
3.90667	134
3.91033	130
3.91400	127
3.91767	125
3.92133	124
3.92500	124
3.92867	124
3.93233	124
3.93600	125
3.93967	131
3.94333	135
3.94700	136
3.95067	137
3.95433	134
3.95800	131
3.96167	127
3.96533	123
3.96900	120
3.97267	116
3.97633	116
3.98000	117
3.98367	116
3.98733	114
3.99100	112
3.99467	110
3.99833	107

[Chromatogram (Ch2)]
Interval(msec)	220
# of Points	1091
Start Time(min)	0.002
End Time(min)	3.998
R.Time (min)	Intensity
0.00167	0
0.00533	0
0.00900	0
0.01267	0
0.01633	0
0.02000	0
0.02367	1
0.02733	1
0.03100	1
0.03467	1
0.03833	2
0.04200	2
0.04567	2
0.04933	2
0.05300	2
0.05667	2
0.06033	2
0.06400	2
0.06767	1
0.07133	1
0.07500	1
0.07867	1
0.08233	1
0.08600	2
0.08967	2
0.09333	2
0.09700	3
0.10067	3
0.10433	3
0.10800	4
0.11167	4
0.11533	4
0.11900	5
0.12267	5
0.12633	5
0.13000	5
0.13367	5
0.13733	5
0.14100	5
0.14467	6
0.14833	6
0.15200	6
0.15567	6
0.15933	5
0.16300	5
0.16667	5
0.17033	5
0.17400	5
0.17767	5
0.18133	5
0.18500	5
0.18867	5
0.19233	5
0.19600	5
0.19967	5
0.20333	5
0.20700	5
0.21067	5
0.21433	5
0.21800	5
0.22167	5
0.22533	5
0.22900	5
0.23267	5
0.23633	4
0.24000	4
0.24367	4
0.24733	3
0.25100	3
0.25467	2
0.25833	2
0.26200	2
0.26567	2
0.26933	2
0.27300	2
0.27667	2
0.28033	2
0.28400	1
0.28767	1
0.29133	1
0.29500	1
0.29867	1
0.30233	0
0.30600	-0
0.30967	-0
0.31333	-0
0.31700	-0
0.32067	-0
0.32433	-1
0.32800	-1
0.33167	-1
0.33533	-1
0.33900	-0
0.34267	-0
0.34633	-0
0.35000	-0
0.35367	-0
0.35733	-0
0.36100	-0
0.36467	-1
0.36833	-1
0.37200	-1
0.37567	-1
0.37933	-1
0.38300	-1
0.38667	-1
0.39033	-1
0.39400	-0
0.39767	-0
0.40133	-0
0.40500	-0
0.40867	0
0.41233	0
0.41600	1
0.41967	1
0.42333	1
0.42700	2
0.43067	2
0.43433	3
0.43800	3
0.44167	3
0.44533	4
0.44900	4
0.45267	4
0.45633	4
0.46000	4
0.46367	4
0.46733	4
0.47100	5
0.47467	4
0.47833	4
0.48200	4
0.48567	4
0.48933	4
0.49300	5
0.49667	5
0.50033	5
0.50400	5
0.50767	4
0.51133	4
0.51500	4
0.51867	3
0.52233	3
0.52600	3
0.52967	3
0.53333	2
0.53700	2
0.54067	2
0.54433	2
0.54800	2
0.55167	2
0.55533	2
0.55900	2
0.56267	2
0.56633	3
0.57000	3
0.57367	3
0.57733	2
0.58100	2
0.58467	2
0.58833	2
0.59200	3
0.59567	3
0.59933	3
0.60300	3
0.60667	4
0.61033	4
0.61400	4
0.61767	4
0.62133	4
0.62500	4
0.62867	3
0.63233	3
0.63600	3
0.63967	3
0.64333	3
0.64700	3
0.65067	3
0.65433	4
0.65800	4
0.66167	4
0.66533	4
0.66900	4
0.67267	4
0.67633	4
0.68000	4
0.68367	4
0.68733	4
0.69100	4
0.69467	4
0.69833	4
0.70200	5
0.70567	5
0.70933	5
0.71300	6
0.71667	6
0.72033	6
0.72400	6
0.72767	6
0.73133	6
0.73500	6
0.73867	6
0.74233	6
0.74600	5
0.74967	5
0.75333	5
0.75700	5
0.76067	5
0.76433	5
0.76800	4
0.77167	4
0.77533	4
0.77900	3
0.78267	3
0.78633	3
0.79000	3
0.79367	3
0.79733	3
0.80100	3
0.80467	3
0.80833	3
0.81200	3
0.81567	3
0.81933	4
0.82300	4
0.82667	4
0.83033	4
0.83400	4
0.83767	5
0.84133	5
0.84500	5
0.84867	5
0.85233	5
0.85600	5
0.85967	5
0.86333	5
0.86700	5
0.87067	5
0.87433	5
0.87800	4
0.88167	4
0.88533	4
0.88900	4
0.89267	4
0.89633	3
0.90000	3
0.90367	3
0.90733	3
0.91100	2
0.91467	2
0.91833	1
0.92200	1
0.92567	0
0.92933	-0
0.93300	-1
0.93667	-1
0.94033	-1
0.94400	-2
0.94767	-1
0.95133	-1
0.95500	-1
0.95867	-1
0.96233	-1
0.96600	-1
0.96967	-1
0.97333	-0
0.97700	-0
0.98067	0
0.98433	0
0.98800	1
0.99167	1
0.99533	1
0.99900	1
1.00267	1
1.00633	1
1.01000	2
1.01367	1
1.01733	1
1.02100	1
1.02467	1
1.02833	1
1.03200	1
1.03567	1
1.03933	1
1.04300	1
1.04667	1
1.05033	1
1.05400	1
1.05767	1
1.06133	1
1.06500	1
1.06867	1
1.07233	2
1.07600	2
1.07967	2
1.08333	2
1.08700	2
1.09067	2
1.09433	1
1.09800	1
1.10167	1
1.10533	1
1.10900	1
1.11267	0
1.11633	0
1.12000	-0
1.12367	-0
1.12733	-1
1.13100	-1
1.13467	-1
1.13833	-1
1.14200	-0
1.14567	-0
1.14933	0
1.15300	1
1.15667	2
1.16033	2
1.16400	3
1.16767	4
1.17133	4
1.17500	4
1.17867	5
1.18233	5
1.18600	5
1.18967	5
1.19333	5
1.19700	5
1.20067	6
1.20433	6
1.20800	6
1.21167	6
1.21533	5
1.21900	5
1.22267	5
1.22633	5
1.23000	5
1.23367	4
1.23733	4
1.24100	4
1.24467	4
1.24833	3
1.25200	3
1.25567	3
1.25933	3
1.26300	3
1.26667	3
1.27033	3
1.27400	2
1.27767	2
1.28133	2
1.28500	1
1.28867	1
1.29233	1
1.29600	0
1.29967	-0
1.30333	-0
1.30700	-0
1.31067	-0
1.31433	-0
1.31800	-0
1.32167	0
1.32533	1
1.32900	1
1.33267	2
1.33633	3
1.34000	3
1.34367	3
1.34733	3
1.35100	4
1.35467	4
1.35833	4
1.36200	4
1.36567	4
1.36933	3
1.37300	3
1.37667	3
1.38033	3
1.38400	3
1.38767	3
1.39133	2
1.39500	2
1.39867	2
1.40233	3
1.40600	3
1.40967	3
1.41333	3
1.41700	2
1.42067	2
1.42433	2
1.42800	2
1.43167	2
1.43533	1
1.43900	1
1.44267	1
1.44633	1
1.45000	1
1.45367	1
1.45733	1
1.46100	1
1.46467	1
1.46833	1
1.47200	1
1.47567	1
1.47933	1
1.48300	1
1.48667	1
1.49033	1
1.49400	1
1.49767	1
1.50133	1
1.50500	2
1.50867	2
1.51233	2
1.51600	2
1.51967	2
1.52333	2
1.52700	3
1.53067	3
1.53433	3
1.53800	3
1.54167	3
1.54533	3
1.54900	3
1.55267	3
1.55633	3
1.56000	3
1.56367	3
1.56733	4
1.57100	3
1.57467	3
1.57833	3
1.58200	2
1.58567	2
1.58933	2
1.59300	1
1.59667	0
1.60033	-1
1.60400	-2
1.60767	-3
1.61133	-4
1.61500	-6
1.61867	-9
1.62233	-11
1.62600	-14
1.62967	-17
1.63333	-21
1.63700	-24
1.64067	-28
1.64433	-32
1.64800	-36
1.65167	-40
1.65533	-43
1.65900	-47
1.66267	-51
1.66633	-55
1.67000	-59
1.67367	-64
1.67733	-69
1.68100	-74
1.68467	-79
1.68833	-83
1.69200	-87
1.69567	-91
1.69933	-94
1.70300	-96
1.70667	-98
1.71033	-100
1.71400	-101
1.71767	-102
1.72133	-103
1.72500	-104
1.72867	-105
1.73233	-106
1.73600	-107
1.73967	-108
1.74333	-109
1.74700	-110
1.75067	-110
1.75433	-110
1.75800	-111
1.76167	-110
1.76533	-110
1.76900	-110
1.77267	-110
1.77633	-110
1.78000	-111
1.78367	-112
1.78733	-113
1.79100	-113
1.79467	-114
1.79833	-114
1.80200	-114
1.80567	-115
1.80933	-115
1.81300	-115
1.81667	-114
1.82033	-114
1.82400	-114
1.82767	-114
1.83133	-114
1.83500	-114
1.83867	-114
1.84233	-115
1.84600	-115
1.84967	-115
1.85333	-114
1.85700	-114
1.86067	-113
1.86433	-112
1.86800	-112
1.87167	-111
1.87533	-111
1.87900	-111
1.88267	-112
1.88633	-112
1.89000	-112
1.89367	-112
1.89733	-112
1.90100	-112
1.90467	-112
1.90833	-112
1.91200	-112
1.91567	-112
1.91933	-112
1.92300	-112
1.92667	-112
1.93033	-111
1.93400	-111
1.93767	-112
1.94133	-112
1.94500	-112
1.94867	-112
1.95233	-111
1.95600	-111
1.95967	-111
1.96333	-110
1.96700	-110
1.97067	-109
1.97433	-109
1.97800	-108
1.98167	-108
1.98533	-108
1.98900	-109
1.99267	-109
1.99633	-110
2.00000	-110
2.00367	-109
2.00733	-109
2.01100	-109
2.01467	-109
2.01833	-109
2.02200	-108
2.02567	-108
2.02933	-107
2.03300	-107
2.03667	-106
2.04033	-105
2.04400	-104
2.04767	-103
2.05133	-102
2.05500	-102
2.05867	-102
2.06233	-101
2.06600	-101
2.06967	-100
2.07333	-99
2.07700	-99
2.08067	-98
2.08433	-97
2.08800	-97
2.09167	-96
2.09533	-97
2.09900	-97
2.10267	-97
2.10633	-97
2.11000	-97
2.11367	-97
2.11733	-97
2.12100	-96
2.12467	-95
2.12833	-95
2.13200	-94
2.13567	-94
2.13933	-94
2.14300	-95
2.14667	-95
2.15033	-94
2.15400	-94
2.15767	-94
2.16133	-93
2.16500	-93
2.16867	-92
2.17233	-92
2.17600	-91
2.17967	-91
2.18333	-91
2.18700	-90
2.19067	-90
2.19433	-89
2.19800	-88
2.20167	-88
2.20533	-88
2.20900	-88
2.21267	-89
2.21633	-90
2.22000	-91
2.22367	-92
2.22733	-92
2.23100	-92
2.23467	-92
2.23833	-91
2.24200	-90
2.24567	-89
2.24933	-88
2.25300	-87
2.25667	-87
2.26033	-86
2.26400	-86
2.26767	-85
2.27133	-85
2.27500	-85
2.27867	-85
2.28233	-85
2.28600	-85
2.28967	-84
2.29333	-84
2.29700	-84
2.30067	-83
2.30433	-83
2.30800	-82
2.31167	-81
2.31533	-80
2.31900	-80
2.32267	-80
2.32633	-80
2.33000	-79
2.33367	-79
2.33733	-78
2.34100	-77
2.34467	-76
2.34833	-75
2.35200	-74
2.35567	-72
2.35933	-71
2.36300	-70
2.36667	-69
2.37033	-68
2.37400	-66
2.37767	-63
2.38133	-60
2.38500	-57
2.38867	-53
2.39233	-50
2.39600	-46
2.39967	-42
2.40333	-38
2.40700	-34
2.41067	-30
2.41433	-27
2.41800	-24
2.42167	-21
2.42533	-19
2.42900	-17
2.43267	-15
2.43633	-13
2.44000	-11
2.44367	-9
2.44733	-8
2.45100	-6
2.45467	-5
2.45833	-3
2.46200	-2
2.46567	-1
2.46933	0
2.47300	1
2.47667	2
2.48033	3
2.48400	5
2.48767	6
2.49133	8
2.49500	10
2.49867	11
2.50233	12
2.50600	12
2.50967	12
2.51333	12
2.51700	12
2.52067	13
2.52433	13
2.52800	14
2.53167	14
2.53533	15
2.53900	16
2.54267	17
2.54633	17
2.55000	17
2.55367	18
2.55733	18
2.56100	18
2.56467	18
2.56833	18
2.57200	18
2.57567	18
2.57933	17
2.58300	17
2.58667	16
2.59033	17
2.59400	17
2.59767	17
2.60133	18
2.60500	18
2.60867	19
2.61233	20
2.61600	20
2.61967	21
2.62333	21
2.62700	21
2.63067	20
2.63433	20
2.63800	20
2.64167	20
2.64533	21
2.64900	21
2.65267	22
2.65633	22
2.66000	23
2.66367	23
2.66733	23
2.67100	23
2.67467	23
2.67833	23
2.68200	24
2.68567	24
2.68933	25
2.69300	26
2.69667	26
2.70033	27
2.70400	27
2.70767	27
2.71133	27
2.71500	27
2.71867	27
2.72233	28
2.72600	28
2.72967	28
2.73333	28
2.73700	28
2.74067	28
2.74433	28
2.74800	28
2.75167	28
2.75533	28
2.75900	28
2.76267	29
2.76633	29
2.77000	29
2.77367	29
2.77733	29
2.78100	29
2.78467	29
2.78833	29
2.79200	29
2.79567	29
2.79933	29
2.80300	29
2.80667	29
2.81033	29
2.81400	29
2.81767	29
2.82133	29
2.82500	29
2.82867	29
2.83233	29
2.83600	28
2.83967	27
2.84333	24
2.84700	19
2.85067	12
2.85433	2
2.85800	-12
2.86167	-29
2.86533	-51
2.86900	-77
2.87267	-107
2.87633	-141
2.88000	-179
2.88367	-221
2.88733	-265
2.89100	-312
2.89467	-362
2.89833	-413
2.90200	-465
2.90567	-518
2.90933	-572
2.91300	-625
2.91667	-679
2.92033	-731
2.92400	-783
2.92767	-835
2.93133	-888
2.93500	-946
2.93867	-1007
2.94233	-1060
2.94600	-1096
2.94967	-1107
2.95333	-1092
2.95700	-1052
2.96067	-994
2.96433	-924
2.96800	-845
2.97167	-764
2.97533	-684
2.97900	-606
2.98267	-533
2.98633	-466
2.99000	-405
2.99367	-350
2.99733	-301
3.00100	-258
3.00467	-220
3.00833	-187
3.01200	-158
3.01567	-133
3.01933	-112
3.02300	-93
3.02667	-77
3.03033	-64
3.03400	-52
3.03767	-42
3.04133	-34
3.04500	-26
3.04867	-20
3.05233	-14
3.05600	-9
3.05967	-5
3.06333	-2
3.06700	1
3.07067	4
3.07433	6
3.07800	8
3.08167	9
3.08533	11
3.08900	12
3.09267	13
3.09633	14
3.10000	14
3.10367	15
3.10733	16
3.11100	16
3.11467	17
3.11833	18
3.12200	18
3.12567	19
3.12933	19
3.13300	20
3.13667	21
3.14033	21
3.14400	21
3.14767	22
3.15133	22
3.15500	22
3.15867	23
3.16233	23
3.16600	23
3.16967	23
3.17333	23
3.17700	23
3.18067	24
3.18433	24
3.18800	24
3.19167	25
3.19533	25
3.19900	25
3.20267	25
3.20633	25
3.21000	25
3.21367	25
3.21733	25
3.22100	25
3.22467	25
3.22833	25
3.23200	25
3.23567	25
3.23933	25
3.24300	25
3.24667	25
3.25033	25
3.25400	26
3.25767	26
3.26133	26
3.26500	26
3.26867	27
3.27233	27
3.27600	27
3.27967	27
3.28333	27
3.28700	26
3.29067	26
3.29433	26
3.29800	26
3.30167	26
3.30533	26
3.30900	26
3.31267	27
3.31633	27
3.32000	27
3.32367	28
3.32733	28
3.33100	29
3.33467	29
3.33833	29
3.34200	30
3.34567	30
3.34933	30
3.35300	30
3.35667	31
3.36033	31
3.36400	31
3.36767	32
3.37133	32
3.37500	32
3.37867	32
3.38233	32
3.38600	33
3.38967	33
3.39333	33
3.39700	33
3.40067	33
3.40433	33
3.40800	33
3.41167	33
3.41533	33
3.41900	33
3.42267	33
3.42633	33
3.43000	33
3.43367	33
3.43733	32
3.44100	32
3.44467	32
3.44833	32
3.45200	32
3.45567	32
3.45933	32
3.46300	32
3.46667	32
3.47033	32
3.47400	32
3.47767	32
3.48133	31
3.48500	31
3.48867	31
3.49233	31
3.49600	31
3.49967	31
3.50333	30
3.50700	30
3.51067	30
3.51433	30
3.51800	30
3.52167	30
3.52533	30
3.52900	29
3.53267	29
3.53633	28
3.54000	28
3.54367	28
3.54733	28
3.55100	28
3.55467	28
3.55833	28
3.56200	28
3.56567	28
3.56933	28
3.57300	28
3.57667	28
3.58033	28
3.58400	29
3.58767	29
3.59133	29
3.59500	29
3.59867	29
3.60233	29
3.60600	29
3.60967	29
3.61333	29
3.61700	29
3.62067	29
3.62433	29
3.62800	29
3.63167	29
3.63533	29
3.63900	29
3.64267	29
3.64633	29
3.65000	29
3.65367	29
3.65733	29
3.66100	29
3.66467	29
3.66833	29
3.67200	29
3.67567	29
3.67933	29
3.68300	29
3.68667	29
3.69033	29
3.69400	28
3.69767	28
3.70133	28
3.70500	28
3.70867	28
3.71233	28
3.71600	28
3.71967	28
3.72333	28
3.72700	29
3.73067	29
3.73433	29
3.73800	29
3.74167	29
3.74533	29
3.74900	29
3.75267	28
3.75633	28
3.76000	28
3.76367	28
3.76733	28
3.77100	28
3.77467	28
3.77833	28
3.78200	29
3.78567	29
3.78933	29
3.79300	29
3.79667	29
3.80033	30
3.80400	30
3.80767	30
3.81133	30
3.81500	30
3.81867	30
3.82233	30
3.82600	29
3.82967	29
3.83333	29
3.83700	29
3.84067	29
3.84433	29
3.84800	29
3.85167	28
3.85533	28
3.85900	28
3.86267	28
3.86633	28
3.87000	28
3.87367	28
3.87733	28
3.88100	28
3.88467	28
3.88833	28
3.89200	28
3.89567	28
3.89933	28
3.90300	28
3.90667	28
3.91033	29
3.91400	29
3.91767	29
3.92133	29
3.92500	30
3.92867	30
3.93233	31
3.93600	31
3.93967	31
3.94333	31
3.94700	31
3.95067	31
3.95433	31
3.95800	31
3.96167	31
3.96533	31
3.96900	31
3.97267	31
3.97633	31
3.98000	30
3.98367	30
3.98733	30
3.99100	30
3.99467	30
3.99833	30

[Chromatogram (Ch3)]
Interval(msec)	220
# of Points	1091
Start Time(min)	0.002
End Time(min)	3.998
R.Time (min)	Intensity
0.00167	-1
0.00533	-3
0.00900	-2
0.01267	-2
0.01633	-3
0.02000	-2
0.02367	-1
0.02733	1
0.03100	1
0.03467	-0
0.03833	-0
0.04200	-1
0.04567	-4
0.04933	-4
0.05300	-5
0.05667	-5
0.06033	-7
0.06400	-6
0.06767	-4
0.07133	-2
0.07500	-1
0.07867	-1
0.08233	0
0.08600	1
0.08967	1
0.09333	1
0.09700	1
0.10067	0
0.10433	1
0.10800	0
0.11167	0
0.11533	-1
0.11900	-1
0.12267	-2
0.12633	-2
0.13000	-2
0.13367	-4
0.13733	-5
0.14100	-7
0.14467	-8
0.14833	-6
0.15200	-6
0.15567	-6
0.15933	-5
0.16300	-4
0.16667	-1
0.17033	-0
0.17400	1
0.17767	1
0.18133	1
0.18500	-1
0.18867	-2
0.19233	-3
0.19600	-4
0.19967	-4
0.20333	-4
0.20700	-3
0.21067	-2
0.21433	-2
0.21800	-2
0.22167	-1
0.22533	-1
0.22900	-1
0.23267	-3
0.23633	-3
0.24000	-5
0.24367	-6
0.24733	-5
0.25100	-4
0.25467	-2
0.25833	-0
0.26200	-2
0.26567	-3
0.26933	-5
0.27300	-7
0.27667	-7
0.28033	-7
0.28400	-7
0.28767	-5
0.29133	-3
0.29500	-2
0.29867	-2
0.30233	-0
0.30600	1
0.30967	0
0.31333	-2
0.31700	-5
0.32067	-5
0.32433	-4
0.32800	-5
0.33167	-7
0.33533	-9
0.33900	-9
0.34267	-8
0.34633	-5
0.35000	-4
0.35367	-6
0.35733	-6
0.36100	-7
0.36467	-8
0.36833	-9
0.37200	-9
0.37567	-8
0.37933	-8
0.38300	-8
0.38667	-10
0.39033	-8
0.39400	-8
0.39767	-6
0.40133	-5
0.40500	-6
0.40867	-7
0.41233	-7
0.41600	-6
0.41967	-4
0.42333	-4
0.42700	-2
0.43067	-0
0.43433	1
0.43800	1
0.44167	2
0.44533	3
0.44900	0
0.45267	-3
0.45633	-5
0.46000	-3
0.46367	-0
0.46733	-0
0.47100	-1
0.47467	1
0.47833	1
0.48200	0
0.48567	1
0.48933	2
0.49300	1
0.49667	0
0.50033	1
0.50400	3
0.50767	4
0.51133	3
0.51500	3
0.51867	3
0.52233	4
0.52600	4
0.52967	2
0.53333	1
0.53700	0
0.54067	1
0.54433	2
0.54800	2
0.55167	3
0.55533	4
0.55900	2
0.56267	1
0.56633	2
0.57000	4
0.57367	7
0.57733	7
0.58100	6
0.58467	5
0.58833	4
0.59200	5
0.59567	5
0.59933	6
0.60300	7
0.60667	7
0.61033	7
0.61400	6
0.61767	6
0.62133	9
0.62500	10
0.62867	9
0.63233	8
0.63600	6
0.63967	4
0.64333	3
0.64700	2
0.65067	1
0.65433	1
0.65800	1
0.66167	1
0.66533	3
0.66900	5
0.67267	5
0.67633	5
0.68000	8
0.68367	12
0.68733	15
0.69100	15
0.69467	12
0.69833	10
0.70200	9
0.70567	10
0.70933	9
0.71300	9
0.71667	9
0.72033	7
0.72400	8
0.72767	9
0.73133	9
0.73500	8
0.73867	7
0.74233	10
0.74600	12
0.74967	12
0.75333	12
0.75700	12
0.76067	12
0.76433	12
0.76800	11
0.77167	10
0.77533	9
0.77900	6
0.78267	6
0.78633	6
0.79000	8
0.79367	11
0.79733	13
0.80100	14
0.80467	14
0.80833	14
0.81200	12
0.81567	10
0.81933	8
0.82300	7
0.82667	7
0.83033	8
0.83400	9
0.83767	12
0.84133	14
0.84500	13
0.84867	11
0.85233	10
0.85600	10
0.85967	9
0.86333	10
0.86700	11
0.87067	11
0.87433	9
0.87800	9
0.88167	10
0.88533	9
0.88900	9
0.89267	10
0.89633	12
0.90000	14
0.90367	15
0.90733	13
0.91100	13
0.91467	11
0.91833	9
0.92200	7
0.92567	8
0.92933	9
0.93300	11
0.93667	12
0.94033	12
0.94400	11
0.94767	12
0.95133	12
0.95500	13
0.95867	15
0.96233	17
0.96600	18
0.96967	14
0.97333	11
0.97700	9
0.98067	5
0.98433	4
0.98800	5
0.99167	6
0.99533	10
0.99900	14
1.00267	18
1.00633	19
1.01000	18
1.01367	18
1.01733	17
1.02100	14
1.02467	14
1.02833	13
1.03200	12
1.03567	12
1.03933	11
1.04300	9
1.04667	10
1.05033	11
1.05400	10
1.05767	9
1.06133	9
1.06500	11
1.06867	12
1.07233	11
1.07600	9
1.07967	8
1.08333	10
1.08700	12
1.09067	15
1.09433	19
1.09800	20
1.10167	16
1.10533	14
1.10900	12
1.11267	10
1.11633	10
1.12000	11
1.12367	12
1.12733	10
1.13100	11
1.13467	10
1.13833	10
1.14200	10
1.14567	12
1.14933	13
1.15300	13
1.15667	13
1.16033	12
1.16400	12
1.16767	12
1.17133	11
1.17500	10
1.17867	10
1.18233	10
1.18600	11
1.18967	12
1.19333	14
1.19700	14
1.20067	13
1.20433	12
1.20800	12
1.21167	14
1.21533	15
1.21900	13
1.22267	13
1.22633	13
1.23000	13
1.23367	14
1.23733	14
1.24100	14
1.24467	14
1.24833	14
1.25200	14
1.25567	13
1.25933	12
1.26300	11
1.26667	10
1.27033	6
1.27400	5
1.27767	5
1.28133	6
1.28500	9
1.28867	14
1.29233	16
1.29600	16
1.29967	15
1.30333	12
1.30700	13
1.31067	17
1.31433	19
1.31800	19
1.32167	18
1.32533	17
1.32900	15
1.33267	15
1.33633	16
1.34000	18
1.34367	19
1.34733	19
1.35100	18
1.35467	17
1.35833	17
1.36200	18
1.36567	18
1.36933	17
1.37300	15
1.37667	14
1.38033	14
1.38400	14
1.38767	12
1.39133	13
1.39500	17
1.39867	18
1.40233	20
1.40600	20
1.40967	18
1.41333	16
1.41700	15
1.42067	17
1.42433	19
1.42800	20
1.43167	19
1.43533	19
1.43900	18
1.44267	18
1.44633	17
1.45000	16
1.45367	16
1.45733	16
1.46100	17
1.46467	18
1.46833	20
1.47200	20
1.47567	21
1.47933	20
1.48300	21
1.48667	22
1.49033	23
1.49400	22
1.49767	20
1.50133	19
1.50500	21
1.50867	23
1.51233	25
1.51600	26
1.51967	25
1.52333	24
1.52700	23
1.53067	20
1.53433	19
1.53800	22
1.54167	24
1.54533	24
1.54900	23
1.55267	21
1.55633	22
1.56000	20
1.56367	21
1.56733	24
1.57100	24
1.57467	24
1.57833	23
1.58200	23
1.58567	23
1.58933	24
1.59300	28
1.59667	28
1.60033	26
1.60400	25
1.60767	26
1.61133	28
1.61500	29
1.61867	31
1.62233	31
1.62600	31
1.62967	30
1.63333	31
1.63700	33
1.64067	35
1.64433	35
1.64800	36
1.65167	36
1.65533	36
1.65900	36
1.66267	37
1.66633	37
1.67000	37
1.67367	38
1.67733	36
1.68100	36
1.68467	37
1.68833	38
1.69200	41
1.69567	42
1.69933	43
1.70300	43
1.70667	44
1.71033	43
1.71400	44
1.71767	44
1.72133	43
1.72500	45
1.72867	46
1.73233	48
1.73600	50
1.73967	51
1.74333	54
1.74700	56
1.75067	56
1.75433	56
1.75800	55
1.76167	54
1.76533	53
1.76900	49
1.77267	47
1.77633	47
1.78000	46
1.78367	47
1.78733	50
1.79100	53
1.79467	53
1.79833	55
1.80200	57
1.80567	59
1.80933	61
1.81300	62
1.81667	63
1.82033	65
1.82400	67
1.82767	66
1.83133	66
1.83500	67
1.83867	66
1.84233	67
1.84600	69
1.84967	69
1.85333	73
1.85700	76
1.86067	75
1.86433	73
1.86800	71
1.87167	71
1.87533	71
1.87900	70
1.88267	71
1.88633	76
1.89000	79
1.89367	82
1.89733	83
1.90100	82
1.90467	82
1.90833	83
1.91200	83
1.91567	83
1.91933	83
1.92300	84
1.92667	85
1.93033	87
1.93400	88
1.93767	88
1.94133	87
1.94500	86
1.94867	86
1.95233	88
1.95600	88
1.95967	87
1.96333	88
1.96700	88
1.97067	88
1.97433	88
1.97800	89
1.98167	91
1.98533	93
1.98900	95
1.99267	95
1.99633	97
2.00000	99
2.00367	100
2.00733	103
2.01100	105
2.01467	106
2.01833	105
2.02200	102
2.02567	100
2.02933	99
2.03300	97
2.03667	95
2.04033	98
2.04400	102
2.04767	105
2.05133	108
2.05500	111
2.05867	110
2.06233	111
2.06600	111
2.06967	112
2.07333	114
2.07700	115
2.08067	113
2.08433	113
2.08800	116
2.09167	117
2.09533	116
2.09900	114
2.10267	115
2.10633	117
2.11000	117
2.11367	117
2.11733	116
2.12100	115
2.12467	114
2.12833	114
2.13200	116
2.13567	119
2.13933	120
2.14300	123
2.14667	125
2.15033	124
2.15400	124
2.15767	127
2.16133	131
2.16500	133
2.16867	134
2.17233	134
2.17600	134
2.17967	134
2.18333	135
2.18700	135
2.19067	137
2.19433	137
2.19800	137
2.20167	137
2.20533	139
2.20900	141
2.21267	142
2.21633	142
2.22000	142
2.22367	143
2.22733	143
2.23100	142
2.23467	142
2.23833	143
2.24200	143
2.24567	145
2.24933	146
2.25300	147
2.25667	150
2.26033	150
2.26400	151
2.26767	152
2.27133	154
2.27500	154
2.27867	153
2.28233	153
2.28600	154
2.28967	158
2.29333	162
2.29700	162
2.30067	164
2.30433	165
2.30800	163
2.31167	161
2.31533	163
2.31900	166
2.32267	168
2.32633	168
2.33000	169
2.33367	170
2.33733	172
2.34100	174
2.34467	175
2.34833	177
2.35200	180
2.35567	183
2.35933	184
2.36300	182
2.36667	179
2.37033	179
2.37400	181
2.37767	185
2.38133	188
2.38500	188
2.38867	188
2.39233	190
2.39600	193
2.39967	197
2.40333	199
2.40700	200
2.41067	205
2.41433	209
2.41800	209
2.42167	208
2.42533	210
2.42900	212
2.43267	215
2.43633	215
2.44000	215
2.44367	239
2.44733	306
2.45100	381
2.45467	441
2.45833	478
2.46200	482
2.46567	465
2.46933	440
2.47300	419
2.47667	405
2.48033	395
2.48400	388
2.48767	379
2.49133	363
2.49500	342
2.49867	321
2.50233	303
2.50600	289
2.50967	279
2.51333	274
2.51700	271
2.52067	269
2.52433	269
2.52800	270
2.53167	276
2.53533	282
2.53900	291
2.54267	299
2.54633	303
2.55000	301
2.55367	297
2.55733	291
2.56100	283
2.56467	276
2.56833	268
2.57200	260
2.57567	256
2.57933	251
2.58300	245
2.58667	240
2.59033	236
2.59400	231
2.59767	227
2.60133	217
2.60500	204
2.60867	189
2.61233	171
2.61600	151
2.61967	132
2.62333	116
2.62700	100
2.63067	86
2.63433	77
2.63800	74
2.64167	74
2.64533	76
2.64900	81
2.65267	89
2.65633	98
2.66000	107
2.66367	117
2.66733	130
2.67100	143
2.67467	154
2.67833	165
2.68200	173
2.68567	179
2.68933	184
2.69300	187
2.69667	190
2.70033	192
2.70400	191
2.70767	193
2.71133	192
2.71500	190
2.71867	190
2.72233	188
2.72600	187
2.72967	187
2.73333	188
2.73700	187
2.74067	186
2.74433	187
2.74800	190
2.75167	191
2.75533	191
2.75900	191
2.76267	192
2.76633	192
2.77000	191
2.77367	189
2.77733	190
2.78100	193
2.78467	195
2.78833	198
2.79200	201
2.79567	205
2.79933	204
2.80300	203
2.80667	204
2.81033	203
2.81400	203
2.81767	210
2.82133	227
2.82500	265
2.82867	340
2.83233	474
2.83600	688
2.83967	999
2.84333	1409
2.84700	1910
2.85067	2474
2.85433	3061
2.85800	3626
2.86167	4119
2.86533	4502
2.86900	4751
2.87267	4856
2.87633	4823
2.88000	4673
2.88367	4434
2.88733	4137
2.89100	3807
2.89467	3465
2.89833	3125
2.90200	2798
2.90567	2493
2.90933	2215
2.91300	1963
2.91667	1737
2.92033	1537
2.92400	1359
2.92767	1201
2.93133	1064
2.93500	946
2.93867	844
2.94233	756
2.94600	680
2.94967	614
2.95333	558
2.95700	512
2.96067	469
2.96433	433
2.96800	403
2.97167	375
2.97533	352
2.97900	333
2.98267	316
2.98633	300
2.99000	286
2.99367	274
2.99733	265
3.00100	256
3.00467	248
3.00833	242
3.01200	236
3.01567	230
3.01933	225
3.02300	220
3.02667	213
3.03033	208
3.03400	204
3.03767	203
3.04133	200
3.04500	195
3.04867	192
3.05233	191
3.05600	191
3.05967	188
3.06333	182
3.06700	178
3.07067	175
3.07433	174
3.07800	172
3.08167	171
3.08533	169
3.08900	167
3.09267	165
3.09633	161
3.10000	157
3.10367	157
3.10733	158
3.11100	158
3.11467	157
3.11833	156
3.12200	154
3.12567	153
3.12933	151
3.13300	150
3.13667	150
3.14033	149
3.14400	147
3.14767	146
3.15133	147
3.15500	146
3.15867	144
3.16233	144
3.16600	145
3.16967	145
3.17333	144
3.17700	142
3.18067	140
3.18433	139
3.18800	139
3.19167	139
3.19533	137
3.19900	137
3.20267	140
3.20633	144
3.21000	145
3.21367	146
3.21733	148
3.22100	149
3.22467	149
3.22833	147
3.23200	147
3.23567	147
3.23933	148
3.24300	150
3.24667	151
3.25033	150
3.25400	148
3.25767	138
3.26133	117
3.26500	95
3.26867	83
3.27233	81
3.27600	90
3.27967	105
3.28333	129
3.28700	160
3.29067	197
3.29433	239
3.29800	281
3.30167	321
3.30533	360
3.30900	395
3.31267	427
3.31633	457
3.32000	482
3.32367	500
3.32733	514
3.33100	525
3.33467	532
3.33833	538
3.34200	545
3.34567	555
3.34933	566
3.35300	576
3.35667	587
3.36033	598
3.36400	611
3.36767	625
3.37133	638
3.37500	647
3.37867	657
3.38233	666
3.38600	672
3.38967	680
3.39333	690
3.39700	698
3.40067	704
3.40433	707
3.40800	711
3.41167	714
3.41533	718
3.41900	721
3.42267	724
3.42633	727
3.43000	727
3.43367	727
3.43733	724
3.44100	723
3.44467	718
3.44833	710
3.45200	703
3.45567	699
3.45933	692
3.46300	686
3.46667	683
3.47033	678
3.47400	671
3.47767	663
3.48133	656
3.48500	651
3.48867	645
3.49233	639
3.49600	633
3.49967	625
3.50333	618
3.50700	612
3.51067	610
3.51433	609
3.51800	605
3.52167	599
3.52533	593
3.52900	589
3.53267	588
3.53633	586
3.54000	582
3.54367	581
3.54733	581
3.55100	580
3.55467	577
3.55833	574
3.56200	570
3.56567	568
3.56933	567
3.57300	566
3.57667	562
3.58033	558
3.58400	553
3.58767	550
3.59133	548
3.59500	546
3.59867	545
3.60233	544
3.60600	545
3.60967	543
3.61333	541
3.61700	538
3.62067	535
3.62433	532
3.62800	531
3.63167	528
3.63533	524
3.63900	521
3.64267	519
3.64633	517
3.65000	515
3.65367	512
3.65733	509
3.66100	507
3.66467	506
3.66833	506
3.67200	506
3.67567	505
3.67933	504
3.68300	503
3.68667	501
3.69033	498
3.69400	495
3.69767	492
3.70133	491
3.70500	490
3.70867	486
3.71233	485
3.71600	483
3.71967	482
3.72333	481
3.72700	478
3.73067	477
3.73433	475
3.73800	472
3.74167	469
3.74533	467
3.74900	468
3.75267	470
3.75633	471
3.76000	473
3.76367	473
3.76733	474
3.77100	475
3.77467	471
3.77833	467
3.78200	464
3.78567	463
3.78933	461
3.79300	459
3.79667	458
3.80033	457
3.80400	457
3.80767	457
3.81133	456
3.81500	453
3.81867	454
3.82233	456
3.82600	455
3.82967	453
3.83333	452
3.83700	451
3.84067	450
3.84433	448
3.84800	448
3.85167	449
3.85533	451
3.85900	451
3.86267	450
3.86633	450
3.87000	451
3.87367	452
3.87733	452
3.88100	452
3.88467	451
3.88833	449
3.89200	448
3.89567	447
3.89933	446
3.90300	446
3.90667	446
3.91033	444
3.91400	442
3.91767	440
3.92133	440
3.92500	439
3.92867	437
3.93233	436
3.93600	436
3.93967	436
3.94333	436
3.94700	438
3.95067	439
3.95433	439
3.95800	438
3.96167	440
3.96533	438
3.96900	436
3.97267	434
3.97633	433
3.98000	432
3.98367	434
3.98733	435
3.99100	435
3.99467	435
3.99833	433

[Status Trace (Column Oven Temperature)]
Interval(msec)	1000
# of Points	240
Start Time(min)	0.015
End Time(min)	3.999
Intensity Units	
Intensity Multiplier	1
R.Time (min)	Intensity
0.01545	35.05
0.03212	35.05
0.04878	35.04
0.06545	35.05
0.08212	35.05
0.09878	35.04
0.11545	35.03
0.13212	35.03
0.14878	35.02
0.16545	35.01
0.18212	35.00
0.19878	34.99
0.21545	34.98
0.23212	34.98
0.24878	34.99
0.26545	35.00
0.28212	35.00
0.29878	35.02
0.31545	35.04
0.33212	35.05
0.34878	35.05
0.36545	35.06
0.38212	35.06
0.39878	35.07
0.41545	35.06
0.43212	35.05
0.44878	35.05
0.46545	35.04
0.48212	35.03
0.49878	35.03
0.51545	35.03
0.53212	35.04
0.54878	35.05
0.56545	35.04
0.58212	35.04
0.59878	35.04
0.61545	35.04
0.63212	35.03
0.64878	35.04
0.66545	35.04
0.68212	35.03
0.69878	35.03
0.71545	35.01
0.73212	35.00
0.74878	34.99
0.76545	34.99
0.78212	35.00
0.79878	35.00
0.81545	34.99
0.83212	34.98
0.84878	34.97
0.86545	34.97
0.88212	34.97
0.89878	34.97
0.91545	34.98
0.93212	35.00
0.94878	35.02
0.96545	35.02
0.98212	35.02
0.99878	35.02
1.01545	35.02
1.03212	35.02
1.04878	35.02
1.06545	35.01
1.08212	35.02
1.09878	35.02
1.11545	35.02
1.13212	35.03
1.14878	35.02
1.16545	35.02
1.18212	35.01
1.19878	34.99
1.21545	34.98
1.23212	34.98
1.24878	34.98
1.26545	34.98
1.28212	34.99
1.29878	35.00
1.31545	35.00
1.33212	35.00
1.34878	35.00
1.36545	35.00
1.38212	35.00
1.39878	34.99
1.41545	34.99
1.43212	35.00
1.44878	35.00
1.46545	35.00
1.48212	35.00
1.49878	35.00
1.51545	34.99
1.53212	34.99
1.54878	34.98
1.56545	34.97
1.58212	34.99
1.59878	35.02
1.61545	35.11
1.63212	35.26
1.64878	35.47
1.66545	35.75
1.68212	36.12
1.69878	36.48
1.71545	36.81
1.73212	37.16
1.74878	37.50
1.76545	37.82
1.78212	38.17
1.79878	38.50
1.81545	38.83
1.83212	39.16
1.84878	39.49
1.86545	39.80
1.88212	40.14
1.89878	40.46
1.91545	40.79
1.93212	41.12
1.94878	41.45
1.96545	41.78
1.98212	42.10
1.99878	42.43
2.01545	42.76
2.03212	43.09
2.04878	43.42
2.06545	43.74
2.08212	44.03
2.09878	44.37
2.11545	44.69
2.13212	45.01
2.14878	45.34
2.16545	45.67
2.18212	45.99
2.19878	46.30
2.21545	46.68
2.23212	47.02
2.24878	47.34
2.26545	47.66
2.28212	48.00
2.29878	48.33
2.31545	48.67
2.33212	48.99
2.34878	49.27
2.36545	49.54
2.38212	49.67
2.39878	49.70
2.41545	49.70
2.43212	49.70
2.44878	49.70
2.46545	49.73
2.48212	49.74
2.49878	49.74
2.51545	49.77
2.53212	49.77
2.54878	49.80
2.56545	49.80
2.58212	49.83
2.59878	49.84
2.61545	49.84
2.63212	49.85
2.64878	49.85
2.66545	49.86
2.68212	49.85
2.69878	49.85
2.71545	49.85
2.73212	49.85
2.74878	49.86
2.76545	49.86
2.78212	49.87
2.79878	49.89
2.81545	49.88
2.83212	49.89
2.84878	49.90
2.86545	49.90
2.88212	49.91
2.89878	49.92
2.91545	49.93
2.93212	49.96
2.94878	49.98
2.96545	50.01
2.98212	50.02
2.99878	50.03
3.01545	50.04
3.03212	50.05
3.04878	50.05
3.06545	50.05
3.08212	50.06
3.09878	50.07
3.11545	50.09
3.13212	50.09
3.14878	50.09
3.16545	50.09
3.18212	50.08
3.19878	50.08
3.21545	50.08
3.23212	50.09
3.24878	50.09
3.26545	50.10
3.28212	50.11
3.29878	50.13
3.31545	50.13
3.33212	50.12
3.34878	50.09
3.36545	50.07
3.38212	50.05
3.39878	50.02
3.41545	50.01
3.43212	50.00
3.44878	49.99
3.46545	49.98
3.48212	49.98
3.49878	49.98
3.51545	49.98
3.53212	50.00
3.54878	50.00
3.56545	50.02
3.58212	50.03
3.59878	50.02
3.61545	50.02
3.63212	50.01
3.64878	50.02
3.66545	50.03
3.68212	50.03
3.69878	50.03
3.71545	50.03
3.73212	50.03
3.74878	50.04
3.76545	50.05
3.78212	50.05
3.79878	50.05
3.81545	50.05
3.83212	50.05
3.84878	50.06
3.86545	50.08
3.88212	50.08
3.89878	50.09
3.91545	50.09
3.93212	50.07
3.94878	50.08
3.96545	50.07
3.98212	50.07
3.99878	50.07

[Status Trace (Injection Unit Temperature)]
Interval(msec)	1000
# of Points	240
Start Time(min)	0.015
End Time(min)	3.999
Intensity Units	
Intensity Multiplier	1
R.Time (min)	Intensity
0.01545	99.97
0.03212	99.97
0.04878	99.97
0.06545	99.98
0.08212	99.97
0.09878	99.98
0.11545	99.98
0.13212	99.97
0.14878	99.97
0.16545	99.97
0.18212	99.97
0.19878	99.98
0.21545	99.98
0.23212	99.97
0.24878	99.98
0.26545	99.97
0.28212	99.97
0.29878	99.98
0.31545	99.98
0.33212	99.98
0.34878	99.98
0.36545	99.98
0.38212	99.98
0.39878	99.98
0.41545	99.98
0.43212	99.98
0.44878	99.98
0.46545	99.98
0.48212	99.98
0.49878	99.98
0.51545	99.98
0.53212	99.98
0.54878	99.98
0.56545	99.98
0.58212	99.98
0.59878	99.98
0.61545	99.98
0.63212	99.99
0.64878	99.98
0.66545	99.98
0.68212	99.98
0.69878	99.98
0.71545	99.98
0.73212	99.98
0.74878	99.98
0.76545	99.98
0.78212	99.98
0.79878	99.98
0.81545	99.99
0.83212	99.98
0.84878	99.98
0.86545	99.99
0.88212	99.99
0.89878	99.98
0.91545	99.98
0.93212	99.98
0.94878	99.99
0.96545	99.98
0.98212	99.99
0.99878	99.99
1.01545	99.99
1.03212	99.98
1.04878	99.98
1.06545	99.99
1.08212	99.98
1.09878	99.99
1.11545	99.98
1.13212	99.99
1.14878	99.99
1.16545	99.99
1.18212	99.98
1.19878	99.98
1.21545	99.98
1.23212	99.98
1.24878	99.99
1.26545	99.99
1.28212	99.99
1.29878	99.99
1.31545	99.99
1.33212	99.99
1.34878	99.98
1.36545	99.99
1.38212	99.99
1.39878	99.99
1.41545	99.99
1.43212	99.99
1.44878	99.98
1.46545	99.98
1.48212	99.98
1.49878	99.99
1.51545	99.99
1.53212	99.98
1.54878	99.99
1.56545	99.99
1.58212	99.98
1.59878	99.99
1.61545	99.98
1.63212	99.99
1.64878	99.99
1.66545	99.98
1.68212	99.99
1.69878	99.99
1.71545	99.98
1.73212	99.98
1.74878	99.98
1.76545	99.98
1.78212	99.98
1.79878	99.98
1.81545	99.98
1.83212	99.98
1.84878	99.98
1.86545	99.98
1.88212	99.98
1.89878	99.98
1.91545	99.98
1.93212	99.98
1.94878	99.98
1.96545	99.97
1.98212	99.98
1.99878	99.98
2.01545	99.97
2.03212	99.98
2.04878	99.98
2.06545	99.98
2.08212	99.97
2.09878	99.97
2.11545	99.98
2.13212	99.97
2.14878	99.97
2.16545	99.97
2.18212	99.97
2.19878	99.97
2.21545	99.97
2.23212	99.97
2.24878	99.97
2.26545	99.97
2.28212	99.97
2.29878	99.96
2.31545	99.97
2.33212	99.97
2.34878	99.97
2.36545	99.97
2.38212	99.97
2.39878	99.97
2.41545	99.97
2.43212	99.97
2.44878	99.97
2.46545	99.97
2.48212	99.97
2.49878	99.97
2.51545	99.96
2.53212	99.97
2.54878	99.97
2.56545	99.97
2.58212	99.98
2.59878	99.97
2.61545	99.98
2.63212	99.98
2.64878	99.97
2.66545	99.98
2.68212	99.98
2.69878	99.98
2.71545	99.98
2.73212	99.98
2.74878	99.99
2.76545	99.99
2.78212	99.99
2.79878	99.99
2.81545	100.00
2.83212	99.99
2.84878	99.99
2.86545	100.00
2.88212	100.00
2.89878	100.00
2.91545	100.00
2.93212	100.01
2.94878	100.00
2.96545	100.01
2.98212	100.01
2.99878	100.01
3.01545	100.02
3.03212	100.01
3.04878	100.02
3.06545	100.01
3.08212	100.02
3.09878	100.02
3.11545	100.01
3.13212	100.02
3.14878	100.02
3.16545	100.02
3.18212	100.02
3.19878	100.02
3.21545	100.02
3.23212	100.02
3.24878	100.03
3.26545	100.02
3.28212	100.03
3.29878	100.03
3.31545	100.02
3.33212	100.03
3.34878	100.03
3.36545	100.03
3.38212	100.03
3.39878	100.03
3.41545	100.03
3.43212	100.03
3.44878	100.04
3.46545	100.04
3.48212	100.03
3.49878	100.04
3.51545	100.04
3.53212	100.04
3.54878	100.04
3.56545	100.04
3.58212	100.04
3.59878	100.04
3.61545	100.04
3.63212	100.04
3.64878	100.04
3.66545	100.04
3.68212	100.04
3.69878	100.04
3.71545	100.04
3.73212	100.04
3.74878	100.04
3.76545	100.04
3.78212	100.04
3.79878	100.05
3.81545	100.05
3.83212	100.05
3.84878	100.04
3.86545	100.05
3.88212	100.05
3.89878	100.05
3.91545	100.05
3.93212	100.04
3.94878	100.05
3.96545	100.05
3.98212	100.05
3.99878	100.05

[Status Trace (Carrier Gas Pressure)]
Interval(msec)	1000
# of Points	240
Start Time(min)	0.015
End Time(min)	3.999
Intensity Units	
Intensity Multiplier	1
R.Time (min)	Intensity
0.01545	57.07
0.03212	55.81
0.04878	58.07
0.06545	59.88
0.08212	58.53
0.09878	57.97
0.11545	58.00
0.13212	58.01
0.14878	58.01
0.16545	58.00
0.18212	58.00
0.19878	58.00
0.21545	58.00
0.23212	58.00
0.24878	58.00
0.26545	58.00
0.28212	58.00
0.29878	58.00
0.31545	58.00
0.33212	58.00
0.34878	58.00
0.36545	58.00
0.38212	58.00
0.39878	58.00
0.41545	58.00
0.43212	58.00
0.44878	58.00
0.46545	58.00
0.48212	58.00
0.49878	58.00
0.51545	58.00
0.53212	58.00
0.54878	58.00
0.56545	58.00
0.58212	58.00
0.59878	58.00
0.61545	58.00
0.63212	58.00
0.64878	58.00
0.66545	58.00
0.68212	58.00
0.69878	58.00
0.71545	58.00
0.73212	58.00
0.74878	58.00
0.76545	58.00
0.78212	58.00
0.79878	58.00
0.81545	58.00
0.83212	58.00
0.84878	58.00
0.86545	58.00
0.88212	58.00
0.89878	58.00
0.91545	58.00
0.93212	58.00
0.94878	58.00
0.96545	58.00
0.98212	58.00
0.99878	58.00
1.01545	58.00
1.03212	58.00
1.04878	58.00
1.06545	58.00
1.08212	58.00
1.09878	58.00
1.11545	58.00
1.13212	58.00
1.14878	58.00
1.16545	58.00
1.18212	58.00
1.19878	58.00
1.21545	58.00
1.23212	58.00
1.24878	58.00
1.26545	58.00
1.28212	58.00
1.29878	58.00
1.31545	58.00
1.33212	58.00
1.34878	58.00
1.36545	58.00
1.38212	58.00
1.39878	58.00
1.41545	58.00
1.43212	58.00
1.44878	58.00
1.46545	58.00
1.48212	58.00
1.49878	58.00
1.51545	58.00
1.53212	58.00
1.54878	58.00
1.56545	58.00
1.58212	58.00
1.59878	58.00
1.61545	58.00
1.63212	58.00
1.64878	58.01
1.66545	58.00
1.68212	58.01
1.69878	58.00
1.71545	58.00
1.73212	58.00
1.74878	58.00
1.76545	58.00
1.78212	58.00
1.79878	58.00
1.81545	58.00
1.83212	58.00
1.84878	58.00
1.86545	58.00
1.88212	58.00
1.89878	58.00
1.91545	58.00
1.93212	58.00
1.94878	58.00
1.96545	58.00
1.98212	58.00
1.99878	58.00
2.01545	58.00
2.03212	58.00
2.04878	58.00
2.06545	58.00
2.08212	58.00
2.09878	58.00
2.11545	58.00
2.13212	58.00
2.14878	58.00
2.16545	58.00
2.18212	58.00
2.19878	58.00
2.21545	58.00
2.23212	58.00
2.24878	58.00
2.26545	58.00
2.28212	58.00
2.29878	58.00
2.31545	58.00
2.33212	58.00
2.34878	58.00
2.36545	58.00
2.38212	57.99
2.39878	57.99
2.41545	58.00
2.43212	58.00
2.44878	58.00
2.46545	58.00
2.48212	58.00
2.49878	58.00
2.51545	57.99
2.53212	57.99
2.54878	58.00
2.56545	58.00
2.58212	58.00
2.59878	58.00
2.61545	58.00
2.63212	58.00
2.64878	58.00
2.66545	58.00
2.68212	58.00
2.69878	58.00
2.71545	58.00
2.73212	58.00
2.74878	58.00
2.76545	58.00
2.78212	58.00
2.79878	58.00
2.81545	58.00
2.83212	58.00
2.84878	58.00
2.86545	58.00
2.88212	58.00
2.89878	58.00
2.91545	58.00
2.93212	58.00
2.94878	58.00
2.96545	58.00
2.98212	58.00
2.99878	58.00
3.01545	58.00
3.03212	58.00
3.04878	58.00
3.06545	58.00
3.08212	58.00
3.09878	58.00
3.11545	58.00
3.13212	58.00
3.14878	58.00
3.16545	58.00
3.18212	58.00
3.19878	58.00
3.21545	58.00
3.23212	58.00
3.24878	58.00
3.26545	58.00
3.28212	58.00
3.29878	58.00
3.31545	58.00
3.33212	58.00
3.34878	58.00
3.36545	58.00
3.38212	58.00
3.39878	58.00
3.41545	58.00
3.43212	58.00
3.44878	58.00
3.46545	58.00
3.48212	58.00
3.49878	58.00
3.51545	58.00
3.53212	58.00
3.54878	58.00
3.56545	58.00
3.58212	58.00
3.59878	58.00
3.61545	58.00
3.63212	58.00
3.64878	58.00
3.66545	58.00
3.68212	58.00
3.69878	58.00
3.71545	58.00
3.73212	58.00
3.74878	58.00
3.76545	58.00
3.78212	58.00
3.79878	58.00
3.81545	58.00
3.83212	58.00
3.84878	58.00
3.86545	58.00
3.88212	58.00
3.89878	58.00
3.91545	58.00
3.93212	58.00
3.94878	58.00
3.96545	58.00
3.98212	58.00
3.99878	58.00

[Status Trace (Carrier Gas Flow)]
Interval(msec)	1000
# of Points	240
Start Time(min)	0.015
End Time(min)	3.999
Intensity Units	
Intensity Multiplier	1
R.Time (min)	Intensity
0.01545	33.84
0.03212	34.54
0.04878	34.55
0.06545	34.51
0.08212	34.51
0.09878	34.52
0.11545	34.52
0.13212	34.52
0.14878	34.52
0.16545	34.52
0.18212	34.52
0.19878	34.52
0.21545	34.52
0.23212	34.52
0.24878	34.52
0.26545	34.52
0.28212	34.52
0.29878	34.52
0.31545	34.52
0.33212	34.52
0.34878	34.52
0.36545	34.52
0.38212	34.52
0.39878	34.52
0.41545	34.52
0.43212	34.52
0.44878	34.52
0.46545	34.52
0.48212	34.52
0.49878	34.52
0.51545	34.52
0.53212	34.52
0.54878	34.52
0.56545	34.52
0.58212	34.52
0.59878	34.52
0.61545	34.52
0.63212	34.52
0.64878	34.52
0.66545	34.52
0.68212	34.52
0.69878	34.52
0.71545	34.52
0.73212	34.51
0.74878	34.52
0.76545	34.52
0.78212	34.52
0.79878	34.52
0.81545	34.52
0.83212	34.52
0.84878	34.52
0.86545	34.52
0.88212	34.52
0.89878	34.52
0.91545	34.52
0.93212	34.52
0.94878	34.52
0.96545	34.52
0.98212	34.52
0.99878	34.52
1.01545	34.52
1.03212	34.52
1.04878	34.52
1.06545	34.52
1.08212	34.52
1.09878	34.51
1.11545	34.52
1.13212	34.52
1.14878	34.52
1.16545	34.52
1.18212	34.52
1.19878	34.51
1.21545	34.52
1.23212	34.52
1.24878	34.52
1.26545	34.52
1.28212	34.52
1.29878	34.52
1.31545	34.52
1.33212	34.52
1.34878	34.52
1.36545	34.52
1.38212	34.52
1.39878	34.53
1.41545	34.52
1.43212	34.52
1.44878	34.52
1.46545	34.52
1.48212	34.52
1.49878	34.52
1.51545	34.52
1.53212	34.52
1.54878	34.52
1.56545	34.52
1.58212	34.52
1.59878	34.52
1.61545	34.52
1.63212	34.52
1.64878	34.52
1.66545	34.52
1.68212	34.52
1.69878	34.52
1.71545	34.52
1.73212	34.52
1.74878	34.52
1.76545	34.52
1.78212	34.52
1.79878	34.52
1.81545	34.52
1.83212	34.52
1.84878	34.52
1.86545	34.52
1.88212	34.52
1.89878	34.52
1.91545	34.52
1.93212	34.52
1.94878	34.52
1.96545	34.52
1.98212	34.52
1.99878	34.52
2.01545	34.52
2.03212	34.52
2.04878	34.52
2.06545	34.52
2.08212	34.52
2.09878	34.52
2.11545	34.52
2.13212	34.52
2.14878	34.52
2.16545	34.52
2.18212	34.52
2.19878	34.52
2.21545	34.52
2.23212	34.52
2.24878	34.52
2.26545	34.52
2.28212	34.52
2.29878	34.52
2.31545	34.52
2.33212	34.52
2.34878	34.52
2.36545	34.52
2.38212	34.52
2.39878	34.52
2.41545	34.52
2.43212	34.52
2.44878	34.52
2.46545	34.52
2.48212	34.52
2.49878	34.52
2.51545	34.52
2.53212	34.52
2.54878	34.52
2.56545	34.52
2.58212	34.52
2.59878	34.52
2.61545	34.52
2.63212	34.52
2.64878	34.52
2.66545	34.52
2.68212	34.52
2.69878	34.52
2.71545	34.52
2.73212	34.52
2.74878	34.52
2.76545	34.52
2.78212	34.52
2.79878	34.52
2.81545	34.52
2.83212	34.52
2.84878	34.52
2.86545	34.53
2.88212	34.52
2.89878	34.52
2.91545	34.52
2.93212	34.52
2.94878	34.52
2.96545	34.52
2.98212	34.52
2.99878	34.52
3.01545	34.52
3.03212	34.52
3.04878	34.52
3.06545	34.51
3.08212	34.52
3.09878	34.52
3.11545	34.52
3.13212	34.52
3.14878	34.52
3.16545	34.52
3.18212	34.52
3.19878	34.52
3.21545	34.53
3.23212	34.52
3.24878	34.52
3.26545	34.52
3.28212	34.52
3.29878	34.52
3.31545	34.52
3.33212	34.52
3.34878	34.52
3.36545	34.52
3.38212	34.52
3.39878	34.52
3.41545	34.52
3.43212	34.52
3.44878	34.52
3.46545	34.52
3.48212	34.52
3.49878	34.52
3.51545	34.51
3.53212	34.52
3.54878	34.52
3.56545	34.52
3.58212	34.52
3.59878	34.52
3.61545	34.52
3.63212	34.52
3.64878	34.52
3.66545	34.52
3.68212	34.52
3.69878	34.52
3.71545	34.52
3.73212	34.52
3.74878	34.52
3.76545	34.52
3.78212	34.52
3.79878	34.52
3.81545	34.52
3.83212	34.51
3.84878	34.52
3.86545	34.52
3.88212	34.52
3.89878	34.52
3.91545	34.53
3.93212	34.52
3.94878	34.52
3.96545	34.52
3.98212	34.52
3.99878	34.51

[Status Trace (Column Flow)]
Interval(msec)	1000
# of Points	240
Start Time(min)	0.015
End Time(min)	3.999
Intensity Units	
Intensity Multiplier	1
R.Time (min)	Intensity
0.01545	5.46
0.03212	5.32
0.04878	5.58
0.06545	5.79
0.08212	5.63
0.09878	5.57
0.11545	5.57
0.13212	5.57
0.14878	5.57
0.16545	5.57
0.18212	5.57
0.19878	5.57
0.21545	5.57
0.23212	5.57
0.24878	5.57
0.26545	5.57
0.28212	5.57
0.29878	5.57
0.31545	5.57
0.33212	5.57
0.34878	5.57
0.36545	5.57
0.38212	5.57
0.39878	5.57
0.41545	5.57
0.43212	5.57
0.44878	5.57
0.46545	5.57
0.48212	5.57
0.49878	5.57
0.51545	5.57
0.53212	5.57
0.54878	5.57
0.56545	5.57
0.58212	5.57
0.59878	5.57
0.61545	5.57
0.63212	5.57
0.64878	5.57
0.66545	5.57
0.68212	5.57
0.69878	5.57
0.71545	5.57
0.73212	5.57
0.74878	5.57
0.76545	5.57
0.78212	5.57
0.79878	5.57
0.81545	5.57
0.83212	5.57
0.84878	5.57
0.86545	5.57
0.88212	5.57
0.89878	5.57
0.91545	5.57
0.93212	5.57
0.94878	5.57
0.96545	5.57
0.98212	5.57
0.99878	5.57
1.01545	5.57
1.03212	5.57
1.04878	5.57
1.06545	5.57
1.08212	5.57
1.09878	5.57
1.11545	5.57
1.13212	5.57
1.14878	5.57
1.16545	5.57
1.18212	5.57
1.19878	5.57
1.21545	5.57
1.23212	5.57
1.24878	5.57
1.26545	5.57
1.28212	5.57
1.29878	5.57
1.31545	5.57
1.33212	5.57
1.34878	5.57
1.36545	5.57
1.38212	5.57
1.39878	5.57
1.41545	5.57
1.43212	5.57
1.44878	5.57
1.46545	5.57
1.48212	5.57
1.49878	5.57
1.51545	5.57
1.53212	5.57
1.54878	5.57
1.56545	5.57
1.58212	5.57
1.59878	5.57
1.61545	5.57
1.63212	5.57
1.64878	5.56
1.66545	5.55
1.68212	5.54
1.69878	5.53
1.71545	5.52
1.73212	5.50
1.74878	5.50
1.76545	5.48
1.78212	5.47
1.79878	5.46
1.81545	5.45
1.83212	5.44
1.84878	5.43
1.86545	5.42
1.88212	5.41
1.89878	5.40
1.91545	5.39
1.93212	5.38
1.94878	5.37
1.96545	5.36
1.98212	5.35
1.99878	5.35
2.01545	5.33
2.03212	5.32
2.04878	5.32
2.06545	5.31
2.08212	5.30
2.09878	5.29
2.11545	5.28
2.13212	5.27
2.14878	5.26
2.16545	5.25
2.18212	5.24
2.19878	5.23
2.21545	5.22
2.23212	5.21
2.24878	5.20
2.26545	5.19
2.28212	5.18
2.29878	5.17
2.31545	5.16
2.33212	5.15
2.34878	5.15
2.36545	5.14
2.38212	5.13
2.39878	5.13
2.41545	5.13
2.43212	5.13
2.44878	5.13
2.46545	5.13
2.48212	5.13
2.49878	5.13
2.51545	5.13
2.53212	5.13
2.54878	5.13
2.56545	5.13
2.58212	5.13
2.59878	5.13
2.61545	5.13
2.63212	5.13
2.64878	5.13
2.66545	5.13
2.68212	5.13
2.69878	5.13
2.71545	5.13
2.73212	5.13
2.74878	5.13
2.76545	5.13
2.78212	5.13
2.79878	5.13
2.81545	5.13
2.83212	5.13
2.84878	5.13
2.86545	5.13
2.88212	5.13
2.89878	5.13
2.91545	5.13
2.93212	5.13
2.94878	5.13
2.96545	5.13
2.98212	5.13
2.99878	5.13
3.01545	5.13
3.03212	5.12
3.04878	5.12
3.06545	5.12
3.08212	5.12
3.09878	5.12
3.11545	5.12
3.13212	5.12
3.14878	5.12
3.16545	5.12
3.18212	5.12
3.19878	5.12
3.21545	5.12
3.23212	5.12
3.24878	5.12
3.26545	5.12
3.28212	5.12
3.29878	5.12
3.31545	5.12
3.33212	5.12
3.34878	5.12
3.36545	5.12
3.38212	5.12
3.39878	5.13
3.41545	5.13
3.43212	5.13
3.44878	5.13
3.46545	5.13
3.48212	5.13
3.49878	5.13
3.51545	5.13
3.53212	5.13
3.54878	5.13
3.56545	5.13
3.58212	5.13
3.59878	5.13
3.61545	5.13
3.63212	5.13
3.64878	5.13
3.66545	5.13
3.68212	5.13
3.69878	5.13
3.71545	5.13
3.73212	5.13
3.74878	5.13
3.76545	5.12
3.78212	5.12
3.79878	5.12
3.81545	5.12
3.83212	5.12
3.84878	5.12
3.86545	5.12
3.88212	5.12
3.89878	5.12
3.91545	5.12
3.93212	5.12
3.94878	5.12
3.96545	5.12
3.98212	5.12
3.99878	5.12

[Status Trace (Linear Velocity)]
Interval(msec)	1000
# of Points	240
Start Time(min)	0.015
End Time(min)	3.999
Intensity Units	
Intensity Multiplier	1
R.Time (min)	Intensity
0.01545	38.41
0.03212	37.59
0.04878	39.07
0.06545	40.26
0.08212	39.37
0.09878	39.01
0.11545	39.02
0.13212	39.03
0.14878	39.03
0.16545	39.03
0.18212	39.03
0.19878	39.03
0.21545	39.03
0.23212	39.03
0.24878	39.03
0.26545	39.03
0.28212	39.03
0.29878	39.03
0.31545	39.03
0.33212	39.03
0.34878	39.02
0.36545	39.02
0.38212	39.02
0.39878	39.02
0.41545	39.02
0.43212	39.02
0.44878	39.02
0.46545	39.02
0.48212	39.03
0.49878	39.03
0.51545	39.03
0.53212	39.02
0.54878	39.02
0.56545	39.02
0.58212	39.03
0.59878	39.02
0.61545	39.02
0.63212	39.03
0.64878	39.03
0.66545	39.03
0.68212	39.03
0.69878	39.03
0.71545	39.03
0.73212	39.03
0.74878	39.03
0.76545	39.03
0.78212	39.03
0.79878	39.03
0.81545	39.03
0.83212	39.03
0.84878	39.03
0.86545	39.03
0.88212	39.03
0.89878	39.03
0.91545	39.03
0.93212	39.03
0.94878	39.03
0.96545	39.03
0.98212	39.03
0.99878	39.03
1.01545	39.03
1.03212	39.03
1.04878	39.03
1.06545	39.03
1.08212	39.03
1.09878	39.03
1.11545	39.03
1.13212	39.03
1.14878	39.03
1.16545	39.03
1.18212	39.03
1.19878	39.03
1.21545	39.03
1.23212	39.03
1.24878	39.03
1.26545	39.03
1.28212	39.03
1.29878	39.03
1.31545	39.03
1.33212	39.03
1.34878	39.03
1.36545	39.03
1.38212	39.03
1.39878	39.03
1.41545	39.03
1.43212	39.03
1.44878	39.03
1.46545	39.03
1.48212	39.03
1.49878	39.03
1.51545	39.03
1.53212	39.03
1.54878	39.03
1.56545	39.03
1.58212	39.03
1.59878	39.03
1.61545	39.02
1.63212	39.01
1.64878	38.99
1.66545	38.96
1.68212	38.93
1.69878	38.89
1.71545	38.86
1.73212	38.82
1.74878	38.79
1.76545	38.76
1.78212	38.73
1.79878	38.70
1.81545	38.66
1.83212	38.63
1.84878	38.60
1.86545	38.57
1.88212	38.54
1.89878	38.51
1.91545	38.48
1.93212	38.45
1.94878	38.42
1.96545	38.39
1.98212	38.36
1.99878	38.33
2.01545	38.30
2.03212	38.27
2.04878	38.24
2.06545	38.21
2.08212	38.18
2.09878	38.15
2.11545	38.12
2.13212	38.09
2.14878	38.06
2.16545	38.03
2.18212	38.00
2.19878	37.98
2.21545	37.94
2.23212	37.91
2.24878	37.88
2.26545	37.85
2.28212	37.82
2.29878	37.80
2.31545	37.76
2.33212	37.73
2.34878	37.71
2.36545	37.68
2.38212	37.67
2.39878	37.66
2.41545	37.67
2.43212	37.67
2.44878	37.67
2.46545	37.67
2.48212	37.67
2.49878	37.67
2.51545	37.66
2.53212	37.66
2.54878	37.66
2.56545	37.66
2.58212	37.66
2.59878	37.66
2.61545	37.66
2.63212	37.66
2.64878	37.66
2.66545	37.66
2.68212	37.66
2.69878	37.66
2.71545	37.66
2.73212	37.66
2.74878	37.66
2.76545	37.66
2.78212	37.66
2.79878	37.65
2.81545	37.65
2.83212	37.65
2.84878	37.65
2.86545	37.65
2.88212	37.65
2.89878	37.65
2.91545	37.65
2.93212	37.65
2.94878	37.65
2.96545	37.64
2.98212	37.64
2.99878	37.64
3.01545	37.64
3.03212	37.64
3.04878	37.64
3.06545	37.64
3.08212	37.64
3.09878	37.64
3.11545	37.64
3.13212	37.64
3.14878	37.64
3.16545	37.64
3.18212	37.64
3.19878	37.64
3.21545	37.64
3.23212	37.64
3.24878	37.64
3.26545	37.64
3.28212	37.64
3.29878	37.63
3.31545	37.63
3.33212	37.63
3.34878	37.64
3.36545	37.64
3.38212	37.64
3.39878	37.64
3.41545	37.64
3.43212	37.64
3.44878	37.64
3.46545	37.65
3.48212	37.65
3.49878	37.65
3.51545	37.65
3.53212	37.64
3.54878	37.64
3.56545	37.64
3.58212	37.64
3.59878	37.64
3.61545	37.64
3.63212	37.64
3.64878	37.64
3.66545	37.64
3.68212	37.64
3.69878	37.64
3.71545	37.64
3.73212	37.64
3.74878	37.64
3.76545	37.64
3.78212	37.64
3.79878	37.64
3.81545	37.64
3.83212	37.64
3.84878	37.64
3.86545	37.64
3.88212	37.64
3.89878	37.64
3.91545	37.64
3.93212	37.64
3.94878	37.64
3.96545	37.64
3.98212	37.64
3.99878	37.64

