[Header]
Application Name	LabSolutions
Version	5.110
Data File Name	C:\Users\User\Desktop\GC Analyses\Jack\Nachusa Grasslands Sampling\T0 Timepoint July 12th\T0_07122022_052.gcd
Output Date	3/14/2023
Output Time	3:40:37 PM

[File Information]
Type	Data File
Generated	3/7/2023 7:32:23 PM
Generated by	System Administrator
Modified	3/7/2023 7:39:17 PM
Modified by	System Administrator

[Sample Information]
Operator Name	System Administrator
Acquired	3/7/2023 7:35:16 PM
Sample Type	0:Unknown
Level	0
Sample Name	052
Sample ID	052
ISTD Amount1	1
ISTD Amount2	1
ISTD Amount3	1
ISTD Amount4	1
ISTD Amount5	1
ISTD Amount6	1
ISTD Amount7	1
ISTD Amount8	1
ISTD Amount9	1
ISTD Amount10	1
ISTD Amount11	1
ISTD Amount12	1
ISTD Amount13	1
ISTD Amount14	1
ISTD Amount15	1
ISTD Amount16	1
ISTD Amount17	1
ISTD Amount18	1
ISTD Amount19	1
ISTD Amount20	1
ISTD Amount21	1
ISTD Amount22	1
ISTD Amount23	1
ISTD Amount24	1
ISTD Amount25	1
ISTD Amount26	1
ISTD Amount27	1
ISTD Amount28	1
ISTD Amount29	1
ISTD Amount30	1
ISTD Amount31	1
ISTD Amount32	1
Sample Amount	1
Dilution Factor	1
Vial#	51
Injection Volume	1
Injection Count	1
Bar Code	

[Original Files]
Data File	C:\Users\User\Desktop\GC Analyses\Jack\Nachusa Grasslands Sampling\T0 Timepoint July 12th\T0_07122022_052.gcd
Method File	C:\LabSolutions\Data\GHG_4min_2022\ghg3_togas_w_acet_4 min_new_int.gcm
Batch File	C:\LabSolutions\Data\AutoSamplerTesting\T0_07122022.gcb
Report Format File	c:\LabSolutions\System\DEFAULT.lsr

[File Description]


[Configuration]
Instrument Name	C0B7VH3-Instrument1
Instrument #	1
Line #	1
# of Detectors	3
Detector ID	DET#1	DET#2	DET#3
Detector Name	FID	PTCD	ECD
# of Channels	1	1	1

[Peak Table(Ch1)]
# of Peaks	3
Peak#	R.Time	I.Time	F.Time	Area	Height	A/H	Conc.	Mark	ID#	Name	k'	Plate #	Plate Ht.	Tailing	Resolution	Sep.Factor	Area Ratio	Height Ratio	Conc. %	Norm Conc.
1	1.476	1.435	1.538	24419	11452	2.132	172.397	   	1	CO	0.000	9267	16.186	1.309	0.000	0.000	0	0	32.285	32.285
2	1.567	1.538	1.622	4748	2327	2.040	91.804	 V 	2	CH4	0.062	10615	14.131	0.000	1.501	0.000	0	0	17.192	17.192
3	1.996	1.952	2.462	1074978	508661	2.113	269.790	   	3	CO2	0.353	17345	8.648	1.300	7.063	5.680	0	0	50.523	50.523

[Peak Table(Ch2)]
# of Peaks	0

[Peak Table(Ch3)]
# of Peaks	5
Peak#	R.Time	I.Time	F.Time	Area	Height	A/H	Conc.	Mark	ID#	Name	k'	Plate #	Plate Ht.	Tailing	Resolution	Sep.Factor	Area Ratio	Height Ratio	Conc. %	Norm Conc.
1	2.462	2.275	2.517	1658	364	4.559	0.000	   			0.000	6541	22.933	0.000	0.000	0.000	0	0	0.000	0.000
2	2.546	2.517	2.634	967	201	4.815	0.000	 V 			0.034	1987	75.494	0.000	0.482	0.000	0	0	0.000	0.000
3	2.704	2.649	2.755	449	96	4.694	0.000	   			0.098	1865	80.437	0.000	0.658	2.870	0	0	0.000	0.000
4	2.873	2.755	3.115	18672	4694	3.978	0.477	 V 	1	N2O	0.167	13239	11.330	1.672	0.963	1.697	0	0	100.000	100.000
5	3.228	3.122	3.698	8811	527	16.708	0.000	   	2	SF6	0.311	863	173.753	2.651	1.319	1.866	0	0	0.000	0.000

[Compound Results(Ch1)]
# of IDs	6
ID#	Name	R.Time	Area	Height	Conc.	Curve	3rd	2nd	1st	Constant	Area Ratio	Height Ratio	Conc. %	Norm Conc.
1	CO	1.476	24419	11452	172.397	Linear	0.000000e+00	0.000000e+00	1.416423e+002	0.000000e+00	0	0	32.285	32.285
2	CH4	1.567	4748	2327	91.804	Linear	0.000000e+00	0.000000e+00	5.171738e+001	0.000000e+00	0	0	17.192	17.192
3	CO2	1.996	1074978	508661	269.790	Linear	0.000000e+00	0.000000e+00	3.984494e+003	0.000000e+00	0	0	50.523	50.523
4	Ethylene	0.000	0	0	0.000	Linear	0.000000e+00	0.000000e+00	0.000000e+00	0.000000e+00	0	0	0.000	0.000
5	Acetylene	0.000	0	0	0.000	Linear	0.000000e+00	0.000000e+00	0.000000e+00	0.000000e+00	0	0	0.000	0.000
6	Ethane	0.000	0	0	0.000	Linear	0.000000e+00	0.000000e+00	0.000000e+00	0.000000e+00	0	0	0.000	0.000

[Compound Results(Ch2)]
# of IDs	5
ID#	Name	R.Time	Area	Height	Conc.	Curve	3rd	2nd	1st	Constant	Area Ratio	Height Ratio	Conc. %	Norm Conc.
1	Hydrogen	0.000	0	0	0.000	Linear	0.000000e+00	0.000000e+00	0.000000e+00	0.000000e+00	0	0	0.000	0.000
2	Oxygen	0.000	0	0	0.000	Linear	0.000000e+00	0.000000e+00	0.000000e+00	0.000000e+00	0	0	0.000	0.000
3	Nitrogen	0.000	0	0	0.000	Linear	0.000000e+00	0.000000e+00	0.000000e+00	0.000000e+00	0	0	0.000	0.000
4	Methane	0.000	0	0	0.000	Linear	0.000000e+00	0.000000e+00	0.000000e+00	0.000000e+00	0	0	0.000	0.000
5	Carbon Monoxide	0.000	0	0	0.000	Linear	0.000000e+00	0.000000e+00	0.000000e+00	0.000000e+00	0	0	0.000	0.000

[Compound Results(Ch3)]
# of IDs	2
ID#	Name	R.Time	Area	Height	Conc.	Curve	3rd	2nd	1st	Constant	Area Ratio	Height Ratio	Conc. %	Norm Conc.
1	N2O	2.873	18672	4694	0.477	Linear	0.000000e+00	0.000000e+00	3.915173e+004	0.000000e+00	0	0	100.000	100.000
2	SF6	3.228	8811	527	0.000	Linear	0.000000e+00	0.000000e+00	0.000000e+00	0.000000e+00	0	0	0.000	0.000

[Group Results(Ch1)]
# of Groups	0

[Group Results(Ch2)]
# of Groups	0

[Group Results(Ch3)]
# of Groups	0

[Chromatogram (Ch1)]
Interval(msec)	220
# of Points	1091
Start Time(min)	0.002
End Time(min)	3.998
R.Time (min)	Intensity
0.00167	26
0.00533	29
0.00900	40
0.01267	51
0.01633	57
0.02000	60
0.02367	61
0.02733	63
0.03100	64
0.03467	61
0.03833	61
0.04200	63
0.04567	67
0.04933	72
0.05300	79
0.05667	87
0.06033	94
0.06400	100
0.06767	104
0.07133	109
0.07500	115
0.07867	118
0.08233	119
0.08600	119
0.08967	115
0.09333	107
0.09700	99
0.10067	93
0.10433	91
0.10800	95
0.11167	100
0.11533	102
0.11900	104
0.12267	106
0.12633	110
0.13000	118
0.13367	126
0.13733	129
0.14100	126
0.14467	115
0.14833	93
0.15200	67
0.15567	41
0.15933	18
0.16300	2
0.16667	-8
0.17033	-13
0.17400	-11
0.17767	-5
0.18133	1
0.18500	6
0.18867	7
0.19233	4
0.19600	2
0.19967	2
0.20333	2
0.20700	2
0.21067	4
0.21433	5
0.21800	6
0.22167	8
0.22533	6
0.22900	3
0.23267	-1
0.23633	-5
0.24000	-9
0.24367	-10
0.24733	-11
0.25100	-13
0.25467	-15
0.25833	-15
0.26200	-15
0.26567	-14
0.26933	-13
0.27300	-10
0.27667	-6
0.28033	-4
0.28400	-6
0.28767	-9
0.29133	-9
0.29500	-11
0.29867	-12
0.30233	-10
0.30600	-7
0.30967	-5
0.31333	-4
0.31700	-4
0.32067	-5
0.32433	-4
0.32800	-3
0.33167	-1
0.33533	2
0.33900	2
0.34267	-2
0.34633	-10
0.35000	-17
0.35367	-22
0.35733	-24
0.36100	-26
0.36467	-25
0.36833	-22
0.37200	-20
0.37567	-19
0.37933	-23
0.38300	-25
0.38667	-25
0.39033	-23
0.39400	-19
0.39767	-13
0.40133	-6
0.40500	-3
0.40867	-2
0.41233	-5
0.41600	-11
0.41967	-19
0.42333	-28
0.42700	-35
0.43067	-36
0.43433	-31
0.43800	-25
0.44167	-19
0.44533	-12
0.44900	-10
0.45267	-8
0.45633	-8
0.46000	-10
0.46367	-15
0.46733	-23
0.47100	-28
0.47467	-30
0.47833	-30
0.48200	-27
0.48567	-24
0.48933	-24
0.49300	-25
0.49667	-27
0.50033	-30
0.50400	-30
0.50767	-25
0.51133	-20
0.51500	-17
0.51867	-16
0.52233	-19
0.52600	-21
0.52967	-22
0.53333	-20
0.53700	-20
0.54067	-21
0.54433	-19
0.54800	-15
0.55167	-17
0.55533	-23
0.55900	-30
0.56267	-36
0.56633	-40
0.57000	-42
0.57367	-42
0.57733	-39
0.58100	-34
0.58467	-25
0.58833	-15
0.59200	-11
0.59567	-15
0.59933	-23
0.60300	-31
0.60667	-36
0.61033	-39
0.61400	-40
0.61767	-40
0.62133	-38
0.62500	-35
0.62867	-32
0.63233	-32
0.63600	-33
0.63967	-33
0.64333	-32
0.64700	-30
0.65067	-25
0.65433	-21
0.65800	-16
0.66167	-15
0.66533	-18
0.66900	-24
0.67267	-32
0.67633	-38
0.68000	-43
0.68367	-44
0.68733	-39
0.69100	-37
0.69467	-37
0.69833	-37
0.70200	-33
0.70567	-28
0.70933	-28
0.71300	-36
0.71667	-44
0.72033	-50
0.72400	-53
0.72767	-54
0.73133	-54
0.73500	-52
0.73867	-48
0.74233	-46
0.74600	-45
0.74967	-45
0.75333	-45
0.75700	-42
0.76067	-38
0.76433	-33
0.76800	-29
0.77167	-28
0.77533	-31
0.77900	-33
0.78267	-34
0.78633	-34
0.79000	-36
0.79367	-41
0.79733	-47
0.80100	-52
0.80467	-57
0.80833	-59
0.81200	-58
0.81567	-59
0.81933	-62
0.82300	-62
0.82667	-60
0.83033	-57
0.83400	-56
0.83767	-54
0.84133	-51
0.84500	-50
0.84867	-49
0.85233	-53
0.85600	-54
0.85967	-50
0.86333	-48
0.86700	-46
0.87067	-40
0.87433	-31
0.87800	-28
0.88167	-32
0.88533	-39
0.88900	-45
0.89267	-50
0.89633	-55
0.90000	-58
0.90367	-58
0.90733	-57
0.91100	-57
0.91467	-58
0.91833	-62
0.92200	-66
0.92567	-68
0.92933	-66
0.93300	-60
0.93667	-54
0.94033	-49
0.94400	-46
0.94767	-44
0.95133	-39
0.95500	-36
0.95867	-36
0.96233	-41
0.96600	-50
0.96967	-58
0.97333	-62
0.97700	-65
0.98067	-65
0.98433	-60
0.98800	-48
0.99167	-38
0.99533	-33
0.99900	-30
1.00267	-29
1.00633	-30
1.01000	-30
1.01367	-29
1.01733	-29
1.02100	-30
1.02467	-30
1.02833	-28
1.03200	-25
1.03567	-22
1.03933	-19
1.04300	-18
1.04667	-21
1.05033	-27
1.05400	-31
1.05767	-31
1.06133	-30
1.06500	-32
1.06867	-34
1.07233	-29
1.07600	-20
1.07967	-12
1.08333	-10
1.08700	-13
1.09067	-19
1.09433	-23
1.09800	-26
1.10167	-27
1.10533	-27
1.10900	-25
1.11267	-22
1.11633	-19
1.12000	-15
1.12367	-14
1.12733	-16
1.13100	-19
1.13467	-22
1.13833	-21
1.14200	-15
1.14567	-9
1.14933	-6
1.15300	-7
1.15667	-11
1.16033	-16
1.16400	-16
1.16767	-16
1.17133	-18
1.17500	-22
1.17867	-25
1.18233	-28
1.18600	-30
1.18967	-30
1.19333	-29
1.19700	-26
1.20067	-22
1.20433	-22
1.20800	-22
1.21167	-22
1.21533	-25
1.21900	-28
1.22267	-28
1.22633	-25
1.23000	-22
1.23367	-19
1.23733	-19
1.24100	-21
1.24467	-27
1.24833	-33
1.25200	-34
1.25567	-34
1.25933	-29
1.26300	-24
1.26667	-20
1.27033	-22
1.27400	-28
1.27767	-30
1.28133	-30
1.28500	-31
1.28867	-30
1.29233	-28
1.29600	-26
1.29967	-26
1.30333	-24
1.30700	-22
1.31067	-19
1.31433	-17
1.31800	-20
1.32167	-23
1.32533	-26
1.32900	-32
1.33267	-39
1.33633	-44
1.34000	-49
1.34367	-53
1.34733	-56
1.35100	-55
1.35467	-54
1.35833	-52
1.36200	-47
1.36567	-42
1.36933	-40
1.37300	-40
1.37667	-43
1.38033	-44
1.38400	-45
1.38767	-46
1.39133	-47
1.39500	-46
1.39867	-44
1.40233	-43
1.40600	-42
1.40967	-40
1.41333	-39
1.41700	-40
1.42067	-44
1.42433	-45
1.42800	-44
1.43167	-43
1.43533	-38
1.43900	-15
1.44267	82
1.44633	312
1.45000	820
1.45367	1937
1.45733	3759
1.46100	5940
1.46467	8021
1.46833	9712
1.47200	10881
1.47567	11425
1.47933	11240
1.48300	10322
1.48667	8849
1.49033	7128
1.49400	5462
1.49767	4041
1.50133	2926
1.50500	2097
1.50867	1500
1.51233	1082
1.51600	790
1.51967	588
1.52333	450
1.52700	354
1.53067	284
1.53433	233
1.53800	212
1.54167	257
1.54533	430
1.54900	759
1.55267	1187
1.55633	1613
1.56000	1962
1.56367	2206
1.56733	2325
1.57100	2296
1.57467	2103
1.57833	1777
1.58200	1394
1.58567	1029
1.58933	728
1.59300	501
1.59667	336
1.60033	222
1.60400	145
1.60767	96
1.61133	62
1.61500	38
1.61867	23
1.62233	12
1.62600	8
1.62967	11
1.63333	14
1.63700	12
1.64067	1
1.64433	-14
1.64800	-31
1.65167	-44
1.65533	-53
1.65900	-58
1.66267	-58
1.66633	-55
1.67000	-54
1.67367	-53
1.67733	-52
1.68100	-51
1.68467	-48
1.68833	-41
1.69200	-32
1.69567	-26
1.69933	-26
1.70300	-32
1.70667	-39
1.71033	-48
1.71400	-57
1.71767	-65
1.72133	-65
1.72500	-64
1.72867	-65
1.73233	-67
1.73600	-68
1.73967	-66
1.74333	-64
1.74700	-64
1.75067	-61
1.75433	-55
1.75800	-52
1.76167	-50
1.76533	-48
1.76900	-45
1.77267	-43
1.77633	-45
1.78000	-43
1.78367	-37
1.78733	-31
1.79100	-29
1.79467	-32
1.79833	-39
1.80200	-49
1.80567	-59
1.80933	-67
1.81300	-67
1.81667	-61
1.82033	-58
1.82400	-60
1.82767	-65
1.83133	-71
1.83500	-77
1.83867	-81
1.84233	-81
1.84600	-77
1.84967	-70
1.85333	-63
1.85700	-60
1.86067	-59
1.86433	-58
1.86800	-53
1.87167	-47
1.87533	-45
1.87900	-52
1.88267	-60
1.88633	-65
1.89000	-67
1.89367	-68
1.89733	-70
1.90100	-68
1.90467	-65
1.90833	-62
1.91200	-61
1.91567	-63
1.91933	-65
1.92300	-63
1.92667	-61
1.93033	-63
1.93400	-63
1.93767	-58
1.94133	-52
1.94500	-48
1.94867	-47
1.95233	-37
1.95600	60
1.95967	623
1.96333	3102
1.96700	11397
1.97067	32748
1.97433	75701
1.97800	144298
1.98167	233191
1.98533	328801
1.98900	414995
1.99267	478055
1.99633	508649
2.00000	502727
2.00367	462776
2.00733	398144
2.01100	322169
2.01467	247490
2.01833	182554
2.02200	130850
2.02567	92195
2.02933	64535
2.03300	45314
2.03667	32195
2.04033	23319
2.04400	17320
2.04767	13240
2.05133	10433
2.05500	8468
2.05867	7060
2.06233	6023
2.06600	5239
2.06967	4632
2.07333	4149
2.07700	3758
2.08067	3434
2.08433	3158
2.08800	2922
2.09167	2721
2.09533	2548
2.09900	2394
2.10267	2255
2.10633	2132
2.11000	2022
2.11367	1924
2.11733	1839
2.12100	1762
2.12467	1689
2.12833	1618
2.13200	1546
2.13567	1475
2.13933	1410
2.14300	1350
2.14667	1295
2.15033	1243
2.15400	1195
2.15767	1149
2.16133	1107
2.16500	1068
2.16867	1035
2.17233	1006
2.17600	977
2.17967	947
2.18333	918
2.18700	890
2.19067	865
2.19433	842
2.19800	824
2.20167	808
2.20533	787
2.20900	764
2.21267	740
2.21633	718
2.22000	700
2.22367	686
2.22733	676
2.23100	662
2.23467	646
2.23833	632
2.24200	618
2.24567	604
2.24933	590
2.25300	572
2.25667	554
2.26033	541
2.26400	533
2.26767	527
2.27133	521
2.27500	514
2.27867	506
2.28233	495
2.28600	485
2.28967	475
2.29333	466
2.29700	456
2.30067	447
2.30433	440
2.30800	432
2.31167	423
2.31533	415
2.31900	409
2.32267	405
2.32633	403
2.33000	403
2.33367	401
2.33733	396
2.34100	389
2.34467	386
2.34833	384
2.35200	381
2.35567	381
2.35933	378
2.36300	372
2.36667	364
2.37033	356
2.37400	349
2.37767	343
2.38133	337
2.38500	329
2.38867	321
2.39233	312
2.39600	307
2.39967	306
2.40333	307
2.40700	308
2.41067	307
2.41433	306
2.41800	304
2.42167	298
2.42533	291
2.42900	283
2.43267	277
2.43633	273
2.44000	271
2.44367	266
2.44733	260
2.45100	258
2.45467	259
2.45833	257
2.46200	252
2.46567	249
2.46933	247
2.47300	247
2.47667	250
2.48033	256
2.48400	261
2.48767	264
2.49133	266
2.49500	267
2.49867	265
2.50233	261
2.50600	256
2.50967	249
2.51333	245
2.51700	246
2.52067	246
2.52433	245
2.52800	244
2.53167	244
2.53533	243
2.53900	239
2.54267	229
2.54633	222
2.55000	219
2.55367	222
2.55733	228
2.56100	231
2.56467	234
2.56833	234
2.57200	232
2.57567	229
2.57933	223
2.58300	218
2.58667	212
2.59033	211
2.59400	209
2.59767	209
2.60133	211
2.60500	212
2.60867	214
2.61233	215
2.61600	217
2.61967	219
2.62333	221
2.62700	225
2.63067	226
2.63433	222
2.63800	214
2.64167	209
2.64533	211
2.64900	212
2.65267	211
2.65633	208
2.66000	201
2.66367	195
2.66733	192
2.67100	197
2.67467	204
2.67833	208
2.68200	206
2.68567	202
2.68933	203
2.69300	204
2.69667	205
2.70033	207
2.70400	210
2.70767	214
2.71133	221
2.71500	229
2.71867	233
2.72233	232
2.72600	228
2.72967	224
2.73333	219
2.73700	215
2.74067	208
2.74433	201
2.74800	195
2.75167	191
2.75533	192
2.75900	195
2.76267	199
2.76633	204
2.77000	208
2.77367	210
2.77733	210
2.78100	210
2.78467	211
2.78833	213
2.79200	218
2.79567	220
2.79933	223
2.80300	225
2.80667	226
2.81033	226
2.81400	228
2.81767	228
2.82133	226
2.82500	224
2.82867	224
2.83233	223
2.83600	219
2.83967	216
2.84333	217
2.84700	215
2.85067	215
2.85433	217
2.85800	220
2.86167	222
2.86533	220
2.86900	216
2.87267	212
2.87633	212
2.88000	215
2.88367	218
2.88733	220
2.89100	222
2.89467	223
2.89833	221
2.90200	216
2.90567	209
2.90933	203
2.91300	199
2.91667	198
2.92033	198
2.92400	200
2.92767	203
2.93133	206
2.93500	209
2.93867	215
2.94233	219
2.94600	220
2.94967	219
2.95333	224
2.95700	228
2.96067	231
2.96433	230
2.96800	226
2.97167	222
2.97533	220
2.97900	220
2.98267	225
2.98633	232
2.99000	241
2.99367	249
2.99733	250
3.00100	248
3.00467	243
3.00833	237
3.01200	226
3.01567	218
3.01933	213
3.02300	214
3.02667	217
3.03033	217
3.03400	219
3.03767	224
3.04133	227
3.04500	225
3.04867	223
3.05233	222
3.05600	218
3.05967	215
3.06333	212
3.06700	214
3.07067	220
3.07433	227
3.07800	231
3.08167	233
3.08533	230
3.08900	223
3.09267	217
3.09633	215
3.10000	215
3.10367	214
3.10733	213
3.11100	216
3.11467	222
3.11833	230
3.12200	236
3.12567	239
3.12933	240
3.13300	238
3.13667	237
3.14033	235
3.14400	230
3.14767	227
3.15133	227
3.15500	229
3.15867	228
3.16233	229
3.16600	232
3.16967	237
3.17333	244
3.17700	248
3.18067	247
3.18433	240
3.18800	230
3.19167	223
3.19533	222
3.19900	224
3.20267	222
3.20633	214
3.21000	205
3.21367	201
3.21733	200
3.22100	201
3.22467	202
3.22833	206
3.23200	209
3.23567	210
3.23933	212
3.24300	215
3.24667	219
3.25033	223
3.25400	227
3.25767	230
3.26133	233
3.26500	230
3.26867	219
3.27233	205
3.27600	193
3.27967	185
3.28333	183
3.28700	183
3.29067	183
3.29433	188
3.29800	196
3.30167	203
3.30533	208
3.30900	211
3.31267	217
3.31633	223
3.32000	229
3.32367	230
3.32733	227
3.33100	223
3.33467	218
3.33833	211
3.34200	206
3.34567	200
3.34933	194
3.35300	192
3.35667	192
3.36033	199
3.36400	209
3.36767	217
3.37133	223
3.37500	231
3.37867	238
3.38233	242
3.38600	240
3.38967	235
3.39333	229
3.39700	220
3.40067	210
3.40433	203
3.40800	196
3.41167	189
3.41533	183
3.41900	180
3.42267	183
3.42633	189
3.43000	195
3.43367	199
3.43733	198
3.44100	194
3.44467	187
3.44833	181
3.45200	177
3.45567	176
3.45933	181
3.46300	186
3.46667	188
3.47033	192
3.47400	198
3.47767	204
3.48133	206
3.48500	206
3.48867	203
3.49233	197
3.49600	191
3.49967	187
3.50333	187
3.50700	189
3.51067	192
3.51433	195
3.51800	200
3.52167	204
3.52533	211
3.52900	219
3.53267	220
3.53633	216
3.54000	209
3.54367	201
3.54733	196
3.55100	195
3.55467	193
3.55833	187
3.56200	181
3.56567	179
3.56933	180
3.57300	181
3.57667	183
3.58033	184
3.58400	184
3.58767	183
3.59133	186
3.59500	189
3.59867	188
3.60233	182
3.60600	177
3.60967	174
3.61333	173
3.61700	173
3.62067	177
3.62433	182
3.62800	186
3.63167	187
3.63533	187
3.63900	184
3.64267	179
3.64633	174
3.65000	173
3.65367	173
3.65733	169
3.66100	163
3.66467	158
3.66833	154
3.67200	148
3.67567	145
3.67933	146
3.68300	155
3.68667	169
3.69033	181
3.69400	189
3.69767	189
3.70133	184
3.70500	175
3.70867	166
3.71233	159
3.71600	155
3.71967	157
3.72333	162
3.72700	161
3.73067	158
3.73433	153
3.73800	149
3.74167	147
3.74533	142
3.74900	137
3.75267	136
3.75633	138
3.76000	146
3.76367	154
3.76733	160
3.77100	165
3.77467	165
3.77833	160
3.78200	152
3.78567	143
3.78933	135
3.79300	131
3.79667	130
3.80033	134
3.80400	139
3.80767	141
3.81133	143
3.81500	147
3.81867	152
3.82233	156
3.82600	154
3.82967	150
3.83333	149
3.83700	149
3.84067	147
3.84433	145
3.84800	143
3.85167	144
3.85533	152
3.85900	160
3.86267	164
3.86633	162
3.87000	156
3.87367	149
3.87733	142
3.88100	134
3.88467	123
3.88833	115
3.89200	113
3.89567	117
3.89933	121
3.90300	124
3.90667	122
3.91033	120
3.91400	119
3.91767	118
3.92133	118
3.92500	118
3.92867	121
3.93233	124
3.93600	129
3.93967	134
3.94333	138
3.94700	138
3.95067	135
3.95433	132
3.95800	128
3.96167	125
3.96533	122
3.96900	123
3.97267	128
3.97633	134
3.98000	139
3.98367	141
3.98733	140
3.99100	137
3.99467	133
3.99833	132

[Chromatogram (Ch2)]
Interval(msec)	220
# of Points	1091
Start Time(min)	0.002
End Time(min)	3.998
R.Time (min)	Intensity
0.00167	-0
0.00533	-1
0.00900	-1
0.01267	-1
0.01633	-1
0.02000	-1
0.02367	-1
0.02733	-1
0.03100	-1
0.03467	-1
0.03833	-1
0.04200	-2
0.04567	-2
0.04933	-2
0.05300	-2
0.05667	-2
0.06033	-2
0.06400	-2
0.06767	-2
0.07133	-2
0.07500	-2
0.07867	-2
0.08233	-1
0.08600	-1
0.08967	-1
0.09333	-0
0.09700	-0
0.10067	-0
0.10433	-0
0.10800	-0
0.11167	-0
0.11533	-0
0.11900	-1
0.12267	-1
0.12633	-1
0.13000	-2
0.13367	-2
0.13733	-2
0.14100	-3
0.14467	-3
0.14833	-3
0.15200	-3
0.15567	-3
0.15933	-3
0.16300	-3
0.16667	-3
0.17033	-3
0.17400	-3
0.17767	-2
0.18133	-2
0.18500	-1
0.18867	-1
0.19233	-1
0.19600	-1
0.19967	-1
0.20333	-1
0.20700	-1
0.21067	-1
0.21433	-1
0.21800	-1
0.22167	-1
0.22533	-1
0.22900	-1
0.23267	-2
0.23633	-2
0.24000	-2
0.24367	-1
0.24733	-1
0.25100	-1
0.25467	-1
0.25833	-2
0.26200	-2
0.26567	-2
0.26933	-2
0.27300	-3
0.27667	-3
0.28033	-3
0.28400	-3
0.28767	-3
0.29133	-3
0.29500	-4
0.29867	-4
0.30233	-4
0.30600	-4
0.30967	-4
0.31333	-4
0.31700	-4
0.32067	-4
0.32433	-3
0.32800	-3
0.33167	-3
0.33533	-3
0.33900	-3
0.34267	-3
0.34633	-3
0.35000	-3
0.35367	-3
0.35733	-3
0.36100	-3
0.36467	-3
0.36833	-2
0.37200	-2
0.37567	-2
0.37933	-2
0.38300	-2
0.38667	-2
0.39033	-2
0.39400	-2
0.39767	-2
0.40133	-2
0.40500	-2
0.40867	-2
0.41233	-2
0.41600	-2
0.41967	-3
0.42333	-3
0.42700	-3
0.43067	-3
0.43433	-3
0.43800	-3
0.44167	-3
0.44533	-3
0.44900	-3
0.45267	-4
0.45633	-4
0.46000	-4
0.46367	-4
0.46733	-4
0.47100	-4
0.47467	-4
0.47833	-4
0.48200	-4
0.48567	-3
0.48933	-3
0.49300	-3
0.49667	-3
0.50033	-3
0.50400	-3
0.50767	-3
0.51133	-3
0.51500	-3
0.51867	-3
0.52233	-3
0.52600	-3
0.52967	-3
0.53333	-2
0.53700	-2
0.54067	-2
0.54433	-2
0.54800	-2
0.55167	-2
0.55533	-2
0.55900	-2
0.56267	-1
0.56633	-1
0.57000	-1
0.57367	-1
0.57733	-0
0.58100	0
0.58467	1
0.58833	1
0.59200	1
0.59567	1
0.59933	1
0.60300	1
0.60667	1
0.61033	1
0.61400	1
0.61767	1
0.62133	1
0.62500	0
0.62867	0
0.63233	-0
0.63600	-1
0.63967	-1
0.64333	-2
0.64700	-3
0.65067	-3
0.65433	-4
0.65800	-5
0.66167	-5
0.66533	-5
0.66900	-5
0.67267	-4
0.67633	-4
0.68000	-4
0.68367	-4
0.68733	-4
0.69100	-4
0.69467	-4
0.69833	-4
0.70200	-4
0.70567	-4
0.70933	-4
0.71300	-4
0.71667	-4
0.72033	-4
0.72400	-4
0.72767	-4
0.73133	-4
0.73500	-3
0.73867	-3
0.74233	-3
0.74600	-3
0.74967	-3
0.75333	-3
0.75700	-3
0.76067	-3
0.76433	-3
0.76800	-4
0.77167	-4
0.77533	-4
0.77900	-4
0.78267	-5
0.78633	-5
0.79000	-5
0.79367	-5
0.79733	-5
0.80100	-5
0.80467	-5
0.80833	-5
0.81200	-5
0.81567	-5
0.81933	-5
0.82300	-5
0.82667	-5
0.83033	-5
0.83400	-5
0.83767	-5
0.84133	-5
0.84500	-5
0.84867	-5
0.85233	-5
0.85600	-5
0.85967	-4
0.86333	-4
0.86700	-4
0.87067	-3
0.87433	-3
0.87800	-3
0.88167	-2
0.88533	-2
0.88900	-2
0.89267	-2
0.89633	-2
0.90000	-2
0.90367	-1
0.90733	-2
0.91100	-2
0.91467	-1
0.91833	-1
0.92200	-1
0.92567	-1
0.92933	-1
0.93300	-2
0.93667	-2
0.94033	-2
0.94400	-2
0.94767	-2
0.95133	-2
0.95500	-2
0.95867	-2
0.96233	-2
0.96600	-3
0.96967	-3
0.97333	-3
0.97700	-3
0.98067	-3
0.98433	-4
0.98800	-4
0.99167	-4
0.99533	-4
0.99900	-4
1.00267	-4
1.00633	-4
1.01000	-4
1.01367	-4
1.01733	-4
1.02100	-4
1.02467	-4
1.02833	-4
1.03200	-4
1.03567	-4
1.03933	-4
1.04300	-4
1.04667	-4
1.05033	-4
1.05400	-5
1.05767	-5
1.06133	-5
1.06500	-6
1.06867	-6
1.07233	-5
1.07600	-5
1.07967	-5
1.08333	-5
1.08700	-5
1.09067	-4
1.09433	-4
1.09800	-4
1.10167	-4
1.10533	-4
1.10900	-4
1.11267	-4
1.11633	-4
1.12000	-4
1.12367	-5
1.12733	-5
1.13100	-5
1.13467	-5
1.13833	-5
1.14200	-5
1.14567	-4
1.14933	-4
1.15300	-4
1.15667	-4
1.16033	-4
1.16400	-4
1.16767	-4
1.17133	-3
1.17500	-3
1.17867	-3
1.18233	-3
1.18600	-3
1.18967	-3
1.19333	-3
1.19700	-2
1.20067	-2
1.20433	-2
1.20800	-2
1.21167	-2
1.21533	-2
1.21900	-2
1.22267	-2
1.22633	-2
1.23000	-2
1.23367	-2
1.23733	-2
1.24100	-2
1.24467	-2
1.24833	-3
1.25200	-3
1.25567	-3
1.25933	-3
1.26300	-3
1.26667	-3
1.27033	-3
1.27400	-3
1.27767	-3
1.28133	-3
1.28500	-3
1.28867	-3
1.29233	-4
1.29600	-4
1.29967	-3
1.30333	-3
1.30700	-3
1.31067	-3
1.31433	-2
1.31800	-2
1.32167	-2
1.32533	-2
1.32900	-2
1.33267	-2
1.33633	-2
1.34000	-2
1.34367	-2
1.34733	-2
1.35100	-2
1.35467	-2
1.35833	-3
1.36200	-3
1.36567	-3
1.36933	-3
1.37300	-3
1.37667	-4
1.38033	-4
1.38400	-4
1.38767	-4
1.39133	-4
1.39500	-5
1.39867	-5
1.40233	-5
1.40600	-6
1.40967	-6
1.41333	-7
1.41700	-7
1.42067	-8
1.42433	-8
1.42800	-8
1.43167	-8
1.43533	-8
1.43900	-8
1.44267	-8
1.44633	-8
1.45000	-8
1.45367	-7
1.45733	-7
1.46100	-7
1.46467	-7
1.46833	-7
1.47200	-7
1.47567	-7
1.47933	-7
1.48300	-7
1.48667	-7
1.49033	-7
1.49400	-7
1.49767	-7
1.50133	-7
1.50500	-6
1.50867	-6
1.51233	-6
1.51600	-6
1.51967	-5
1.52333	-5
1.52700	-5
1.53067	-5
1.53433	-5
1.53800	-5
1.54167	-5
1.54533	-5
1.54900	-5
1.55267	-5
1.55633	-5
1.56000	-5
1.56367	-5
1.56733	-6
1.57100	-6
1.57467	-6
1.57833	-6
1.58200	-6
1.58567	-7
1.58933	-7
1.59300	-7
1.59667	-7
1.60033	-7
1.60400	-8
1.60767	-9
1.61133	-11
1.61500	-12
1.61867	-14
1.62233	-17
1.62600	-19
1.62967	-22
1.63333	-26
1.63700	-29
1.64067	-33
1.64433	-37
1.64800	-40
1.65167	-44
1.65533	-48
1.65900	-51
1.66267	-55
1.66633	-58
1.67000	-62
1.67367	-67
1.67733	-71
1.68100	-76
1.68467	-81
1.68833	-86
1.69200	-90
1.69567	-94
1.69933	-97
1.70300	-101
1.70667	-103
1.71033	-105
1.71400	-107
1.71767	-109
1.72133	-110
1.72500	-111
1.72867	-112
1.73233	-112
1.73600	-113
1.73967	-113
1.74333	-114
1.74700	-115
1.75067	-115
1.75433	-115
1.75800	-116
1.76167	-116
1.76533	-117
1.76900	-117
1.77267	-117
1.77633	-118
1.78000	-119
1.78367	-119
1.78733	-119
1.79100	-119
1.79467	-119
1.79833	-119
1.80200	-118
1.80567	-118
1.80933	-118
1.81300	-118
1.81667	-118
1.82033	-118
1.82400	-118
1.82767	-118
1.83133	-119
1.83500	-119
1.83867	-120
1.84233	-120
1.84600	-120
1.84967	-120
1.85333	-120
1.85700	-120
1.86067	-120
1.86433	-120
1.86800	-120
1.87167	-120
1.87533	-121
1.87900	-121
1.88267	-121
1.88633	-121
1.89000	-120
1.89367	-120
1.89733	-121
1.90100	-121
1.90467	-121
1.90833	-121
1.91200	-121
1.91567	-121
1.91933	-121
1.92300	-120
1.92667	-119
1.93033	-118
1.93400	-117
1.93767	-116
1.94133	-115
1.94500	-115
1.94867	-116
1.95233	-116
1.95600	-116
1.95967	-116
1.96333	-116
1.96700	-116
1.97067	-116
1.97433	-115
1.97800	-114
1.98167	-114
1.98533	-114
1.98900	-114
1.99267	-113
1.99633	-113
2.00000	-113
2.00367	-112
2.00733	-112
2.01100	-112
2.01467	-112
2.01833	-111
2.02200	-111
2.02567	-110
2.02933	-109
2.03300	-108
2.03667	-108
2.04033	-107
2.04400	-107
2.04767	-107
2.05133	-107
2.05500	-106
2.05867	-106
2.06233	-107
2.06600	-107
2.06967	-107
2.07333	-107
2.07700	-107
2.08067	-107
2.08433	-106
2.08800	-106
2.09167	-105
2.09533	-104
2.09900	-103
2.10267	-103
2.10633	-103
2.11000	-103
2.11367	-103
2.11733	-104
2.12100	-104
2.12467	-104
2.12833	-103
2.13200	-103
2.13567	-102
2.13933	-102
2.14300	-101
2.14667	-101
2.15033	-100
2.15400	-100
2.15767	-100
2.16133	-100
2.16500	-99
2.16867	-99
2.17233	-98
2.17600	-98
2.17967	-98
2.18333	-98
2.18700	-98
2.19067	-98
2.19433	-98
2.19800	-98
2.20167	-98
2.20533	-98
2.20900	-98
2.21267	-97
2.21633	-96
2.22000	-96
2.22367	-96
2.22733	-97
2.23100	-98
2.23467	-99
2.23833	-100
2.24200	-100
2.24567	-100
2.24933	-99
2.25300	-98
2.25667	-97
2.26033	-96
2.26400	-95
2.26767	-94
2.27133	-94
2.27500	-93
2.27867	-92
2.28233	-91
2.28600	-90
2.28967	-89
2.29333	-88
2.29700	-87
2.30067	-87
2.30433	-86
2.30800	-85
2.31167	-84
2.31533	-84
2.31900	-83
2.32267	-83
2.32633	-82
2.33000	-83
2.33367	-84
2.33733	-85
2.34100	-87
2.34467	-88
2.34833	-89
2.35200	-89
2.35567	-88
2.35933	-87
2.36300	-84
2.36667	-82
2.37033	-78
2.37400	-74
2.37767	-70
2.38133	-65
2.38500	-60
2.38867	-55
2.39233	-51
2.39600	-46
2.39967	-43
2.40333	-39
2.40700	-36
2.41067	-33
2.41433	-30
2.41800	-28
2.42167	-26
2.42533	-25
2.42900	-23
2.43267	-21
2.43633	-19
2.44000	-17
2.44367	-15
2.44733	-14
2.45100	-12
2.45467	-11
2.45833	-10
2.46200	-9
2.46567	-8
2.46933	-6
2.47300	-4
2.47667	-2
2.48033	-1
2.48400	1
2.48767	2
2.49133	3
2.49500	4
2.49867	5
2.50233	5
2.50600	5
2.50967	6
2.51333	6
2.51700	6
2.52067	7
2.52433	7
2.52800	7
2.53167	7
2.53533	8
2.53900	8
2.54267	9
2.54633	9
2.55000	10
2.55367	10
2.55733	11
2.56100	11
2.56467	11
2.56833	11
2.57200	11
2.57567	12
2.57933	12
2.58300	12
2.58667	12
2.59033	12
2.59400	12
2.59767	11
2.60133	12
2.60500	12
2.60867	13
2.61233	13
2.61600	14
2.61967	14
2.62333	14
2.62700	14
2.63067	14
2.63433	14
2.63800	14
2.64167	14
2.64533	14
2.64900	14
2.65267	14
2.65633	15
2.66000	15
2.66367	15
2.66733	15
2.67100	16
2.67467	16
2.67833	17
2.68200	17
2.68567	18
2.68933	18
2.69300	18
2.69667	18
2.70033	19
2.70400	19
2.70767	19
2.71133	19
2.71500	19
2.71867	19
2.72233	20
2.72600	20
2.72967	21
2.73333	21
2.73700	22
2.74067	23
2.74433	23
2.74800	23
2.75167	24
2.75533	23
2.75900	23
2.76267	23
2.76633	23
2.77000	22
2.77367	22
2.77733	22
2.78100	22
2.78467	22
2.78833	22
2.79200	22
2.79567	21
2.79933	21
2.80300	21
2.80667	22
2.81033	22
2.81400	22
2.81767	23
2.82133	23
2.82500	23
2.82867	23
2.83233	23
2.83600	23
2.83967	21
2.84333	18
2.84700	14
2.85067	7
2.85433	-2
2.85800	-15
2.86167	-32
2.86533	-53
2.86900	-78
2.87267	-107
2.87633	-141
2.88000	-178
2.88367	-219
2.88733	-263
2.89100	-310
2.89467	-359
2.89833	-410
2.90200	-463
2.90567	-516
2.90933	-570
2.91300	-623
2.91667	-677
2.92033	-730
2.92400	-781
2.92767	-833
2.93133	-885
2.93500	-942
2.93867	-1002
2.94233	-1058
2.94600	-1097
2.94967	-1113
2.95333	-1103
2.95700	-1068
2.96067	-1013
2.96433	-945
2.96800	-868
2.97167	-788
2.97533	-707
2.97900	-629
2.98267	-555
2.98633	-486
2.99000	-424
2.99367	-367
2.99733	-317
3.00100	-273
3.00467	-234
3.00833	-200
3.01200	-170
3.01567	-144
3.01933	-122
3.02300	-104
3.02667	-87
3.03033	-73
3.03400	-61
3.03767	-51
3.04133	-42
3.04500	-34
3.04867	-27
3.05233	-22
3.05600	-17
3.05967	-13
3.06333	-9
3.06700	-6
3.07067	-3
3.07433	-1
3.07800	1
3.08167	2
3.08533	4
3.08900	5
3.09267	6
3.09633	6
3.10000	7
3.10367	8
3.10733	8
3.11100	8
3.11467	9
3.11833	9
3.12200	10
3.12567	10
3.12933	10
3.13300	11
3.13667	11
3.14033	12
3.14400	13
3.14767	13
3.15133	13
3.15500	14
3.15867	14
3.16233	15
3.16600	15
3.16967	15
3.17333	16
3.17700	16
3.18067	16
3.18433	16
3.18800	17
3.19167	17
3.19533	17
3.19900	17
3.20267	17
3.20633	18
3.21000	18
3.21367	18
3.21733	18
3.22100	19
3.22467	19
3.22833	19
3.23200	19
3.23567	19
3.23933	19
3.24300	19
3.24667	19
3.25033	19
3.25400	18
3.25767	18
3.26133	18
3.26500	18
3.26867	18
3.27233	18
3.27600	18
3.27967	18
3.28333	18
3.28700	18
3.29067	18
3.29433	18
3.29800	18
3.30167	18
3.30533	19
3.30900	19
3.31267	19
3.31633	19
3.32000	19
3.32367	19
3.32733	19
3.33100	20
3.33467	20
3.33833	21
3.34200	21
3.34567	21
3.34933	22
3.35300	22
3.35667	22
3.36033	23
3.36400	23
3.36767	24
3.37133	24
3.37500	25
3.37867	25
3.38233	25
3.38600	25
3.38967	25
3.39333	25
3.39700	25
3.40067	25
3.40433	24
3.40800	24
3.41167	24
3.41533	24
3.41900	24
3.42267	24
3.42633	24
3.43000	24
3.43367	24
3.43733	24
3.44100	24
3.44467	24
3.44833	24
3.45200	24
3.45567	23
3.45933	23
3.46300	23
3.46667	23
3.47033	23
3.47400	23
3.47767	24
3.48133	24
3.48500	24
3.48867	24
3.49233	24
3.49600	24
3.49967	24
3.50333	24
3.50700	24
3.51067	24
3.51433	24
3.51800	24
3.52167	24
3.52533	24
3.52900	24
3.53267	25
3.53633	25
3.54000	25
3.54367	25
3.54733	25
3.55100	25
3.55467	25
3.55833	24
3.56200	24
3.56567	24
3.56933	24
3.57300	24
3.57667	24
3.58033	24
3.58400	25
3.58767	25
3.59133	25
3.59500	25
3.59867	24
3.60233	24
3.60600	24
3.60967	24
3.61333	24
3.61700	23
3.62067	23
3.62433	23
3.62800	23
3.63167	23
3.63533	23
3.63900	23
3.64267	23
3.64633	23
3.65000	23
3.65367	23
3.65733	22
3.66100	22
3.66467	22
3.66833	22
3.67200	22
3.67567	22
3.67933	21
3.68300	21
3.68667	21
3.69033	21
3.69400	22
3.69767	22
3.70133	22
3.70500	22
3.70867	22
3.71233	22
3.71600	22
3.71967	22
3.72333	22
3.72700	22
3.73067	22
3.73433	22
3.73800	23
3.74167	23
3.74533	23
3.74900	23
3.75267	23
3.75633	23
3.76000	23
3.76367	23
3.76733	23
3.77100	23
3.77467	23
3.77833	23
3.78200	24
3.78567	24
3.78933	24
3.79300	24
3.79667	24
3.80033	24
3.80400	24
3.80767	23
3.81133	23
3.81500	23
3.81867	23
3.82233	23
3.82600	23
3.82967	23
3.83333	24
3.83700	24
3.84067	24
3.84433	24
3.84800	24
3.85167	24
3.85533	24
3.85900	24
3.86267	24
3.86633	24
3.87000	24
3.87367	23
3.87733	23
3.88100	22
3.88467	22
3.88833	22
3.89200	22
3.89567	22
3.89933	22
3.90300	23
3.90667	23
3.91033	23
3.91400	23
3.91767	23
3.92133	23
3.92500	24
3.92867	24
3.93233	24
3.93600	24
3.93967	24
3.94333	24
3.94700	24
3.95067	24
3.95433	23
3.95800	23
3.96167	23
3.96533	23
3.96900	23
3.97267	23
3.97633	23
3.98000	23
3.98367	23
3.98733	23
3.99100	23
3.99467	22
3.99833	22

[Chromatogram (Ch3)]
Interval(msec)	220
# of Points	1091
Start Time(min)	0.002
End Time(min)	3.998
R.Time (min)	Intensity
0.00167	1
0.00533	2
0.00900	4
0.01267	5
0.01633	6
0.02000	6
0.02367	5
0.02733	6
0.03100	8
0.03467	10
0.03833	11
0.04200	9
0.04567	9
0.04933	9
0.05300	8
0.05667	6
0.06033	5
0.06400	4
0.06767	2
0.07133	-0
0.07500	-1
0.07867	1
0.08233	1
0.08600	2
0.08967	4
0.09333	6
0.09700	6
0.10067	5
0.10433	3
0.10800	2
0.11167	-0
0.11533	-2
0.11900	-4
0.12267	-3
0.12633	-0
0.13000	0
0.13367	2
0.13733	2
0.14100	1
0.14467	1
0.14833	4
0.15200	4
0.15567	2
0.15933	-1
0.16300	-1
0.16667	-1
0.17033	-1
0.17400	-1
0.17767	-3
0.18133	-6
0.18500	-6
0.18867	-6
0.19233	-5
0.19600	-3
0.19967	-4
0.20333	-5
0.20700	-5
0.21067	-5
0.21433	-5
0.21800	-7
0.22167	-3
0.22533	-1
0.22900	-0
0.23267	2
0.23633	4
0.24000	6
0.24367	6
0.24733	5
0.25100	5
0.25467	3
0.25833	-1
0.26200	-2
0.26567	-3
0.26933	-4
0.27300	-3
0.27667	-3
0.28033	-5
0.28400	-5
0.28767	-4
0.29133	-5
0.29500	-5
0.29867	-4
0.30233	-2
0.30600	-3
0.30967	-4
0.31333	-7
0.31700	-8
0.32067	-8
0.32433	-6
0.32800	-5
0.33167	-6
0.33533	-4
0.33900	-0
0.34267	2
0.34633	3
0.35000	2
0.35367	1
0.35733	0
0.36100	-2
0.36467	-4
0.36833	-6
0.37200	-5
0.37567	-3
0.37933	-1
0.38300	2
0.38667	1
0.39033	-1
0.39400	-1
0.39767	0
0.40133	0
0.40500	-2
0.40867	-2
0.41233	-2
0.41600	-4
0.41967	-5
0.42333	-5
0.42700	-3
0.43067	-1
0.43433	1
0.43800	2
0.44167	2
0.44533	-1
0.44900	-1
0.45267	1
0.45633	4
0.46000	6
0.46367	6
0.46733	4
0.47100	-0
0.47467	-1
0.47833	1
0.48200	2
0.48567	4
0.48933	3
0.49300	0
0.49667	0
0.50033	-0
0.50400	-1
0.50767	1
0.51133	3
0.51500	5
0.51867	6
0.52233	6
0.52600	5
0.52967	5
0.53333	4
0.53700	1
0.54067	-0
0.54433	0
0.54800	-1
0.55167	-1
0.55533	-1
0.55900	1
0.56267	4
0.56633	4
0.57000	2
0.57367	1
0.57733	-0
0.58100	-2
0.58467	-2
0.58833	-3
0.59200	-4
0.59567	-4
0.59933	-2
0.60300	-2
0.60667	0
0.61033	3
0.61400	4
0.61767	4
0.62133	6
0.62500	8
0.62867	7
0.63233	6
0.63600	6
0.63967	6
0.64333	6
0.64700	7
0.65067	8
0.65433	8
0.65800	9
0.66167	10
0.66533	11
0.66900	12
0.67267	13
0.67633	14
0.68000	13
0.68367	12
0.68733	10
0.69100	10
0.69467	10
0.69833	10
0.70200	7
0.70567	7
0.70933	5
0.71300	7
0.71667	10
0.72033	10
0.72400	10
0.72767	11
0.73133	13
0.73500	13
0.73867	13
0.74233	14
0.74600	16
0.74967	17
0.75333	17
0.75700	18
0.76067	17
0.76433	16
0.76800	18
0.77167	19
0.77533	19
0.77900	19
0.78267	17
0.78633	18
0.79000	17
0.79367	16
0.79733	17
0.80100	17
0.80467	17
0.80833	16
0.81200	15
0.81567	15
0.81933	16
0.82300	17
0.82667	15
0.83033	14
0.83400	14
0.83767	14
0.84133	17
0.84500	19
0.84867	18
0.85233	15
0.85600	14
0.85967	15
0.86333	17
0.86700	16
0.87067	15
0.87433	16
0.87800	16
0.88167	17
0.88533	18
0.88900	17
0.89267	16
0.89633	17
0.90000	18
0.90367	17
0.90733	18
0.91100	20
0.91467	21
0.91833	22
0.92200	22
0.92567	23
0.92933	24
0.93300	22
0.93667	22
0.94033	21
0.94400	20
0.94767	22
0.95133	24
0.95500	25
0.95867	26
0.96233	28
0.96600	28
0.96967	27
0.97333	26
0.97700	24
0.98067	21
0.98433	20
0.98800	21
0.99167	24
0.99533	23
0.99900	24
1.00267	24
1.00633	24
1.01000	26
1.01367	28
1.01733	28
1.02100	29
1.02467	30
1.02833	28
1.03200	27
1.03567	28
1.03933	28
1.04300	27
1.04667	28
1.05033	27
1.05400	27
1.05767	27
1.06133	28
1.06500	28
1.06867	31
1.07233	32
1.07600	31
1.07967	30
1.08333	29
1.08700	31
1.09067	33
1.09433	32
1.09800	29
1.10167	29
1.10533	29
1.10900	29
1.11267	28
1.11633	30
1.12000	30
1.12367	28
1.12733	25
1.13100	25
1.13467	26
1.13833	28
1.14200	32
1.14567	33
1.14933	34
1.15300	34
1.15667	32
1.16033	32
1.16400	32
1.16767	32
1.17133	31
1.17500	31
1.17867	31
1.18233	31
1.18600	29
1.18967	30
1.19333	32
1.19700	31
1.20067	30
1.20433	30
1.20800	33
1.21167	31
1.21533	31
1.21900	31
1.22267	31
1.22633	32
1.23000	34
1.23367	34
1.23733	35
1.24100	36
1.24467	37
1.24833	37
1.25200	36
1.25567	35
1.25933	35
1.26300	35
1.26667	34
1.27033	35
1.27400	35
1.27767	37
1.28133	38
1.28500	39
1.28867	40
1.29233	37
1.29600	36
1.29967	38
1.30333	39
1.30700	39
1.31067	41
1.31433	43
1.31800	42
1.32167	39
1.32533	37
1.32900	37
1.33267	36
1.33633	36
1.34000	38
1.34367	39
1.34733	39
1.35100	39
1.35467	40
1.35833	40
1.36200	38
1.36567	40
1.36933	42
1.37300	41
1.37667	39
1.38033	37
1.38400	36
1.38767	36
1.39133	39
1.39500	39
1.39867	39
1.40233	40
1.40600	41
1.40967	40
1.41333	40
1.41700	41
1.42067	42
1.42433	44
1.42800	46
1.43167	46
1.43533	43
1.43900	40
1.44267	39
1.44633	40
1.45000	38
1.45367	37
1.45733	39
1.46100	42
1.46467	43
1.46833	43
1.47200	44
1.47567	46
1.47933	46
1.48300	45
1.48667	45
1.49033	48
1.49400	50
1.49767	52
1.50133	53
1.50500	51
1.50867	48
1.51233	48
1.51600	48
1.51967	48
1.52333	47
1.52700	47
1.53067	48
1.53433	49
1.53800	50
1.54167	53
1.54533	54
1.54900	53
1.55267	52
1.55633	51
1.56000	50
1.56367	51
1.56733	51
1.57100	52
1.57467	53
1.57833	52
1.58200	52
1.58567	51
1.58933	53
1.59300	55
1.59667	57
1.60033	58
1.60400	60
1.60767	59
1.61133	59
1.61500	59
1.61867	61
1.62233	63
1.62600	64
1.62967	63
1.63333	63
1.63700	64
1.64067	64
1.64433	65
1.64800	66
1.65167	68
1.65533	69
1.65900	67
1.66267	65
1.66633	65
1.67000	65
1.67367	67
1.67733	68
1.68100	70
1.68467	73
1.68833	73
1.69200	73
1.69567	75
1.69933	77
1.70300	77
1.70667	78
1.71033	78
1.71400	81
1.71767	81
1.72133	79
1.72500	79
1.72867	78
1.73233	79
1.73600	80
1.73967	80
1.74333	80
1.74700	80
1.75067	80
1.75433	82
1.75800	84
1.76167	84
1.76533	86
1.76900	86
1.77267	86
1.77633	87
1.78000	89
1.78367	89
1.78733	89
1.79100	88
1.79467	88
1.79833	91
1.80200	92
1.80567	93
1.80933	95
1.81300	94
1.81667	95
1.82033	94
1.82400	93
1.82767	93
1.83133	95
1.83500	99
1.83867	104
1.84233	104
1.84600	104
1.84967	103
1.85333	103
1.85700	103
1.86067	104
1.86433	104
1.86800	103
1.87167	102
1.87533	100
1.87900	99
1.88267	100
1.88633	99
1.89000	99
1.89367	101
1.89733	102
1.90100	102
1.90467	103
1.90833	104
1.91200	106
1.91567	107
1.91933	109
1.92300	109
1.92667	110
1.93033	112
1.93400	112
1.93767	112
1.94133	112
1.94500	112
1.94867	111
1.95233	112
1.95600	111
1.95967	112
1.96333	111
1.96700	111
1.97067	112
1.97433	113
1.97800	114
1.98167	114
1.98533	116
1.98900	119
1.99267	122
1.99633	122
2.00000	123
2.00367	124
2.00733	124
2.01100	125
2.01467	127
2.01833	128
2.02200	128
2.02567	129
2.02933	130
2.03300	131
2.03667	134
2.04033	134
2.04400	133
2.04767	131
2.05133	133
2.05500	134
2.05867	136
2.06233	137
2.06600	138
2.06967	137
2.07333	137
2.07700	139
2.08067	142
2.08433	145
2.08800	146
2.09167	147
2.09533	149
2.09900	149
2.10267	150
2.10633	149
2.11000	147
2.11367	147
2.11733	148
2.12100	149
2.12467	150
2.12833	150
2.13200	152
2.13567	155
2.13933	156
2.14300	154
2.14667	152
2.15033	154
2.15400	155
2.15767	157
2.16133	157
2.16500	157
2.16867	158
2.17233	160
2.17600	162
2.17967	163
2.18333	164
2.18700	167
2.19067	168
2.19433	169
2.19800	170
2.20167	172
2.20533	173
2.20900	173
2.21267	177
2.21633	181
2.22000	181
2.22367	181
2.22733	181
2.23100	181
2.23467	184
2.23833	188
2.24200	192
2.24567	193
2.24933	193
2.25300	194
2.25667	194
2.26033	191
2.26400	189
2.26767	188
2.27133	189
2.27500	190
2.27867	193
2.28233	195
2.28600	199
2.28967	200
2.29333	201
2.29700	202
2.30067	202
2.30433	203
2.30800	204
2.31167	206
2.31533	209
2.31900	211
2.32267	210
2.32633	209
2.33000	210
2.33367	209
2.33733	208
2.34100	212
2.34467	217
2.34833	219
2.35200	220
2.35567	222
2.35933	225
2.36300	227
2.36667	228
2.37033	231
2.37400	235
2.37767	235
2.38133	234
2.38500	233
2.38867	231
2.39233	230
2.39600	232
2.39967	234
2.40333	236
2.40700	239
2.41067	242
2.41433	244
2.41800	247
2.42167	249
2.42533	250
2.42900	251
2.43267	252
2.43633	252
2.44000	251
2.44367	275
2.44733	341
2.45100	412
2.45467	469
2.45833	505
2.46200	511
2.46567	493
2.46933	470
2.47300	449
2.47667	434
2.48033	423
2.48400	415
2.48767	403
2.49133	389
2.49500	369
2.49867	348
2.50233	331
2.50600	317
2.50967	308
2.51333	302
2.51700	299
2.52067	300
2.52433	301
2.52800	304
2.53167	310
2.53533	316
2.53900	323
2.54267	327
2.54633	328
2.55000	326
2.55367	322
2.55733	315
2.56100	307
2.56467	298
2.56833	289
2.57200	279
2.57567	271
2.57933	264
2.58300	260
2.58667	258
2.59033	255
2.59400	253
2.59767	249
2.60133	243
2.60500	233
2.60867	217
2.61233	196
2.61600	175
2.61967	156
2.62333	139
2.62700	126
2.63067	116
2.63433	107
2.63800	102
2.64167	99
2.64533	101
2.64900	107
2.65267	113
2.65633	117
2.66000	127
2.66367	137
2.66733	149
2.67100	159
2.67467	166
2.67833	172
2.68200	179
2.68567	186
2.68933	193
2.69300	197
2.69667	199
2.70033	203
2.70400	207
2.70767	205
2.71133	205
2.71500	206
2.71867	204
2.72233	204
2.72600	204
2.72967	201
2.73333	199
2.73700	196
2.74067	195
2.74433	195
2.74800	193
2.75167	194
2.75533	195
2.75900	196
2.76267	198
2.76633	199
2.77000	198
2.77367	198
2.77733	198
2.78100	199
2.78467	200
2.78833	202
2.79200	202
2.79567	204
2.79933	206
2.80300	206
2.80667	208
2.81033	209
2.81400	207
2.81767	211
2.82133	229
2.82500	271
2.82867	352
2.83233	493
2.83600	714
2.83967	1032
2.84333	1450
2.84700	1954
2.85067	2519
2.85433	3102
2.85800	3656
2.86167	4132
2.86533	4496
2.86900	4725
2.87267	4817
2.87633	4775
2.88000	4620
2.88367	4377
2.88733	4080
2.89100	3753
2.89467	3413
2.89833	3078
2.90200	2756
2.90567	2454
2.90933	2178
2.91300	1927
2.91667	1705
2.92033	1512
2.92400	1344
2.92767	1193
2.93133	1058
2.93500	941
2.93867	840
2.94233	753
2.94600	679
2.94967	617
2.95333	565
2.95700	519
2.96067	478
2.96433	442
2.96800	412
2.97167	387
2.97533	366
2.97900	346
2.98267	328
2.98633	311
2.99000	298
2.99367	287
2.99733	278
3.00100	268
3.00467	260
3.00833	254
3.01200	251
3.01567	249
3.01933	245
3.02300	240
3.02667	236
3.03033	231
3.03400	227
3.03767	223
3.04133	222
3.04500	219
3.04867	215
3.05233	211
3.05600	207
3.05967	207
3.06333	207
3.06700	206
3.07067	205
3.07433	205
3.07800	204
3.08167	202
3.08533	198
3.08900	195
3.09267	191
3.09633	191
3.10000	193
3.10367	190
3.10733	174
3.11100	152
3.11467	139
3.11833	141
3.12200	155
3.12567	178
3.12933	204
3.13300	234
3.13667	268
3.14033	304
3.14400	341
3.14767	380
3.15133	419
3.15500	454
3.15867	488
3.16233	520
3.16600	551
3.16967	581
3.17333	609
3.17700	631
3.18067	650
3.18433	664
3.18800	678
3.19167	688
3.19533	696
3.19900	703
3.20267	712
3.20633	721
3.21000	725
3.21367	729
3.21733	731
3.22100	732
3.22467	735
3.22833	738
3.23200	736
3.23567	733
3.23933	731
3.24300	731
3.24667	728
3.25033	722
3.25400	717
3.25767	712
3.26133	707
3.26500	700
3.26867	695
3.27233	691
3.27600	688
3.27967	683
3.28333	677
3.28700	669
3.29067	662
3.29433	654
3.29800	647
3.30167	642
3.30533	636
3.30900	631
3.31267	625
3.31633	620
3.32000	616
3.32367	613
3.32733	613
3.33100	610
3.33467	605
3.33833	600
3.34200	595
3.34567	592
3.34933	591
3.35300	590
3.35667	588
3.36033	586
3.36400	583
3.36767	578
3.37133	574
3.37500	573
3.37867	574
3.38233	572
3.38600	573
3.38967	572
3.39333	570
3.39700	569
3.40067	570
3.40433	569
3.40800	569
3.41167	571
3.41533	573
3.41900	572
3.42267	567
3.42633	562
3.43000	560
3.43367	559
3.43733	561
3.44100	564
3.44467	567
3.44833	569
3.45200	569
3.45567	568
3.45933	566
3.46300	564
3.46667	563
3.47033	561
3.47400	559
3.47767	557
3.48133	556
3.48500	557
3.48867	557
3.49233	553
3.49600	551
3.49967	549
3.50333	546
3.50700	543
3.51067	540
3.51433	538
3.51800	539
3.52167	538
3.52533	537
3.52900	538
3.53267	538
3.53633	535
3.54000	531
3.54367	528
3.54733	526
3.55100	524
3.55467	521
3.55833	518
3.56200	517
3.56567	518
3.56933	518
3.57300	517
3.57667	515
3.58033	512
3.58400	506
3.58767	501
3.59133	497
3.59500	493
3.59867	491
3.60233	491
3.60600	491
3.60967	494
3.61333	493
3.61700	491
3.62067	489
3.62433	486
3.62800	483
3.63167	480
3.63533	478
3.63900	477
3.64267	474
3.64633	470
3.65000	467
3.65367	467
3.65733	468
3.66100	467
3.66467	466
3.66833	463
3.67200	462
3.67567	464
3.67933	465
3.68300	465
3.68667	462
3.69033	458
3.69400	457
3.69767	455
3.70133	455
3.70500	453
3.70867	450
3.71233	448
3.71600	448
3.71967	450
3.72333	452
3.72700	453
3.73067	453
3.73433	454
3.73800	452
3.74167	452
3.74533	449
3.74900	445
3.75267	442
3.75633	441
3.76000	440
3.76367	440
3.76733	440
3.77100	440
3.77467	440
3.77833	439
3.78200	436
3.78567	434
3.78933	433
3.79300	433
3.79667	432
3.80033	432
3.80400	432
3.80767	431
3.81133	429
3.81500	428
3.81867	427
3.82233	427
3.82600	427
3.82967	429
3.83333	428
3.83700	428
3.84067	431
3.84433	431
3.84800	429
3.85167	429
3.85533	428
3.85900	426
3.86267	425
3.86633	425
3.87000	425
3.87367	426
3.87733	428
3.88100	426
3.88467	426
3.88833	425
3.89200	423
3.89567	421
3.89933	418
3.90300	416
3.90667	414
3.91033	414
3.91400	414
3.91767	415
3.92133	416
3.92500	415
3.92867	414
3.93233	414
3.93600	415
3.93967	416
3.94333	417
3.94700	415
3.95067	413
3.95433	413
3.95800	412
3.96167	412
3.96533	411
3.96900	407
3.97267	405
3.97633	403
3.98000	400
3.98367	397
3.98733	395
3.99100	396
3.99467	394
3.99833	390

[Status Trace (Column Oven Temperature)]
Interval(msec)	1000
# of Points	240
Start Time(min)	0.012
End Time(min)	3.996
Intensity Units	
Intensity Multiplier	1
R.Time (min)	Intensity
0.01228	35.02
0.02895	35.02
0.04562	35.02
0.06228	35.03
0.07895	35.02
0.09562	35.02
0.11228	35.02
0.12895	35.03
0.14562	35.04
0.16228	35.05
0.17895	35.04
0.19562	35.04
0.21228	35.03
0.22895	35.02
0.24562	35.02
0.26228	35.02
0.27895	35.03
0.29562	35.04
0.31228	35.04
0.32895	35.03
0.34562	35.03
0.36228	35.03
0.37895	35.03
0.39562	35.02
0.41228	35.02
0.42895	35.03
0.44562	35.05
0.46228	35.05
0.47895	35.05
0.49562	35.05
0.51228	35.04
0.52895	35.03
0.54562	35.03
0.56228	35.02
0.57895	35.00
0.59562	34.98
0.61228	34.97
0.62895	34.98
0.64562	34.99
0.66228	35.00
0.67895	35.01
0.69562	35.01
0.71228	35.01
0.72895	35.00
0.74562	35.01
0.76228	35.01
0.77895	35.03
0.79562	35.03
0.81228	35.04
0.82895	35.04
0.84562	35.04
0.86228	35.04
0.87895	35.03
0.89562	35.02
0.91228	35.00
0.92895	34.99
0.94562	34.99
0.96228	34.99
0.97895	34.98
0.99562	34.99
1.01228	34.99
1.02895	34.99
1.04562	35.00
1.06228	35.00
1.07895	34.99
1.09562	34.99
1.11228	35.01
1.12895	35.01
1.14562	35.01
1.16228	35.00
1.17895	35.01
1.19562	35.01
1.21228	35.00
1.22895	34.99
1.24562	34.98
1.26228	34.98
1.27895	34.98
1.29562	34.97
1.31228	34.97
1.32895	34.96
1.34562	34.96
1.36228	34.96
1.37895	34.96
1.39562	34.97
1.41228	34.99
1.42895	35.00
1.44562	35.01
1.46228	35.01
1.47895	35.02
1.49562	35.02
1.51228	35.01
1.52895	35.01
1.54562	35.01
1.56228	35.01
1.57895	35.02
1.59562	35.04
1.61228	35.11
1.62895	35.25
1.64562	35.46
1.66228	35.70
1.67895	36.04
1.69562	36.40
1.71228	36.76
1.72895	37.10
1.74562	37.43
1.76228	37.77
1.77895	38.11
1.79562	38.43
1.81228	38.75
1.82895	39.08
1.84562	39.41
1.86228	39.74
1.87895	40.08
1.89562	40.41
1.91228	40.75
1.92895	41.06
1.94562	41.38
1.96228	41.70
1.97895	42.02
1.99562	42.35
2.01228	42.67
2.02895	42.99
2.04562	43.31
2.06228	43.63
2.07895	43.96
2.09562	44.26
2.11228	44.60
2.12895	44.91
2.14562	45.25
2.16228	45.58
2.17895	45.91
2.19562	46.25
2.21228	46.56
2.22895	46.95
2.24562	47.28
2.26228	47.61
2.27895	47.94
2.29562	48.27
2.31228	48.57
2.32895	48.92
2.34562	49.31
2.36228	49.56
2.37895	49.65
2.39562	49.66
2.41228	49.65
2.42895	49.65
2.44562	49.67
2.46228	49.68
2.47895	49.68
2.49562	49.69
2.51228	49.71
2.52895	49.74
2.54562	49.74
2.56228	49.78
2.57895	49.78
2.59562	49.80
2.61228	49.80
2.62895	49.83
2.64562	49.84
2.66228	49.85
2.67895	49.84
2.69562	49.86
2.71228	49.86
2.72895	49.85
2.74562	49.84
2.76228	49.86
2.77895	49.87
2.79562	49.87
2.81228	49.87
2.82895	49.88
2.84562	49.87
2.86228	49.88
2.87895	49.89
2.89562	49.90
2.91228	49.90
2.92895	49.91
2.94562	49.93
2.96228	49.95
2.97895	49.96
2.99562	49.97
3.01228	49.97
3.02895	49.98
3.04562	49.98
3.06228	49.99
3.07895	49.99
3.09562	50.01
3.11228	50.02
3.12895	50.02
3.14562	50.03
3.16228	50.03
3.17895	50.03
3.19562	50.03
3.21228	50.03
3.22895	50.03
3.24562	50.04
3.26228	50.07
3.27895	50.09
3.29562	50.10
3.31228	50.11
3.32895	50.10
3.34562	50.09
3.36228	50.08
3.37895	50.07
3.39562	50.06
3.41228	50.07
3.42895	50.07
3.44562	50.07
3.46228	50.07
3.47895	50.06
3.49562	50.06
3.51228	50.05
3.52895	50.04
3.54562	50.04
3.56228	50.03
3.57895	50.02
3.59562	50.03
3.61228	50.03
3.62895	50.04
3.64562	50.05
3.66228	50.06
3.67895	50.07
3.69562	50.07
3.71228	50.08
3.72895	50.08
3.74562	50.08
3.76228	50.08
3.77895	50.08
3.79562	50.08
3.81228	50.07
3.82895	50.07
3.84562	50.06
3.86228	50.06
3.87895	50.07
3.89562	50.07
3.91228	50.06
3.92895	50.05
3.94562	50.04
3.96228	50.05
3.97895	50.06
3.99562	50.06

[Status Trace (Injection Unit Temperature)]
Interval(msec)	1000
# of Points	240
Start Time(min)	0.012
End Time(min)	3.996
Intensity Units	
Intensity Multiplier	1
R.Time (min)	Intensity
0.01228	99.98
0.02895	99.98
0.04562	99.98
0.06228	99.98
0.07895	99.98
0.09562	99.98
0.11228	99.98
0.12895	99.98
0.14562	99.98
0.16228	99.98
0.17895	99.98
0.19562	99.98
0.21228	99.98
0.22895	99.98
0.24562	99.98
0.26228	99.98
0.27895	99.98
0.29562	99.98
0.31228	99.98
0.32895	99.98
0.34562	99.98
0.36228	99.98
0.37895	99.98
0.39562	99.98
0.41228	99.98
0.42895	99.98
0.44562	99.98
0.46228	99.98
0.47895	99.98
0.49562	99.98
0.51228	99.98
0.52895	99.98
0.54562	99.98
0.56228	99.98
0.57895	99.99
0.59562	99.98
0.61228	99.99
0.62895	99.98
0.64562	99.98
0.66228	99.98
0.67895	99.98
0.69562	99.98
0.71228	99.98
0.72895	99.99
0.74562	99.98
0.76228	99.98
0.77895	99.98
0.79562	99.98
0.81228	99.99
0.82895	99.98
0.84562	99.99
0.86228	99.98
0.87895	99.99
0.89562	99.99
0.91228	99.99
0.92895	99.99
0.94562	99.99
0.96228	99.99
0.97895	99.99
0.99562	99.99
1.01228	99.99
1.02895	99.99
1.04562	99.98
1.06228	99.99
1.07895	99.99
1.09562	99.99
1.11228	99.99
1.12895	99.99
1.14562	99.99
1.16228	99.99
1.17895	99.98
1.19562	99.99
1.21228	99.99
1.22895	99.98
1.24562	99.99
1.26228	99.99
1.27895	99.98
1.29562	99.99
1.31228	99.99
1.32895	99.99
1.34562	99.99
1.36228	99.99
1.37895	99.98
1.39562	99.99
1.41228	99.99
1.42895	99.98
1.44562	99.98
1.46228	99.98
1.47895	99.99
1.49562	99.98
1.51228	99.98
1.52895	99.98
1.54562	99.98
1.56228	99.98
1.57895	99.98
1.59562	99.98
1.61228	99.98
1.62895	99.98
1.64562	99.97
1.66228	99.98
1.67895	99.98
1.69562	99.98
1.71228	99.98
1.72895	99.98
1.74562	99.98
1.76228	99.97
1.77895	99.97
1.79562	99.97
1.81228	99.97
1.82895	99.97
1.84562	99.97
1.86228	99.97
1.87895	99.97
1.89562	99.97
1.91228	99.97
1.92895	99.97
1.94562	99.97
1.96228	99.97
1.97895	99.97
1.99562	99.96
2.01228	99.97
2.02895	99.97
2.04562	99.97
2.06228	99.97
2.07895	99.97
2.09562	99.97
2.11228	99.97
2.12895	99.97
2.14562	99.97
2.16228	99.97
2.17895	99.97
2.19562	99.97
2.21228	99.97
2.22895	99.97
2.24562	99.98
2.26228	99.97
2.27895	99.97
2.29562	99.97
2.31228	99.97
2.32895	99.97
2.34562	99.97
2.36228	99.98
2.37895	99.97
2.39562	99.97
2.41228	99.98
2.42895	99.98
2.44562	99.98
2.46228	99.98
2.47895	99.97
2.49562	99.98
2.51228	99.98
2.52895	99.98
2.54562	99.98
2.56228	99.98
2.57895	99.98
2.59562	99.98
2.61228	99.98
2.62895	99.98
2.64562	99.98
2.66228	99.99
2.67895	99.99
2.69562	99.99
2.71228	99.99
2.72895	99.99
2.74562	99.99
2.76228	99.99
2.77895	99.99
2.79562	99.99
2.81228	99.99
2.82895	99.99
2.84562	100.00
2.86228	100.00
2.87895	99.99
2.89562	100.00
2.91228	100.00
2.92895	100.00
2.94562	100.00
2.96228	100.00
2.97895	100.00
2.99562	100.00
3.01228	100.00
3.02895	100.00
3.04562	100.01
3.06228	100.01
3.07895	100.01
3.09562	100.01
3.11228	100.01
3.12895	100.01
3.14562	100.01
3.16228	100.01
3.17895	100.01
3.19562	100.02
3.21228	100.02
3.22895	100.02
3.24562	100.02
3.26228	100.02
3.27895	100.02
3.29562	100.02
3.31228	100.02
3.32895	100.02
3.34562	100.02
3.36228	100.03
3.37895	100.03
3.39562	100.02
3.41228	100.03
3.42895	100.02
3.44562	100.02
3.46228	100.03
3.47895	100.03
3.49562	100.03
3.51228	100.03
3.52895	100.03
3.54562	100.02
3.56228	100.03
3.57895	100.03
3.59562	100.03
3.61228	100.03
3.62895	100.04
3.64562	100.03
3.66228	100.04
3.67895	100.04
3.69562	100.04
3.71228	100.03
3.72895	100.04
3.74562	100.04
3.76228	100.04
3.77895	100.04
3.79562	100.04
3.81228	100.04
3.82895	100.04
3.84562	100.04
3.86228	100.04
3.87895	100.04
3.89562	100.04
3.91228	100.04
3.92895	100.04
3.94562	100.04
3.96228	100.05
3.97895	100.05
3.99562	100.05

[Status Trace (Carrier Gas Pressure)]
Interval(msec)	1000
# of Points	240
Start Time(min)	0.012
End Time(min)	3.996
Intensity Units	
Intensity Multiplier	1
R.Time (min)	Intensity
0.01228	57.98
0.02895	55.00
0.04562	57.67
0.06228	59.71
0.07895	58.85
0.09562	57.99
0.11228	57.99
0.12895	58.01
0.14562	58.01
0.16228	58.00
0.17895	58.00
0.19562	58.00
0.21228	58.00
0.22895	58.00
0.24562	58.00
0.26228	58.00
0.27895	58.00
0.29562	58.00
0.31228	58.00
0.32895	58.00
0.34562	58.00
0.36228	58.00
0.37895	58.00
0.39562	58.00
0.41228	58.00
0.42895	58.00
0.44562	58.00
0.46228	58.00
0.47895	58.00
0.49562	58.00
0.51228	58.00
0.52895	58.00
0.54562	58.00
0.56228	58.00
0.57895	58.00
0.59562	58.00
0.61228	58.00
0.62895	58.00
0.64562	58.00
0.66228	58.00
0.67895	58.00
0.69562	58.00
0.71228	58.00
0.72895	58.00
0.74562	58.00
0.76228	58.00
0.77895	58.00
0.79562	58.00
0.81228	58.00
0.82895	58.00
0.84562	58.00
0.86228	58.00
0.87895	58.00
0.89562	58.00
0.91228	58.00
0.92895	58.00
0.94562	58.00
0.96228	58.00
0.97895	58.00
0.99562	58.00
1.01228	58.00
1.02895	58.00
1.04562	58.00
1.06228	58.00
1.07895	58.00
1.09562	58.00
1.11228	58.00
1.12895	58.00
1.14562	58.00
1.16228	58.00
1.17895	58.00
1.19562	58.00
1.21228	58.00
1.22895	58.00
1.24562	58.00
1.26228	58.00
1.27895	58.00
1.29562	58.00
1.31228	58.00
1.32895	58.00
1.34562	58.00
1.36228	58.00
1.37895	58.00
1.39562	58.00
1.41228	58.00
1.42895	58.00
1.44562	58.00
1.46228	58.00
1.47895	58.00
1.49562	58.00
1.51228	58.00
1.52895	58.00
1.54562	58.00
1.56228	58.00
1.57895	58.00
1.59562	58.00
1.61228	58.00
1.62895	58.00
1.64562	58.00
1.66228	58.00
1.67895	58.01
1.69562	58.00
1.71228	58.00
1.72895	58.00
1.74562	58.00
1.76228	58.00
1.77895	58.00
1.79562	58.00
1.81228	58.00
1.82895	58.00
1.84562	58.00
1.86228	58.00
1.87895	58.00
1.89562	58.00
1.91228	58.00
1.92895	58.00
1.94562	58.00
1.96228	58.00
1.97895	58.00
1.99562	58.00
2.01228	58.00
2.02895	58.00
2.04562	58.00
2.06228	58.00
2.07895	58.00
2.09562	58.00
2.11228	58.00
2.12895	58.00
2.14562	58.00
2.16228	58.00
2.17895	58.00
2.19562	58.00
2.21228	58.00
2.22895	58.00
2.24562	58.00
2.26228	58.00
2.27895	58.00
2.29562	58.00
2.31228	58.00
2.32895	58.00
2.34562	58.00
2.36228	58.00
2.37895	57.99
2.39562	57.99
2.41228	58.00
2.42895	58.00
2.44562	58.00
2.46228	58.00
2.47895	58.00
2.49562	58.00
2.51228	57.99
2.52895	57.99
2.54562	58.00
2.56228	58.00
2.57895	58.00
2.59562	58.00
2.61228	58.00
2.62895	58.00
2.64562	58.00
2.66228	58.00
2.67895	58.00
2.69562	58.00
2.71228	58.00
2.72895	58.00
2.74562	58.00
2.76228	58.00
2.77895	58.00
2.79562	58.00
2.81228	58.00
2.82895	58.00
2.84562	58.00
2.86228	58.00
2.87895	58.00
2.89562	58.00
2.91228	58.00
2.92895	58.00
2.94562	58.00
2.96228	58.00
2.97895	58.00
2.99562	58.00
3.01228	58.00
3.02895	58.00
3.04562	58.00
3.06228	58.00
3.07895	58.00
3.09562	58.00
3.11228	58.00
3.12895	58.00
3.14562	58.00
3.16228	58.00
3.17895	58.00
3.19562	58.00
3.21228	58.00
3.22895	58.00
3.24562	58.00
3.26228	58.00
3.27895	58.00
3.29562	58.00
3.31228	58.00
3.32895	58.00
3.34562	58.00
3.36228	58.00
3.37895	58.00
3.39562	58.00
3.41228	58.00
3.42895	58.00
3.44562	58.00
3.46228	58.00
3.47895	58.00
3.49562	58.00
3.51228	58.00
3.52895	58.00
3.54562	58.00
3.56228	58.00
3.57895	58.00
3.59562	58.00
3.61228	58.00
3.62895	58.00
3.64562	58.00
3.66228	58.00
3.67895	58.00
3.69562	58.00
3.71228	58.00
3.72895	58.00
3.74562	58.00
3.76228	58.00
3.77895	58.00
3.79562	58.00
3.81228	58.00
3.82895	58.00
3.84562	58.00
3.86228	58.00
3.87895	58.00
3.89562	58.00
3.91228	58.00
3.92895	58.00
3.94562	58.00
3.96228	58.00
3.97895	58.00
3.99562	58.00

[Status Trace (Carrier Gas Flow)]
Interval(msec)	1000
# of Points	240
Start Time(min)	0.012
End Time(min)	3.996
Intensity Units	
Intensity Multiplier	1
R.Time (min)	Intensity
0.01228	34.57
0.02895	34.54
0.04562	34.55
0.06228	34.54
0.07895	34.51
0.09562	34.52
0.11228	34.52
0.12895	34.52
0.14562	34.53
0.16228	34.52
0.17895	34.52
0.19562	34.53
0.21228	34.52
0.22895	34.51
0.24562	34.52
0.26228	34.52
0.27895	34.52
0.29562	34.52
0.31228	34.52
0.32895	34.52
0.34562	34.52
0.36228	34.52
0.37895	34.52
0.39562	34.52
0.41228	34.52
0.42895	34.52
0.44562	34.52
0.46228	34.52
0.47895	34.52
0.49562	34.52
0.51228	34.52
0.52895	34.52
0.54562	34.52
0.56228	34.52
0.57895	34.52
0.59562	34.52
0.61228	34.52
0.62895	34.52
0.64562	34.52
0.66228	34.52
0.67895	34.52
0.69562	34.52
0.71228	34.52
0.72895	34.51
0.74562	34.52
0.76228	34.52
0.77895	34.52
0.79562	34.52
0.81228	34.52
0.82895	34.52
0.84562	34.52
0.86228	34.51
0.87895	34.52
0.89562	34.52
0.91228	34.52
0.92895	34.52
0.94562	34.52
0.96228	34.52
0.97895	34.52
0.99562	34.51
1.01228	34.52
1.02895	34.52
1.04562	34.53
1.06228	34.52
1.07895	34.53
1.09562	34.52
1.11228	34.51
1.12895	34.51
1.14562	34.52
1.16228	34.52
1.17895	34.52
1.19562	34.52
1.21228	34.52
1.22895	34.52
1.24562	34.52
1.26228	34.52
1.27895	34.52
1.29562	34.52
1.31228	34.52
1.32895	34.52
1.34562	34.52
1.36228	34.52
1.37895	34.52
1.39562	34.52
1.41228	34.52
1.42895	34.52
1.44562	34.52
1.46228	34.52
1.47895	34.52
1.49562	34.52
1.51228	34.52
1.52895	34.52
1.54562	34.52
1.56228	34.52
1.57895	34.52
1.59562	34.52
1.61228	34.52
1.62895	34.52
1.64562	34.52
1.66228	34.52
1.67895	34.52
1.69562	34.52
1.71228	34.52
1.72895	34.52
1.74562	34.52
1.76228	34.52
1.77895	34.52
1.79562	34.52
1.81228	34.52
1.82895	34.52
1.84562	34.52
1.86228	34.52
1.87895	34.52
1.89562	34.52
1.91228	34.52
1.92895	34.51
1.94562	34.52
1.96228	34.52
1.97895	34.52
1.99562	34.52
2.01228	34.52
2.02895	34.52
2.04562	34.52
2.06228	34.52
2.07895	34.52
2.09562	34.52
2.11228	34.52
2.12895	34.52
2.14562	34.52
2.16228	34.52
2.17895	34.52
2.19562	34.52
2.21228	34.52
2.22895	34.51
2.24562	34.52
2.26228	34.52
2.27895	34.52
2.29562	34.52
2.31228	34.52
2.32895	34.52
2.34562	34.52
2.36228	34.52
2.37895	34.52
2.39562	34.52
2.41228	34.52
2.42895	34.52
2.44562	34.53
2.46228	34.52
2.47895	34.52
2.49562	34.51
2.51228	34.52
2.52895	34.52
2.54562	34.52
2.56228	34.52
2.57895	34.52
2.59562	34.52
2.61228	34.52
2.62895	34.53
2.64562	34.51
2.66228	34.51
2.67895	34.52
2.69562	34.51
2.71228	34.52
2.72895	34.53
2.74562	34.52
2.76228	34.52
2.77895	34.53
2.79562	34.52
2.81228	34.52
2.82895	34.52
2.84562	34.52
2.86228	34.52
2.87895	34.52
2.89562	34.51
2.91228	34.52
2.92895	34.53
2.94562	34.52
2.96228	34.52
2.97895	34.52
2.99562	34.52
3.01228	34.52
3.02895	34.52
3.04562	34.52
3.06228	34.52
3.07895	34.52
3.09562	34.52
3.11228	34.52
3.12895	34.52
3.14562	34.52
3.16228	34.52
3.17895	34.52
3.19562	34.52
3.21228	34.52
3.22895	34.52
3.24562	34.52
3.26228	34.52
3.27895	34.52
3.29562	34.52
3.31228	34.52
3.32895	34.52
3.34562	34.52
3.36228	34.51
3.37895	34.52
3.39562	34.53
3.41228	34.52
3.42895	34.52
3.44562	34.52
3.46228	34.51
3.47895	34.52
3.49562	34.52
3.51228	34.51
3.52895	34.52
3.54562	34.51
3.56228	34.52
3.57895	34.51
3.59562	34.52
3.61228	34.51
3.62895	34.52
3.64562	34.52
3.66228	34.52
3.67895	34.53
3.69562	34.52
3.71228	34.52
3.72895	34.51
3.74562	34.52
3.76228	34.52
3.77895	34.52
3.79562	34.52
3.81228	34.52
3.82895	34.52
3.84562	34.52
3.86228	34.51
3.87895	34.52
3.89562	34.53
3.91228	34.51
3.92895	34.52
3.94562	34.52
3.96228	34.52
3.97895	34.52
3.99562	34.53

[Status Trace (Column Flow)]
Interval(msec)	1000
# of Points	240
Start Time(min)	0.012
End Time(min)	3.996
Intensity Units	
Intensity Multiplier	1
R.Time (min)	Intensity
0.01228	5.57
0.02895	5.22
0.04562	5.53
0.06228	5.77
0.07895	5.67
0.09562	5.57
0.11228	5.57
0.12895	5.57
0.14562	5.57
0.16228	5.57
0.17895	5.57
0.19562	5.57
0.21228	5.57
0.22895	5.57
0.24562	5.57
0.26228	5.57
0.27895	5.57
0.29562	5.57
0.31228	5.57
0.32895	5.57
0.34562	5.57
0.36228	5.57
0.37895	5.57
0.39562	5.57
0.41228	5.57
0.42895	5.57
0.44562	5.57
0.46228	5.57
0.47895	5.57
0.49562	5.57
0.51228	5.57
0.52895	5.57
0.54562	5.57
0.56228	5.57
0.57895	5.57
0.59562	5.57
0.61228	5.57
0.62895	5.57
0.64562	5.57
0.66228	5.57
0.67895	5.57
0.69562	5.57
0.71228	5.57
0.72895	5.57
0.74562	5.57
0.76228	5.57
0.77895	5.57
0.79562	5.57
0.81228	5.57
0.82895	5.57
0.84562	5.57
0.86228	5.57
0.87895	5.57
0.89562	5.57
0.91228	5.57
0.92895	5.57
0.94562	5.57
0.96228	5.57
0.97895	5.57
0.99562	5.57
1.01228	5.57
1.02895	5.57
1.04562	5.57
1.06228	5.57
1.07895	5.57
1.09562	5.57
1.11228	5.57
1.12895	5.57
1.14562	5.57
1.16228	5.57
1.17895	5.57
1.19562	5.57
1.21228	5.57
1.22895	5.57
1.24562	5.57
1.26228	5.57
1.27895	5.57
1.29562	5.57
1.31228	5.57
1.32895	5.58
1.34562	5.57
1.36228	5.57
1.37895	5.57
1.39562	5.57
1.41228	5.57
1.42895	5.57
1.44562	5.57
1.46228	5.57
1.47895	5.57
1.49562	5.57
1.51228	5.57
1.52895	5.57
1.54562	5.57
1.56228	5.57
1.57895	5.57
1.59562	5.57
1.61228	5.57
1.62895	5.57
1.64562	5.56
1.66228	5.55
1.67895	5.54
1.69562	5.53
1.71228	5.52
1.72895	5.51
1.74562	5.50
1.76228	5.49
1.77895	5.48
1.79562	5.47
1.81228	5.46
1.82895	5.45
1.84562	5.44
1.86228	5.43
1.87895	5.42
1.89562	5.41
1.91228	5.40
1.92895	5.39
1.94562	5.38
1.96228	5.37
1.97895	5.36
1.99562	5.35
2.01228	5.34
2.02895	5.33
2.04562	5.32
2.06228	5.31
2.07895	5.30
2.09562	5.29
2.11228	5.28
2.12895	5.27
2.14562	5.26
2.16228	5.25
2.17895	5.24
2.19562	5.23
2.21228	5.22
2.22895	5.21
2.24562	5.20
2.26228	5.19
2.27895	5.18
2.29562	5.18
2.31228	5.17
2.32895	5.16
2.34562	5.15
2.36228	5.14
2.37895	5.14
2.39562	5.14
2.41228	5.14
2.42895	5.14
2.44562	5.14
2.46228	5.14
2.47895	5.14
2.49562	5.13
2.51228	5.13
2.52895	5.13
2.54562	5.13
2.56228	5.13
2.57895	5.13
2.59562	5.13
2.61228	5.13
2.62895	5.13
2.64562	5.13
2.66228	5.13
2.67895	5.13
2.69562	5.13
2.71228	5.13
2.72895	5.13
2.74562	5.13
2.76228	5.13
2.77895	5.13
2.79562	5.13
2.81228	5.13
2.82895	5.13
2.84562	5.13
2.86228	5.13
2.87895	5.13
2.89562	5.13
2.91228	5.13
2.92895	5.13
2.94562	5.13
2.96228	5.13
2.97895	5.13
2.99562	5.13
3.01228	5.13
3.02895	5.13
3.04562	5.13
3.06228	5.13
3.07895	5.13
3.09562	5.13
3.11228	5.13
3.12895	5.13
3.14562	5.13
3.16228	5.13
3.17895	5.13
3.19562	5.13
3.21228	5.13
3.22895	5.13
3.24562	5.13
3.26228	5.12
3.27895	5.12
3.29562	5.12
3.31228	5.12
3.32895	5.12
3.34562	5.12
3.36228	5.12
3.37895	5.12
3.39562	5.12
3.41228	5.12
3.42895	5.12
3.44562	5.12
3.46228	5.12
3.47895	5.12
3.49562	5.12
3.51228	5.12
3.52895	5.12
3.54562	5.13
3.56228	5.13
3.57895	5.13
3.59562	5.13
3.61228	5.13
3.62895	5.13
3.64562	5.12
3.66228	5.12
3.67895	5.12
3.69562	5.12
3.71228	5.12
3.72895	5.12
3.74562	5.12
3.76228	5.12
3.77895	5.12
3.79562	5.12
3.81228	5.12
3.82895	5.12
3.84562	5.12
3.86228	5.12
3.87895	5.12
3.89562	5.12
3.91228	5.12
3.92895	5.12
3.94562	5.12
3.96228	5.13
3.97895	5.12
3.99562	5.12

[Status Trace (Linear Velocity)]
Interval(msec)	1000
# of Points	240
Start Time(min)	0.012
End Time(min)	3.996
Intensity Units	
Intensity Multiplier	1
R.Time (min)	Intensity
0.01228	39.02
0.02895	37.06
0.04562	38.81
0.06228	40.15
0.07895	39.58
0.09562	39.02
0.11228	39.02
0.12895	39.03
0.14562	39.03
0.16228	39.03
0.17895	39.03
0.19562	39.03
0.21228	39.03
0.22895	39.03
0.24562	39.03
0.26228	39.03
0.27895	39.03
0.29562	39.03
0.31228	39.03
0.32895	39.03
0.34562	39.03
0.36228	39.02
0.37895	39.03
0.39562	39.03
0.41228	39.03
0.42895	39.03
0.44562	39.02
0.46228	39.02
0.47895	39.02
0.49562	39.02
0.51228	39.02
0.52895	39.03
0.54562	39.03
0.56228	39.03
0.57895	39.03
0.59562	39.03
0.61228	39.03
0.62895	39.03
0.64562	39.03
0.66228	39.03
0.67895	39.03
0.69562	39.03
0.71228	39.03
0.72895	39.03
0.74562	39.03
0.76228	39.03
0.77895	39.03
0.79562	39.03
0.81228	39.02
0.82895	39.02
0.84562	39.03
0.86228	39.02
0.87895	39.03
0.89562	39.03
0.91228	39.03
0.92895	39.03
0.94562	39.03
0.96228	39.03
0.97895	39.03
0.99562	39.03
1.01228	39.03
1.02895	39.03
1.04562	39.03
1.06228	39.03
1.07895	39.03
1.09562	39.03
1.11228	39.03
1.12895	39.03
1.14562	39.03
1.16228	39.03
1.17895	39.03
1.19562	39.03
1.21228	39.03
1.22895	39.03
1.24562	39.03
1.26228	39.03
1.27895	39.03
1.29562	39.03
1.31228	39.03
1.32895	39.03
1.34562	39.03
1.36228	39.03
1.37895	39.03
1.39562	39.03
1.41228	39.03
1.42895	39.03
1.44562	39.03
1.46228	39.03
1.47895	39.03
1.49562	39.03
1.51228	39.03
1.52895	39.03
1.54562	39.03
1.56228	39.03
1.57895	39.03
1.59562	39.03
1.61228	39.02
1.62895	39.01
1.64562	38.99
1.66228	38.96
1.67895	38.93
1.69562	38.90
1.71228	38.86
1.72895	38.83
1.74562	38.80
1.76228	38.76
1.77895	38.73
1.79562	38.70
1.81228	38.67
1.82895	38.64
1.84562	38.61
1.86228	38.58
1.87895	38.55
1.89562	38.52
1.91228	38.48
1.92895	38.45
1.94562	38.43
1.96228	38.40
1.97895	38.36
1.99562	38.34
2.01228	38.31
2.02895	38.28
2.04562	38.25
2.06228	38.22
2.07895	38.19
2.09562	38.16
2.11228	38.13
2.12895	38.10
2.14562	38.07
2.16228	38.04
2.17895	38.01
2.19562	37.98
2.21228	37.95
2.22895	37.92
2.24562	37.89
2.26228	37.86
2.27895	37.83
2.29562	37.80
2.31228	37.77
2.32895	37.74
2.34562	37.71
2.36228	37.68
2.37895	37.67
2.39562	37.67
2.41228	37.67
2.42895	37.67
2.44562	37.67
2.46228	37.67
2.47895	37.67
2.49562	37.67
2.51228	37.66
2.52895	37.66
2.54562	37.67
2.56228	37.67
2.57895	37.66
2.59562	37.66
2.61228	37.66
2.62895	37.66
2.64562	37.66
2.66228	37.66
2.67895	37.66
2.69562	37.66
2.71228	37.66
2.72895	37.66
2.74562	37.66
2.76228	37.66
2.77895	37.66
2.79562	37.66
2.81228	37.66
2.82895	37.65
2.84562	37.66
2.86228	37.65
2.87895	37.65
2.89562	37.65
2.91228	37.65
2.92895	37.65
2.94562	37.65
2.96228	37.65
2.97895	37.65
2.99562	37.65
3.01228	37.65
3.02895	37.65
3.04562	37.65
3.06228	37.64
3.07895	37.65
3.09562	37.64
3.11228	37.64
3.12895	37.64
3.14562	37.64
3.16228	37.64
3.17895	37.64
3.19562	37.64
3.21228	37.64
3.22895	37.64
3.24562	37.64
3.26228	37.64
3.27895	37.64
3.29562	37.64
3.31228	37.63
3.32895	37.63
3.34562	37.64
3.36228	37.64
3.37895	37.64
3.39562	37.64
3.41228	37.64
3.42895	37.64
3.44562	37.64
3.46228	37.64
3.47895	37.64
3.49562	37.64
3.51228	37.64
3.52895	37.64
3.54562	37.64
3.56228	37.64
3.57895	37.64
3.59562	37.64
3.61228	37.64
3.62895	37.64
3.64562	37.64
3.66228	37.64
3.67895	37.64
3.69562	37.64
3.71228	37.64
3.72895	37.64
3.74562	37.64
3.76228	37.64
3.77895	37.64
3.79562	37.64
3.81228	37.64
3.82895	37.64
3.84562	37.64
3.86228	37.64
3.87895	37.64
3.89562	37.64
3.91228	37.64
3.92895	37.64
3.94562	37.64
3.96228	37.64
3.97895	37.64
3.99562	37.64

