[Header]
Application Name	LabSolutions
Version	5.110
Data File Name	C:\Users\User\Desktop\GC Analyses\Jack\Nachusa Grasslands Sampling\T0 Timepoint July 12th\T0_07122022_089.gcd
Output Date	3/14/2023
Output Time	3:40:39 PM

[File Information]
Type	Data File
Generated	3/7/2023 11:44:26 PM
Generated by	System Administrator
Modified	3/7/2023 11:51:06 PM
Modified by	System Administrator

[Sample Information]
Operator Name	System Administrator
Acquired	3/7/2023 11:47:05 PM
Sample Type	0:Unknown
Level	0
Sample Name	089
Sample ID	089
ISTD Amount1	1
ISTD Amount2	1
ISTD Amount3	1
ISTD Amount4	1
ISTD Amount5	1
ISTD Amount6	1
ISTD Amount7	1
ISTD Amount8	1
ISTD Amount9	1
ISTD Amount10	1
ISTD Amount11	1
ISTD Amount12	1
ISTD Amount13	1
ISTD Amount14	1
ISTD Amount15	1
ISTD Amount16	1
ISTD Amount17	1
ISTD Amount18	1
ISTD Amount19	1
ISTD Amount20	1
ISTD Amount21	1
ISTD Amount22	1
ISTD Amount23	1
ISTD Amount24	1
ISTD Amount25	1
ISTD Amount26	1
ISTD Amount27	1
ISTD Amount28	1
ISTD Amount29	1
ISTD Amount30	1
ISTD Amount31	1
ISTD Amount32	1
Sample Amount	1
Dilution Factor	1
Vial#	88
Injection Volume	1
Injection Count	1
Bar Code	

[Original Files]
Data File	C:\Users\User\Desktop\GC Analyses\Jack\Nachusa Grasslands Sampling\T0 Timepoint July 12th\T0_07122022_089.gcd
Method File	C:\LabSolutions\Data\GHG_4min_2022\ghg3_togas_w_acet_4 min_new_int.gcm
Batch File	C:\LabSolutions\Data\AutoSamplerTesting\T0_07122022.gcb
Report Format File	c:\LabSolutions\System\DEFAULT.lsr

[File Description]


[Configuration]
Instrument Name	C0B7VH3-Instrument1
Instrument #	1
Line #	1
# of Detectors	3
Detector ID	DET#1	DET#2	DET#3
Detector Name	FID	PTCD	ECD
# of Channels	1	1	1

[Peak Table(Ch1)]
# of Peaks	3
Peak#	R.Time	I.Time	F.Time	Area	Height	A/H	Conc.	Mark	ID#	Name	k'	Plate #	Plate Ht.	Tailing	Resolution	Sep.Factor	Area Ratio	Height Ratio	Conc. %	Norm Conc.
1	1.483	1.435	1.531	2669	747	3.574	18.846	   	1	CO	0.000	4344	34.528	0.000	0.000	0.000	0	0	2.077	2.077
2	1.567	1.531	1.641	19525	9776	1.997	377.535	 V 	2	CH4	0.057	11202	13.390	1.239	1.130	0.000	0	0	41.617	41.617
3	1.996	1.949	2.565	2035178	958508	2.123	510.775	   	3	CO2	0.346	16979	8.835	1.276	7.119	6.087	0	0	56.305	56.305

[Peak Table(Ch2)]
# of Peaks	0

[Peak Table(Ch3)]
# of Peaks	5
Peak#	R.Time	I.Time	F.Time	Area	Height	A/H	Conc.	Mark	ID#	Name	k'	Plate #	Plate Ht.	Tailing	Resolution	Sep.Factor	Area Ratio	Height Ratio	Conc. %	Norm Conc.
1	2.458	2.257	2.517	2428	499	4.868	0.000	   			0.000	7561	19.838	0.000	0.000	0.000	0	0	0.000	0.000
2	2.546	2.517	2.631	1076	235	4.573	0.000	 V 			0.036	3300	45.453	0.000	0.606	0.000	0	0	0.000	0.000
3	2.700	2.645	2.704	294	129	2.284	0.000	   			0.098	2475	60.598	0.000	0.781	2.750	0	0	0.000	0.000
4	2.873	2.704	3.129	58827	14483	4.062	1.503	 V 	1	N2O	0.169	12462	12.037	1.650	1.077	1.712	0	0	100.000	100.000
5	3.214	3.133	3.786	13285	604	22.001	0.000	   	2	SF6	0.307	625	239.950	3.979	1.105	1.823	0	0	0.000	0.000

[Compound Results(Ch1)]
# of IDs	6
ID#	Name	R.Time	Area	Height	Conc.	Curve	3rd	2nd	1st	Constant	Area Ratio	Height Ratio	Conc. %	Norm Conc.
1	CO	1.483	2669	747	18.846	Linear	0.000000e+00	0.000000e+00	1.416423e+002	0.000000e+00	0	0	2.077	2.077
2	CH4	1.567	19525	9776	377.535	Linear	0.000000e+00	0.000000e+00	5.171738e+001	0.000000e+00	0	0	41.617	41.617
3	CO2	1.996	2035178	958508	510.775	Linear	0.000000e+00	0.000000e+00	3.984494e+003	0.000000e+00	0	0	56.305	56.305
4	Ethylene	0.000	0	0	0.000	Linear	0.000000e+00	0.000000e+00	0.000000e+00	0.000000e+00	0	0	0.000	0.000
5	Acetylene	0.000	0	0	0.000	Linear	0.000000e+00	0.000000e+00	0.000000e+00	0.000000e+00	0	0	0.000	0.000
6	Ethane	0.000	0	0	0.000	Linear	0.000000e+00	0.000000e+00	0.000000e+00	0.000000e+00	0	0	0.000	0.000

[Compound Results(Ch2)]
# of IDs	5
ID#	Name	R.Time	Area	Height	Conc.	Curve	3rd	2nd	1st	Constant	Area Ratio	Height Ratio	Conc. %	Norm Conc.
1	Hydrogen	0.000	0	0	0.000	Linear	0.000000e+00	0.000000e+00	0.000000e+00	0.000000e+00	0	0	0.000	0.000
2	Oxygen	0.000	0	0	0.000	Linear	0.000000e+00	0.000000e+00	0.000000e+00	0.000000e+00	0	0	0.000	0.000
3	Nitrogen	0.000	0	0	0.000	Linear	0.000000e+00	0.000000e+00	0.000000e+00	0.000000e+00	0	0	0.000	0.000
4	Methane	0.000	0	0	0.000	Linear	0.000000e+00	0.000000e+00	0.000000e+00	0.000000e+00	0	0	0.000	0.000
5	Carbon Monoxide	0.000	0	0	0.000	Linear	0.000000e+00	0.000000e+00	0.000000e+00	0.000000e+00	0	0	0.000	0.000

[Compound Results(Ch3)]
# of IDs	2
ID#	Name	R.Time	Area	Height	Conc.	Curve	3rd	2nd	1st	Constant	Area Ratio	Height Ratio	Conc. %	Norm Conc.
1	N2O	2.873	58827	14483	1.503	Linear	0.000000e+00	0.000000e+00	3.915173e+004	0.000000e+00	0	0	100.000	100.000
2	SF6	3.214	13285	604	0.000	Linear	0.000000e+00	0.000000e+00	0.000000e+00	0.000000e+00	0	0	0.000	0.000

[Group Results(Ch1)]
# of Groups	0

[Group Results(Ch2)]
# of Groups	0

[Group Results(Ch3)]
# of Groups	0

[Chromatogram (Ch1)]
Interval(msec)	220
# of Points	1091
Start Time(min)	0.002
End Time(min)	3.998
R.Time (min)	Intensity
0.00167	1
0.00533	1
0.00900	4
0.01267	11
0.01633	16
0.02000	20
0.02367	21
0.02733	21
0.03100	21
0.03467	21
0.03833	22
0.04200	22
0.04567	21
0.04933	19
0.05300	20
0.05667	23
0.06033	26
0.06400	26
0.06767	23
0.07133	24
0.07500	27
0.07867	27
0.08233	23
0.08600	17
0.08967	13
0.09333	13
0.09700	16
0.10067	21
0.10433	25
0.10800	25
0.11167	24
0.11533	26
0.11900	29
0.12267	28
0.12633	26
0.13000	23
0.13367	21
0.13733	22
0.14100	26
0.14467	30
0.14833	32
0.15200	31
0.15567	31
0.15933	30
0.16300	29
0.16667	29
0.17033	29
0.17400	26
0.17767	21
0.18133	21
0.18500	27
0.18867	36
0.19233	43
0.19600	45
0.19967	44
0.20333	41
0.20700	41
0.21067	43
0.21433	47
0.21800	48
0.22167	48
0.22533	48
0.22900	49
0.23267	47
0.23633	46
0.24000	47
0.24367	53
0.24733	63
0.25100	77
0.25467	88
0.25833	95
0.26200	101
0.26567	107
0.26933	113
0.27300	115
0.27667	114
0.28033	112
0.28400	112
0.28767	113
0.29133	115
0.29500	118
0.29867	123
0.30233	129
0.30600	138
0.30967	145
0.31333	149
0.31700	149
0.32067	150
0.32433	150
0.32800	146
0.33167	143
0.33533	141
0.33900	138
0.34267	135
0.34633	128
0.35000	121
0.35367	113
0.35733	104
0.36100	97
0.36467	93
0.36833	91
0.37200	86
0.37567	80
0.37933	71
0.38300	62
0.38667	57
0.39033	56
0.39400	56
0.39767	55
0.40133	51
0.40500	46
0.40867	43
0.41233	45
0.41600	46
0.41967	44
0.42333	41
0.42700	41
0.43067	42
0.43433	40
0.43800	35
0.44167	27
0.44533	23
0.44900	27
0.45267	35
0.45633	40
0.46000	40
0.46367	41
0.46733	41
0.47100	41
0.47467	43
0.47833	44
0.48200	42
0.48567	36
0.48933	28
0.49300	22
0.49667	19
0.50033	19
0.50400	21
0.50767	24
0.51133	25
0.51500	24
0.51867	23
0.52233	21
0.52600	21
0.52967	21
0.53333	19
0.53700	19
0.54067	20
0.54433	21
0.54800	23
0.55167	26
0.55533	28
0.55900	26
0.56267	22
0.56633	23
0.57000	25
0.57367	27
0.57733	31
0.58100	39
0.58467	47
0.58833	51
0.59200	48
0.59567	42
0.59933	33
0.60300	21
0.60667	10
0.61033	4
0.61400	3
0.61767	7
0.62133	10
0.62500	11
0.62867	12
0.63233	17
0.63600	24
0.63967	30
0.64333	34
0.64700	38
0.65067	41
0.65433	41
0.65800	38
0.66167	32
0.66533	26
0.66900	23
0.67267	22
0.67633	26
0.68000	32
0.68367	37
0.68733	38
0.69100	35
0.69467	31
0.69833	29
0.70200	30
0.70567	32
0.70933	34
0.71300	35
0.71667	34
0.72033	27
0.72400	19
0.72767	14
0.73133	13
0.73500	13
0.73867	13
0.74233	15
0.74600	17
0.74967	22
0.75333	29
0.75700	34
0.76067	37
0.76433	39
0.76800	40
0.77167	41
0.77533	43
0.77900	45
0.78267	44
0.78633	35
0.79000	21
0.79367	8
0.79733	0
0.80100	-5
0.80467	-8
0.80833	-3
0.81200	4
0.81567	11
0.81933	20
0.82300	31
0.82667	41
0.83033	45
0.83400	41
0.83767	34
0.84133	22
0.84500	11
0.84867	4
0.85233	1
0.85600	4
0.85967	8
0.86333	12
0.86700	11
0.87067	9
0.87433	6
0.87800	4
0.88167	1
0.88533	-2
0.88900	-1
0.89267	1
0.89633	4
0.90000	8
0.90367	11
0.90733	14
0.91100	13
0.91467	10
0.91833	11
0.92200	14
0.92567	14
0.92933	12
0.93300	11
0.93667	11
0.94033	12
0.94400	13
0.94767	11
0.95133	8
0.95500	2
0.95867	1
0.96233	5
0.96600	11
0.96967	17
0.97333	19
0.97700	21
0.98067	21
0.98433	20
0.98800	21
0.99167	24
0.99533	25
0.99900	23
1.00267	23
1.00633	23
1.01000	23
1.01367	27
1.01733	31
1.02100	34
1.02467	33
1.02833	28
1.03200	23
1.03567	20
1.03933	20
1.04300	19
1.04667	15
1.05033	12
1.05400	8
1.05767	6
1.06133	9
1.06500	13
1.06867	17
1.07233	20
1.07600	21
1.07967	21
1.08333	18
1.08700	14
1.09067	12
1.09433	8
1.09800	9
1.10167	10
1.10533	12
1.10900	14
1.11267	19
1.11633	28
1.12000	38
1.12367	42
1.12733	41
1.13100	40
1.13467	42
1.13833	46
1.14200	50
1.14567	53
1.14933	54
1.15300	51
1.15667	43
1.16033	38
1.16400	39
1.16767	45
1.17133	55
1.17500	60
1.17867	59
1.18233	56
1.18600	51
1.18967	46
1.19333	38
1.19700	32
1.20067	29
1.20433	30
1.20800	33
1.21167	38
1.21533	46
1.21900	52
1.22267	53
1.22633	54
1.23000	56
1.23367	59
1.23733	61
1.24100	62
1.24467	63
1.24833	64
1.25200	63
1.25567	62
1.25933	58
1.26300	53
1.26667	50
1.27033	51
1.27400	52
1.27767	50
1.28133	45
1.28500	41
1.28867	40
1.29233	46
1.29600	55
1.29967	64
1.30333	69
1.30700	67
1.31067	62
1.31433	56
1.31800	52
1.32167	51
1.32533	52
1.32900	56
1.33267	61
1.33633	65
1.34000	67
1.34367	64
1.34733	61
1.35100	58
1.35467	57
1.35833	55
1.36200	50
1.36567	44
1.36933	42
1.37300	40
1.37667	38
1.38033	36
1.38400	35
1.38767	37
1.39133	39
1.39500	39
1.39867	40
1.40233	41
1.40600	41
1.40967	43
1.41333	47
1.41700	50
1.42067	49
1.42433	46
1.42800	42
1.43167	39
1.43533	44
1.43900	79
1.44267	192
1.44633	382
1.45000	564
1.45367	681
1.45733	738
1.46100	755
1.46467	748
1.46833	738
1.47200	740
1.47567	757
1.47933	782
1.48300	797
1.48667	785
1.49033	740
1.49400	673
1.49767	593
1.50133	514
1.50500	444
1.50867	384
1.51233	331
1.51600	286
1.51967	247
1.52333	210
1.52700	180
1.53067	158
1.53433	155
1.53800	230
1.54167	568
1.54533	1443
1.54900	2949
1.55267	4828
1.55633	6669
1.56000	8197
1.56367	9286
1.56733	9837
1.57100	9728
1.57467	8902
1.57833	7521
1.58200	5911
1.58567	4385
1.58933	3116
1.59300	2150
1.59667	1454
1.60033	973
1.60400	649
1.60767	436
1.61133	300
1.61500	211
1.61867	157
1.62233	126
1.62600	108
1.62967	96
1.63333	86
1.63700	76
1.64067	71
1.64433	71
1.64800	73
1.65167	76
1.65533	77
1.65900	77
1.66267	75
1.66633	74
1.67000	73
1.67367	69
1.67733	62
1.68100	57
1.68467	56
1.68833	60
1.69200	62
1.69567	58
1.69933	50
1.70300	44
1.70667	41
1.71033	40
1.71400	41
1.71767	42
1.72133	45
1.72500	51
1.72867	56
1.73233	57
1.73600	56
1.73967	55
1.74333	54
1.74700	52
1.75067	52
1.75433	52
1.75800	53
1.76167	55
1.76533	57
1.76900	59
1.77267	59
1.77633	58
1.78000	57
1.78367	56
1.78733	54
1.79100	53
1.79467	50
1.79833	49
1.80200	49
1.80567	46
1.80933	42
1.81300	42
1.81667	44
1.82033	44
1.82400	46
1.82767	48
1.83133	48
1.83500	51
1.83867	55
1.84233	60
1.84600	64
1.84967	65
1.85333	63
1.85700	62
1.86067	60
1.86433	56
1.86800	53
1.87167	52
1.87533	51
1.87900	52
1.88267	55
1.88633	61
1.89000	68
1.89367	73
1.89733	74
1.90100	74
1.90467	75
1.90833	77
1.91200	80
1.91567	82
1.91933	82
1.92300	82
1.92667	81
1.93033	80
1.93400	81
1.93767	85
1.94133	89
1.94500	91
1.94867	94
1.95233	126
1.95600	348
1.95967	1594
1.96333	7023
1.96700	25000
1.97067	70775
1.97433	161170
1.97800	301368
1.98167	476183
1.98533	655997
1.98900	810202
1.99267	915782
1.99633	958643
2.00000	934712
2.00367	851710
2.00733	727800
2.01100	586513
2.01467	449511
2.01833	331136
2.02200	237175
2.02567	167044
2.02933	116909
2.03300	82093
2.03667	58339
2.04033	42271
2.04400	31416
2.04767	24038
2.05133	18960
2.05500	15406
2.05867	12861
2.06233	10989
2.06600	9575
2.06967	8482
2.07333	7621
2.07700	6927
2.08067	6353
2.08433	5871
2.08800	5457
2.09167	5096
2.09533	4780
2.09900	4500
2.10267	4250
2.10633	4031
2.11000	3838
2.11367	3663
2.11733	3502
2.12100	3351
2.12467	3207
2.12833	3069
2.13200	2942
2.13567	2828
2.13933	2720
2.14300	2620
2.14667	2532
2.15033	2454
2.15400	2381
2.15767	2311
2.16133	2241
2.16500	2173
2.16867	2106
2.17233	2044
2.17600	1987
2.17967	1934
2.18333	1883
2.18700	1837
2.19067	1793
2.19433	1750
2.19800	1708
2.20167	1666
2.20533	1627
2.20900	1595
2.21267	1565
2.21633	1534
2.22000	1503
2.22367	1474
2.22733	1446
2.23100	1419
2.23467	1390
2.23833	1358
2.24200	1328
2.24567	1300
2.24933	1274
2.25300	1251
2.25667	1229
2.26033	1207
2.26400	1190
2.26767	1174
2.27133	1162
2.27500	1150
2.27867	1135
2.28233	1118
2.28600	1100
2.28967	1084
2.29333	1071
2.29700	1059
2.30067	1049
2.30433	1044
2.30800	1040
2.31167	1032
2.31533	1017
2.31900	997
2.32267	981
2.32633	966
2.33000	949
2.33367	930
2.33733	913
2.34100	899
2.34467	892
2.34833	890
2.35200	891
2.35567	887
2.35933	879
2.36300	866
2.36667	854
2.37033	843
2.37400	831
2.37767	821
2.38133	815
2.38500	812
2.38867	809
2.39233	801
2.39600	795
2.39967	792
2.40333	793
2.40700	795
2.41067	791
2.41433	783
2.41800	773
2.42167	765
2.42533	759
2.42900	757
2.43267	758
2.43633	756
2.44000	752
2.44367	745
2.44733	736
2.45100	728
2.45467	721
2.45833	715
2.46200	712
2.46567	709
2.46933	707
2.47300	709
2.47667	709
2.48033	706
2.48400	702
2.48767	697
2.49133	688
2.49500	678
2.49867	668
2.50233	660
2.50600	655
2.50967	654
2.51333	660
2.51700	664
2.52067	664
2.52433	661
2.52800	658
2.53167	655
2.53533	650
2.53900	642
2.54267	635
2.54633	629
2.55000	628
2.55367	630
2.55733	630
2.56100	627
2.56467	620
2.56833	614
2.57200	611
2.57567	610
2.57933	615
2.58300	624
2.58667	633
2.59033	638
2.59400	638
2.59767	634
2.60133	629
2.60500	627
2.60867	627
2.61233	621
2.61600	613
2.61967	608
2.62333	607
2.62700	607
2.63067	604
2.63433	599
2.63800	591
2.64167	581
2.64533	572
2.64900	565
2.65267	559
2.65633	558
2.66000	559
2.66367	560
2.66733	562
2.67100	566
2.67467	570
2.67833	576
2.68200	581
2.68567	585
2.68933	581
2.69300	576
2.69667	575
2.70033	578
2.70400	582
2.70767	587
2.71133	592
2.71500	593
2.71867	592
2.72233	590
2.72600	585
2.72967	584
2.73333	587
2.73700	592
2.74067	591
2.74433	588
2.74800	584
2.75167	579
2.75533	576
2.75900	577
2.76267	581
2.76633	584
2.77000	584
2.77367	582
2.77733	581
2.78100	578
2.78467	572
2.78833	568
2.79200	569
2.79567	574
2.79933	579
2.80300	580
2.80667	578
2.81033	575
2.81400	571
2.81767	570
2.82133	574
2.82500	576
2.82867	570
2.83233	561
2.83600	554
2.83967	555
2.84333	565
2.84700	578
2.85067	584
2.85433	580
2.85800	574
2.86167	566
2.86533	557
2.86900	550
2.87267	546
2.87633	545
2.88000	542
2.88367	540
2.88733	539
2.89100	540
2.89467	541
2.89833	543
2.90200	546
2.90567	551
2.90933	558
2.91300	564
2.91667	568
2.92033	573
2.92400	575
2.92767	574
2.93133	571
2.93500	568
2.93867	564
2.94233	564
2.94600	563
2.94967	562
2.95333	560
2.95700	559
2.96067	557
2.96433	557
2.96800	562
2.97167	568
2.97533	569
2.97900	568
2.98267	565
2.98633	564
2.99000	568
2.99367	573
2.99733	579
3.00100	579
3.00467	579
3.00833	583
3.01200	586
3.01567	590
3.01933	591
3.02300	586
3.02667	580
3.03033	577
3.03400	575
3.03767	570
3.04133	558
3.04500	545
3.04867	537
3.05233	530
3.05600	525
3.05967	521
3.06333	519
3.06700	514
3.07067	510
3.07433	510
3.07800	515
3.08167	522
3.08533	531
3.08900	541
3.09267	547
3.09633	549
3.10000	549
3.10367	548
3.10733	548
3.11100	552
3.11467	554
3.11833	555
3.12200	554
3.12567	554
3.12933	555
3.13300	557
3.13667	559
3.14033	561
3.14400	559
3.14767	557
3.15133	554
3.15500	547
3.15867	541
3.16233	536
3.16600	534
3.16967	534
3.17333	535
3.17700	532
3.18067	530
3.18433	528
3.18800	529
3.19167	531
3.19533	536
3.19900	541
3.20267	545
3.20633	544
3.21000	541
3.21367	539
3.21733	535
3.22100	529
3.22467	523
3.22833	520
3.23200	519
3.23567	518
3.23933	516
3.24300	513
3.24667	509
3.25033	507
3.25400	511
3.25767	522
3.26133	536
3.26500	548
3.26867	547
3.27233	536
3.27600	520
3.27967	508
3.28333	500
3.28700	494
3.29067	495
3.29433	497
3.29800	496
3.30167	495
3.30533	493
3.30900	492
3.31267	494
3.31633	498
3.32000	504
3.32367	510
3.32733	513
3.33100	509
3.33467	501
3.33833	492
3.34200	488
3.34567	491
3.34933	492
3.35300	492
3.35667	491
3.36033	489
3.36400	486
3.36767	483
3.37133	480
3.37500	477
3.37867	477
3.38233	482
3.38600	488
3.38967	491
3.39333	493
3.39700	492
3.40067	492
3.40433	491
3.40800	490
3.41167	488
3.41533	486
3.41900	486
3.42267	491
3.42633	498
3.43000	500
3.43367	499
3.43733	495
3.44100	488
3.44467	481
3.44833	478
3.45200	475
3.45567	470
3.45933	464
3.46300	459
3.46667	457
3.47033	460
3.47400	467
3.47767	474
3.48133	480
3.48500	481
3.48867	477
3.49233	474
3.49600	472
3.49967	472
3.50333	475
3.50700	482
3.51067	492
3.51433	499
3.51800	501
3.52167	498
3.52533	484
3.52900	469
3.53267	457
3.53633	443
3.54000	430
3.54367	423
3.54733	420
3.55100	418
3.55467	416
3.55833	419
3.56200	423
3.56567	426
3.56933	431
3.57300	439
3.57667	448
3.58033	457
3.58400	464
3.58767	465
3.59133	460
3.59500	453
3.59867	445
3.60233	440
3.60600	439
3.60967	440
3.61333	441
3.61700	443
3.62067	444
3.62433	441
3.62800	439
3.63167	436
3.63533	432
3.63900	432
3.64267	433
3.64633	435
3.65000	439
3.65367	441
3.65733	437
3.66100	430
3.66467	423
3.66833	418
3.67200	419
3.67567	419
3.67933	415
3.68300	413
3.68667	415
3.69033	419
3.69400	422
3.69767	421
3.70133	417
3.70500	415
3.70867	414
3.71233	414
3.71600	415
3.71967	417
3.72333	420
3.72700	421
3.73067	421
3.73433	420
3.73800	425
3.74167	432
3.74533	438
3.74900	442
3.75267	441
3.75633	434
3.76000	420
3.76367	404
3.76733	393
3.77100	389
3.77467	391
3.77833	395
3.78200	398
3.78567	403
3.78933	407
3.79300	408
3.79667	404
3.80033	399
3.80400	398
3.80767	401
3.81133	403
3.81500	402
3.81867	400
3.82233	394
3.82600	387
3.82967	386
3.83333	388
3.83700	391
3.84067	397
3.84433	401
3.84800	402
3.85167	398
3.85533	393
3.85900	392
3.86267	392
3.86633	393
3.87000	392
3.87367	392
3.87733	388
3.88100	381
3.88467	374
3.88833	373
3.89200	376
3.89567	381
3.89933	388
3.90300	391
3.90667	390
3.91033	389
3.91400	392
3.91767	399
3.92133	405
3.92500	402
3.92867	394
3.93233	391
3.93600	394
3.93967	401
3.94333	405
3.94700	403
3.95067	400
3.95433	395
3.95800	389
3.96167	385
3.96533	379
3.96900	369
3.97267	357
3.97633	345
3.98000	333
3.98367	325
3.98733	326
3.99100	333
3.99467	342
3.99833	348

[Chromatogram (Ch2)]
Interval(msec)	220
# of Points	1091
Start Time(min)	0.002
End Time(min)	3.998
R.Time (min)	Intensity
0.00167	1
0.00533	1
0.00900	1
0.01267	1
0.01633	1
0.02000	2
0.02367	2
0.02733	2
0.03100	3
0.03467	3
0.03833	3
0.04200	2
0.04567	2
0.04933	2
0.05300	1
0.05667	1
0.06033	1
0.06400	1
0.06767	1
0.07133	1
0.07500	1
0.07867	2
0.08233	2
0.08600	2
0.08967	2
0.09333	2
0.09700	3
0.10067	3
0.10433	3
0.10800	3
0.11167	3
0.11533	3
0.11900	3
0.12267	3
0.12633	3
0.13000	3
0.13367	3
0.13733	3
0.14100	3
0.14467	3
0.14833	3
0.15200	3
0.15567	3
0.15933	3
0.16300	3
0.16667	3
0.17033	3
0.17400	3
0.17767	3
0.18133	3
0.18500	3
0.18867	3
0.19233	3
0.19600	3
0.19967	4
0.20333	4
0.20700	4
0.21067	4
0.21433	4
0.21800	4
0.22167	4
0.22533	3
0.22900	3
0.23267	2
0.23633	2
0.24000	1
0.24367	0
0.24733	-0
0.25100	-0
0.25467	-0
0.25833	0
0.26200	0
0.26567	0
0.26933	0
0.27300	1
0.27667	1
0.28033	1
0.28400	1
0.28767	1
0.29133	1
0.29500	1
0.29867	2
0.30233	2
0.30600	2
0.30967	2
0.31333	2
0.31700	2
0.32067	2
0.32433	2
0.32800	2
0.33167	2
0.33533	2
0.33900	2
0.34267	2
0.34633	2
0.35000	2
0.35367	2
0.35733	2
0.36100	2
0.36467	1
0.36833	2
0.37200	2
0.37567	2
0.37933	3
0.38300	3
0.38667	4
0.39033	4
0.39400	4
0.39767	4
0.40133	4
0.40500	4
0.40867	4
0.41233	4
0.41600	3
0.41967	3
0.42333	2
0.42700	1
0.43067	1
0.43433	1
0.43800	0
0.44167	0
0.44533	1
0.44900	1
0.45267	1
0.45633	1
0.46000	2
0.46367	2
0.46733	2
0.47100	2
0.47467	2
0.47833	2
0.48200	3
0.48567	2
0.48933	2
0.49300	2
0.49667	2
0.50033	1
0.50400	1
0.50767	1
0.51133	1
0.51500	1
0.51867	1
0.52233	0
0.52600	0
0.52967	0
0.53333	0
0.53700	0
0.54067	0
0.54433	0
0.54800	-0
0.55167	-0
0.55533	-0
0.55900	-0
0.56267	-0
0.56633	0
0.57000	0
0.57367	-0
0.57733	-0
0.58100	-0
0.58467	-1
0.58833	-1
0.59200	-0
0.59567	-0
0.59933	-0
0.60300	0
0.60667	-0
0.61033	-0
0.61400	-0
0.61767	-1
0.62133	-1
0.62500	-1
0.62867	-1
0.63233	-2
0.63600	-2
0.63967	-2
0.64333	-2
0.64700	-2
0.65067	-2
0.65433	-2
0.65800	-1
0.66167	-1
0.66533	-1
0.66900	-1
0.67267	-1
0.67633	-1
0.68000	-0
0.68367	-0
0.68733	0
0.69100	0
0.69467	0
0.69833	0
0.70200	1
0.70567	1
0.70933	1
0.71300	1
0.71667	1
0.72033	1
0.72400	1
0.72767	1
0.73133	1
0.73500	1
0.73867	1
0.74233	0
0.74600	0
0.74967	0
0.75333	0
0.75700	0
0.76067	0
0.76433	0
0.76800	1
0.77167	1
0.77533	1
0.77900	1
0.78267	1
0.78633	2
0.79000	2
0.79367	2
0.79733	3
0.80100	3
0.80467	3
0.80833	3
0.81200	3
0.81567	2
0.81933	2
0.82300	2
0.82667	1
0.83033	0
0.83400	-0
0.83767	-0
0.84133	-0
0.84500	0
0.84867	0
0.85233	0
0.85600	0
0.85967	0
0.86333	1
0.86700	1
0.87067	1
0.87433	1
0.87800	2
0.88167	2
0.88533	2
0.88900	2
0.89267	2
0.89633	2
0.90000	2
0.90367	2
0.90733	1
0.91100	1
0.91467	1
0.91833	0
0.92200	-0
0.92567	-0
0.92933	-1
0.93300	-1
0.93667	-1
0.94033	-1
0.94400	-0
0.94767	-0
0.95133	0
0.95500	0
0.95867	1
0.96233	1
0.96600	1
0.96967	1
0.97333	2
0.97700	2
0.98067	2
0.98433	2
0.98800	2
0.99167	2
0.99533	2
0.99900	2
1.00267	2
1.00633	2
1.01000	2
1.01367	1
1.01733	1
1.02100	1
1.02467	1
1.02833	1
1.03200	1
1.03567	1
1.03933	1
1.04300	1
1.04667	1
1.05033	1
1.05400	1
1.05767	1
1.06133	1
1.06500	1
1.06867	1
1.07233	1
1.07600	1
1.07967	0
1.08333	0
1.08700	0
1.09067	-0
1.09433	-0
1.09800	-1
1.10167	-1
1.10533	-1
1.10900	-2
1.11267	-2
1.11633	-2
1.12000	-2
1.12367	-2
1.12733	-2
1.13100	-1
1.13467	-1
1.13833	-1
1.14200	-1
1.14567	-1
1.14933	-1
1.15300	-1
1.15667	-1
1.16033	-1
1.16400	-1
1.16767	-1
1.17133	-1
1.17500	-1
1.17867	-1
1.18233	-1
1.18600	-1
1.18967	-1
1.19333	-1
1.19700	-1
1.20067	-0
1.20433	-0
1.20800	0
1.21167	0
1.21533	1
1.21900	1
1.22267	1
1.22633	1
1.23000	2
1.23367	2
1.23733	2
1.24100	2
1.24467	2
1.24833	2
1.25200	2
1.25567	1
1.25933	1
1.26300	1
1.26667	0
1.27033	0
1.27400	0
1.27767	0
1.28133	0
1.28500	-0
1.28867	-0
1.29233	-1
1.29600	-1
1.29967	-1
1.30333	-0
1.30700	-0
1.31067	0
1.31433	0
1.31800	0
1.32167	1
1.32533	0
1.32900	0
1.33267	-0
1.33633	-0
1.34000	-1
1.34367	-1
1.34733	-1
1.35100	-1
1.35467	-1
1.35833	-0
1.36200	-0
1.36567	-0
1.36933	0
1.37300	0
1.37667	0
1.38033	1
1.38400	1
1.38767	1
1.39133	1
1.39500	1
1.39867	1
1.40233	0
1.40600	0
1.40967	0
1.41333	-0
1.41700	-0
1.42067	-1
1.42433	-1
1.42800	-1
1.43167	-1
1.43533	-1
1.43900	-1
1.44267	-1
1.44633	-1
1.45000	-0
1.45367	-0
1.45733	0
1.46100	1
1.46467	1
1.46833	1
1.47200	2
1.47567	2
1.47933	2
1.48300	2
1.48667	2
1.49033	2
1.49400	2
1.49767	2
1.50133	2
1.50500	2
1.50867	2
1.51233	1
1.51600	1
1.51967	1
1.52333	1
1.52700	1
1.53067	1
1.53433	1
1.53800	1
1.54167	1
1.54533	1
1.54900	1
1.55267	1
1.55633	0
1.56000	0
1.56367	0
1.56733	-0
1.57100	-0
1.57467	-1
1.57833	-1
1.58200	-2
1.58567	-3
1.58933	-3
1.59300	-4
1.59667	-4
1.60033	-5
1.60400	-6
1.60767	-7
1.61133	-8
1.61500	-9
1.61867	-11
1.62233	-13
1.62600	-15
1.62967	-18
1.63333	-21
1.63700	-24
1.64067	-27
1.64433	-31
1.64800	-35
1.65167	-38
1.65533	-42
1.65900	-46
1.66267	-50
1.66633	-55
1.67000	-60
1.67367	-65
1.67733	-71
1.68100	-76
1.68467	-81
1.68833	-86
1.69200	-91
1.69567	-94
1.69933	-98
1.70300	-101
1.70667	-103
1.71033	-105
1.71400	-106
1.71767	-107
1.72133	-107
1.72500	-107
1.72867	-107
1.73233	-107
1.73600	-107
1.73967	-107
1.74333	-107
1.74700	-107
1.75067	-108
1.75433	-109
1.75800	-111
1.76167	-112
1.76533	-113
1.76900	-114
1.77267	-115
1.77633	-116
1.78000	-117
1.78367	-117
1.78733	-117
1.79100	-117
1.79467	-117
1.79833	-117
1.80200	-117
1.80567	-117
1.80933	-117
1.81300	-117
1.81667	-117
1.82033	-117
1.82400	-117
1.82767	-117
1.83133	-117
1.83500	-117
1.83867	-116
1.84233	-116
1.84600	-116
1.84967	-116
1.85333	-116
1.85700	-116
1.86067	-117
1.86433	-117
1.86800	-117
1.87167	-117
1.87533	-116
1.87900	-116
1.88267	-116
1.88633	-116
1.89000	-116
1.89367	-117
1.89733	-117
1.90100	-117
1.90467	-116
1.90833	-116
1.91200	-115
1.91567	-115
1.91933	-115
1.92300	-114
1.92667	-114
1.93033	-113
1.93400	-113
1.93767	-113
1.94133	-113
1.94500	-112
1.94867	-111
1.95233	-111
1.95600	-110
1.95967	-110
1.96333	-110
1.96700	-110
1.97067	-110
1.97433	-110
1.97800	-109
1.98167	-109
1.98533	-109
1.98900	-108
1.99267	-108
1.99633	-108
2.00000	-108
2.00367	-108
2.00733	-108
2.01100	-108
2.01467	-108
2.01833	-108
2.02200	-108
2.02567	-107
2.02933	-107
2.03300	-106
2.03667	-106
2.04033	-106
2.04400	-107
2.04767	-107
2.05133	-107
2.05500	-107
2.05867	-106
2.06233	-105
2.06600	-105
2.06967	-105
2.07333	-104
2.07700	-104
2.08067	-103
2.08433	-103
2.08800	-102
2.09167	-102
2.09533	-101
2.09900	-101
2.10267	-101
2.10633	-101
2.11000	-100
2.11367	-100
2.11733	-100
2.12100	-100
2.12467	-100
2.12833	-100
2.13200	-100
2.13567	-99
2.13933	-98
2.14300	-98
2.14667	-98
2.15033	-98
2.15400	-97
2.15767	-97
2.16133	-97
2.16500	-96
2.16867	-96
2.17233	-95
2.17600	-95
2.17967	-94
2.18333	-93
2.18700	-92
2.19067	-92
2.19433	-92
2.19800	-91
2.20167	-91
2.20533	-91
2.20900	-91
2.21267	-91
2.21633	-91
2.22000	-91
2.22367	-91
2.22733	-91
2.23100	-91
2.23467	-91
2.23833	-91
2.24200	-90
2.24567	-90
2.24933	-89
2.25300	-89
2.25667	-88
2.26033	-88
2.26400	-88
2.26767	-88
2.27133	-88
2.27500	-87
2.27867	-86
2.28233	-85
2.28600	-85
2.28967	-84
2.29333	-85
2.29700	-85
2.30067	-86
2.30433	-87
2.30800	-87
2.31167	-87
2.31533	-87
2.31900	-86
2.32267	-85
2.32633	-84
2.33000	-83
2.33367	-81
2.33733	-80
2.34100	-79
2.34467	-78
2.34833	-78
2.35200	-77
2.35567	-76
2.35933	-76
2.36300	-75
2.36667	-73
2.37033	-71
2.37400	-69
2.37767	-66
2.38133	-63
2.38500	-59
2.38867	-55
2.39233	-51
2.39600	-47
2.39967	-43
2.40333	-39
2.40700	-35
2.41067	-31
2.41433	-28
2.41800	-25
2.42167	-22
2.42533	-20
2.42900	-18
2.43267	-16
2.43633	-15
2.44000	-13
2.44367	-11
2.44733	-9
2.45100	-7
2.45467	-5
2.45833	-4
2.46200	-3
2.46567	-2
2.46933	-1
2.47300	0
2.47667	1
2.48033	3
2.48400	4
2.48767	5
2.49133	6
2.49500	7
2.49867	7
2.50233	8
2.50600	8
2.50967	9
2.51333	10
2.51700	11
2.52067	12
2.52433	12
2.52800	13
2.53167	14
2.53533	15
2.53900	16
2.54267	16
2.54633	16
2.55000	16
2.55367	16
2.55733	16
2.56100	16
2.56467	16
2.56833	17
2.57200	17
2.57567	17
2.57933	17
2.58300	17
2.58667	17
2.59033	17
2.59400	17
2.59767	17
2.60133	17
2.60500	18
2.60867	19
2.61233	19
2.61600	20
2.61967	21
2.62333	22
2.62700	23
2.63067	23
2.63433	23
2.63800	23
2.64167	23
2.64533	23
2.64900	23
2.65267	23
2.65633	23
2.66000	24
2.66367	24
2.66733	25
2.67100	25
2.67467	25
2.67833	25
2.68200	24
2.68567	24
2.68933	23
2.69300	23
2.69667	23
2.70033	23
2.70400	23
2.70767	23
2.71133	23
2.71500	24
2.71867	24
2.72233	25
2.72600	25
2.72967	26
2.73333	27
2.73700	27
2.74067	28
2.74433	29
2.74800	29
2.75167	30
2.75533	30
2.75900	30
2.76267	30
2.76633	29
2.77000	28
2.77367	28
2.77733	27
2.78100	26
2.78467	25
2.78833	25
2.79200	24
2.79567	24
2.79933	24
2.80300	24
2.80667	24
2.81033	24
2.81400	24
2.81767	25
2.82133	25
2.82500	26
2.82867	26
2.83233	26
2.83600	25
2.83967	23
2.84333	20
2.84700	14
2.85067	4
2.85433	-9
2.85800	-27
2.86167	-49
2.86533	-77
2.86900	-109
2.87267	-147
2.87633	-191
2.88000	-239
2.88367	-292
2.88733	-349
2.89100	-411
2.89467	-477
2.89833	-546
2.90200	-618
2.90567	-692
2.90933	-769
2.91300	-849
2.91667	-930
2.92033	-1014
2.92400	-1099
2.92767	-1185
2.93133	-1274
2.93500	-1362
2.93867	-1441
2.94233	-1498
2.94600	-1522
2.94967	-1511
2.95333	-1466
2.95700	-1394
2.96067	-1302
2.96433	-1198
2.96800	-1089
2.97167	-978
2.97533	-872
2.97900	-771
2.98267	-677
2.98633	-591
2.99000	-514
2.99367	-445
2.99733	-384
3.00100	-331
3.00467	-284
3.00833	-243
3.01200	-207
3.01567	-176
3.01933	-149
3.02300	-126
3.02667	-107
3.03033	-90
3.03400	-75
3.03767	-62
3.04133	-52
3.04500	-42
3.04867	-34
3.05233	-27
3.05600	-22
3.05967	-16
3.06333	-12
3.06700	-9
3.07067	-6
3.07433	-3
3.07800	-1
3.08167	1
3.08533	3
3.08900	4
3.09267	5
3.09633	6
3.10000	7
3.10367	8
3.10733	9
3.11100	10
3.11467	11
3.11833	11
3.12200	12
3.12567	13
3.12933	14
3.13300	14
3.13667	15
3.14033	15
3.14400	16
3.14767	16
3.15133	17
3.15500	17
3.15867	18
3.16233	18
3.16600	18
3.16967	19
3.17333	19
3.17700	20
3.18067	20
3.18433	21
3.18800	21
3.19167	21
3.19533	21
3.19900	21
3.20267	21
3.20633	21
3.21000	21
3.21367	21
3.21733	21
3.22100	21
3.22467	22
3.22833	22
3.23200	22
3.23567	22
3.23933	21
3.24300	21
3.24667	21
3.25033	22
3.25400	22
3.25767	22
3.26133	22
3.26500	22
3.26867	22
3.27233	22
3.27600	22
3.27967	22
3.28333	22
3.28700	21
3.29067	21
3.29433	22
3.29800	22
3.30167	22
3.30533	23
3.30900	23
3.31267	23
3.31633	24
3.32000	24
3.32367	24
3.32733	25
3.33100	25
3.33467	26
3.33833	27
3.34200	27
3.34567	28
3.34933	28
3.35300	28
3.35667	28
3.36033	28
3.36400	28
3.36767	28
3.37133	28
3.37500	28
3.37867	28
3.38233	28
3.38600	28
3.38967	28
3.39333	28
3.39700	28
3.40067	28
3.40433	28
3.40800	28
3.41167	28
3.41533	28
3.41900	28
3.42267	28
3.42633	28
3.43000	29
3.43367	29
3.43733	29
3.44100	29
3.44467	29
3.44833	29
3.45200	29
3.45567	29
3.45933	29
3.46300	29
3.46667	29
3.47033	29
3.47400	29
3.47767	30
3.48133	30
3.48500	30
3.48867	30
3.49233	30
3.49600	30
3.49967	30
3.50333	30
3.50700	30
3.51067	30
3.51433	30
3.51800	30
3.52167	29
3.52533	29
3.52900	29
3.53267	29
3.53633	29
3.54000	29
3.54367	29
3.54733	29
3.55100	29
3.55467	29
3.55833	29
3.56200	29
3.56567	28
3.56933	28
3.57300	28
3.57667	28
3.58033	27
3.58400	27
3.58767	27
3.59133	27
3.59500	27
3.59867	27
3.60233	27
3.60600	27
3.60967	27
3.61333	27
3.61700	27
3.62067	27
3.62433	27
3.62800	28
3.63167	28
3.63533	28
3.63900	28
3.64267	28
3.64633	28
3.65000	28
3.65367	28
3.65733	28
3.66100	28
3.66467	28
3.66833	28
3.67200	29
3.67567	29
3.67933	29
3.68300	29
3.68667	29
3.69033	28
3.69400	28
3.69767	28
3.70133	28
3.70500	28
3.70867	28
3.71233	28
3.71600	28
3.71967	28
3.72333	27
3.72700	27
3.73067	27
3.73433	27
3.73800	27
3.74167	27
3.74533	27
3.74900	27
3.75267	26
3.75633	26
3.76000	26
3.76367	26
3.76733	26
3.77100	26
3.77467	25
3.77833	25
3.78200	25
3.78567	25
3.78933	26
3.79300	26
3.79667	26
3.80033	26
3.80400	26
3.80767	26
3.81133	26
3.81500	26
3.81867	26
3.82233	26
3.82600	26
3.82967	26
3.83333	26
3.83700	26
3.84067	26
3.84433	26
3.84800	26
3.85167	26
3.85533	26
3.85900	26
3.86267	26
3.86633	26
3.87000	26
3.87367	26
3.87733	26
3.88100	26
3.88467	26
3.88833	26
3.89200	26
3.89567	26
3.89933	26
3.90300	27
3.90667	27
3.91033	27
3.91400	27
3.91767	27
3.92133	27
3.92500	27
3.92867	27
3.93233	27
3.93600	27
3.93967	27
3.94333	28
3.94700	28
3.95067	28
3.95433	28
3.95800	28
3.96167	28
3.96533	28
3.96900	28
3.97267	29
3.97633	29
3.98000	29
3.98367	29
3.98733	29
3.99100	28
3.99467	28
3.99833	28

[Chromatogram (Ch3)]
Interval(msec)	220
# of Points	1091
Start Time(min)	0.002
End Time(min)	3.998
R.Time (min)	Intensity
0.00167	0
0.00533	3
0.00900	5
0.01267	6
0.01633	7
0.02000	9
0.02367	9
0.02733	8
0.03100	7
0.03467	5
0.03833	1
0.04200	-1
0.04567	-0
0.04933	0
0.05300	0
0.05667	2
0.06033	3
0.06400	3
0.06767	4
0.07133	5
0.07500	8
0.07867	9
0.08233	8
0.08600	9
0.08967	11
0.09333	13
0.09700	12
0.10067	11
0.10433	9
0.10800	6
0.11167	3
0.11533	3
0.11900	4
0.12267	4
0.12633	5
0.13000	5
0.13367	5
0.13733	5
0.14100	5
0.14467	6
0.14833	7
0.15200	8
0.15567	10
0.15933	9
0.16300	10
0.16667	11
0.17033	9
0.17400	8
0.17767	9
0.18133	9
0.18500	9
0.18867	12
0.19233	12
0.19600	12
0.19967	12
0.20333	13
0.20700	14
0.21067	12
0.21433	13
0.21800	14
0.22167	13
0.22533	12
0.22900	11
0.23267	11
0.23633	10
0.24000	9
0.24367	9
0.24733	10
0.25100	10
0.25467	8
0.25833	8
0.26200	9
0.26567	9
0.26933	10
0.27300	10
0.27667	11
0.28033	13
0.28400	13
0.28767	13
0.29133	10
0.29500	9
0.29867	11
0.30233	12
0.30600	13
0.30967	11
0.31333	9
0.31700	7
0.32067	9
0.32433	12
0.32800	12
0.33167	10
0.33533	9
0.33900	9
0.34267	8
0.34633	8
0.35000	11
0.35367	12
0.35733	12
0.36100	13
0.36467	12
0.36833	13
0.37200	13
0.37567	14
0.37933	14
0.38300	14
0.38667	15
0.39033	15
0.39400	15
0.39767	15
0.40133	15
0.40500	15
0.40867	15
0.41233	14
0.41600	11
0.41967	12
0.42333	14
0.42700	15
0.43067	15
0.43433	15
0.43800	13
0.44167	13
0.44533	13
0.44900	14
0.45267	15
0.45633	14
0.46000	13
0.46367	14
0.46733	15
0.47100	17
0.47467	18
0.47833	16
0.48200	17
0.48567	17
0.48933	15
0.49300	16
0.49667	17
0.50033	18
0.50400	17
0.50767	14
0.51133	14
0.51500	16
0.51867	16
0.52233	16
0.52600	13
0.52967	11
0.53333	11
0.53700	13
0.54067	15
0.54433	15
0.54800	16
0.55167	17
0.55533	18
0.55900	18
0.56267	17
0.56633	18
0.57000	18
0.57367	17
0.57733	16
0.58100	17
0.58467	16
0.58833	16
0.59200	18
0.59567	20
0.59933	20
0.60300	19
0.60667	18
0.61033	15
0.61400	17
0.61767	19
0.62133	21
0.62500	22
0.62867	22
0.63233	22
0.63600	22
0.63967	24
0.64333	24
0.64700	24
0.65067	25
0.65433	26
0.65800	26
0.66167	26
0.66533	28
0.66900	28
0.67267	28
0.67633	27
0.68000	25
0.68367	24
0.68733	23
0.69100	22
0.69467	21
0.69833	19
0.70200	17
0.70567	16
0.70933	17
0.71300	18
0.71667	21
0.72033	22
0.72400	23
0.72767	22
0.73133	22
0.73500	23
0.73867	26
0.74233	27
0.74600	28
0.74967	28
0.75333	28
0.75700	26
0.76067	26
0.76433	26
0.76800	24
0.77167	23
0.77533	23
0.77900	25
0.78267	24
0.78633	22
0.79000	22
0.79367	22
0.79733	24
0.80100	26
0.80467	27
0.80833	28
0.81200	27
0.81567	26
0.81933	24
0.82300	23
0.82667	25
0.83033	26
0.83400	26
0.83767	26
0.84133	26
0.84500	25
0.84867	25
0.85233	25
0.85600	26
0.85967	28
0.86333	27
0.86700	26
0.87067	28
0.87433	27
0.87800	25
0.88167	25
0.88533	27
0.88900	28
0.89267	29
0.89633	28
0.90000	26
0.90367	26
0.90733	26
0.91100	27
0.91467	29
0.91833	31
0.92200	31
0.92567	29
0.92933	27
0.93300	27
0.93667	27
0.94033	28
0.94400	29
0.94767	29
0.95133	30
0.95500	30
0.95867	30
0.96233	31
0.96600	31
0.96967	30
0.97333	29
0.97700	28
0.98067	28
0.98433	30
0.98800	31
0.99167	30
0.99533	29
0.99900	30
1.00267	30
1.00633	29
1.01000	27
1.01367	25
1.01733	27
1.02100	27
1.02467	28
1.02833	30
1.03200	31
1.03567	30
1.03933	32
1.04300	32
1.04667	31
1.05033	29
1.05400	26
1.05767	25
1.06133	30
1.06500	32
1.06867	33
1.07233	33
1.07600	33
1.07967	33
1.08333	33
1.08700	32
1.09067	31
1.09433	32
1.09800	35
1.10167	36
1.10533	36
1.10900	34
1.11267	33
1.11633	33
1.12000	32
1.12367	31
1.12733	31
1.13100	29
1.13467	28
1.13833	28
1.14200	27
1.14567	29
1.14933	32
1.15300	33
1.15667	35
1.16033	37
1.16400	36
1.16767	35
1.17133	33
1.17500	33
1.17867	34
1.18233	34
1.18600	33
1.18967	33
1.19333	36
1.19700	38
1.20067	37
1.20433	37
1.20800	37
1.21167	36
1.21533	38
1.21900	40
1.22267	42
1.22633	42
1.23000	41
1.23367	39
1.23733	38
1.24100	37
1.24467	37
1.24833	37
1.25200	36
1.25567	34
1.25933	34
1.26300	33
1.26667	33
1.27033	35
1.27400	37
1.27767	37
1.28133	37
1.28500	37
1.28867	37
1.29233	38
1.29600	39
1.29967	39
1.30333	40
1.30700	40
1.31067	38
1.31433	38
1.31800	39
1.32167	39
1.32533	38
1.32900	38
1.33267	38
1.33633	38
1.34000	38
1.34367	38
1.34733	37
1.35100	37
1.35467	38
1.35833	38
1.36200	37
1.36567	37
1.36933	38
1.37300	40
1.37667	40
1.38033	41
1.38400	41
1.38767	40
1.39133	40
1.39500	41
1.39867	42
1.40233	42
1.40600	43
1.40967	47
1.41333	48
1.41700	47
1.42067	45
1.42433	45
1.42800	44
1.43167	43
1.43533	40
1.43900	40
1.44267	40
1.44633	39
1.45000	39
1.45367	40
1.45733	41
1.46100	44
1.46467	44
1.46833	43
1.47200	43
1.47567	45
1.47933	45
1.48300	43
1.48667	43
1.49033	42
1.49400	41
1.49767	40
1.50133	41
1.50500	45
1.50867	47
1.51233	47
1.51600	47
1.51967	46
1.52333	47
1.52700	48
1.53067	47
1.53433	46
1.53800	46
1.54167	44
1.54533	43
1.54900	41
1.55267	41
1.55633	43
1.56000	46
1.56367	48
1.56733	47
1.57100	48
1.57467	47
1.57833	46
1.58200	45
1.58567	44
1.58933	45
1.59300	47
1.59667	47
1.60033	46
1.60400	48
1.60767	48
1.61133	48
1.61500	46
1.61867	46
1.62233	47
1.62600	48
1.62967	50
1.63333	53
1.63700	55
1.64067	55
1.64433	54
1.64800	53
1.65167	52
1.65533	53
1.65900	53
1.66267	53
1.66633	54
1.67000	54
1.67367	54
1.67733	56
1.68100	57
1.68467	58
1.68833	59
1.69200	60
1.69567	58
1.69933	57
1.70300	57
1.70667	57
1.71033	55
1.71400	55
1.71767	54
1.72133	55
1.72500	56
1.72867	56
1.73233	58
1.73600	60
1.73967	61
1.74333	61
1.74700	61
1.75067	62
1.75433	62
1.75800	64
1.76167	65
1.76533	65
1.76900	63
1.77267	63
1.77633	63
1.78000	65
1.78367	66
1.78733	65
1.79100	65
1.79467	64
1.79833	65
1.80200	65
1.80567	66
1.80933	65
1.81300	65
1.81667	66
1.82033	69
1.82400	72
1.82767	73
1.83133	73
1.83500	73
1.83867	73
1.84233	74
1.84600	73
1.84967	73
1.85333	72
1.85700	73
1.86067	74
1.86433	75
1.86800	77
1.87167	78
1.87533	78
1.87900	77
1.88267	76
1.88633	77
1.89000	76
1.89367	75
1.89733	73
1.90100	75
1.90467	78
1.90833	79
1.91200	79
1.91567	79
1.91933	80
1.92300	80
1.92667	81
1.93033	84
1.93400	86
1.93767	87
1.94133	86
1.94500	86
1.94867	87
1.95233	89
1.95600	91
1.95967	93
1.96333	92
1.96700	93
1.97067	94
1.97433	95
1.97800	94
1.98167	93
1.98533	91
1.98900	93
1.99267	96
1.99633	95
2.00000	96
2.00367	97
2.00733	98
2.01100	101
2.01467	102
2.01833	102
2.02200	103
2.02567	103
2.02933	104
2.03300	104
2.03667	104
2.04033	105
2.04400	105
2.04767	104
2.05133	106
2.05500	110
2.05867	113
2.06233	113
2.06600	113
2.06967	112
2.07333	111
2.07700	113
2.08067	113
2.08433	113
2.08800	112
2.09167	114
2.09533	116
2.09900	120
2.10267	121
2.10633	121
2.11000	122
2.11367	124
2.11733	127
2.12100	129
2.12467	128
2.12833	128
2.13200	128
2.13567	129
2.13933	131
2.14300	132
2.14667	134
2.15033	133
2.15400	133
2.15767	132
2.16133	133
2.16500	133
2.16867	134
2.17233	134
2.17600	136
2.17967	140
2.18333	142
2.18700	144
2.19067	146
2.19433	150
2.19800	154
2.20167	154
2.20533	152
2.20900	151
2.21267	152
2.21633	155
2.22000	156
2.22367	158
2.22733	161
2.23100	163
2.23467	166
2.23833	167
2.24200	167
2.24567	167
2.24933	169
2.25300	173
2.25667	175
2.26033	174
2.26400	174
2.26767	176
2.27133	175
2.27500	174
2.27867	174
2.28233	175
2.28600	178
2.28967	182
2.29333	186
2.29700	187
2.30067	188
2.30433	189
2.30800	189
2.31167	190
2.31533	193
2.31900	196
2.32267	199
2.32633	200
2.33000	199
2.33367	200
2.33733	203
2.34100	205
2.34467	206
2.34833	208
2.35200	210
2.35567	213
2.35933	214
2.36300	214
2.36667	215
2.37033	216
2.37400	216
2.37767	218
2.38133	218
2.38500	218
2.38867	219
2.39233	220
2.39600	221
2.39967	225
2.40333	229
2.40700	231
2.41067	232
2.41433	236
2.41800	240
2.42167	241
2.42533	241
2.42900	243
2.43267	246
2.43633	251
2.44000	256
2.44367	285
2.44733	363
2.45100	449
2.45467	517
2.45833	551
2.46200	535
2.46567	493
2.46933	451
2.47300	417
2.47667	390
2.48033	373
2.48400	356
2.48767	336
2.49133	311
2.49500	283
2.49867	256
2.50233	235
2.50600	219
2.50967	205
2.51333	195
2.51700	191
2.52067	192
2.52433	198
2.52800	205
2.53167	213
2.53533	223
2.53900	231
2.54267	235
2.54633	233
2.55000	228
2.55367	220
2.55733	208
2.56100	193
2.56467	179
2.56833	166
2.57200	156
2.57567	147
2.57933	140
2.58300	135
2.58667	132
2.59033	129
2.59400	125
2.59767	117
2.60133	103
2.60500	85
2.60867	66
2.61233	45
2.61600	20
2.61967	-4
2.62333	-27
2.62700	-43
2.63067	-53
2.63433	-60
2.63800	-64
2.64167	-62
2.64533	-57
2.64900	-48
2.65267	-36
2.65633	-23
2.66000	-9
2.66367	4
2.66733	18
2.67100	29
2.67467	39
2.67833	46
2.68200	51
2.68567	56
2.68933	61
2.69300	65
2.69667	68
2.70033	68
2.70400	64
2.70767	61
2.71133	62
2.71500	62
2.71867	64
2.72233	64
2.72600	64
2.72967	65
2.73333	67
2.73700	70
2.74067	72
2.74433	72
2.74800	73
2.75167	74
2.75533	78
2.75900	81
2.76267	82
2.76633	82
2.77000	82
2.77367	84
2.77733	83
2.78100	82
2.78467	83
2.78833	84
2.79200	84
2.79567	86
2.79933	87
2.80300	86
2.80667	85
2.81033	90
2.81400	102
2.81767	135
2.82133	214
2.82500	376
2.82867	684
2.83233	1197
2.83600	1968
2.83967	3032
2.84333	4386
2.84700	5972
2.85067	7697
2.85433	9439
2.85800	11071
2.86167	12465
2.86533	13517
2.86900	14168
2.87267	14409
2.87633	14269
2.88000	13805
2.88367	13098
2.88733	12222
2.89100	11250
2.89467	10242
2.89833	9241
2.90200	8277
2.90567	7370
2.90933	6533
2.91300	5770
2.91667	5082
2.92033	4464
2.92400	3915
2.92767	3429
2.93133	2997
2.93500	2619
2.93867	2292
2.94233	2001
2.94600	1747
2.94967	1529
2.95333	1340
2.95700	1176
2.96067	1033
2.96433	909
2.96800	801
2.97167	709
2.97533	628
2.97900	555
2.98267	491
2.98633	437
2.99000	392
2.99367	354
2.99733	320
3.00100	292
3.00467	270
3.00833	251
3.01200	232
3.01567	213
3.01933	197
3.02300	181
3.02667	168
3.03033	157
3.03400	148
3.03767	141
3.04133	135
3.04500	129
3.04867	121
3.05233	115
3.05600	109
3.05967	104
3.06333	98
3.06700	94
3.07067	91
3.07433	88
3.07800	83
3.08167	79
3.08533	78
3.08900	77
3.09267	76
3.09633	73
3.10000	73
3.10367	72
3.10733	71
3.11100	68
3.11467	65
3.11833	41
3.12200	-14
3.12567	-67
3.12933	-93
3.13300	-83
3.13667	-47
3.14033	1
3.14400	57
3.14767	113
3.15133	169
3.15500	225
3.15867	275
3.16233	320
3.16600	361
3.16967	396
3.17333	430
3.17700	459
3.18067	482
3.18433	500
3.18800	519
3.19167	535
3.19533	548
3.19900	558
3.20267	567
3.20633	574
3.21000	580
3.21367	583
3.21733	585
3.22100	585
3.22467	584
3.22833	588
3.23200	591
3.23567	592
3.23933	592
3.24300	592
3.24667	592
3.25033	591
3.25400	591
3.25767	591
3.26133	589
3.26500	591
3.26867	594
3.27233	599
3.27600	604
3.27967	609
3.28333	612
3.28700	614
3.29067	615
3.29433	617
3.29800	618
3.30167	620
3.30533	625
3.30900	630
3.31267	635
3.31633	639
3.32000	642
3.32367	644
3.32733	647
3.33100	652
3.33467	654
3.33833	656
3.34200	658
3.34567	660
3.34933	662
3.35300	663
3.35667	660
3.36033	658
3.36400	657
3.36767	655
3.37133	653
3.37500	651
3.37867	651
3.38233	650
3.38600	646
3.38967	645
3.39333	643
3.39700	638
3.40067	632
3.40433	628
3.40800	624
3.41167	619
3.41533	615
3.41900	610
3.42267	603
3.42633	596
3.43000	590
3.43367	583
3.43733	578
3.44100	577
3.44467	574
3.44833	569
3.45200	565
3.45567	560
3.45933	555
3.46300	549
3.46667	544
3.47033	542
3.47400	538
3.47767	535
3.48133	531
3.48500	529
3.48867	527
3.49233	525
3.49600	523
3.49967	522
3.50333	520
3.50700	517
3.51067	515
3.51433	512
3.51800	508
3.52167	507
3.52533	507
3.52900	506
3.53267	506
3.53633	502
3.54000	497
3.54367	495
3.54733	492
3.55100	489
3.55467	488
3.55833	486
3.56200	483
3.56567	481
3.56933	481
3.57300	483
3.57667	483
3.58033	480
3.58400	478
3.58767	477
3.59133	474
3.59500	469
3.59867	465
3.60233	462
3.60600	460
3.60967	458
3.61333	457
3.61700	457
3.62067	456
3.62433	452
3.62800	449
3.63167	448
3.63533	449
3.63900	449
3.64267	450
3.64633	449
3.65000	447
3.65367	445
3.65733	442
3.66100	438
3.66467	434
3.66833	430
3.67200	429
3.67567	430
3.67933	430
3.68300	430
3.68667	430
3.69033	430
3.69400	431
3.69767	431
3.70133	431
3.70500	431
3.70867	428
3.71233	427
3.71600	426
3.71967	424
3.72333	421
3.72700	420
3.73067	419
3.73433	420
3.73800	419
3.74167	422
3.74533	425
3.74900	426
3.75267	426
3.75633	426
3.76000	424
3.76367	422
3.76733	421
3.77100	422
3.77467	425
3.77833	425
3.78200	424
3.78567	422
3.78933	420
3.79300	420
3.79667	423
3.80033	425
3.80400	428
3.80767	429
3.81133	427
3.81500	426
3.81867	425
3.82233	424
3.82600	424
3.82967	423
3.83333	420
3.83700	419
3.84067	419
3.84433	419
3.84800	419
3.85167	417
3.85533	416
3.85900	416
3.86267	415
3.86633	416
3.87000	418
3.87367	417
3.87733	415
3.88100	414
3.88467	413
3.88833	411
3.89200	410
3.89567	409
3.89933	409
3.90300	410
3.90667	411
3.91033	414
3.91400	414
3.91767	412
3.92133	411
3.92500	407
3.92867	405
3.93233	404
3.93600	404
3.93967	403
3.94333	402
3.94700	402
3.95067	401
3.95433	399
3.95800	397
3.96167	396
3.96533	393
3.96900	392
3.97267	393
3.97633	392
3.98000	392
3.98367	393
3.98733	392
3.99100	390
3.99467	387
3.99833	384

[Status Trace (Column Oven Temperature)]
Interval(msec)	1000
# of Points	240
Start Time(min)	0.014
End Time(min)	3.997
Intensity Units	
Intensity Multiplier	1
R.Time (min)	Intensity
0.01385	35.06
0.03052	35.05
0.04718	35.05
0.06385	35.06
0.08052	35.05
0.09718	35.05
0.11385	35.04
0.13052	35.05
0.14718	35.04
0.16385	35.02
0.18052	35.02
0.19718	35.01
0.21385	35.00
0.23052	35.01
0.24718	35.01
0.26385	35.01
0.28052	35.01
0.29718	35.01
0.31385	35.01
0.33052	35.02
0.34718	35.02
0.36385	35.01
0.38052	35.00
0.39718	34.98
0.41385	34.99
0.43052	34.99
0.44718	34.99
0.46385	34.98
0.48052	34.98
0.49718	34.98
0.51385	34.98
0.53052	34.99
0.54718	34.99
0.56385	34.99
0.58052	35.01
0.59718	35.01
0.61385	35.02
0.63052	35.03
0.64718	35.04
0.66385	35.03
0.68052	35.03
0.69718	35.03
0.71385	35.02
0.73052	35.02
0.74718	35.02
0.76385	35.02
0.78052	35.01
0.79718	35.00
0.81385	35.00
0.83052	35.01
0.84718	35.01
0.86385	35.00
0.88052	35.00
0.89718	35.00
0.91385	35.00
0.93052	35.01
0.94718	35.01
0.96385	35.01
0.98052	35.00
0.99718	34.99
1.01385	34.99
1.03052	34.99
1.04718	34.99
1.06385	34.99
1.08052	35.00
1.09718	35.01
1.11385	35.02
1.13052	35.02
1.14718	35.02
1.16385	35.02
1.18052	35.03
1.19718	35.02
1.21385	35.02
1.23052	35.01
1.24718	35.00
1.26385	35.00
1.28052	34.99
1.29718	35.00
1.31385	35.00
1.33052	35.00
1.34718	35.01
1.36385	35.02
1.38052	35.01
1.39718	35.00
1.41385	35.01
1.43052	35.02
1.44718	35.01
1.46385	34.99
1.48052	34.99
1.49718	34.98
1.51385	34.99
1.53052	34.99
1.54718	34.99
1.56385	35.00
1.58052	35.01
1.59718	35.03
1.61385	35.11
1.63052	35.25
1.64718	35.45
1.66385	35.73
1.68052	36.10
1.69718	36.47
1.71385	36.81
1.73052	37.12
1.74718	37.45
1.76385	37.79
1.78052	38.12
1.79718	38.46
1.81385	38.79
1.83052	39.12
1.84718	39.45
1.86385	39.79
1.88052	40.12
1.89718	40.45
1.91385	40.77
1.93052	41.10
1.94718	41.41
1.96385	41.74
1.98052	42.05
1.99718	42.37
2.01385	42.71
2.03052	43.03
2.04718	43.37
2.06385	43.70
2.08052	44.03
2.09718	44.34
2.11385	44.67
2.13052	44.98
2.14718	45.31
2.16385	45.65
2.18052	45.96
2.19718	46.28
2.21385	46.61
2.23052	46.95
2.24718	47.28
2.26385	47.61
2.28052	47.93
2.29718	48.30
2.31385	48.65
2.33052	48.95
2.34718	49.25
2.36385	49.53
2.38052	49.67
2.39718	49.70
2.41385	49.69
2.43052	49.70
2.44718	49.69
2.46385	49.72
2.48052	49.73
2.49718	49.74
2.51385	49.75
2.53052	49.75
2.54718	49.77
2.56385	49.79
2.58052	49.81
2.59718	49.83
2.61385	49.83
2.63052	49.84
2.64718	49.85
2.66385	49.84
2.68052	49.86
2.69718	49.88
2.71385	49.88
2.73052	49.86
2.74718	49.84
2.76385	49.85
2.78052	49.89
2.79718	49.90
2.81385	49.90
2.83052	49.90
2.84718	49.89
2.86385	49.89
2.88052	49.90
2.89718	49.91
2.91385	49.92
2.93052	49.94
2.94718	49.96
2.96385	49.98
2.98052	50.00
2.99718	50.00
3.01385	50.01
3.03052	50.01
3.04718	50.02
3.06385	50.01
3.08052	50.02
3.09718	50.03
3.11385	50.03
3.13052	50.04
3.14718	50.04
3.16385	50.04
3.18052	50.03
3.19718	50.04
3.21385	50.05
3.23052	50.07
3.24718	50.08
3.26385	50.09
3.28052	50.10
3.29718	50.11
3.31385	50.11
3.33052	50.10
3.34718	50.08
3.36385	50.06
3.38052	50.06
3.39718	50.05
3.41385	50.05
3.43052	50.05
3.44718	50.04
3.46385	50.03
3.48052	50.02
3.49718	50.01
3.51385	50.00
3.53052	49.99
3.54718	50.00
3.56385	50.01
3.58052	50.01
3.59718	50.01
3.61385	50.01
3.63052	50.00
3.64718	50.01
3.66385	50.01
3.68052	50.02
3.69718	50.02
3.71385	50.02
3.73052	50.02
3.74718	50.02
3.76385	50.04
3.78052	50.04
3.79718	50.04
3.81385	50.05
3.83052	50.05
3.84718	50.07
3.86385	50.07
3.88052	50.07
3.89718	50.08
3.91385	50.07
3.93052	50.06
3.94718	50.06
3.96385	50.05
3.98052	50.05
3.99718	50.05

[Status Trace (Injection Unit Temperature)]
Interval(msec)	1000
# of Points	240
Start Time(min)	0.014
End Time(min)	3.997
Intensity Units	
Intensity Multiplier	1
R.Time (min)	Intensity
0.01385	99.98
0.03052	99.98
0.04718	99.98
0.06385	99.98
0.08052	99.99
0.09718	99.98
0.11385	99.98
0.13052	99.98
0.14718	99.99
0.16385	99.99
0.18052	99.99
0.19718	99.98
0.21385	99.99
0.23052	99.99
0.24718	99.99
0.26385	99.99
0.28052	99.98
0.29718	99.98
0.31385	99.99
0.33052	99.99
0.34718	99.98
0.36385	99.99
0.38052	99.99
0.39718	99.99
0.41385	99.98
0.43052	99.99
0.44718	99.98
0.46385	99.99
0.48052	99.99
0.49718	99.99
0.51385	99.99
0.53052	99.99
0.54718	99.98
0.56385	99.99
0.58052	99.99
0.59718	99.99
0.61385	99.99
0.63052	99.98
0.64718	99.98
0.66385	99.98
0.68052	99.98
0.69718	99.99
0.71385	99.98
0.73052	99.99
0.74718	99.99
0.76385	99.98
0.78052	99.98
0.79718	99.98
0.81385	99.98
0.83052	99.99
0.84718	99.98
0.86385	99.98
0.88052	99.98
0.89718	99.98
0.91385	99.98
0.93052	99.98
0.94718	99.98
0.96385	99.98
0.98052	99.98
0.99718	99.98
1.01385	99.98
1.03052	99.98
1.04718	99.98
1.06385	99.98
1.08052	99.99
1.09718	99.98
1.11385	99.98
1.13052	99.98
1.14718	99.98
1.16385	99.98
1.18052	99.98
1.19718	99.98
1.21385	99.98
1.23052	99.98
1.24718	99.98
1.26385	99.98
1.28052	99.98
1.29718	99.98
1.31385	99.98
1.33052	99.98
1.34718	99.98
1.36385	99.98
1.38052	99.99
1.39718	99.98
1.41385	99.98
1.43052	99.99
1.44718	99.99
1.46385	99.99
1.48052	99.99
1.49718	99.99
1.51385	99.99
1.53052	99.99
1.54718	99.99
1.56385	99.99
1.58052	99.99
1.59718	99.99
1.61385	99.99
1.63052	99.99
1.64718	99.99
1.66385	99.99
1.68052	99.99
1.69718	99.99
1.71385	99.99
1.73052	99.99
1.74718	99.99
1.76385	99.99
1.78052	99.98
1.79718	99.99
1.81385	99.98
1.83052	99.98
1.84718	99.99
1.86385	99.98
1.88052	99.98
1.89718	99.97
1.91385	99.98
1.93052	99.98
1.94718	99.98
1.96385	99.98
1.98052	99.97
1.99718	99.98
2.01385	99.97
2.03052	99.97
2.04718	99.97
2.06385	99.97
2.08052	99.97
2.09718	99.97
2.11385	99.97
2.13052	99.97
2.14718	99.97
2.16385	99.97
2.18052	99.97
2.19718	99.96
2.21385	99.96
2.23052	99.97
2.24718	99.97
2.26385	99.97
2.28052	99.96
2.29718	99.96
2.31385	99.97
2.33052	99.96
2.34718	99.97
2.36385	99.97
2.38052	99.97
2.39718	99.97
2.41385	99.97
2.43052	99.97
2.44718	99.97
2.46385	99.97
2.48052	99.97
2.49718	99.97
2.51385	99.97
2.53052	99.97
2.54718	99.97
2.56385	99.97
2.58052	99.98
2.59718	99.98
2.61385	99.98
2.63052	99.98
2.64718	99.98
2.66385	99.98
2.68052	99.98
2.69718	99.99
2.71385	99.99
2.73052	99.99
2.74718	99.99
2.76385	99.99
2.78052	99.99
2.79718	99.99
2.81385	99.99
2.83052	100.00
2.84718	100.00
2.86385	100.00
2.88052	99.99
2.89718	100.00
2.91385	100.00
2.93052	100.00
2.94718	100.01
2.96385	100.01
2.98052	100.01
2.99718	100.01
3.01385	100.01
3.03052	100.02
3.04718	100.02
3.06385	100.02
3.08052	100.02
3.09718	100.01
3.11385	100.02
3.13052	100.02
3.14718	100.02
3.16385	100.02
3.18052	100.02
3.19718	100.02
3.21385	100.02
3.23052	100.03
3.24718	100.03
3.26385	100.03
3.28052	100.03
3.29718	100.03
3.31385	100.03
3.33052	100.03
3.34718	100.03
3.36385	100.03
3.38052	100.03
3.39718	100.04
3.41385	100.03
3.43052	100.04
3.44718	100.03
3.46385	100.03
3.48052	100.04
3.49718	100.04
3.51385	100.04
3.53052	100.04
3.54718	100.04
3.56385	100.04
3.58052	100.05
3.59718	100.05
3.61385	100.04
3.63052	100.04
3.64718	100.05
3.66385	100.04
3.68052	100.05
3.69718	100.05
3.71385	100.05
3.73052	100.05
3.74718	100.05
3.76385	100.05
3.78052	100.05
3.79718	100.05
3.81385	100.05
3.83052	100.05
3.84718	100.05
3.86385	100.05
3.88052	100.05
3.89718	100.05
3.91385	100.05
3.93052	100.05
3.94718	100.05
3.96385	100.05
3.98052	100.05
3.99718	100.05

[Status Trace (Carrier Gas Pressure)]
Interval(msec)	1000
# of Points	240
Start Time(min)	0.014
End Time(min)	3.997
Intensity Units	
Intensity Multiplier	1
R.Time (min)	Intensity
0.01385	57.47
0.03052	55.33
0.04718	57.91
0.06385	59.84
0.08052	58.75
0.09718	57.98
0.11385	58.00
0.13052	58.01
0.14718	58.01
0.16385	58.00
0.18052	58.00
0.19718	58.00
0.21385	58.00
0.23052	58.00
0.24718	58.00
0.26385	58.00
0.28052	58.00
0.29718	58.00
0.31385	58.00
0.33052	58.00
0.34718	58.00
0.36385	58.00
0.38052	58.00
0.39718	58.00
0.41385	58.00
0.43052	58.00
0.44718	58.00
0.46385	58.00
0.48052	58.00
0.49718	58.00
0.51385	58.00
0.53052	58.00
0.54718	58.00
0.56385	58.00
0.58052	58.00
0.59718	58.00
0.61385	58.00
0.63052	58.00
0.64718	58.00
0.66385	58.00
0.68052	58.00
0.69718	58.00
0.71385	58.00
0.73052	58.00
0.74718	58.00
0.76385	58.00
0.78052	58.00
0.79718	58.00
0.81385	58.00
0.83052	58.00
0.84718	58.00
0.86385	58.00
0.88052	58.00
0.89718	58.00
0.91385	58.00
0.93052	58.00
0.94718	58.00
0.96385	58.00
0.98052	58.00
0.99718	58.00
1.01385	58.00
1.03052	58.00
1.04718	58.00
1.06385	58.00
1.08052	58.00
1.09718	58.00
1.11385	58.00
1.13052	58.00
1.14718	58.00
1.16385	58.00
1.18052	58.00
1.19718	58.00
1.21385	58.00
1.23052	58.00
1.24718	58.00
1.26385	58.00
1.28052	58.00
1.29718	58.00
1.31385	58.00
1.33052	58.00
1.34718	58.00
1.36385	58.00
1.38052	58.00
1.39718	58.00
1.41385	58.00
1.43052	58.00
1.44718	58.00
1.46385	58.00
1.48052	58.00
1.49718	58.00
1.51385	58.00
1.53052	58.00
1.54718	58.00
1.56385	58.00
1.58052	58.00
1.59718	58.00
1.61385	58.00
1.63052	58.00
1.64718	58.00
1.66385	58.01
1.68052	58.01
1.69718	58.00
1.71385	58.00
1.73052	58.00
1.74718	58.00
1.76385	58.00
1.78052	58.00
1.79718	58.00
1.81385	58.00
1.83052	58.00
1.84718	58.00
1.86385	58.00
1.88052	58.00
1.89718	58.00
1.91385	58.00
1.93052	58.00
1.94718	58.00
1.96385	58.00
1.98052	58.00
1.99718	58.00
2.01385	58.00
2.03052	58.00
2.04718	58.00
2.06385	58.00
2.08052	58.00
2.09718	58.00
2.11385	58.00
2.13052	58.00
2.14718	58.00
2.16385	58.00
2.18052	58.00
2.19718	58.00
2.21385	58.00
2.23052	58.00
2.24718	58.00
2.26385	58.00
2.28052	58.00
2.29718	58.00
2.31385	58.00
2.33052	58.00
2.34718	58.00
2.36385	58.00
2.38052	58.00
2.39718	57.99
2.41385	57.99
2.43052	58.00
2.44718	58.00
2.46385	58.00
2.48052	58.00
2.49718	58.00
2.51385	57.99
2.53052	57.99
2.54718	58.00
2.56385	58.00
2.58052	58.00
2.59718	58.00
2.61385	58.00
2.63052	58.00
2.64718	58.00
2.66385	58.00
2.68052	58.00
2.69718	58.00
2.71385	58.00
2.73052	58.00
2.74718	58.00
2.76385	58.00
2.78052	58.00
2.79718	58.00
2.81385	58.00
2.83052	58.00
2.84718	58.00
2.86385	58.00
2.88052	58.00
2.89718	58.00
2.91385	58.00
2.93052	58.00
2.94718	58.00
2.96385	58.00
2.98052	58.00
2.99718	58.00
3.01385	58.00
3.03052	58.00
3.04718	58.00
3.06385	58.00
3.08052	58.00
3.09718	58.00
3.11385	58.00
3.13052	58.00
3.14718	58.00
3.16385	58.00
3.18052	58.00
3.19718	58.00
3.21385	58.00
3.23052	58.00
3.24718	58.00
3.26385	58.00
3.28052	58.00
3.29718	58.00
3.31385	58.00
3.33052	58.00
3.34718	58.00
3.36385	58.00
3.38052	58.00
3.39718	58.00
3.41385	58.00
3.43052	58.00
3.44718	58.00
3.46385	58.00
3.48052	58.00
3.49718	58.00
3.51385	58.00
3.53052	58.00
3.54718	58.00
3.56385	58.00
3.58052	58.00
3.59718	58.00
3.61385	58.00
3.63052	58.00
3.64718	58.00
3.66385	58.00
3.68052	58.00
3.69718	58.00
3.71385	58.00
3.73052	58.00
3.74718	58.00
3.76385	58.00
3.78052	58.00
3.79718	58.00
3.81385	58.00
3.83052	58.00
3.84718	58.00
3.86385	58.00
3.88052	58.00
3.89718	58.00
3.91385	58.00
3.93052	58.00
3.94718	58.00
3.96385	58.00
3.98052	58.00
3.99718	58.00

[Status Trace (Carrier Gas Flow)]
Interval(msec)	1000
# of Points	240
Start Time(min)	0.014
End Time(min)	3.997
Intensity Units	
Intensity Multiplier	1
R.Time (min)	Intensity
0.01385	34.08
0.03052	34.54
0.04718	34.55
0.06385	34.51
0.08052	34.51
0.09718	34.52
0.11385	34.52
0.13052	34.51
0.14718	34.52
0.16385	34.52
0.18052	34.52
0.19718	34.52
0.21385	34.52
0.23052	34.52
0.24718	34.52
0.26385	34.52
0.28052	34.52
0.29718	34.52
0.31385	34.52
0.33052	34.52
0.34718	34.52
0.36385	34.51
0.38052	34.52
0.39718	34.51
0.41385	34.52
0.43052	34.52
0.44718	34.52
0.46385	34.52
0.48052	34.52
0.49718	34.51
0.51385	34.52
0.53052	34.52
0.54718	34.51
0.56385	34.52
0.58052	34.52
0.59718	34.52
0.61385	34.52
0.63052	34.52
0.64718	34.52
0.66385	34.52
0.68052	34.52
0.69718	34.52
0.71385	34.52
0.73052	34.52
0.74718	34.52
0.76385	34.52
0.78052	34.52
0.79718	34.52
0.81385	34.52
0.83052	34.51
0.84718	34.52
0.86385	34.52
0.88052	34.52
0.89718	34.52
0.91385	34.51
0.93052	34.52
0.94718	34.53
0.96385	34.52
0.98052	34.52
0.99718	34.52
1.01385	34.53
1.03052	34.52
1.04718	34.53
1.06385	34.51
1.08052	34.52
1.09718	34.52
1.11385	34.51
1.13052	34.51
1.14718	34.53
1.16385	34.53
1.18052	34.53
1.19718	34.52
1.21385	34.51
1.23052	34.53
1.24718	34.51
1.26385	34.52
1.28052	34.52
1.29718	34.52
1.31385	34.52
1.33052	34.52
1.34718	34.52
1.36385	34.52
1.38052	34.52
1.39718	34.52
1.41385	34.52
1.43052	34.52
1.44718	34.52
1.46385	34.52
1.48052	34.52
1.49718	34.52
1.51385	34.52
1.53052	34.52
1.54718	34.52
1.56385	34.52
1.58052	34.52
1.59718	34.52
1.61385	34.52
1.63052	34.52
1.64718	34.52
1.66385	34.52
1.68052	34.52
1.69718	34.52
1.71385	34.52
1.73052	34.52
1.74718	34.52
1.76385	34.51
1.78052	34.52
1.79718	34.52
1.81385	34.52
1.83052	34.52
1.84718	34.52
1.86385	34.51
1.88052	34.52
1.89718	34.52
1.91385	34.52
1.93052	34.52
1.94718	34.52
1.96385	34.52
1.98052	34.52
1.99718	34.52
2.01385	34.52
2.03052	34.51
2.04718	34.52
2.06385	34.52
2.08052	34.52
2.09718	34.52
2.11385	34.52
2.13052	34.51
2.14718	34.52
2.16385	34.52
2.18052	34.51
2.19718	34.51
2.21385	34.52
2.23052	34.52
2.24718	34.52
2.26385	34.52
2.28052	34.51
2.29718	34.52
2.31385	34.52
2.33052	34.53
2.34718	34.52
2.36385	34.52
2.38052	34.52
2.39718	34.52
2.41385	34.52
2.43052	34.52
2.44718	34.52
2.46385	34.52
2.48052	34.52
2.49718	34.52
2.51385	34.52
2.53052	34.52
2.54718	34.52
2.56385	34.53
2.58052	34.52
2.59718	34.52
2.61385	34.52
2.63052	34.52
2.64718	34.52
2.66385	34.52
2.68052	34.52
2.69718	34.52
2.71385	34.52
2.73052	34.52
2.74718	34.52
2.76385	34.52
2.78052	34.52
2.79718	34.52
2.81385	34.53
2.83052	34.52
2.84718	34.52
2.86385	34.52
2.88052	34.52
2.89718	34.52
2.91385	34.52
2.93052	34.52
2.94718	34.52
2.96385	34.53
2.98052	34.52
2.99718	34.52
3.01385	34.52
3.03052	34.51
3.04718	34.52
3.06385	34.52
3.08052	34.52
3.09718	34.52
3.11385	34.52
3.13052	34.51
3.14718	34.52
3.16385	34.52
3.18052	34.52
3.19718	34.52
3.21385	34.52
3.23052	34.52
3.24718	34.51
3.26385	34.52
3.28052	34.52
3.29718	34.52
3.31385	34.52
3.33052	34.52
3.34718	34.52
3.36385	34.52
3.38052	34.52
3.39718	34.52
3.41385	34.52
3.43052	34.52
3.44718	34.51
3.46385	34.51
3.48052	34.51
3.49718	34.51
3.51385	34.52
3.53052	34.52
3.54718	34.52
3.56385	34.53
3.58052	34.52
3.59718	34.52
3.61385	34.51
3.63052	34.51
3.64718	34.52
3.66385	34.51
3.68052	34.52
3.69718	34.52
3.71385	34.52
3.73052	34.53
3.74718	34.52
3.76385	34.51
3.78052	34.52
3.79718	34.52
3.81385	34.52
3.83052	34.51
3.84718	34.52
3.86385	34.52
3.88052	34.52
3.89718	34.52
3.91385	34.51
3.93052	34.52
3.94718	34.52
3.96385	34.52
3.98052	34.52
3.99718	34.52

[Status Trace (Column Flow)]
Interval(msec)	1000
# of Points	240
Start Time(min)	0.014
End Time(min)	3.997
Intensity Units	
Intensity Multiplier	1
R.Time (min)	Intensity
0.01385	5.52
0.03052	5.27
0.04718	5.57
0.06385	5.80
0.08052	5.67
0.09718	5.58
0.11385	5.58
0.13052	5.58
0.14718	5.58
0.16385	5.58
0.18052	5.58
0.19718	5.58
0.21385	5.58
0.23052	5.58
0.24718	5.58
0.26385	5.58
0.28052	5.58
0.29718	5.58
0.31385	5.58
0.33052	5.58
0.34718	5.58
0.36385	5.58
0.38052	5.58
0.39718	5.58
0.41385	5.58
0.43052	5.58
0.44718	5.58
0.46385	5.58
0.48052	5.58
0.49718	5.58
0.51385	5.58
0.53052	5.58
0.54718	5.58
0.56385	5.58
0.58052	5.58
0.59718	5.58
0.61385	5.58
0.63052	5.58
0.64718	5.58
0.66385	5.58
0.68052	5.58
0.69718	5.58
0.71385	5.58
0.73052	5.58
0.74718	5.58
0.76385	5.58
0.78052	5.58
0.79718	5.58
0.81385	5.58
0.83052	5.58
0.84718	5.58
0.86385	5.58
0.88052	5.58
0.89718	5.58
0.91385	5.58
0.93052	5.58
0.94718	5.58
0.96385	5.58
0.98052	5.58
0.99718	5.58
1.01385	5.58
1.03052	5.58
1.04718	5.58
1.06385	5.58
1.08052	5.58
1.09718	5.58
1.11385	5.58
1.13052	5.58
1.14718	5.58
1.16385	5.58
1.18052	5.58
1.19718	5.58
1.21385	5.58
1.23052	5.58
1.24718	5.58
1.26385	5.58
1.28052	5.58
1.29718	5.58
1.31385	5.58
1.33052	5.58
1.34718	5.58
1.36385	5.58
1.38052	5.58
1.39718	5.58
1.41385	5.58
1.43052	5.58
1.44718	5.58
1.46385	5.58
1.48052	5.58
1.49718	5.58
1.51385	5.58
1.53052	5.58
1.54718	5.58
1.56385	5.58
1.58052	5.58
1.59718	5.58
1.61385	5.58
1.63052	5.57
1.64718	5.57
1.66385	5.56
1.68052	5.55
1.69718	5.53
1.71385	5.52
1.73052	5.51
1.74718	5.50
1.76385	5.49
1.78052	5.48
1.79718	5.47
1.81385	5.46
1.83052	5.45
1.84718	5.44
1.86385	5.43
1.88052	5.42
1.89718	5.41
1.91385	5.40
1.93052	5.39
1.94718	5.38
1.96385	5.37
1.98052	5.36
1.99718	5.35
2.01385	5.34
2.03052	5.33
2.04718	5.32
2.06385	5.31
2.08052	5.30
2.09718	5.30
2.11385	5.29
2.13052	5.28
2.14718	5.27
2.16385	5.26
2.18052	5.25
2.19718	5.24
2.21385	5.23
2.23052	5.22
2.24718	5.21
2.26385	5.20
2.28052	5.19
2.29718	5.18
2.31385	5.17
2.33052	5.16
2.34718	5.15
2.36385	5.15
2.38052	5.14
2.39718	5.14
2.41385	5.14
2.43052	5.14
2.44718	5.14
2.46385	5.14
2.48052	5.14
2.49718	5.14
2.51385	5.14
2.53052	5.14
2.54718	5.14
2.56385	5.14
2.58052	5.14
2.59718	5.14
2.61385	5.14
2.63052	5.14
2.64718	5.14
2.66385	5.14
2.68052	5.14
2.69718	5.14
2.71385	5.14
2.73052	5.14
2.74718	5.14
2.76385	5.14
2.78052	5.14
2.79718	5.14
2.81385	5.14
2.83052	5.14
2.84718	5.14
2.86385	5.14
2.88052	5.14
2.89718	5.14
2.91385	5.13
2.93052	5.13
2.94718	5.13
2.96385	5.13
2.98052	5.13
2.99718	5.13
3.01385	5.13
3.03052	5.13
3.04718	5.13
3.06385	5.13
3.08052	5.13
3.09718	5.13
3.11385	5.13
3.13052	5.13
3.14718	5.13
3.16385	5.13
3.18052	5.13
3.19718	5.13
3.21385	5.13
3.23052	5.13
3.24718	5.13
3.26385	5.13
3.28052	5.13
3.29718	5.13
3.31385	5.13
3.33052	5.13
3.34718	5.13
3.36385	5.13
3.38052	5.13
3.39718	5.13
3.41385	5.13
3.43052	5.13
3.44718	5.13
3.46385	5.13
3.48052	5.13
3.49718	5.13
3.51385	5.13
3.53052	5.13
3.54718	5.13
3.56385	5.13
3.58052	5.13
3.59718	5.13
3.61385	5.13
3.63052	5.13
3.64718	5.13
3.66385	5.13
3.68052	5.13
3.69718	5.13
3.71385	5.13
3.73052	5.13
3.74718	5.13
3.76385	5.13
3.78052	5.13
3.79718	5.13
3.81385	5.13
3.83052	5.13
3.84718	5.13
3.86385	5.13
3.88052	5.13
3.89718	5.13
3.91385	5.13
3.93052	5.13
3.94718	5.13
3.96385	5.13
3.98052	5.13
3.99718	5.13

[Status Trace (Linear Velocity)]
Interval(msec)	1000
# of Points	240
Start Time(min)	0.014
End Time(min)	3.997
Intensity Units	
Intensity Multiplier	1
R.Time (min)	Intensity
0.01385	38.68
0.03052	37.27
0.04718	38.97
0.06385	40.23
0.08052	39.51
0.09718	39.01
0.11385	39.02
0.13052	39.03
0.14718	39.03
0.16385	39.03
0.18052	39.03
0.19718	39.03
0.21385	39.03
0.23052	39.03
0.24718	39.03
0.26385	39.03
0.28052	39.03
0.29718	39.03
0.31385	39.03
0.33052	39.03
0.34718	39.03
0.36385	39.03
0.38052	39.03
0.39718	39.03
0.41385	39.03
0.43052	39.03
0.44718	39.03
0.46385	39.03
0.48052	39.03
0.49718	39.03
0.51385	39.03
0.53052	39.03
0.54718	39.03
0.56385	39.03
0.58052	39.03
0.59718	39.03
0.61385	39.03
0.63052	39.03
0.64718	39.03
0.66385	39.03
0.68052	39.03
0.69718	39.03
0.71385	39.03
0.73052	39.03
0.74718	39.03
0.76385	39.03
0.78052	39.03
0.79718	39.03
0.81385	39.03
0.83052	39.03
0.84718	39.03
0.86385	39.03
0.88052	39.03
0.89718	39.03
0.91385	39.03
0.93052	39.03
0.94718	39.03
0.96385	39.03
0.98052	39.03
0.99718	39.03
1.01385	39.03
1.03052	39.03
1.04718	39.03
1.06385	39.03
1.08052	39.03
1.09718	39.03
1.11385	39.03
1.13052	39.03
1.14718	39.03
1.16385	39.03
1.18052	39.03
1.19718	39.03
1.21385	39.03
1.23052	39.03
1.24718	39.03
1.26385	39.03
1.28052	39.03
1.29718	39.03
1.31385	39.03
1.33052	39.03
1.34718	39.03
1.36385	39.03
1.38052	39.03
1.39718	39.03
1.41385	39.03
1.43052	39.03
1.44718	39.03
1.46385	39.03
1.48052	39.03
1.49718	39.03
1.51385	39.03
1.53052	39.03
1.54718	39.03
1.56385	39.03
1.58052	39.03
1.59718	39.03
1.61385	39.02
1.63052	39.01
1.64718	38.99
1.66385	38.96
1.68052	38.93
1.69718	38.89
1.71385	38.86
1.73052	38.83
1.74718	38.80
1.76385	38.77
1.78052	38.74
1.79718	38.70
1.81385	38.67
1.83052	38.64
1.84718	38.61
1.86385	38.58
1.88052	38.55
1.89718	38.51
1.91385	38.48
1.93052	38.46
1.94718	38.42
1.96385	38.39
1.98052	38.37
1.99718	38.33
2.01385	38.30
2.03052	38.28
2.04718	38.24
2.06385	38.21
2.08052	38.19
2.09718	38.15
2.11385	38.12
2.13052	38.10
2.14718	38.07
2.16385	38.04
2.18052	38.01
2.19718	37.98
2.21385	37.95
2.23052	37.92
2.24718	37.89
2.26385	37.86
2.28052	37.83
2.29718	37.80
2.31385	37.77
2.33052	37.74
2.34718	37.71
2.36385	37.69
2.38052	37.67
2.39718	37.67
2.41385	37.67
2.43052	37.67
2.44718	37.67
2.46385	37.67
2.48052	37.67
2.49718	37.67
2.51385	37.66
2.53052	37.66
2.54718	37.67
2.56385	37.67
2.58052	37.66
2.59718	37.66
2.61385	37.66
2.63052	37.66
2.64718	37.66
2.66385	37.66
2.68052	37.66
2.69718	37.66
2.71385	37.66
2.73052	37.66
2.74718	37.66
2.76385	37.66
2.78052	37.66
2.79718	37.65
2.81385	37.65
2.83052	37.65
2.84718	37.66
2.86385	37.66
2.88052	37.66
2.89718	37.65
2.91385	37.65
2.93052	37.65
2.94718	37.65
2.96385	37.65
2.98052	37.65
2.99718	37.65
3.01385	37.64
3.03052	37.64
3.04718	37.64
3.06385	37.64
3.08052	37.64
3.09718	37.64
3.11385	37.64
3.13052	37.64
3.14718	37.64
3.16385	37.64
3.18052	37.64
3.19718	37.64
3.21385	37.64
3.23052	37.64
3.24718	37.64
3.26385	37.64
3.28052	37.64
3.29718	37.64
3.31385	37.64
3.33052	37.64
3.34718	37.64
3.36385	37.64
3.38052	37.64
3.39718	37.64
3.41385	37.64
3.43052	37.64
3.44718	37.64
3.46385	37.64
3.48052	37.64
3.49718	37.64
3.51385	37.65
3.53052	37.65
3.54718	37.65
3.56385	37.65
3.58052	37.65
3.59718	37.65
3.61385	37.64
3.63052	37.65
3.64718	37.65
3.66385	37.64
3.68052	37.64
3.69718	37.64
3.71385	37.64
3.73052	37.64
3.74718	37.64
3.76385	37.64
3.78052	37.64
3.79718	37.64
3.81385	37.64
3.83052	37.64
3.84718	37.64
3.86385	37.64
3.88052	37.64
3.89718	37.64
3.91385	37.64
3.93052	37.64
3.94718	37.64
3.96385	37.64
3.98052	37.64
3.99718	37.64

