[Header]
Application Name	LabSolutions
Version	5.110
Data File Name	C:\Users\User\Desktop\GC Analyses\Jack\Nachusa Grasslands Sampling\T0 Timepoint July 12th\T0_07122022_060.gcd
Output Date	3/14/2023
Output Time	3:40:37 PM

[File Information]
Type	Data File
Generated	3/7/2023 8:26:55 PM
Generated by	System Administrator
Modified	3/7/2023 8:33:44 PM
Modified by	System Administrator

[Sample Information]
Operator Name	System Administrator
Acquired	3/7/2023 8:29:44 PM
Sample Type	0:Unknown
Level	0
Sample Name	060
Sample ID	060
ISTD Amount1	1
ISTD Amount2	1
ISTD Amount3	1
ISTD Amount4	1
ISTD Amount5	1
ISTD Amount6	1
ISTD Amount7	1
ISTD Amount8	1
ISTD Amount9	1
ISTD Amount10	1
ISTD Amount11	1
ISTD Amount12	1
ISTD Amount13	1
ISTD Amount14	1
ISTD Amount15	1
ISTD Amount16	1
ISTD Amount17	1
ISTD Amount18	1
ISTD Amount19	1
ISTD Amount20	1
ISTD Amount21	1
ISTD Amount22	1
ISTD Amount23	1
ISTD Amount24	1
ISTD Amount25	1
ISTD Amount26	1
ISTD Amount27	1
ISTD Amount28	1
ISTD Amount29	1
ISTD Amount30	1
ISTD Amount31	1
ISTD Amount32	1
Sample Amount	1
Dilution Factor	1
Vial#	59
Injection Volume	1
Injection Count	1
Bar Code	

[Original Files]
Data File	C:\Users\User\Desktop\GC Analyses\Jack\Nachusa Grasslands Sampling\T0 Timepoint July 12th\T0_07122022_060.gcd
Method File	C:\LabSolutions\Data\GHG_4min_2022\ghg3_togas_w_acet_4 min_new_int.gcm
Batch File	C:\LabSolutions\Data\AutoSamplerTesting\T0_07122022.gcb
Report Format File	c:\LabSolutions\System\DEFAULT.lsr

[File Description]


[Configuration]
Instrument Name	C0B7VH3-Instrument1
Instrument #	1
Line #	1
# of Detectors	3
Detector ID	DET#1	DET#2	DET#3
Detector Name	FID	PTCD	ECD
# of Channels	1	1	1

[Peak Table(Ch1)]
# of Peaks	3
Peak#	R.Time	I.Time	F.Time	Area	Height	A/H	Conc.	Mark	ID#	Name	k'	Plate #	Plate Ht.	Tailing	Resolution	Sep.Factor	Area Ratio	Height Ratio	Conc. %	Norm Conc.
1	1.476	1.435	1.538	22142	10290	2.152	156.323	   	1	CO	0.000	9132	16.425	1.309	0.000	0.000	0	0	22.821	22.821
2	1.567	1.538	1.622	4839	2375	2.037	93.558	 V 	2	CH4	0.062	10592	14.162	0.000	1.494	0.000	0	0	13.658	13.658
3	1.996	1.941	2.561	1733725	818971	2.117	435.118	   	3	CO2	0.353	17231	8.705	1.295	7.047	5.680	0	0	63.521	63.521

[Peak Table(Ch2)]
# of Peaks	0

[Peak Table(Ch3)]
# of Peaks	6
Peak#	R.Time	I.Time	F.Time	Area	Height	A/H	Conc.	Mark	ID#	Name	k'	Plate #	Plate Ht.	Tailing	Resolution	Sep.Factor	Area Ratio	Height Ratio	Conc. %	Norm Conc.
1	0.702	0.588	0.816	106	17	6.111	0.000	   			0.000	1567	95.719	0.998	0.000	0.000	0	0	0.000	0.000
2	2.462	2.260	2.524	2047	430	4.758	0.000	   			2.507	5762	26.031	0.000	17.542	0.000	0	0	0.000	0.000
3	2.546	2.524	2.634	1138	254	4.473	0.000	 V 			2.627	2900	51.731	0.000	0.529	1.048	0	0	0.000	0.000
4	2.693	2.653	2.752	190	56	3.413	0.000	   			2.836	11164	13.436	1.228	1.008	1.080	0	0	0.000	0.000
5	2.873	2.810	3.096	17061	4564	3.738	0.436	   	1	N2O	3.092	13577	11.048	1.619	1.792	1.090	0	0	100.000	100.000
6	3.698	3.599	3.995	2657	226	11.770	0.000	   			4.267	1549	96.852	1.981	3.478	1.380	0	0	0.000	0.000

[Compound Results(Ch1)]
# of IDs	6
ID#	Name	R.Time	Area	Height	Conc.	Curve	3rd	2nd	1st	Constant	Area Ratio	Height Ratio	Conc. %	Norm Conc.
1	CO	1.476	22142	10290	156.323	Linear	0.000000e+00	0.000000e+00	1.416423e+002	0.000000e+00	0	0	22.821	22.821
2	CH4	1.567	4839	2375	93.558	Linear	0.000000e+00	0.000000e+00	5.171738e+001	0.000000e+00	0	0	13.658	13.658
3	CO2	1.996	1733725	818971	435.118	Linear	0.000000e+00	0.000000e+00	3.984494e+003	0.000000e+00	0	0	63.521	63.521
4	Ethylene	0.000	0	0	0.000	Linear	0.000000e+00	0.000000e+00	0.000000e+00	0.000000e+00	0	0	0.000	0.000
5	Acetylene	0.000	0	0	0.000	Linear	0.000000e+00	0.000000e+00	0.000000e+00	0.000000e+00	0	0	0.000	0.000
6	Ethane	0.000	0	0	0.000	Linear	0.000000e+00	0.000000e+00	0.000000e+00	0.000000e+00	0	0	0.000	0.000

[Compound Results(Ch2)]
# of IDs	5
ID#	Name	R.Time	Area	Height	Conc.	Curve	3rd	2nd	1st	Constant	Area Ratio	Height Ratio	Conc. %	Norm Conc.
1	Hydrogen	0.000	0	0	0.000	Linear	0.000000e+00	0.000000e+00	0.000000e+00	0.000000e+00	0	0	0.000	0.000
2	Oxygen	0.000	0	0	0.000	Linear	0.000000e+00	0.000000e+00	0.000000e+00	0.000000e+00	0	0	0.000	0.000
3	Nitrogen	0.000	0	0	0.000	Linear	0.000000e+00	0.000000e+00	0.000000e+00	0.000000e+00	0	0	0.000	0.000
4	Methane	0.000	0	0	0.000	Linear	0.000000e+00	0.000000e+00	0.000000e+00	0.000000e+00	0	0	0.000	0.000
5	Carbon Monoxide	0.000	0	0	0.000	Linear	0.000000e+00	0.000000e+00	0.000000e+00	0.000000e+00	0	0	0.000	0.000

[Compound Results(Ch3)]
# of IDs	2
ID#	Name	R.Time	Area	Height	Conc.	Curve	3rd	2nd	1st	Constant	Area Ratio	Height Ratio	Conc. %	Norm Conc.
1	N2O	2.873	17061	4564	0.436	Linear	0.000000e+00	0.000000e+00	3.915173e+004	0.000000e+00	0	0	100.000	100.000
2	SF6	0.000	0	0	0.000	Linear	0.000000e+00	0.000000e+00	0.000000e+00	0.000000e+00	0	0	0.000	0.000

[Group Results(Ch1)]
# of Groups	0

[Group Results(Ch2)]
# of Groups	0

[Group Results(Ch3)]
# of Groups	0

[Chromatogram (Ch1)]
Interval(msec)	220
# of Points	1091
Start Time(min)	0.002
End Time(min)	3.998
R.Time (min)	Intensity
0.00167	-3
0.00533	-8
0.00900	-14
0.01267	-17
0.01633	-19
0.02000	-20
0.02367	-23
0.02733	-25
0.03100	-26
0.03467	-24
0.03833	-19
0.04200	-13
0.04567	-7
0.04933	-5
0.05300	-5
0.05667	-4
0.06033	-3
0.06400	-2
0.06767	0
0.07133	5
0.07500	12
0.07867	21
0.08233	24
0.08600	24
0.08967	26
0.09333	28
0.09700	25
0.10067	20
0.10433	16
0.10800	14
0.11167	11
0.11533	7
0.11900	1
0.12267	-5
0.12633	-9
0.13000	-11
0.13367	-11
0.13733	-11
0.14100	-14
0.14467	-17
0.14833	-18
0.15200	-18
0.15567	-17
0.15933	-17
0.16300	-20
0.16667	-23
0.17033	-22
0.17400	-19
0.17767	-15
0.18133	-8
0.18500	-2
0.18867	1
0.19233	-2
0.19600	-6
0.19967	-7
0.20333	-6
0.20700	-2
0.21067	3
0.21433	8
0.21800	10
0.22167	9
0.22533	7
0.22900	4
0.23267	-1
0.23633	-5
0.24000	-9
0.24367	-11
0.24733	-10
0.25100	-7
0.25467	-5
0.25833	-3
0.26200	-5
0.26567	-11
0.26933	-16
0.27300	-16
0.27667	-11
0.28033	-3
0.28400	3
0.28767	2
0.29133	-5
0.29500	-11
0.29867	-12
0.30233	-8
0.30600	-0
0.30967	7
0.31333	9
0.31700	10
0.32067	9
0.32433	7
0.32800	1
0.33167	-5
0.33533	-8
0.33900	-9
0.34267	-7
0.34633	-3
0.35000	2
0.35367	5
0.35733	9
0.36100	11
0.36467	11
0.36833	10
0.37200	9
0.37567	8
0.37933	10
0.38300	11
0.38667	11
0.39033	8
0.39400	3
0.39767	-3
0.40133	-10
0.40500	-17
0.40867	-21
0.41233	-25
0.41600	-29
0.41967	-30
0.42333	-28
0.42700	-21
0.43067	-12
0.43433	-3
0.43800	5
0.44167	7
0.44533	9
0.44900	11
0.45267	13
0.45633	18
0.46000	22
0.46367	23
0.46733	21
0.47100	21
0.47467	21
0.47833	20
0.48200	18
0.48567	11
0.48933	-1
0.49300	-14
0.49667	-25
0.50033	-32
0.50400	-30
0.50767	-17
0.51133	-4
0.51500	7
0.51867	10
0.52233	2
0.52600	-11
0.52967	-24
0.53333	-34
0.53700	-41
0.54067	-44
0.54433	-41
0.54800	-35
0.55167	-29
0.55533	-23
0.55900	-16
0.56267	-9
0.56633	-3
0.57000	1
0.57367	1
0.57733	-3
0.58100	-5
0.58467	-7
0.58833	-13
0.59200	-24
0.59567	-31
0.59933	-33
0.60300	-30
0.60667	-25
0.61033	-19
0.61400	-13
0.61767	-11
0.62133	-14
0.62500	-18
0.62867	-19
0.63233	-20
0.63600	-19
0.63967	-19
0.64333	-20
0.64700	-21
0.65067	-18
0.65433	-14
0.65800	-5
0.66167	6
0.66533	16
0.66900	23
0.67267	24
0.67633	16
0.68000	4
0.68367	-6
0.68733	-15
0.69100	-21
0.69467	-27
0.69833	-32
0.70200	-35
0.70567	-36
0.70933	-34
0.71300	-32
0.71667	-30
0.72033	-31
0.72400	-34
0.72767	-33
0.73133	-30
0.73500	-27
0.73867	-26
0.74233	-27
0.74600	-29
0.74967	-31
0.75333	-31
0.75700	-28
0.76067	-24
0.76433	-22
0.76800	-21
0.77167	-19
0.77533	-15
0.77900	-12
0.78267	-12
0.78633	-16
0.79000	-19
0.79367	-17
0.79733	-14
0.80100	-12
0.80467	-17
0.80833	-25
0.81200	-34
0.81567	-42
0.81933	-50
0.82300	-57
0.82667	-62
0.83033	-62
0.83400	-61
0.83767	-62
0.84133	-63
0.84500	-61
0.84867	-55
0.85233	-48
0.85600	-39
0.85967	-29
0.86333	-24
0.86700	-22
0.87067	-20
0.87433	-18
0.87800	-14
0.88167	-7
0.88533	1
0.88900	6
0.89267	6
0.89633	-4
0.90000	-22
0.90367	-41
0.90733	-56
0.91100	-65
0.91467	-71
0.91833	-76
0.92200	-76
0.92567	-71
0.92933	-65
0.93300	-59
0.93667	-54
0.94033	-50
0.94400	-47
0.94767	-45
0.95133	-46
0.95500	-49
0.95867	-52
0.96233	-54
0.96600	-55
0.96967	-54
0.97333	-50
0.97700	-45
0.98067	-41
0.98433	-38
0.98800	-31
0.99167	-29
0.99533	-33
0.99900	-36
1.00267	-40
1.00633	-44
1.01000	-47
1.01367	-50
1.01733	-51
1.02100	-50
1.02467	-49
1.02833	-49
1.03200	-46
1.03567	-39
1.03933	-36
1.04300	-38
1.04667	-41
1.05033	-39
1.05400	-38
1.05767	-45
1.06133	-56
1.06500	-66
1.06867	-76
1.07233	-81
1.07600	-82
1.07967	-79
1.08333	-71
1.08700	-62
1.09067	-52
1.09433	-48
1.09800	-46
1.10167	-47
1.10533	-51
1.10900	-57
1.11267	-62
1.11633	-65
1.12000	-61
1.12367	-55
1.12733	-53
1.13100	-56
1.13467	-60
1.13833	-61
1.14200	-60
1.14567	-58
1.14933	-57
1.15300	-57
1.15667	-57
1.16033	-55
1.16400	-54
1.16767	-52
1.17133	-49
1.17500	-44
1.17867	-41
1.18233	-41
1.18600	-44
1.18967	-45
1.19333	-44
1.19700	-39
1.20067	-34
1.20433	-29
1.20800	-30
1.21167	-34
1.21533	-36
1.21900	-35
1.22267	-34
1.22633	-35
1.23000	-37
1.23367	-39
1.23733	-42
1.24100	-46
1.24467	-49
1.24833	-50
1.25200	-49
1.25567	-49
1.25933	-49
1.26300	-45
1.26667	-40
1.27033	-39
1.27400	-42
1.27767	-43
1.28133	-41
1.28500	-35
1.28867	-26
1.29233	-21
1.29600	-24
1.29967	-32
1.30333	-42
1.30700	-50
1.31067	-53
1.31433	-51
1.31800	-50
1.32167	-50
1.32533	-50
1.32900	-50
1.33267	-48
1.33633	-44
1.34000	-42
1.34367	-43
1.34733	-45
1.35100	-45
1.35467	-43
1.35833	-43
1.36200	-44
1.36567	-43
1.36933	-42
1.37300	-42
1.37667	-42
1.38033	-41
1.38400	-40
1.38767	-40
1.39133	-40
1.39500	-40
1.39867	-39
1.40233	-39
1.40600	-41
1.40967	-46
1.41333	-53
1.41700	-62
1.42067	-68
1.42433	-70
1.42800	-71
1.43167	-71
1.43533	-66
1.43900	-37
1.44267	65
1.44633	293
1.45000	774
1.45367	1800
1.45733	3449
1.46100	5405
1.46467	7254
1.46833	8745
1.47200	9769
1.47567	10237
1.47933	10064
1.48300	9242
1.48667	7929
1.49033	6397
1.49400	4911
1.49767	3641
1.50133	2644
1.50500	1900
1.50867	1362
1.51233	981
1.51600	716
1.51967	529
1.52333	398
1.52700	304
1.53067	238
1.53433	194
1.53800	181
1.54167	237
1.54533	420
1.54900	756
1.55267	1187
1.55633	1618
1.56000	1979
1.56367	2230
1.56733	2352
1.57100	2320
1.57467	2118
1.57833	1785
1.58200	1397
1.58567	1031
1.58933	731
1.59300	503
1.59667	336
1.60033	215
1.60400	129
1.60767	73
1.61133	38
1.61500	16
1.61867	2
1.62233	-5
1.62600	-8
1.62967	-10
1.63333	-14
1.63700	-16
1.64067	-18
1.64433	-20
1.64800	-26
1.65167	-29
1.65533	-30
1.65900	-28
1.66267	-28
1.66633	-31
1.67000	-35
1.67367	-37
1.67733	-37
1.68100	-32
1.68467	-27
1.68833	-28
1.69200	-38
1.69567	-52
1.69933	-62
1.70300	-66
1.70667	-67
1.71033	-67
1.71400	-66
1.71767	-60
1.72133	-50
1.72500	-41
1.72867	-42
1.73233	-47
1.73600	-51
1.73967	-55
1.74333	-57
1.74700	-51
1.75067	-42
1.75433	-39
1.75800	-44
1.76167	-53
1.76533	-62
1.76900	-67
1.77267	-69
1.77633	-73
1.78000	-73
1.78367	-73
1.78733	-74
1.79100	-77
1.79467	-79
1.79833	-77
1.80200	-74
1.80567	-72
1.80933	-73
1.81300	-75
1.81667	-76
1.82033	-74
1.82400	-69
1.82767	-60
1.83133	-48
1.83500	-39
1.83867	-37
1.84233	-41
1.84600	-45
1.84967	-45
1.85333	-46
1.85700	-49
1.86067	-54
1.86433	-59
1.86800	-59
1.87167	-59
1.87533	-57
1.87900	-50
1.88267	-39
1.88633	-30
1.89000	-26
1.89367	-27
1.89733	-32
1.90100	-41
1.90467	-48
1.90833	-53
1.91200	-57
1.91567	-62
1.91933	-66
1.92300	-69
1.92667	-70
1.93033	-71
1.93400	-71
1.93767	-69
1.94133	-65
1.94500	-58
1.94867	-48
1.95233	-22
1.95600	137
1.95967	1034
1.96333	5029
1.96700	18547
1.97067	53717
1.97433	124926
1.97800	238618
1.98167	384738
1.98533	539586
1.98900	676411
1.99267	774100
1.99633	818942
2.00000	805581
2.00367	739173
2.00733	634875
2.01100	513394
2.01467	394331
2.01833	290838
2.02200	208400
2.02567	146746
2.02933	102625
2.03300	71968
2.03667	51054
2.04033	36916
2.04400	27372
2.04767	20886
2.05133	16421
2.05500	13291
2.05867	11047
2.06233	9399
2.06600	8165
2.06967	7215
2.07333	6464
2.07700	5854
2.08067	5356
2.08433	4940
2.08800	4587
2.09167	4277
2.09533	4004
2.09900	3760
2.10267	3541
2.10633	3344
2.11000	3166
2.11367	3003
2.11733	2855
2.12100	2723
2.12467	2606
2.12833	2501
2.13200	2404
2.13567	2314
2.13933	2230
2.14300	2149
2.14667	2071
2.15033	1997
2.15400	1927
2.15767	1859
2.16133	1794
2.16500	1731
2.16867	1675
2.17233	1625
2.17600	1578
2.17967	1534
2.18333	1491
2.18700	1448
2.19067	1408
2.19433	1373
2.19800	1341
2.20167	1313
2.20533	1286
2.20900	1257
2.21267	1226
2.21633	1191
2.22000	1150
2.22367	1107
2.22733	1066
2.23100	1031
2.23467	1004
2.23833	984
2.24200	973
2.24567	964
2.24933	952
2.25300	934
2.25667	913
2.26033	891
2.26400	873
2.26767	857
2.27133	841
2.27500	827
2.27867	815
2.28233	805
2.28600	797
2.28967	781
2.29333	757
2.29700	730
2.30067	705
2.30433	689
2.30800	681
2.31167	678
2.31533	676
2.31900	674
2.32267	670
2.32633	662
2.33000	652
2.33367	643
2.33733	634
2.34100	624
2.34467	613
2.34833	604
2.35200	596
2.35567	587
2.35933	575
2.36300	567
2.36667	563
2.37033	564
2.37400	563
2.37767	559
2.38133	552
2.38500	545
2.38867	539
2.39233	531
2.39600	521
2.39967	510
2.40333	500
2.40700	492
2.41067	489
2.41433	492
2.41800	497
2.42167	499
2.42533	496
2.42900	490
2.43267	482
2.43633	475
2.44000	468
2.44367	462
2.44733	460
2.45100	459
2.45467	455
2.45833	450
2.46200	447
2.46567	448
2.46933	451
2.47300	447
2.47667	438
2.48033	429
2.48400	419
2.48767	412
2.49133	408
2.49500	407
2.49867	407
2.50233	407
2.50600	406
2.50967	405
2.51333	400
2.51700	390
2.52067	379
2.52433	369
2.52800	364
2.53167	358
2.53533	354
2.53900	354
2.54267	361
2.54633	370
2.55000	375
2.55367	369
2.55733	357
2.56100	344
2.56467	332
2.56833	329
2.57200	333
2.57567	339
2.57933	342
2.58300	344
2.58667	341
2.59033	337
2.59400	334
2.59767	332
2.60133	333
2.60500	338
2.60867	337
2.61233	330
2.61600	324
2.61967	322
2.62333	320
2.62700	315
2.63067	311
2.63433	308
2.63800	307
2.64167	308
2.64533	311
2.64900	314
2.65267	316
2.65633	316
2.66000	314
2.66367	314
2.66733	312
2.67100	311
2.67467	314
2.67833	317
2.68200	317
2.68567	311
2.68933	302
2.69300	293
2.69667	286
2.70033	281
2.70400	280
2.70767	280
2.71133	283
2.71500	291
2.71867	303
2.72233	310
2.72600	307
2.72967	301
2.73333	293
2.73700	286
2.74067	281
2.74433	274
2.74800	270
2.75167	267
2.75533	264
2.75900	263
2.76267	264
2.76633	267
2.77000	266
2.77367	267
2.77733	271
2.78100	278
2.78467	284
2.78833	288
2.79200	288
2.79567	284
2.79933	281
2.80300	282
2.80667	284
2.81033	289
2.81400	295
2.81767	300
2.82133	299
2.82500	293
2.82867	286
2.83233	279
2.83600	272
2.83967	267
2.84333	263
2.84700	263
2.85067	261
2.85433	258
2.85800	261
2.86167	272
2.86533	281
2.86900	284
2.87267	283
2.87633	279
2.88000	273
2.88367	264
2.88733	256
2.89100	252
2.89467	254
2.89833	259
2.90200	267
2.90567	271
2.90933	273
2.91300	274
2.91667	273
2.92033	270
2.92400	268
2.92767	266
2.93133	264
2.93500	263
2.93867	262
2.94233	261
2.94600	262
2.94967	264
2.95333	266
2.95700	267
2.96067	263
2.96433	259
2.96800	256
2.97167	257
2.97533	259
2.97900	260
2.98267	260
2.98633	259
2.99000	259
2.99367	262
2.99733	264
3.00100	264
3.00467	262
3.00833	263
3.01200	268
3.01567	272
3.01933	275
3.02300	275
3.02667	274
3.03033	274
3.03400	272
3.03767	270
3.04133	266
3.04500	260
3.04867	253
3.05233	248
3.05600	244
3.05967	240
3.06333	234
3.06700	231
3.07067	229
3.07433	227
3.07800	228
3.08167	232
3.08533	238
3.08900	238
3.09267	237
3.09633	236
3.10000	239
3.10367	239
3.10733	240
3.11100	242
3.11467	241
3.11833	243
3.12200	243
3.12567	242
3.12933	241
3.13300	243
3.13667	244
3.14033	245
3.14400	242
3.14767	239
3.15133	238
3.15500	239
3.15867	244
3.16233	252
3.16600	255
3.16967	252
3.17333	244
3.17700	234
3.18067	228
3.18433	224
3.18800	222
3.19167	219
3.19533	217
3.19900	216
3.20267	220
3.20633	223
3.21000	227
3.21367	230
3.21733	234
3.22100	237
3.22467	240
3.22833	243
3.23200	239
3.23567	236
3.23933	234
3.24300	228
3.24667	217
3.25033	211
3.25400	208
3.25767	209
3.26133	211
3.26500	211
3.26867	210
3.27233	211
3.27600	211
3.27967	207
3.28333	201
3.28700	196
3.29067	195
3.29433	196
3.29800	201
3.30167	208
3.30533	215
3.30900	219
3.31267	223
3.31633	227
3.32000	229
3.32367	232
3.32733	234
3.33100	233
3.33467	231
3.33833	228
3.34200	223
3.34567	219
3.34933	216
3.35300	208
3.35667	202
3.36033	199
3.36400	197
3.36767	192
3.37133	190
3.37500	190
3.37867	194
3.38233	201
3.38600	207
3.38967	210
3.39333	209
3.39700	203
3.40067	193
3.40433	185
3.40800	183
3.41167	188
3.41533	195
3.41900	200
3.42267	201
3.42633	200
3.43000	198
3.43367	200
3.43733	203
3.44100	203
3.44467	199
3.44833	195
3.45200	193
3.45567	190
3.45933	187
3.46300	183
3.46667	178
3.47033	174
3.47400	172
3.47767	174
3.48133	177
3.48500	177
3.48867	177
3.49233	178
3.49600	181
3.49967	183
3.50333	182
3.50700	181
3.51067	183
3.51433	185
3.51800	185
3.52167	186
3.52533	189
3.52900	192
3.53267	194
3.53633	196
3.54000	197
3.54367	197
3.54733	196
3.55100	195
3.55467	193
3.55833	191
3.56200	188
3.56567	183
3.56933	179
3.57300	177
3.57667	177
3.58033	180
3.58400	183
3.58767	185
3.59133	183
3.59500	180
3.59867	178
3.60233	176
3.60600	173
3.60967	171
3.61333	173
3.61700	177
3.62067	178
3.62433	178
3.62800	178
3.63167	176
3.63533	169
3.63900	161
3.64267	156
3.64633	153
3.65000	149
3.65367	146
3.65733	144
3.66100	144
3.66467	147
3.66833	150
3.67200	154
3.67567	160
3.67933	164
3.68300	167
3.68667	169
3.69033	171
3.69400	175
3.69767	178
3.70133	177
3.70500	175
3.70867	175
3.71233	176
3.71600	177
3.71967	175
3.72333	167
3.72700	157
3.73067	145
3.73433	132
3.73800	121
3.74167	117
3.74533	121
3.74900	129
3.75267	139
3.75633	146
3.76000	150
3.76367	153
3.76733	154
3.77100	151
3.77467	147
3.77833	144
3.78200	144
3.78567	147
3.78933	150
3.79300	152
3.79667	152
3.80033	147
3.80400	144
3.80767	141
3.81133	139
3.81500	140
3.81867	142
3.82233	144
3.82600	148
3.82967	152
3.83333	157
3.83700	164
3.84067	172
3.84433	177
3.84800	174
3.85167	164
3.85533	153
3.85900	144
3.86267	138
3.86633	132
3.87000	127
3.87367	123
3.87733	125
3.88100	131
3.88467	136
3.88833	135
3.89200	130
3.89567	124
3.89933	120
3.90300	120
3.90667	120
3.91033	118
3.91400	116
3.91767	114
3.92133	114
3.92500	110
3.92867	106
3.93233	105
3.93600	105
3.93967	106
3.94333	103
3.94700	102
3.95067	104
3.95433	111
3.95800	119
3.96167	126
3.96533	128
3.96900	122
3.97267	115
3.97633	111
3.98000	110
3.98367	115
3.98733	120
3.99100	126
3.99467	132
3.99833	135

[Chromatogram (Ch2)]
Interval(msec)	220
# of Points	1091
Start Time(min)	0.002
End Time(min)	3.998
R.Time (min)	Intensity
0.00167	1
0.00533	1
0.00900	1
0.01267	1
0.01633	1
0.02000	1
0.02367	1
0.02733	1
0.03100	1
0.03467	1
0.03833	1
0.04200	1
0.04567	1
0.04933	1
0.05300	2
0.05667	2
0.06033	2
0.06400	2
0.06767	2
0.07133	2
0.07500	1
0.07867	1
0.08233	1
0.08600	2
0.08967	2
0.09333	2
0.09700	2
0.10067	2
0.10433	2
0.10800	2
0.11167	2
0.11533	2
0.11900	2
0.12267	2
0.12633	2
0.13000	2
0.13367	1
0.13733	1
0.14100	1
0.14467	1
0.14833	0
0.15200	-0
0.15567	-0
0.15933	-1
0.16300	-1
0.16667	-1
0.17033	-1
0.17400	-1
0.17767	-2
0.18133	-2
0.18500	-2
0.18867	-3
0.19233	-3
0.19600	-3
0.19967	-3
0.20333	-3
0.20700	-3
0.21067	-3
0.21433	-3
0.21800	-3
0.22167	-3
0.22533	-3
0.22900	-2
0.23267	-2
0.23633	-2
0.24000	-2
0.24367	-2
0.24733	-2
0.25100	-1
0.25467	-1
0.25833	-1
0.26200	-1
0.26567	-1
0.26933	-1
0.27300	-1
0.27667	-1
0.28033	-1
0.28400	-1
0.28767	-1
0.29133	-1
0.29500	-1
0.29867	-1
0.30233	-1
0.30600	-1
0.30967	-1
0.31333	-1
0.31700	-1
0.32067	-1
0.32433	-1
0.32800	-1
0.33167	-0
0.33533	-0
0.33900	-0
0.34267	-0
0.34633	-0
0.35000	-0
0.35367	-1
0.35733	-1
0.36100	-1
0.36467	-1
0.36833	-0
0.37200	-0
0.37567	-1
0.37933	-1
0.38300	-1
0.38667	-1
0.39033	-1
0.39400	-1
0.39767	-2
0.40133	-2
0.40500	-1
0.40867	-1
0.41233	-1
0.41600	-0
0.41967	0
0.42333	0
0.42700	0
0.43067	0
0.43433	0
0.43800	-0
0.44167	-1
0.44533	-1
0.44900	-2
0.45267	-2
0.45633	-3
0.46000	-3
0.46367	-4
0.46733	-4
0.47100	-4
0.47467	-4
0.47833	-4
0.48200	-4
0.48567	-3
0.48933	-3
0.49300	-3
0.49667	-3
0.50033	-3
0.50400	-3
0.50767	-3
0.51133	-3
0.51500	-3
0.51867	-3
0.52233	-3
0.52600	-2
0.52967	-2
0.53333	-1
0.53700	-1
0.54067	-1
0.54433	-1
0.54800	-1
0.55167	-1
0.55533	-1
0.55900	-0
0.56267	-0
0.56633	0
0.57000	0
0.57367	1
0.57733	1
0.58100	1
0.58467	1
0.58833	1
0.59200	0
0.59567	0
0.59933	-1
0.60300	-1
0.60667	-1
0.61033	-2
0.61400	-2
0.61767	-3
0.62133	-3
0.62500	-3
0.62867	-3
0.63233	-3
0.63600	-3
0.63967	-3
0.64333	-3
0.64700	-2
0.65067	-2
0.65433	-2
0.65800	-1
0.66167	-1
0.66533	-1
0.66900	-1
0.67267	-1
0.67633	-0
0.68000	0
0.68367	1
0.68733	1
0.69100	1
0.69467	2
0.69833	2
0.70200	2
0.70567	2
0.70933	2
0.71300	1
0.71667	1
0.72033	1
0.72400	0
0.72767	-0
0.73133	-1
0.73500	-1
0.73867	-1
0.74233	-1
0.74600	-1
0.74967	-2
0.75333	-2
0.75700	-2
0.76067	-2
0.76433	-2
0.76800	-2
0.77167	-2
0.77533	-2
0.77900	-2
0.78267	-2
0.78633	-2
0.79000	-2
0.79367	-2
0.79733	-2
0.80100	-1
0.80467	-1
0.80833	-1
0.81200	-1
0.81567	-1
0.81933	-0
0.82300	-0
0.82667	-0
0.83033	-0
0.83400	-0
0.83767	-1
0.84133	-1
0.84500	-1
0.84867	-1
0.85233	-2
0.85600	-2
0.85967	-3
0.86333	-3
0.86700	-4
0.87067	-4
0.87433	-4
0.87800	-4
0.88167	-5
0.88533	-5
0.88900	-5
0.89267	-5
0.89633	-5
0.90000	-5
0.90367	-5
0.90733	-5
0.91100	-5
0.91467	-5
0.91833	-5
0.92200	-5
0.92567	-4
0.92933	-4
0.93300	-4
0.93667	-4
0.94033	-3
0.94400	-3
0.94767	-3
0.95133	-3
0.95500	-2
0.95867	-2
0.96233	-2
0.96600	-2
0.96967	-3
0.97333	-3
0.97700	-3
0.98067	-3
0.98433	-3
0.98800	-3
0.99167	-3
0.99533	-3
0.99900	-3
1.00267	-3
1.00633	-3
1.01000	-3
1.01367	-3
1.01733	-3
1.02100	-3
1.02467	-3
1.02833	-3
1.03200	-2
1.03567	-2
1.03933	-2
1.04300	-2
1.04667	-2
1.05033	-2
1.05400	-2
1.05767	-2
1.06133	-2
1.06500	-2
1.06867	-2
1.07233	-2
1.07600	-2
1.07967	-2
1.08333	-2
1.08700	-2
1.09067	-2
1.09433	-3
1.09800	-3
1.10167	-4
1.10533	-4
1.10900	-5
1.11267	-5
1.11633	-5
1.12000	-5
1.12367	-5
1.12733	-5
1.13100	-5
1.13467	-5
1.13833	-5
1.14200	-4
1.14567	-4
1.14933	-3
1.15300	-3
1.15667	-3
1.16033	-3
1.16400	-3
1.16767	-3
1.17133	-3
1.17500	-3
1.17867	-3
1.18233	-3
1.18600	-3
1.18967	-3
1.19333	-3
1.19700	-3
1.20067	-3
1.20433	-3
1.20800	-3
1.21167	-3
1.21533	-3
1.21900	-3
1.22267	-3
1.22633	-3
1.23000	-3
1.23367	-3
1.23733	-3
1.24100	-3
1.24467	-3
1.24833	-3
1.25200	-3
1.25567	-3
1.25933	-3
1.26300	-2
1.26667	-3
1.27033	-3
1.27400	-3
1.27767	-3
1.28133	-4
1.28500	-4
1.28867	-4
1.29233	-4
1.29600	-5
1.29967	-5
1.30333	-5
1.30700	-5
1.31067	-4
1.31433	-4
1.31800	-4
1.32167	-3
1.32533	-3
1.32900	-3
1.33267	-3
1.33633	-3
1.34000	-3
1.34367	-3
1.34733	-3
1.35100	-3
1.35467	-3
1.35833	-3
1.36200	-3
1.36567	-3
1.36933	-3
1.37300	-3
1.37667	-3
1.38033	-3
1.38400	-3
1.38767	-4
1.39133	-3
1.39500	-3
1.39867	-3
1.40233	-4
1.40600	-4
1.40967	-4
1.41333	-5
1.41700	-5
1.42067	-5
1.42433	-5
1.42800	-5
1.43167	-5
1.43533	-4
1.43900	-4
1.44267	-4
1.44633	-4
1.45000	-4
1.45367	-4
1.45733	-3
1.46100	-3
1.46467	-3
1.46833	-3
1.47200	-3
1.47567	-4
1.47933	-4
1.48300	-3
1.48667	-3
1.49033	-3
1.49400	-3
1.49767	-3
1.50133	-3
1.50500	-4
1.50867	-4
1.51233	-4
1.51600	-4
1.51967	-5
1.52333	-5
1.52700	-5
1.53067	-5
1.53433	-5
1.53800	-5
1.54167	-5
1.54533	-5
1.54900	-6
1.55267	-5
1.55633	-5
1.56000	-5
1.56367	-5
1.56733	-5
1.57100	-5
1.57467	-5
1.57833	-5
1.58200	-5
1.58567	-5
1.58933	-5
1.59300	-5
1.59667	-5
1.60033	-6
1.60400	-6
1.60767	-7
1.61133	-9
1.61500	-11
1.61867	-13
1.62233	-15
1.62600	-17
1.62967	-20
1.63333	-23
1.63700	-26
1.64067	-30
1.64433	-33
1.64800	-37
1.65167	-41
1.65533	-45
1.65900	-50
1.66267	-55
1.66633	-61
1.67000	-66
1.67367	-72
1.67733	-77
1.68100	-83
1.68467	-88
1.68833	-92
1.69200	-96
1.69567	-99
1.69933	-102
1.70300	-104
1.70667	-106
1.71033	-107
1.71400	-108
1.71767	-109
1.72133	-110
1.72500	-111
1.72867	-112
1.73233	-112
1.73600	-112
1.73967	-112
1.74333	-113
1.74700	-113
1.75067	-113
1.75433	-113
1.75800	-113
1.76167	-113
1.76533	-114
1.76900	-114
1.77267	-115
1.77633	-115
1.78000	-115
1.78367	-115
1.78733	-115
1.79100	-115
1.79467	-115
1.79833	-115
1.80200	-115
1.80567	-116
1.80933	-116
1.81300	-116
1.81667	-117
1.82033	-118
1.82400	-118
1.82767	-119
1.83133	-119
1.83500	-120
1.83867	-120
1.84233	-120
1.84600	-120
1.84967	-120
1.85333	-119
1.85700	-119
1.86067	-119
1.86433	-119
1.86800	-119
1.87167	-119
1.87533	-119
1.87900	-119
1.88267	-118
1.88633	-118
1.89000	-118
1.89367	-118
1.89733	-118
1.90100	-118
1.90467	-118
1.90833	-118
1.91200	-117
1.91567	-117
1.91933	-117
1.92300	-117
1.92667	-117
1.93033	-117
1.93400	-116
1.93767	-116
1.94133	-116
1.94500	-115
1.94867	-115
1.95233	-114
1.95600	-114
1.95967	-114
1.96333	-114
1.96700	-114
1.97067	-114
1.97433	-113
1.97800	-113
1.98167	-112
1.98533	-111
1.98900	-111
1.99267	-110
1.99633	-110
2.00000	-110
2.00367	-110
2.00733	-110
2.01100	-110
2.01467	-109
2.01833	-110
2.02200	-110
2.02567	-110
2.02933	-110
2.03300	-110
2.03667	-110
2.04033	-110
2.04400	-110
2.04767	-110
2.05133	-109
2.05500	-108
2.05867	-108
2.06233	-107
2.06600	-107
2.06967	-106
2.07333	-106
2.07700	-106
2.08067	-106
2.08433	-106
2.08800	-106
2.09167	-105
2.09533	-105
2.09900	-105
2.10267	-105
2.10633	-105
2.11000	-104
2.11367	-103
2.11733	-103
2.12100	-102
2.12467	-102
2.12833	-101
2.13200	-101
2.13567	-101
2.13933	-101
2.14300	-100
2.14667	-99
2.15033	-99
2.15400	-98
2.15767	-98
2.16133	-98
2.16500	-97
2.16867	-97
2.17233	-96
2.17600	-96
2.17967	-95
2.18333	-95
2.18700	-95
2.19067	-95
2.19433	-94
2.19800	-94
2.20167	-95
2.20533	-95
2.20900	-95
2.21267	-96
2.21633	-96
2.22000	-96
2.22367	-96
2.22733	-95
2.23100	-94
2.23467	-93
2.23833	-92
2.24200	-91
2.24567	-91
2.24933	-91
2.25300	-92
2.25667	-93
2.26033	-94
2.26400	-94
2.26767	-94
2.27133	-94
2.27500	-93
2.27867	-92
2.28233	-91
2.28600	-89
2.28967	-88
2.29333	-87
2.29700	-86
2.30067	-86
2.30433	-86
2.30800	-86
2.31167	-86
2.31533	-87
2.31900	-87
2.32267	-87
2.32633	-87
2.33000	-87
2.33367	-86
2.33733	-85
2.34100	-85
2.34467	-84
2.34833	-83
2.35200	-82
2.35567	-81
2.35933	-80
2.36300	-80
2.36667	-78
2.37033	-77
2.37400	-74
2.37767	-71
2.38133	-68
2.38500	-64
2.38867	-60
2.39233	-55
2.39600	-51
2.39967	-47
2.40333	-43
2.40700	-39
2.41067	-35
2.41433	-32
2.41800	-29
2.42167	-26
2.42533	-24
2.42900	-23
2.43267	-21
2.43633	-20
2.44000	-18
2.44367	-16
2.44733	-15
2.45100	-13
2.45467	-11
2.45833	-9
2.46200	-7
2.46567	-5
2.46933	-3
2.47300	-1
2.47667	-0
2.48033	1
2.48400	2
2.48767	3
2.49133	4
2.49500	5
2.49867	6
2.50233	6
2.50600	7
2.50967	8
2.51333	9
2.51700	9
2.52067	9
2.52433	10
2.52800	10
2.53167	10
2.53533	11
2.53900	11
2.54267	12
2.54633	12
2.55000	13
2.55367	13
2.55733	13
2.56100	13
2.56467	13
2.56833	13
2.57200	13
2.57567	13
2.57933	13
2.58300	14
2.58667	14
2.59033	15
2.59400	15
2.59767	16
2.60133	16
2.60500	16
2.60867	16
2.61233	16
2.61600	15
2.61967	15
2.62333	15
2.62700	15
2.63067	16
2.63433	16
2.63800	17
2.64167	17
2.64533	18
2.64900	18
2.65267	18
2.65633	19
2.66000	19
2.66367	19
2.66733	19
2.67100	18
2.67467	18
2.67833	18
2.68200	18
2.68567	18
2.68933	18
2.69300	19
2.69667	19
2.70033	19
2.70400	20
2.70767	21
2.71133	21
2.71500	21
2.71867	21
2.72233	21
2.72600	21
2.72967	21
2.73333	21
2.73700	22
2.74067	22
2.74433	22
2.74800	22
2.75167	23
2.75533	23
2.75900	23
2.76267	24
2.76633	24
2.77000	24
2.77367	25
2.77733	25
2.78100	25
2.78467	25
2.78833	24
2.79200	24
2.79567	23
2.79933	23
2.80300	22
2.80667	22
2.81033	21
2.81400	21
2.81767	21
2.82133	21
2.82500	22
2.82867	22
2.83233	22
2.83600	21
2.83967	20
2.84333	18
2.84700	14
2.85067	7
2.85433	-3
2.85800	-16
2.86167	-34
2.86533	-55
2.86900	-81
2.87267	-111
2.87633	-145
2.88000	-183
2.88367	-224
2.88733	-269
2.89100	-317
2.89467	-367
2.89833	-418
2.90200	-471
2.90567	-525
2.90933	-579
2.91300	-632
2.91667	-686
2.92033	-739
2.92400	-791
2.92767	-843
2.93133	-896
2.93500	-954
2.93867	-1014
2.94233	-1067
2.94600	-1102
2.94967	-1112
2.95333	-1097
2.95700	-1057
2.96067	-1000
2.96433	-929
2.96800	-851
2.97167	-770
2.97533	-689
2.97900	-611
2.98267	-539
2.98633	-471
2.99000	-410
2.99367	-355
2.99733	-306
3.00100	-263
3.00467	-225
3.00833	-192
3.01200	-163
3.01567	-138
3.01933	-116
3.02300	-98
3.02667	-82
3.03033	-69
3.03400	-58
3.03767	-48
3.04133	-39
3.04500	-32
3.04867	-26
3.05233	-21
3.05600	-16
3.05967	-12
3.06333	-9
3.06700	-6
3.07067	-3
3.07433	-1
3.07800	1
3.08167	2
3.08533	4
3.08900	5
3.09267	7
3.09633	8
3.10000	9
3.10367	10
3.10733	10
3.11100	11
3.11467	12
3.11833	13
3.12200	14
3.12567	14
3.12933	15
3.13300	15
3.13667	15
3.14033	16
3.14400	16
3.14767	16
3.15133	16
3.15500	16
3.15867	16
3.16233	16
3.16600	16
3.16967	16
3.17333	17
3.17700	17
3.18067	17
3.18433	17
3.18800	17
3.19167	17
3.19533	17
3.19900	18
3.20267	18
3.20633	18
3.21000	18
3.21367	18
3.21733	18
3.22100	18
3.22467	19
3.22833	19
3.23200	19
3.23567	20
3.23933	20
3.24300	20
3.24667	20
3.25033	20
3.25400	20
3.25767	20
3.26133	20
3.26500	20
3.26867	20
3.27233	20
3.27600	20
3.27967	21
3.28333	21
3.28700	21
3.29067	21
3.29433	21
3.29800	22
3.30167	22
3.30533	22
3.30900	23
3.31267	23
3.31633	24
3.32000	24
3.32367	25
3.32733	25
3.33100	25
3.33467	25
3.33833	26
3.34200	26
3.34567	26
3.34933	26
3.35300	26
3.35667	26
3.36033	26
3.36400	26
3.36767	26
3.37133	26
3.37500	26
3.37867	26
3.38233	26
3.38600	26
3.38967	26
3.39333	26
3.39700	26
3.40067	27
3.40433	27
3.40800	27
3.41167	27
3.41533	27
3.41900	27
3.42267	27
3.42633	27
3.43000	27
3.43367	27
3.43733	27
3.44100	27
3.44467	27
3.44833	26
3.45200	26
3.45567	26
3.45933	26
3.46300	26
3.46667	26
3.47033	25
3.47400	25
3.47767	25
3.48133	24
3.48500	24
3.48867	24
3.49233	24
3.49600	24
3.49967	24
3.50333	24
3.50700	24
3.51067	24
3.51433	24
3.51800	25
3.52167	25
3.52533	25
3.52900	25
3.53267	25
3.53633	26
3.54000	26
3.54367	26
3.54733	26
3.55100	26
3.55467	26
3.55833	25
3.56200	25
3.56567	25
3.56933	25
3.57300	25
3.57667	24
3.58033	24
3.58400	24
3.58767	24
3.59133	24
3.59500	24
3.59867	24
3.60233	24
3.60600	24
3.60967	24
3.61333	24
3.61700	25
3.62067	25
3.62433	25
3.62800	25
3.63167	25
3.63533	25
3.63900	25
3.64267	25
3.64633	25
3.65000	24
3.65367	24
3.65733	24
3.66100	24
3.66467	24
3.66833	24
3.67200	23
3.67567	23
3.67933	23
3.68300	23
3.68667	22
3.69033	22
3.69400	22
3.69767	22
3.70133	22
3.70500	22
3.70867	22
3.71233	22
3.71600	22
3.71967	23
3.72333	23
3.72700	23
3.73067	23
3.73433	24
3.73800	24
3.74167	24
3.74533	24
3.74900	24
3.75267	24
3.75633	25
3.76000	25
3.76367	25
3.76733	25
3.77100	25
3.77467	25
3.77833	25
3.78200	25
3.78567	25
3.78933	25
3.79300	25
3.79667	25
3.80033	25
3.80400	25
3.80767	24
3.81133	24
3.81500	24
3.81867	24
3.82233	24
3.82600	24
3.82967	24
3.83333	24
3.83700	24
3.84067	24
3.84433	24
3.84800	24
3.85167	24
3.85533	24
3.85900	24
3.86267	24
3.86633	24
3.87000	23
3.87367	23
3.87733	24
3.88100	24
3.88467	24
3.88833	24
3.89200	24
3.89567	25
3.89933	25
3.90300	25
3.90667	25
3.91033	25
3.91400	25
3.91767	25
3.92133	26
3.92500	26
3.92867	26
3.93233	26
3.93600	25
3.93967	25
3.94333	25
3.94700	25
3.95067	24
3.95433	24
3.95800	24
3.96167	24
3.96533	24
3.96900	24
3.97267	24
3.97633	24
3.98000	24
3.98367	24
3.98733	24
3.99100	24
3.99467	24
3.99833	24

[Chromatogram (Ch3)]
Interval(msec)	220
# of Points	1091
Start Time(min)	0.002
End Time(min)	3.998
R.Time (min)	Intensity
0.00167	-1
0.00533	1
0.00900	5
0.01267	7
0.01633	7
0.02000	5
0.02367	3
0.02733	2
0.03100	1
0.03467	4
0.03833	7
0.04200	8
0.04567	7
0.04933	6
0.05300	5
0.05667	5
0.06033	5
0.06400	5
0.06767	7
0.07133	8
0.07500	8
0.07867	7
0.08233	4
0.08600	1
0.08967	0
0.09333	1
0.09700	2
0.10067	4
0.10433	4
0.10800	5
0.11167	5
0.11533	4
0.11900	3
0.12267	4
0.12633	5
0.13000	5
0.13367	5
0.13733	5
0.14100	5
0.14467	5
0.14833	6
0.15200	5
0.15567	5
0.15933	5
0.16300	6
0.16667	8
0.17033	9
0.17400	9
0.17767	9
0.18133	8
0.18500	8
0.18867	7
0.19233	6
0.19600	8
0.19967	9
0.20333	10
0.20700	9
0.21067	8
0.21433	6
0.21800	6
0.22167	7
0.22533	8
0.22900	9
0.23267	10
0.23633	9
0.24000	8
0.24367	8
0.24733	8
0.25100	7
0.25467	7
0.25833	6
0.26200	6
0.26567	6
0.26933	6
0.27300	6
0.27667	7
0.28033	10
0.28400	9
0.28767	6
0.29133	6
0.29500	5
0.29867	4
0.30233	5
0.30600	6
0.30967	7
0.31333	7
0.31700	8
0.32067	9
0.32433	10
0.32800	10
0.33167	9
0.33533	8
0.33900	7
0.34267	4
0.34633	3
0.35000	8
0.35367	12
0.35733	14
0.36100	15
0.36467	14
0.36833	13
0.37200	16
0.37567	19
0.37933	21
0.38300	19
0.38667	19
0.39033	20
0.39400	20
0.39767	19
0.40133	18
0.40500	17
0.40867	18
0.41233	17
0.41600	18
0.41967	19
0.42333	18
0.42700	18
0.43067	17
0.43433	16
0.43800	17
0.44167	17
0.44533	17
0.44900	18
0.45267	19
0.45633	18
0.46000	17
0.46367	18
0.46733	19
0.47100	21
0.47467	21
0.47833	22
0.48200	26
0.48567	26
0.48933	24
0.49300	25
0.49667	27
0.50033	27
0.50400	25
0.50767	24
0.51133	23
0.51500	23
0.51867	23
0.52233	23
0.52600	23
0.52967	23
0.53333	20
0.53700	20
0.54067	21
0.54433	21
0.54800	20
0.55167	19
0.55533	19
0.55900	19
0.56267	18
0.56633	20
0.57000	19
0.57367	17
0.57733	17
0.58100	17
0.58467	17
0.58833	20
0.59200	24
0.59567	28
0.59933	30
0.60300	30
0.60667	31
0.61033	32
0.61400	34
0.61767	34
0.62133	32
0.62500	31
0.62867	32
0.63233	33
0.63600	32
0.63967	31
0.64333	30
0.64700	30
0.65067	30
0.65433	30
0.65800	28
0.66167	28
0.66533	29
0.66900	30
0.67267	30
0.67633	32
0.68000	32
0.68367	34
0.68733	35
0.69100	35
0.69467	37
0.69833	40
0.70200	41
0.70567	39
0.70933	36
0.71300	33
0.71667	31
0.72033	31
0.72400	32
0.72767	33
0.73133	32
0.73500	31
0.73867	29
0.74233	29
0.74600	28
0.74967	28
0.75333	29
0.75700	31
0.76067	34
0.76433	32
0.76800	30
0.77167	29
0.77533	30
0.77900	28
0.78267	28
0.78633	28
0.79000	28
0.79367	30
0.79733	30
0.80100	31
0.80467	30
0.80833	29
0.81200	29
0.81567	27
0.81933	23
0.82300	23
0.82667	26
0.83033	27
0.83400	28
0.83767	27
0.84133	27
0.84500	26
0.84867	25
0.85233	23
0.85600	23
0.85967	25
0.86333	26
0.86700	29
0.87067	30
0.87433	29
0.87800	26
0.88167	26
0.88533	27
0.88900	28
0.89267	30
0.89633	31
0.90000	31
0.90367	29
0.90733	27
0.91100	27
0.91467	24
0.91833	25
0.92200	26
0.92567	25
0.92933	24
0.93300	26
0.93667	28
0.94033	28
0.94400	28
0.94767	26
0.95133	24
0.95500	24
0.95867	27
0.96233	28
0.96600	26
0.96967	25
0.97333	24
0.97700	24
0.98067	25
0.98433	27
0.98800	27
0.99167	27
0.99533	27
0.99900	28
1.00267	27
1.00633	26
1.01000	28
1.01367	26
1.01733	26
1.02100	26
1.02467	25
1.02833	25
1.03200	25
1.03567	25
1.03933	23
1.04300	22
1.04667	24
1.05033	28
1.05400	28
1.05767	28
1.06133	29
1.06500	31
1.06867	31
1.07233	35
1.07600	37
1.07967	36
1.08333	33
1.08700	30
1.09067	30
1.09433	29
1.09800	29
1.10167	28
1.10533	27
1.10900	25
1.11267	24
1.11633	24
1.12000	25
1.12367	28
1.12733	30
1.13100	31
1.13467	31
1.13833	30
1.14200	32
1.14567	34
1.14933	34
1.15300	32
1.15667	33
1.16033	35
1.16400	36
1.16767	37
1.17133	37
1.17500	38
1.17867	37
1.18233	36
1.18600	35
1.18967	35
1.19333	34
1.19700	34
1.20067	33
1.20433	35
1.20800	35
1.21167	35
1.21533	36
1.21900	37
1.22267	39
1.22633	40
1.23000	40
1.23367	38
1.23733	36
1.24100	35
1.24467	34
1.24833	34
1.25200	35
1.25567	35
1.25933	36
1.26300	36
1.26667	36
1.27033	37
1.27400	36
1.27767	35
1.28133	35
1.28500	37
1.28867	38
1.29233	38
1.29600	38
1.29967	37
1.30333	38
1.30700	37
1.31067	36
1.31433	35
1.31800	36
1.32167	36
1.32533	38
1.32900	40
1.33267	42
1.33633	44
1.34000	45
1.34367	44
1.34733	42
1.35100	40
1.35467	41
1.35833	42
1.36200	42
1.36567	41
1.36933	39
1.37300	37
1.37667	36
1.38033	37
1.38400	37
1.38767	37
1.39133	38
1.39500	40
1.39867	41
1.40233	41
1.40600	40
1.40967	40
1.41333	42
1.41700	46
1.42067	47
1.42433	43
1.42800	39
1.43167	38
1.43533	38
1.43900	38
1.44267	38
1.44633	39
1.45000	38
1.45367	39
1.45733	37
1.46100	34
1.46467	36
1.46833	38
1.47200	38
1.47567	35
1.47933	36
1.48300	35
1.48667	33
1.49033	34
1.49400	35
1.49767	35
1.50133	36
1.50500	40
1.50867	41
1.51233	41
1.51600	41
1.51967	40
1.52333	39
1.52700	38
1.53067	39
1.53433	40
1.53800	40
1.54167	41
1.54533	41
1.54900	39
1.55267	39
1.55633	40
1.56000	42
1.56367	44
1.56733	44
1.57100	43
1.57467	43
1.57833	43
1.58200	42
1.58567	42
1.58933	42
1.59300	43
1.59667	41
1.60033	40
1.60400	40
1.60767	41
1.61133	43
1.61500	46
1.61867	47
1.62233	46
1.62600	45
1.62967	43
1.63333	42
1.63700	42
1.64067	44
1.64433	46
1.64800	47
1.65167	49
1.65533	51
1.65900	50
1.66267	49
1.66633	50
1.67000	51
1.67367	52
1.67733	51
1.68100	52
1.68467	53
1.68833	54
1.69200	55
1.69567	55
1.69933	57
1.70300	58
1.70667	57
1.71033	55
1.71400	52
1.71767	53
1.72133	55
1.72500	55
1.72867	56
1.73233	58
1.73600	58
1.73967	59
1.74333	61
1.74700	63
1.75067	64
1.75433	65
1.75800	65
1.76167	66
1.76533	65
1.76900	64
1.77267	63
1.77633	64
1.78000	66
1.78367	64
1.78733	63
1.79100	66
1.79467	68
1.79833	69
1.80200	71
1.80567	72
1.80933	73
1.81300	74
1.81667	73
1.82033	73
1.82400	74
1.82767	74
1.83133	74
1.83500	74
1.83867	75
1.84233	77
1.84600	81
1.84967	83
1.85333	81
1.85700	80
1.86067	80
1.86433	80
1.86800	81
1.87167	82
1.87533	82
1.87900	84
1.88267	84
1.88633	83
1.89000	81
1.89367	82
1.89733	84
1.90100	88
1.90467	90
1.90833	90
1.91200	90
1.91567	89
1.91933	88
1.92300	90
1.92667	93
1.93033	95
1.93400	95
1.93767	96
1.94133	97
1.94500	95
1.94867	93
1.95233	93
1.95600	92
1.95967	92
1.96333	94
1.96700	97
1.97067	97
1.97433	96
1.97800	96
1.98167	97
1.98533	97
1.98900	96
1.99267	97
1.99633	99
2.00000	100
2.00367	102
2.00733	103
2.01100	105
2.01467	108
2.01833	109
2.02200	110
2.02567	109
2.02933	109
2.03300	109
2.03667	107
2.04033	106
2.04400	108
2.04767	109
2.05133	111
2.05500	113
2.05867	116
2.06233	118
2.06600	119
2.06967	119
2.07333	120
2.07700	123
2.08067	123
2.08433	123
2.08800	121
2.09167	120
2.09533	121
2.09900	121
2.10267	123
2.10633	126
2.11000	128
2.11367	129
2.11733	129
2.12100	130
2.12467	133
2.12833	133
2.13200	133
2.13567	134
2.13933	135
2.14300	137
2.14667	139
2.15033	142
2.15400	142
2.15767	142
2.16133	142
2.16500	143
2.16867	145
2.17233	147
2.17600	147
2.17967	148
2.18333	150
2.18700	153
2.19067	156
2.19433	158
2.19800	159
2.20167	160
2.20533	160
2.20900	160
2.21267	160
2.21633	161
2.22000	162
2.22367	164
2.22733	166
2.23100	164
2.23467	163
2.23833	165
2.24200	167
2.24567	168
2.24933	169
2.25300	171
2.25667	170
2.26033	170
2.26400	173
2.26767	175
2.27133	178
2.27500	179
2.27867	179
2.28233	178
2.28600	179
2.28967	178
2.29333	178
2.29700	179
2.30067	179
2.30433	179
2.30800	181
2.31167	183
2.31533	185
2.31900	187
2.32267	189
2.32633	192
2.33000	194
2.33367	194
2.33733	194
2.34100	193
2.34467	195
2.34833	197
2.35200	198
2.35567	199
2.35933	201
2.36300	202
2.36667	203
2.37033	205
2.37400	207
2.37767	206
2.38133	207
2.38500	211
2.38867	211
2.39233	211
2.39600	214
2.39967	219
2.40333	223
2.40700	228
2.41067	229
2.41433	227
2.41800	227
2.42167	226
2.42533	226
2.42900	229
2.43267	232
2.43633	234
2.44000	239
2.44367	269
2.44733	350
2.45100	433
2.45467	498
2.45833	541
2.46200	548
2.46567	528
2.46933	501
2.47300	477
2.47667	460
2.48033	449
2.48400	439
2.48767	426
2.49133	408
2.49500	386
2.49867	364
2.50233	348
2.50600	337
2.50967	327
2.51333	319
2.51700	315
2.52067	312
2.52433	311
2.52800	314
2.53167	322
2.53533	333
2.53900	342
2.54267	347
2.54633	351
2.55000	349
2.55367	344
2.55733	336
2.56100	327
2.56467	319
2.56833	311
2.57200	299
2.57567	289
2.57933	280
2.58300	273
2.58667	269
2.59033	266
2.59400	260
2.59767	253
2.60133	241
2.60500	224
2.60867	204
2.61233	182
2.61600	159
2.61967	135
2.62333	112
2.62700	94
2.63067	81
2.63433	74
2.63800	69
2.64167	68
2.64533	68
2.64900	72
2.65267	80
2.65633	90
2.66000	103
2.66367	116
2.66733	128
2.67100	139
2.67467	149
2.67833	156
2.68200	161
2.68567	166
2.68933	172
2.69300	178
2.69667	181
2.70033	182
2.70400	181
2.70767	180
2.71133	182
2.71500	181
2.71867	181
2.72233	184
2.72600	185
2.72967	182
2.73333	181
2.73700	181
2.74067	179
2.74433	180
2.74800	182
2.75167	182
2.75533	181
2.75900	181
2.76267	180
2.76633	179
2.77000	179
2.77367	180
2.77733	180
2.78100	180
2.78467	180
2.78833	183
2.79200	188
2.79567	189
2.79933	188
2.80300	189
2.80667	188
2.81033	186
2.81400	190
2.81767	199
2.82133	218
2.82500	258
2.82867	337
2.83233	477
2.83600	696
2.83967	1009
2.84333	1423
2.84700	1922
2.85067	2477
2.85433	3050
2.85800	3593
2.86167	4059
2.86533	4420
2.86900	4653
2.87267	4745
2.87633	4704
2.88000	4550
2.88367	4313
2.88733	4018
2.89100	3693
2.89467	3358
2.89833	3028
2.90200	2711
2.90567	2413
2.90933	2140
2.91300	1892
2.91667	1674
2.92033	1480
2.92400	1310
2.92767	1161
2.93133	1029
2.93500	914
2.93867	817
2.94233	735
2.94600	663
2.94967	599
2.95333	542
2.95700	494
2.96067	455
2.96433	420
2.96800	391
2.97167	366
2.97533	343
2.97900	324
2.98267	306
2.98633	292
2.99000	279
2.99367	269
2.99733	259
3.00100	252
3.00467	244
3.00833	239
3.01200	235
3.01567	231
3.01933	226
3.02300	222
3.02667	217
3.03033	213
3.03400	212
3.03767	210
3.04133	208
3.04500	202
3.04867	198
3.05233	194
3.05600	192
3.05967	190
3.06333	189
3.06700	186
3.07067	183
3.07433	182
3.07800	183
3.08167	181
3.08533	178
3.08900	174
3.09267	167
3.09633	163
3.10000	162
3.10367	163
3.10733	163
3.11100	162
3.11467	160
3.11833	159
3.12200	161
3.12567	160
3.12933	158
3.13300	159
3.13667	160
3.14033	160
3.14400	158
3.14767	160
3.15133	160
3.15500	159
3.15867	157
3.16233	155
3.16600	155
3.16967	155
3.17333	156
3.17700	157
3.18067	157
3.18433	156
3.18800	153
3.19167	152
3.19533	153
3.19900	154
3.20267	155
3.20633	157
3.21000	158
3.21367	158
3.21733	159
3.22100	161
3.22467	161
3.22833	161
3.23200	162
3.23567	163
3.23933	166
3.24300	168
3.24667	166
3.25033	168
3.25400	169
3.25767	171
3.26133	172
3.26500	172
3.26867	170
3.27233	168
3.27600	170
3.27967	171
3.28333	170
3.28700	168
3.29067	165
3.29433	162
3.29800	158
3.30167	157
3.30533	158
3.30900	159
3.31267	159
3.31633	160
3.32000	160
3.32367	160
3.32733	160
3.33100	160
3.33467	162
3.33833	162
3.34200	160
3.34567	159
3.34933	159
3.35300	160
3.35667	159
3.36033	157
3.36400	156
3.36767	156
3.37133	156
3.37500	156
3.37867	157
3.38233	157
3.38600	156
3.38967	156
3.39333	156
3.39700	155
3.40067	155
3.40433	155
3.40800	156
3.41167	156
3.41533	155
3.41900	154
3.42267	153
3.42633	151
3.43000	150
3.43367	151
3.43733	151
3.44100	150
3.44467	151
3.44833	152
3.45200	153
3.45567	154
3.45933	155
3.46300	153
3.46667	151
3.47033	149
3.47400	148
3.47767	148
3.48133	147
3.48500	146
3.48867	146
3.49233	148
3.49600	148
3.49967	147
3.50333	146
3.50700	146
3.51067	148
3.51433	152
3.51800	152
3.52167	153
3.52533	155
3.52900	156
3.53267	158
3.53633	157
3.54000	155
3.54367	153
3.54733	152
3.55100	153
3.55467	154
3.55833	154
3.56200	155
3.56567	154
3.56933	147
3.57300	138
3.57667	128
3.58033	117
3.58400	108
3.58767	104
3.59133	103
3.59500	104
3.59867	112
3.60233	125
3.60600	143
3.60967	160
3.61333	177
3.61700	191
3.62067	205
3.62433	218
3.62800	230
3.63167	243
3.63533	255
3.63900	266
3.64267	275
3.64633	285
3.65000	297
3.65367	309
3.65733	320
3.66100	330
3.66467	339
3.66833	347
3.67200	356
3.67567	364
3.67933	369
3.68300	374
3.68667	380
3.69033	386
3.69400	391
3.69767	395
3.70133	397
3.70500	398
3.70867	395
3.71233	394
3.71600	393
3.71967	389
3.72333	386
3.72700	382
3.73067	377
3.73433	372
3.73800	367
3.74167	365
3.74533	363
3.74900	362
3.75267	360
3.75633	358
3.76000	357
3.76367	357
3.76733	358
3.77100	356
3.77467	355
3.77833	353
3.78200	352
3.78567	353
3.78933	354
3.79300	354
3.79667	353
3.80033	352
3.80400	351
3.80767	352
3.81133	353
3.81500	353
3.81867	354
3.82233	356
3.82600	356
3.82967	354
3.83333	355
3.83700	356
3.84067	356
3.84433	355
3.84800	356
3.85167	357
3.85533	357
3.85900	355
3.86267	351
3.86633	351
3.87000	351
3.87367	350
3.87733	351
3.88100	351
3.88467	351
3.88833	354
3.89200	353
3.89567	353
3.89933	356
3.90300	357
3.90667	356
3.91033	355
3.91400	353
3.91767	351
3.92133	351
3.92500	351
3.92867	350
3.93233	347
3.93600	344
3.93967	342
3.94333	343
3.94700	343
3.95067	346
3.95433	347
3.95800	349
3.96167	351
3.96533	351
3.96900	348
3.97267	346
3.97633	345
3.98000	343
3.98367	342
3.98733	341
3.99100	341
3.99467	340
3.99833	338

[Status Trace (Column Oven Temperature)]
Interval(msec)	1000
# of Points	240
Start Time(min)	0.016
End Time(min)	3.999
Intensity Units	
Intensity Multiplier	1
R.Time (min)	Intensity
0.01567	35.05
0.03233	35.05
0.04900	35.03
0.06567	35.02
0.08233	35.02
0.09900	35.01
0.11567	35.02
0.13233	35.02
0.14900	35.02
0.16567	35.02
0.18233	35.04
0.19900	35.05
0.21567	35.05
0.23233	35.05
0.24900	35.04
0.26567	35.04
0.28233	35.03
0.29900	35.03
0.31567	35.02
0.33233	35.02
0.34900	35.02
0.36567	35.02
0.38233	35.02
0.39900	35.02
0.41567	35.02
0.43233	35.02
0.44900	35.03
0.46567	35.04
0.48233	35.04
0.49900	35.05
0.51567	35.05
0.53233	35.04
0.54900	35.02
0.56567	35.01
0.58233	35.01
0.59900	35.02
0.61567	35.02
0.63233	35.03
0.64900	35.03
0.66567	35.01
0.68233	34.99
0.69900	34.98
0.71567	34.99
0.73233	34.99
0.74900	34.99
0.76567	34.99
0.78233	34.99
0.79900	34.98
0.81567	34.97
0.83233	34.97
0.84900	34.97
0.86567	34.99
0.88233	34.98
0.89900	35.00
0.91567	34.99
0.93233	34.98
0.94900	34.98
0.96567	34.99
0.98233	34.99
0.99900	34.98
1.01567	34.98
1.03233	34.98
1.04900	34.98
1.06567	34.97
1.08233	34.98
1.09900	34.99
1.11567	35.00
1.13233	35.00
1.14900	35.00
1.16567	34.99
1.18233	34.99
1.19900	34.99
1.21567	35.01
1.23233	35.00
1.24900	34.99
1.26567	34.99
1.28233	35.00
1.29900	35.00
1.31567	34.99
1.33233	34.98
1.34900	34.98
1.36567	34.98
1.38233	34.98
1.39900	34.99
1.41567	35.00
1.43233	34.99
1.44900	34.99
1.46567	34.99
1.48233	34.99
1.49900	35.01
1.51567	35.01
1.53233	35.01
1.54900	35.01
1.56567	35.01
1.58233	35.01
1.59900	35.03
1.61567	35.10
1.63233	35.23
1.64900	35.46
1.66567	35.77
1.68233	36.15
1.69900	36.50
1.71567	36.85
1.73233	37.18
1.74900	37.50
1.76567	37.84
1.78233	38.17
1.79900	38.50
1.81567	38.83
1.83233	39.17
1.84900	39.49
1.86567	39.83
1.88233	40.15
1.89900	40.49
1.91567	40.80
1.93233	41.12
1.94900	41.45
1.96567	41.78
1.98233	42.10
1.99900	42.43
2.01567	42.75
2.03233	43.09
2.04900	43.41
2.06567	43.73
2.08233	44.06
2.09900	44.38
2.11567	44.70
2.13233	45.05
2.14900	45.35
2.16567	45.68
2.18233	46.00
2.19900	46.31
2.21567	46.67
2.23233	46.97
2.24900	47.32
2.26567	47.68
2.28233	47.99
2.29900	48.31
2.31567	48.68
2.33233	48.98
2.34900	49.29
2.36567	49.56
2.38233	49.71
2.39900	49.73
2.41567	49.71
2.43233	49.74
2.44900	49.74
2.46567	49.74
2.48233	49.75
2.49900	49.75
2.51567	49.76
2.53233	49.77
2.54900	49.78
2.56567	49.81
2.58233	49.80
2.59900	49.81
2.61567	49.83
2.63233	49.84
2.64900	49.83
2.66567	49.84
2.68233	49.85
2.69900	49.85
2.71567	49.86
2.73233	49.86
2.74900	49.86
2.76567	49.85
2.78233	49.85
2.79900	49.88
2.81567	49.88
2.83233	49.89
2.84900	49.88
2.86567	49.90
2.88233	49.92
2.89900	49.94
2.91567	49.96
2.93233	49.97
2.94900	49.97
2.96567	49.96
2.98233	49.96
2.99900	49.96
3.01567	49.97
3.03233	49.98
3.04900	49.99
3.06567	50.00
3.08233	50.01
3.09900	50.01
3.11567	50.01
3.13233	50.01
3.14900	50.03
3.16567	50.04
3.18233	50.05
3.19900	50.06
3.21567	50.07
3.23233	50.09
3.24900	50.09
3.26567	50.10
3.28233	50.11
3.29900	50.10
3.31567	50.09
3.33233	50.08
3.34900	50.08
3.36567	50.06
3.38233	50.05
3.39900	50.04
3.41567	50.02
3.43233	50.01
3.44900	50.02
3.46567	50.03
3.48233	50.03
3.49900	50.02
3.51567	50.01
3.53233	50.02
3.54900	50.02
3.56567	50.02
3.58233	50.03
3.59900	50.04
3.61567	50.04
3.63233	50.03
3.64900	50.04
3.66567	50.05
3.68233	50.06
3.69900	50.07
3.71567	50.08
3.73233	50.08
3.74900	50.07
3.76567	50.06
3.78233	50.07
3.79900	50.07
3.81567	50.07
3.83233	50.07
3.84900	50.07
3.86567	50.08
3.88233	50.08
3.89900	50.07
3.91567	50.07
3.93233	50.08
3.94900	50.08
3.96567	50.08
3.98233	50.08
3.99900	50.08

[Status Trace (Injection Unit Temperature)]
Interval(msec)	1000
# of Points	240
Start Time(min)	0.016
End Time(min)	3.999
Intensity Units	
Intensity Multiplier	1
R.Time (min)	Intensity
0.01567	99.98
0.03233	99.98
0.04900	99.98
0.06567	99.98
0.08233	99.98
0.09900	99.98
0.11567	99.98
0.13233	99.98
0.14900	99.98
0.16567	99.98
0.18233	99.99
0.19900	99.98
0.21567	99.98
0.23233	99.98
0.24900	99.99
0.26567	99.98
0.28233	99.98
0.29900	99.98
0.31567	99.98
0.33233	99.99
0.34900	99.98
0.36567	99.99
0.38233	99.98
0.39900	99.99
0.41567	99.99
0.43233	99.99
0.44900	99.98
0.46567	99.99
0.48233	99.99
0.49900	99.99
0.51567	99.99
0.53233	99.99
0.54900	99.99
0.56567	99.98
0.58233	99.98
0.59900	99.98
0.61567	99.99
0.63233	99.98
0.64900	99.98
0.66567	99.98
0.68233	99.99
0.69900	99.99
0.71567	99.98
0.73233	99.99
0.74900	99.98
0.76567	99.98
0.78233	99.98
0.79900	99.99
0.81567	99.98
0.83233	99.98
0.84900	99.98
0.86567	99.98
0.88233	99.98
0.89900	99.98
0.91567	99.98
0.93233	99.98
0.94900	99.98
0.96567	99.98
0.98233	99.98
0.99900	99.98
1.01567	99.98
1.03233	99.98
1.04900	99.98
1.06567	99.98
1.08233	99.98
1.09900	99.98
1.11567	99.98
1.13233	99.98
1.14900	99.98
1.16567	99.98
1.18233	99.98
1.19900	99.98
1.21567	99.98
1.23233	99.98
1.24900	99.98
1.26567	99.98
1.28233	99.98
1.29900	99.98
1.31567	99.98
1.33233	99.98
1.34900	99.98
1.36567	99.98
1.38233	99.98
1.39900	99.98
1.41567	99.98
1.43233	99.98
1.44900	99.98
1.46567	99.99
1.48233	99.98
1.49900	99.98
1.51567	99.98
1.53233	99.98
1.54900	99.99
1.56567	99.98
1.58233	99.99
1.59900	99.98
1.61567	99.99
1.63233	99.99
1.64900	99.99
1.66567	99.99
1.68233	99.99
1.69900	99.99
1.71567	99.98
1.73233	99.99
1.74900	99.99
1.76567	99.99
1.78233	99.99
1.79900	99.99
1.81567	99.98
1.83233	99.99
1.84900	99.99
1.86567	99.98
1.88233	99.98
1.89900	99.99
1.91567	99.98
1.93233	99.98
1.94900	99.98
1.96567	99.98
1.98233	99.98
1.99900	99.98
2.01567	99.98
2.03233	99.98
2.04900	99.97
2.06567	99.98
2.08233	99.98
2.09900	99.97
2.11567	99.97
2.13233	99.97
2.14900	99.97
2.16567	99.97
2.18233	99.97
2.19900	99.97
2.21567	99.97
2.23233	99.97
2.24900	99.97
2.26567	99.97
2.28233	99.96
2.29900	99.97
2.31567	99.96
2.33233	99.97
2.34900	99.97
2.36567	99.96
2.38233	99.96
2.39900	99.96
2.41567	99.97
2.43233	99.96
2.44900	99.96
2.46567	99.97
2.48233	99.97
2.49900	99.97
2.51567	99.97
2.53233	99.97
2.54900	99.97
2.56567	99.96
2.58233	99.97
2.59900	99.98
2.61567	99.97
2.63233	99.97
2.64900	99.98
2.66567	99.98
2.68233	99.98
2.69900	99.98
2.71567	99.98
2.73233	99.99
2.74900	99.99
2.76567	99.99
2.78233	99.99
2.79900	99.99
2.81567	99.99
2.83233	99.99
2.84900	100.00
2.86567	100.00
2.88233	100.00
2.89900	100.00
2.91567	100.00
2.93233	100.00
2.94900	100.00
2.96567	100.01
2.98233	100.01
2.99900	100.01
3.01567	100.01
3.03233	100.01
3.04900	100.02
3.06567	100.01
3.08233	100.02
3.09900	100.02
3.11567	100.02
3.13233	100.02
3.14900	100.02
3.16567	100.02
3.18233	100.02
3.19900	100.03
3.21567	100.02
3.23233	100.02
3.24900	100.02
3.26567	100.02
3.28233	100.02
3.29900	100.03
3.31567	100.03
3.33233	100.03
3.34900	100.02
3.36567	100.03
3.38233	100.03
3.39900	100.03
3.41567	100.03
3.43233	100.03
3.44900	100.03
3.46567	100.03
3.48233	100.03
3.49900	100.03
3.51567	100.03
3.53233	100.03
3.54900	100.03
3.56567	100.03
3.58233	100.03
3.59900	100.03
3.61567	100.03
3.63233	100.04
3.64900	100.03
3.66567	100.03
3.68233	100.04
3.69900	100.03
3.71567	100.04
3.73233	100.03
3.74900	100.04
3.76567	100.04
3.78233	100.04
3.79900	100.04
3.81567	100.04
3.83233	100.04
3.84900	100.04
3.86567	100.04
3.88233	100.04
3.89900	100.04
3.91567	100.04
3.93233	100.04
3.94900	100.04
3.96567	100.04
3.98233	100.04
3.99900	100.04

[Status Trace (Carrier Gas Pressure)]
Interval(msec)	1000
# of Points	240
Start Time(min)	0.016
End Time(min)	3.999
Intensity Units	
Intensity Multiplier	1
R.Time (min)	Intensity
0.01567	56.94
0.03233	55.73
0.04900	58.15
0.06567	59.89
0.08233	58.57
0.09900	57.97
0.11567	58.00
0.13233	58.01
0.14900	58.01
0.16567	58.00
0.18233	58.00
0.19900	58.00
0.21567	58.00
0.23233	58.00
0.24900	58.00
0.26567	58.00
0.28233	58.00
0.29900	58.00
0.31567	58.00
0.33233	58.00
0.34900	58.00
0.36567	58.00
0.38233	58.00
0.39900	58.00
0.41567	58.00
0.43233	58.00
0.44900	58.00
0.46567	58.00
0.48233	58.00
0.49900	58.00
0.51567	58.00
0.53233	58.00
0.54900	58.00
0.56567	58.00
0.58233	58.00
0.59900	58.00
0.61567	58.00
0.63233	58.00
0.64900	58.00
0.66567	58.00
0.68233	58.00
0.69900	58.00
0.71567	58.00
0.73233	58.00
0.74900	58.00
0.76567	58.00
0.78233	58.00
0.79900	58.00
0.81567	58.00
0.83233	58.00
0.84900	58.00
0.86567	58.00
0.88233	58.00
0.89900	58.00
0.91567	58.00
0.93233	58.00
0.94900	58.00
0.96567	58.00
0.98233	58.00
0.99900	58.00
1.01567	58.00
1.03233	58.00
1.04900	58.00
1.06567	58.00
1.08233	58.00
1.09900	58.00
1.11567	58.00
1.13233	58.00
1.14900	58.00
1.16567	58.00
1.18233	58.00
1.19900	58.00
1.21567	58.00
1.23233	58.00
1.24900	58.00
1.26567	58.00
1.28233	58.00
1.29900	58.00
1.31567	58.00
1.33233	58.00
1.34900	58.00
1.36567	58.00
1.38233	58.00
1.39900	58.00
1.41567	58.00
1.43233	58.00
1.44900	58.00
1.46567	58.00
1.48233	58.00
1.49900	58.00
1.51567	58.00
1.53233	58.00
1.54900	58.00
1.56567	58.00
1.58233	58.00
1.59900	58.00
1.61567	58.00
1.63233	58.00
1.64900	58.01
1.66567	58.01
1.68233	58.01
1.69900	58.00
1.71567	58.00
1.73233	58.00
1.74900	58.00
1.76567	58.00
1.78233	58.00
1.79900	58.00
1.81567	58.00
1.83233	58.00
1.84900	58.00
1.86567	58.00
1.88233	58.00
1.89900	58.00
1.91567	58.00
1.93233	58.00
1.94900	58.00
1.96567	58.00
1.98233	58.00
1.99900	58.00
2.01567	58.00
2.03233	58.00
2.04900	58.00
2.06567	58.00
2.08233	58.00
2.09900	58.00
2.11567	58.00
2.13233	58.00
2.14900	58.00
2.16567	58.00
2.18233	58.00
2.19900	58.00
2.21567	58.00
2.23233	58.00
2.24900	58.00
2.26567	58.00
2.28233	58.00
2.29900	58.00
2.31567	58.00
2.33233	58.00
2.34900	58.00
2.36567	58.00
2.38233	57.99
2.39900	57.99
2.41567	58.00
2.43233	58.00
2.44900	58.00
2.46567	58.00
2.48233	58.00
2.49900	58.00
2.51567	57.99
2.53233	57.99
2.54900	58.00
2.56567	58.00
2.58233	58.00
2.59900	58.00
2.61567	58.00
2.63233	58.00
2.64900	58.00
2.66567	58.00
2.68233	58.00
2.69900	58.00
2.71567	58.00
2.73233	58.00
2.74900	58.00
2.76567	58.00
2.78233	58.00
2.79900	58.00
2.81567	58.00
2.83233	58.00
2.84900	58.00
2.86567	58.00
2.88233	58.00
2.89900	58.00
2.91567	58.00
2.93233	58.00
2.94900	58.00
2.96567	58.00
2.98233	58.00
2.99900	58.00
3.01567	58.00
3.03233	58.00
3.04900	58.00
3.06567	58.00
3.08233	58.00
3.09900	58.00
3.11567	58.00
3.13233	58.00
3.14900	58.00
3.16567	58.00
3.18233	58.00
3.19900	58.00
3.21567	58.00
3.23233	58.00
3.24900	58.00
3.26567	58.00
3.28233	58.00
3.29900	58.00
3.31567	58.00
3.33233	58.00
3.34900	58.00
3.36567	58.00
3.38233	58.00
3.39900	58.00
3.41567	58.00
3.43233	58.00
3.44900	58.00
3.46567	58.00
3.48233	58.00
3.49900	58.00
3.51567	58.00
3.53233	58.00
3.54900	58.00
3.56567	58.00
3.58233	58.00
3.59900	58.00
3.61567	58.00
3.63233	58.00
3.64900	58.00
3.66567	58.00
3.68233	58.00
3.69900	58.00
3.71567	58.00
3.73233	58.00
3.74900	58.00
3.76567	58.00
3.78233	58.00
3.79900	58.00
3.81567	58.00
3.83233	58.00
3.84900	58.00
3.86567	58.00
3.88233	58.00
3.89900	58.00
3.91567	58.00
3.93233	58.00
3.94900	58.00
3.96567	58.00
3.98233	58.00
3.99900	58.00

[Status Trace (Carrier Gas Flow)]
Interval(msec)	1000
# of Points	240
Start Time(min)	0.016
End Time(min)	3.999
Intensity Units	
Intensity Multiplier	1
R.Time (min)	Intensity
0.01567	33.83
0.03233	34.54
0.04900	34.54
0.06567	34.51
0.08233	34.52
0.09900	34.52
0.11567	34.52
0.13233	34.52
0.14900	34.52
0.16567	34.52
0.18233	34.52
0.19900	34.52
0.21567	34.52
0.23233	34.52
0.24900	34.52
0.26567	34.52
0.28233	34.52
0.29900	34.52
0.31567	34.52
0.33233	34.52
0.34900	34.52
0.36567	34.52
0.38233	34.52
0.39900	34.51
0.41567	34.52
0.43233	34.52
0.44900	34.52
0.46567	34.52
0.48233	34.52
0.49900	34.52
0.51567	34.52
0.53233	34.52
0.54900	34.52
0.56567	34.52
0.58233	34.51
0.59900	34.51
0.61567	34.53
0.63233	34.51
0.64900	34.51
0.66567	34.52
0.68233	34.52
0.69900	34.52
0.71567	34.52
0.73233	34.52
0.74900	34.52
0.76567	34.52
0.78233	34.52
0.79900	34.52
0.81567	34.52
0.83233	34.52
0.84900	34.52
0.86567	34.52
0.88233	34.52
0.89900	34.52
0.91567	34.52
0.93233	34.52
0.94900	34.52
0.96567	34.52
0.98233	34.52
0.99900	34.52
1.01567	34.52
1.03233	34.52
1.04900	34.52
1.06567	34.52
1.08233	34.52
1.09900	34.52
1.11567	34.52
1.13233	34.52
1.14900	34.52
1.16567	34.52
1.18233	34.52
1.19900	34.52
1.21567	34.52
1.23233	34.52
1.24900	34.52
1.26567	34.52
1.28233	34.52
1.29900	34.52
1.31567	34.52
1.33233	34.52
1.34900	34.52
1.36567	34.52
1.38233	34.52
1.39900	34.52
1.41567	34.52
1.43233	34.52
1.44900	34.52
1.46567	34.52
1.48233	34.51
1.49900	34.52
1.51567	34.52
1.53233	34.52
1.54900	34.52
1.56567	34.51
1.58233	34.51
1.59900	34.51
1.61567	34.52
1.63233	34.53
1.64900	34.52
1.66567	34.53
1.68233	34.52
1.69900	34.51
1.71567	34.52
1.73233	34.52
1.74900	34.53
1.76567	34.52
1.78233	34.52
1.79900	34.52
1.81567	34.52
1.83233	34.52
1.84900	34.52
1.86567	34.52
1.88233	34.52
1.89900	34.52
1.91567	34.52
1.93233	34.52
1.94900	34.52
1.96567	34.52
1.98233	34.52
1.99900	34.52
2.01567	34.52
2.03233	34.52
2.04900	34.52
2.06567	34.52
2.08233	34.52
2.09900	34.52
2.11567	34.52
2.13233	34.52
2.14900	34.52
2.16567	34.52
2.18233	34.52
2.19900	34.52
2.21567	34.52
2.23233	34.52
2.24900	34.52
2.26567	34.52
2.28233	34.52
2.29900	34.52
2.31567	34.52
2.33233	34.52
2.34900	34.52
2.36567	34.52
2.38233	34.52
2.39900	34.52
2.41567	34.51
2.43233	34.52
2.44900	34.52
2.46567	34.51
2.48233	34.52
2.49900	34.52
2.51567	34.52
2.53233	34.52
2.54900	34.52
2.56567	34.52
2.58233	34.52
2.59900	34.52
2.61567	34.52
2.63233	34.52
2.64900	34.52
2.66567	34.52
2.68233	34.51
2.69900	34.52
2.71567	34.52
2.73233	34.52
2.74900	34.52
2.76567	34.52
2.78233	34.52
2.79900	34.52
2.81567	34.52
2.83233	34.52
2.84900	34.52
2.86567	34.52
2.88233	34.52
2.89900	34.52
2.91567	34.52
2.93233	34.52
2.94900	34.52
2.96567	34.51
2.98233	34.52
2.99900	34.52
3.01567	34.52
3.03233	34.52
3.04900	34.52
3.06567	34.52
3.08233	34.52
3.09900	34.52
3.11567	34.52
3.13233	34.52
3.14900	34.52
3.16567	34.52
3.18233	34.52
3.19900	34.52
3.21567	34.52
3.23233	34.52
3.24900	34.52
3.26567	34.52
3.28233	34.52
3.29900	34.52
3.31567	34.52
3.33233	34.52
3.34900	34.52
3.36567	34.52
3.38233	34.52
3.39900	34.52
3.41567	34.52
3.43233	34.52
3.44900	34.52
3.46567	34.52
3.48233	34.52
3.49900	34.52
3.51567	34.52
3.53233	34.52
3.54900	34.52
3.56567	34.52
3.58233	34.51
3.59900	34.52
3.61567	34.52
3.63233	34.52
3.64900	34.52
3.66567	34.52
3.68233	34.52
3.69900	34.52
3.71567	34.52
3.73233	34.52
3.74900	34.52
3.76567	34.52
3.78233	34.52
3.79900	34.52
3.81567	34.52
3.83233	34.52
3.84900	34.52
3.86567	34.52
3.88233	34.52
3.89900	34.52
3.91567	34.52
3.93233	34.52
3.94900	34.51
3.96567	34.52
3.98233	34.52
3.99900	34.52

[Status Trace (Column Flow)]
Interval(msec)	1000
# of Points	240
Start Time(min)	0.016
End Time(min)	3.999
Intensity Units	
Intensity Multiplier	1
R.Time (min)	Intensity
0.01567	5.45
0.03233	5.31
0.04900	5.59
0.06567	5.80
0.08233	5.64
0.09900	5.57
0.11567	5.57
0.13233	5.57
0.14900	5.57
0.16567	5.57
0.18233	5.57
0.19900	5.57
0.21567	5.57
0.23233	5.57
0.24900	5.57
0.26567	5.57
0.28233	5.57
0.29900	5.57
0.31567	5.57
0.33233	5.57
0.34900	5.57
0.36567	5.57
0.38233	5.57
0.39900	5.57
0.41567	5.57
0.43233	5.57
0.44900	5.57
0.46567	5.57
0.48233	5.57
0.49900	5.57
0.51567	5.57
0.53233	5.57
0.54900	5.57
0.56567	5.57
0.58233	5.57
0.59900	5.57
0.61567	5.57
0.63233	5.57
0.64900	5.57
0.66567	5.57
0.68233	5.57
0.69900	5.57
0.71567	5.57
0.73233	5.57
0.74900	5.57
0.76567	5.57
0.78233	5.57
0.79900	5.57
0.81567	5.57
0.83233	5.57
0.84900	5.57
0.86567	5.57
0.88233	5.57
0.89900	5.57
0.91567	5.57
0.93233	5.57
0.94900	5.57
0.96567	5.57
0.98233	5.57
0.99900	5.57
1.01567	5.57
1.03233	5.57
1.04900	5.57
1.06567	5.57
1.08233	5.57
1.09900	5.57
1.11567	5.57
1.13233	5.57
1.14900	5.57
1.16567	5.57
1.18233	5.57
1.19900	5.57
1.21567	5.57
1.23233	5.57
1.24900	5.57
1.26567	5.57
1.28233	5.57
1.29900	5.57
1.31567	5.57
1.33233	5.57
1.34900	5.57
1.36567	5.57
1.38233	5.57
1.39900	5.57
1.41567	5.57
1.43233	5.57
1.44900	5.57
1.46567	5.57
1.48233	5.57
1.49900	5.57
1.51567	5.57
1.53233	5.57
1.54900	5.57
1.56567	5.57
1.58233	5.57
1.59900	5.57
1.61567	5.57
1.63233	5.57
1.64900	5.56
1.66567	5.55
1.68233	5.54
1.69900	5.53
1.71567	5.52
1.73233	5.51
1.74900	5.49
1.76567	5.48
1.78233	5.48
1.79900	5.46
1.81567	5.45
1.83233	5.44
1.84900	5.43
1.86567	5.42
1.88233	5.41
1.89900	5.40
1.91567	5.39
1.93233	5.38
1.94900	5.37
1.96567	5.36
1.98233	5.36
1.99900	5.34
2.01567	5.34
2.03233	5.33
2.04900	5.32
2.06567	5.31
2.08233	5.30
2.09900	5.29
2.11567	5.28
2.13233	5.27
2.14900	5.26
2.16567	5.25
2.18233	5.24
2.19900	5.23
2.21567	5.22
2.23233	5.21
2.24900	5.20
2.26567	5.19
2.28233	5.18
2.29900	5.17
2.31567	5.16
2.33233	5.16
2.34900	5.15
2.36567	5.14
2.38233	5.13
2.39900	5.13
2.41567	5.13
2.43233	5.13
2.44900	5.13
2.46567	5.13
2.48233	5.13
2.49900	5.13
2.51567	5.13
2.53233	5.13
2.54900	5.13
2.56567	5.13
2.58233	5.13
2.59900	5.13
2.61567	5.13
2.63233	5.13
2.64900	5.13
2.66567	5.13
2.68233	5.13
2.69900	5.13
2.71567	5.13
2.73233	5.13
2.74900	5.13
2.76567	5.13
2.78233	5.13
2.79900	5.13
2.81567	5.13
2.83233	5.13
2.84900	5.13
2.86567	5.13
2.88233	5.13
2.89900	5.13
2.91567	5.13
2.93233	5.13
2.94900	5.13
2.96567	5.13
2.98233	5.13
2.99900	5.13
3.01567	5.13
3.03233	5.13
3.04900	5.13
3.06567	5.13
3.08233	5.13
3.09900	5.13
3.11567	5.13
3.13233	5.13
3.14900	5.13
3.16567	5.13
3.18233	5.12
3.19900	5.12
3.21567	5.12
3.23233	5.12
3.24900	5.12
3.26567	5.12
3.28233	5.12
3.29900	5.12
3.31567	5.12
3.33233	5.12
3.34900	5.12
3.36567	5.12
3.38233	5.12
3.39900	5.12
3.41567	5.13
3.43233	5.13
3.44900	5.13
3.46567	5.13
3.48233	5.13
3.49900	5.13
3.51567	5.13
3.53233	5.13
3.54900	5.13
3.56567	5.13
3.58233	5.13
3.59900	5.13
3.61567	5.13
3.63233	5.13
3.64900	5.13
3.66567	5.12
3.68233	5.12
3.69900	5.12
3.71567	5.12
3.73233	5.12
3.74900	5.12
3.76567	5.12
3.78233	5.12
3.79900	5.12
3.81567	5.12
3.83233	5.12
3.84900	5.12
3.86567	5.12
3.88233	5.12
3.89900	5.12
3.91567	5.12
3.93233	5.12
3.94900	5.12
3.96567	5.12
3.98233	5.12
3.99900	5.12

[Status Trace (Linear Velocity)]
Interval(msec)	1000
# of Points	240
Start Time(min)	0.016
End Time(min)	3.999
Intensity Units	
Intensity Multiplier	1
R.Time (min)	Intensity
0.01567	38.33
0.03233	37.53
0.04900	39.12
0.06567	40.27
0.08233	39.40
0.09900	39.01
0.11567	39.03
0.13233	39.03
0.14900	39.03
0.16567	39.03
0.18233	39.03
0.19900	39.03
0.21567	39.03
0.23233	39.03
0.24900	39.03
0.26567	39.03
0.28233	39.03
0.29900	39.03
0.31567	39.03
0.33233	39.03
0.34900	39.03
0.36567	39.03
0.38233	39.03
0.39900	39.03
0.41567	39.03
0.43233	39.03
0.44900	39.03
0.46567	39.02
0.48233	39.03
0.49900	39.02
0.51567	39.02
0.53233	39.02
0.54900	39.03
0.56567	39.03
0.58233	39.03
0.59900	39.03
0.61567	39.03
0.63233	39.03
0.64900	39.03
0.66567	39.03
0.68233	39.03
0.69900	39.03
0.71567	39.03
0.73233	39.03
0.74900	39.03
0.76567	39.03
0.78233	39.03
0.79900	39.03
0.81567	39.03
0.83233	39.03
0.84900	39.03
0.86567	39.03
0.88233	39.03
0.89900	39.03
0.91567	39.03
0.93233	39.03
0.94900	39.03
0.96567	39.03
0.98233	39.03
0.99900	39.03
1.01567	39.03
1.03233	39.03
1.04900	39.03
1.06567	39.03
1.08233	39.03
1.09900	39.03
1.11567	39.03
1.13233	39.03
1.14900	39.03
1.16567	39.03
1.18233	39.03
1.19900	39.03
1.21567	39.03
1.23233	39.03
1.24900	39.03
1.26567	39.03
1.28233	39.03
1.29900	39.03
1.31567	39.03
1.33233	39.03
1.34900	39.03
1.36567	39.03
1.38233	39.03
1.39900	39.03
1.41567	39.03
1.43233	39.03
1.44900	39.03
1.46567	39.03
1.48233	39.03
1.49900	39.03
1.51567	39.03
1.53233	39.03
1.54900	39.03
1.56567	39.03
1.58233	39.03
1.59900	39.03
1.61567	39.02
1.63233	39.01
1.64900	38.99
1.66567	38.96
1.68233	38.93
1.69900	38.88
1.71567	38.85
1.73233	38.83
1.74900	38.79
1.76567	38.76
1.78233	38.73
1.79900	38.70
1.81567	38.66
1.83233	38.64
1.84900	38.60
1.86567	38.57
1.88233	38.54
1.89900	38.51
1.91567	38.48
1.93233	38.45
1.94900	38.42
1.96567	38.39
1.98233	38.36
1.99900	38.33
2.01567	38.30
2.03233	38.27
2.04900	38.24
2.06567	38.21
2.08233	38.18
2.09900	38.15
2.11567	38.12
2.13233	38.09
2.14900	38.06
2.16567	38.03
2.18233	38.00
2.19900	37.97
2.21567	37.94
2.23233	37.92
2.24900	37.88
2.26567	37.85
2.28233	37.82
2.29900	37.79
2.31567	37.76
2.33233	37.74
2.34900	37.71
2.36567	37.68
2.38233	37.67
2.39900	37.66
2.41567	37.67
2.43233	37.67
2.44900	37.67
2.46567	37.67
2.48233	37.67
2.49900	37.67
2.51567	37.66
2.53233	37.66
2.54900	37.66
2.56567	37.66
2.58233	37.66
2.59900	37.66
2.61567	37.66
2.63233	37.66
2.64900	37.66
2.66567	37.66
2.68233	37.66
2.69900	37.66
2.71567	37.66
2.73233	37.66
2.74900	37.66
2.76567	37.66
2.78233	37.66
2.79900	37.66
2.81567	37.65
2.83233	37.65
2.84900	37.65
2.86567	37.65
2.88233	37.65
2.89900	37.65
2.91567	37.65
2.93233	37.65
2.94900	37.65
2.96567	37.65
2.98233	37.65
2.99900	37.65
3.01567	37.65
3.03233	37.65
3.04900	37.64
3.06567	37.64
3.08233	37.64
3.09900	37.64
3.11567	37.64
3.13233	37.64
3.14900	37.64
3.16567	37.64
3.18233	37.64
3.19900	37.64
3.21567	37.64
3.23233	37.64
3.24900	37.64
3.26567	37.64
3.28233	37.63
3.29900	37.63
3.31567	37.64
3.33233	37.64
3.34900	37.64
3.36567	37.64
3.38233	37.64
3.39900	37.64
3.41567	37.64
3.43233	37.64
3.44900	37.64
3.46567	37.64
3.48233	37.64
3.49900	37.64
3.51567	37.64
3.53233	37.64
3.54900	37.64
3.56567	37.64
3.58233	37.64
3.59900	37.64
3.61567	37.64
3.63233	37.64
3.64900	37.64
3.66567	37.64
3.68233	37.64
3.69900	37.64
3.71567	37.64
3.73233	37.64
3.74900	37.64
3.76567	37.64
3.78233	37.64
3.79900	37.64
3.81567	37.64
3.83233	37.64
3.84900	37.64
3.86567	37.64
3.88233	37.64
3.89900	37.64
3.91567	37.64
3.93233	37.64
3.94900	37.64
3.96567	37.64
3.98233	37.64
3.99900	37.64

