[Header]
Application Name	LabSolutions
Version	5.110
Data File Name	C:\Users\User\Desktop\GC Analyses\Jack\Nachusa Grasslands Sampling\T0 Timepoint July 12th\T0_07122022_021.gcd
Output Date	3/14/2023
Output Time	3:40:35 PM

[File Information]
Type	Data File
Generated	3/7/2023 4:01:27 PM
Generated by	System Administrator
Modified	3/7/2023 4:08:05 PM
Modified by	System Administrator

[Sample Information]
Operator Name	System Administrator
Acquired	3/7/2023 4:04:03 PM
Sample Type	0:Unknown
Level	0
Sample Name	021
Sample ID	021
ISTD Amount1	1
ISTD Amount2	1
ISTD Amount3	1
ISTD Amount4	1
ISTD Amount5	1
ISTD Amount6	1
ISTD Amount7	1
ISTD Amount8	1
ISTD Amount9	1
ISTD Amount10	1
ISTD Amount11	1
ISTD Amount12	1
ISTD Amount13	1
ISTD Amount14	1
ISTD Amount15	1
ISTD Amount16	1
ISTD Amount17	1
ISTD Amount18	1
ISTD Amount19	1
ISTD Amount20	1
ISTD Amount21	1
ISTD Amount22	1
ISTD Amount23	1
ISTD Amount24	1
ISTD Amount25	1
ISTD Amount26	1
ISTD Amount27	1
ISTD Amount28	1
ISTD Amount29	1
ISTD Amount30	1
ISTD Amount31	1
ISTD Amount32	1
Sample Amount	1
Dilution Factor	1
Vial#	20
Injection Volume	1
Injection Count	1
Bar Code	

[Original Files]
Data File	C:\Users\User\Desktop\GC Analyses\Jack\Nachusa Grasslands Sampling\T0 Timepoint July 12th\T0_07122022_021.gcd
Method File	C:\LabSolutions\Data\GHG_4min_2022\ghg3_togas_w_acet_4 min_new_int.gcm
Batch File	C:\LabSolutions\Data\AutoSamplerTesting\T0_07122022.gcb
Report Format File	c:\LabSolutions\System\DEFAULT.lsr

[File Description]


[Configuration]
Instrument Name	C0B7VH3-Instrument1
Instrument #	1
Line #	1
# of Detectors	3
Detector ID	DET#1	DET#2	DET#3
Detector Name	FID	PTCD	ECD
# of Channels	1	1	1

[Peak Table(Ch1)]
# of Peaks	3
Peak#	R.Time	I.Time	F.Time	Area	Height	A/H	Conc.	Mark	ID#	Name	k'	Plate #	Plate Ht.	Tailing	Resolution	Sep.Factor	Area Ratio	Height Ratio	Conc. %	Norm Conc.
1	1.476	1.439	1.538	27884	13132	2.123	196.865	   	1	CO	0.000	9137	16.416	1.347	0.000	0.000	0	0	30.358	30.358
2	1.571	1.538	1.622	4733	2301	2.058	91.524	 V 	2	CH4	0.065	10647	14.088	0.000	1.555	0.000	0	0	14.114	14.114
3	1.996	1.949	2.502	1434770	673597	2.130	360.088	   	3	CO2	0.353	17297	8.672	1.336	6.995	5.462	0	0	55.528	55.528

[Peak Table(Ch2)]
# of Peaks	0

[Peak Table(Ch3)]
# of Peaks	5
Peak#	R.Time	I.Time	F.Time	Area	Height	A/H	Conc.	Mark	ID#	Name	k'	Plate #	Plate Ht.	Tailing	Resolution	Sep.Factor	Area Ratio	Height Ratio	Conc. %	Norm Conc.
1	2.462	2.282	2.524	1691	351	4.819	0.000	   			0.000	5394	27.806	0.000	0.000	0.000	0	0	0.000	0.000
2	2.554	2.524	2.638	1062	222	4.786	0.000	 V 			0.037	1603	93.603	0.000	0.471	0.000	0	0	0.000	0.000
3	2.737	2.649	2.755	601	132	4.550	0.015	   	1	N2O	0.112	1290	116.266	0.000	0.655	3.000	0	0	2.885	2.885
4	2.873	2.755	3.148	20229	4873	4.151	0.517	 V 	1	N2O	0.167	13103	11.448	1.705	0.670	1.493	0	0	97.115	97.115
5	3.243	3.151	3.995	15571	614	25.365	0.000	   	2	SF6	0.317	354	423.499	4.567	0.938	1.902	0	0	0.000	0.000

[Compound Results(Ch1)]
# of IDs	6
ID#	Name	R.Time	Area	Height	Conc.	Curve	3rd	2nd	1st	Constant	Area Ratio	Height Ratio	Conc. %	Norm Conc.
1	CO	1.476	27884	13132	196.865	Linear	0.000000e+00	0.000000e+00	1.416423e+002	0.000000e+00	0	0	30.358	30.358
2	CH4	1.571	4733	2301	91.524	Linear	0.000000e+00	0.000000e+00	5.171738e+001	0.000000e+00	0	0	14.114	14.114
3	CO2	1.996	1434770	673597	360.088	Linear	0.000000e+00	0.000000e+00	3.984494e+003	0.000000e+00	0	0	55.528	55.528
4	Ethylene	0.000	0	0	0.000	Linear	0.000000e+00	0.000000e+00	0.000000e+00	0.000000e+00	0	0	0.000	0.000
5	Acetylene	0.000	0	0	0.000	Linear	0.000000e+00	0.000000e+00	0.000000e+00	0.000000e+00	0	0	0.000	0.000
6	Ethane	0.000	0	0	0.000	Linear	0.000000e+00	0.000000e+00	0.000000e+00	0.000000e+00	0	0	0.000	0.000

[Compound Results(Ch2)]
# of IDs	5
ID#	Name	R.Time	Area	Height	Conc.	Curve	3rd	2nd	1st	Constant	Area Ratio	Height Ratio	Conc. %	Norm Conc.
1	Hydrogen	0.000	0	0	0.000	Linear	0.000000e+00	0.000000e+00	0.000000e+00	0.000000e+00	0	0	0.000	0.000
2	Oxygen	0.000	0	0	0.000	Linear	0.000000e+00	0.000000e+00	0.000000e+00	0.000000e+00	0	0	0.000	0.000
3	Nitrogen	0.000	0	0	0.000	Linear	0.000000e+00	0.000000e+00	0.000000e+00	0.000000e+00	0	0	0.000	0.000
4	Methane	0.000	0	0	0.000	Linear	0.000000e+00	0.000000e+00	0.000000e+00	0.000000e+00	0	0	0.000	0.000
5	Carbon Monoxide	0.000	0	0	0.000	Linear	0.000000e+00	0.000000e+00	0.000000e+00	0.000000e+00	0	0	0.000	0.000

[Compound Results(Ch3)]
# of IDs	2
ID#	Name	R.Time	Area	Height	Conc.	Curve	3rd	2nd	1st	Constant	Area Ratio	Height Ratio	Conc. %	Norm Conc.
1	N2O	2.873	20830	5005	0.532	Linear	0.000000e+00	0.000000e+00	3.915173e+004	0.000000e+00	0	0	100.000	100.000
2	SF6	3.243	15571	614	0.000	Linear	0.000000e+00	0.000000e+00	0.000000e+00	0.000000e+00	0	0	0.000	0.000

[Group Results(Ch1)]
# of Groups	0

[Group Results(Ch2)]
# of Groups	0

[Group Results(Ch3)]
# of Groups	0

[Chromatogram (Ch1)]
Interval(msec)	220
# of Points	1091
Start Time(min)	0.002
End Time(min)	3.998
R.Time (min)	Intensity
0.00167	-13
0.00533	-10
0.00900	-1
0.01267	8
0.01633	16
0.02000	19
0.02367	18
0.02733	13
0.03100	9
0.03467	9
0.03833	11
0.04200	15
0.04567	17
0.04933	18
0.05300	19
0.05667	18
0.06033	16
0.06400	12
0.06767	9
0.07133	7
0.07500	8
0.07867	9
0.08233	7
0.08600	3
0.08967	-2
0.09333	-7
0.09700	-10
0.10067	-10
0.10433	-8
0.10800	-6
0.11167	-4
0.11533	-0
0.11900	4
0.12267	10
0.12633	17
0.13000	20
0.13367	20
0.13733	18
0.14100	15
0.14467	14
0.14833	13
0.15200	16
0.15567	18
0.15933	22
0.16300	29
0.16667	32
0.17033	29
0.17400	23
0.17767	15
0.18133	8
0.18500	1
0.18867	0
0.19233	3
0.19600	3
0.19967	2
0.20333	1
0.20700	-1
0.21067	-2
0.21433	1
0.21800	6
0.22167	15
0.22533	27
0.22900	41
0.23267	55
0.23633	66
0.24000	65
0.24367	53
0.24733	38
0.25100	26
0.25467	21
0.25833	17
0.26200	10
0.26567	3
0.26933	-4
0.27300	-11
0.27667	-14
0.28033	-13
0.28400	-10
0.28767	-5
0.29133	4
0.29500	12
0.29867	18
0.30233	20
0.30600	21
0.30967	24
0.31333	27
0.31700	27
0.32067	27
0.32433	31
0.32800	38
0.33167	42
0.33533	41
0.33900	39
0.34267	39
0.34633	43
0.35000	46
0.35367	47
0.35733	50
0.36100	55
0.36467	64
0.36833	70
0.37200	74
0.37567	71
0.37933	60
0.38300	45
0.38667	32
0.39033	24
0.39400	18
0.39767	12
0.40133	11
0.40500	14
0.40867	21
0.41233	26
0.41600	29
0.41967	32
0.42333	29
0.42700	24
0.43067	22
0.43433	19
0.43800	13
0.44167	9
0.44533	3
0.44900	1
0.45267	0
0.45633	3
0.46000	6
0.46367	9
0.46733	11
0.47100	11
0.47467	11
0.47833	10
0.48200	7
0.48567	4
0.48933	2
0.49300	2
0.49667	-1
0.50033	-3
0.50400	-9
0.50767	-15
0.51133	-16
0.51500	-13
0.51867	-9
0.52233	-6
0.52600	-2
0.52967	5
0.53333	14
0.53700	25
0.54067	36
0.54433	41
0.54800	35
0.55167	22
0.55533	6
0.55900	-10
0.56267	-23
0.56633	-30
0.57000	-31
0.57367	-29
0.57733	-27
0.58100	-27
0.58467	-25
0.58833	-21
0.59200	-16
0.59567	-10
0.59933	-5
0.60300	-1
0.60667	0
0.61033	2
0.61400	5
0.61767	7
0.62133	4
0.62500	1
0.62867	-5
0.63233	-11
0.63600	-16
0.63967	-18
0.64333	-18
0.64700	-16
0.65067	-14
0.65433	-14
0.65800	-16
0.66167	-18
0.66533	-15
0.66900	-6
0.67267	4
0.67633	8
0.68000	4
0.68367	-3
0.68733	-9
0.69100	-10
0.69467	-9
0.69833	-11
0.70200	-15
0.70567	-20
0.70933	-21
0.71300	-21
0.71667	-21
0.72033	-22
0.72400	-21
0.72767	-19
0.73133	-16
0.73500	-15
0.73867	-16
0.74233	-18
0.74600	-17
0.74967	-15
0.75333	-11
0.75700	-8
0.76067	-7
0.76433	-9
0.76800	-14
0.77167	-18
0.77533	-21
0.77900	-24
0.78267	-24
0.78633	-19
0.79000	-10
0.79367	-1
0.79733	5
0.80100	7
0.80467	6
0.80833	2
0.81200	-2
0.81567	-5
0.81933	-7
0.82300	-10
0.82667	-12
0.83033	-12
0.83400	-12
0.83767	-14
0.84133	-15
0.84500	-16
0.84867	-18
0.85233	-22
0.85600	-23
0.85967	-20
0.86333	-20
0.86700	-23
0.87067	-24
0.87433	-23
0.87800	-25
0.88167	-27
0.88533	-29
0.88900	-29
0.89267	-29
0.89633	-29
0.90000	-28
0.90367	-25
0.90733	-22
0.91100	-18
0.91467	-14
0.91833	-10
0.92200	-6
0.92567	-3
0.92933	-5
0.93300	-10
0.93667	-15
0.94033	-19
0.94400	-21
0.94767	-22
0.95133	-18
0.95500	-9
0.95867	0
0.96233	5
0.96600	3
0.96967	-6
0.97333	-17
0.97700	-26
0.98067	-36
0.98433	-44
0.98800	-48
0.99167	-48
0.99533	-45
0.99900	-44
1.00267	-41
1.00633	-37
1.01000	-32
1.01367	-30
1.01733	-32
1.02100	-35
1.02467	-37
1.02833	-38
1.03200	-38
1.03567	-35
1.03933	-30
1.04300	-26
1.04667	-22
1.05033	-14
1.05400	-11
1.05767	-14
1.06133	-22
1.06500	-29
1.06867	-32
1.07233	-33
1.07600	-37
1.07967	-41
1.08333	-38
1.08700	-32
1.09067	-26
1.09433	-24
1.09800	-24
1.10167	-20
1.10533	-14
1.10900	-4
1.11267	7
1.11633	17
1.12000	21
1.12367	21
1.12733	16
1.13100	9
1.13467	1
1.13833	-7
1.14200	-11
1.14567	-12
1.14933	-7
1.15300	-2
1.15667	1
1.16033	1
1.16400	0
1.16767	-1
1.17133	-1
1.17500	-1
1.17867	-3
1.18233	-6
1.18600	-8
1.18967	-7
1.19333	-1
1.19700	7
1.20067	14
1.20433	19
1.20800	24
1.21167	23
1.21533	17
1.21900	8
1.22267	-0
1.22633	-7
1.23000	-8
1.23367	-7
1.23733	-4
1.24100	1
1.24467	5
1.24833	9
1.25200	10
1.25567	10
1.25933	12
1.26300	13
1.26667	13
1.27033	14
1.27400	17
1.27767	24
1.28133	26
1.28500	25
1.28867	22
1.29233	18
1.29600	14
1.29967	10
1.30333	8
1.30700	3
1.31067	-4
1.31433	-6
1.31800	-5
1.32167	-8
1.32533	-16
1.32900	-23
1.33267	-24
1.33633	-20
1.34000	-11
1.34367	1
1.34733	10
1.35100	15
1.35467	16
1.35833	15
1.36200	14
1.36567	14
1.36933	11
1.37300	9
1.37667	8
1.38033	9
1.38400	7
1.38767	1
1.39133	-7
1.39500	-10
1.39867	-9
1.40233	-5
1.40600	-1
1.40967	5
1.41333	8
1.41700	7
1.42067	3
1.42433	0
1.42800	-1
1.43167	-1
1.43533	-1
1.43900	18
1.44267	101
1.44633	308
1.45000	798
1.45367	1955
1.45733	3971
1.46100	6485
1.46467	8940
1.46833	10972
1.47200	12417
1.47567	13155
1.47933	13066
1.48300	12117
1.48667	10480
1.49033	8505
1.49400	6553
1.49767	4867
1.50133	3533
1.50500	2539
1.50867	1827
1.51233	1328
1.51600	980
1.51967	736
1.52333	564
1.52700	441
1.53067	353
1.53433	294
1.53800	265
1.54167	294
1.54533	438
1.54900	734
1.55267	1140
1.55633	1560
1.56000	1921
1.56367	2187
1.56733	2335
1.57100	2337
1.57467	2172
1.57833	1864
1.58200	1489
1.58567	1122
1.58933	811
1.59300	574
1.59667	403
1.60033	284
1.60400	201
1.60767	141
1.61133	101
1.61500	74
1.61867	56
1.62233	44
1.62600	36
1.62967	35
1.63333	38
1.63700	42
1.64067	42
1.64433	40
1.64800	36
1.65167	33
1.65533	32
1.65900	31
1.66267	27
1.66633	24
1.67000	23
1.67367	21
1.67733	18
1.68100	13
1.68467	9
1.68833	10
1.69200	12
1.69567	16
1.69933	17
1.70300	14
1.70667	6
1.71033	-3
1.71400	-13
1.71767	-20
1.72133	-22
1.72500	-25
1.72867	-27
1.73233	-28
1.73600	-26
1.73967	-19
1.74333	-12
1.74700	-5
1.75067	-2
1.75433	-3
1.75800	-2
1.76167	2
1.76533	11
1.76900	18
1.77267	19
1.77633	16
1.78000	11
1.78367	7
1.78733	6
1.79100	9
1.79467	13
1.79833	14
1.80200	11
1.80567	7
1.80933	6
1.81300	6
1.81667	6
1.82033	7
1.82400	10
1.82767	15
1.83133	21
1.83500	26
1.83867	27
1.84233	21
1.84600	16
1.84967	16
1.85333	18
1.85700	19
1.86067	20
1.86433	21
1.86800	22
1.87167	20
1.87533	15
1.87900	11
1.88267	12
1.88633	15
1.89000	20
1.89367	26
1.89733	34
1.90100	45
1.90467	52
1.90833	56
1.91200	56
1.91567	52
1.91933	45
1.92300	37
1.92667	30
1.93033	24
1.93400	22
1.93767	21
1.94133	20
1.94500	22
1.94867	29
1.95233	48
1.95600	145
1.95967	695
1.96333	3246
1.96700	12329
1.97067	37136
1.97433	89683
1.97800	177057
1.98167	293630
1.98533	421462
1.98900	538751
1.99267	627038
1.99633	673664
2.00000	672498
2.00367	625755
2.00733	544463
2.01100	445333
2.01467	345308
2.01833	256584
2.02200	184881
2.02567	130689
2.02933	91613
2.03300	64320
2.03667	45627
2.04033	32955
2.04400	24385
2.04767	18564
2.05133	14568
2.05500	11772
2.05867	9776
2.06233	8315
2.06600	7218
2.06967	6373
2.07333	5705
2.07700	5166
2.08067	4722
2.08433	4348
2.08800	4028
2.09167	3751
2.09533	3512
2.09900	3303
2.10267	3120
2.10633	2957
2.11000	2809
2.11367	2675
2.11733	2553
2.12100	2440
2.12467	2333
2.12833	2232
2.13200	2141
2.13567	2059
2.13933	1986
2.14300	1921
2.14667	1859
2.15033	1799
2.15400	1740
2.15767	1683
2.16133	1632
2.16500	1581
2.16867	1529
2.17233	1477
2.17600	1427
2.17967	1380
2.18333	1339
2.18700	1304
2.19067	1274
2.19433	1247
2.19800	1222
2.20167	1194
2.20533	1165
2.20900	1136
2.21267	1109
2.21633	1085
2.22000	1065
2.22367	1045
2.22733	1028
2.23100	1014
2.23467	1003
2.23833	993
2.24200	981
2.24567	964
2.24933	944
2.25300	922
2.25667	900
2.26033	875
2.26400	852
2.26767	832
2.27133	817
2.27500	808
2.27867	804
2.28233	800
2.28600	792
2.28967	780
2.29333	764
2.29700	751
2.30067	745
2.30433	744
2.30800	743
2.31167	738
2.31533	732
2.31900	723
2.32267	711
2.32633	695
2.33000	675
2.33367	651
2.33733	628
2.34100	607
2.34467	592
2.34833	586
2.35200	589
2.35567	596
2.35933	602
2.36300	603
2.36667	598
2.37033	593
2.37400	590
2.37767	584
2.38133	574
2.38500	565
2.38867	564
2.39233	568
2.39600	574
2.39967	576
2.40333	577
2.40700	575
2.41067	569
2.41433	561
2.41800	554
2.42167	550
2.42533	544
2.42900	534
2.43267	524
2.43633	520
2.44000	517
2.44367	515
2.44733	512
2.45100	509
2.45467	505
2.45833	501
2.46200	496
2.46567	492
2.46933	489
2.47300	488
2.47667	489
2.48033	494
2.48400	498
2.48767	498
2.49133	495
2.49500	488
2.49867	480
2.50233	472
2.50600	465
2.50967	461
2.51333	459
2.51700	458
2.52067	459
2.52433	462
2.52800	469
2.53167	478
2.53533	484
2.53900	482
2.54267	474
2.54633	464
2.55000	456
2.55367	453
2.55733	450
2.56100	449
2.56467	452
2.56833	456
2.57200	456
2.57567	451
2.57933	444
2.58300	440
2.58667	440
2.59033	446
2.59400	455
2.59767	460
2.60133	460
2.60500	456
2.60867	445
2.61233	433
2.61600	425
2.61967	421
2.62333	420
2.62700	419
2.63067	419
2.63433	418
2.63800	412
2.64167	407
2.64533	404
2.64900	402
2.65267	404
2.65633	407
2.66000	409
2.66367	409
2.66733	408
2.67100	406
2.67467	407
2.67833	414
2.68200	425
2.68567	436
2.68933	440
2.69300	434
2.69667	424
2.70033	416
2.70400	409
2.70767	406
2.71133	407
2.71500	409
2.71867	412
2.72233	419
2.72600	429
2.72967	435
2.73333	435
2.73700	429
2.74067	419
2.74433	406
2.74800	397
2.75167	395
2.75533	395
2.75900	397
2.76267	399
2.76633	401
2.77000	403
2.77367	405
2.77733	405
2.78100	407
2.78467	410
2.78833	411
2.79200	411
2.79567	412
2.79933	414
2.80300	417
2.80667	415
2.81033	412
2.81400	416
2.81767	419
2.82133	420
2.82500	420
2.82867	419
2.83233	416
2.83600	414
2.83967	415
2.84333	416
2.84700	413
2.85067	409
2.85433	405
2.85800	401
2.86167	395
2.86533	390
2.86900	387
2.87267	386
2.87633	386
2.88000	386
2.88367	387
2.88733	385
2.89100	381
2.89467	378
2.89833	380
2.90200	390
2.90567	399
2.90933	408
2.91300	416
2.91667	421
2.92033	423
2.92400	424
2.92767	425
2.93133	424
2.93500	416
2.93867	403
2.94233	390
2.94600	383
2.94967	381
2.95333	381
2.95700	382
2.96067	382
2.96433	382
2.96800	385
2.97167	384
2.97533	383
2.97900	383
2.98267	384
2.98633	387
2.99000	390
2.99367	394
2.99733	399
3.00100	403
3.00467	405
3.00833	410
3.01200	417
3.01567	422
3.01933	423
3.02300	421
3.02667	419
3.03033	414
3.03400	410
3.03767	408
3.04133	406
3.04500	405
3.04867	405
3.05233	403
3.05600	397
3.05967	392
3.06333	388
3.06700	387
3.07067	384
3.07433	384
3.07800	380
3.08167	380
3.08533	383
3.08900	387
3.09267	388
3.09633	391
3.10000	393
3.10367	395
3.10733	400
3.11100	403
3.11467	402
3.11833	399
3.12200	395
3.12567	393
3.12933	394
3.13300	393
3.13667	391
3.14033	390
3.14400	393
3.14767	397
3.15133	399
3.15500	395
3.15867	387
3.16233	383
3.16600	380
3.16967	377
3.17333	375
3.17700	372
3.18067	370
3.18433	367
3.18800	363
3.19167	362
3.19533	360
3.19900	359
3.20267	358
3.20633	358
3.21000	359
3.21367	362
3.21733	361
3.22100	360
3.22467	361
3.22833	366
3.23200	372
3.23567	372
3.23933	373
3.24300	373
3.24667	370
3.25033	366
3.25400	364
3.25767	364
3.26133	365
3.26500	370
3.26867	373
3.27233	374
3.27600	372
3.27967	369
3.28333	367
3.28700	368
3.29067	372
3.29433	376
3.29800	379
3.30167	380
3.30533	376
3.30900	371
3.31267	368
3.31633	364
3.32000	359
3.32367	355
3.32733	356
3.33100	362
3.33467	371
3.33833	374
3.34200	371
3.34567	365
3.34933	360
3.35300	355
3.35667	349
3.36033	345
3.36400	344
3.36767	347
3.37133	350
3.37500	351
3.37867	351
3.38233	347
3.38600	343
3.38967	338
3.39333	334
3.39700	334
3.40067	337
3.40433	339
3.40800	338
3.41167	338
3.41533	339
3.41900	342
3.42267	348
3.42633	356
3.43000	360
3.43367	360
3.43733	355
3.44100	348
3.44467	342
3.44833	336
3.45200	331
3.45567	324
3.45933	317
3.46300	315
3.46667	320
3.47033	329
3.47400	337
3.47767	342
3.48133	343
3.48500	344
3.48867	346
3.49233	347
3.49600	347
3.49967	347
3.50333	345
3.50700	342
3.51067	337
3.51433	332
3.51800	326
3.52167	322
3.52533	322
3.52900	324
3.53267	326
3.53633	326
3.54000	325
3.54367	320
3.54733	315
3.55100	311
3.55467	307
3.55833	302
3.56200	295
3.56567	291
3.56933	288
3.57300	286
3.57667	286
3.58033	287
3.58400	290
3.58767	293
3.59133	294
3.59500	294
3.59867	295
3.60233	297
3.60600	298
3.60967	298
3.61333	298
3.61700	298
3.62067	297
3.62433	296
3.62800	295
3.63167	296
3.63533	299
3.63900	301
3.64267	300
3.64633	301
3.65000	298
3.65367	295
3.65733	290
3.66100	283
3.66467	282
3.66833	283
3.67200	286
3.67567	290
3.67933	292
3.68300	288
3.68667	281
3.69033	275
3.69400	272
3.69767	274
3.70133	279
3.70500	284
3.70867	288
3.71233	292
3.71600	294
3.71967	293
3.72333	289
3.72700	285
3.73067	283
3.73433	280
3.73800	277
3.74167	271
3.74533	268
3.74900	266
3.75267	266
3.75633	268
3.76000	272
3.76367	273
3.76733	271
3.77100	266
3.77467	261
3.77833	260
3.78200	262
3.78567	266
3.78933	269
3.79300	269
3.79667	270
3.80033	272
3.80400	273
3.80767	272
3.81133	267
3.81500	261
3.81867	252
3.82233	243
3.82600	238
3.82967	234
3.83333	229
3.83700	227
3.84067	229
3.84433	235
3.84800	239
3.85167	239
3.85533	240
3.85900	240
3.86267	237
3.86633	233
3.87000	232
3.87367	233
3.87733	236
3.88100	236
3.88467	237
3.88833	237
3.89200	233
3.89567	230
3.89933	233
3.90300	239
3.90667	244
3.91033	250
3.91400	254
3.91767	260
3.92133	265
3.92500	263
3.92867	255
3.93233	247
3.93600	242
3.93967	235
3.94333	229
3.94700	225
3.95067	222
3.95433	218
3.95800	209
3.96167	205
3.96533	207
3.96900	211
3.97267	217
3.97633	223
3.98000	231
3.98367	240
3.98733	245
3.99100	248
3.99467	249
3.99833	250

[Chromatogram (Ch2)]
Interval(msec)	220
# of Points	1091
Start Time(min)	0.002
End Time(min)	3.998
R.Time (min)	Intensity
0.00167	1
0.00533	1
0.00900	1
0.01267	2
0.01633	2
0.02000	2
0.02367	2
0.02733	2
0.03100	2
0.03467	2
0.03833	3
0.04200	3
0.04567	3
0.04933	3
0.05300	3
0.05667	3
0.06033	3
0.06400	3
0.06767	3
0.07133	3
0.07500	2
0.07867	2
0.08233	2
0.08600	3
0.08967	3
0.09333	3
0.09700	3
0.10067	3
0.10433	3
0.10800	4
0.11167	4
0.11533	5
0.11900	5
0.12267	5
0.12633	5
0.13000	5
0.13367	5
0.13733	5
0.14100	5
0.14467	4
0.14833	4
0.15200	4
0.15567	4
0.15933	3
0.16300	3
0.16667	3
0.17033	3
0.17400	3
0.17767	3
0.18133	3
0.18500	3
0.18867	2
0.19233	2
0.19600	2
0.19967	2
0.20333	2
0.20700	1
0.21067	1
0.21433	1
0.21800	1
0.22167	1
0.22533	1
0.22900	1
0.23267	1
0.23633	1
0.24000	0
0.24367	0
0.24733	0
0.25100	-0
0.25467	-1
0.25833	-1
0.26200	-1
0.26567	-1
0.26933	-1
0.27300	-1
0.27667	-1
0.28033	-0
0.28400	0
0.28767	1
0.29133	1
0.29500	1
0.29867	1
0.30233	1
0.30600	1
0.30967	1
0.31333	1
0.31700	1
0.32067	1
0.32433	1
0.32800	2
0.33167	2
0.33533	2
0.33900	3
0.34267	3
0.34633	3
0.35000	3
0.35367	3
0.35733	4
0.36100	4
0.36467	4
0.36833	4
0.37200	4
0.37567	4
0.37933	4
0.38300	4
0.38667	4
0.39033	4
0.39400	4
0.39767	4
0.40133	4
0.40500	4
0.40867	4
0.41233	4
0.41600	4
0.41967	3
0.42333	3
0.42700	3
0.43067	2
0.43433	2
0.43800	2
0.44167	2
0.44533	1
0.44900	1
0.45267	1
0.45633	0
0.46000	-0
0.46367	-1
0.46733	-1
0.47100	-2
0.47467	-3
0.47833	-3
0.48200	-4
0.48567	-5
0.48933	-5
0.49300	-6
0.49667	-6
0.50033	-6
0.50400	-6
0.50767	-5
0.51133	-5
0.51500	-4
0.51867	-4
0.52233	-3
0.52600	-3
0.52967	-2
0.53333	-2
0.53700	-2
0.54067	-2
0.54433	-1
0.54800	-1
0.55167	-1
0.55533	-1
0.55900	-1
0.56267	-1
0.56633	-1
0.57000	-0
0.57367	-0
0.57733	-0
0.58100	0
0.58467	0
0.58833	1
0.59200	1
0.59567	1
0.59933	1
0.60300	1
0.60667	1
0.61033	1
0.61400	2
0.61767	2
0.62133	2
0.62500	2
0.62867	2
0.63233	2
0.63600	2
0.63967	2
0.64333	2
0.64700	2
0.65067	2
0.65433	2
0.65800	2
0.66167	2
0.66533	2
0.66900	2
0.67267	2
0.67633	2
0.68000	2
0.68367	2
0.68733	2
0.69100	2
0.69467	2
0.69833	1
0.70200	1
0.70567	1
0.70933	1
0.71300	1
0.71667	1
0.72033	0
0.72400	0
0.72767	-0
0.73133	-1
0.73500	-1
0.73867	-1
0.74233	-1
0.74600	-1
0.74967	-1
0.75333	-0
0.75700	0
0.76067	0
0.76433	1
0.76800	1
0.77167	1
0.77533	1
0.77900	1
0.78267	1
0.78633	1
0.79000	1
0.79367	1
0.79733	1
0.80100	0
0.80467	-0
0.80833	-1
0.81200	-1
0.81567	-1
0.81933	-1
0.82300	-1
0.82667	-0
0.83033	-0
0.83400	0
0.83767	1
0.84133	1
0.84500	2
0.84867	2
0.85233	2
0.85600	2
0.85967	3
0.86333	3
0.86700	3
0.87067	3
0.87433	3
0.87800	3
0.88167	3
0.88533	3
0.88900	3
0.89267	3
0.89633	3
0.90000	2
0.90367	2
0.90733	2
0.91100	2
0.91467	2
0.91833	2
0.92200	1
0.92567	1
0.92933	1
0.93300	1
0.93667	-0
0.94033	-0
0.94400	-1
0.94767	-1
0.95133	-1
0.95500	-2
0.95867	-2
0.96233	-2
0.96600	-3
0.96967	-3
0.97333	-3
0.97700	-3
0.98067	-2
0.98433	-2
0.98800	-2
0.99167	-2
0.99533	-2
0.99900	-2
1.00267	-1
1.00633	-1
1.01000	-1
1.01367	-1
1.01733	-1
1.02100	-2
1.02467	-2
1.02833	-1
1.03200	-1
1.03567	-1
1.03933	-1
1.04300	-0
1.04667	0
1.05033	1
1.05400	1
1.05767	1
1.06133	1
1.06500	2
1.06867	2
1.07233	2
1.07600	1
1.07967	1
1.08333	1
1.08700	0
1.09067	0
1.09433	-0
1.09800	0
1.10167	0
1.10533	0
1.10900	0
1.11267	1
1.11633	1
1.12000	2
1.12367	2
1.12733	2
1.13100	2
1.13467	2
1.13833	2
1.14200	2
1.14567	2
1.14933	2
1.15300	2
1.15667	1
1.16033	1
1.16400	1
1.16767	1
1.17133	1
1.17500	0
1.17867	0
1.18233	1
1.18600	1
1.18967	1
1.19333	1
1.19700	1
1.20067	1
1.20433	1
1.20800	1
1.21167	1
1.21533	1
1.21900	2
1.22267	2
1.22633	2
1.23000	2
1.23367	2
1.23733	2
1.24100	2
1.24467	2
1.24833	2
1.25200	2
1.25567	2
1.25933	2
1.26300	2
1.26667	2
1.27033	2
1.27400	2
1.27767	2
1.28133	2
1.28500	2
1.28867	1
1.29233	1
1.29600	1
1.29967	1
1.30333	0
1.30700	0
1.31067	0
1.31433	0
1.31800	0
1.32167	0
1.32533	0
1.32900	-0
1.33267	-1
1.33633	-1
1.34000	-2
1.34367	-2
1.34733	-2
1.35100	-2
1.35467	-2
1.35833	-2
1.36200	-2
1.36567	-2
1.36933	-1
1.37300	-1
1.37667	-1
1.38033	-1
1.38400	-1
1.38767	-1
1.39133	-1
1.39500	-1
1.39867	-1
1.40233	-1
1.40600	-1
1.40967	-1
1.41333	-1
1.41700	-1
1.42067	-0
1.42433	-0
1.42800	0
1.43167	0
1.43533	1
1.43900	1
1.44267	1
1.44633	1
1.45000	2
1.45367	2
1.45733	3
1.46100	3
1.46467	3
1.46833	3
1.47200	2
1.47567	2
1.47933	2
1.48300	1
1.48667	1
1.49033	0
1.49400	0
1.49767	-0
1.50133	-0
1.50500	-1
1.50867	-1
1.51233	-1
1.51600	-0
1.51967	-0
1.52333	0
1.52700	1
1.53067	1
1.53433	1
1.53800	1
1.54167	1
1.54533	1
1.54900	1
1.55267	1
1.55633	2
1.56000	2
1.56367	2
1.56733	2
1.57100	2
1.57467	1
1.57833	1
1.58200	1
1.58567	0
1.58933	-0
1.59300	-1
1.59667	-1
1.60033	-2
1.60400	-3
1.60767	-4
1.61133	-5
1.61500	-7
1.61867	-9
1.62233	-12
1.62600	-15
1.62967	-18
1.63333	-22
1.63700	-25
1.64067	-29
1.64433	-33
1.64800	-37
1.65167	-41
1.65533	-45
1.65900	-49
1.66267	-53
1.66633	-58
1.67000	-63
1.67367	-69
1.67733	-74
1.68100	-79
1.68467	-84
1.68833	-88
1.69200	-92
1.69567	-95
1.69933	-98
1.70300	-100
1.70667	-102
1.71033	-103
1.71400	-105
1.71767	-106
1.72133	-107
1.72500	-108
1.72867	-109
1.73233	-110
1.73600	-111
1.73967	-111
1.74333	-112
1.74700	-113
1.75067	-113
1.75433	-114
1.75800	-114
1.76167	-113
1.76533	-113
1.76900	-112
1.77267	-112
1.77633	-112
1.78000	-112
1.78367	-112
1.78733	-112
1.79100	-113
1.79467	-113
1.79833	-114
1.80200	-114
1.80567	-115
1.80933	-115
1.81300	-115
1.81667	-115
1.82033	-116
1.82400	-116
1.82767	-116
1.83133	-116
1.83500	-116
1.83867	-116
1.84233	-116
1.84600	-116
1.84967	-116
1.85333	-116
1.85700	-117
1.86067	-117
1.86433	-117
1.86800	-117
1.87167	-117
1.87533	-117
1.87900	-117
1.88267	-117
1.88633	-117
1.89000	-117
1.89367	-117
1.89733	-117
1.90100	-117
1.90467	-117
1.90833	-117
1.91200	-116
1.91567	-116
1.91933	-115
1.92300	-114
1.92667	-114
1.93033	-113
1.93400	-112
1.93767	-112
1.94133	-111
1.94500	-111
1.94867	-110
1.95233	-110
1.95600	-110
1.95967	-109
1.96333	-109
1.96700	-109
1.97067	-109
1.97433	-109
1.97800	-110
1.98167	-110
1.98533	-111
1.98900	-111
1.99267	-110
1.99633	-109
2.00000	-108
2.00367	-107
2.00733	-107
2.01100	-107
2.01467	-107
2.01833	-106
2.02200	-106
2.02567	-106
2.02933	-106
2.03300	-106
2.03667	-106
2.04033	-106
2.04400	-105
2.04767	-105
2.05133	-105
2.05500	-104
2.05867	-104
2.06233	-103
2.06600	-103
2.06967	-102
2.07333	-102
2.07700	-101
2.08067	-101
2.08433	-100
2.08800	-100
2.09167	-100
2.09533	-100
2.09900	-100
2.10267	-100
2.10633	-100
2.11000	-100
2.11367	-99
2.11733	-98
2.12100	-97
2.12467	-96
2.12833	-96
2.13200	-96
2.13567	-96
2.13933	-96
2.14300	-96
2.14667	-96
2.15033	-96
2.15400	-96
2.15767	-95
2.16133	-94
2.16500	-94
2.16867	-93
2.17233	-93
2.17600	-92
2.17967	-92
2.18333	-92
2.18700	-92
2.19067	-92
2.19433	-93
2.19800	-93
2.20167	-92
2.20533	-92
2.20900	-91
2.21267	-91
2.21633	-90
2.22000	-90
2.22367	-89
2.22733	-89
2.23100	-89
2.23467	-89
2.23833	-90
2.24200	-90
2.24567	-90
2.24933	-90
2.25300	-89
2.25667	-88
2.26033	-87
2.26400	-86
2.26767	-85
2.27133	-84
2.27500	-82
2.27867	-81
2.28233	-81
2.28600	-80
2.28967	-81
2.29333	-82
2.29700	-83
2.30067	-84
2.30433	-86
2.30800	-86
2.31167	-86
2.31533	-85
2.31900	-85
2.32267	-84
2.32633	-83
2.33000	-82
2.33367	-82
2.33733	-81
2.34100	-80
2.34467	-80
2.34833	-78
2.35200	-77
2.35567	-76
2.35933	-74
2.36300	-73
2.36667	-72
2.37033	-70
2.37400	-68
2.37767	-65
2.38133	-62
2.38500	-58
2.38867	-54
2.39233	-50
2.39600	-46
2.39967	-41
2.40333	-38
2.40700	-34
2.41067	-31
2.41433	-28
2.41800	-25
2.42167	-22
2.42533	-19
2.42900	-17
2.43267	-16
2.43633	-14
2.44000	-13
2.44367	-11
2.44733	-9
2.45100	-7
2.45467	-6
2.45833	-4
2.46200	-2
2.46567	-1
2.46933	1
2.47300	2
2.47667	3
2.48033	4
2.48400	5
2.48767	6
2.49133	6
2.49500	7
2.49867	8
2.50233	9
2.50600	10
2.50967	11
2.51333	11
2.51700	12
2.52067	12
2.52433	13
2.52800	14
2.53167	15
2.53533	15
2.53900	15
2.54267	16
2.54633	16
2.55000	16
2.55367	17
2.55733	17
2.56100	17
2.56467	17
2.56833	16
2.57200	16
2.57567	15
2.57933	15
2.58300	14
2.58667	15
2.59033	15
2.59400	15
2.59767	16
2.60133	16
2.60500	17
2.60867	17
2.61233	18
2.61600	18
2.61967	18
2.62333	19
2.62700	19
2.63067	20
2.63433	20
2.63800	20
2.64167	20
2.64533	20
2.64900	20
2.65267	21
2.65633	21
2.66000	22
2.66367	22
2.66733	23
2.67100	23
2.67467	23
2.67833	23
2.68200	23
2.68567	22
2.68933	23
2.69300	23
2.69667	23
2.70033	23
2.70400	23
2.70767	23
2.71133	23
2.71500	24
2.71867	25
2.72233	25
2.72600	26
2.72967	26
2.73333	27
2.73700	27
2.74067	27
2.74433	28
2.74800	28
2.75167	29
2.75533	29
2.75900	28
2.76267	28
2.76633	27
2.77000	27
2.77367	26
2.77733	26
2.78100	25
2.78467	25
2.78833	25
2.79200	24
2.79567	24
2.79933	24
2.80300	25
2.80667	25
2.81033	25
2.81400	25
2.81767	25
2.82133	25
2.82500	25
2.82867	25
2.83233	25
2.83600	25
2.83967	24
2.84333	21
2.84700	17
2.85067	10
2.85433	-0
2.85800	-14
2.86167	-32
2.86533	-53
2.86900	-79
2.87267	-109
2.87633	-143
2.88000	-181
2.88367	-222
2.88733	-266
2.89100	-313
2.89467	-362
2.89833	-413
2.90200	-465
2.90567	-518
2.90933	-572
2.91300	-625
2.91667	-679
2.92033	-732
2.92400	-784
2.92767	-836
2.93133	-889
2.93500	-947
2.93867	-1007
2.94233	-1062
2.94600	-1099
2.94967	-1112
2.95333	-1098
2.95700	-1061
2.96067	-1004
2.96433	-934
2.96800	-856
2.97167	-774
2.97533	-693
2.97900	-615
2.98267	-542
2.98633	-474
2.99000	-413
2.99367	-357
2.99733	-308
3.00100	-264
3.00467	-226
3.00833	-192
3.01200	-163
3.01567	-137
3.01933	-115
3.02300	-97
3.02667	-80
3.03033	-66
3.03400	-55
3.03767	-45
3.04133	-36
3.04500	-29
3.04867	-22
3.05233	-17
3.05600	-12
3.05967	-8
3.06333	-5
3.06700	-1
3.07067	1
3.07433	4
3.07800	6
3.08167	8
3.08533	9
3.08900	10
3.09267	11
3.09633	12
3.10000	13
3.10367	14
3.10733	14
3.11100	15
3.11467	15
3.11833	16
3.12200	16
3.12567	17
3.12933	17
3.13300	18
3.13667	18
3.14033	19
3.14400	19
3.14767	20
3.15133	20
3.15500	20
3.15867	21
3.16233	21
3.16600	21
3.16967	21
3.17333	22
3.17700	22
3.18067	22
3.18433	23
3.18800	23
3.19167	23
3.19533	23
3.19900	24
3.20267	24
3.20633	24
3.21000	24
3.21367	24
3.21733	24
3.22100	24
3.22467	24
3.22833	24
3.23200	24
3.23567	24
3.23933	25
3.24300	25
3.24667	25
3.25033	25
3.25400	25
3.25767	25
3.26133	26
3.26500	26
3.26867	26
3.27233	26
3.27600	26
3.27967	26
3.28333	26
3.28700	26
3.29067	27
3.29433	27
3.29800	27
3.30167	27
3.30533	27
3.30900	27
3.31267	27
3.31633	26
3.32000	26
3.32367	26
3.32733	25
3.33100	25
3.33467	25
3.33833	25
3.34200	25
3.34567	25
3.34933	25
3.35300	25
3.35667	26
3.36033	26
3.36400	27
3.36767	27
3.37133	27
3.37500	28
3.37867	28
3.38233	28
3.38600	28
3.38967	28
3.39333	29
3.39700	29
3.40067	29
3.40433	29
3.40800	30
3.41167	30
3.41533	30
3.41900	30
3.42267	30
3.42633	30
3.43000	30
3.43367	30
3.43733	30
3.44100	30
3.44467	30
3.44833	30
3.45200	30
3.45567	30
3.45933	30
3.46300	30
3.46667	29
3.47033	29
3.47400	29
3.47767	29
3.48133	29
3.48500	29
3.48867	29
3.49233	29
3.49600	29
3.49967	29
3.50333	29
3.50700	29
3.51067	29
3.51433	29
3.51800	28
3.52167	28
3.52533	28
3.52900	28
3.53267	27
3.53633	27
3.54000	27
3.54367	27
3.54733	27
3.55100	28
3.55467	28
3.55833	28
3.56200	28
3.56567	28
3.56933	29
3.57300	29
3.57667	29
3.58033	29
3.58400	29
3.58767	30
3.59133	30
3.59500	30
3.59867	30
3.60233	30
3.60600	30
3.60967	30
3.61333	30
3.61700	29
3.62067	29
3.62433	29
3.62800	29
3.63167	29
3.63533	29
3.63900	29
3.64267	29
3.64633	29
3.65000	29
3.65367	29
3.65733	29
3.66100	28
3.66467	28
3.66833	28
3.67200	28
3.67567	27
3.67933	27
3.68300	27
3.68667	28
3.69033	28
3.69400	28
3.69767	28
3.70133	28
3.70500	28
3.70867	28
3.71233	28
3.71600	28
3.71967	28
3.72333	28
3.72700	29
3.73067	29
3.73433	29
3.73800	29
3.74167	29
3.74533	29
3.74900	29
3.75267	28
3.75633	28
3.76000	28
3.76367	28
3.76733	28
3.77100	28
3.77467	28
3.77833	28
3.78200	28
3.78567	28
3.78933	28
3.79300	28
3.79667	29
3.80033	29
3.80400	29
3.80767	29
3.81133	28
3.81500	28
3.81867	28
3.82233	28
3.82600	28
3.82967	29
3.83333	29
3.83700	29
3.84067	29
3.84433	29
3.84800	29
3.85167	29
3.85533	29
3.85900	29
3.86267	28
3.86633	28
3.87000	28
3.87367	27
3.87733	27
3.88100	27
3.88467	26
3.88833	26
3.89200	26
3.89567	26
3.89933	26
3.90300	26
3.90667	26
3.91033	25
3.91400	25
3.91767	25
3.92133	25
3.92500	25
3.92867	26
3.93233	26
3.93600	26
3.93967	26
3.94333	26
3.94700	27
3.95067	27
3.95433	27
3.95800	28
3.96167	28
3.96533	28
3.96900	29
3.97267	29
3.97633	29
3.98000	29
3.98367	29
3.98733	30
3.99100	30
3.99467	30
3.99833	30

[Chromatogram (Ch3)]
Interval(msec)	220
# of Points	1091
Start Time(min)	0.002
End Time(min)	3.998
R.Time (min)	Intensity
0.00167	-1
0.00533	-1
0.00900	-2
0.01267	-4
0.01633	-4
0.02000	-4
0.02367	-5
0.02733	-3
0.03100	-2
0.03467	-5
0.03833	-5
0.04200	-3
0.04567	-0
0.04933	1
0.05300	3
0.05667	2
0.06033	1
0.06400	0
0.06767	1
0.07133	3
0.07500	3
0.07867	4
0.08233	4
0.08600	3
0.08967	3
0.09333	3
0.09700	1
0.10067	1
0.10433	1
0.10800	2
0.11167	2
0.11533	2
0.11900	3
0.12267	3
0.12633	3
0.13000	3
0.13367	3
0.13733	1
0.14100	-2
0.14467	-4
0.14833	-6
0.15200	-3
0.15567	-4
0.15933	-6
0.16300	-5
0.16667	-4
0.17033	-4
0.17400	-5
0.17767	-6
0.18133	-5
0.18500	-2
0.18867	1
0.19233	4
0.19600	5
0.19967	3
0.20333	3
0.20700	1
0.21067	-1
0.21433	-1
0.21800	-1
0.22167	0
0.22533	-1
0.22900	-5
0.23267	-5
0.23633	-3
0.24000	-2
0.24367	2
0.24733	6
0.25100	9
0.25467	10
0.25833	7
0.26200	6
0.26567	6
0.26933	5
0.27300	3
0.27667	3
0.28033	3
0.28400	4
0.28767	4
0.29133	5
0.29500	5
0.29867	6
0.30233	6
0.30600	5
0.30967	4
0.31333	4
0.31700	2
0.32067	4
0.32433	7
0.32800	10
0.33167	10
0.33533	11
0.33900	11
0.34267	10
0.34633	6
0.35000	3
0.35367	2
0.35733	3
0.36100	5
0.36467	4
0.36833	3
0.37200	2
0.37567	1
0.37933	1
0.38300	4
0.38667	5
0.39033	8
0.39400	9
0.39767	8
0.40133	6
0.40500	3
0.40867	4
0.41233	7
0.41600	7
0.41967	6
0.42333	6
0.42700	6
0.43067	6
0.43433	8
0.43800	9
0.44167	9
0.44533	9
0.44900	8
0.45267	6
0.45633	5
0.46000	3
0.46367	2
0.46733	3
0.47100	3
0.47467	5
0.47833	7
0.48200	8
0.48567	8
0.48933	5
0.49300	3
0.49667	3
0.50033	4
0.50400	5
0.50767	4
0.51133	4
0.51500	4
0.51867	5
0.52233	4
0.52600	5
0.52967	6
0.53333	4
0.53700	2
0.54067	3
0.54433	4
0.54800	5
0.55167	5
0.55533	4
0.55900	5
0.56267	6
0.56633	5
0.57000	3
0.57367	3
0.57733	5
0.58100	7
0.58467	8
0.58833	7
0.59200	5
0.59567	4
0.59933	3
0.60300	3
0.60667	4
0.61033	4
0.61400	6
0.61767	9
0.62133	10
0.62500	11
0.62867	11
0.63233	12
0.63600	12
0.63967	10
0.64333	9
0.64700	11
0.65067	11
0.65433	11
0.65800	10
0.66167	12
0.66533	12
0.66900	10
0.67267	10
0.67633	10
0.68000	9
0.68367	7
0.68733	8
0.69100	9
0.69467	9
0.69833	7
0.70200	8
0.70567	11
0.70933	12
0.71300	11
0.71667	10
0.72033	8
0.72400	9
0.72767	11
0.73133	12
0.73500	12
0.73867	10
0.74233	10
0.74600	10
0.74967	12
0.75333	12
0.75700	11
0.76067	15
0.76433	17
0.76800	18
0.77167	18
0.77533	19
0.77900	20
0.78267	20
0.78633	20
0.79000	16
0.79367	17
0.79733	17
0.80100	17
0.80467	18
0.80833	18
0.81200	18
0.81567	18
0.81933	20
0.82300	20
0.82667	19
0.83033	19
0.83400	20
0.83767	20
0.84133	19
0.84500	20
0.84867	22
0.85233	22
0.85600	21
0.85967	20
0.86333	20
0.86700	20
0.87067	21
0.87433	23
0.87800	24
0.88167	25
0.88533	27
0.88900	29
0.89267	27
0.89633	26
0.90000	25
0.90367	25
0.90733	26
0.91100	26
0.91467	26
0.91833	24
0.92200	20
0.92567	20
0.92933	21
0.93300	23
0.93667	26
0.94033	27
0.94400	26
0.94767	24
0.95133	26
0.95500	29
0.95867	30
0.96233	30
0.96600	29
0.96967	29
0.97333	29
0.97700	28
0.98067	28
0.98433	28
0.98800	29
0.99167	30
0.99533	31
0.99900	30
1.00267	32
1.00633	33
1.01000	33
1.01367	32
1.01733	31
1.02100	30
1.02467	30
1.02833	29
1.03200	31
1.03567	32
1.03933	32
1.04300	32
1.04667	30
1.05033	30
1.05400	31
1.05767	33
1.06133	32
1.06500	30
1.06867	29
1.07233	29
1.07600	29
1.07967	31
1.08333	33
1.08700	33
1.09067	31
1.09433	30
1.09800	32
1.10167	34
1.10533	36
1.10900	37
1.11267	38
1.11633	36
1.12000	36
1.12367	35
1.12733	35
1.13100	36
1.13467	35
1.13833	34
1.14200	33
1.14567	32
1.14933	30
1.15300	30
1.15667	31
1.16033	34
1.16400	36
1.16767	35
1.17133	33
1.17500	32
1.17867	32
1.18233	33
1.18600	33
1.18967	32
1.19333	33
1.19700	36
1.20067	37
1.20433	38
1.20800	37
1.21167	35
1.21533	34
1.21900	34
1.22267	36
1.22633	36
1.23000	36
1.23367	33
1.23733	32
1.24100	33
1.24467	34
1.24833	35
1.25200	36
1.25567	36
1.25933	34
1.26300	32
1.26667	32
1.27033	33
1.27400	34
1.27767	36
1.28133	36
1.28500	35
1.28867	35
1.29233	34
1.29600	33
1.29967	34
1.30333	33
1.30700	31
1.31067	28
1.31433	28
1.31800	29
1.32167	30
1.32533	32
1.32900	29
1.33267	28
1.33633	29
1.34000	32
1.34367	34
1.34733	35
1.35100	35
1.35467	35
1.35833	35
1.36200	34
1.36567	32
1.36933	31
1.37300	32
1.37667	32
1.38033	33
1.38400	35
1.38767	36
1.39133	35
1.39500	36
1.39867	38
1.40233	38
1.40600	38
1.40967	35
1.41333	33
1.41700	32
1.42067	32
1.42433	32
1.42800	34
1.43167	34
1.43533	33
1.43900	32
1.44267	31
1.44633	32
1.45000	33
1.45367	33
1.45733	32
1.46100	29
1.46467	28
1.46833	31
1.47200	30
1.47567	28
1.47933	30
1.48300	31
1.48667	31
1.49033	32
1.49400	32
1.49767	30
1.50133	31
1.50500	33
1.50867	32
1.51233	33
1.51600	34
1.51967	35
1.52333	34
1.52700	35
1.53067	37
1.53433	36
1.53800	36
1.54167	36
1.54533	37
1.54900	38
1.55267	39
1.55633	40
1.56000	38
1.56367	36
1.56733	34
1.57100	31
1.57467	31
1.57833	31
1.58200	30
1.58567	31
1.58933	34
1.59300	36
1.59667	37
1.60033	38
1.60400	38
1.60767	38
1.61133	37
1.61500	37
1.61867	36
1.62233	35
1.62600	37
1.62967	40
1.63333	40
1.63700	39
1.64067	41
1.64433	40
1.64800	41
1.65167	41
1.65533	43
1.65900	45
1.66267	44
1.66633	44
1.67000	44
1.67367	45
1.67733	44
1.68100	45
1.68467	46
1.68833	47
1.69200	48
1.69567	49
1.69933	50
1.70300	51
1.70667	51
1.71033	49
1.71400	45
1.71767	44
1.72133	45
1.72500	46
1.72867	46
1.73233	46
1.73600	45
1.73967	43
1.74333	44
1.74700	45
1.75067	48
1.75433	49
1.75800	50
1.76167	49
1.76533	48
1.76900	47
1.77267	46
1.77633	45
1.78000	46
1.78367	46
1.78733	47
1.79100	50
1.79467	51
1.79833	51
1.80200	50
1.80567	52
1.80933	51
1.81300	50
1.81667	50
1.82033	50
1.82400	51
1.82767	54
1.83133	58
1.83500	62
1.83867	65
1.84233	64
1.84600	63
1.84967	62
1.85333	63
1.85700	63
1.86067	64
1.86433	63
1.86800	61
1.87167	61
1.87533	63
1.87900	67
1.88267	72
1.88633	72
1.89000	71
1.89367	67
1.89733	64
1.90100	64
1.90467	63
1.90833	64
1.91200	67
1.91567	68
1.91933	69
1.92300	67
1.92667	66
1.93033	64
1.93400	65
1.93767	66
1.94133	65
1.94500	66
1.94867	68
1.95233	70
1.95600	70
1.95967	68
1.96333	69
1.96700	71
1.97067	73
1.97433	76
1.97800	79
1.98167	80
1.98533	78
1.98900	76
1.99267	77
1.99633	77
2.00000	77
2.00367	81
2.00733	86
2.01100	89
2.01467	91
2.01833	93
2.02200	93
2.02567	92
2.02933	92
2.03300	91
2.03667	89
2.04033	90
2.04400	92
2.04767	92
2.05133	92
2.05500	92
2.05867	94
2.06233	95
2.06600	95
2.06967	95
2.07333	96
2.07700	97
2.08067	98
2.08433	100
2.08800	100
2.09167	100
2.09533	100
2.09900	105
2.10267	106
2.10633	106
2.11000	104
2.11367	103
2.11733	102
2.12100	101
2.12467	103
2.12833	105
2.13200	106
2.13567	109
2.13933	111
2.14300	114
2.14667	117
2.15033	119
2.15400	117
2.15767	117
2.16133	119
2.16500	121
2.16867	121
2.17233	122
2.17600	123
2.17967	124
2.18333	123
2.18700	125
2.19067	126
2.19433	127
2.19800	129
2.20167	130
2.20533	131
2.20900	132
2.21267	135
2.21633	135
2.22000	136
2.22367	137
2.22733	137
2.23100	138
2.23467	141
2.23833	144
2.24200	146
2.24567	148
2.24933	149
2.25300	147
2.25667	149
2.26033	151
2.26400	154
2.26767	157
2.27133	160
2.27500	159
2.27867	158
2.28233	157
2.28600	157
2.28967	157
2.29333	158
2.29700	158
2.30067	159
2.30433	160
2.30800	163
2.31167	163
2.31533	163
2.31900	162
2.32267	163
2.32633	166
2.33000	170
2.33367	172
2.33733	173
2.34100	173
2.34467	175
2.34833	178
2.35200	180
2.35567	181
2.35933	184
2.36300	185
2.36667	188
2.37033	191
2.37400	193
2.37767	194
2.38133	192
2.38500	190
2.38867	191
2.39233	194
2.39600	197
2.39967	200
2.40333	203
2.40700	205
2.41067	209
2.41433	211
2.41800	212
2.42167	211
2.42533	210
2.42900	210
2.43267	212
2.43633	213
2.44000	213
2.44367	236
2.44733	300
2.45100	368
2.45467	422
2.45833	459
2.46200	469
2.46567	459
2.46933	441
2.47300	424
2.47667	413
2.48033	407
2.48400	403
2.48767	396
2.49133	385
2.49500	368
2.49867	348
2.50233	330
2.50600	316
2.50967	308
2.51333	303
2.51700	301
2.52067	298
2.52433	296
2.52800	297
2.53167	299
2.53533	303
2.53900	309
2.54267	313
2.54633	318
2.55000	320
2.55367	320
2.55733	318
2.56100	313
2.56467	306
2.56833	298
2.57200	289
2.57567	282
2.57933	275
2.58300	272
2.58667	269
2.59033	266
2.59400	262
2.59767	255
2.60133	246
2.60500	231
2.60867	213
2.61233	192
2.61600	170
2.61967	148
2.62333	127
2.62700	108
2.63067	95
2.63433	86
2.63800	80
2.64167	76
2.64533	76
2.64900	78
2.65267	85
2.65633	92
2.66000	100
2.66367	108
2.66733	120
2.67100	134
2.67467	145
2.67833	156
2.68200	167
2.68567	176
2.68933	183
2.69300	187
2.69667	190
2.70033	195
2.70400	198
2.70767	201
2.71133	204
2.71500	206
2.71867	208
2.72233	212
2.72600	214
2.72967	216
2.73333	217
2.73700	218
2.74067	216
2.74433	214
2.74800	212
2.75167	213
2.75533	216
2.75900	216
2.76267	215
2.76633	215
2.77000	216
2.77367	216
2.77733	218
2.78100	222
2.78467	226
2.78833	227
2.79200	226
2.79567	226
2.79933	227
2.80300	227
2.80667	228
2.81033	230
2.81400	229
2.81767	235
2.82133	250
2.82500	287
2.82867	360
2.83233	494
2.83600	708
2.83967	1018
2.84333	1431
2.84700	1938
2.85067	2510
2.85433	3110
2.85800	3685
2.86167	4191
2.86533	4589
2.86900	4853
2.87267	4971
2.87633	4951
2.88000	4812
2.88367	4577
2.88733	4278
2.89100	3942
2.89467	3589
2.89833	3239
2.90200	2904
2.90567	2590
2.90933	2300
2.91300	2038
2.91667	1804
2.92033	1598
2.92400	1418
2.92767	1259
2.93133	1118
2.93500	993
2.93867	885
2.94233	795
2.94600	718
2.94967	651
2.95333	592
2.95700	543
2.96067	499
2.96433	463
2.96800	433
2.97167	405
2.97533	381
2.97900	363
2.98267	346
2.98633	328
2.99000	313
2.99367	304
2.99733	294
3.00100	284
3.00467	279
3.00833	274
3.01200	270
3.01567	265
3.01933	260
3.02300	255
3.02667	251
3.03033	250
3.03400	245
3.03767	240
3.04133	239
3.04500	238
3.04867	236
3.05233	233
3.05600	231
3.05967	229
3.06333	227
3.06700	223
3.07067	222
3.07433	221
3.07800	217
3.08167	214
3.08533	211
3.08900	211
3.09267	211
3.09633	209
3.10000	208
3.10367	209
3.10733	208
3.11100	209
3.11467	211
3.11833	211
3.12200	210
3.12567	210
3.12933	208
3.13300	206
3.13667	201
3.14033	187
3.14400	156
3.14767	122
3.15133	112
3.15500	131
3.15867	169
3.16233	214
3.16600	261
3.16967	306
3.17333	350
3.17700	393
3.18067	433
3.18433	474
3.18800	511
3.19167	544
3.19533	576
3.19900	607
3.20267	631
3.20633	653
3.21000	674
3.21367	691
3.21733	706
3.22100	719
3.22467	733
3.22833	743
3.23200	750
3.23567	756
3.23933	761
3.24300	764
3.24667	766
3.25033	767
3.25400	768
3.25767	769
3.26133	771
3.26500	772
3.26867	772
3.27233	769
3.27600	767
3.27967	767
3.28333	766
3.28700	766
3.29067	766
3.29433	767
3.29800	765
3.30167	760
3.30533	757
3.30900	755
3.31267	753
3.31633	751
3.32000	751
3.32367	752
3.32733	752
3.33100	751
3.33467	750
3.33833	749
3.34200	748
3.34567	748
3.34933	748
3.35300	747
3.35667	747
3.36033	750
3.36400	750
3.36767	749
3.37133	749
3.37500	748
3.37867	744
3.38233	740
3.38600	736
3.38967	732
3.39333	731
3.39700	731
3.40067	729
3.40433	728
3.40800	724
3.41167	720
3.41533	718
3.41900	718
3.42267	717
3.42633	715
3.43000	713
3.43367	710
3.43733	706
3.44100	702
3.44467	697
3.44833	689
3.45200	684
3.45567	681
3.45933	676
3.46300	674
3.46667	671
3.47033	669
3.47400	670
3.47767	668
3.48133	666
3.48500	663
3.48867	662
3.49233	661
3.49600	659
3.49967	657
3.50333	653
3.50700	650
3.51067	649
3.51433	646
3.51800	642
3.52167	638
3.52533	637
3.52900	636
3.53267	634
3.53633	630
3.54000	627
3.54367	625
3.54733	623
3.55100	622
3.55467	622
3.55833	621
3.56200	618
3.56567	617
3.56933	615
3.57300	612
3.57667	611
3.58033	609
3.58400	607
3.58767	607
3.59133	606
3.59500	605
3.59867	603
3.60233	600
3.60600	596
3.60967	593
3.61333	591
3.61700	589
3.62067	586
3.62433	582
3.62800	581
3.63167	578
3.63533	576
3.63900	574
3.64267	573
3.64633	571
3.65000	567
3.65367	564
3.65733	561
3.66100	560
3.66467	561
3.66833	560
3.67200	559
3.67567	556
3.67933	553
3.68300	549
3.68667	544
3.69033	540
3.69400	539
3.69767	540
3.70133	538
3.70500	537
3.70867	537
3.71233	537
3.71600	537
3.71967	536
3.72333	533
3.72700	532
3.73067	532
3.73433	532
3.73800	532
3.74167	529
3.74533	526
3.74900	526
3.75267	525
3.75633	525
3.76000	526
3.76367	525
3.76733	524
3.77100	522
3.77467	520
3.77833	519
3.78200	518
3.78567	518
3.78933	517
3.79300	514
3.79667	511
3.80033	511
3.80400	513
3.80767	515
3.81133	514
3.81500	512
3.81867	511
3.82233	512
3.82600	511
3.82967	509
3.83333	507
3.83700	504
3.84067	501
3.84433	500
3.84800	502
3.85167	500
3.85533	499
3.85900	498
3.86267	497
3.86633	498
3.87000	496
3.87367	492
3.87733	490
3.88100	488
3.88467	487
3.88833	488
3.89200	487
3.89567	485
3.89933	485
3.90300	487
3.90667	485
3.91033	484
3.91400	485
3.91767	484
3.92133	485
3.92500	482
3.92867	480
3.93233	482
3.93600	481
3.93967	480
3.94333	479
3.94700	478
3.95067	478
3.95433	478
3.95800	478
3.96167	478
3.96533	479
3.96900	478
3.97267	477
3.97633	475
3.98000	473
3.98367	471
3.98733	471
3.99100	470
3.99467	467
3.99833	464

[Status Trace (Column Oven Temperature)]
Interval(msec)	1000
# of Points	240
Start Time(min)	0.015
End Time(min)	3.999
Intensity Units	
Intensity Multiplier	1
R.Time (min)	Intensity
0.01545	35.04
0.03212	35.03
0.04878	35.02
0.06545	35.03
0.08212	35.01
0.09878	35.01
0.11545	35.00
0.13212	35.00
0.14878	35.00
0.16545	35.00
0.18212	35.00
0.19878	35.01
0.21545	35.01
0.23212	35.01
0.24878	35.03
0.26545	35.03
0.28212	35.02
0.29878	35.01
0.31545	35.02
0.33212	35.00
0.34878	35.00
0.36545	34.98
0.38212	34.97
0.39878	34.96
0.41545	34.96
0.43212	34.97
0.44878	34.98
0.46545	35.00
0.48212	35.02
0.49878	35.04
0.51545	35.05
0.53212	35.05
0.54878	35.05
0.56545	35.05
0.58212	35.04
0.59878	35.03
0.61545	35.02
0.63212	35.01
0.64878	35.01
0.66545	35.00
0.68212	34.99
0.69878	35.00
0.71545	35.00
0.73212	35.01
0.74878	35.00
0.76545	35.00
0.78212	35.01
0.79878	35.02
0.81545	35.02
0.83212	35.01
0.84878	34.99
0.86545	34.97
0.88212	34.97
0.89878	34.97
0.91545	34.97
0.93212	34.98
0.94878	34.99
0.96545	35.01
0.98212	35.01
0.99878	35.01
1.01545	35.02
1.03212	35.02
1.04878	35.01
1.06545	35.01
1.08212	35.01
1.09878	35.01
1.11545	35.00
1.13212	35.00
1.14878	35.00
1.16545	35.00
1.18212	34.99
1.19878	34.99
1.21545	34.99
1.23212	34.98
1.24878	34.97
1.26545	34.97
1.28212	34.97
1.29878	34.97
1.31545	34.97
1.33212	34.98
1.34878	35.00
1.36545	34.99
1.38212	34.99
1.39878	34.99
1.41545	34.98
1.43212	34.98
1.44878	34.97
1.46545	34.96
1.48212	34.98
1.49878	34.99
1.51545	34.98
1.53212	34.98
1.54878	34.98
1.56545	34.97
1.58212	34.97
1.59878	35.00
1.61545	35.07
1.63212	35.23
1.64878	35.44
1.66545	35.74
1.68212	36.12
1.69878	36.48
1.71545	36.83
1.73212	37.17
1.74878	37.51
1.76545	37.82
1.78212	38.15
1.79878	38.48
1.81545	38.82
1.83212	39.15
1.84878	39.48
1.86545	39.80
1.88212	40.14
1.89878	40.47
1.91545	40.80
1.93212	41.13
1.94878	41.44
1.96545	41.76
1.98212	42.08
1.99878	42.40
2.01545	42.73
2.03212	43.06
2.04878	43.39
2.06545	43.71
2.08212	44.03
2.09878	44.39
2.11545	44.67
2.13212	45.00
2.14878	45.33
2.16545	45.65
2.18212	45.97
2.19878	46.30
2.21545	46.63
2.23212	47.00
2.24878	47.33
2.26545	47.64
2.28212	47.95
2.29878	48.35
2.31545	48.67
2.33212	49.00
2.34878	49.28
2.36545	49.55
2.38212	49.68
2.39878	49.70
2.41545	49.69
2.43212	49.71
2.44878	49.71
2.46545	49.72
2.48212	49.73
2.49878	49.74
2.51545	49.75
2.53212	49.76
2.54878	49.77
2.56545	49.80
2.58212	49.82
2.59878	49.82
2.61545	49.83
2.63212	49.83
2.64878	49.84
2.66545	49.84
2.68212	49.85
2.69878	49.87
2.71545	49.86
2.73212	49.85
2.74878	49.84
2.76545	49.87
2.78212	49.89
2.79878	49.90
2.81545	49.91
2.83212	49.92
2.84878	49.92
2.86545	49.93
2.88212	49.93
2.89878	49.94
2.91545	49.97
2.93212	49.98
2.94878	50.00
2.96545	50.01
2.98212	50.02
2.99878	50.03
3.01545	50.04
3.03212	50.05
3.04878	50.06
3.06545	50.06
3.08212	50.07
3.09878	50.08
3.11545	50.09
3.13212	50.09
3.14878	50.09
3.16545	50.09
3.18212	50.09
3.19878	50.08
3.21545	50.08
3.23212	50.09
3.24878	50.09
3.26545	50.09
3.28212	50.08
3.29878	50.09
3.31545	50.10
3.33212	50.11
3.34878	50.11
3.36545	50.10
3.38212	50.08
3.39878	50.07
3.41545	50.06
3.43212	50.06
3.44878	50.05
3.46545	50.05
3.48212	50.04
3.49878	50.04
3.51545	50.05
3.53212	50.06
3.54878	50.06
3.56545	50.05
3.58212	50.03
3.59878	50.02
3.61545	50.02
3.63212	50.02
3.64878	50.03
3.66545	50.04
3.68212	50.04
3.69878	50.04
3.71545	50.04
3.73212	50.03
3.74878	50.03
3.76545	50.03
3.78212	50.03
3.79878	50.03
3.81545	50.02
3.83212	50.02
3.84878	50.01
3.86545	50.02
3.88212	50.04
3.89878	50.06
3.91545	50.07
3.93212	50.08
3.94878	50.08
3.96545	50.07
3.98212	50.05
3.99878	50.04

[Status Trace (Injection Unit Temperature)]
Interval(msec)	1000
# of Points	240
Start Time(min)	0.015
End Time(min)	3.999
Intensity Units	
Intensity Multiplier	1
R.Time (min)	Intensity
0.01545	99.97
0.03212	99.97
0.04878	99.98
0.06545	99.98
0.08212	99.98
0.09878	99.98
0.11545	99.98
0.13212	99.98
0.14878	99.98
0.16545	99.98
0.18212	99.98
0.19878	99.98
0.21545	99.98
0.23212	99.98
0.24878	99.98
0.26545	99.98
0.28212	99.99
0.29878	99.98
0.31545	99.98
0.33212	99.98
0.34878	99.98
0.36545	99.98
0.38212	99.98
0.39878	99.98
0.41545	99.99
0.43212	99.98
0.44878	99.98
0.46545	99.98
0.48212	99.99
0.49878	99.99
0.51545	99.98
0.53212	99.99
0.54878	99.98
0.56545	99.98
0.58212	99.98
0.59878	99.98
0.61545	99.98
0.63212	99.98
0.64878	99.98
0.66545	99.98
0.68212	99.98
0.69878	99.98
0.71545	99.98
0.73212	99.98
0.74878	99.98
0.76545	99.98
0.78212	99.98
0.79878	99.98
0.81545	99.98
0.83212	99.98
0.84878	99.97
0.86545	99.98
0.88212	99.98
0.89878	99.98
0.91545	99.97
0.93212	99.97
0.94878	99.98
0.96545	99.97
0.98212	99.98
0.99878	99.97
1.01545	99.97
1.03212	99.97
1.04878	99.98
1.06545	99.97
1.08212	99.97
1.09878	99.97
1.11545	99.97
1.13212	99.97
1.14878	99.97
1.16545	99.97
1.18212	99.97
1.19878	99.97
1.21545	99.98
1.23212	99.97
1.24878	99.97
1.26545	99.96
1.28212	99.98
1.29878	99.97
1.31545	99.98
1.33212	99.97
1.34878	99.98
1.36545	99.98
1.38212	99.98
1.39878	99.98
1.41545	99.98
1.43212	99.98
1.44878	99.98
1.46545	99.98
1.48212	99.99
1.49878	99.98
1.51545	99.98
1.53212	99.99
1.54878	99.98
1.56545	99.98
1.58212	99.99
1.59878	99.98
1.61545	99.98
1.63212	99.98
1.64878	99.99
1.66545	99.99
1.68212	99.98
1.69878	99.99
1.71545	99.98
1.73212	99.99
1.74878	99.99
1.76545	99.98
1.78212	99.98
1.79878	99.99
1.81545	99.98
1.83212	99.99
1.84878	99.99
1.86545	99.99
1.88212	99.98
1.89878	99.98
1.91545	99.98
1.93212	99.98
1.94878	99.99
1.96545	99.98
1.98212	99.98
1.99878	99.98
2.01545	99.98
2.03212	99.98
2.04878	99.98
2.06545	99.98
2.08212	99.98
2.09878	99.97
2.11545	99.97
2.13212	99.98
2.14878	99.97
2.16545	99.97
2.18212	99.97
2.19878	99.97
2.21545	99.97
2.23212	99.97
2.24878	99.97
2.26545	99.97
2.28212	99.97
2.29878	99.96
2.31545	99.97
2.33212	99.97
2.34878	99.96
2.36545	99.96
2.38212	99.96
2.39878	99.96
2.41545	99.96
2.43212	99.96
2.44878	99.95
2.46545	99.96
2.48212	99.96
2.49878	99.96
2.51545	99.96
2.53212	99.96
2.54878	99.96
2.56545	99.96
2.58212	99.96
2.59878	99.97
2.61545	99.97
2.63212	99.96
2.64878	99.97
2.66545	99.97
2.68212	99.97
2.69878	99.97
2.71545	99.97
2.73212	99.98
2.74878	99.98
2.76545	99.97
2.78212	99.98
2.79878	99.98
2.81545	99.99
2.83212	99.99
2.84878	99.99
2.86545	100.00
2.88212	100.00
2.89878	100.00
2.91545	100.00
2.93212	100.00
2.94878	100.01
2.96545	100.01
2.98212	100.01
2.99878	100.01
3.01545	100.01
3.03212	100.01
3.04878	100.02
3.06545	100.02
3.08212	100.02
3.09878	100.02
3.11545	100.02
3.13212	100.02
3.14878	100.03
3.16545	100.03
3.18212	100.03
3.19878	100.03
3.21545	100.03
3.23212	100.03
3.24878	100.03
3.26545	100.03
3.28212	100.04
3.29878	100.04
3.31545	100.04
3.33212	100.04
3.34878	100.04
3.36545	100.04
3.38212	100.04
3.39878	100.04
3.41545	100.04
3.43212	100.04
3.44878	100.05
3.46545	100.04
3.48212	100.05
3.49878	100.05
3.51545	100.05
3.53212	100.05
3.54878	100.05
3.56545	100.05
3.58212	100.05
3.59878	100.05
3.61545	100.05
3.63212	100.05
3.64878	100.05
3.66545	100.05
3.68212	100.05
3.69878	100.05
3.71545	100.04
3.73212	100.04
3.74878	100.05
3.76545	100.05
3.78212	100.05
3.79878	100.05
3.81545	100.05
3.83212	100.04
3.84878	100.04
3.86545	100.05
3.88212	100.04
3.89878	100.05
3.91545	100.04
3.93212	100.04
3.94878	100.04
3.96545	100.04
3.98212	100.04
3.99878	100.04

[Status Trace (Carrier Gas Pressure)]
Interval(msec)	1000
# of Points	240
Start Time(min)	0.015
End Time(min)	3.999
Intensity Units	
Intensity Multiplier	1
R.Time (min)	Intensity
0.01545	57.07
0.03212	55.80
0.04878	58.07
0.06545	59.88
0.08212	58.54
0.09878	57.97
0.11545	57.99
0.13212	58.01
0.14878	58.01
0.16545	58.00
0.18212	58.00
0.19878	58.00
0.21545	58.00
0.23212	58.00
0.24878	58.00
0.26545	58.00
0.28212	58.00
0.29878	58.00
0.31545	58.00
0.33212	58.00
0.34878	58.00
0.36545	58.00
0.38212	58.00
0.39878	58.00
0.41545	58.00
0.43212	58.00
0.44878	58.00
0.46545	58.00
0.48212	58.00
0.49878	58.00
0.51545	58.00
0.53212	58.00
0.54878	58.00
0.56545	58.00
0.58212	58.00
0.59878	58.00
0.61545	58.00
0.63212	58.00
0.64878	58.00
0.66545	58.00
0.68212	58.00
0.69878	58.00
0.71545	58.00
0.73212	58.00
0.74878	58.00
0.76545	58.00
0.78212	58.00
0.79878	58.00
0.81545	58.00
0.83212	58.00
0.84878	58.00
0.86545	58.00
0.88212	58.00
0.89878	58.00
0.91545	58.00
0.93212	58.00
0.94878	58.00
0.96545	58.00
0.98212	58.00
0.99878	58.00
1.01545	58.00
1.03212	58.00
1.04878	58.00
1.06545	58.00
1.08212	58.00
1.09878	58.00
1.11545	58.00
1.13212	58.00
1.14878	58.00
1.16545	58.00
1.18212	58.00
1.19878	58.00
1.21545	58.00
1.23212	58.00
1.24878	58.00
1.26545	58.00
1.28212	58.00
1.29878	58.00
1.31545	58.00
1.33212	58.00
1.34878	58.00
1.36545	58.00
1.38212	58.00
1.39878	58.00
1.41545	58.00
1.43212	58.00
1.44878	58.00
1.46545	58.00
1.48212	58.00
1.49878	58.00
1.51545	58.00
1.53212	58.00
1.54878	58.00
1.56545	58.00
1.58212	58.00
1.59878	58.00
1.61545	58.00
1.63212	58.00
1.64878	58.00
1.66545	58.01
1.68212	58.01
1.69878	58.00
1.71545	58.00
1.73212	58.00
1.74878	58.00
1.76545	58.00
1.78212	58.00
1.79878	58.00
1.81545	58.00
1.83212	58.00
1.84878	58.00
1.86545	58.00
1.88212	58.00
1.89878	58.00
1.91545	58.00
1.93212	58.00
1.94878	58.00
1.96545	58.00
1.98212	58.00
1.99878	58.00
2.01545	58.00
2.03212	58.00
2.04878	58.00
2.06545	58.00
2.08212	58.00
2.09878	58.00
2.11545	58.00
2.13212	58.00
2.14878	58.00
2.16545	58.00
2.18212	58.00
2.19878	58.00
2.21545	58.00
2.23212	58.00
2.24878	58.00
2.26545	58.00
2.28212	58.00
2.29878	58.00
2.31545	58.00
2.33212	58.00
2.34878	58.00
2.36545	58.00
2.38212	57.99
2.39878	57.99
2.41545	58.00
2.43212	58.00
2.44878	58.00
2.46545	58.00
2.48212	58.00
2.49878	58.00
2.51545	57.99
2.53212	57.99
2.54878	58.00
2.56545	58.00
2.58212	58.00
2.59878	58.00
2.61545	58.00
2.63212	58.00
2.64878	58.00
2.66545	58.00
2.68212	58.00
2.69878	58.00
2.71545	58.00
2.73212	58.00
2.74878	58.00
2.76545	58.00
2.78212	58.00
2.79878	58.00
2.81545	58.00
2.83212	58.00
2.84878	58.00
2.86545	58.00
2.88212	58.00
2.89878	58.00
2.91545	58.00
2.93212	58.00
2.94878	58.00
2.96545	58.00
2.98212	58.00
2.99878	58.00
3.01545	58.00
3.03212	58.00
3.04878	58.00
3.06545	58.00
3.08212	58.00
3.09878	58.00
3.11545	58.00
3.13212	58.00
3.14878	58.00
3.16545	58.00
3.18212	58.00
3.19878	58.00
3.21545	58.00
3.23212	58.00
3.24878	58.00
3.26545	58.00
3.28212	58.00
3.29878	58.00
3.31545	58.00
3.33212	58.00
3.34878	58.00
3.36545	58.00
3.38212	58.00
3.39878	58.00
3.41545	58.00
3.43212	58.00
3.44878	58.00
3.46545	58.00
3.48212	58.00
3.49878	58.00
3.51545	58.00
3.53212	58.00
3.54878	58.00
3.56545	58.00
3.58212	58.00
3.59878	58.00
3.61545	58.00
3.63212	58.00
3.64878	58.00
3.66545	58.00
3.68212	58.00
3.69878	58.00
3.71545	58.00
3.73212	58.00
3.74878	58.00
3.76545	58.00
3.78212	58.00
3.79878	58.00
3.81545	58.00
3.83212	58.00
3.84878	58.00
3.86545	58.00
3.88212	58.00
3.89878	58.00
3.91545	58.00
3.93212	58.00
3.94878	58.00
3.96545	58.00
3.98212	58.00
3.99878	58.00

[Status Trace (Carrier Gas Flow)]
Interval(msec)	1000
# of Points	240
Start Time(min)	0.015
End Time(min)	3.999
Intensity Units	
Intensity Multiplier	1
R.Time (min)	Intensity
0.01545	33.82
0.03212	34.54
0.04878	34.55
0.06545	34.51
0.08212	34.51
0.09878	34.52
0.11545	34.52
0.13212	34.52
0.14878	34.52
0.16545	34.52
0.18212	34.52
0.19878	34.52
0.21545	34.52
0.23212	34.52
0.24878	34.52
0.26545	34.52
0.28212	34.52
0.29878	34.52
0.31545	34.52
0.33212	34.52
0.34878	34.52
0.36545	34.52
0.38212	34.52
0.39878	34.52
0.41545	34.52
0.43212	34.52
0.44878	34.51
0.46545	34.51
0.48212	34.52
0.49878	34.51
0.51545	34.52
0.53212	34.52
0.54878	34.52
0.56545	34.52
0.58212	34.52
0.59878	34.52
0.61545	34.52
0.63212	34.52
0.64878	34.52
0.66545	34.52
0.68212	34.52
0.69878	34.52
0.71545	34.52
0.73212	34.51
0.74878	34.52
0.76545	34.52
0.78212	34.52
0.79878	34.52
0.81545	34.52
0.83212	34.52
0.84878	34.52
0.86545	34.52
0.88212	34.52
0.89878	34.52
0.91545	34.52
0.93212	34.52
0.94878	34.52
0.96545	34.52
0.98212	34.52
0.99878	34.52
1.01545	34.52
1.03212	34.52
1.04878	34.52
1.06545	34.52
1.08212	34.52
1.09878	34.52
1.11545	34.52
1.13212	34.52
1.14878	34.52
1.16545	34.52
1.18212	34.52
1.19878	34.52
1.21545	34.52
1.23212	34.52
1.24878	34.52
1.26545	34.52
1.28212	34.52
1.29878	34.52
1.31545	34.52
1.33212	34.52
1.34878	34.52
1.36545	34.52
1.38212	34.52
1.39878	34.52
1.41545	34.52
1.43212	34.52
1.44878	34.52
1.46545	34.52
1.48212	34.52
1.49878	34.52
1.51545	34.52
1.53212	34.52
1.54878	34.52
1.56545	34.52
1.58212	34.52
1.59878	34.52
1.61545	34.52
1.63212	34.52
1.64878	34.52
1.66545	34.52
1.68212	34.52
1.69878	34.52
1.71545	34.52
1.73212	34.52
1.74878	34.52
1.76545	34.52
1.78212	34.52
1.79878	34.51
1.81545	34.52
1.83212	34.52
1.84878	34.52
1.86545	34.52
1.88212	34.52
1.89878	34.52
1.91545	34.52
1.93212	34.52
1.94878	34.52
1.96545	34.52
1.98212	34.52
1.99878	34.52
2.01545	34.52
2.03212	34.52
2.04878	34.52
2.06545	34.52
2.08212	34.52
2.09878	34.52
2.11545	34.53
2.13212	34.52
2.14878	34.52
2.16545	34.51
2.18212	34.51
2.19878	34.52
2.21545	34.52
2.23212	34.51
2.24878	34.52
2.26545	34.51
2.28212	34.51
2.29878	34.52
2.31545	34.52
2.33212	34.52
2.34878	34.52
2.36545	34.51
2.38212	34.52
2.39878	34.52
2.41545	34.52
2.43212	34.52
2.44878	34.52
2.46545	34.52
2.48212	34.52
2.49878	34.52
2.51545	34.52
2.53212	34.52
2.54878	34.52
2.56545	34.52
2.58212	34.52
2.59878	34.52
2.61545	34.52
2.63212	34.52
2.64878	34.52
2.66545	34.52
2.68212	34.52
2.69878	34.52
2.71545	34.52
2.73212	34.52
2.74878	34.52
2.76545	34.52
2.78212	34.52
2.79878	34.52
2.81545	34.51
2.83212	34.52
2.84878	34.52
2.86545	34.52
2.88212	34.52
2.89878	34.52
2.91545	34.52
2.93212	34.52
2.94878	34.52
2.96545	34.52
2.98212	34.52
2.99878	34.52
3.01545	34.52
3.03212	34.52
3.04878	34.52
3.06545	34.52
3.08212	34.52
3.09878	34.52
3.11545	34.52
3.13212	34.52
3.14878	34.52
3.16545	34.52
3.18212	34.52
3.19878	34.52
3.21545	34.52
3.23212	34.52
3.24878	34.52
3.26545	34.52
3.28212	34.52
3.29878	34.52
3.31545	34.51
3.33212	34.52
3.34878	34.52
3.36545	34.52
3.38212	34.52
3.39878	34.52
3.41545	34.53
3.43212	34.52
3.44878	34.52
3.46545	34.52
3.48212	34.52
3.49878	34.52
3.51545	34.52
3.53212	34.52
3.54878	34.52
3.56545	34.52
3.58212	34.52
3.59878	34.51
3.61545	34.52
3.63212	34.51
3.64878	34.52
3.66545	34.52
3.68212	34.52
3.69878	34.52
3.71545	34.52
3.73212	34.52
3.74878	34.52
3.76545	34.52
3.78212	34.52
3.79878	34.52
3.81545	34.52
3.83212	34.52
3.84878	34.52
3.86545	34.52
3.88212	34.52
3.89878	34.52
3.91545	34.52
3.93212	34.52
3.94878	34.52
3.96545	34.52
3.98212	34.51
3.99878	34.52

[Status Trace (Column Flow)]
Interval(msec)	1000
# of Points	240
Start Time(min)	0.015
End Time(min)	3.999
Intensity Units	
Intensity Multiplier	1
R.Time (min)	Intensity
0.01545	5.46
0.03212	5.32
0.04878	5.58
0.06545	5.79
0.08212	5.64
0.09878	5.57
0.11545	5.57
0.13212	5.57
0.14878	5.57
0.16545	5.57
0.18212	5.57
0.19878	5.57
0.21545	5.57
0.23212	5.57
0.24878	5.57
0.26545	5.57
0.28212	5.57
0.29878	5.57
0.31545	5.57
0.33212	5.57
0.34878	5.57
0.36545	5.57
0.38212	5.57
0.39878	5.57
0.41545	5.57
0.43212	5.57
0.44878	5.57
0.46545	5.57
0.48212	5.57
0.49878	5.57
0.51545	5.57
0.53212	5.57
0.54878	5.57
0.56545	5.57
0.58212	5.57
0.59878	5.57
0.61545	5.57
0.63212	5.57
0.64878	5.57
0.66545	5.57
0.68212	5.57
0.69878	5.57
0.71545	5.57
0.73212	5.57
0.74878	5.57
0.76545	5.57
0.78212	5.57
0.79878	5.57
0.81545	5.57
0.83212	5.57
0.84878	5.57
0.86545	5.57
0.88212	5.57
0.89878	5.57
0.91545	5.57
0.93212	5.57
0.94878	5.57
0.96545	5.57
0.98212	5.57
0.99878	5.57
1.01545	5.57
1.03212	5.57
1.04878	5.57
1.06545	5.57
1.08212	5.57
1.09878	5.57
1.11545	5.57
1.13212	5.57
1.14878	5.57
1.16545	5.57
1.18212	5.57
1.19878	5.57
1.21545	5.57
1.23212	5.57
1.24878	5.57
1.26545	5.57
1.28212	5.57
1.29878	5.57
1.31545	5.57
1.33212	5.57
1.34878	5.57
1.36545	5.57
1.38212	5.57
1.39878	5.57
1.41545	5.57
1.43212	5.57
1.44878	5.57
1.46545	5.57
1.48212	5.57
1.49878	5.57
1.51545	5.57
1.53212	5.57
1.54878	5.57
1.56545	5.57
1.58212	5.57
1.59878	5.57
1.61545	5.57
1.63212	5.57
1.64878	5.56
1.66545	5.55
1.68212	5.54
1.69878	5.53
1.71545	5.52
1.73212	5.50
1.74878	5.50
1.76545	5.48
1.78212	5.47
1.79878	5.46
1.81545	5.45
1.83212	5.44
1.84878	5.43
1.86545	5.42
1.88212	5.41
1.89878	5.40
1.91545	5.39
1.93212	5.38
1.94878	5.37
1.96545	5.36
1.98212	5.35
1.99878	5.35
2.01545	5.34
2.03212	5.33
2.04878	5.32
2.06545	5.31
2.08212	5.30
2.09878	5.29
2.11545	5.28
2.13212	5.27
2.14878	5.26
2.16545	5.25
2.18212	5.24
2.19878	5.23
2.21545	5.22
2.23212	5.21
2.24878	5.20
2.26545	5.19
2.28212	5.18
2.29878	5.17
2.31545	5.16
2.33212	5.15
2.34878	5.15
2.36545	5.14
2.38212	5.13
2.39878	5.13
2.41545	5.13
2.43212	5.13
2.44878	5.13
2.46545	5.13
2.48212	5.13
2.49878	5.13
2.51545	5.13
2.53212	5.13
2.54878	5.13
2.56545	5.13
2.58212	5.13
2.59878	5.13
2.61545	5.13
2.63212	5.13
2.64878	5.13
2.66545	5.13
2.68212	5.13
2.69878	5.13
2.71545	5.13
2.73212	5.13
2.74878	5.13
2.76545	5.13
2.78212	5.13
2.79878	5.13
2.81545	5.13
2.83212	5.13
2.84878	5.13
2.86545	5.13
2.88212	5.13
2.89878	5.13
2.91545	5.13
2.93212	5.13
2.94878	5.13
2.96545	5.13
2.98212	5.13
2.99878	5.12
3.01545	5.12
3.03212	5.12
3.04878	5.12
3.06545	5.12
3.08212	5.12
3.09878	5.12
3.11545	5.12
3.13212	5.12
3.14878	5.12
3.16545	5.12
3.18212	5.12
3.19878	5.12
3.21545	5.12
3.23212	5.12
3.24878	5.12
3.26545	5.12
3.28212	5.12
3.29878	5.12
3.31545	5.12
3.33212	5.12
3.34878	5.12
3.36545	5.12
3.38212	5.12
3.39878	5.12
3.41545	5.12
3.43212	5.12
3.44878	5.12
3.46545	5.12
3.48212	5.12
3.49878	5.12
3.51545	5.12
3.53212	5.12
3.54878	5.12
3.56545	5.12
3.58212	5.12
3.59878	5.12
3.61545	5.12
3.63212	5.12
3.64878	5.12
3.66545	5.12
3.68212	5.12
3.69878	5.12
3.71545	5.12
3.73212	5.12
3.74878	5.12
3.76545	5.12
3.78212	5.12
3.79878	5.12
3.81545	5.12
3.83212	5.13
3.84878	5.13
3.86545	5.12
3.88212	5.12
3.89878	5.12
3.91545	5.12
3.93212	5.12
3.94878	5.12
3.96545	5.12
3.98212	5.12
3.99878	5.12

[Status Trace (Linear Velocity)]
Interval(msec)	1000
# of Points	240
Start Time(min)	0.015
End Time(min)	3.999
Intensity Units	
Intensity Multiplier	1
R.Time (min)	Intensity
0.01545	38.41
0.03212	37.58
0.04878	39.07
0.06545	40.26
0.08212	39.38
0.09878	39.01
0.11545	39.03
0.13212	39.04
0.14878	39.03
0.16545	39.03
0.18212	39.03
0.19878	39.03
0.21545	39.03
0.23212	39.03
0.24878	39.03
0.26545	39.03
0.28212	39.03
0.29878	39.03
0.31545	39.03
0.33212	39.03
0.34878	39.03
0.36545	39.03
0.38212	39.03
0.39878	39.03
0.41545	39.03
0.43212	39.03
0.44878	39.03
0.46545	39.03
0.48212	39.03
0.49878	39.02
0.51545	39.02
0.53212	39.02
0.54878	39.02
0.56545	39.02
0.58212	39.02
0.59878	39.03
0.61545	39.03
0.63212	39.03
0.64878	39.03
0.66545	39.03
0.68212	39.03
0.69878	39.03
0.71545	39.03
0.73212	39.03
0.74878	39.03
0.76545	39.03
0.78212	39.03
0.79878	39.03
0.81545	39.03
0.83212	39.03
0.84878	39.03
0.86545	39.03
0.88212	39.03
0.89878	39.03
0.91545	39.03
0.93212	39.03
0.94878	39.03
0.96545	39.03
0.98212	39.03
0.99878	39.03
1.01545	39.03
1.03212	39.03
1.04878	39.03
1.06545	39.03
1.08212	39.03
1.09878	39.03
1.11545	39.03
1.13212	39.03
1.14878	39.03
1.16545	39.03
1.18212	39.03
1.19878	39.03
1.21545	39.03
1.23212	39.03
1.24878	39.03
1.26545	39.03
1.28212	39.03
1.29878	39.03
1.31545	39.03
1.33212	39.03
1.34878	39.03
1.36545	39.03
1.38212	39.03
1.39878	39.03
1.41545	39.03
1.43212	39.03
1.44878	39.03
1.46545	39.03
1.48212	39.03
1.49878	39.03
1.51545	39.03
1.53212	39.03
1.54878	39.03
1.56545	39.03
1.58212	39.03
1.59878	39.03
1.61545	39.02
1.63212	39.01
1.64878	38.99
1.66545	38.96
1.68212	38.92
1.69878	38.89
1.71545	38.85
1.73212	38.82
1.74878	38.79
1.76545	38.76
1.78212	38.73
1.79878	38.70
1.81545	38.66
1.83212	38.63
1.84878	38.61
1.86545	38.57
1.88212	38.54
1.89878	38.51
1.91545	38.48
1.93212	38.45
1.94878	38.42
1.96545	38.39
1.98212	38.36
1.99878	38.33
2.01545	38.30
2.03212	38.27
2.04878	38.24
2.06545	38.21
2.08212	38.18
2.09878	38.15
2.11545	38.12
2.13212	38.09
2.14878	38.07
2.16545	38.03
2.18212	38.00
2.19878	37.98
2.21545	37.94
2.23212	37.91
2.24878	37.88
2.26545	37.85
2.28212	37.83
2.29878	37.80
2.31545	37.76
2.33212	37.73
2.34878	37.71
2.36545	37.68
2.38212	37.67
2.39878	37.67
2.41545	37.67
2.43212	37.67
2.44878	37.67
2.46545	37.67
2.48212	37.67
2.49878	37.67
2.51545	37.66
2.53212	37.66
2.54878	37.66
2.56545	37.66
2.58212	37.66
2.59878	37.66
2.61545	37.66
2.63212	37.66
2.64878	37.66
2.66545	37.66
2.68212	37.66
2.69878	37.66
2.71545	37.66
2.73212	37.66
2.74878	37.66
2.76545	37.66
2.78212	37.65
2.79878	37.65
2.81545	37.65
2.83212	37.65
2.84878	37.65
2.86545	37.65
2.88212	37.65
2.89878	37.65
2.91545	37.65
2.93212	37.65
2.94878	37.64
2.96545	37.64
2.98212	37.64
2.99878	37.64
3.01545	37.64
3.03212	37.64
3.04878	37.64
3.06545	37.64
3.08212	37.64
3.09878	37.64
3.11545	37.64
3.13212	37.64
3.14878	37.64
3.16545	37.64
3.18212	37.64
3.19878	37.64
3.21545	37.64
3.23212	37.64
3.24878	37.64
3.26545	37.64
3.28212	37.64
3.29878	37.64
3.31545	37.63
3.33212	37.63
3.34878	37.63
3.36545	37.63
3.38212	37.64
3.39878	37.64
3.41545	37.64
3.43212	37.64
3.44878	37.64
3.46545	37.64
3.48212	37.64
3.49878	37.64
3.51545	37.64
3.53212	37.64
3.54878	37.64
3.56545	37.64
3.58212	37.64
3.59878	37.64
3.61545	37.64
3.63212	37.64
3.64878	37.64
3.66545	37.64
3.68212	37.64
3.69878	37.64
3.71545	37.64
3.73212	37.64
3.74878	37.64
3.76545	37.64
3.78212	37.64
3.79878	37.64
3.81545	37.64
3.83212	37.64
3.84878	37.64
3.86545	37.64
3.88212	37.64
3.89878	37.64
3.91545	37.64
3.93212	37.64
3.94878	37.64
3.96545	37.64
3.98212	37.64
3.99878	37.64

