[Header]
Application Name	LabSolutions
Version	5.110
Data File Name	C:\Users\User\Desktop\GC Analyses\Jack\Nachusa Grasslands Sampling\T0 Timepoint July 12th\T0_07122022_037.gcd
Output Date	3/14/2023
Output Time	3:40:36 PM

[File Information]
Type	Data File
Generated	3/7/2023 5:50:17 PM
Generated by	System Administrator
Modified	3/7/2023 5:57:07 PM
Modified by	System Administrator

[Sample Information]
Operator Name	System Administrator
Acquired	3/7/2023 5:53:06 PM
Sample Type	0:Unknown
Level	0
Sample Name	037
Sample ID	037
ISTD Amount1	1
ISTD Amount2	1
ISTD Amount3	1
ISTD Amount4	1
ISTD Amount5	1
ISTD Amount6	1
ISTD Amount7	1
ISTD Amount8	1
ISTD Amount9	1
ISTD Amount10	1
ISTD Amount11	1
ISTD Amount12	1
ISTD Amount13	1
ISTD Amount14	1
ISTD Amount15	1
ISTD Amount16	1
ISTD Amount17	1
ISTD Amount18	1
ISTD Amount19	1
ISTD Amount20	1
ISTD Amount21	1
ISTD Amount22	1
ISTD Amount23	1
ISTD Amount24	1
ISTD Amount25	1
ISTD Amount26	1
ISTD Amount27	1
ISTD Amount28	1
ISTD Amount29	1
ISTD Amount30	1
ISTD Amount31	1
ISTD Amount32	1
Sample Amount	1
Dilution Factor	1
Vial#	36
Injection Volume	1
Injection Count	1
Bar Code	

[Original Files]
Data File	C:\Users\User\Desktop\GC Analyses\Jack\Nachusa Grasslands Sampling\T0 Timepoint July 12th\T0_07122022_037.gcd
Method File	C:\LabSolutions\Data\GHG_4min_2022\ghg3_togas_w_acet_4 min_new_int.gcm
Batch File	C:\LabSolutions\Data\AutoSamplerTesting\T0_07122022.gcb
Report Format File	c:\LabSolutions\System\DEFAULT.lsr

[File Description]


[Configuration]
Instrument Name	C0B7VH3-Instrument1
Instrument #	1
Line #	1
# of Detectors	3
Detector ID	DET#1	DET#2	DET#3
Detector Name	FID	PTCD	ECD
# of Channels	1	1	1

[Peak Table(Ch1)]
# of Peaks	3
Peak#	R.Time	I.Time	F.Time	Area	Height	A/H	Conc.	Mark	ID#	Name	k'	Plate #	Plate Ht.	Tailing	Resolution	Sep.Factor	Area Ratio	Height Ratio	Conc. %	Norm Conc.
1	1.476	1.428	1.538	31331	14853	2.109	221.197	   	1	CO	0.000	9147	16.398	1.331	0.000	0.000	0	0	37.882	37.882
2	1.567	1.538	1.622	4933	2398	2.057	95.382	 V 	2	CH4	0.062	10426	14.387	0.000	1.489	0.000	0	0	16.335	16.335
3	1.996	1.949	2.451	1065153	502945	2.118	267.325	   	3	CO2	0.353	17269	8.686	1.302	7.023	5.680	0	0	45.782	45.782

[Peak Table(Ch2)]
# of Peaks	0

[Peak Table(Ch3)]
# of Peaks	5
Peak#	R.Time	I.Time	F.Time	Area	Height	A/H	Conc.	Mark	ID#	Name	k'	Plate #	Plate Ht.	Tailing	Resolution	Sep.Factor	Area Ratio	Height Ratio	Conc. %	Norm Conc.
1	2.462	1.883	2.528	3817	398	9.591	0.000	   			0.000	4878	30.749	0.000	0.000	0.000	0	0	0.000	0.000
2	2.554	2.528	2.634	957	220	4.352	0.000	 V 			0.037	2245	66.825	0.000	0.514	0.000	0	0	0.000	0.000
3	2.744	2.649	2.792	702	105	6.682	0.018	   	1	N2O	0.115	1027	146.122	0.000	0.683	3.080	0	0	3.594	3.594
4	2.873	2.792	3.078	18828	4844	3.887	0.481	 V 	1	N2O	0.167	13195	11.368	1.627	0.580	1.455	0	0	96.406	96.406
5	3.243	3.082	3.980	14425	630	22.885	0.000	   	2	SF6	0.317	632	237.405	2.657	1.202	1.902	0	0	0.000	0.000

[Compound Results(Ch1)]
# of IDs	6
ID#	Name	R.Time	Area	Height	Conc.	Curve	3rd	2nd	1st	Constant	Area Ratio	Height Ratio	Conc. %	Norm Conc.
1	CO	1.476	31331	14853	221.197	Linear	0.000000e+00	0.000000e+00	1.416423e+002	0.000000e+00	0	0	37.882	37.882
2	CH4	1.567	4933	2398	95.382	Linear	0.000000e+00	0.000000e+00	5.171738e+001	0.000000e+00	0	0	16.335	16.335
3	CO2	1.996	1065153	502945	267.325	Linear	0.000000e+00	0.000000e+00	3.984494e+003	0.000000e+00	0	0	45.782	45.782
4	Ethylene	0.000	0	0	0.000	Linear	0.000000e+00	0.000000e+00	0.000000e+00	0.000000e+00	0	0	0.000	0.000
5	Acetylene	0.000	0	0	0.000	Linear	0.000000e+00	0.000000e+00	0.000000e+00	0.000000e+00	0	0	0.000	0.000
6	Ethane	0.000	0	0	0.000	Linear	0.000000e+00	0.000000e+00	0.000000e+00	0.000000e+00	0	0	0.000	0.000

[Compound Results(Ch2)]
# of IDs	5
ID#	Name	R.Time	Area	Height	Conc.	Curve	3rd	2nd	1st	Constant	Area Ratio	Height Ratio	Conc. %	Norm Conc.
1	Hydrogen	0.000	0	0	0.000	Linear	0.000000e+00	0.000000e+00	0.000000e+00	0.000000e+00	0	0	0.000	0.000
2	Oxygen	0.000	0	0	0.000	Linear	0.000000e+00	0.000000e+00	0.000000e+00	0.000000e+00	0	0	0.000	0.000
3	Nitrogen	0.000	0	0	0.000	Linear	0.000000e+00	0.000000e+00	0.000000e+00	0.000000e+00	0	0	0.000	0.000
4	Methane	0.000	0	0	0.000	Linear	0.000000e+00	0.000000e+00	0.000000e+00	0.000000e+00	0	0	0.000	0.000
5	Carbon Monoxide	0.000	0	0	0.000	Linear	0.000000e+00	0.000000e+00	0.000000e+00	0.000000e+00	0	0	0.000	0.000

[Compound Results(Ch3)]
# of IDs	2
ID#	Name	R.Time	Area	Height	Conc.	Curve	3rd	2nd	1st	Constant	Area Ratio	Height Ratio	Conc. %	Norm Conc.
1	N2O	2.873	19530	4949	0.499	Linear	0.000000e+00	0.000000e+00	3.915173e+004	0.000000e+00	0	0	100.000	100.000
2	SF6	3.243	14425	630	0.000	Linear	0.000000e+00	0.000000e+00	0.000000e+00	0.000000e+00	0	0	0.000	0.000

[Group Results(Ch1)]
# of Groups	0

[Group Results(Ch2)]
# of Groups	0

[Group Results(Ch3)]
# of Groups	0

[Chromatogram (Ch1)]
Interval(msec)	220
# of Points	1091
Start Time(min)	0.002
End Time(min)	3.998
R.Time (min)	Intensity
0.00167	19
0.00533	19
0.00900	14
0.01267	9
0.01633	4
0.02000	0
0.02367	1
0.02733	5
0.03100	7
0.03467	9
0.03833	9
0.04200	13
0.04567	21
0.04933	33
0.05300	46
0.05667	56
0.06033	59
0.06400	55
0.06767	51
0.07133	53
0.07500	56
0.07867	60
0.08233	67
0.08600	77
0.08967	83
0.09333	85
0.09700	86
0.10067	87
0.10433	90
0.10800	95
0.11167	103
0.11533	109
0.11900	117
0.12267	128
0.12633	139
0.13000	147
0.13367	149
0.13733	147
0.14100	142
0.14467	134
0.14833	125
0.15200	121
0.15567	121
0.15933	123
0.16300	124
0.16667	122
0.17033	119
0.17400	115
0.17767	112
0.18133	108
0.18500	103
0.18867	97
0.19233	90
0.19600	83
0.19967	80
0.20333	79
0.20700	80
0.21067	84
0.21433	86
0.21800	81
0.22167	73
0.22533	62
0.22900	52
0.23267	44
0.23633	38
0.24000	33
0.24367	26
0.24733	19
0.25100	16
0.25467	15
0.25833	18
0.26200	24
0.26567	29
0.26933	28
0.27300	24
0.27667	23
0.28033	24
0.28400	23
0.28767	18
0.29133	9
0.29500	1
0.29867	-3
0.30233	-4
0.30600	-4
0.30967	-1
0.31333	-2
0.31700	-5
0.32067	-8
0.32433	-9
0.32800	-9
0.33167	-7
0.33533	-8
0.33900	-15
0.34267	-24
0.34633	-32
0.35000	-36
0.35367	-36
0.35733	-34
0.36100	-31
0.36467	-28
0.36833	-23
0.37200	-15
0.37567	-5
0.37933	2
0.38300	7
0.38667	11
0.39033	8
0.39400	1
0.39767	-7
0.40133	-14
0.40500	-17
0.40867	-17
0.41233	-16
0.41600	-13
0.41967	-7
0.42333	-3
0.42700	-1
0.43067	-2
0.43433	-3
0.43800	-3
0.44167	-3
0.44533	-1
0.44900	2
0.45267	0
0.45633	-8
0.46000	-20
0.46367	-28
0.46733	-37
0.47100	-44
0.47467	-45
0.47833	-42
0.48200	-38
0.48567	-40
0.48933	-43
0.49300	-43
0.49667	-41
0.50033	-37
0.50400	-33
0.50767	-32
0.51133	-30
0.51500	-26
0.51867	-20
0.52233	-15
0.52600	-12
0.52967	-17
0.53333	-25
0.53700	-30
0.54067	-29
0.54433	-27
0.54800	-27
0.55167	-32
0.55533	-33
0.55900	-34
0.56267	-32
0.56633	-31
0.57000	-29
0.57367	-28
0.57733	-29
0.58100	-33
0.58467	-36
0.58833	-39
0.59200	-42
0.59567	-41
0.59933	-38
0.60300	-36
0.60667	-32
0.61033	-27
0.61400	-27
0.61767	-29
0.62133	-31
0.62500	-30
0.62867	-30
0.63233	-30
0.63600	-33
0.63967	-38
0.64333	-41
0.64700	-43
0.65067	-38
0.65433	-28
0.65800	-19
0.66167	-15
0.66533	-16
0.66900	-19
0.67267	-25
0.67633	-32
0.68000	-38
0.68367	-44
0.68733	-46
0.69100	-50
0.69467	-51
0.69833	-50
0.70200	-48
0.70567	-47
0.70933	-45
0.71300	-44
0.71667	-43
0.72033	-41
0.72400	-42
0.72767	-48
0.73133	-53
0.73500	-54
0.73867	-52
0.74233	-48
0.74600	-46
0.74967	-43
0.75333	-38
0.75700	-31
0.76067	-25
0.76433	-21
0.76800	-18
0.77167	-19
0.77533	-26
0.77900	-36
0.78267	-44
0.78633	-49
0.79000	-49
0.79367	-49
0.79733	-50
0.80100	-54
0.80467	-58
0.80833	-58
0.81200	-53
0.81567	-50
0.81933	-47
0.82300	-47
0.82667	-49
0.83033	-50
0.83400	-49
0.83767	-48
0.84133	-46
0.84500	-43
0.84867	-40
0.85233	-43
0.85600	-50
0.85967	-56
0.86333	-60
0.86700	-64
0.87067	-67
0.87433	-68
0.87800	-68
0.88167	-66
0.88533	-63
0.88900	-58
0.89267	-53
0.89633	-52
0.90000	-55
0.90367	-56
0.90733	-56
0.91100	-52
0.91467	-46
0.91833	-42
0.92200	-43
0.92567	-47
0.92933	-53
0.93300	-58
0.93667	-64
0.94033	-69
0.94400	-74
0.94767	-76
0.95133	-77
0.95500	-77
0.95867	-79
0.96233	-79
0.96600	-75
0.96967	-72
0.97333	-69
0.97700	-66
0.98067	-60
0.98433	-54
0.98800	-51
0.99167	-53
0.99533	-55
0.99900	-58
1.00267	-62
1.00633	-65
1.01000	-64
1.01367	-57
1.01733	-50
1.02100	-44
1.02467	-42
1.02833	-46
1.03200	-56
1.03567	-70
1.03933	-81
1.04300	-86
1.04667	-87
1.05033	-85
1.05400	-84
1.05767	-82
1.06133	-80
1.06500	-82
1.06867	-86
1.07233	-89
1.07600	-93
1.07967	-95
1.08333	-91
1.08700	-81
1.09067	-71
1.09433	-63
1.09800	-56
1.10167	-51
1.10533	-49
1.10900	-52
1.11267	-61
1.11633	-70
1.12000	-78
1.12367	-84
1.12733	-88
1.13100	-89
1.13467	-88
1.13833	-84
1.14200	-78
1.14567	-73
1.14933	-72
1.15300	-74
1.15667	-74
1.16033	-70
1.16400	-66
1.16767	-62
1.17133	-59
1.17500	-63
1.17867	-70
1.18233	-77
1.18600	-86
1.18967	-94
1.19333	-100
1.19700	-101
1.20067	-95
1.20433	-92
1.20800	-92
1.21167	-96
1.21533	-100
1.21900	-106
1.22267	-109
1.22633	-111
1.23000	-108
1.23367	-103
1.23733	-98
1.24100	-97
1.24467	-96
1.24833	-91
1.25200	-87
1.25567	-87
1.25933	-89
1.26300	-91
1.26667	-90
1.27033	-91
1.27400	-94
1.27767	-93
1.28133	-88
1.28500	-82
1.28867	-80
1.29233	-79
1.29600	-81
1.29967	-86
1.30333	-93
1.30700	-101
1.31067	-107
1.31433	-107
1.31800	-103
1.32167	-101
1.32533	-98
1.32900	-96
1.33267	-94
1.33633	-91
1.34000	-86
1.34367	-79
1.34733	-72
1.35100	-68
1.35467	-71
1.35833	-76
1.36200	-78
1.36567	-78
1.36933	-77
1.37300	-78
1.37667	-79
1.38033	-80
1.38400	-82
1.38767	-85
1.39133	-88
1.39500	-90
1.39867	-94
1.40233	-99
1.40600	-106
1.40967	-108
1.41333	-107
1.41700	-106
1.42067	-108
1.42433	-108
1.42800	-102
1.43167	-92
1.43533	-84
1.43900	-67
1.44267	9
1.44633	225
1.45000	821
1.45367	2258
1.45733	4657
1.46100	7540
1.46467	10288
1.46833	12519
1.47200	14058
1.47567	14768
1.47933	14520
1.48300	13311
1.48667	11378
1.49033	9131
1.49400	6966
1.49767	5125
1.50133	3684
1.50500	2621
1.50867	1863
1.51233	1331
1.51600	957
1.51967	695
1.52333	510
1.52700	378
1.53067	285
1.53433	223
1.53800	196
1.54167	238
1.54533	409
1.54900	734
1.55267	1158
1.55633	1585
1.56000	1945
1.56367	2205
1.56733	2344
1.57100	2326
1.57467	2134
1.57833	1805
1.58200	1417
1.58567	1044
1.58933	729
1.59300	489
1.59667	313
1.60033	188
1.60400	104
1.60767	50
1.61133	16
1.61500	-9
1.61867	-26
1.62233	-35
1.62600	-39
1.62967	-38
1.63333	-37
1.63700	-40
1.64067	-46
1.64433	-52
1.64800	-59
1.65167	-65
1.65533	-67
1.65900	-67
1.66267	-72
1.66633	-77
1.67000	-84
1.67367	-89
1.67733	-90
1.68100	-90
1.68467	-90
1.68833	-89
1.69200	-88
1.69567	-88
1.69933	-89
1.70300	-87
1.70667	-86
1.71033	-89
1.71400	-95
1.71767	-98
1.72133	-96
1.72500	-91
1.72867	-87
1.73233	-83
1.73600	-81
1.73967	-81
1.74333	-82
1.74700	-83
1.75067	-85
1.75433	-88
1.75800	-92
1.76167	-93
1.76533	-93
1.76900	-92
1.77267	-90
1.77633	-90
1.78000	-94
1.78367	-98
1.78733	-100
1.79100	-100
1.79467	-100
1.79833	-102
1.80200	-107
1.80567	-110
1.80933	-109
1.81300	-105
1.81667	-96
1.82033	-86
1.82400	-75
1.82767	-66
1.83133	-65
1.83500	-72
1.83867	-83
1.84233	-93
1.84600	-102
1.84967	-106
1.85333	-107
1.85700	-107
1.86067	-104
1.86433	-103
1.86800	-102
1.87167	-101
1.87533	-97
1.87900	-88
1.88267	-80
1.88633	-81
1.89000	-82
1.89367	-87
1.89733	-93
1.90100	-98
1.90467	-98
1.90833	-96
1.91200	-95
1.91567	-95
1.91933	-94
1.92300	-93
1.92667	-90
1.93033	-88
1.93400	-86
1.93767	-84
1.94133	-81
1.94500	-78
1.94867	-74
1.95233	-57
1.95600	44
1.95967	595
1.96333	3014
1.96700	11163
1.97067	32269
1.97433	74947
1.97800	143370
1.98167	231992
1.98533	326757
1.98900	411643
1.99267	473302
1.99633	502901
2.00000	496784
2.00367	457418
2.00733	393857
2.01100	319051
2.01467	245372
2.01833	181164
2.02200	129949
2.02567	91611
2.02933	64157
2.03300	45067
2.03667	32028
2.04033	23200
2.04400	17232
2.04767	13175
2.05133	10383
2.05500	8428
2.05867	7028
2.06233	5996
2.06600	5211
2.06967	4597
2.07333	4111
2.07700	3717
2.08067	3394
2.08433	3125
2.08800	2897
2.09167	2702
2.09533	2534
2.09900	2382
2.10267	2244
2.10633	2120
2.11000	2005
2.11367	1902
2.11733	1811
2.12100	1730
2.12467	1655
2.12833	1579
2.13200	1504
2.13567	1434
2.13933	1369
2.14300	1309
2.14667	1259
2.15033	1219
2.15400	1185
2.15767	1151
2.16133	1115
2.16500	1074
2.16867	1032
2.17233	994
2.17600	958
2.17967	923
2.18333	888
2.18700	855
2.19067	827
2.19433	805
2.19800	789
2.20167	775
2.20533	763
2.20900	752
2.21267	740
2.21633	726
2.22000	708
2.22367	688
2.22733	664
2.23100	641
2.23467	620
2.23833	602
2.24200	588
2.24567	578
2.24933	569
2.25300	555
2.25667	541
2.26033	531
2.26400	524
2.26767	515
2.27133	499
2.27500	482
2.27867	469
2.28233	461
2.28600	455
2.28967	446
2.29333	436
2.29700	427
2.30067	420
2.30433	413
2.30800	406
2.31167	399
2.31533	393
2.31900	386
2.32267	380
2.32633	375
2.33000	371
2.33367	367
2.33733	363
2.34100	360
2.34467	355
2.34833	353
2.35200	348
2.35567	343
2.35933	339
2.36300	332
2.36667	325
2.37033	319
2.37400	314
2.37767	310
2.38133	307
2.38500	307
2.38867	306
2.39233	300
2.39600	292
2.39967	284
2.40333	278
2.40700	272
2.41067	268
2.41433	267
2.41800	270
2.42167	274
2.42533	275
2.42900	277
2.43267	278
2.43633	276
2.44000	271
2.44367	262
2.44733	254
2.45100	246
2.45467	242
2.45833	239
2.46200	234
2.46567	231
2.46933	236
2.47300	247
2.47667	255
2.48033	257
2.48400	259
2.48767	265
2.49133	270
2.49500	271
2.49867	273
2.50233	277
2.50600	279
2.50967	279
2.51333	280
2.51700	285
2.52067	290
2.52433	293
2.52800	291
2.53167	283
2.53533	273
2.53900	267
2.54267	263
2.54633	261
2.55000	258
2.55367	254
2.55733	249
2.56100	246
2.56467	242
2.56833	236
2.57200	234
2.57567	239
2.57933	246
2.58300	250
2.58667	247
2.59033	240
2.59400	236
2.59767	233
2.60133	238
2.60500	250
2.60867	260
2.61233	260
2.61600	250
2.61967	240
2.62333	236
2.62700	240
2.63067	242
2.63433	239
2.63800	231
2.64167	223
2.64533	216
2.64900	212
2.65267	211
2.65633	212
2.66000	214
2.66367	218
2.66733	221
2.67100	223
2.67467	222
2.67833	222
2.68200	223
2.68567	223
2.68933	225
2.69300	225
2.69667	224
2.70033	225
2.70400	231
2.70767	237
2.71133	238
2.71500	234
2.71867	228
2.72233	220
2.72600	211
2.72967	202
2.73333	196
2.73700	197
2.74067	207
2.74433	217
2.74800	219
2.75167	214
2.75533	207
2.75900	202
2.76267	202
2.76633	205
2.77000	207
2.77367	205
2.77733	203
2.78100	201
2.78467	203
2.78833	207
2.79200	213
2.79567	218
2.79933	220
2.80300	223
2.80667	226
2.81033	230
2.81400	233
2.81767	236
2.82133	240
2.82500	243
2.82867	241
2.83233	231
2.83600	216
2.83967	201
2.84333	187
2.84700	177
2.85067	171
2.85433	171
2.85800	176
2.86167	187
2.86533	199
2.86900	208
2.87267	210
2.87633	207
2.88000	203
2.88367	201
2.88733	197
2.89100	190
2.89467	184
2.89833	184
2.90200	189
2.90567	194
2.90933	202
2.91300	212
2.91667	221
2.92033	222
2.92400	210
2.92767	194
2.93133	180
2.93500	172
2.93867	172
2.94233	174
2.94600	180
2.94967	187
2.95333	189
2.95700	187
2.96067	186
2.96433	187
2.96800	188
2.97167	188
2.97533	185
2.97900	183
2.98267	185
2.98633	186
2.99000	186
2.99367	186
2.99733	189
3.00100	190
3.00467	187
3.00833	186
3.01200	185
3.01567	183
3.01933	181
3.02300	179
3.02667	180
3.03033	182
3.03400	183
3.03767	182
3.04133	179
3.04500	181
3.04867	186
3.05233	191
3.05600	191
3.05967	186
3.06333	178
3.06700	170
3.07067	167
3.07433	169
3.07800	172
3.08167	176
3.08533	181
3.08900	186
3.09267	185
3.09633	184
3.10000	184
3.10367	186
3.10733	190
3.11100	190
3.11467	186
3.11833	180
3.12200	174
3.12567	171
3.12933	171
3.13300	172
3.13667	168
3.14033	161
3.14400	154
3.14767	153
3.15133	158
3.15500	167
3.15867	176
3.16233	182
3.16600	184
3.16967	181
3.17333	176
3.17700	168
3.18067	156
3.18433	145
3.18800	138
3.19167	136
3.19533	138
3.19900	145
3.20267	157
3.20633	166
3.21000	168
3.21367	167
3.21733	168
3.22100	170
3.22467	172
3.22833	167
3.23200	155
3.23567	141
3.23933	126
3.24300	116
3.24667	114
3.25033	118
3.25400	122
3.25767	124
3.26133	128
3.26500	136
3.26867	145
3.27233	151
3.27600	154
3.27967	156
3.28333	157
3.28700	158
3.29067	158
3.29433	158
3.29800	157
3.30167	155
3.30533	154
3.30900	154
3.31267	159
3.31633	164
3.32000	168
3.32367	170
3.32733	170
3.33100	163
3.33467	154
3.33833	148
3.34200	145
3.34567	144
3.34933	145
3.35300	145
3.35667	143
3.36033	139
3.36400	136
3.36767	136
3.37133	136
3.37500	141
3.37867	147
3.38233	152
3.38600	155
3.38967	156
3.39333	154
3.39700	150
3.40067	145
3.40433	144
3.40800	143
3.41167	143
3.41533	142
3.41900	143
3.42267	142
3.42633	137
3.43000	128
3.43367	120
3.43733	114
3.44100	112
3.44467	117
3.44833	125
3.45200	131
3.45567	133
3.45933	129
3.46300	124
3.46667	126
3.47033	128
3.47400	129
3.47767	132
3.48133	133
3.48500	133
3.48867	131
3.49233	135
3.49600	142
3.49967	144
3.50333	140
3.50700	134
3.51067	130
3.51433	128
3.51800	125
3.52167	124
3.52533	125
3.52900	126
3.53267	125
3.53633	118
3.54000	110
3.54367	104
3.54733	97
3.55100	94
3.55467	96
3.55833	99
3.56200	97
3.56567	101
3.56933	108
3.57300	111
3.57667	113
3.58033	115
3.58400	117
3.58767	116
3.59133	117
3.59500	117
3.59867	117
3.60233	116
3.60600	114
3.60967	111
3.61333	107
3.61700	104
3.62067	103
3.62433	104
3.62800	104
3.63167	101
3.63533	97
3.63900	98
3.64267	103
3.64633	108
3.65000	110
3.65367	108
3.65733	105
3.66100	102
3.66467	98
3.66833	93
3.67200	89
3.67567	89
3.67933	92
3.68300	94
3.68667	93
3.69033	95
3.69400	97
3.69767	97
3.70133	94
3.70500	92
3.70867	91
3.71233	89
3.71600	87
3.71967	85
3.72333	84
3.72700	87
3.73067	92
3.73433	94
3.73800	92
3.74167	92
3.74533	96
3.74900	98
3.75267	99
3.75633	97
3.76000	94
3.76367	93
3.76733	92
3.77100	90
3.77467	85
3.77833	78
3.78200	74
3.78567	74
3.78933	74
3.79300	73
3.79667	71
3.80033	74
3.80400	77
3.80767	77
3.81133	74
3.81500	71
3.81867	70
3.82233	69
3.82600	67
3.82967	66
3.83333	65
3.83700	68
3.84067	73
3.84433	78
3.84800	88
3.85167	96
3.85533	98
3.85900	93
3.86267	82
3.86633	75
3.87000	72
3.87367	69
3.87733	67
3.88100	67
3.88467	69
3.88833	72
3.89200	71
3.89567	66
3.89933	60
3.90300	56
3.90667	53
3.91033	55
3.91400	62
3.91767	68
3.92133	69
3.92500	66
3.92867	58
3.93233	47
3.93600	39
3.93967	33
3.94333	29
3.94700	30
3.95067	35
3.95433	42
3.95800	50
3.96167	63
3.96533	70
3.96900	69
3.97267	64
3.97633	60
3.98000	57
3.98367	53
3.98733	46
3.99100	41
3.99467	35
3.99833	32

[Chromatogram (Ch2)]
Interval(msec)	220
# of Points	1091
Start Time(min)	0.002
End Time(min)	3.998
R.Time (min)	Intensity
0.00167	-1
0.00533	-2
0.00900	-2
0.01267	-2
0.01633	-3
0.02000	-3
0.02367	-3
0.02733	-3
0.03100	-3
0.03467	-3
0.03833	-3
0.04200	-3
0.04567	-3
0.04933	-3
0.05300	-3
0.05667	-3
0.06033	-3
0.06400	-3
0.06767	-4
0.07133	-4
0.07500	-3
0.07867	-3
0.08233	-3
0.08600	-2
0.08967	-2
0.09333	-1
0.09700	-1
0.10067	-1
0.10433	-1
0.10800	-1
0.11167	-0
0.11533	-0
0.11900	-0
0.12267	0
0.12633	0
0.13000	0
0.13367	1
0.13733	1
0.14100	1
0.14467	1
0.14833	1
0.15200	1
0.15567	1
0.15933	1
0.16300	1
0.16667	1
0.17033	1
0.17400	1
0.17767	0
0.18133	0
0.18500	-0
0.18867	-0
0.19233	-0
0.19600	-0
0.19967	-1
0.20333	-1
0.20700	-1
0.21067	-1
0.21433	-1
0.21800	-1
0.22167	-2
0.22533	-2
0.22900	-2
0.23267	-2
0.23633	-3
0.24000	-3
0.24367	-3
0.24733	-3
0.25100	-4
0.25467	-4
0.25833	-4
0.26200	-4
0.26567	-4
0.26933	-4
0.27300	-3
0.27667	-3
0.28033	-3
0.28400	-2
0.28767	-2
0.29133	-2
0.29500	-2
0.29867	-2
0.30233	-2
0.30600	-2
0.30967	-2
0.31333	-2
0.31700	-2
0.32067	-2
0.32433	-2
0.32800	-2
0.33167	-2
0.33533	-2
0.33900	-2
0.34267	-2
0.34633	-2
0.35000	-2
0.35367	-2
0.35733	-2
0.36100	-2
0.36467	-3
0.36833	-3
0.37200	-3
0.37567	-3
0.37933	-3
0.38300	-3
0.38667	-3
0.39033	-3
0.39400	-3
0.39767	-3
0.40133	-2
0.40500	-2
0.40867	-2
0.41233	-2
0.41600	-1
0.41967	-1
0.42333	-1
0.42700	-1
0.43067	-0
0.43433	-0
0.43800	0
0.44167	0
0.44533	0
0.44900	0
0.45267	0
0.45633	-0
0.46000	-0
0.46367	-1
0.46733	-1
0.47100	-2
0.47467	-2
0.47833	-2
0.48200	-2
0.48567	-2
0.48933	-2
0.49300	-2
0.49667	-2
0.50033	-1
0.50400	-1
0.50767	-1
0.51133	-1
0.51500	-1
0.51867	-1
0.52233	-0
0.52600	-0
0.52967	-0
0.53333	-1
0.53700	-0
0.54067	-0
0.54433	-0
0.54800	-1
0.55167	-1
0.55533	-1
0.55900	-1
0.56267	-2
0.56633	-2
0.57000	-2
0.57367	-2
0.57733	-2
0.58100	-2
0.58467	-2
0.58833	-2
0.59200	-2
0.59567	-2
0.59933	-2
0.60300	-3
0.60667	-3
0.61033	-4
0.61400	-4
0.61767	-4
0.62133	-4
0.62500	-3
0.62867	-3
0.63233	-3
0.63600	-3
0.63967	-3
0.64333	-3
0.64700	-2
0.65067	-2
0.65433	-2
0.65800	-2
0.66167	-2
0.66533	-2
0.66900	-2
0.67267	-2
0.67633	-2
0.68000	-2
0.68367	-2
0.68733	-2
0.69100	-2
0.69467	-2
0.69833	-2
0.70200	-1
0.70567	-1
0.70933	-1
0.71300	-0
0.71667	-0
0.72033	-0
0.72400	-0
0.72767	-0
0.73133	-0
0.73500	-0
0.73867	-0
0.74233	-1
0.74600	-1
0.74967	-2
0.75333	-2
0.75700	-3
0.76067	-3
0.76433	-3
0.76800	-3
0.77167	-3
0.77533	-3
0.77900	-3
0.78267	-3
0.78633	-3
0.79000	-3
0.79367	-3
0.79733	-3
0.80100	-4
0.80467	-4
0.80833	-4
0.81200	-4
0.81567	-4
0.81933	-4
0.82300	-4
0.82667	-4
0.83033	-4
0.83400	-4
0.83767	-4
0.84133	-4
0.84500	-4
0.84867	-4
0.85233	-4
0.85600	-5
0.85967	-5
0.86333	-5
0.86700	-5
0.87067	-5
0.87433	-5
0.87800	-5
0.88167	-5
0.88533	-4
0.88900	-4
0.89267	-3
0.89633	-3
0.90000	-3
0.90367	-2
0.90733	-2
0.91100	-2
0.91467	-2
0.91833	-2
0.92200	-2
0.92567	-2
0.92933	-2
0.93300	-2
0.93667	-2
0.94033	-2
0.94400	-2
0.94767	-2
0.95133	-2
0.95500	-2
0.95867	-2
0.96233	-2
0.96600	-2
0.96967	-2
0.97333	-2
0.97700	-2
0.98067	-2
0.98433	-2
0.98800	-2
0.99167	-2
0.99533	-1
0.99900	-1
1.00267	-1
1.00633	-1
1.01000	-1
1.01367	-1
1.01733	-1
1.02100	-1
1.02467	-1
1.02833	-1
1.03200	-2
1.03567	-2
1.03933	-2
1.04300	-3
1.04667	-3
1.05033	-3
1.05400	-4
1.05767	-4
1.06133	-4
1.06500	-4
1.06867	-5
1.07233	-5
1.07600	-5
1.07967	-5
1.08333	-5
1.08700	-5
1.09067	-5
1.09433	-5
1.09800	-5
1.10167	-5
1.10533	-5
1.10900	-4
1.11267	-4
1.11633	-4
1.12000	-4
1.12367	-3
1.12733	-3
1.13100	-3
1.13467	-2
1.13833	-2
1.14200	-1
1.14567	-1
1.14933	-0
1.15300	-0
1.15667	0
1.16033	0
1.16400	0
1.16767	0
1.17133	0
1.17500	0
1.17867	0
1.18233	0
1.18600	0
1.18967	0
1.19333	-0
1.19700	-0
1.20067	-1
1.20433	-1
1.20800	-1
1.21167	-1
1.21533	-1
1.21900	-1
1.22267	-2
1.22633	-2
1.23000	-2
1.23367	-2
1.23733	-3
1.24100	-2
1.24467	-2
1.24833	-2
1.25200	-2
1.25567	-3
1.25933	-3
1.26300	-3
1.26667	-3
1.27033	-3
1.27400	-3
1.27767	-3
1.28133	-3
1.28500	-3
1.28867	-3
1.29233	-3
1.29600	-2
1.29967	-2
1.30333	-2
1.30700	-2
1.31067	-2
1.31433	-2
1.31800	-2
1.32167	-2
1.32533	-1
1.32900	-1
1.33267	-2
1.33633	-2
1.34000	-2
1.34367	-3
1.34733	-3
1.35100	-4
1.35467	-4
1.35833	-5
1.36200	-6
1.36567	-6
1.36933	-6
1.37300	-7
1.37667	-7
1.38033	-7
1.38400	-8
1.38767	-8
1.39133	-7
1.39500	-7
1.39867	-7
1.40233	-6
1.40600	-6
1.40967	-5
1.41333	-5
1.41700	-5
1.42067	-4
1.42433	-4
1.42800	-4
1.43167	-5
1.43533	-5
1.43900	-5
1.44267	-5
1.44633	-5
1.45000	-5
1.45367	-5
1.45733	-5
1.46100	-5
1.46467	-5
1.46833	-5
1.47200	-5
1.47567	-4
1.47933	-4
1.48300	-4
1.48667	-3
1.49033	-3
1.49400	-3
1.49767	-3
1.50133	-2
1.50500	-2
1.50867	-2
1.51233	-2
1.51600	-2
1.51967	-2
1.52333	-2
1.52700	-2
1.53067	-2
1.53433	-2
1.53800	-2
1.54167	-2
1.54533	-3
1.54900	-3
1.55267	-4
1.55633	-4
1.56000	-5
1.56367	-5
1.56733	-5
1.57100	-5
1.57467	-6
1.57833	-6
1.58200	-6
1.58567	-6
1.58933	-7
1.59300	-7
1.59667	-7
1.60033	-8
1.60400	-9
1.60767	-10
1.61133	-11
1.61500	-13
1.61867	-15
1.62233	-17
1.62600	-20
1.62967	-23
1.63333	-26
1.63700	-29
1.64067	-33
1.64433	-36
1.64800	-40
1.65167	-43
1.65533	-47
1.65900	-51
1.66267	-56
1.66633	-60
1.67000	-65
1.67367	-70
1.67733	-75
1.68100	-81
1.68467	-85
1.68833	-90
1.69200	-94
1.69567	-97
1.69933	-100
1.70300	-103
1.70667	-105
1.71033	-107
1.71400	-108
1.71767	-110
1.72133	-110
1.72500	-111
1.72867	-111
1.73233	-112
1.73600	-112
1.73967	-113
1.74333	-114
1.74700	-115
1.75067	-115
1.75433	-116
1.75800	-116
1.76167	-116
1.76533	-116
1.76900	-115
1.77267	-115
1.77633	-115
1.78000	-115
1.78367	-115
1.78733	-115
1.79100	-116
1.79467	-116
1.79833	-117
1.80200	-117
1.80567	-118
1.80933	-119
1.81300	-120
1.81667	-121
1.82033	-121
1.82400	-122
1.82767	-122
1.83133	-123
1.83500	-123
1.83867	-123
1.84233	-123
1.84600	-122
1.84967	-121
1.85333	-121
1.85700	-120
1.86067	-120
1.86433	-120
1.86800	-120
1.87167	-120
1.87533	-120
1.87900	-120
1.88267	-120
1.88633	-120
1.89000	-119
1.89367	-119
1.89733	-119
1.90100	-119
1.90467	-119
1.90833	-119
1.91200	-119
1.91567	-119
1.91933	-118
1.92300	-118
1.92667	-117
1.93033	-116
1.93400	-116
1.93767	-115
1.94133	-115
1.94500	-115
1.94867	-114
1.95233	-114
1.95600	-114
1.95967	-114
1.96333	-115
1.96700	-115
1.97067	-115
1.97433	-115
1.97800	-114
1.98167	-114
1.98533	-114
1.98900	-114
1.99267	-113
1.99633	-113
2.00000	-112
2.00367	-111
2.00733	-110
2.01100	-109
2.01467	-109
2.01833	-108
2.02200	-108
2.02567	-108
2.02933	-108
2.03300	-108
2.03667	-108
2.04033	-108
2.04400	-108
2.04767	-108
2.05133	-108
2.05500	-108
2.05867	-108
2.06233	-108
2.06600	-108
2.06967	-107
2.07333	-107
2.07700	-107
2.08067	-106
2.08433	-106
2.08800	-105
2.09167	-105
2.09533	-104
2.09900	-104
2.10267	-103
2.10633	-103
2.11000	-102
2.11367	-102
2.11733	-102
2.12100	-101
2.12467	-101
2.12833	-101
2.13200	-100
2.13567	-100
2.13933	-100
2.14300	-99
2.14667	-99
2.15033	-99
2.15400	-99
2.15767	-99
2.16133	-99
2.16500	-98
2.16867	-98
2.17233	-98
2.17600	-97
2.17967	-96
2.18333	-95
2.18700	-95
2.19067	-95
2.19433	-95
2.19800	-95
2.20167	-94
2.20533	-94
2.20900	-94
2.21267	-93
2.21633	-93
2.22000	-92
2.22367	-92
2.22733	-92
2.23100	-92
2.23467	-92
2.23833	-93
2.24200	-93
2.24567	-93
2.24933	-93
2.25300	-93
2.25667	-93
2.26033	-92
2.26400	-92
2.26767	-91
2.27133	-90
2.27500	-90
2.27867	-90
2.28233	-89
2.28600	-89
2.28967	-89
2.29333	-89
2.29700	-89
2.30067	-89
2.30433	-89
2.30800	-89
2.31167	-89
2.31533	-89
2.31900	-89
2.32267	-88
2.32633	-87
2.33000	-85
2.33367	-84
2.33733	-83
2.34100	-81
2.34467	-80
2.34833	-80
2.35200	-80
2.35567	-80
2.35933	-80
2.36300	-79
2.36667	-78
2.37033	-76
2.37400	-73
2.37767	-70
2.38133	-66
2.38500	-62
2.38867	-58
2.39233	-53
2.39600	-49
2.39967	-45
2.40333	-41
2.40700	-36
2.41067	-33
2.41433	-30
2.41800	-27
2.42167	-25
2.42533	-23
2.42900	-22
2.43267	-21
2.43633	-19
2.44000	-17
2.44367	-15
2.44733	-13
2.45100	-11
2.45467	-9
2.45833	-7
2.46200	-6
2.46567	-5
2.46933	-4
2.47300	-2
2.47667	-1
2.48033	0
2.48400	1
2.48767	2
2.49133	3
2.49500	4
2.49867	5
2.50233	6
2.50600	6
2.50967	7
2.51333	8
2.51700	8
2.52067	9
2.52433	10
2.52800	10
2.53167	11
2.53533	11
2.53900	11
2.54267	11
2.54633	12
2.55000	12
2.55367	12
2.55733	13
2.56100	13
2.56467	13
2.56833	14
2.57200	14
2.57567	14
2.57933	14
2.58300	14
2.58667	14
2.59033	14
2.59400	13
2.59767	12
2.60133	12
2.60500	12
2.60867	11
2.61233	11
2.61600	11
2.61967	12
2.62333	12
2.62700	13
2.63067	13
2.63433	14
2.63800	14
2.64167	15
2.64533	15
2.64900	15
2.65267	16
2.65633	16
2.66000	16
2.66367	17
2.66733	17
2.67100	17
2.67467	17
2.67833	18
2.68200	18
2.68567	19
2.68933	19
2.69300	20
2.69667	21
2.70033	21
2.70400	22
2.70767	22
2.71133	22
2.71500	22
2.71867	22
2.72233	22
2.72600	21
2.72967	21
2.73333	21
2.73700	21
2.74067	21
2.74433	22
2.74800	22
2.75167	22
2.75533	22
2.75900	23
2.76267	23
2.76633	24
2.77000	25
2.77367	25
2.77733	26
2.78100	26
2.78467	27
2.78833	27
2.79200	27
2.79567	26
2.79933	26
2.80300	25
2.80667	25
2.81033	24
2.81400	24
2.81767	24
2.82133	24
2.82500	24
2.82867	24
2.83233	23
2.83600	23
2.83967	21
2.84333	19
2.84700	14
2.85067	7
2.85433	-3
2.85800	-16
2.86167	-34
2.86533	-55
2.86900	-81
2.87267	-110
2.87633	-144
2.88000	-182
2.88367	-223
2.88733	-267
2.89100	-315
2.89467	-364
2.89833	-415
2.90200	-467
2.90567	-520
2.90933	-573
2.91300	-626
2.91667	-679
2.92033	-732
2.92400	-783
2.92767	-833
2.93133	-885
2.93500	-941
2.93867	-1001
2.94233	-1056
2.94600	-1095
2.94967	-1110
2.95333	-1100
2.95700	-1064
2.96067	-1010
2.96433	-941
2.96800	-864
2.97167	-784
2.97533	-703
2.97900	-625
2.98267	-551
2.98633	-483
2.99000	-421
2.99367	-364
2.99733	-314
3.00100	-270
3.00467	-231
3.00833	-197
3.01200	-168
3.01567	-142
3.01933	-120
3.02300	-102
3.02667	-85
3.03033	-72
3.03400	-60
3.03767	-49
3.04133	-41
3.04500	-33
3.04867	-27
3.05233	-21
3.05600	-17
3.05967	-13
3.06333	-9
3.06700	-7
3.07067	-4
3.07433	-2
3.07800	-0
3.08167	2
3.08533	3
3.08900	4
3.09267	5
3.09633	6
3.10000	7
3.10367	8
3.10733	9
3.11100	10
3.11467	10
3.11833	11
3.12200	12
3.12567	12
3.12933	13
3.13300	14
3.13667	14
3.14033	14
3.14400	15
3.14767	15
3.15133	15
3.15500	16
3.15867	16
3.16233	17
3.16600	17
3.16967	17
3.17333	17
3.17700	17
3.18067	17
3.18433	17
3.18800	17
3.19167	17
3.19533	17
3.19900	17
3.20267	17
3.20633	17
3.21000	17
3.21367	18
3.21733	18
3.22100	18
3.22467	18
3.22833	18
3.23200	18
3.23567	19
3.23933	19
3.24300	19
3.24667	19
3.25033	19
3.25400	19
3.25767	20
3.26133	20
3.26500	20
3.26867	20
3.27233	21
3.27600	21
3.27967	21
3.28333	22
3.28700	22
3.29067	22
3.29433	23
3.29800	23
3.30167	24
3.30533	24
3.30900	24
3.31267	25
3.31633	25
3.32000	25
3.32367	26
3.32733	26
3.33100	26
3.33467	26
3.33833	26
3.34200	26
3.34567	26
3.34933	26
3.35300	26
3.35667	26
3.36033	26
3.36400	25
3.36767	25
3.37133	25
3.37500	25
3.37867	25
3.38233	25
3.38600	25
3.38967	26
3.39333	26
3.39700	26
3.40067	26
3.40433	26
3.40800	26
3.41167	26
3.41533	26
3.41900	25
3.42267	25
3.42633	25
3.43000	26
3.43367	26
3.43733	26
3.44100	26
3.44467	26
3.44833	26
3.45200	26
3.45567	25
3.45933	25
3.46300	25
3.46667	25
3.47033	25
3.47400	24
3.47767	24
3.48133	24
3.48500	24
3.48867	25
3.49233	25
3.49600	25
3.49967	25
3.50333	25
3.50700	25
3.51067	25
3.51433	25
3.51800	25
3.52167	25
3.52533	25
3.52900	25
3.53267	24
3.53633	24
3.54000	24
3.54367	24
3.54733	24
3.55100	24
3.55467	24
3.55833	24
3.56200	24
3.56567	24
3.56933	24
3.57300	24
3.57667	24
3.58033	24
3.58400	25
3.58767	25
3.59133	25
3.59500	25
3.59867	26
3.60233	26
3.60600	26
3.60967	25
3.61333	25
3.61700	25
3.62067	25
3.62433	25
3.62800	25
3.63167	25
3.63533	25
3.63900	24
3.64267	24
3.64633	24
3.65000	24
3.65367	24
3.65733	24
3.66100	24
3.66467	24
3.66833	25
3.67200	25
3.67567	25
3.67933	25
3.68300	25
3.68667	25
3.69033	25
3.69400	25
3.69767	25
3.70133	24
3.70500	24
3.70867	24
3.71233	24
3.71600	23
3.71967	23
3.72333	24
3.72700	24
3.73067	24
3.73433	24
3.73800	24
3.74167	25
3.74533	25
3.74900	25
3.75267	25
3.75633	25
3.76000	25
3.76367	25
3.76733	25
3.77100	25
3.77467	25
3.77833	25
3.78200	25
3.78567	25
3.78933	25
3.79300	25
3.79667	25
3.80033	25
3.80400	25
3.80767	24
3.81133	24
3.81500	24
3.81867	24
3.82233	23
3.82600	23
3.82967	23
3.83333	23
3.83700	24
3.84067	24
3.84433	24
3.84800	24
3.85167	24
3.85533	23
3.85900	23
3.86267	23
3.86633	23
3.87000	23
3.87367	23
3.87733	24
3.88100	24
3.88467	24
3.88833	24
3.89200	24
3.89567	24
3.89933	24
3.90300	24
3.90667	24
3.91033	24
3.91400	24
3.91767	24
3.92133	24
3.92500	24
3.92867	23
3.93233	23
3.93600	23
3.93967	23
3.94333	23
3.94700	22
3.95067	22
3.95433	23
3.95800	23
3.96167	23
3.96533	23
3.96900	23
3.97267	24
3.97633	24
3.98000	24
3.98367	24
3.98733	24
3.99100	24
3.99467	24
3.99833	24

[Chromatogram (Ch3)]
Interval(msec)	220
# of Points	1091
Start Time(min)	0.002
End Time(min)	3.998
R.Time (min)	Intensity
0.00167	0
0.00533	1
0.00900	3
0.01267	4
0.01633	3
0.02000	3
0.02367	3
0.02733	1
0.03100	0
0.03467	0
0.03833	1
0.04200	4
0.04567	7
0.04933	8
0.05300	7
0.05667	7
0.06033	7
0.06400	5
0.06767	1
0.07133	0
0.07500	1
0.07867	3
0.08233	6
0.08600	6
0.08967	5
0.09333	5
0.09700	4
0.10067	4
0.10433	4
0.10800	4
0.11167	4
0.11533	5
0.11900	5
0.12267	3
0.12633	2
0.13000	3
0.13367	7
0.13733	9
0.14100	10
0.14467	9
0.14833	7
0.15200	5
0.15567	5
0.15933	4
0.16300	2
0.16667	2
0.17033	3
0.17400	6
0.17767	7
0.18133	7
0.18500	7
0.18867	7
0.19233	6
0.19600	6
0.19967	4
0.20333	4
0.20700	3
0.21067	3
0.21433	4
0.21800	4
0.22167	4
0.22533	5
0.22900	6
0.23267	5
0.23633	4
0.24000	4
0.24367	7
0.24733	6
0.25100	5
0.25467	6
0.25833	6
0.26200	6
0.26567	7
0.26933	9
0.27300	11
0.27667	12
0.28033	11
0.28400	9
0.28767	7
0.29133	5
0.29500	4
0.29867	4
0.30233	5
0.30600	6
0.30967	6
0.31333	5
0.31700	4
0.32067	6
0.32433	6
0.32800	5
0.33167	8
0.33533	9
0.33900	8
0.34267	8
0.34633	9
0.35000	9
0.35367	9
0.35733	7
0.36100	5
0.36467	4
0.36833	5
0.37200	6
0.37567	5
0.37933	5
0.38300	6
0.38667	9
0.39033	11
0.39400	11
0.39767	14
0.40133	15
0.40500	15
0.40867	14
0.41233	10
0.41600	8
0.41967	8
0.42333	9
0.42700	12
0.43067	11
0.43433	10
0.43800	12
0.44167	13
0.44533	13
0.44900	17
0.45267	20
0.45633	22
0.46000	20
0.46367	18
0.46733	18
0.47100	16
0.47467	17
0.47833	17
0.48200	17
0.48567	16
0.48933	16
0.49300	14
0.49667	13
0.50033	13
0.50400	12
0.50767	11
0.51133	9
0.51500	8
0.51867	9
0.52233	12
0.52600	12
0.52967	13
0.53333	15
0.53700	16
0.54067	16
0.54433	15
0.54800	17
0.55167	17
0.55533	16
0.55900	15
0.56267	17
0.56633	18
0.57000	18
0.57367	16
0.57733	14
0.58100	15
0.58467	15
0.58833	14
0.59200	14
0.59567	15
0.59933	16
0.60300	17
0.60667	16
0.61033	16
0.61400	16
0.61767	16
0.62133	17
0.62500	18
0.62867	17
0.63233	17
0.63600	18
0.63967	16
0.64333	16
0.64700	16
0.65067	13
0.65433	12
0.65800	13
0.66167	17
0.66533	19
0.66900	19
0.67267	19
0.67633	21
0.68000	21
0.68367	19
0.68733	17
0.69100	17
0.69467	19
0.69833	19
0.70200	16
0.70567	14
0.70933	12
0.71300	14
0.71667	15
0.72033	15
0.72400	15
0.72767	14
0.73133	15
0.73500	17
0.73867	17
0.74233	18
0.74600	18
0.74967	19
0.75333	20
0.75700	20
0.76067	18
0.76433	17
0.76800	19
0.77167	20
0.77533	23
0.77900	25
0.78267	26
0.78633	24
0.79000	23
0.79367	21
0.79733	17
0.80100	15
0.80467	15
0.80833	16
0.81200	17
0.81567	17
0.81933	17
0.82300	20
0.82667	21
0.83033	20
0.83400	19
0.83767	20
0.84133	21
0.84500	24
0.84867	24
0.85233	23
0.85600	25
0.85967	26
0.86333	27
0.86700	27
0.87067	28
0.87433	26
0.87800	23
0.88167	22
0.88533	20
0.88900	20
0.89267	21
0.89633	23
0.90000	23
0.90367	22
0.90733	20
0.91100	20
0.91467	20
0.91833	19
0.92200	18
0.92567	20
0.92933	22
0.93300	23
0.93667	23
0.94033	24
0.94400	25
0.94767	24
0.95133	23
0.95500	22
0.95867	20
0.96233	20
0.96600	22
0.96967	23
0.97333	23
0.97700	23
0.98067	21
0.98433	21
0.98800	21
0.99167	21
0.99533	20
0.99900	18
1.00267	16
1.00633	13
1.01000	14
1.01367	16
1.01733	17
1.02100	18
1.02467	18
1.02833	17
1.03200	17
1.03567	17
1.03933	18
1.04300	19
1.04667	20
1.05033	24
1.05400	24
1.05767	22
1.06133	22
1.06500	23
1.06867	25
1.07233	27
1.07600	28
1.07967	30
1.08333	29
1.08700	27
1.09067	27
1.09433	27
1.09800	25
1.10167	23
1.10533	24
1.10900	24
1.11267	25
1.11633	24
1.12000	23
1.12367	23
1.12733	25
1.13100	25
1.13467	24
1.13833	23
1.14200	23
1.14567	22
1.14933	23
1.15300	25
1.15667	26
1.16033	26
1.16400	28
1.16767	28
1.17133	28
1.17500	28
1.17867	28
1.18233	29
1.18600	30
1.18967	31
1.19333	32
1.19700	31
1.20067	30
1.20433	28
1.20800	27
1.21167	28
1.21533	27
1.21900	25
1.22267	23
1.22633	23
1.23000	25
1.23367	26
1.23733	27
1.24100	28
1.24467	31
1.24833	30
1.25200	29
1.25567	29
1.25933	28
1.26300	29
1.26667	30
1.27033	30
1.27400	30
1.27767	30
1.28133	30
1.28500	32
1.28867	34
1.29233	35
1.29600	32
1.29967	30
1.30333	29
1.30700	29
1.31067	33
1.31433	36
1.31800	35
1.32167	34
1.32533	31
1.32900	28
1.33267	29
1.33633	31
1.34000	33
1.34367	33
1.34733	32
1.35100	32
1.35467	33
1.35833	35
1.36200	35
1.36567	34
1.36933	36
1.37300	36
1.37667	35
1.38033	35
1.38400	35
1.38767	36
1.39133	36
1.39500	36
1.39867	34
1.40233	33
1.40600	33
1.40967	33
1.41333	33
1.41700	33
1.42067	33
1.42433	35
1.42800	36
1.43167	38
1.43533	40
1.43900	40
1.44267	40
1.44633	39
1.45000	41
1.45367	43
1.45733	44
1.46100	43
1.46467	42
1.46833	40
1.47200	36
1.47567	35
1.47933	33
1.48300	32
1.48667	31
1.49033	32
1.49400	33
1.49767	32
1.50133	32
1.50500	34
1.50867	36
1.51233	38
1.51600	38
1.51967	39
1.52333	37
1.52700	36
1.53067	35
1.53433	35
1.53800	35
1.54167	35
1.54533	34
1.54900	34
1.55267	34
1.55633	34
1.56000	36
1.56367	36
1.56733	36
1.57100	36
1.57467	35
1.57833	35
1.58200	35
1.58567	34
1.58933	35
1.59300	35
1.59667	35
1.60033	37
1.60400	39
1.60767	42
1.61133	45
1.61500	47
1.61867	47
1.62233	43
1.62600	40
1.62967	37
1.63333	35
1.63700	33
1.64067	32
1.64433	33
1.64800	35
1.65167	38
1.65533	41
1.65900	40
1.66267	41
1.66633	44
1.67000	47
1.67367	47
1.67733	48
1.68100	47
1.68467	46
1.68833	46
1.69200	46
1.69567	48
1.69933	49
1.70300	49
1.70667	50
1.71033	52
1.71400	54
1.71767	53
1.72133	54
1.72500	54
1.72867	54
1.73233	57
1.73600	59
1.73967	59
1.74333	60
1.74700	60
1.75067	57
1.75433	53
1.75800	52
1.76167	55
1.76533	57
1.76900	58
1.77267	59
1.77633	59
1.78000	58
1.78367	58
1.78733	58
1.79100	58
1.79467	59
1.79833	58
1.80200	58
1.80567	59
1.80933	61
1.81300	62
1.81667	63
1.82033	64
1.82400	67
1.82767	68
1.83133	67
1.83500	66
1.83867	64
1.84233	63
1.84600	62
1.84967	64
1.85333	66
1.85700	66
1.86067	65
1.86433	64
1.86800	65
1.87167	65
1.87533	65
1.87900	65
1.88267	65
1.88633	67
1.89000	70
1.89367	68
1.89733	68
1.90100	67
1.90467	68
1.90833	70
1.91200	71
1.91567	72
1.91933	73
1.92300	72
1.92667	71
1.93033	72
1.93400	73
1.93767	76
1.94133	75
1.94500	75
1.94867	75
1.95233	75
1.95600	75
1.95967	76
1.96333	79
1.96700	82
1.97067	84
1.97433	82
1.97800	82
1.98167	83
1.98533	85
1.98900	86
1.99267	87
1.99633	88
2.00000	88
2.00367	89
2.00733	87
2.01100	85
2.01467	86
2.01833	88
2.02200	90
2.02567	90
2.02933	89
2.03300	87
2.03667	86
2.04033	87
2.04400	91
2.04767	95
2.05133	97
2.05500	97
2.05867	100
2.06233	102
2.06600	102
2.06967	103
2.07333	105
2.07700	105
2.08067	107
2.08433	107
2.08800	107
2.09167	105
2.09533	105
2.09900	106
2.10267	107
2.10633	108
2.11000	105
2.11367	105
2.11733	107
2.12100	110
2.12467	113
2.12833	114
2.13200	117
2.13567	119
2.13933	119
2.14300	120
2.14667	123
2.15033	122
2.15400	122
2.15767	122
2.16133	122
2.16500	122
2.16867	125
2.17233	127
2.17600	128
2.17967	126
2.18333	126
2.18700	127
2.19067	130
2.19433	133
2.19800	136
2.20167	137
2.20533	136
2.20900	135
2.21267	134
2.21633	136
2.22000	140
2.22367	143
2.22733	144
2.23100	146
2.23467	147
2.23833	147
2.24200	146
2.24567	146
2.24933	146
2.25300	148
2.25667	150
2.26033	153
2.26400	155
2.26767	157
2.27133	157
2.27500	159
2.27867	163
2.28233	165
2.28600	166
2.28967	166
2.29333	166
2.29700	168
2.30067	167
2.30433	165
2.30800	164
2.31167	164
2.31533	166
2.31900	170
2.32267	171
2.32633	173
2.33000	176
2.33367	180
2.33733	179
2.34100	178
2.34467	180
2.34833	183
2.35200	187
2.35567	188
2.35933	187
2.36300	189
2.36667	194
2.37033	199
2.37400	201
2.37767	202
2.38133	204
2.38500	202
2.38867	201
2.39233	202
2.39600	205
2.39967	210
2.40333	213
2.40700	216
2.41067	218
2.41433	217
2.41800	217
2.42167	217
2.42533	218
2.42900	220
2.43267	222
2.43633	221
2.44000	222
2.44367	244
2.44733	305
2.45100	370
2.45467	421
2.45833	451
2.46200	452
2.46567	435
2.46933	413
2.47300	391
2.47667	373
2.48033	361
2.48400	353
2.48767	345
2.49133	332
2.49500	315
2.49867	298
2.50233	283
2.50600	267
2.50967	256
2.51333	248
2.51700	242
2.52067	241
2.52433	241
2.52800	239
2.53167	239
2.53533	244
2.53900	251
2.54267	258
2.54633	266
2.55000	271
2.55367	272
2.55733	269
2.56100	263
2.56467	254
2.56833	245
2.57200	236
2.57567	226
2.57933	222
2.58300	220
2.58667	215
2.59033	208
2.59400	203
2.59767	197
2.60133	189
2.60500	179
2.60867	165
2.61233	148
2.61600	128
2.61967	108
2.62333	89
2.62700	71
2.63067	59
2.63433	50
2.63800	44
2.64167	42
2.64533	44
2.64900	47
2.65267	54
2.65633	61
2.66000	71
2.66367	80
2.66733	88
2.67100	96
2.67467	105
2.67833	113
2.68200	121
2.68567	128
2.68933	133
2.69300	137
2.69667	140
2.70033	144
2.70400	147
2.70767	152
2.71133	154
2.71500	156
2.71867	157
2.72233	157
2.72600	159
2.72967	160
2.73333	160
2.73700	160
2.74067	163
2.74433	163
2.74800	164
2.75167	163
2.75533	162
2.75900	160
2.76267	160
2.76633	159
2.77000	159
2.77367	158
2.77733	154
2.78100	152
2.78467	153
2.78833	153
2.79200	152
2.79567	153
2.79933	155
2.80300	158
2.80667	161
2.81033	162
2.81400	164
2.81767	170
2.82133	189
2.82500	231
2.82867	314
2.83233	461
2.83600	692
2.83967	1024
2.84333	1458
2.84700	1980
2.85067	2561
2.85433	3161
2.85800	3731
2.86167	4221
2.86533	4593
2.86900	4827
2.87267	4917
2.87633	4873
2.88000	4712
2.88367	4464
2.88733	4159
2.89100	3821
2.89467	3472
2.89833	3125
2.90200	2791
2.90567	2481
2.90933	2197
2.91300	1940
2.91667	1709
2.92033	1503
2.92400	1322
2.92767	1165
2.93133	1029
2.93500	912
2.93867	807
2.94233	716
2.94600	639
2.94967	575
2.95333	518
2.95700	471
2.96067	430
2.96433	394
2.96800	361
2.97167	331
2.97533	306
2.97900	286
2.98267	269
2.98633	254
2.99000	240
2.99367	229
2.99733	223
3.00100	216
3.00467	208
3.00833	200
3.01200	194
3.01567	189
3.01933	183
3.02300	180
3.02667	176
3.03033	172
3.03400	170
3.03767	166
3.04133	162
3.04500	160
3.04867	158
3.05233	154
3.05600	151
3.05967	149
3.06333	148
3.06700	146
3.07067	138
3.07433	117
3.07800	97
3.08167	95
3.08533	111
3.08900	139
3.09267	175
3.09633	214
3.10000	252
3.10367	289
3.10733	324
3.11100	358
3.11467	388
3.11833	416
3.12200	442
3.12567	468
3.12933	494
3.13300	517
3.13667	538
3.14033	557
3.14400	573
3.14767	587
3.15133	600
3.15500	612
3.15867	621
3.16233	630
3.16600	639
3.16967	648
3.17333	656
3.17700	665
3.18067	673
3.18433	683
3.18800	694
3.19167	703
3.19533	711
3.19900	718
3.20267	726
3.20633	734
3.21000	740
3.21367	745
3.21733	749
3.22100	752
3.22467	754
3.22833	757
3.23200	761
3.23567	766
3.23933	769
3.24300	770
3.24667	768
3.25033	765
3.25400	763
3.25767	759
3.26133	756
3.26500	753
3.26867	746
3.27233	740
3.27600	736
3.27967	730
3.28333	722
3.28700	714
3.29067	705
3.29433	697
3.29800	689
3.30167	681
3.30533	671
3.30900	659
3.31267	654
3.31633	646
3.32000	638
3.32367	632
3.32733	628
3.33100	621
3.33467	615
3.33833	608
3.34200	599
3.34567	593
3.34933	588
3.35300	582
3.35667	578
3.36033	574
3.36400	566
3.36767	562
3.37133	557
3.37500	552
3.37867	548
3.38233	546
3.38600	546
3.38967	544
3.39333	542
3.39700	542
3.40067	540
3.40433	539
3.40800	537
3.41167	532
3.41533	531
3.41900	532
3.42267	533
3.42633	533
3.43000	530
3.43367	529
3.43733	528
3.44100	527
3.44467	523
3.44833	522
3.45200	517
3.45567	516
3.45933	517
3.46300	516
3.46667	513
3.47033	512
3.47400	512
3.47767	512
3.48133	510
3.48500	506
3.48867	504
3.49233	501
3.49600	502
3.49967	501
3.50333	498
3.50700	498
3.51067	499
3.51433	497
3.51800	492
3.52167	489
3.52533	486
3.52900	484
3.53267	481
3.53633	478
3.54000	477
3.54367	476
3.54733	474
3.55100	470
3.55467	466
3.55833	463
3.56200	461
3.56567	458
3.56933	456
3.57300	456
3.57667	457
3.58033	456
3.58400	452
3.58767	449
3.59133	451
3.59500	451
3.59867	448
3.60233	442
3.60600	439
3.60967	437
3.61333	436
3.61700	434
3.62067	434
3.62433	435
3.62800	435
3.63167	432
3.63533	428
3.63900	424
3.64267	423
3.64633	422
3.65000	423
3.65367	423
3.65733	421
3.66100	419
3.66467	417
3.66833	415
3.67200	412
3.67567	411
3.67933	409
3.68300	406
3.68667	403
3.69033	401
3.69400	399
3.69767	399
3.70133	399
3.70500	398
3.70867	395
3.71233	394
3.71600	392
3.71967	392
3.72333	391
3.72700	390
3.73067	388
3.73433	387
3.73800	389
3.74167	391
3.74533	391
3.74900	389
3.75267	386
3.75633	386
3.76000	388
3.76367	390
3.76733	391
3.77100	391
3.77467	389
3.77833	387
3.78200	385
3.78567	383
3.78933	380
3.79300	379
3.79667	378
3.80033	377
3.80400	375
3.80767	373
3.81133	373
3.81500	374
3.81867	373
3.82233	370
3.82600	368
3.82967	368
3.83333	370
3.83700	369
3.84067	368
3.84433	368
3.84800	368
3.85167	369
3.85533	371
3.85900	372
3.86267	371
3.86633	372
3.87000	371
3.87367	369
3.87733	368
3.88100	367
3.88467	367
3.88833	364
3.89200	362
3.89567	359
3.89933	358
3.90300	359
3.90667	360
3.91033	359
3.91400	357
3.91767	357
3.92133	357
3.92500	358
3.92867	357
3.93233	358
3.93600	358
3.93967	358
3.94333	357
3.94700	357
3.95067	355
3.95433	353
3.95800	353
3.96167	353
3.96533	352
3.96900	350
3.97267	348
3.97633	347
3.98000	345
3.98367	343
3.98733	343
3.99100	342
3.99467	342
3.99833	340

[Status Trace (Column Oven Temperature)]
Interval(msec)	1000
# of Points	240
Start Time(min)	0.011
End Time(min)	3.994
Intensity Units	
Intensity Multiplier	1
R.Time (min)	Intensity
0.01062	35.03
0.02728	35.04
0.04395	35.05
0.06062	35.05
0.07728	35.05
0.09395	35.05
0.11062	35.05
0.12728	35.04
0.14395	35.03
0.16062	35.02
0.17728	35.02
0.19395	35.00
0.21062	35.00
0.22728	35.01
0.24395	35.02
0.26062	35.04
0.27728	35.03
0.29395	35.03
0.31062	35.03
0.32728	35.03
0.34395	35.02
0.36062	35.03
0.37728	35.03
0.39395	35.04
0.41062	35.02
0.42728	35.00
0.44395	35.00
0.46062	35.01
0.47728	35.01
0.49395	35.00
0.51062	34.99
0.52728	34.98
0.54395	34.98
0.56062	34.98
0.57728	34.98
0.59395	34.99
0.61062	35.00
0.62728	35.00
0.64395	35.00
0.66062	35.00
0.67728	35.01
0.69395	35.00
0.71062	35.00
0.72728	34.99
0.74395	35.00
0.76062	35.00
0.77728	35.00
0.79395	35.00
0.81062	35.01
0.82728	35.01
0.84395	35.02
0.86062	35.03
0.87728	35.02
0.89395	35.00
0.91062	35.00
0.92728	34.99
0.94395	34.99
0.96062	34.99
0.97728	34.98
0.99395	34.98
1.01062	34.97
1.02728	34.97
1.04395	34.99
1.06062	35.01
1.07728	35.03
1.09395	35.03
1.11062	35.03
1.12728	35.02
1.14395	35.01
1.16062	35.00
1.17728	35.00
1.19395	34.99
1.21062	34.98
1.22728	34.98
1.24395	34.98
1.26062	34.97
1.27728	34.97
1.29395	34.97
1.31062	34.95
1.32728	34.95
1.34395	34.97
1.36062	34.99
1.37728	35.00
1.39395	35.01
1.41062	35.01
1.42728	35.02
1.44395	35.02
1.46062	35.02
1.47728	35.01
1.49395	35.01
1.51062	35.00
1.52728	34.99
1.54395	34.99
1.56062	34.98
1.57728	35.00
1.59395	35.02
1.61062	35.09
1.62728	35.21
1.64395	35.39
1.66062	35.66
1.67728	36.03
1.69395	36.39
1.71062	36.74
1.72728	37.06
1.74395	37.41
1.76062	37.74
1.77728	38.06
1.79395	38.39
1.81062	38.73
1.82728	39.07
1.84395	39.40
1.86062	39.73
1.87728	40.06
1.89395	40.38
1.91062	40.71
1.92728	41.03
1.94395	41.34
1.96062	41.68
1.97728	42.00
1.99395	42.33
2.01062	42.63
2.02728	42.96
2.04395	43.29
2.06062	43.61
2.07728	43.94
2.09395	44.27
2.11062	44.59
2.12728	44.91
2.14395	45.24
2.16062	45.58
2.17728	45.89
2.19395	46.22
2.21062	46.54
2.22728	46.89
2.24395	47.23
2.26062	47.56
2.27728	47.87
2.29395	48.20
2.31062	48.56
2.32728	48.87
2.34395	49.18
2.36062	49.49
2.37728	49.64
2.39395	49.68
2.41062	49.66
2.42728	49.69
2.44395	49.68
2.46062	49.70
2.47728	49.70
2.49395	49.71
2.51062	49.72
2.52728	49.73
2.54395	49.75
2.56062	49.77
2.57728	49.76
2.59395	49.82
2.61062	49.84
2.62728	49.84
2.64395	49.84
2.66062	49.85
2.67728	49.85
2.69395	49.85
2.71062	49.85
2.72728	49.88
2.74395	49.88
2.76062	49.87
2.77728	49.85
2.79395	49.86
2.81062	49.88
2.82728	49.89
2.84395	49.90
2.86062	49.92
2.87728	49.93
2.89395	49.94
2.91062	49.92
2.92728	49.92
2.94395	49.94
2.96062	49.94
2.97728	49.96
2.99395	49.97
3.01062	49.97
3.02728	49.97
3.04395	49.99
3.06062	50.01
3.07728	50.02
3.09395	50.03
3.11062	50.03
3.12728	50.04
3.14395	50.04
3.16062	50.04
3.17728	50.05
3.19395	50.07
3.21062	50.08
3.22728	50.09
3.24395	50.10
3.26062	50.11
3.27728	50.11
3.29395	50.10
3.31062	50.09
3.32728	50.07
3.34395	50.06
3.36062	50.04
3.37728	50.03
3.39395	50.03
3.41062	50.03
3.42728	50.02
3.44395	50.02
3.46062	50.02
3.47728	50.03
3.49395	50.02
3.51062	50.02
3.52728	50.03
3.54395	50.04
3.56062	50.04
3.57728	50.04
3.59395	50.03
3.61062	50.03
3.62728	50.04
3.64395	50.04
3.66062	50.04
3.67728	50.04
3.69395	50.05
3.71062	50.06
3.72728	50.05
3.74395	50.04
3.76062	50.04
3.77728	50.05
3.79395	50.05
3.81062	50.06
3.82728	50.06
3.84395	50.06
3.86062	50.08
3.87728	50.08
3.89395	50.07
3.91062	50.07
3.92728	50.08
3.94395	50.08
3.96062	50.09
3.97728	50.08
3.99395	50.09

[Status Trace (Injection Unit Temperature)]
Interval(msec)	1000
# of Points	240
Start Time(min)	0.011
End Time(min)	3.994
Intensity Units	
Intensity Multiplier	1
R.Time (min)	Intensity
0.01062	99.97
0.02728	99.97
0.04395	99.98
0.06062	99.98
0.07728	99.98
0.09395	99.98
0.11062	99.98
0.12728	99.98
0.14395	99.98
0.16062	99.98
0.17728	99.98
0.19395	99.98
0.21062	99.98
0.22728	99.98
0.24395	99.97
0.26062	99.98
0.27728	99.98
0.29395	99.98
0.31062	99.98
0.32728	99.98
0.34395	99.98
0.36062	99.98
0.37728	99.99
0.39395	99.98
0.41062	99.98
0.42728	99.98
0.44395	99.99
0.46062	99.98
0.47728	99.98
0.49395	99.99
0.51062	99.99
0.52728	99.97
0.54395	99.98
0.56062	99.98
0.57728	99.99
0.59395	99.98
0.61062	99.98
0.62728	99.97
0.64395	99.98
0.66062	99.98
0.67728	99.98
0.69395	99.98
0.71062	99.98
0.72728	99.98
0.74395	99.98
0.76062	99.98
0.77728	99.99
0.79395	99.98
0.81062	99.99
0.82728	99.99
0.84395	99.98
0.86062	99.98
0.87728	99.98
0.89395	99.99
0.91062	99.99
0.92728	99.98
0.94395	99.98
0.96062	99.99
0.97728	99.99
0.99395	99.99
1.01062	99.99
1.02728	99.99
1.04395	99.98
1.06062	99.98
1.07728	99.99
1.09395	99.98
1.11062	99.98
1.12728	99.98
1.14395	99.99
1.16062	99.99
1.17728	99.99
1.19395	99.98
1.21062	99.99
1.22728	99.99
1.24395	99.98
1.26062	99.99
1.27728	99.99
1.29395	99.99
1.31062	99.99
1.32728	99.98
1.34395	99.98
1.36062	99.99
1.37728	99.98
1.39395	99.99
1.41062	99.98
1.42728	99.99
1.44395	99.98
1.46062	99.98
1.47728	99.98
1.49395	99.99
1.51062	99.98
1.52728	99.99
1.54395	99.99
1.56062	99.98
1.57728	99.98
1.59395	99.98
1.61062	99.98
1.62728	99.98
1.64395	99.98
1.66062	99.98
1.67728	99.98
1.69395	99.98
1.71062	99.98
1.72728	99.98
1.74395	99.98
1.76062	99.98
1.77728	99.98
1.79395	99.98
1.81062	99.98
1.82728	99.98
1.84395	99.98
1.86062	99.98
1.87728	99.98
1.89395	99.98
1.91062	99.98
1.92728	99.98
1.94395	99.98
1.96062	99.98
1.97728	99.98
1.99395	99.98
2.01062	99.98
2.02728	99.98
2.04395	99.97
2.06062	99.97
2.07728	99.98
2.09395	99.97
2.11062	99.97
2.12728	99.97
2.14395	99.97
2.16062	99.97
2.17728	99.97
2.19395	99.97
2.21062	99.97
2.22728	99.97
2.24395	99.96
2.26062	99.97
2.27728	99.97
2.29395	99.96
2.31062	99.97
2.32728	99.97
2.34395	99.97
2.36062	99.97
2.37728	99.97
2.39395	99.97
2.41062	99.97
2.42728	99.97
2.44395	99.97
2.46062	99.97
2.47728	99.97
2.49395	99.97
2.51062	99.97
2.52728	99.97
2.54395	99.97
2.56062	99.97
2.57728	99.97
2.59395	99.97
2.61062	99.97
2.62728	99.98
2.64395	99.98
2.66062	99.97
2.67728	99.97
2.69395	99.98
2.71062	99.98
2.72728	99.98
2.74395	99.97
2.76062	99.98
2.77728	99.99
2.79395	99.99
2.81062	99.99
2.82728	99.99
2.84395	99.99
2.86062	99.99
2.87728	99.99
2.89395	100.00
2.91062	100.00
2.92728	100.00
2.94395	100.00
2.96062	100.00
2.97728	100.00
2.99395	100.00
3.01062	100.01
3.02728	100.01
3.04395	100.01
3.06062	100.01
3.07728	100.01
3.09395	100.01
3.11062	100.02
3.12728	100.01
3.14395	100.01
3.16062	100.02
3.17728	100.02
3.19395	100.02
3.21062	100.02
3.22728	100.02
3.24395	100.02
3.26062	100.02
3.27728	100.02
3.29395	100.02
3.31062	100.03
3.32728	100.02
3.34395	100.03
3.36062	100.03
3.37728	100.03
3.39395	100.03
3.41062	100.03
3.42728	100.03
3.44395	100.03
3.46062	100.04
3.47728	100.03
3.49395	100.04
3.51062	100.04
3.52728	100.03
3.54395	100.04
3.56062	100.04
3.57728	100.04
3.59395	100.04
3.61062	100.04
3.62728	100.04
3.64395	100.04
3.66062	100.04
3.67728	100.04
3.69395	100.04
3.71062	100.05
3.72728	100.04
3.74395	100.05
3.76062	100.05
3.77728	100.05
3.79395	100.05
3.81062	100.05
3.82728	100.05
3.84395	100.04
3.86062	100.05
3.87728	100.05
3.89395	100.05
3.91062	100.05
3.92728	100.05
3.94395	100.05
3.96062	100.05
3.97728	100.05
3.99395	100.05

[Status Trace (Carrier Gas Pressure)]
Interval(msec)	1000
# of Points	240
Start Time(min)	0.011
End Time(min)	3.994
Intensity Units	
Intensity Multiplier	1
R.Time (min)	Intensity
0.01062	58.00
0.02728	55.07
0.04395	57.53
0.06062	59.52
0.07728	59.09
0.09395	58.01
0.11062	57.99
0.12728	58.01
0.14395	58.01
0.16062	58.00
0.17728	58.00
0.19395	58.00
0.21062	58.00
0.22728	58.00
0.24395	58.00
0.26062	58.00
0.27728	58.00
0.29395	58.00
0.31062	58.00
0.32728	58.00
0.34395	58.00
0.36062	58.00
0.37728	58.00
0.39395	58.00
0.41062	58.00
0.42728	58.00
0.44395	58.00
0.46062	58.00
0.47728	58.00
0.49395	58.00
0.51062	58.00
0.52728	58.00
0.54395	58.00
0.56062	58.00
0.57728	58.00
0.59395	58.00
0.61062	58.00
0.62728	58.00
0.64395	58.00
0.66062	58.00
0.67728	58.00
0.69395	58.00
0.71062	58.00
0.72728	58.00
0.74395	58.00
0.76062	58.00
0.77728	58.00
0.79395	58.00
0.81062	58.00
0.82728	58.00
0.84395	58.00
0.86062	58.00
0.87728	58.00
0.89395	58.00
0.91062	58.00
0.92728	58.00
0.94395	58.00
0.96062	58.00
0.97728	58.00
0.99395	58.00
1.01062	58.00
1.02728	58.00
1.04395	58.00
1.06062	58.00
1.07728	58.00
1.09395	58.00
1.11062	58.00
1.12728	58.00
1.14395	58.00
1.16062	58.00
1.17728	58.00
1.19395	58.00
1.21062	58.00
1.22728	58.00
1.24395	58.00
1.26062	58.00
1.27728	58.00
1.29395	58.00
1.31062	58.00
1.32728	58.00
1.34395	58.00
1.36062	58.00
1.37728	58.00
1.39395	58.00
1.41062	58.00
1.42728	58.00
1.44395	58.00
1.46062	58.00
1.47728	58.00
1.49395	58.00
1.51062	58.00
1.52728	58.00
1.54395	58.00
1.56062	58.00
1.57728	58.00
1.59395	58.00
1.61062	58.00
1.62728	58.00
1.64395	58.00
1.66062	58.01
1.67728	58.01
1.69395	58.00
1.71062	58.00
1.72728	58.00
1.74395	58.00
1.76062	58.00
1.77728	58.00
1.79395	58.00
1.81062	58.00
1.82728	58.00
1.84395	58.00
1.86062	58.00
1.87728	58.00
1.89395	58.00
1.91062	58.00
1.92728	58.00
1.94395	58.00
1.96062	58.00
1.97728	58.00
1.99395	58.00
2.01062	58.00
2.02728	58.00
2.04395	58.00
2.06062	58.00
2.07728	58.00
2.09395	58.00
2.11062	58.00
2.12728	58.00
2.14395	58.00
2.16062	58.00
2.17728	58.00
2.19395	58.00
2.21062	58.00
2.22728	58.00
2.24395	58.00
2.26062	58.00
2.27728	58.00
2.29395	58.00
2.31062	58.00
2.32728	58.00
2.34395	58.00
2.36062	58.00
2.37728	57.99
2.39395	57.99
2.41062	57.99
2.42728	58.00
2.44395	58.00
2.46062	58.00
2.47728	58.00
2.49395	58.00
2.51062	57.99
2.52728	57.99
2.54395	58.00
2.56062	58.00
2.57728	58.00
2.59395	58.00
2.61062	58.00
2.62728	58.00
2.64395	58.00
2.66062	58.00
2.67728	58.00
2.69395	58.00
2.71062	58.00
2.72728	58.00
2.74395	58.00
2.76062	58.00
2.77728	58.00
2.79395	58.00
2.81062	58.00
2.82728	58.00
2.84395	58.00
2.86062	58.00
2.87728	58.00
2.89395	58.00
2.91062	58.00
2.92728	58.00
2.94395	58.00
2.96062	58.00
2.97728	58.00
2.99395	58.00
3.01062	58.00
3.02728	58.00
3.04395	58.00
3.06062	58.00
3.07728	58.00
3.09395	58.00
3.11062	58.00
3.12728	58.00
3.14395	58.00
3.16062	58.00
3.17728	58.00
3.19395	58.00
3.21062	58.00
3.22728	58.00
3.24395	58.00
3.26062	58.00
3.27728	58.00
3.29395	58.00
3.31062	58.00
3.32728	58.00
3.34395	58.00
3.36062	58.00
3.37728	58.00
3.39395	58.00
3.41062	58.00
3.42728	58.00
3.44395	58.00
3.46062	58.00
3.47728	58.00
3.49395	58.00
3.51062	58.00
3.52728	58.00
3.54395	58.00
3.56062	58.00
3.57728	58.00
3.59395	58.00
3.61062	58.00
3.62728	58.00
3.64395	58.00
3.66062	58.00
3.67728	58.00
3.69395	58.00
3.71062	58.00
3.72728	58.00
3.74395	58.00
3.76062	58.00
3.77728	58.00
3.79395	58.00
3.81062	58.00
3.82728	58.00
3.84395	58.00
3.86062	58.00
3.87728	58.00
3.89395	58.00
3.91062	58.00
3.92728	58.00
3.94395	58.00
3.96062	58.00
3.97728	58.00
3.99395	58.00

[Status Trace (Carrier Gas Flow)]
Interval(msec)	1000
# of Points	240
Start Time(min)	0.011
End Time(min)	3.994
Intensity Units	
Intensity Multiplier	1
R.Time (min)	Intensity
0.01062	34.52
0.02728	34.54
0.04395	34.54
0.06062	34.54
0.07728	34.50
0.09395	34.52
0.11062	34.52
0.12728	34.52
0.14395	34.52
0.16062	34.52
0.17728	34.52
0.19395	34.52
0.21062	34.51
0.22728	34.52
0.24395	34.52
0.26062	34.52
0.27728	34.52
0.29395	34.52
0.31062	34.52
0.32728	34.51
0.34395	34.52
0.36062	34.52
0.37728	34.53
0.39395	34.52
0.41062	34.53
0.42728	34.52
0.44395	34.52
0.46062	34.53
0.47728	34.52
0.49395	34.52
0.51062	34.52
0.52728	34.53
0.54395	34.52
0.56062	34.51
0.57728	34.52
0.59395	34.52
0.61062	34.52
0.62728	34.52
0.64395	34.52
0.66062	34.52
0.67728	34.51
0.69395	34.52
0.71062	34.52
0.72728	34.52
0.74395	34.52
0.76062	34.52
0.77728	34.51
0.79395	34.52
0.81062	34.52
0.82728	34.52
0.84395	34.52
0.86062	34.51
0.87728	34.52
0.89395	34.52
0.91062	34.52
0.92728	34.52
0.94395	34.52
0.96062	34.52
0.97728	34.52
0.99395	34.52
1.01062	34.52
1.02728	34.52
1.04395	34.52
1.06062	34.52
1.07728	34.52
1.09395	34.52
1.11062	34.52
1.12728	34.52
1.14395	34.52
1.16062	34.52
1.17728	34.52
1.19395	34.52
1.21062	34.52
1.22728	34.52
1.24395	34.52
1.26062	34.52
1.27728	34.52
1.29395	34.52
1.31062	34.52
1.32728	34.51
1.34395	34.52
1.36062	34.52
1.37728	34.52
1.39395	34.52
1.41062	34.52
1.42728	34.52
1.44395	34.51
1.46062	34.52
1.47728	34.52
1.49395	34.52
1.51062	34.52
1.52728	34.52
1.54395	34.52
1.56062	34.52
1.57728	34.52
1.59395	34.52
1.61062	34.52
1.62728	34.52
1.64395	34.52
1.66062	34.52
1.67728	34.52
1.69395	34.52
1.71062	34.52
1.72728	34.52
1.74395	34.52
1.76062	34.52
1.77728	34.52
1.79395	34.52
1.81062	34.52
1.82728	34.51
1.84395	34.52
1.86062	34.52
1.87728	34.52
1.89395	34.52
1.91062	34.52
1.92728	34.52
1.94395	34.52
1.96062	34.52
1.97728	34.52
1.99395	34.52
2.01062	34.52
2.02728	34.52
2.04395	34.52
2.06062	34.52
2.07728	34.52
2.09395	34.52
2.11062	34.52
2.12728	34.52
2.14395	34.52
2.16062	34.52
2.17728	34.52
2.19395	34.52
2.21062	34.52
2.22728	34.51
2.24395	34.52
2.26062	34.52
2.27728	34.52
2.29395	34.52
2.31062	34.52
2.32728	34.52
2.34395	34.52
2.36062	34.52
2.37728	34.51
2.39395	34.52
2.41062	34.52
2.42728	34.52
2.44395	34.52
2.46062	34.52
2.47728	34.52
2.49395	34.52
2.51062	34.51
2.52728	34.52
2.54395	34.52
2.56062	34.52
2.57728	34.52
2.59395	34.52
2.61062	34.52
2.62728	34.52
2.64395	34.51
2.66062	34.52
2.67728	34.52
2.69395	34.52
2.71062	34.52
2.72728	34.52
2.74395	34.52
2.76062	34.52
2.77728	34.52
2.79395	34.52
2.81062	34.52
2.82728	34.52
2.84395	34.52
2.86062	34.52
2.87728	34.52
2.89395	34.52
2.91062	34.52
2.92728	34.53
2.94395	34.52
2.96062	34.52
2.97728	34.51
2.99395	34.53
3.01062	34.52
3.02728	34.52
3.04395	34.52
3.06062	34.52
3.07728	34.51
3.09395	34.51
3.11062	34.53
3.12728	34.52
3.14395	34.51
3.16062	34.52
3.17728	34.52
3.19395	34.52
3.21062	34.51
3.22728	34.52
3.24395	34.52
3.26062	34.52
3.27728	34.52
3.29395	34.52
3.31062	34.52
3.32728	34.52
3.34395	34.52
3.36062	34.52
3.37728	34.52
3.39395	34.52
3.41062	34.52
3.42728	34.52
3.44395	34.52
3.46062	34.52
3.47728	34.52
3.49395	34.52
3.51062	34.52
3.52728	34.52
3.54395	34.52
3.56062	34.52
3.57728	34.52
3.59395	34.52
3.61062	34.52
3.62728	34.52
3.64395	34.52
3.66062	34.52
3.67728	34.52
3.69395	34.52
3.71062	34.52
3.72728	34.52
3.74395	34.52
3.76062	34.52
3.77728	34.52
3.79395	34.52
3.81062	34.52
3.82728	34.51
3.84395	34.52
3.86062	34.52
3.87728	34.52
3.89395	34.52
3.91062	34.52
3.92728	34.52
3.94395	34.52
3.96062	34.52
3.97728	34.52
3.99395	34.52

[Status Trace (Column Flow)]
Interval(msec)	1000
# of Points	240
Start Time(min)	0.011
End Time(min)	3.994
Intensity Units	
Intensity Multiplier	1
R.Time (min)	Intensity
0.01062	5.57
0.02728	5.23
0.04395	5.52
0.06062	5.75
0.07728	5.70
0.09395	5.57
0.11062	5.57
0.12728	5.57
0.14395	5.57
0.16062	5.57
0.17728	5.57
0.19395	5.57
0.21062	5.57
0.22728	5.57
0.24395	5.57
0.26062	5.57
0.27728	5.57
0.29395	5.57
0.31062	5.57
0.32728	5.57
0.34395	5.57
0.36062	5.57
0.37728	5.57
0.39395	5.57
0.41062	5.57
0.42728	5.57
0.44395	5.57
0.46062	5.57
0.47728	5.57
0.49395	5.57
0.51062	5.57
0.52728	5.57
0.54395	5.58
0.56062	5.58
0.57728	5.58
0.59395	5.57
0.61062	5.57
0.62728	5.57
0.64395	5.57
0.66062	5.57
0.67728	5.57
0.69395	5.57
0.71062	5.57
0.72728	5.57
0.74395	5.57
0.76062	5.57
0.77728	5.57
0.79395	5.57
0.81062	5.57
0.82728	5.57
0.84395	5.57
0.86062	5.57
0.87728	5.57
0.89395	5.57
0.91062	5.57
0.92728	5.57
0.94395	5.57
0.96062	5.57
0.97728	5.57
0.99395	5.58
1.01062	5.58
1.02728	5.58
1.04395	5.58
1.06062	5.57
1.07728	5.57
1.09395	5.57
1.11062	5.57
1.12728	5.57
1.14395	5.57
1.16062	5.57
1.17728	5.57
1.19395	5.58
1.21062	5.58
1.22728	5.58
1.24395	5.58
1.26062	5.58
1.27728	5.58
1.29395	5.58
1.31062	5.58
1.32728	5.58
1.34395	5.58
1.36062	5.58
1.37728	5.57
1.39395	5.57
1.41062	5.57
1.42728	5.57
1.44395	5.57
1.46062	5.57
1.47728	5.57
1.49395	5.57
1.51062	5.57
1.52728	5.57
1.54395	5.57
1.56062	5.58
1.57728	5.57
1.59395	5.57
1.61062	5.57
1.62728	5.57
1.64395	5.56
1.66062	5.55
1.67728	5.54
1.69395	5.53
1.71062	5.52
1.72728	5.51
1.74395	5.50
1.76062	5.49
1.77728	5.48
1.79395	5.47
1.81062	5.46
1.82728	5.45
1.84395	5.44
1.86062	5.43
1.87728	5.42
1.89395	5.41
1.91062	5.40
1.92728	5.39
1.94395	5.38
1.96062	5.37
1.97728	5.36
1.99395	5.35
2.01062	5.34
2.02728	5.33
2.04395	5.32
2.06062	5.31
2.07728	5.30
2.09395	5.29
2.11062	5.28
2.12728	5.27
2.14395	5.26
2.16062	5.25
2.17728	5.24
2.19395	5.23
2.21062	5.23
2.22728	5.22
2.24395	5.21
2.26062	5.20
2.27728	5.19
2.29395	5.18
2.31062	5.17
2.32728	5.16
2.34395	5.15
2.36062	5.14
2.37728	5.14
2.39395	5.14
2.41062	5.14
2.42728	5.14
2.44395	5.14
2.46062	5.14
2.47728	5.14
2.49395	5.14
2.51062	5.13
2.52728	5.13
2.54395	5.13
2.56062	5.13
2.57728	5.13
2.59395	5.13
2.61062	5.13
2.62728	5.13
2.64395	5.13
2.66062	5.13
2.67728	5.13
2.69395	5.13
2.71062	5.13
2.72728	5.13
2.74395	5.13
2.76062	5.13
2.77728	5.13
2.79395	5.13
2.81062	5.13
2.82728	5.13
2.84395	5.13
2.86062	5.13
2.87728	5.13
2.89395	5.13
2.91062	5.13
2.92728	5.13
2.94395	5.13
2.96062	5.13
2.97728	5.13
2.99395	5.13
3.01062	5.13
3.02728	5.13
3.04395	5.13
3.06062	5.13
3.07728	5.13
3.09395	5.13
3.11062	5.13
3.12728	5.13
3.14395	5.13
3.16062	5.13
3.17728	5.13
3.19395	5.13
3.21062	5.13
3.22728	5.12
3.24395	5.12
3.26062	5.12
3.27728	5.12
3.29395	5.12
3.31062	5.12
3.32728	5.13
3.34395	5.13
3.36062	5.13
3.37728	5.13
3.39395	5.13
3.41062	5.13
3.42728	5.13
3.44395	5.13
3.46062	5.13
3.47728	5.13
3.49395	5.13
3.51062	5.13
3.52728	5.13
3.54395	5.13
3.56062	5.13
3.57728	5.13
3.59395	5.13
3.61062	5.13
3.62728	5.13
3.64395	5.13
3.66062	5.13
3.67728	5.13
3.69395	5.13
3.71062	5.13
3.72728	5.13
3.74395	5.13
3.76062	5.13
3.77728	5.13
3.79395	5.13
3.81062	5.13
3.82728	5.13
3.84395	5.13
3.86062	5.13
3.87728	5.12
3.89395	5.13
3.91062	5.13
3.92728	5.12
3.94395	5.12
3.96062	5.12
3.97728	5.12
3.99395	5.12

[Status Trace (Linear Velocity)]
Interval(msec)	1000
# of Points	240
Start Time(min)	0.011
End Time(min)	3.994
Intensity Units	
Intensity Multiplier	1
R.Time (min)	Intensity
0.01062	39.03
0.02728	37.10
0.04395	38.71
0.06062	40.02
0.07728	39.74
0.09395	39.03
0.11062	39.02
0.12728	39.03
0.14395	39.03
0.16062	39.03
0.17728	39.03
0.19395	39.03
0.21062	39.03
0.22728	39.03
0.24395	39.03
0.26062	39.03
0.27728	39.03
0.29395	39.03
0.31062	39.03
0.32728	39.03
0.34395	39.03
0.36062	39.03
0.37728	39.03
0.39395	39.03
0.41062	39.03
0.42728	39.03
0.44395	39.03
0.46062	39.03
0.47728	39.03
0.49395	39.03
0.51062	39.03
0.52728	39.03
0.54395	39.03
0.56062	39.03
0.57728	39.03
0.59395	39.03
0.61062	39.03
0.62728	39.03
0.64395	39.03
0.66062	39.03
0.67728	39.03
0.69395	39.03
0.71062	39.03
0.72728	39.03
0.74395	39.03
0.76062	39.03
0.77728	39.03
0.79395	39.03
0.81062	39.03
0.82728	39.03
0.84395	39.03
0.86062	39.03
0.87728	39.03
0.89395	39.03
0.91062	39.03
0.92728	39.03
0.94395	39.03
0.96062	39.03
0.97728	39.03
0.99395	39.03
1.01062	39.03
1.02728	39.03
1.04395	39.03
1.06062	39.03
1.07728	39.03
1.09395	39.03
1.11062	39.03
1.12728	39.03
1.14395	39.03
1.16062	39.03
1.17728	39.03
1.19395	39.03
1.21062	39.03
1.22728	39.03
1.24395	39.03
1.26062	39.03
1.27728	39.03
1.29395	39.03
1.31062	39.03
1.32728	39.03
1.34395	39.03
1.36062	39.03
1.37728	39.03
1.39395	39.03
1.41062	39.03
1.42728	39.03
1.44395	39.03
1.46062	39.03
1.47728	39.03
1.49395	39.03
1.51062	39.03
1.52728	39.03
1.54395	39.03
1.56062	39.03
1.57728	39.03
1.59395	39.03
1.61062	39.02
1.62728	39.01
1.64395	38.99
1.66062	38.97
1.67728	38.93
1.69395	38.90
1.71062	38.87
1.72728	38.83
1.74395	38.80
1.76062	38.77
1.77728	38.74
1.79395	38.71
1.81062	38.68
1.82728	38.64
1.84395	38.61
1.86062	38.58
1.87728	38.55
1.89395	38.52
1.91062	38.49
1.92728	38.46
1.94395	38.43
1.96062	38.40
1.97728	38.37
1.99395	38.34
2.01062	38.31
2.02728	38.28
2.04395	38.25
2.06062	38.22
2.07728	38.19
2.09395	38.16
2.11062	38.13
2.12728	38.10
2.14395	38.07
2.16062	38.04
2.17728	38.01
2.19395	37.98
2.21062	37.96
2.22728	37.92
2.24395	37.89
2.26062	37.86
2.27728	37.83
2.29395	37.80
2.31062	37.78
2.32728	37.74
2.34395	37.72
2.36062	37.69
2.37728	37.67
2.39395	37.67
2.41062	37.67
2.42728	37.67
2.44395	37.67
2.46062	37.67
2.47728	37.67
2.49395	37.67
2.51062	37.67
2.52728	37.66
2.54395	37.67
2.56062	37.67
2.57728	37.67
2.59395	37.66
2.61062	37.66
2.62728	37.66
2.64395	37.66
2.66062	37.66
2.67728	37.66
2.69395	37.66
2.71062	37.66
2.72728	37.66
2.74395	37.65
2.76062	37.66
2.77728	37.66
2.79395	37.66
2.81062	37.66
2.82728	37.65
2.84395	37.65
2.86062	37.65
2.87728	37.65
2.89395	37.65
2.91062	37.65
2.92728	37.65
2.94395	37.65
2.96062	37.65
2.97728	37.65
2.99395	37.65
3.01062	37.65
3.02728	37.65
3.04395	37.65
3.06062	37.64
3.07728	37.64
3.09395	37.64
3.11062	37.64
3.12728	37.64
3.14395	37.64
3.16062	37.64
3.17728	37.64
3.19395	37.64
3.21062	37.64
3.22728	37.64
3.24395	37.63
3.26062	37.63
3.27728	37.63
3.29395	37.64
3.31062	37.64
3.32728	37.64
3.34395	37.64
3.36062	37.64
3.37728	37.64
3.39395	37.64
3.41062	37.64
3.42728	37.64
3.44395	37.64
3.46062	37.64
3.47728	37.64
3.49395	37.64
3.51062	37.64
3.52728	37.64
3.54395	37.64
3.56062	37.64
3.57728	37.64
3.59395	37.64
3.61062	37.64
3.62728	37.64
3.64395	37.64
3.66062	37.64
3.67728	37.64
3.69395	37.64
3.71062	37.64
3.72728	37.64
3.74395	37.64
3.76062	37.64
3.77728	37.64
3.79395	37.64
3.81062	37.64
3.82728	37.64
3.84395	37.64
3.86062	37.64
3.87728	37.64
3.89395	37.64
3.91062	37.64
3.92728	37.64
3.94395	37.64
3.96062	37.64
3.97728	37.64
3.99395	37.64

