[Header]
Application Name	LabSolutions
Version	5.110
Data File Name	C:\Users\User\Desktop\GC Analyses\Jack\Nachusa Grasslands Sampling\T0 Timepoint July 12th\T0_07122022_007.gcd
Output Date	3/14/2023
Output Time	3:40:34 PM

[File Information]
Type	Data File
Generated	3/7/2023 2:27:39 PM
Generated by	System Administrator
Modified	3/7/2023 2:34:11 PM
Modified by	System Administrator

[Sample Information]
Operator Name	System Administrator
Acquired	3/7/2023 2:30:10 PM
Sample Type	0:Unknown
Level	0
Sample Name	007
Sample ID	007
ISTD Amount1	1
ISTD Amount2	1
ISTD Amount3	1
ISTD Amount4	1
ISTD Amount5	1
ISTD Amount6	1
ISTD Amount7	1
ISTD Amount8	1
ISTD Amount9	1
ISTD Amount10	1
ISTD Amount11	1
ISTD Amount12	1
ISTD Amount13	1
ISTD Amount14	1
ISTD Amount15	1
ISTD Amount16	1
ISTD Amount17	1
ISTD Amount18	1
ISTD Amount19	1
ISTD Amount20	1
ISTD Amount21	1
ISTD Amount22	1
ISTD Amount23	1
ISTD Amount24	1
ISTD Amount25	1
ISTD Amount26	1
ISTD Amount27	1
ISTD Amount28	1
ISTD Amount29	1
ISTD Amount30	1
ISTD Amount31	1
ISTD Amount32	1
Sample Amount	1
Dilution Factor	1
Vial#	6
Injection Volume	1
Injection Count	1
Bar Code	

[Original Files]
Data File	C:\Users\User\Desktop\GC Analyses\Jack\Nachusa Grasslands Sampling\T0 Timepoint July 12th\T0_07122022_007.gcd
Method File	C:\LabSolutions\Data\GHG_4min_2022\ghg3_togas_w_acet_4 min_new_int.gcm
Batch File	C:\LabSolutions\Data\AutoSamplerTesting\T0_07122022.gcb
Report Format File	c:\LabSolutions\System\DEFAULT.lsr

[File Description]


[Configuration]
Instrument Name	C0B7VH3-Instrument1
Instrument #	1
Line #	1
# of Detectors	3
Detector ID	DET#1	DET#2	DET#3
Detector Name	FID	PTCD	ECD
# of Channels	1	1	1

[Peak Table(Ch1)]
# of Peaks	4
Peak#	R.Time	I.Time	F.Time	Area	Height	A/H	Conc.	Mark	ID#	Name	k'	Plate #	Plate Ht.	Tailing	Resolution	Sep.Factor	Area Ratio	Height Ratio	Conc. %	Norm Conc.
1	1.476	1.439	1.538	27164	12772	2.127	191.778	   	1	CO	0.000	9113	16.460	1.362	0.000	0.000	0	0	33.681	33.681
2	1.571	1.538	1.622	4746	2308	2.057	91.766	 V 	2	CH4	0.065	10583	14.173	0.000	1.551	0.000	0	0	16.116	16.116
3	1.996	1.952	2.418	1138973	535034	2.129	285.851	   	3	CO2	0.353	17297	8.672	1.334	6.984	5.462	0	0	50.203	50.203
4	3.181	2.788	3.742	3500	102	34.278	0.000	   	5	Acetylene	1.155	440	340.801	1.218	3.550	3.275	0	0	0.000	0.000

[Peak Table(Ch2)]
# of Peaks	0

[Peak Table(Ch3)]
# of Peaks	5
Peak#	R.Time	I.Time	F.Time	Area	Height	A/H	Conc.	Mark	ID#	Name	k'	Plate #	Plate Ht.	Tailing	Resolution	Sep.Factor	Area Ratio	Height Ratio	Conc. %	Norm Conc.
1	2.462	2.319	2.524	1322	298	4.432	0.000	   			0.000	4786	31.341	0.000	0.000	0.000	0	0	0.000	0.000
2	2.554	2.524	2.638	954	195	4.888	0.000	 V 			0.037	1995	75.171	0.000	0.494	0.000	0	0	0.000	0.000
3	2.737	2.653	2.814	937	122	7.666	0.024	   	1	N2O	0.112	1230	121.993	0.000	0.678	3.000	0	0	4.830	4.830
4	2.873	2.814	3.162	18466	4791	3.854	0.472	 V 	1	N2O	0.167	13337	11.247	1.620	0.659	1.493	0	0	95.170	95.170
5	3.375	3.243	3.962	11195	506	22.140	0.000	   	2	SF6	0.371	557	269.130	2.620	1.497	2.223	0	0	0.000	0.000

[Compound Results(Ch1)]
# of IDs	6
ID#	Name	R.Time	Area	Height	Conc.	Curve	3rd	2nd	1st	Constant	Area Ratio	Height Ratio	Conc. %	Norm Conc.
1	CO	1.476	27164	12772	191.778	Linear	0.000000e+00	0.000000e+00	1.416423e+002	0.000000e+00	0	0	33.681	33.681
2	CH4	1.571	4746	2308	91.766	Linear	0.000000e+00	0.000000e+00	5.171738e+001	0.000000e+00	0	0	16.116	16.116
3	CO2	1.996	1138973	535034	285.851	Linear	0.000000e+00	0.000000e+00	3.984494e+003	0.000000e+00	0	0	50.203	50.203
4	Ethylene	0.000	0	0	0.000	Linear	0.000000e+00	0.000000e+00	0.000000e+00	0.000000e+00	0	0	0.000	0.000
5	Acetylene	3.181	3500	102	0.000	Linear	0.000000e+00	0.000000e+00	0.000000e+00	0.000000e+00	0	0	0.000	0.000
6	Ethane	0.000	0	0	0.000	Linear	0.000000e+00	0.000000e+00	0.000000e+00	0.000000e+00	0	0	0.000	0.000

[Compound Results(Ch2)]
# of IDs	5
ID#	Name	R.Time	Area	Height	Conc.	Curve	3rd	2nd	1st	Constant	Area Ratio	Height Ratio	Conc. %	Norm Conc.
1	Hydrogen	0.000	0	0	0.000	Linear	0.000000e+00	0.000000e+00	0.000000e+00	0.000000e+00	0	0	0.000	0.000
2	Oxygen	0.000	0	0	0.000	Linear	0.000000e+00	0.000000e+00	0.000000e+00	0.000000e+00	0	0	0.000	0.000
3	Nitrogen	0.000	0	0	0.000	Linear	0.000000e+00	0.000000e+00	0.000000e+00	0.000000e+00	0	0	0.000	0.000
4	Methane	0.000	0	0	0.000	Linear	0.000000e+00	0.000000e+00	0.000000e+00	0.000000e+00	0	0	0.000	0.000
5	Carbon Monoxide	0.000	0	0	0.000	Linear	0.000000e+00	0.000000e+00	0.000000e+00	0.000000e+00	0	0	0.000	0.000

[Compound Results(Ch3)]
# of IDs	2
ID#	Name	R.Time	Area	Height	Conc.	Curve	3rd	2nd	1st	Constant	Area Ratio	Height Ratio	Conc. %	Norm Conc.
1	N2O	2.873	19404	4914	0.496	Linear	0.000000e+00	0.000000e+00	3.915173e+004	0.000000e+00	0	0	100.000	100.000
2	SF6	3.375	11195	506	0.000	Linear	0.000000e+00	0.000000e+00	0.000000e+00	0.000000e+00	0	0	0.000	0.000

[Group Results(Ch1)]
# of Groups	0

[Group Results(Ch2)]
# of Groups	0

[Group Results(Ch3)]
# of Groups	0

[Chromatogram (Ch1)]
Interval(msec)	220
# of Points	1091
Start Time(min)	0.002
End Time(min)	3.998
R.Time (min)	Intensity
0.00167	-24
0.00533	-20
0.00900	-11
0.01267	-3
0.01633	1
0.02000	3
0.02367	7
0.02733	12
0.03100	15
0.03467	19
0.03833	22
0.04200	22
0.04567	17
0.04933	8
0.05300	3
0.05667	4
0.06033	8
0.06400	9
0.06767	7
0.07133	3
0.07500	-2
0.07867	-1
0.08233	4
0.08600	15
0.08967	24
0.09333	31
0.09700	34
0.10067	35
0.10433	36
0.10800	35
0.11167	30
0.11533	21
0.11900	9
0.12267	-4
0.12633	-13
0.13000	-20
0.13367	-21
0.13733	-18
0.14100	-14
0.14467	-11
0.14833	-9
0.15200	-4
0.15567	1
0.15933	1
0.16300	-1
0.16667	-3
0.17033	-2
0.17400	0
0.17767	3
0.18133	5
0.18500	9
0.18867	11
0.19233	10
0.19600	10
0.19967	12
0.20333	16
0.20700	17
0.21067	16
0.21433	14
0.21800	13
0.22167	14
0.22533	17
0.22900	21
0.23267	27
0.23633	32
0.24000	29
0.24367	18
0.24733	5
0.25100	-3
0.25467	-6
0.25833	-7
0.26200	-8
0.26567	-8
0.26933	-8
0.27300	-11
0.27667	-19
0.28033	-25
0.28400	-27
0.28767	-26
0.29133	-24
0.29500	-20
0.29867	-12
0.30233	-7
0.30600	-4
0.30967	-4
0.31333	-4
0.31700	-4
0.32067	-5
0.32433	-8
0.32800	-13
0.33167	-16
0.33533	-17
0.33900	-16
0.34267	-17
0.34633	-18
0.35000	-17
0.35367	-11
0.35733	-4
0.36100	4
0.36467	12
0.36833	17
0.37200	18
0.37567	13
0.37933	6
0.38300	1
0.38667	-2
0.39033	-3
0.39400	-1
0.39767	7
0.40133	18
0.40500	25
0.40867	26
0.41233	24
0.41600	20
0.41967	20
0.42333	23
0.42700	29
0.43067	38
0.43433	45
0.43800	48
0.44167	46
0.44533	40
0.44900	29
0.45267	18
0.45633	11
0.46000	8
0.46367	7
0.46733	8
0.47100	9
0.47467	10
0.47833	10
0.48200	12
0.48567	11
0.48933	6
0.49300	-2
0.49667	-10
0.50033	-15
0.50400	-15
0.50767	-8
0.51133	-2
0.51500	-1
0.51867	-5
0.52233	-7
0.52600	-8
0.52967	-9
0.53333	-8
0.53700	-7
0.54067	-8
0.54433	-9
0.54800	-11
0.55167	-13
0.55533	-15
0.55900	-16
0.56267	-18
0.56633	-20
0.57000	-21
0.57367	-20
0.57733	-18
0.58100	-17
0.58467	-16
0.58833	-13
0.59200	-9
0.59567	-4
0.59933	-1
0.60300	-2
0.60667	-8
0.61033	-17
0.61400	-22
0.61767	-27
0.62133	-30
0.62500	-30
0.62867	-29
0.63233	-27
0.63600	-22
0.63967	-16
0.64333	-14
0.64700	-15
0.65067	-15
0.65433	-11
0.65800	-6
0.66167	-7
0.66533	-12
0.66900	-18
0.67267	-23
0.67633	-25
0.68000	-22
0.68367	-18
0.68733	-15
0.69100	-16
0.69467	-20
0.69833	-26
0.70200	-28
0.70567	-27
0.70933	-24
0.71300	-19
0.71667	-15
0.72033	-15
0.72400	-19
0.72767	-24
0.73133	-31
0.73500	-36
0.73867	-39
0.74233	-43
0.74600	-46
0.74967	-46
0.75333	-44
0.75700	-40
0.76067	-34
0.76433	-29
0.76800	-25
0.77167	-23
0.77533	-23
0.77900	-28
0.78267	-31
0.78633	-30
0.79000	-24
0.79367	-13
0.79733	-4
0.80100	0
0.80467	-4
0.80833	-13
0.81200	-24
0.81567	-36
0.81933	-48
0.82300	-56
0.82667	-56
0.83033	-53
0.83400	-46
0.83767	-39
0.84133	-36
0.84500	-35
0.84867	-32
0.85233	-30
0.85600	-31
0.85967	-33
0.86333	-35
0.86700	-33
0.87067	-28
0.87433	-23
0.87800	-19
0.88167	-18
0.88533	-22
0.88900	-29
0.89267	-37
0.89633	-45
0.90000	-51
0.90367	-51
0.90733	-48
0.91100	-41
0.91467	-34
0.91833	-34
0.92200	-36
0.92567	-40
0.92933	-42
0.93300	-42
0.93667	-39
0.94033	-35
0.94400	-33
0.94767	-30
0.95133	-27
0.95500	-27
0.95867	-33
0.96233	-41
0.96600	-45
0.96967	-45
0.97333	-41
0.97700	-35
0.98067	-31
0.98433	-30
0.98800	-33
0.99167	-40
0.99533	-42
0.99900	-42
1.00267	-41
1.00633	-42
1.01000	-44
1.01367	-47
1.01733	-51
1.02100	-51
1.02467	-50
1.02833	-49
1.03200	-46
1.03567	-42
1.03933	-38
1.04300	-39
1.04667	-44
1.05033	-49
1.05400	-54
1.05767	-58
1.06133	-62
1.06500	-64
1.06867	-63
1.07233	-61
1.07600	-60
1.07967	-58
1.08333	-58
1.08700	-58
1.09067	-56
1.09433	-51
1.09800	-47
1.10167	-45
1.10533	-44
1.10900	-46
1.11267	-52
1.11633	-60
1.12000	-67
1.12367	-67
1.12733	-65
1.13100	-61
1.13467	-56
1.13833	-54
1.14200	-53
1.14567	-54
1.14933	-56
1.15300	-56
1.15667	-54
1.16033	-49
1.16400	-42
1.16767	-40
1.17133	-42
1.17500	-47
1.17867	-56
1.18233	-66
1.18600	-73
1.18967	-74
1.19333	-72
1.19700	-68
1.20067	-66
1.20433	-66
1.20800	-67
1.21167	-67
1.21533	-63
1.21900	-61
1.22267	-61
1.22633	-63
1.23000	-61
1.23367	-58
1.23733	-55
1.24100	-52
1.24467	-51
1.24833	-51
1.25200	-53
1.25567	-53
1.25933	-49
1.26300	-44
1.26667	-43
1.27033	-47
1.27400	-51
1.27767	-54
1.28133	-58
1.28500	-63
1.28867	-69
1.29233	-75
1.29600	-80
1.29967	-83
1.30333	-83
1.30700	-80
1.31067	-72
1.31433	-63
1.31800	-57
1.32167	-55
1.32533	-57
1.32900	-58
1.33267	-60
1.33633	-63
1.34000	-65
1.34367	-67
1.34733	-72
1.35100	-74
1.35467	-69
1.35833	-66
1.36200	-64
1.36567	-58
1.36933	-48
1.37300	-39
1.37667	-36
1.38033	-40
1.38400	-53
1.38767	-67
1.39133	-75
1.39500	-79
1.39867	-83
1.40233	-88
1.40600	-95
1.40967	-102
1.41333	-105
1.41700	-103
1.42067	-97
1.42433	-91
1.42800	-86
1.43167	-85
1.43533	-85
1.43900	-74
1.44267	-13
1.44633	174
1.45000	662
1.45367	1826
1.45733	3823
1.46100	6279
1.46467	8659
1.46833	10621
1.47200	12008
1.47567	12707
1.47933	12600
1.48300	11663
1.48667	10068
1.49033	8152
1.49400	6263
1.49767	4633
1.50133	3345
1.50500	2388
1.50867	1701
1.51233	1215
1.51600	880
1.51967	649
1.52333	488
1.52700	377
1.53067	303
1.53433	248
1.53800	211
1.54167	226
1.54533	359
1.54900	645
1.55267	1044
1.55633	1463
1.56000	1830
1.56367	2105
1.56733	2261
1.57100	2265
1.57467	2098
1.57833	1792
1.58200	1421
1.58567	1059
1.58933	751
1.59300	513
1.59667	337
1.60033	212
1.60400	123
1.60767	60
1.61133	17
1.61500	-9
1.61867	-23
1.62233	-31
1.62600	-33
1.62967	-33
1.63333	-35
1.63700	-41
1.64067	-47
1.64433	-50
1.64800	-52
1.65167	-51
1.65533	-47
1.65900	-42
1.66267	-40
1.66633	-43
1.67000	-50
1.67367	-57
1.67733	-60
1.68100	-60
1.68467	-62
1.68833	-65
1.69200	-70
1.69567	-75
1.69933	-79
1.70300	-83
1.70667	-81
1.71033	-77
1.71400	-72
1.71767	-67
1.72133	-66
1.72500	-68
1.72867	-72
1.73233	-75
1.73600	-78
1.73967	-80
1.74333	-86
1.74700	-92
1.75067	-95
1.75433	-94
1.75800	-92
1.76167	-92
1.76533	-94
1.76900	-95
1.77267	-93
1.77633	-88
1.78000	-82
1.78367	-76
1.78733	-71
1.79100	-66
1.79467	-62
1.79833	-61
1.80200	-61
1.80567	-62
1.80933	-62
1.81300	-65
1.81667	-69
1.82033	-73
1.82400	-80
1.82767	-83
1.83133	-81
1.83500	-77
1.83867	-75
1.84233	-76
1.84600	-79
1.84967	-80
1.85333	-81
1.85700	-84
1.86067	-89
1.86433	-93
1.86800	-93
1.87167	-89
1.87533	-81
1.87900	-77
1.88267	-78
1.88633	-82
1.89000	-89
1.89367	-95
1.89733	-99
1.90100	-101
1.90467	-101
1.90833	-103
1.91200	-106
1.91567	-105
1.91933	-99
1.92300	-90
1.92667	-79
1.93033	-73
1.93400	-70
1.93767	-73
1.94133	-80
1.94500	-85
1.94867	-85
1.95233	-72
1.95600	11
1.95967	472
1.96333	2578
1.96700	10001
1.97067	29994
1.97433	71829
1.97800	140957
1.98167	232979
1.98533	334072
1.98900	427164
1.99267	497567
1.99633	534995
2.00000	534540
2.00367	497622
2.00733	432917
2.01100	353907
2.01467	274246
2.01833	203674
2.02200	146709
2.02567	103703
2.02933	72722
2.03300	51090
2.03667	36277
2.04033	26233
2.04400	19434
2.04767	14808
2.05133	11625
2.05500	9395
2.05867	7800
2.06233	6632
2.06600	5754
2.06967	5078
2.07333	4544
2.07700	4106
2.08067	3741
2.08433	3432
2.08800	3166
2.09167	2937
2.09533	2739
2.09900	2565
2.10267	2411
2.10633	2273
2.11000	2145
2.11367	2027
2.11733	1922
2.12100	1831
2.12467	1754
2.12833	1682
2.13200	1613
2.13567	1550
2.13933	1491
2.14300	1433
2.14667	1377
2.15033	1322
2.15400	1268
2.15767	1215
2.16133	1165
2.16500	1122
2.16867	1087
2.17233	1054
2.17600	1023
2.17967	989
2.18333	955
2.18700	923
2.19067	891
2.19433	860
2.19800	831
2.20167	807
2.20533	787
2.20900	768
2.21267	750
2.21633	733
2.22000	715
2.22367	695
2.22733	675
2.23100	659
2.23467	645
2.23833	628
2.24200	611
2.24567	597
2.24933	587
2.25300	581
2.25667	576
2.26033	567
2.26400	553
2.26767	537
2.27133	522
2.27500	510
2.27867	496
2.28233	483
2.28600	473
2.28967	465
2.29333	457
2.29700	449
2.30067	441
2.30433	437
2.30800	438
2.31167	437
2.31533	430
2.31900	421
2.32267	411
2.32633	402
2.33000	394
2.33367	386
2.33733	375
2.34100	363
2.34467	352
2.34833	347
2.35200	349
2.35567	353
2.35933	357
2.36300	356
2.36667	351
2.37033	345
2.37400	337
2.37767	327
2.38133	317
2.38500	308
2.38867	301
2.39233	300
2.39600	305
2.39967	311
2.40333	310
2.40700	303
2.41067	293
2.41433	284
2.41800	276
2.42167	272
2.42533	271
2.42900	270
2.43267	272
2.43633	276
2.44000	282
2.44367	287
2.44733	291
2.45100	291
2.45467	287
2.45833	279
2.46200	270
2.46567	262
2.46933	260
2.47300	261
2.47667	263
2.48033	266
2.48400	268
2.48767	269
2.49133	268
2.49500	266
2.49867	263
2.50233	257
2.50600	249
2.50967	241
2.51333	236
2.51700	234
2.52067	233
2.52433	232
2.52800	229
2.53167	228
2.53533	232
2.53900	240
2.54267	248
2.54633	251
2.55000	248
2.55367	240
2.55733	231
2.56100	225
2.56467	224
2.56833	225
2.57200	223
2.57567	220
2.57933	217
2.58300	215
2.58667	219
2.59033	227
2.59400	235
2.59767	240
2.60133	239
2.60500	237
2.60867	233
2.61233	226
2.61600	219
2.61967	216
2.62333	219
2.62700	225
2.63067	231
2.63433	237
2.63800	239
2.64167	237
2.64533	232
2.64900	224
2.65267	219
2.65633	218
2.66000	216
2.66367	213
2.66733	215
2.67100	218
2.67467	223
2.67833	230
2.68200	237
2.68567	242
2.68933	244
2.69300	242
2.69667	234
2.70033	227
2.70400	221
2.70767	218
2.71133	221
2.71500	226
2.71867	229
2.72233	229
2.72600	228
2.72967	227
2.73333	226
2.73700	228
2.74067	228
2.74433	229
2.74800	234
2.75167	246
2.75533	257
2.75900	256
2.76267	247
2.76633	233
2.77000	221
2.77367	217
2.77733	219
2.78100	224
2.78467	227
2.78833	231
2.79200	236
2.79567	245
2.79933	260
2.80300	274
2.80667	284
2.81033	287
2.81400	284
2.81767	279
2.82133	277
2.82500	279
2.82867	278
2.83233	278
2.83600	279
2.83967	279
2.84333	279
2.84700	277
2.85067	279
2.85433	284
2.85800	290
2.86167	297
2.86533	303
2.86900	306
2.87267	304
2.87633	299
2.88000	292
2.88367	286
2.88733	286
2.89100	290
2.89467	297
2.89833	302
2.90200	305
2.90567	305
2.90933	304
2.91300	303
2.91667	303
2.92033	304
2.92400	306
2.92767	310
2.93133	312
2.93500	313
2.93867	316
2.94233	321
2.94600	327
2.94967	328
2.95333	325
2.95700	322
2.96067	318
2.96433	318
2.96800	321
2.97167	321
2.97533	320
2.97900	321
2.98267	323
2.98633	323
2.99000	323
2.99367	324
2.99733	324
3.00100	322
3.00467	320
3.00833	318
3.01200	317
3.01567	318
3.01933	319
3.02300	320
3.02667	316
3.03033	311
3.03400	312
3.03767	318
3.04133	324
3.04500	323
3.04867	319
3.05233	313
3.05600	307
3.05967	304
3.06333	306
3.06700	311
3.07067	316
3.07433	317
3.07800	317
3.08167	317
3.08533	318
3.08900	318
3.09267	319
3.09633	323
3.10000	325
3.10367	327
3.10733	327
3.11100	327
3.11467	326
3.11833	326
3.12200	327
3.12567	330
3.12933	333
3.13300	332
3.13667	333
3.14033	338
3.14400	342
3.14767	341
3.15133	336
3.15500	333
3.15867	332
3.16233	332
3.16600	331
3.16967	330
3.17333	334
3.17700	340
3.18067	345
3.18433	344
3.18800	340
3.19167	333
3.19533	326
3.19900	322
3.20267	316
3.20633	311
3.21000	309
3.21367	311
3.21733	313
3.22100	315
3.22467	319
3.22833	323
3.23200	328
3.23567	331
3.23933	332
3.24300	329
3.24667	325
3.25033	325
3.25400	326
3.25767	325
3.26133	325
3.26500	325
3.26867	325
3.27233	323
3.27600	321
3.27967	322
3.28333	325
3.28700	328
3.29067	330
3.29433	331
3.29800	329
3.30167	327
3.30533	323
3.30900	321
3.31267	322
3.31633	326
3.32000	328
3.32367	326
3.32733	320
3.33100	314
3.33467	307
3.33833	306
3.34200	308
3.34567	310
3.34933	311
3.35300	311
3.35667	311
3.36033	309
3.36400	307
3.36767	307
3.37133	312
3.37500	320
3.37867	325
3.38233	327
3.38600	327
3.38967	325
3.39333	321
3.39700	316
3.40067	311
3.40433	310
3.40800	311
3.41167	315
3.41533	325
3.41900	336
3.42267	346
3.42633	351
3.43000	346
3.43367	335
3.43733	322
3.44100	311
3.44467	306
3.44833	302
3.45200	300
3.45567	299
3.45933	298
3.46300	293
3.46667	289
3.47033	287
3.47400	285
3.47767	286
3.48133	288
3.48500	288
3.48867	287
3.49233	286
3.49600	289
3.49967	292
3.50333	294
3.50700	295
3.51067	297
3.51433	301
3.51800	306
3.52167	308
3.52533	308
3.52900	309
3.53267	310
3.53633	308
3.54000	302
3.54367	294
3.54733	290
3.55100	292
3.55467	296
3.55833	299
3.56200	304
3.56567	310
3.56933	311
3.57300	307
3.57667	299
3.58033	288
3.58400	276
3.58767	268
3.59133	265
3.59500	268
3.59867	275
3.60233	280
3.60600	285
3.60967	288
3.61333	288
3.61700	291
3.62067	294
3.62433	296
3.62800	296
3.63167	294
3.63533	290
3.63900	286
3.64267	281
3.64633	278
3.65000	276
3.65367	277
3.65733	279
3.66100	284
3.66467	286
3.66833	285
3.67200	285
3.67567	289
3.67933	296
3.68300	299
3.68667	298
3.69033	295
3.69400	288
3.69767	278
3.70133	272
3.70500	270
3.70867	271
3.71233	271
3.71600	271
3.71967	272
3.72333	275
3.72700	278
3.73067	278
3.73433	273
3.73800	267
3.74167	260
3.74533	251
3.74900	246
3.75267	248
3.75633	254
3.76000	264
3.76367	271
3.76733	272
3.77100	269
3.77467	266
3.77833	261
3.78200	255
3.78567	250
3.78933	247
3.79300	247
3.79667	251
3.80033	260
3.80400	273
3.80767	286
3.81133	291
3.81500	285
3.81867	275
3.82233	268
3.82600	264
3.82967	260
3.83333	259
3.83700	257
3.84067	254
3.84433	251
3.84800	251
3.85167	255
3.85533	258
3.85900	259
3.86267	261
3.86633	264
3.87000	264
3.87367	260
3.87733	255
3.88100	251
3.88467	247
3.88833	242
3.89200	239
3.89567	235
3.89933	234
3.90300	234
3.90667	234
3.91033	233
3.91400	232
3.91767	228
3.92133	225
3.92500	226
3.92867	229
3.93233	231
3.93600	231
3.93967	231
3.94333	233
3.94700	237
3.95067	240
3.95433	243
3.95800	244
3.96167	248
3.96533	255
3.96900	257
3.97267	252
3.97633	248
3.98000	247
3.98367	245
3.98733	242
3.99100	240
3.99467	240
3.99833	239

[Chromatogram (Ch2)]
Interval(msec)	220
# of Points	1091
Start Time(min)	0.002
End Time(min)	3.998
R.Time (min)	Intensity
0.00167	1
0.00533	1
0.00900	1
0.01267	1
0.01633	1
0.02000	0
0.02367	1
0.02733	1
0.03100	1
0.03467	0
0.03833	0
0.04200	0
0.04567	0
0.04933	0
0.05300	0
0.05667	1
0.06033	1
0.06400	0
0.06767	0
0.07133	-0
0.07500	-0
0.07867	-0
0.08233	-0
0.08600	-0
0.08967	-0
0.09333	-0
0.09700	0
0.10067	1
0.10433	1
0.10800	2
0.11167	2
0.11533	3
0.11900	3
0.12267	3
0.12633	4
0.13000	4
0.13367	3
0.13733	3
0.14100	3
0.14467	2
0.14833	2
0.15200	2
0.15567	2
0.15933	2
0.16300	2
0.16667	2
0.17033	2
0.17400	2
0.17767	3
0.18133	3
0.18500	3
0.18867	3
0.19233	3
0.19600	2
0.19967	2
0.20333	2
0.20700	2
0.21067	1
0.21433	1
0.21800	1
0.22167	0
0.22533	-0
0.22900	-1
0.23267	-2
0.23633	-2
0.24000	-3
0.24367	-3
0.24733	-3
0.25100	-3
0.25467	-3
0.25833	-2
0.26200	-2
0.26567	-2
0.26933	-2
0.27300	-2
0.27667	-2
0.28033	-1
0.28400	-1
0.28767	-1
0.29133	-1
0.29500	-0
0.29867	0
0.30233	1
0.30600	1
0.30967	2
0.31333	2
0.31700	1
0.32067	1
0.32433	1
0.32800	1
0.33167	0
0.33533	0
0.33900	-0
0.34267	-0
0.34633	-0
0.35000	-0
0.35367	-0
0.35733	-0
0.36100	-0
0.36467	0
0.36833	0
0.37200	0
0.37567	-0
0.37933	-0
0.38300	-1
0.38667	-1
0.39033	-1
0.39400	-2
0.39767	-2
0.40133	-2
0.40500	-2
0.40867	-2
0.41233	-2
0.41600	-2
0.41967	-2
0.42333	-2
0.42700	-1
0.43067	-1
0.43433	-0
0.43800	-0
0.44167	0
0.44533	0
0.44900	0
0.45267	1
0.45633	1
0.46000	1
0.46367	1
0.46733	1
0.47100	1
0.47467	1
0.47833	1
0.48200	1
0.48567	1
0.48933	1
0.49300	1
0.49667	1
0.50033	1
0.50400	1
0.50767	1
0.51133	1
0.51500	1
0.51867	1
0.52233	1
0.52600	1
0.52967	1
0.53333	1
0.53700	1
0.54067	2
0.54433	2
0.54800	2
0.55167	2
0.55533	2
0.55900	2
0.56267	2
0.56633	2
0.57000	2
0.57367	2
0.57733	2
0.58100	2
0.58467	2
0.58833	2
0.59200	2
0.59567	2
0.59933	2
0.60300	1
0.60667	1
0.61033	1
0.61400	1
0.61767	1
0.62133	1
0.62500	1
0.62867	0
0.63233	0
0.63600	0
0.63967	-0
0.64333	-0
0.64700	0
0.65067	0
0.65433	1
0.65800	1
0.66167	2
0.66533	2
0.66900	2
0.67267	1
0.67633	1
0.68000	1
0.68367	0
0.68733	-0
0.69100	-0
0.69467	-0
0.69833	-0
0.70200	0
0.70567	0
0.70933	-0
0.71300	-0
0.71667	-0
0.72033	-0
0.72400	-0
0.72767	-0
0.73133	0
0.73500	1
0.73867	1
0.74233	1
0.74600	1
0.74967	1
0.75333	1
0.75700	1
0.76067	1
0.76433	0
0.76800	0
0.77167	0
0.77533	1
0.77900	1
0.78267	1
0.78633	1
0.79000	1
0.79367	1
0.79733	2
0.80100	2
0.80467	2
0.80833	2
0.81200	2
0.81567	2
0.81933	2
0.82300	2
0.82667	2
0.83033	2
0.83400	1
0.83767	1
0.84133	1
0.84500	1
0.84867	0
0.85233	0
0.85600	0
0.85967	-0
0.86333	-0
0.86700	-1
0.87067	-1
0.87433	-1
0.87800	-2
0.88167	-2
0.88533	-3
0.88900	-3
0.89267	-3
0.89633	-4
0.90000	-4
0.90367	-4
0.90733	-4
0.91100	-3
0.91467	-3
0.91833	-2
0.92200	-2
0.92567	-2
0.92933	-2
0.93300	-2
0.93667	-2
0.94033	-1
0.94400	-1
0.94767	-1
0.95133	-0
0.95500	0
0.95867	0
0.96233	1
0.96600	1
0.96967	1
0.97333	1
0.97700	2
0.98067	2
0.98433	2
0.98800	2
0.99167	1
0.99533	1
0.99900	1
1.00267	2
1.00633	2
1.01000	1
1.01367	1
1.01733	1
1.02100	1
1.02467	1
1.02833	1
1.03200	1
1.03567	1
1.03933	1
1.04300	1
1.04667	1
1.05033	0
1.05400	0
1.05767	-0
1.06133	-1
1.06500	-1
1.06867	-2
1.07233	-2
1.07600	-2
1.07967	-3
1.08333	-3
1.08700	-3
1.09067	-3
1.09433	-3
1.09800	-3
1.10167	-3
1.10533	-3
1.10900	-3
1.11267	-2
1.11633	-2
1.12000	-1
1.12367	-1
1.12733	-1
1.13100	-0
1.13467	-0
1.13833	-0
1.14200	0
1.14567	0
1.14933	-0
1.15300	-0
1.15667	-1
1.16033	-1
1.16400	-1
1.16767	-0
1.17133	-0
1.17500	-0
1.17867	-1
1.18233	-1
1.18600	-1
1.18967	-1
1.19333	-1
1.19700	-1
1.20067	-1
1.20433	-1
1.20800	-1
1.21167	-1
1.21533	-1
1.21900	-1
1.22267	-2
1.22633	-2
1.23000	-2
1.23367	-2
1.23733	-2
1.24100	-1
1.24467	-1
1.24833	-1
1.25200	-1
1.25567	-1
1.25933	-1
1.26300	-1
1.26667	-1
1.27033	-2
1.27400	-2
1.27767	-2
1.28133	-3
1.28500	-3
1.28867	-3
1.29233	-3
1.29600	-3
1.29967	-3
1.30333	-3
1.30700	-3
1.31067	-2
1.31433	-2
1.31800	-2
1.32167	-1
1.32533	-1
1.32900	-1
1.33267	-1
1.33633	-0
1.34000	-0
1.34367	0
1.34733	0
1.35100	0
1.35467	1
1.35833	1
1.36200	1
1.36567	0
1.36933	0
1.37300	0
1.37667	0
1.38033	-0
1.38400	-0
1.38767	-0
1.39133	-1
1.39500	-0
1.39867	-0
1.40233	-0
1.40600	-0
1.40967	-1
1.41333	-1
1.41700	-1
1.42067	-1
1.42433	-2
1.42800	-3
1.43167	-3
1.43533	-4
1.43900	-4
1.44267	-3
1.44633	-3
1.45000	-2
1.45367	-2
1.45733	-1
1.46100	-1
1.46467	-0
1.46833	0
1.47200	0
1.47567	1
1.47933	1
1.48300	1
1.48667	0
1.49033	0
1.49400	-0
1.49767	-0
1.50133	-0
1.50500	-0
1.50867	-1
1.51233	-1
1.51600	-1
1.51967	-2
1.52333	-2
1.52700	-2
1.53067	-2
1.53433	-3
1.53800	-3
1.54167	-3
1.54533	-3
1.54900	-4
1.55267	-4
1.55633	-4
1.56000	-4
1.56367	-4
1.56733	-4
1.57100	-4
1.57467	-4
1.57833	-3
1.58200	-3
1.58567	-3
1.58933	-3
1.59300	-3
1.59667	-3
1.60033	-4
1.60400	-4
1.60767	-5
1.61133	-6
1.61500	-8
1.61867	-10
1.62233	-12
1.62600	-15
1.62967	-18
1.63333	-21
1.63700	-25
1.64067	-28
1.64433	-32
1.64800	-35
1.65167	-39
1.65533	-43
1.65900	-48
1.66267	-52
1.66633	-57
1.67000	-62
1.67367	-67
1.67733	-73
1.68100	-79
1.68467	-84
1.68833	-89
1.69200	-93
1.69567	-97
1.69933	-100
1.70300	-103
1.70667	-105
1.71033	-106
1.71400	-108
1.71767	-108
1.72133	-109
1.72500	-110
1.72867	-111
1.73233	-112
1.73600	-112
1.73967	-113
1.74333	-114
1.74700	-114
1.75067	-115
1.75433	-115
1.75800	-115
1.76167	-114
1.76533	-114
1.76900	-113
1.77267	-112
1.77633	-112
1.78000	-112
1.78367	-112
1.78733	-113
1.79100	-114
1.79467	-115
1.79833	-115
1.80200	-116
1.80567	-117
1.80933	-117
1.81300	-117
1.81667	-117
1.82033	-117
1.82400	-118
1.82767	-118
1.83133	-118
1.83500	-118
1.83867	-119
1.84233	-119
1.84600	-119
1.84967	-119
1.85333	-119
1.85700	-120
1.86067	-120
1.86433	-120
1.86800	-121
1.87167	-121
1.87533	-121
1.87900	-121
1.88267	-121
1.88633	-121
1.89000	-120
1.89367	-120
1.89733	-119
1.90100	-119
1.90467	-118
1.90833	-118
1.91200	-117
1.91567	-116
1.91933	-115
1.92300	-115
1.92667	-114
1.93033	-114
1.93400	-113
1.93767	-113
1.94133	-112
1.94500	-112
1.94867	-111
1.95233	-111
1.95600	-111
1.95967	-111
1.96333	-111
1.96700	-112
1.97067	-112
1.97433	-113
1.97800	-113
1.98167	-113
1.98533	-113
1.98900	-113
1.99267	-112
1.99633	-112
2.00000	-111
2.00367	-111
2.00733	-111
2.01100	-110
2.01467	-110
2.01833	-110
2.02200	-110
2.02567	-109
2.02933	-109
2.03300	-108
2.03667	-107
2.04033	-106
2.04400	-106
2.04767	-105
2.05133	-105
2.05500	-104
2.05867	-104
2.06233	-104
2.06600	-103
2.06967	-103
2.07333	-103
2.07700	-103
2.08067	-103
2.08433	-103
2.08800	-103
2.09167	-102
2.09533	-102
2.09900	-101
2.10267	-101
2.10633	-101
2.11000	-101
2.11367	-101
2.11733	-101
2.12100	-102
2.12467	-102
2.12833	-102
2.13200	-102
2.13567	-101
2.13933	-100
2.14300	-100
2.14667	-99
2.15033	-98
2.15400	-97
2.15767	-96
2.16133	-96
2.16500	-95
2.16867	-95
2.17233	-94
2.17600	-94
2.17967	-94
2.18333	-94
2.18700	-95
2.19067	-95
2.19433	-96
2.19800	-97
2.20167	-97
2.20533	-97
2.20900	-96
2.21267	-95
2.21633	-95
2.22000	-95
2.22367	-94
2.22733	-94
2.23100	-93
2.23467	-92
2.23833	-92
2.24200	-91
2.24567	-91
2.24933	-91
2.25300	-91
2.25667	-90
2.26033	-90
2.26400	-90
2.26767	-90
2.27133	-90
2.27500	-89
2.27867	-89
2.28233	-88
2.28600	-88
2.28967	-87
2.29333	-87
2.29700	-86
2.30067	-86
2.30433	-86
2.30800	-86
2.31167	-86
2.31533	-86
2.31900	-86
2.32267	-85
2.32633	-84
2.33000	-84
2.33367	-84
2.33733	-83
2.34100	-83
2.34467	-83
2.34833	-83
2.35200	-82
2.35567	-81
2.35933	-80
2.36300	-79
2.36667	-77
2.37033	-75
2.37400	-73
2.37767	-71
2.38133	-67
2.38500	-64
2.38867	-60
2.39233	-57
2.39600	-53
2.39967	-49
2.40333	-45
2.40700	-40
2.41067	-37
2.41433	-33
2.41800	-30
2.42167	-27
2.42533	-25
2.42900	-23
2.43267	-21
2.43633	-19
2.44000	-17
2.44367	-15
2.44733	-13
2.45100	-11
2.45467	-9
2.45833	-7
2.46200	-5
2.46567	-4
2.46933	-2
2.47300	-1
2.47667	0
2.48033	1
2.48400	2
2.48767	4
2.49133	5
2.49500	6
2.49867	7
2.50233	8
2.50600	8
2.50967	8
2.51333	9
2.51700	9
2.52067	10
2.52433	11
2.52800	12
2.53167	13
2.53533	13
2.53900	14
2.54267	14
2.54633	14
2.55000	15
2.55367	15
2.55733	16
2.56100	16
2.56467	17
2.56833	17
2.57200	18
2.57567	18
2.57933	18
2.58300	18
2.58667	18
2.59033	18
2.59400	18
2.59767	18
2.60133	18
2.60500	18
2.60867	18
2.61233	17
2.61600	17
2.61967	16
2.62333	16
2.62700	16
2.63067	15
2.63433	15
2.63800	16
2.64167	16
2.64533	16
2.64900	16
2.65267	16
2.65633	16
2.66000	17
2.66367	17
2.66733	18
2.67100	18
2.67467	19
2.67833	20
2.68200	21
2.68567	22
2.68933	23
2.69300	24
2.69667	24
2.70033	23
2.70400	23
2.70767	23
2.71133	22
2.71500	22
2.71867	21
2.72233	21
2.72600	21
2.72967	21
2.73333	21
2.73700	21
2.74067	21
2.74433	22
2.74800	22
2.75167	23
2.75533	24
2.75900	24
2.76267	25
2.76633	25
2.77000	26
2.77367	26
2.77733	27
2.78100	27
2.78467	27
2.78833	27
2.79200	27
2.79567	27
2.79933	26
2.80300	26
2.80667	26
2.81033	26
2.81400	26
2.81767	26
2.82133	26
2.82500	26
2.82867	26
2.83233	25
2.83600	24
2.83967	23
2.84333	20
2.84700	15
2.85067	8
2.85433	-2
2.85800	-15
2.86167	-32
2.86533	-54
2.86900	-79
2.87267	-109
2.87633	-143
2.88000	-181
2.88367	-222
2.88733	-267
2.89100	-314
2.89467	-363
2.89833	-414
2.90200	-467
2.90567	-520
2.90933	-574
2.91300	-627
2.91667	-681
2.92033	-734
2.92400	-785
2.92767	-837
2.93133	-890
2.93500	-948
2.93867	-1008
2.94233	-1062
2.94600	-1099
2.94967	-1111
2.95333	-1097
2.95700	-1060
2.96067	-1003
2.96433	-932
2.96800	-854
2.97167	-773
2.97533	-692
2.97900	-615
2.98267	-541
2.98633	-474
2.99000	-412
2.99367	-357
2.99733	-308
3.00100	-264
3.00467	-226
3.00833	-192
3.01200	-163
3.01567	-138
3.01933	-116
3.02300	-97
3.02667	-81
3.03033	-68
3.03400	-56
3.03767	-46
3.04133	-37
3.04500	-30
3.04867	-24
3.05233	-18
3.05600	-13
3.05967	-9
3.06333	-6
3.06700	-3
3.07067	-1
3.07433	1
3.07800	2
3.08167	4
3.08533	5
3.08900	7
3.09267	8
3.09633	9
3.10000	10
3.10367	11
3.10733	11
3.11100	12
3.11467	13
3.11833	13
3.12200	14
3.12567	14
3.12933	14
3.13300	15
3.13667	15
3.14033	15
3.14400	16
3.14767	16
3.15133	16
3.15500	17
3.15867	17
3.16233	17
3.16600	17
3.16967	17
3.17333	17
3.17700	17
3.18067	17
3.18433	18
3.18800	18
3.19167	18
3.19533	18
3.19900	18
3.20267	18
3.20633	19
3.21000	19
3.21367	19
3.21733	20
3.22100	21
3.22467	21
3.22833	21
3.23200	22
3.23567	22
3.23933	23
3.24300	23
3.24667	24
3.25033	24
3.25400	24
3.25767	25
3.26133	25
3.26500	25
3.26867	25
3.27233	25
3.27600	26
3.27967	26
3.28333	26
3.28700	26
3.29067	26
3.29433	26
3.29800	25
3.30167	25
3.30533	25
3.30900	25
3.31267	25
3.31633	25
3.32000	25
3.32367	25
3.32733	26
3.33100	26
3.33467	26
3.33833	26
3.34200	26
3.34567	26
3.34933	26
3.35300	26
3.35667	27
3.36033	27
3.36400	27
3.36767	27
3.37133	27
3.37500	27
3.37867	27
3.38233	27
3.38600	27
3.38967	27
3.39333	27
3.39700	26
3.40067	26
3.40433	26
3.40800	26
3.41167	26
3.41533	26
3.41900	26
3.42267	26
3.42633	26
3.43000	26
3.43367	26
3.43733	26
3.44100	26
3.44467	26
3.44833	27
3.45200	26
3.45567	26
3.45933	26
3.46300	26
3.46667	26
3.47033	26
3.47400	26
3.47767	26
3.48133	26
3.48500	26
3.48867	26
3.49233	26
3.49600	26
3.49967	26
3.50333	26
3.50700	25
3.51067	25
3.51433	25
3.51800	25
3.52167	25
3.52533	25
3.52900	25
3.53267	25
3.53633	26
3.54000	26
3.54367	26
3.54733	26
3.55100	26
3.55467	26
3.55833	26
3.56200	26
3.56567	26
3.56933	26
3.57300	26
3.57667	26
3.58033	26
3.58400	26
3.58767	26
3.59133	26
3.59500	26
3.59867	26
3.60233	26
3.60600	26
3.60967	26
3.61333	26
3.61700	26
3.62067	26
3.62433	26
3.62800	26
3.63167	26
3.63533	26
3.63900	26
3.64267	26
3.64633	25
3.65000	26
3.65367	26
3.65733	26
3.66100	25
3.66467	25
3.66833	25
3.67200	25
3.67567	24
3.67933	24
3.68300	24
3.68667	24
3.69033	24
3.69400	24
3.69767	24
3.70133	24
3.70500	24
3.70867	24
3.71233	23
3.71600	23
3.71967	23
3.72333	23
3.72700	23
3.73067	23
3.73433	23
3.73800	24
3.74167	24
3.74533	24
3.74900	24
3.75267	24
3.75633	24
3.76000	24
3.76367	24
3.76733	24
3.77100	24
3.77467	24
3.77833	24
3.78200	24
3.78567	24
3.78933	24
3.79300	24
3.79667	24
3.80033	24
3.80400	25
3.80767	25
3.81133	25
3.81500	24
3.81867	24
3.82233	24
3.82600	24
3.82967	24
3.83333	24
3.83700	24
3.84067	24
3.84433	24
3.84800	24
3.85167	24
3.85533	24
3.85900	24
3.86267	24
3.86633	24
3.87000	24
3.87367	24
3.87733	24
3.88100	24
3.88467	25
3.88833	25
3.89200	26
3.89567	26
3.89933	27
3.90300	27
3.90667	27
3.91033	27
3.91400	27
3.91767	27
3.92133	27
3.92500	27
3.92867	27
3.93233	28
3.93600	27
3.93967	27
3.94333	27
3.94700	27
3.95067	27
3.95433	27
3.95800	28
3.96167	28
3.96533	28
3.96900	28
3.97267	28
3.97633	27
3.98000	27
3.98367	27
3.98733	28
3.99100	28
3.99467	27
3.99833	27

[Chromatogram (Ch3)]
Interval(msec)	220
# of Points	1091
Start Time(min)	0.002
End Time(min)	3.998
R.Time (min)	Intensity
0.00167	-0
0.00533	-2
0.00900	-4
0.01267	-1
0.01633	2
0.02000	3
0.02367	3
0.02733	2
0.03100	2
0.03467	3
0.03833	2
0.04200	3
0.04567	6
0.04933	6
0.05300	2
0.05667	-1
0.06033	-3
0.06400	-5
0.06767	-6
0.07133	-6
0.07500	-6
0.07867	-4
0.08233	-1
0.08600	2
0.08967	1
0.09333	0
0.09700	-0
0.10067	0
0.10433	-1
0.10800	-3
0.11167	-4
0.11533	-3
0.11900	-3
0.12267	-2
0.12633	0
0.13000	2
0.13367	2
0.13733	1
0.14100	-0
0.14467	-1
0.14833	-3
0.15200	-3
0.15567	-1
0.15933	-2
0.16300	-4
0.16667	-6
0.17033	-6
0.17400	-5
0.17767	-5
0.18133	-5
0.18500	-6
0.18867	-6
0.19233	-4
0.19600	-3
0.19967	-2
0.20333	-1
0.20700	-2
0.21067	-1
0.21433	-1
0.21800	-2
0.22167	-2
0.22533	-2
0.22900	-1
0.23267	-0
0.23633	-0
0.24000	1
0.24367	3
0.24733	2
0.25100	2
0.25467	1
0.25833	0
0.26200	-1
0.26567	2
0.26933	3
0.27300	3
0.27667	1
0.28033	-0
0.28400	-0
0.28767	0
0.29133	0
0.29500	2
0.29867	3
0.30233	3
0.30600	4
0.30967	4
0.31333	6
0.31700	9
0.32067	9
0.32433	9
0.32800	8
0.33167	5
0.33533	2
0.33900	2
0.34267	5
0.34633	10
0.35000	13
0.35367	12
0.35733	9
0.36100	7
0.36467	6
0.36833	6
0.37200	8
0.37567	8
0.37933	7
0.38300	7
0.38667	7
0.39033	7
0.39400	7
0.39767	6
0.40133	7
0.40500	9
0.40867	12
0.41233	17
0.41600	20
0.41967	18
0.42333	17
0.42700	16
0.43067	13
0.43433	12
0.43800	11
0.44167	11
0.44533	10
0.44900	11
0.45267	13
0.45633	12
0.46000	12
0.46367	14
0.46733	15
0.47100	14
0.47467	13
0.47833	14
0.48200	16
0.48567	19
0.48933	18
0.49300	15
0.49667	12
0.50033	13
0.50400	10
0.50767	8
0.51133	7
0.51500	5
0.51867	8
0.52233	11
0.52600	12
0.52967	13
0.53333	15
0.53700	15
0.54067	17
0.54433	18
0.54800	17
0.55167	17
0.55533	16
0.55900	14
0.56267	14
0.56633	12
0.57000	12
0.57367	12
0.57733	14
0.58100	15
0.58467	14
0.58833	14
0.59200	12
0.59567	9
0.59933	7
0.60300	7
0.60667	7
0.61033	9
0.61400	10
0.61767	10
0.62133	11
0.62500	11
0.62867	11
0.63233	10
0.63600	7
0.63967	5
0.64333	6
0.64700	8
0.65067	13
0.65433	15
0.65800	16
0.66167	16
0.66533	14
0.66900	14
0.67267	14
0.67633	12
0.68000	10
0.68367	7
0.68733	5
0.69100	4
0.69467	5
0.69833	6
0.70200	6
0.70567	7
0.70933	7
0.71300	7
0.71667	7
0.72033	8
0.72400	9
0.72767	9
0.73133	9
0.73500	12
0.73867	13
0.74233	12
0.74600	8
0.74967	7
0.75333	8
0.75700	7
0.76067	9
0.76433	11
0.76800	11
0.77167	13
0.77533	16
0.77900	17
0.78267	17
0.78633	14
0.79000	11
0.79367	10
0.79733	10
0.80100	8
0.80467	7
0.80833	6
0.81200	8
0.81567	10
0.81933	9
0.82300	7
0.82667	8
0.83033	11
0.83400	12
0.83767	11
0.84133	10
0.84500	10
0.84867	13
0.85233	15
0.85600	14
0.85967	13
0.86333	15
0.86700	16
0.87067	13
0.87433	9
0.87800	9
0.88167	11
0.88533	11
0.88900	14
0.89267	15
0.89633	14
0.90000	13
0.90367	12
0.90733	13
0.91100	12
0.91467	11
0.91833	12
0.92200	14
0.92567	13
0.92933	13
0.93300	13
0.93667	15
0.94033	17
0.94400	18
0.94767	18
0.95133	18
0.95500	18
0.95867	18
0.96233	18
0.96600	17
0.96967	17
0.97333	18
0.97700	17
0.98067	18
0.98433	19
0.98800	21
0.99167	22
0.99533	18
0.99900	16
1.00267	17
1.00633	20
1.01000	24
1.01367	25
1.01733	24
1.02100	23
1.02467	23
1.02833	23
1.03200	21
1.03567	21
1.03933	20
1.04300	20
1.04667	21
1.05033	23
1.05400	25
1.05767	26
1.06133	26
1.06500	25
1.06867	23
1.07233	23
1.07600	22
1.07967	21
1.08333	21
1.08700	21
1.09067	21
1.09433	22
1.09800	22
1.10167	22
1.10533	21
1.10900	21
1.11267	21
1.11633	23
1.12000	24
1.12367	24
1.12733	25
1.13100	26
1.13467	27
1.13833	26
1.14200	23
1.14567	23
1.14933	24
1.15300	25
1.15667	26
1.16033	27
1.16400	28
1.16767	27
1.17133	24
1.17500	21
1.17867	19
1.18233	20
1.18600	20
1.18967	21
1.19333	23
1.19700	25
1.20067	25
1.20433	25
1.20800	25
1.21167	25
1.21533	26
1.21900	26
1.22267	26
1.22633	26
1.23000	25
1.23367	26
1.23733	28
1.24100	27
1.24467	24
1.24833	22
1.25200	20
1.25567	20
1.25933	22
1.26300	23
1.26667	21
1.27033	21
1.27400	22
1.27767	24
1.28133	26
1.28500	27
1.28867	29
1.29233	29
1.29600	30
1.29967	31
1.30333	32
1.30700	32
1.31067	31
1.31433	29
1.31800	27
1.32167	26
1.32533	25
1.32900	27
1.33267	28
1.33633	30
1.34000	32
1.34367	33
1.34733	33
1.35100	30
1.35467	29
1.35833	29
1.36200	29
1.36567	29
1.36933	30
1.37300	33
1.37667	33
1.38033	31
1.38400	27
1.38767	26
1.39133	27
1.39500	29
1.39867	31
1.40233	33
1.40600	31
1.40967	29
1.41333	30
1.41700	31
1.42067	33
1.42433	32
1.42800	32
1.43167	33
1.43533	34
1.43900	33
1.44267	33
1.44633	31
1.45000	31
1.45367	31
1.45733	31
1.46100	30
1.46467	31
1.46833	29
1.47200	26
1.47567	26
1.47933	28
1.48300	29
1.48667	28
1.49033	25
1.49400	24
1.49767	25
1.50133	28
1.50500	29
1.50867	31
1.51233	31
1.51600	30
1.51967	32
1.52333	33
1.52700	34
1.53067	34
1.53433	33
1.53800	33
1.54167	36
1.54533	37
1.54900	37
1.55267	37
1.55633	36
1.56000	37
1.56367	36
1.56733	34
1.57100	34
1.57467	35
1.57833	37
1.58200	40
1.58567	40
1.58933	39
1.59300	38
1.59667	37
1.60033	36
1.60400	32
1.60767	31
1.61133	32
1.61500	34
1.61867	35
1.62233	35
1.62600	35
1.62967	35
1.63333	35
1.63700	37
1.64067	37
1.64433	36
1.64800	35
1.65167	34
1.65533	34
1.65900	35
1.66267	35
1.66633	35
1.67000	34
1.67367	33
1.67733	32
1.68100	31
1.68467	32
1.68833	32
1.69200	31
1.69567	31
1.69933	32
1.70300	33
1.70667	33
1.71033	32
1.71400	37
1.71767	39
1.72133	37
1.72500	37
1.72867	38
1.73233	37
1.73600	38
1.73967	39
1.74333	40
1.74700	42
1.75067	42
1.75433	43
1.75800	43
1.76167	42
1.76533	41
1.76900	39
1.77267	39
1.77633	38
1.78000	39
1.78367	40
1.78733	39
1.79100	39
1.79467	40
1.79833	39
1.80200	41
1.80567	41
1.80933	42
1.81300	44
1.81667	45
1.82033	45
1.82400	46
1.82767	48
1.83133	50
1.83500	53
1.83867	55
1.84233	57
1.84600	57
1.84967	55
1.85333	53
1.85700	52
1.86067	50
1.86433	49
1.86800	50
1.87167	53
1.87533	54
1.87900	54
1.88267	54
1.88633	53
1.89000	54
1.89367	53
1.89733	53
1.90100	53
1.90467	56
1.90833	58
1.91200	59
1.91567	59
1.91933	60
1.92300	61
1.92667	63
1.93033	62
1.93400	59
1.93767	59
1.94133	57
1.94500	56
1.94867	57
1.95233	57
1.95600	58
1.95967	58
1.96333	59
1.96700	58
1.97067	59
1.97433	60
1.97800	61
1.98167	62
1.98533	64
1.98900	66
1.99267	66
1.99633	67
2.00000	67
2.00367	65
2.00733	63
2.01100	62
2.01467	63
2.01833	66
2.02200	69
2.02567	69
2.02933	70
2.03300	72
2.03667	75
2.04033	77
2.04400	78
2.04767	79
2.05133	81
2.05500	82
2.05867	82
2.06233	83
2.06600	85
2.06967	85
2.07333	85
2.07700	84
2.08067	83
2.08433	83
2.08800	84
2.09167	86
2.09533	88
2.09900	91
2.10267	95
2.10633	98
2.11000	98
2.11367	96
2.11733	95
2.12100	95
2.12467	92
2.12833	92
2.13200	94
2.13567	94
2.13933	96
2.14300	100
2.14667	101
2.15033	104
2.15400	108
2.15767	109
2.16133	108
2.16500	106
2.16867	103
2.17233	103
2.17600	104
2.17967	105
2.18333	106
2.18700	108
2.19067	110
2.19433	109
2.19800	110
2.20167	111
2.20533	114
2.20900	114
2.21267	116
2.21633	116
2.22000	115
2.22367	116
2.22733	119
2.23100	121
2.23467	123
2.23833	125
2.24200	126
2.24567	128
2.24933	130
2.25300	130
2.25667	131
2.26033	131
2.26400	131
2.26767	132
2.27133	133
2.27500	134
2.27867	136
2.28233	138
2.28600	141
2.28967	145
2.29333	146
2.29700	147
2.30067	150
2.30433	152
2.30800	150
2.31167	149
2.31533	149
2.31900	151
2.32267	153
2.32633	156
2.33000	155
2.33367	154
2.33733	156
2.34100	157
2.34467	159
2.34833	162
2.35200	164
2.35567	164
2.35933	163
2.36300	160
2.36667	159
2.37033	160
2.37400	163
2.37767	168
2.38133	170
2.38500	173
2.38867	173
2.39233	173
2.39600	174
2.39967	176
2.40333	179
2.40700	182
2.41067	184
2.41433	187
2.41800	190
2.42167	191
2.42533	193
2.42900	192
2.43267	192
2.43633	191
2.44000	193
2.44367	215
2.44733	268
2.45100	326
2.45467	374
2.45833	408
2.46200	419
2.46567	412
2.46933	394
2.47300	379
2.47667	368
2.48033	360
2.48400	358
2.48767	355
2.49133	347
2.49500	335
2.49867	321
2.50233	307
2.50600	294
2.50967	285
2.51333	280
2.51700	276
2.52067	271
2.52433	269
2.52800	270
2.53167	270
2.53533	273
2.53900	279
2.54267	286
2.54633	292
2.55000	296
2.55367	296
2.55733	294
2.56100	292
2.56467	287
2.56833	281
2.57200	278
2.57567	270
2.57933	263
2.58300	259
2.58667	256
2.59033	252
2.59400	249
2.59767	243
2.60133	234
2.60500	223
2.60867	209
2.61233	190
2.61600	169
2.61967	148
2.62333	131
2.62700	116
2.63067	101
2.63433	88
2.63800	83
2.64167	80
2.64533	78
2.64900	80
2.65267	85
2.65633	91
2.66000	101
2.66367	111
2.66733	122
2.67100	134
2.67467	141
2.67833	150
2.68200	157
2.68567	166
2.68933	175
2.69300	184
2.69667	189
2.70033	196
2.70400	204
2.70767	211
2.71133	215
2.71500	217
2.71867	215
2.72233	217
2.72600	220
2.72967	223
2.73333	226
2.73700	227
2.74067	227
2.74433	226
2.74800	226
2.75167	225
2.75533	225
2.75900	226
2.76267	226
2.76633	227
2.77000	228
2.77367	229
2.77733	231
2.78100	229
2.78467	229
2.78833	230
2.79200	229
2.79567	231
2.79933	234
2.80300	235
2.80667	233
2.81033	229
2.81400	229
2.81767	236
2.82133	254
2.82500	288
2.82867	359
2.83233	487
2.83600	693
2.83967	995
2.84333	1400
2.84700	1898
2.85067	2464
2.85433	3058
2.85800	3634
2.86167	4142
2.86533	4543
2.86900	4809
2.87267	4927
2.87633	4910
2.88000	4775
2.88367	4543
2.88733	4248
2.89100	3915
2.89467	3566
2.89833	3222
2.90200	2890
2.90567	2575
2.90933	2284
2.91300	2021
2.91667	1786
2.92033	1578
2.92400	1396
2.92767	1235
2.93133	1095
2.93500	974
2.93867	868
2.94233	777
2.94600	697
2.94967	629
2.95333	573
2.95700	526
2.96067	486
2.96433	451
2.96800	419
2.97167	392
2.97533	368
2.97900	347
2.98267	327
2.98633	311
2.99000	298
2.99367	288
2.99733	278
3.00100	271
3.00467	267
3.00833	262
3.01200	258
3.01567	252
3.01933	246
3.02300	242
3.02667	240
3.03033	238
3.03400	236
3.03767	236
3.04133	237
3.04500	235
3.04867	233
3.05233	233
3.05600	233
3.05967	234
3.06333	233
3.06700	231
3.07067	229
3.07433	225
3.07800	223
3.08167	224
3.08533	222
3.08900	219
3.09267	218
3.09633	217
3.10000	216
3.10367	212
3.10733	209
3.11100	208
3.11467	208
3.11833	208
3.12200	205
3.12567	205
3.12933	206
3.13300	203
3.13667	202
3.14033	202
3.14400	201
3.14767	201
3.15133	202
3.15500	202
3.15867	202
3.16233	202
3.16600	203
3.16967	204
3.17333	204
3.17700	202
3.18067	201
3.18433	200
3.18800	199
3.19167	200
3.19533	200
3.19900	200
3.20267	201
3.20633	202
3.21000	203
3.21367	207
3.21733	208
3.22100	209
3.22467	207
3.22833	205
3.23200	201
3.23567	192
3.23933	182
3.24300	184
3.24667	200
3.25033	221
3.25400	247
3.25767	273
3.26133	297
3.26500	325
3.26867	355
3.27233	385
3.27600	415
3.27967	446
3.28333	478
3.28700	511
3.29067	542
3.29433	572
3.29800	602
3.30167	625
3.30533	643
3.30900	658
3.31267	672
3.31633	682
3.32000	691
3.32367	700
3.32733	706
3.33100	711
3.33467	713
3.33833	716
3.34200	719
3.34567	725
3.34933	729
3.35300	731
3.35667	731
3.36033	732
3.36400	735
3.36767	740
3.37133	744
3.37500	746
3.37867	747
3.38233	747
3.38600	747
3.38967	747
3.39333	748
3.39700	747
3.40067	747
3.40433	747
3.40800	747
3.41167	748
3.41533	748
3.41900	746
3.42267	745
3.42633	745
3.43000	745
3.43367	746
3.43733	745
3.44100	744
3.44467	742
3.44833	739
3.45200	736
3.45567	731
3.45933	727
3.46300	723
3.46667	718
3.47033	714
3.47400	711
3.47767	709
3.48133	707
3.48500	703
3.48867	700
3.49233	694
3.49600	690
3.49967	687
3.50333	685
3.50700	683
3.51067	681
3.51433	680
3.51800	680
3.52167	679
3.52533	678
3.52900	677
3.53267	673
3.53633	670
3.54000	668
3.54367	665
3.54733	661
3.55100	659
3.55467	658
3.55833	657
3.56200	654
3.56567	652
3.56933	651
3.57300	648
3.57667	645
3.58033	642
3.58400	641
3.58767	640
3.59133	638
3.59500	636
3.59867	632
3.60233	626
3.60600	623
3.60967	620
3.61333	618
3.61700	616
3.62067	615
3.62433	614
3.62800	611
3.63167	608
3.63533	606
3.63900	605
3.64267	604
3.64633	602
3.65000	598
3.65367	595
3.65733	590
3.66100	589
3.66467	589
3.66833	586
3.67200	584
3.67567	581
3.67933	577
3.68300	577
3.68667	577
3.69033	576
3.69400	574
3.69767	572
3.70133	570
3.70500	567
3.70867	567
3.71233	567
3.71600	565
3.71967	562
3.72333	558
3.72700	555
3.73067	553
3.73433	552
3.73800	551
3.74167	551
3.74533	551
3.74900	551
3.75267	549
3.75633	547
3.76000	545
3.76367	545
3.76733	542
3.77100	541
3.77467	540
3.77833	539
3.78200	538
3.78567	535
3.78933	533
3.79300	532
3.79667	531
3.80033	529
3.80400	526
3.80767	525
3.81133	527
3.81500	525
3.81867	522
3.82233	520
3.82600	519
3.82967	517
3.83333	515
3.83700	513
3.84067	511
3.84433	511
3.84800	512
3.85167	512
3.85533	510
3.85900	508
3.86267	508
3.86633	509
3.87000	509
3.87367	508
3.87733	505
3.88100	504
3.88467	502
3.88833	500
3.89200	500
3.89567	500
3.89933	499
3.90300	496
3.90667	495
3.91033	494
3.91400	493
3.91767	492
3.92133	493
3.92500	494
3.92867	493
3.93233	492
3.93600	493
3.93967	496
3.94333	495
3.94700	495
3.95067	495
3.95433	493
3.95800	491
3.96167	490
3.96533	490
3.96900	490
3.97267	490
3.97633	489
3.98000	491
3.98367	493
3.98733	491
3.99100	488
3.99467	482
3.99833	477

[Status Trace (Column Oven Temperature)]
Interval(msec)	1000
# of Points	240
Start Time(min)	0.010
End Time(min)	3.994
Intensity Units	
Intensity Multiplier	1
R.Time (min)	Intensity
0.01045	35.07
0.02712	35.07
0.04378	35.07
0.06045	35.06
0.07712	35.05
0.09378	35.05
0.11045	35.03
0.12712	35.03
0.14378	35.03
0.16045	35.02
0.17712	35.02
0.19378	35.02
0.21045	35.02
0.22712	35.04
0.24378	35.05
0.26045	35.06
0.27712	35.05
0.29378	35.05
0.31045	35.03
0.32712	35.04
0.34378	35.03
0.36045	35.04
0.37712	35.04
0.39378	35.04
0.41045	35.05
0.42712	35.05
0.44378	35.04
0.46045	35.03
0.47712	35.04
0.49378	35.03
0.51045	35.03
0.52712	35.03
0.54378	35.02
0.56045	35.01
0.57712	35.00
0.59378	35.00
0.61045	35.00
0.62712	35.01
0.64378	35.01
0.66045	35.01
0.67712	35.01
0.69378	35.00
0.71045	35.00
0.72712	35.00
0.74378	35.00
0.76045	35.00
0.77712	34.98
0.79378	34.98
0.81045	34.97
0.82712	34.98
0.84378	34.98
0.86045	34.98
0.87712	34.98
0.89378	35.00
0.91045	35.01
0.92712	35.02
0.94378	35.00
0.96045	35.00
0.97712	34.98
0.99378	34.97
1.01045	34.97
1.02712	34.97
1.04378	34.96
1.06045	34.97
1.07712	34.98
1.09378	35.00
1.11045	34.99
1.12712	34.98
1.14378	34.98
1.16045	34.99
1.17712	34.98
1.19378	34.98
1.21045	34.98
1.22712	34.98
1.24378	34.99
1.26045	35.00
1.27712	35.01
1.29378	35.00
1.31045	34.99
1.32712	34.98
1.34378	34.97
1.36045	34.96
1.37712	34.96
1.39378	34.96
1.41045	34.96
1.42712	34.97
1.44378	34.98
1.46045	34.97
1.47712	34.96
1.49378	34.95
1.51045	34.96
1.52712	34.97
1.54378	34.99
1.56045	35.01
1.57712	35.00
1.59378	34.99
1.61045	35.05
1.62712	35.18
1.64378	35.37
1.66045	35.64
1.67712	36.00
1.69378	36.37
1.71045	36.72
1.72712	37.06
1.74378	37.41
1.76045	37.71
1.77712	38.03
1.79378	38.38
1.81045	38.71
1.82712	39.05
1.84378	39.37
1.86045	39.71
1.87712	40.05
1.89378	40.37
1.91045	40.69
1.92712	41.01
1.94378	41.33
1.96045	41.66
1.97712	42.00
1.99378	42.31
2.01045	42.64
2.02712	42.96
2.04378	43.28
2.06045	43.60
2.07712	43.94
2.09378	44.23
2.11045	44.57
2.12712	44.90
2.14378	45.23
2.16045	45.56
2.17712	45.88
2.19378	46.23
2.21045	46.55
2.22712	46.88
2.24378	47.21
2.26045	47.56
2.27712	47.89
2.29378	48.19
2.31045	48.55
2.32712	48.87
2.34378	49.19
2.36045	49.49
2.37712	49.69
2.39378	49.74
2.41045	49.73
2.42712	49.76
2.44378	49.75
2.46045	49.76
2.47712	49.77
2.49378	49.78
2.51045	49.79
2.52712	49.79
2.54378	49.81
2.56045	49.81
2.57712	49.81
2.59378	49.80
2.61045	49.82
2.62712	49.83
2.64378	49.85
2.66045	49.86
2.67712	49.84
2.69378	49.84
2.71045	49.85
2.72712	49.87
2.74378	49.88
2.76045	49.87
2.77712	49.87
2.79378	49.87
2.81045	49.88
2.82712	49.89
2.84378	49.90
2.86045	49.91
2.87712	49.92
2.89378	49.94
2.91045	49.95
2.92712	49.97
2.94378	49.98
2.96045	49.99
2.97712	50.00
2.99378	50.01
3.01045	50.02
3.02712	50.03
3.04378	50.03
3.06045	50.04
3.07712	50.06
3.09378	50.07
3.11045	50.07
3.12712	50.07
3.14378	50.08
3.16045	50.08
3.17712	50.10
3.19378	50.11
3.21045	50.10
3.22712	50.10
3.24378	50.09
3.26045	50.07
3.27712	50.06
3.29378	50.06
3.31045	50.05
3.32712	50.05
3.34378	50.05
3.36045	50.04
3.37712	50.04
3.39378	50.03
3.41045	50.03
3.42712	50.03
3.44378	50.03
3.46045	50.03
3.47712	50.04
3.49378	50.04
3.51045	50.04
3.52712	50.03
3.54378	50.02
3.56045	50.02
3.57712	50.02
3.59378	50.02
3.61045	50.01
3.62712	50.01
3.64378	50.01
3.66045	50.03
3.67712	50.04
3.69378	50.05
3.71045	50.06
3.72712	50.06
3.74378	50.07
3.76045	50.08
3.77712	50.08
3.79378	50.08
3.81045	50.08
3.82712	50.09
3.84378	50.10
3.86045	50.10
3.87712	50.10
3.89378	50.08
3.91045	50.08
3.92712	50.07
3.94378	50.06
3.96045	50.04
3.97712	50.03
3.99378	50.03

[Status Trace (Injection Unit Temperature)]
Interval(msec)	1000
# of Points	240
Start Time(min)	0.010
End Time(min)	3.994
Intensity Units	
Intensity Multiplier	1
R.Time (min)	Intensity
0.01045	99.97
0.02712	99.97
0.04378	99.98
0.06045	99.98
0.07712	99.98
0.09378	99.97
0.11045	99.98
0.12712	99.98
0.14378	99.98
0.16045	99.98
0.17712	99.98
0.19378	99.98
0.21045	99.98
0.22712	99.98
0.24378	99.98
0.26045	99.98
0.27712	99.98
0.29378	99.98
0.31045	99.98
0.32712	99.98
0.34378	99.98
0.36045	99.97
0.37712	99.98
0.39378	99.98
0.41045	99.98
0.42712	99.98
0.44378	99.98
0.46045	99.98
0.47712	99.98
0.49378	99.98
0.51045	99.99
0.52712	99.98
0.54378	99.98
0.56045	99.98
0.57712	99.98
0.59378	99.98
0.61045	99.98
0.62712	99.98
0.64378	99.98
0.66045	99.98
0.67712	99.98
0.69378	99.99
0.71045	99.98
0.72712	99.98
0.74378	99.98
0.76045	99.98
0.77712	99.98
0.79378	99.98
0.81045	99.98
0.82712	99.98
0.84378	99.98
0.86045	99.98
0.87712	99.98
0.89378	99.98
0.91045	99.99
0.92712	99.98
0.94378	99.98
0.96045	99.98
0.97712	99.98
0.99378	99.98
1.01045	99.98
1.02712	99.98
1.04378	99.99
1.06045	99.98
1.07712	99.98
1.09378	99.98
1.11045	99.99
1.12712	99.99
1.14378	99.98
1.16045	99.98
1.17712	99.98
1.19378	99.98
1.21045	99.98
1.22712	99.99
1.24378	99.98
1.26045	99.98
1.27712	99.98
1.29378	99.98
1.31045	99.99
1.32712	99.98
1.34378	99.98
1.36045	99.98
1.37712	99.99
1.39378	99.98
1.41045	99.98
1.42712	99.98
1.44378	99.98
1.46045	99.98
1.47712	99.98
1.49378	99.98
1.51045	99.98
1.52712	99.98
1.54378	99.98
1.56045	99.98
1.57712	99.98
1.59378	99.98
1.61045	99.98
1.62712	99.98
1.64378	99.98
1.66045	99.98
1.67712	99.98
1.69378	99.97
1.71045	99.98
1.72712	99.98
1.74378	99.98
1.76045	99.98
1.77712	99.98
1.79378	99.98
1.81045	99.98
1.82712	99.98
1.84378	99.98
1.86045	99.98
1.87712	99.97
1.89378	99.98
1.91045	99.97
1.92712	99.98
1.94378	99.98
1.96045	99.98
1.97712	99.97
1.99378	99.97
2.01045	99.97
2.02712	99.98
2.04378	99.97
2.06045	99.97
2.07712	99.97
2.09378	99.97
2.11045	99.97
2.12712	99.97
2.14378	99.97
2.16045	99.97
2.17712	99.97
2.19378	99.97
2.21045	99.97
2.22712	99.97
2.24378	99.97
2.26045	99.97
2.27712	99.97
2.29378	99.97
2.31045	99.97
2.32712	99.97
2.34378	99.97
2.36045	99.97
2.37712	99.97
2.39378	99.97
2.41045	99.97
2.42712	99.97
2.44378	99.97
2.46045	99.97
2.47712	99.97
2.49378	99.96
2.51045	99.97
2.52712	99.97
2.54378	99.96
2.56045	99.97
2.57712	99.97
2.59378	99.97
2.61045	99.97
2.62712	99.97
2.64378	99.97
2.66045	99.97
2.67712	99.98
2.69378	99.98
2.71045	99.99
2.72712	99.98
2.74378	99.98
2.76045	99.98
2.77712	99.98
2.79378	99.98
2.81045	99.98
2.82712	99.99
2.84378	99.99
2.86045	99.99
2.87712	99.99
2.89378	99.99
2.91045	100.00
2.92712	99.99
2.94378	100.00
2.96045	99.99
2.97712	100.01
2.99378	100.00
3.01045	100.00
3.02712	100.00
3.04378	100.00
3.06045	100.01
3.07712	100.01
3.09378	100.01
3.11045	100.01
3.12712	100.01
3.14378	100.01
3.16045	100.01
3.17712	100.01
3.19378	100.01
3.21045	100.02
3.22712	100.02
3.24378	100.02
3.26045	100.02
3.27712	100.02
3.29378	100.02
3.31045	100.02
3.32712	100.02
3.34378	100.03
3.36045	100.03
3.37712	100.03
3.39378	100.03
3.41045	100.03
3.42712	100.03
3.44378	100.03
3.46045	100.03
3.47712	100.03
3.49378	100.03
3.51045	100.04
3.52712	100.04
3.54378	100.04
3.56045	100.04
3.57712	100.04
3.59378	100.04
3.61045	100.04
3.62712	100.04
3.64378	100.04
3.66045	100.04
3.67712	100.04
3.69378	100.04
3.71045	100.04
3.72712	100.04
3.74378	100.04
3.76045	100.05
3.77712	100.04
3.79378	100.04
3.81045	100.04
3.82712	100.05
3.84378	100.04
3.86045	100.04
3.87712	100.04
3.89378	100.05
3.91045	100.04
3.92712	100.05
3.94378	100.04
3.96045	100.05
3.97712	100.04
3.99378	100.05

[Status Trace (Carrier Gas Pressure)]
Interval(msec)	1000
# of Points	240
Start Time(min)	0.010
End Time(min)	3.994
Intensity Units	
Intensity Multiplier	1
R.Time (min)	Intensity
0.01045	58.00
0.02712	55.05
0.04378	57.43
0.06045	59.54
0.07712	59.06
0.09378	58.02
0.11045	57.99
0.12712	58.01
0.14378	58.01
0.16045	58.00
0.17712	58.00
0.19378	58.00
0.21045	58.00
0.22712	58.00
0.24378	58.00
0.26045	58.00
0.27712	58.00
0.29378	58.00
0.31045	58.00
0.32712	58.00
0.34378	58.00
0.36045	58.00
0.37712	58.00
0.39378	58.00
0.41045	58.00
0.42712	58.00
0.44378	58.00
0.46045	58.00
0.47712	58.00
0.49378	58.00
0.51045	58.00
0.52712	58.00
0.54378	58.00
0.56045	58.00
0.57712	58.00
0.59378	58.00
0.61045	58.00
0.62712	58.00
0.64378	58.00
0.66045	58.00
0.67712	58.00
0.69378	58.00
0.71045	58.00
0.72712	58.00
0.74378	58.00
0.76045	58.00
0.77712	58.00
0.79378	58.00
0.81045	58.00
0.82712	58.00
0.84378	58.00
0.86045	58.00
0.87712	58.00
0.89378	58.00
0.91045	58.00
0.92712	58.00
0.94378	58.00
0.96045	58.00
0.97712	58.00
0.99378	58.00
1.01045	58.00
1.02712	58.00
1.04378	58.00
1.06045	58.00
1.07712	58.00
1.09378	58.00
1.11045	58.00
1.12712	58.00
1.14378	58.00
1.16045	58.00
1.17712	58.00
1.19378	58.00
1.21045	58.00
1.22712	58.00
1.24378	58.00
1.26045	58.00
1.27712	58.00
1.29378	58.00
1.31045	58.00
1.32712	58.00
1.34378	58.00
1.36045	58.00
1.37712	58.00
1.39378	58.00
1.41045	58.00
1.42712	58.00
1.44378	58.00
1.46045	58.00
1.47712	58.00
1.49378	58.00
1.51045	58.00
1.52712	58.00
1.54378	58.00
1.56045	58.00
1.57712	58.00
1.59378	58.00
1.61045	58.00
1.62712	58.00
1.64378	58.00
1.66045	58.01
1.67712	58.01
1.69378	58.00
1.71045	58.00
1.72712	58.00
1.74378	58.00
1.76045	58.00
1.77712	58.00
1.79378	58.00
1.81045	58.00
1.82712	58.00
1.84378	58.00
1.86045	58.00
1.87712	58.00
1.89378	58.00
1.91045	58.00
1.92712	58.00
1.94378	58.00
1.96045	58.00
1.97712	58.00
1.99378	58.00
2.01045	58.00
2.02712	58.00
2.04378	58.00
2.06045	58.00
2.07712	58.00
2.09378	58.00
2.11045	58.00
2.12712	58.00
2.14378	58.00
2.16045	58.00
2.17712	58.00
2.19378	58.00
2.21045	58.00
2.22712	58.00
2.24378	58.00
2.26045	58.00
2.27712	58.00
2.29378	58.00
2.31045	58.00
2.32712	58.00
2.34378	58.00
2.36045	58.00
2.37712	58.00
2.39378	57.99
2.41045	57.99
2.42712	58.00
2.44378	58.00
2.46045	58.00
2.47712	58.00
2.49378	58.00
2.51045	57.99
2.52712	57.98
2.54378	58.00
2.56045	58.00
2.57712	58.00
2.59378	58.00
2.61045	58.00
2.62712	58.00
2.64378	58.00
2.66045	58.00
2.67712	58.00
2.69378	58.00
2.71045	58.00
2.72712	58.00
2.74378	58.00
2.76045	58.00
2.77712	58.00
2.79378	58.00
2.81045	58.00
2.82712	58.00
2.84378	58.00
2.86045	58.00
2.87712	58.00
2.89378	58.00
2.91045	58.00
2.92712	58.00
2.94378	58.00
2.96045	58.00
2.97712	58.00
2.99378	58.00
3.01045	58.00
3.02712	58.00
3.04378	58.00
3.06045	58.00
3.07712	58.00
3.09378	58.00
3.11045	58.00
3.12712	58.00
3.14378	58.00
3.16045	58.00
3.17712	58.00
3.19378	58.00
3.21045	58.00
3.22712	58.00
3.24378	58.00
3.26045	58.00
3.27712	58.00
3.29378	58.00
3.31045	58.00
3.32712	58.00
3.34378	58.00
3.36045	58.00
3.37712	58.00
3.39378	58.00
3.41045	58.00
3.42712	58.00
3.44378	58.00
3.46045	58.00
3.47712	58.00
3.49378	58.00
3.51045	58.00
3.52712	58.00
3.54378	58.00
3.56045	58.00
3.57712	58.00
3.59378	58.00
3.61045	58.00
3.62712	58.00
3.64378	58.00
3.66045	58.00
3.67712	58.00
3.69378	58.00
3.71045	58.00
3.72712	58.00
3.74378	58.00
3.76045	58.00
3.77712	58.00
3.79378	58.00
3.81045	58.00
3.82712	58.00
3.84378	58.00
3.86045	58.00
3.87712	58.00
3.89378	58.00
3.91045	58.00
3.92712	58.00
3.94378	58.00
3.96045	58.00
3.97712	58.00
3.99378	58.00

[Status Trace (Carrier Gas Flow)]
Interval(msec)	1000
# of Points	240
Start Time(min)	0.010
End Time(min)	3.994
Intensity Units	
Intensity Multiplier	1
R.Time (min)	Intensity
0.01045	34.52
0.02712	34.54
0.04378	34.55
0.06045	34.54
0.07712	34.50
0.09378	34.52
0.11045	34.52
0.12712	34.52
0.14378	34.52
0.16045	34.52
0.17712	34.52
0.19378	34.51
0.21045	34.52
0.22712	34.52
0.24378	34.52
0.26045	34.53
0.27712	34.51
0.29378	34.52
0.31045	34.52
0.32712	34.52
0.34378	34.52
0.36045	34.52
0.37712	34.53
0.39378	34.51
0.41045	34.53
0.42712	34.51
0.44378	34.52
0.46045	34.52
0.47712	34.52
0.49378	34.52
0.51045	34.52
0.52712	34.52
0.54378	34.52
0.56045	34.52
0.57712	34.52
0.59378	34.52
0.61045	34.52
0.62712	34.52
0.64378	34.52
0.66045	34.52
0.67712	34.52
0.69378	34.52
0.71045	34.52
0.72712	34.52
0.74378	34.51
0.76045	34.52
0.77712	34.52
0.79378	34.52
0.81045	34.52
0.82712	34.52
0.84378	34.52
0.86045	34.52
0.87712	34.52
0.89378	34.52
0.91045	34.52
0.92712	34.52
0.94378	34.52
0.96045	34.52
0.97712	34.52
0.99378	34.52
1.01045	34.52
1.02712	34.52
1.04378	34.52
1.06045	34.52
1.07712	34.52
1.09378	34.52
1.11045	34.52
1.12712	34.52
1.14378	34.52
1.16045	34.52
1.17712	34.52
1.19378	34.52
1.21045	34.52
1.22712	34.52
1.24378	34.52
1.26045	34.52
1.27712	34.52
1.29378	34.52
1.31045	34.52
1.32712	34.52
1.34378	34.52
1.36045	34.52
1.37712	34.52
1.39378	34.52
1.41045	34.52
1.42712	34.51
1.44378	34.52
1.46045	34.52
1.47712	34.52
1.49378	34.52
1.51045	34.52
1.52712	34.52
1.54378	34.52
1.56045	34.52
1.57712	34.52
1.59378	34.52
1.61045	34.52
1.62712	34.52
1.64378	34.52
1.66045	34.52
1.67712	34.52
1.69378	34.52
1.71045	34.52
1.72712	34.52
1.74378	34.52
1.76045	34.52
1.77712	34.52
1.79378	34.52
1.81045	34.52
1.82712	34.52
1.84378	34.52
1.86045	34.52
1.87712	34.52
1.89378	34.52
1.91045	34.52
1.92712	34.52
1.94378	34.52
1.96045	34.52
1.97712	34.52
1.99378	34.52
2.01045	34.52
2.02712	34.52
2.04378	34.52
2.06045	34.52
2.07712	34.52
2.09378	34.52
2.11045	34.52
2.12712	34.52
2.14378	34.52
2.16045	34.52
2.17712	34.52
2.19378	34.52
2.21045	34.52
2.22712	34.52
2.24378	34.52
2.26045	34.52
2.27712	34.52
2.29378	34.52
2.31045	34.52
2.32712	34.52
2.34378	34.52
2.36045	34.52
2.37712	34.52
2.39378	34.52
2.41045	34.52
2.42712	34.52
2.44378	34.52
2.46045	34.52
2.47712	34.52
2.49378	34.52
2.51045	34.52
2.52712	34.52
2.54378	34.52
2.56045	34.52
2.57712	34.52
2.59378	34.51
2.61045	34.53
2.62712	34.52
2.64378	34.52
2.66045	34.51
2.67712	34.51
2.69378	34.51
2.71045	34.52
2.72712	34.52
2.74378	34.52
2.76045	34.52
2.77712	34.52
2.79378	34.52
2.81045	34.51
2.82712	34.52
2.84378	34.52
2.86045	34.52
2.87712	34.52
2.89378	34.52
2.91045	34.52
2.92712	34.52
2.94378	34.52
2.96045	34.52
2.97712	34.52
2.99378	34.52
3.01045	34.52
3.02712	34.52
3.04378	34.52
3.06045	34.51
3.07712	34.51
3.09378	34.52
3.11045	34.52
3.12712	34.52
3.14378	34.52
3.16045	34.51
3.17712	34.52
3.19378	34.51
3.21045	34.52
3.22712	34.52
3.24378	34.51
3.26045	34.52
3.27712	34.52
3.29378	34.52
3.31045	34.52
3.32712	34.53
3.34378	34.51
3.36045	34.52
3.37712	34.52
3.39378	34.52
3.41045	34.52
3.42712	34.51
3.44378	34.52
3.46045	34.52
3.47712	34.51
3.49378	34.52
3.51045	34.52
3.52712	34.52
3.54378	34.52
3.56045	34.52
3.57712	34.52
3.59378	34.52
3.61045	34.52
3.62712	34.52
3.64378	34.52
3.66045	34.52
3.67712	34.52
3.69378	34.52
3.71045	34.52
3.72712	34.51
3.74378	34.51
3.76045	34.51
3.77712	34.52
3.79378	34.52
3.81045	34.52
3.82712	34.52
3.84378	34.52
3.86045	34.51
3.87712	34.52
3.89378	34.51
3.91045	34.51
3.92712	34.52
3.94378	34.51
3.96045	34.52
3.97712	34.52
3.99378	34.52

[Status Trace (Column Flow)]
Interval(msec)	1000
# of Points	240
Start Time(min)	0.010
End Time(min)	3.994
Intensity Units	
Intensity Multiplier	1
R.Time (min)	Intensity
0.01045	5.57
0.02712	5.23
0.04378	5.50
0.06045	5.75
0.07712	5.70
0.09378	5.57
0.11045	5.57
0.12712	5.57
0.14378	5.57
0.16045	5.57
0.17712	5.57
0.19378	5.57
0.21045	5.57
0.22712	5.57
0.24378	5.57
0.26045	5.57
0.27712	5.57
0.29378	5.57
0.31045	5.57
0.32712	5.57
0.34378	5.57
0.36045	5.57
0.37712	5.57
0.39378	5.57
0.41045	5.57
0.42712	5.57
0.44378	5.57
0.46045	5.57
0.47712	5.57
0.49378	5.57
0.51045	5.57
0.52712	5.57
0.54378	5.57
0.56045	5.57
0.57712	5.57
0.59378	5.57
0.61045	5.57
0.62712	5.57
0.64378	5.57
0.66045	5.57
0.67712	5.57
0.69378	5.57
0.71045	5.57
0.72712	5.57
0.74378	5.57
0.76045	5.57
0.77712	5.57
0.79378	5.57
0.81045	5.57
0.82712	5.57
0.84378	5.57
0.86045	5.57
0.87712	5.57
0.89378	5.57
0.91045	5.57
0.92712	5.57
0.94378	5.57
0.96045	5.57
0.97712	5.57
0.99378	5.57
1.01045	5.57
1.02712	5.57
1.04378	5.57
1.06045	5.57
1.07712	5.57
1.09378	5.57
1.11045	5.57
1.12712	5.57
1.14378	5.57
1.16045	5.57
1.17712	5.57
1.19378	5.57
1.21045	5.57
1.22712	5.57
1.24378	5.57
1.26045	5.57
1.27712	5.57
1.29378	5.57
1.31045	5.57
1.32712	5.57
1.34378	5.57
1.36045	5.57
1.37712	5.57
1.39378	5.57
1.41045	5.57
1.42712	5.57
1.44378	5.57
1.46045	5.57
1.47712	5.57
1.49378	5.57
1.51045	5.57
1.52712	5.57
1.54378	5.57
1.56045	5.57
1.57712	5.57
1.59378	5.57
1.61045	5.57
1.62712	5.57
1.64378	5.56
1.66045	5.55
1.67712	5.54
1.69378	5.53
1.71045	5.52
1.72712	5.51
1.74378	5.50
1.76045	5.49
1.77712	5.48
1.79378	5.47
1.81045	5.46
1.82712	5.45
1.84378	5.44
1.86045	5.43
1.87712	5.42
1.89378	5.41
1.91045	5.40
1.92712	5.39
1.94378	5.38
1.96045	5.37
1.97712	5.36
1.99378	5.35
2.01045	5.34
2.02712	5.33
2.04378	5.32
2.06045	5.31
2.07712	5.30
2.09378	5.29
2.11045	5.28
2.12712	5.27
2.14378	5.26
2.16045	5.25
2.17712	5.24
2.19378	5.23
2.21045	5.22
2.22712	5.21
2.24378	5.20
2.26045	5.19
2.27712	5.18
2.29378	5.18
2.31045	5.17
2.32712	5.16
2.34378	5.15
2.36045	5.14
2.37712	5.13
2.39378	5.13
2.41045	5.13
2.42712	5.13
2.44378	5.13
2.46045	5.13
2.47712	5.13
2.49378	5.13
2.51045	5.13
2.52712	5.13
2.54378	5.13
2.56045	5.13
2.57712	5.13
2.59378	5.13
2.61045	5.13
2.62712	5.13
2.64378	5.13
2.66045	5.13
2.67712	5.13
2.69378	5.13
2.71045	5.13
2.72712	5.13
2.74378	5.13
2.76045	5.13
2.77712	5.13
2.79378	5.13
2.81045	5.13
2.82712	5.13
2.84378	5.13
2.86045	5.13
2.87712	5.13
2.89378	5.13
2.91045	5.13
2.92712	5.13
2.94378	5.13
2.96045	5.13
2.97712	5.13
2.99378	5.13
3.01045	5.12
3.02712	5.12
3.04378	5.12
3.06045	5.12
3.07712	5.12
3.09378	5.12
3.11045	5.12
3.12712	5.12
3.14378	5.12
3.16045	5.12
3.17712	5.12
3.19378	5.12
3.21045	5.12
3.22712	5.12
3.24378	5.12
3.26045	5.12
3.27712	5.12
3.29378	5.12
3.31045	5.12
3.32712	5.12
3.34378	5.12
3.36045	5.12
3.37712	5.12
3.39378	5.12
3.41045	5.12
3.42712	5.12
3.44378	5.12
3.46045	5.12
3.47712	5.12
3.49378	5.12
3.51045	5.12
3.52712	5.12
3.54378	5.12
3.56045	5.12
3.57712	5.13
3.59378	5.13
3.61045	5.13
3.62712	5.13
3.64378	5.13
3.66045	5.12
3.67712	5.12
3.69378	5.12
3.71045	5.12
3.72712	5.12
3.74378	5.12
3.76045	5.12
3.77712	5.12
3.79378	5.12
3.81045	5.12
3.82712	5.12
3.84378	5.12
3.86045	5.12
3.87712	5.12
3.89378	5.12
3.91045	5.12
3.92712	5.12
3.94378	5.12
3.96045	5.12
3.97712	5.12
3.99378	5.12

[Status Trace (Linear Velocity)]
Interval(msec)	1000
# of Points	240
Start Time(min)	0.010
End Time(min)	3.994
Intensity Units	
Intensity Multiplier	1
R.Time (min)	Intensity
0.01045	39.02
0.02712	37.08
0.04378	38.65
0.06045	40.03
0.07712	39.72
0.09378	39.03
0.11045	39.02
0.12712	39.03
0.14378	39.03
0.16045	39.03
0.17712	39.03
0.19378	39.03
0.21045	39.03
0.22712	39.03
0.24378	39.03
0.26045	39.02
0.27712	39.02
0.29378	39.02
0.31045	39.03
0.32712	39.03
0.34378	39.03
0.36045	39.02
0.37712	39.02
0.39378	39.02
0.41045	39.02
0.42712	39.02
0.44378	39.02
0.46045	39.03
0.47712	39.03
0.49378	39.03
0.51045	39.03
0.52712	39.03
0.54378	39.03
0.56045	39.03
0.57712	39.03
0.59378	39.03
0.61045	39.03
0.62712	39.03
0.64378	39.03
0.66045	39.03
0.67712	39.03
0.69378	39.03
0.71045	39.03
0.72712	39.03
0.74378	39.03
0.76045	39.03
0.77712	39.03
0.79378	39.03
0.81045	39.03
0.82712	39.03
0.84378	39.03
0.86045	39.03
0.87712	39.03
0.89378	39.03
0.91045	39.03
0.92712	39.03
0.94378	39.03
0.96045	39.03
0.97712	39.03
0.99378	39.03
1.01045	39.03
1.02712	39.03
1.04378	39.03
1.06045	39.03
1.07712	39.03
1.09378	39.03
1.11045	39.03
1.12712	39.03
1.14378	39.03
1.16045	39.03
1.17712	39.03
1.19378	39.03
1.21045	39.03
1.22712	39.03
1.24378	39.03
1.26045	39.03
1.27712	39.03
1.29378	39.03
1.31045	39.03
1.32712	39.03
1.34378	39.03
1.36045	39.03
1.37712	39.03
1.39378	39.03
1.41045	39.03
1.42712	39.03
1.44378	39.03
1.46045	39.03
1.47712	39.03
1.49378	39.03
1.51045	39.03
1.52712	39.03
1.54378	39.03
1.56045	39.03
1.57712	39.03
1.59378	39.03
1.61045	39.03
1.62712	39.01
1.64378	39.00
1.66045	38.97
1.67712	38.94
1.69378	38.90
1.71045	38.86
1.72712	38.83
1.74378	38.80
1.76045	38.77
1.77712	38.74
1.79378	38.71
1.81045	38.68
1.82712	38.64
1.84378	38.62
1.86045	38.58
1.87712	38.55
1.89378	38.52
1.91045	38.49
1.92712	38.46
1.94378	38.43
1.96045	38.40
1.97712	38.37
1.99378	38.34
2.01045	38.31
2.02712	38.28
2.04378	38.25
2.06045	38.22
2.07712	38.19
2.09378	38.16
2.11045	38.13
2.12712	38.10
2.14378	38.07
2.16045	38.04
2.17712	38.01
2.19378	37.98
2.21045	37.95
2.22712	37.92
2.24378	37.90
2.26045	37.86
2.27712	37.83
2.29378	37.81
2.31045	37.77
2.32712	37.74
2.34378	37.72
2.36045	37.69
2.37712	37.67
2.39378	37.66
2.41045	37.66
2.42712	37.66
2.44378	37.67
2.46045	37.66
2.47712	37.66
2.49378	37.66
2.51045	37.66
2.52712	37.65
2.54378	37.66
2.56045	37.66
2.57712	37.66
2.59378	37.66
2.61045	37.66
2.62712	37.66
2.64378	37.66
2.66045	37.66
2.67712	37.66
2.69378	37.66
2.71045	37.66
2.72712	37.65
2.74378	37.65
2.76045	37.65
2.77712	37.66
2.79378	37.66
2.81045	37.65
2.82712	37.65
2.84378	37.65
2.86045	37.65
2.87712	37.65
2.89378	37.65
2.91045	37.65
2.92712	37.65
2.94378	37.65
2.96045	37.64
2.97712	37.64
2.99378	37.64
3.01045	37.64
3.02712	37.64
3.04378	37.64
3.06045	37.64
3.07712	37.64
3.09378	37.64
3.11045	37.64
3.12712	37.64
3.14378	37.64
3.16045	37.64
3.17712	37.64
3.19378	37.63
3.21045	37.63
3.22712	37.63
3.24378	37.64
3.26045	37.64
3.27712	37.64
3.29378	37.64
3.31045	37.64
3.32712	37.64
3.34378	37.64
3.36045	37.64
3.37712	37.64
3.39378	37.64
3.41045	37.64
3.42712	37.64
3.44378	37.64
3.46045	37.64
3.47712	37.64
3.49378	37.64
3.51045	37.64
3.52712	37.64
3.54378	37.64
3.56045	37.64
3.57712	37.64
3.59378	37.64
3.61045	37.64
3.62712	37.64
3.64378	37.64
3.66045	37.64
3.67712	37.64
3.69378	37.64
3.71045	37.64
3.72712	37.64
3.74378	37.64
3.76045	37.64
3.77712	37.64
3.79378	37.64
3.81045	37.64
3.82712	37.64
3.84378	37.64
3.86045	37.64
3.87712	37.64
3.89378	37.64
3.91045	37.64
3.92712	37.64
3.94378	37.64
3.96045	37.64
3.97712	37.64
3.99378	37.64

