[Header]
Application Name	LabSolutions
Version	5.110
Data File Name	C:\Users\User\Desktop\GC Analyses\Jack\Nachusa Grasslands Sampling\T0 Timepoint July 12th\T0_07122022_002.gcd
Output Date	3/14/2023
Output Time	3:40:33 PM

[File Information]
Type	Data File
Generated	3/7/2023 1:54:43 PM
Generated by	System Administrator
Modified	3/7/2023 2:01:09 PM
Modified by	System Administrator

[Sample Information]
Operator Name	System Administrator
Acquired	3/7/2023 1:57:09 PM
Sample Type	0:Unknown
Level	0
Sample Name	002
Sample ID	002
ISTD Amount1	1
ISTD Amount2	1
ISTD Amount3	1
ISTD Amount4	1
ISTD Amount5	1
ISTD Amount6	1
ISTD Amount7	1
ISTD Amount8	1
ISTD Amount9	1
ISTD Amount10	1
ISTD Amount11	1
ISTD Amount12	1
ISTD Amount13	1
ISTD Amount14	1
ISTD Amount15	1
ISTD Amount16	1
ISTD Amount17	1
ISTD Amount18	1
ISTD Amount19	1
ISTD Amount20	1
ISTD Amount21	1
ISTD Amount22	1
ISTD Amount23	1
ISTD Amount24	1
ISTD Amount25	1
ISTD Amount26	1
ISTD Amount27	1
ISTD Amount28	1
ISTD Amount29	1
ISTD Amount30	1
ISTD Amount31	1
ISTD Amount32	1
Sample Amount	1
Dilution Factor	1
Vial#	1
Injection Volume	1
Injection Count	1
Bar Code	

[Original Files]
Data File	C:\Users\User\Desktop\GC Analyses\Jack\Nachusa Grasslands Sampling\T0 Timepoint July 12th\T0_07122022_002.gcd
Method File	C:\LabSolutions\Data\GHG_4min_2022\ghg3_togas_w_acet_4 min_new_int.gcm
Batch File	C:\LabSolutions\Data\AutoSamplerTesting\T0_07122022.gcb
Report Format File	c:\LabSolutions\System\DEFAULT.lsr

[File Description]


[Configuration]
Instrument Name	C0B7VH3-Instrument1
Instrument #	1
Line #	1
# of Detectors	3
Detector ID	DET#1	DET#2	DET#3
Detector Name	FID	PTCD	ECD
# of Channels	1	1	1

[Peak Table(Ch1)]
# of Peaks	3
Peak#	R.Time	I.Time	F.Time	Area	Height	A/H	Conc.	Mark	ID#	Name	k'	Plate #	Plate Ht.	Tailing	Resolution	Sep.Factor	Area Ratio	Height Ratio	Conc. %	Norm Conc.
1	1.461	1.439	1.531	2387	687	3.473	16.853	   	1	CO	0.000	4429	33.871	0.000	0.000	0.000	0	0	1.762	1.762
2	1.567	1.531	1.641	20974	10430	2.011	405.541	 V 	2	CH4	0.073	11259	13.322	1.280	1.448	0.000	0	0	42.406	42.406
3	1.996	1.934	2.605	2127464	996476	2.135	533.936	   	3	CO2	0.366	17071	8.787	1.320	7.138	5.034	0	0	55.832	55.832

[Peak Table(Ch2)]
# of Peaks	0

[Peak Table(Ch3)]
# of Peaks	3
Peak#	R.Time	I.Time	F.Time	Area	Height	A/H	Conc.	Mark	ID#	Name	k'	Plate #	Plate Ht.	Tailing	Resolution	Sep.Factor	Area Ratio	Height Ratio	Conc. %	Norm Conc.
1	2.462	2.348	2.524	1338	301	4.448	0.000	   			0.000	3089	48.565	0.000	0.000	0.000	0	0	0.000	0.000
2	2.557	2.524	2.634	1123	225	5.002	0.000	 V 			0.039	1571	95.506	0.000	0.438	0.000	0	0	0.000	0.000
3	2.873	2.653	3.426	61330	15090	4.064	1.566	   	1	N2O	0.167	12654	11.854	1.639	1.751	4.308	0	0	100.000	100.000

[Compound Results(Ch1)]
# of IDs	6
ID#	Name	R.Time	Area	Height	Conc.	Curve	3rd	2nd	1st	Constant	Area Ratio	Height Ratio	Conc. %	Norm Conc.
1	CO	1.461	2387	687	16.853	Linear	0.000000e+00	0.000000e+00	1.416423e+002	0.000000e+00	0	0	1.762	1.762
2	CH4	1.567	20974	10430	405.541	Linear	0.000000e+00	0.000000e+00	5.171738e+001	0.000000e+00	0	0	42.406	42.406
3	CO2	1.996	2127464	996476	533.936	Linear	0.000000e+00	0.000000e+00	3.984494e+003	0.000000e+00	0	0	55.832	55.832
4	Ethylene	0.000	0	0	0.000	Linear	0.000000e+00	0.000000e+00	0.000000e+00	0.000000e+00	0	0	0.000	0.000
5	Acetylene	0.000	0	0	0.000	Linear	0.000000e+00	0.000000e+00	0.000000e+00	0.000000e+00	0	0	0.000	0.000
6	Ethane	0.000	0	0	0.000	Linear	0.000000e+00	0.000000e+00	0.000000e+00	0.000000e+00	0	0	0.000	0.000

[Compound Results(Ch2)]
# of IDs	5
ID#	Name	R.Time	Area	Height	Conc.	Curve	3rd	2nd	1st	Constant	Area Ratio	Height Ratio	Conc. %	Norm Conc.
1	Hydrogen	0.000	0	0	0.000	Linear	0.000000e+00	0.000000e+00	0.000000e+00	0.000000e+00	0	0	0.000	0.000
2	Oxygen	0.000	0	0	0.000	Linear	0.000000e+00	0.000000e+00	0.000000e+00	0.000000e+00	0	0	0.000	0.000
3	Nitrogen	0.000	0	0	0.000	Linear	0.000000e+00	0.000000e+00	0.000000e+00	0.000000e+00	0	0	0.000	0.000
4	Methane	0.000	0	0	0.000	Linear	0.000000e+00	0.000000e+00	0.000000e+00	0.000000e+00	0	0	0.000	0.000
5	Carbon Monoxide	0.000	0	0	0.000	Linear	0.000000e+00	0.000000e+00	0.000000e+00	0.000000e+00	0	0	0.000	0.000

[Compound Results(Ch3)]
# of IDs	2
ID#	Name	R.Time	Area	Height	Conc.	Curve	3rd	2nd	1st	Constant	Area Ratio	Height Ratio	Conc. %	Norm Conc.
1	N2O	2.873	61330	15090	1.566	Linear	0.000000e+00	0.000000e+00	3.915173e+004	0.000000e+00	0	0	100.000	100.000
2	SF6	0.000	0	0	0.000	Linear	0.000000e+00	0.000000e+00	0.000000e+00	0.000000e+00	0	0	0.000	0.000

[Group Results(Ch1)]
# of Groups	0

[Group Results(Ch2)]
# of Groups	0

[Group Results(Ch3)]
# of Groups	0

[Chromatogram (Ch1)]
Interval(msec)	220
# of Points	1091
Start Time(min)	0.002
End Time(min)	3.998
R.Time (min)	Intensity
0.00167	10
0.00533	12
0.00900	12
0.01267	10
0.01633	9
0.02000	8
0.02367	5
0.02733	4
0.03100	3
0.03467	2
0.03833	-2
0.04200	-6
0.04567	-8
0.04933	-9
0.05300	-7
0.05667	-2
0.06033	3
0.06400	8
0.06767	12
0.07133	13
0.07500	13
0.07867	14
0.08233	16
0.08600	20
0.08967	20
0.09333	18
0.09700	15
0.10067	11
0.10433	9
0.10800	3
0.11167	-3
0.11533	-4
0.11900	-1
0.12267	2
0.12633	0
0.13000	-0
0.13367	2
0.13733	2
0.14100	-0
0.14467	2
0.14833	5
0.15200	9
0.15567	15
0.15933	21
0.16300	20
0.16667	18
0.17033	19
0.17400	21
0.17767	26
0.18133	27
0.18500	26
0.18867	26
0.19233	23
0.19600	16
0.19967	8
0.20333	0
0.20700	-6
0.21067	-9
0.21433	-11
0.21800	-12
0.22167	-14
0.22533	-13
0.22900	-9
0.23267	-2
0.23633	8
0.24000	19
0.24367	28
0.24733	31
0.25100	31
0.25467	28
0.25833	23
0.26200	20
0.26567	21
0.26933	24
0.27300	27
0.27667	26
0.28033	21
0.28400	17
0.28767	11
0.29133	5
0.29500	1
0.29867	0
0.30233	0
0.30600	-1
0.30967	-1
0.31333	-1
0.31700	-1
0.32067	-1
0.32433	1
0.32800	2
0.33167	-1
0.33533	-6
0.33900	-7
0.34267	-6
0.34633	-4
0.35000	-2
0.35367	1
0.35733	7
0.36100	14
0.36467	22
0.36833	30
0.37200	32
0.37567	31
0.37933	26
0.38300	19
0.38667	10
0.39033	2
0.39400	-6
0.39767	-13
0.40133	-17
0.40500	-16
0.40867	-12
0.41233	-7
0.41600	-6
0.41967	-7
0.42333	-11
0.42700	-11
0.43067	-6
0.43433	1
0.43800	5
0.44167	9
0.44533	16
0.44900	23
0.45267	29
0.45633	28
0.46000	23
0.46367	14
0.46733	7
0.47100	-0
0.47467	-3
0.47833	-2
0.48200	-1
0.48567	1
0.48933	4
0.49300	9
0.49667	15
0.50033	16
0.50400	16
0.50767	18
0.51133	22
0.51500	23
0.51867	17
0.52233	9
0.52600	15
0.52967	18
0.53333	18
0.53700	21
0.54067	24
0.54433	24
0.54800	20
0.55167	14
0.55533	10
0.55900	10
0.56267	11
0.56633	13
0.57000	14
0.57367	11
0.57733	6
0.58100	-2
0.58467	-11
0.58833	-16
0.59200	-15
0.59567	-12
0.59933	-6
0.60300	-1
0.60667	4
0.61033	9
0.61400	16
0.61767	23
0.62133	24
0.62500	22
0.62867	20
0.63233	19
0.63600	17
0.63967	12
0.64333	7
0.64700	3
0.65067	1
0.65433	1
0.65800	3
0.66167	4
0.66533	7
0.66900	10
0.67267	13
0.67633	13
0.68000	12
0.68367	10
0.68733	10
0.69100	11
0.69467	7
0.69833	-1
0.70200	-7
0.70567	-5
0.70933	2
0.71300	9
0.71667	14
0.72033	10
0.72400	3
0.72767	-2
0.73133	-6
0.73500	-6
0.73867	-6
0.74233	-9
0.74600	-13
0.74967	-17
0.75333	-21
0.75700	-21
0.76067	-20
0.76433	-18
0.76800	-17
0.77167	-14
0.77533	-10
0.77900	-8
0.78267	-9
0.78633	-11
0.79000	-13
0.79367	-15
0.79733	-13
0.80100	-8
0.80467	-6
0.80833	-6
0.81200	-8
0.81567	-13
0.81933	-16
0.82300	-16
0.82667	-11
0.83033	-4
0.83400	3
0.83767	8
0.84133	9
0.84500	7
0.84867	1
0.85233	-8
0.85600	-14
0.85967	-15
0.86333	-14
0.86700	-14
0.87067	-18
0.87433	-19
0.87800	-17
0.88167	-13
0.88533	-8
0.88900	-4
0.89267	-4
0.89633	-8
0.90000	-14
0.90367	-18
0.90733	-18
0.91100	-16
0.91467	-13
0.91833	-13
0.92200	-14
0.92567	-13
0.92933	-13
0.93300	-14
0.93667	-13
0.94033	-7
0.94400	-0
0.94767	6
0.95133	10
0.95500	10
0.95867	7
0.96233	4
0.96600	-0
0.96967	-6
0.97333	-10
0.97700	-12
0.98067	-11
0.98433	-9
0.98800	-8
0.99167	-6
0.99533	-5
0.99900	-4
1.00267	-1
1.00633	2
1.01000	1
1.01367	-1
1.01733	-4
1.02100	-9
1.02467	-12
1.02833	-11
1.03200	-8
1.03567	-6
1.03933	-2
1.04300	3
1.04667	6
1.05033	7
1.05400	5
1.05767	-0
1.06133	-7
1.06500	-12
1.06867	-15
1.07233	-15
1.07600	-17
1.07967	-19
1.08333	-24
1.08700	-29
1.09067	-30
1.09433	-26
1.09800	-19
1.10167	-16
1.10533	-13
1.10900	-9
1.11267	-6
1.11633	-9
1.12000	-9
1.12367	-6
1.12733	-2
1.13100	4
1.13467	11
1.13833	13
1.14200	13
1.14567	12
1.14933	4
1.15300	-5
1.15667	-13
1.16033	-15
1.16400	-16
1.16767	-17
1.17133	-18
1.17500	-18
1.17867	-15
1.18233	-12
1.18600	-13
1.18967	-17
1.19333	-21
1.19700	-24
1.20067	-25
1.20433	-23
1.20800	-18
1.21167	-13
1.21533	-11
1.21900	-10
1.22267	-10
1.22633	-9
1.23000	-8
1.23367	-6
1.23733	-4
1.24100	-1
1.24467	3
1.24833	5
1.25200	4
1.25567	1
1.25933	-1
1.26300	-3
1.26667	-7
1.27033	-11
1.27400	-14
1.27767	-14
1.28133	-12
1.28500	-8
1.28867	-4
1.29233	-3
1.29600	-5
1.29967	-8
1.30333	-10
1.30700	-11
1.31067	-12
1.31433	-14
1.31800	-14
1.32167	-15
1.32533	-16
1.32900	-17
1.33267	-14
1.33633	-10
1.34000	-6
1.34367	-4
1.34733	-7
1.35100	-11
1.35467	-17
1.35833	-22
1.36200	-26
1.36567	-25
1.36933	-21
1.37300	-18
1.37667	-17
1.38033	-17
1.38400	-18
1.38767	-19
1.39133	-18
1.39500	-16
1.39867	-14
1.40233	-11
1.40600	-9
1.40967	-7
1.41333	-6
1.41700	-7
1.42067	-9
1.42433	-13
1.42800	-17
1.43167	-19
1.43533	-17
1.43900	4
1.44267	84
1.44633	244
1.45000	429
1.45367	578
1.45733	662
1.46100	689
1.46467	684
1.46833	668
1.47200	655
1.47567	653
1.47933	659
1.48300	659
1.48667	638
1.49033	593
1.49400	534
1.49767	470
1.50133	409
1.50500	351
1.50867	295
1.51233	245
1.51600	200
1.51967	162
1.52333	128
1.52700	99
1.53067	79
1.53433	78
1.53800	141
1.54167	438
1.54533	1265
1.54900	2781
1.55267	4760
1.55633	6772
1.56000	8480
1.56367	9730
1.56733	10420
1.57100	10416
1.57467	9642
1.57833	8235
1.58200	6529
1.58567	4869
1.58933	3467
1.59300	2388
1.59667	1608
1.60033	1066
1.60400	699
1.60767	453
1.61133	291
1.61500	189
1.61867	123
1.62233	78
1.62600	44
1.62967	17
1.63333	-1
1.63700	-13
1.64067	-17
1.64433	-17
1.64800	-16
1.65167	-13
1.65533	-9
1.65900	-6
1.66267	-4
1.66633	-3
1.67000	-2
1.67367	-5
1.67733	-11
1.68100	-19
1.68467	-27
1.68833	-34
1.69200	-38
1.69567	-39
1.69933	-36
1.70300	-29
1.70667	-18
1.71033	-7
1.71400	0
1.71767	4
1.72133	4
1.72500	1
1.72867	-6
1.73233	-14
1.73600	-19
1.73967	-22
1.74333	-23
1.74700	-23
1.75067	-22
1.75433	-22
1.75800	-23
1.76167	-21
1.76533	-17
1.76900	-15
1.77267	-18
1.77633	-21
1.78000	-23
1.78367	-22
1.78733	-16
1.79100	-7
1.79467	-0
1.79833	-0
1.80200	-5
1.80567	-15
1.80933	-24
1.81300	-29
1.81667	-28
1.82033	-22
1.82400	-16
1.82767	-9
1.83133	-3
1.83500	1
1.83867	-0
1.84233	-6
1.84600	-12
1.84967	-16
1.85333	-21
1.85700	-23
1.86067	-22
1.86433	-21
1.86800	-20
1.87167	-14
1.87533	-9
1.87900	-5
1.88267	-2
1.88633	-0
1.89000	4
1.89367	7
1.89733	4
1.90100	-3
1.90467	-11
1.90833	-17
1.91200	-21
1.91567	-23
1.91933	-27
1.92300	-30
1.92667	-31
1.93033	-28
1.93400	-21
1.93767	-11
1.94133	-1
1.94500	7
1.94867	17
1.95233	47
1.95600	200
1.95967	1079
1.96333	5196
1.96700	19788
1.97067	59382
1.97433	142561
1.97800	278927
1.98167	456848
1.98533	646622
1.98900	815255
1.99267	937240
1.99633	996498
2.00000	986569
2.00367	912573
2.00733	791064
2.01100	645756
2.01467	500297
2.01833	371662
2.02200	267790
2.02567	189290
2.02933	132679
2.03300	93128
2.03667	66039
2.04033	47668
2.04400	35233
2.04767	26776
2.05133	20963
2.05500	16902
2.05867	14004
2.06233	11883
2.06600	10286
2.06967	9054
2.07333	8080
2.07700	7297
2.08067	6652
2.08433	6114
2.08800	5662
2.09167	5275
2.09533	4930
2.09900	4615
2.10267	4330
2.10633	4072
2.11000	3841
2.11367	3637
2.11733	3455
2.12100	3292
2.12467	3142
2.12833	3004
2.13200	2878
2.13567	2765
2.13933	2662
2.14300	2568
2.14667	2478
2.15033	2390
2.15400	2305
2.15767	2223
2.16133	2146
2.16500	2073
2.16867	2005
2.17233	1936
2.17600	1866
2.17967	1801
2.18333	1745
2.18700	1695
2.19067	1649
2.19433	1609
2.19800	1573
2.20167	1538
2.20533	1503
2.20900	1468
2.21267	1436
2.21633	1409
2.22000	1380
2.22367	1346
2.22733	1311
2.23100	1277
2.23467	1244
2.23833	1212
2.24200	1182
2.24567	1152
2.24933	1127
2.25300	1109
2.25667	1093
2.26033	1077
2.26400	1064
2.26767	1049
2.27133	1033
2.27500	1016
2.27867	996
2.28233	972
2.28600	948
2.28967	924
2.29333	904
2.29700	887
2.30067	872
2.30433	860
2.30800	853
2.31167	849
2.31533	844
2.31900	832
2.32267	815
2.32633	798
2.33000	785
2.33367	775
2.33733	768
2.34100	760
2.34467	750
2.34833	739
2.35200	729
2.35567	721
2.35933	712
2.36300	705
2.36667	700
2.37033	695
2.37400	689
2.37767	681
2.38133	671
2.38500	659
2.38867	647
2.39233	635
2.39600	628
2.39967	623
2.40333	620
2.40700	616
2.41067	611
2.41433	607
2.41800	605
2.42167	602
2.42533	600
2.42900	598
2.43267	592
2.43633	583
2.44000	575
2.44367	567
2.44733	559
2.45100	551
2.45467	542
2.45833	534
2.46200	526
2.46567	521
2.46933	521
2.47300	524
2.47667	527
2.48033	532
2.48400	532
2.48767	529
2.49133	524
2.49500	518
2.49867	512
2.50233	507
2.50600	502
2.50967	496
2.51333	492
2.51700	490
2.52067	489
2.52433	488
2.52800	489
2.53167	490
2.53533	490
2.53900	487
2.54267	483
2.54633	477
2.55000	473
2.55367	472
2.55733	473
2.56100	474
2.56467	473
2.56833	468
2.57200	463
2.57567	459
2.57933	454
2.58300	449
2.58667	444
2.59033	443
2.59400	443
2.59767	441
2.60133	438
2.60500	434
2.60867	429
2.61233	429
2.61600	436
2.61967	444
2.62333	448
2.62700	449
2.63067	445
2.63433	438
2.63800	431
2.64167	426
2.64533	425
2.64900	428
2.65267	431
2.65633	434
2.66000	437
2.66367	442
2.66733	444
2.67100	440
2.67467	435
2.67833	430
2.68200	426
2.68567	423
2.68933	421
2.69300	417
2.69667	415
2.70033	414
2.70400	416
2.70767	419
2.71133	421
2.71500	422
2.71867	425
2.72233	429
2.72600	432
2.72967	432
2.73333	431
2.73700	427
2.74067	419
2.74433	412
2.74800	410
2.75167	410
2.75533	412
2.75900	415
2.76267	420
2.76633	426
2.77000	430
2.77367	433
2.77733	431
2.78100	427
2.78467	423
2.78833	421
2.79200	422
2.79567	421
2.79933	416
2.80300	411
2.80667	409
2.81033	409
2.81400	409
2.81767	408
2.82133	408
2.82500	412
2.82867	420
2.83233	429
2.83600	432
2.83967	429
2.84333	423
2.84700	415
2.85067	409
2.85433	409
2.85800	414
2.86167	418
2.86533	421
2.86900	426
2.87267	434
2.87633	442
2.88000	444
2.88367	437
2.88733	426
2.89100	420
2.89467	421
2.89833	422
2.90200	419
2.90567	417
2.90933	415
2.91300	414
2.91667	415
2.92033	417
2.92400	420
2.92767	425
2.93133	430
2.93500	433
2.93867	431
2.94233	422
2.94600	413
2.94967	409
2.95333	411
2.95700	417
2.96067	420
2.96433	421
2.96800	419
2.97167	418
2.97533	419
2.97900	422
2.98267	429
2.98633	438
2.99000	443
2.99367	445
2.99733	446
3.00100	448
3.00467	449
3.00833	448
3.01200	443
3.01567	438
3.01933	436
3.02300	436
3.02667	437
3.03033	441
3.03400	445
3.03767	449
3.04133	454
3.04500	458
3.04867	459
3.05233	454
3.05600	447
3.05967	440
3.06333	436
3.06700	433
3.07067	431
3.07433	428
3.07800	425
3.08167	423
3.08533	421
3.08900	423
3.09267	430
3.09633	440
3.10000	447
3.10367	447
3.10733	441
3.11100	434
3.11467	429
3.11833	428
3.12200	430
3.12567	432
3.12933	432
3.13300	432
3.13667	432
3.14033	436
3.14400	439
3.14767	441
3.15133	444
3.15500	447
3.15867	450
3.16233	450
3.16600	449
3.16967	449
3.17333	448
3.17700	447
3.18067	448
3.18433	451
3.18800	454
3.19167	455
3.19533	452
3.19900	448
3.20267	445
3.20633	446
3.21000	450
3.21367	455
3.21733	459
3.22100	457
3.22467	452
3.22833	446
3.23200	442
3.23567	440
3.23933	442
3.24300	448
3.24667	455
3.25033	462
3.25400	463
3.25767	458
3.26133	449
3.26500	441
3.26867	436
3.27233	436
3.27600	440
3.27967	445
3.28333	450
3.28700	453
3.29067	454
3.29433	452
3.29800	450
3.30167	451
3.30533	454
3.30900	458
3.31267	461
3.31633	462
3.32000	458
3.32367	452
3.32733	451
3.33100	450
3.33467	446
3.33833	440
3.34200	435
3.34567	432
3.34933	434
3.35300	440
3.35667	445
3.36033	446
3.36400	444
3.36767	436
3.37133	428
3.37500	425
3.37867	427
3.38233	431
3.38600	437
3.38967	441
3.39333	442
3.39700	445
3.40067	451
3.40433	457
3.40800	456
3.41167	454
3.41533	452
3.41900	450
3.42267	450
3.42633	451
3.43000	450
3.43367	447
3.43733	445
3.44100	448
3.44467	451
3.44833	451
3.45200	451
3.45567	452
3.45933	452
3.46300	450
3.46667	450
3.47033	454
3.47400	458
3.47767	457
3.48133	455
3.48500	453
3.48867	453
3.49233	453
3.49600	452
3.49967	452
3.50333	450
3.50700	444
3.51067	438
3.51433	432
3.51800	430
3.52167	427
3.52533	425
3.52900	429
3.53267	436
3.53633	437
3.54000	428
3.54367	419
3.54733	413
3.55100	413
3.55467	416
3.55833	419
3.56200	422
3.56567	426
3.56933	431
3.57300	437
3.57667	441
3.58033	444
3.58400	444
3.58767	443
3.59133	439
3.59500	433
3.59867	429
3.60233	427
3.60600	430
3.60967	435
3.61333	438
3.61700	439
3.62067	437
3.62433	436
3.62800	435
3.63167	430
3.63533	426
3.63900	426
3.64267	431
3.64633	437
3.65000	443
3.65367	447
3.65733	449
3.66100	451
3.66467	454
3.66833	455
3.67200	448
3.67567	435
3.67933	425
3.68300	420
3.68667	421
3.69033	424
3.69400	423
3.69767	421
3.70133	421
3.70500	420
3.70867	419
3.71233	420
3.71600	422
3.71967	422
3.72333	419
3.72700	412
3.73067	406
3.73433	403
3.73800	405
3.74167	409
3.74533	415
3.74900	421
3.75267	425
3.75633	425
3.76000	422
3.76367	421
3.76733	421
3.77100	422
3.77467	423
3.77833	422
3.78200	420
3.78567	419
3.78933	420
3.79300	425
3.79667	431
3.80033	432
3.80400	431
3.80767	428
3.81133	425
3.81500	420
3.81867	415
3.82233	410
3.82600	410
3.82967	416
3.83333	422
3.83700	424
3.84067	422
3.84433	416
3.84800	406
3.85167	393
3.85533	383
3.85900	380
3.86267	385
3.86633	394
3.87000	403
3.87367	410
3.87733	415
3.88100	420
3.88467	425
3.88833	424
3.89200	418
3.89567	409
3.89933	397
3.90300	386
3.90667	380
3.91033	376
3.91400	375
3.91767	377
3.92133	380
3.92500	383
3.92867	388
3.93233	393
3.93600	398
3.93967	401
3.94333	401
3.94700	401
3.95067	400
3.95433	399
3.95800	400
3.96167	403
3.96533	405
3.96900	405
3.97267	405
3.97633	408
3.98000	414
3.98367	420
3.98733	423
3.99100	423
3.99467	421
3.99833	418

[Chromatogram (Ch2)]
Interval(msec)	220
# of Points	1091
Start Time(min)	0.002
End Time(min)	3.998
R.Time (min)	Intensity
0.00167	-0
0.00533	-0
0.00900	-1
0.01267	-1
0.01633	-2
0.02000	-2
0.02367	-2
0.02733	-2
0.03100	-3
0.03467	-3
0.03833	-3
0.04200	-3
0.04567	-3
0.04933	-3
0.05300	-3
0.05667	-2
0.06033	-2
0.06400	-2
0.06767	-2
0.07133	-2
0.07500	-2
0.07867	-2
0.08233	-2
0.08600	-2
0.08967	-2
0.09333	-2
0.09700	-1
0.10067	-1
0.10433	-1
0.10800	-0
0.11167	-0
0.11533	0
0.11900	0
0.12267	1
0.12633	1
0.13000	1
0.13367	1
0.13733	1
0.14100	2
0.14467	2
0.14833	3
0.15200	3
0.15567	3
0.15933	3
0.16300	3
0.16667	3
0.17033	3
0.17400	3
0.17767	3
0.18133	3
0.18500	2
0.18867	2
0.19233	2
0.19600	2
0.19967	2
0.20333	2
0.20700	2
0.21067	2
0.21433	2
0.21800	2
0.22167	1
0.22533	1
0.22900	0
0.23267	-0
0.23633	-0
0.24000	-1
0.24367	-1
0.24733	-1
0.25100	-1
0.25467	-1
0.25833	-1
0.26200	-1
0.26567	-0
0.26933	-0
0.27300	0
0.27667	0
0.28033	1
0.28400	1
0.28767	1
0.29133	1
0.29500	1
0.29867	2
0.30233	2
0.30600	2
0.30967	2
0.31333	2
0.31700	3
0.32067	3
0.32433	2
0.32800	2
0.33167	2
0.33533	1
0.33900	1
0.34267	0
0.34633	0
0.35000	0
0.35367	0
0.35733	0
0.36100	0
0.36467	1
0.36833	1
0.37200	1
0.37567	1
0.37933	1
0.38300	1
0.38667	1
0.39033	0
0.39400	0
0.39767	0
0.40133	0
0.40500	0
0.40867	1
0.41233	1
0.41600	1
0.41967	1
0.42333	1
0.42700	1
0.43067	1
0.43433	1
0.43800	0
0.44167	0
0.44533	0
0.44900	1
0.45267	1
0.45633	1
0.46000	1
0.46367	1
0.46733	1
0.47100	2
0.47467	2
0.47833	2
0.48200	1
0.48567	1
0.48933	1
0.49300	2
0.49667	2
0.50033	2
0.50400	2
0.50767	2
0.51133	2
0.51500	2
0.51867	2
0.52233	2
0.52600	2
0.52967	2
0.53333	1
0.53700	1
0.54067	1
0.54433	1
0.54800	1
0.55167	1
0.55533	1
0.55900	1
0.56267	1
0.56633	1
0.57000	2
0.57367	2
0.57733	2
0.58100	2
0.58467	2
0.58833	1
0.59200	1
0.59567	1
0.59933	0
0.60300	-0
0.60667	-1
0.61033	-1
0.61400	-1
0.61767	-1
0.62133	-1
0.62500	-1
0.62867	-1
0.63233	-1
0.63600	-1
0.63967	-1
0.64333	-0
0.64700	-0
0.65067	0
0.65433	0
0.65800	0
0.66167	0
0.66533	0
0.66900	-0
0.67267	-0
0.67633	-1
0.68000	-1
0.68367	-1
0.68733	-1
0.69100	-1
0.69467	-1
0.69833	-1
0.70200	-1
0.70567	-1
0.70933	-1
0.71300	-1
0.71667	-1
0.72033	-1
0.72400	-1
0.72767	-1
0.73133	-1
0.73500	-1
0.73867	-1
0.74233	-1
0.74600	-1
0.74967	-1
0.75333	-1
0.75700	-1
0.76067	-1
0.76433	-2
0.76800	-2
0.77167	-2
0.77533	-2
0.77900	-2
0.78267	-2
0.78633	-1
0.79000	-1
0.79367	-1
0.79733	-1
0.80100	-1
0.80467	-1
0.80833	-1
0.81200	-1
0.81567	-1
0.81933	-1
0.82300	-1
0.82667	-1
0.83033	-0
0.83400	-0
0.83767	-0
0.84133	0
0.84500	0
0.84867	-0
0.85233	-0
0.85600	-0
0.85967	-1
0.86333	-1
0.86700	-1
0.87067	-0
0.87433	-0
0.87800	-0
0.88167	-0
0.88533	-0
0.88900	-0
0.89267	0
0.89633	0
0.90000	1
0.90367	1
0.90733	1
0.91100	1
0.91467	1
0.91833	0
0.92200	0
0.92567	-0
0.92933	-0
0.93300	-0
0.93667	-1
0.94033	-1
0.94400	-1
0.94767	-2
0.95133	-2
0.95500	-2
0.95867	-2
0.96233	-2
0.96600	-2
0.96967	-2
0.97333	-2
0.97700	-2
0.98067	-2
0.98433	-2
0.98800	-2
0.99167	-2
0.99533	-2
0.99900	-2
1.00267	-2
1.00633	-2
1.01000	-2
1.01367	-2
1.01733	-1
1.02100	-1
1.02467	-1
1.02833	-1
1.03200	-1
1.03567	-1
1.03933	-1
1.04300	-1
1.04667	-1
1.05033	-1
1.05400	-1
1.05767	-0
1.06133	-1
1.06500	-1
1.06867	-1
1.07233	-1
1.07600	-1
1.07967	-1
1.08333	-1
1.08700	-1
1.09067	-1
1.09433	-1
1.09800	-2
1.10167	-2
1.10533	-2
1.10900	-2
1.11267	-2
1.11633	-2
1.12000	-2
1.12367	-2
1.12733	-1
1.13100	-1
1.13467	-1
1.13833	-1
1.14200	-1
1.14567	-1
1.14933	-1
1.15300	-1
1.15667	-2
1.16033	-2
1.16400	-3
1.16767	-3
1.17133	-3
1.17500	-4
1.17867	-4
1.18233	-4
1.18600	-4
1.18967	-4
1.19333	-4
1.19700	-5
1.20067	-5
1.20433	-5
1.20800	-5
1.21167	-5
1.21533	-4
1.21900	-4
1.22267	-4
1.22633	-4
1.23000	-4
1.23367	-5
1.23733	-5
1.24100	-5
1.24467	-5
1.24833	-5
1.25200	-5
1.25567	-5
1.25933	-5
1.26300	-5
1.26667	-5
1.27033	-6
1.27400	-6
1.27767	-6
1.28133	-6
1.28500	-6
1.28867	-6
1.29233	-6
1.29600	-6
1.29967	-5
1.30333	-5
1.30700	-5
1.31067	-5
1.31433	-4
1.31800	-4
1.32167	-4
1.32533	-3
1.32900	-3
1.33267	-2
1.33633	-2
1.34000	-2
1.34367	-1
1.34733	-1
1.35100	-1
1.35467	-1
1.35833	-1
1.36200	-1
1.36567	-1
1.36933	-1
1.37300	-1
1.37667	-1
1.38033	-1
1.38400	-1
1.38767	-1
1.39133	-0
1.39500	-0
1.39867	0
1.40233	0
1.40600	0
1.40967	0
1.41333	0
1.41700	-0
1.42067	-0
1.42433	-0
1.42800	-0
1.43167	-0
1.43533	-1
1.43900	-1
1.44267	-1
1.44633	-1
1.45000	-1
1.45367	-1
1.45733	-0
1.46100	-0
1.46467	-0
1.46833	0
1.47200	0
1.47567	1
1.47933	1
1.48300	1
1.48667	1
1.49033	1
1.49400	1
1.49767	1
1.50133	0
1.50500	-0
1.50867	-1
1.51233	-2
1.51600	-2
1.51967	-3
1.52333	-3
1.52700	-3
1.53067	-3
1.53433	-4
1.53800	-4
1.54167	-4
1.54533	-4
1.54900	-4
1.55267	-4
1.55633	-4
1.56000	-3
1.56367	-3
1.56733	-3
1.57100	-4
1.57467	-4
1.57833	-4
1.58200	-4
1.58567	-5
1.58933	-5
1.59300	-6
1.59667	-7
1.60033	-7
1.60400	-8
1.60767	-9
1.61133	-11
1.61500	-13
1.61867	-15
1.62233	-17
1.62600	-20
1.62967	-23
1.63333	-27
1.63700	-30
1.64067	-34
1.64433	-37
1.64800	-41
1.65167	-44
1.65533	-48
1.65900	-51
1.66267	-55
1.66633	-59
1.67000	-63
1.67367	-68
1.67733	-72
1.68100	-77
1.68467	-82
1.68833	-86
1.69200	-90
1.69567	-94
1.69933	-97
1.70300	-100
1.70667	-102
1.71033	-104
1.71400	-106
1.71767	-108
1.72133	-109
1.72500	-110
1.72867	-111
1.73233	-112
1.73600	-112
1.73967	-113
1.74333	-114
1.74700	-114
1.75067	-114
1.75433	-115
1.75800	-115
1.76167	-115
1.76533	-115
1.76900	-115
1.77267	-116
1.77633	-117
1.78000	-117
1.78367	-118
1.78733	-118
1.79100	-118
1.79467	-118
1.79833	-119
1.80200	-119
1.80567	-119
1.80933	-118
1.81300	-118
1.81667	-117
1.82033	-117
1.82400	-117
1.82767	-117
1.83133	-117
1.83500	-118
1.83867	-119
1.84233	-119
1.84600	-120
1.84967	-120
1.85333	-120
1.85700	-120
1.86067	-120
1.86433	-120
1.86800	-120
1.87167	-120
1.87533	-120
1.87900	-120
1.88267	-119
1.88633	-119
1.89000	-119
1.89367	-119
1.89733	-119
1.90100	-118
1.90467	-118
1.90833	-117
1.91200	-116
1.91567	-116
1.91933	-116
1.92300	-116
1.92667	-115
1.93033	-115
1.93400	-114
1.93767	-114
1.94133	-113
1.94500	-113
1.94867	-113
1.95233	-113
1.95600	-113
1.95967	-113
1.96333	-113
1.96700	-113
1.97067	-112
1.97433	-112
1.97800	-112
1.98167	-112
1.98533	-112
1.98900	-112
1.99267	-112
1.99633	-112
2.00000	-112
2.00367	-111
2.00733	-111
2.01100	-111
2.01467	-110
2.01833	-110
2.02200	-109
2.02567	-109
2.02933	-108
2.03300	-108
2.03667	-107
2.04033	-107
2.04400	-107
2.04767	-107
2.05133	-107
2.05500	-107
2.05867	-106
2.06233	-106
2.06600	-105
2.06967	-104
2.07333	-104
2.07700	-104
2.08067	-104
2.08433	-104
2.08800	-103
2.09167	-103
2.09533	-103
2.09900	-103
2.10267	-103
2.10633	-103
2.11000	-103
2.11367	-103
2.11733	-103
2.12100	-103
2.12467	-102
2.12833	-102
2.13200	-101
2.13567	-100
2.13933	-100
2.14300	-100
2.14667	-100
2.15033	-100
2.15400	-101
2.15767	-101
2.16133	-101
2.16500	-100
2.16867	-100
2.17233	-99
2.17600	-98
2.17967	-98
2.18333	-98
2.18700	-97
2.19067	-97
2.19433	-97
2.19800	-97
2.20167	-97
2.20533	-97
2.20900	-97
2.21267	-97
2.21633	-97
2.22000	-96
2.22367	-96
2.22733	-96
2.23100	-95
2.23467	-94
2.23833	-93
2.24200	-93
2.24567	-92
2.24933	-92
2.25300	-93
2.25667	-93
2.26033	-93
2.26400	-93
2.26767	-93
2.27133	-92
2.27500	-91
2.27867	-91
2.28233	-90
2.28600	-90
2.28967	-90
2.29333	-90
2.29700	-89
2.30067	-89
2.30433	-88
2.30800	-88
2.31167	-87
2.31533	-87
2.31900	-86
2.32267	-86
2.32633	-85
2.33000	-85
2.33367	-84
2.33733	-83
2.34100	-83
2.34467	-82
2.34833	-82
2.35200	-81
2.35567	-81
2.35933	-81
2.36300	-80
2.36667	-79
2.37033	-78
2.37400	-76
2.37767	-73
2.38133	-70
2.38500	-66
2.38867	-62
2.39233	-58
2.39600	-54
2.39967	-49
2.40333	-45
2.40700	-41
2.41067	-36
2.41433	-33
2.41800	-29
2.42167	-26
2.42533	-23
2.42900	-21
2.43267	-19
2.43633	-17
2.44000	-15
2.44367	-13
2.44733	-11
2.45100	-9
2.45467	-7
2.45833	-5
2.46200	-5
2.46567	-4
2.46933	-3
2.47300	-2
2.47667	-1
2.48033	0
2.48400	1
2.48767	3
2.49133	4
2.49500	5
2.49867	6
2.50233	7
2.50600	7
2.50967	7
2.51333	8
2.51700	8
2.52067	8
2.52433	9
2.52800	10
2.53167	11
2.53533	12
2.53900	13
2.54267	13
2.54633	13
2.55000	13
2.55367	13
2.55733	13
2.56100	13
2.56467	13
2.56833	13
2.57200	13
2.57567	14
2.57933	14
2.58300	14
2.58667	15
2.59033	15
2.59400	15
2.59767	16
2.60133	16
2.60500	16
2.60867	17
2.61233	17
2.61600	17
2.61967	17
2.62333	17
2.62700	17
2.63067	18
2.63433	18
2.63800	19
2.64167	19
2.64533	20
2.64900	20
2.65267	21
2.65633	21
2.66000	21
2.66367	21
2.66733	20
2.67100	20
2.67467	20
2.67833	20
2.68200	20
2.68567	20
2.68933	21
2.69300	21
2.69667	22
2.70033	22
2.70400	22
2.70767	22
2.71133	22
2.71500	22
2.71867	21
2.72233	21
2.72600	21
2.72967	20
2.73333	20
2.73700	20
2.74067	20
2.74433	20
2.74800	20
2.75167	20
2.75533	20
2.75900	20
2.76267	21
2.76633	21
2.77000	22
2.77367	22
2.77733	23
2.78100	23
2.78467	24
2.78833	24
2.79200	24
2.79567	24
2.79933	24
2.80300	24
2.80667	24
2.81033	24
2.81400	24
2.81767	24
2.82133	24
2.82500	23
2.82867	23
2.83233	22
2.83600	21
2.83967	19
2.84333	15
2.84700	9
2.85067	0
2.85433	-13
2.85800	-30
2.86167	-53
2.86533	-80
2.86900	-112
2.87267	-150
2.87633	-194
2.88000	-243
2.88367	-296
2.88733	-355
2.89100	-417
2.89467	-484
2.89833	-555
2.90200	-629
2.90567	-706
2.90933	-785
2.91300	-867
2.91667	-952
2.92033	-1039
2.92400	-1127
2.92767	-1217
2.93133	-1308
2.93500	-1399
2.93867	-1478
2.94233	-1534
2.94600	-1557
2.94967	-1543
2.95333	-1495
2.95700	-1420
2.96067	-1325
2.96433	-1219
2.96800	-1107
2.97167	-994
2.97533	-885
2.97900	-783
2.98267	-688
2.98633	-601
2.99000	-522
2.99367	-452
2.99733	-390
3.00100	-336
3.00467	-289
3.00833	-247
3.01200	-211
3.01567	-180
3.01933	-153
3.02300	-130
3.02667	-110
3.03033	-93
3.03400	-79
3.03767	-66
3.04133	-56
3.04500	-46
3.04867	-39
3.05233	-32
3.05600	-26
3.05967	-21
3.06333	-17
3.06700	-13
3.07067	-10
3.07433	-7
3.07800	-4
3.08167	-2
3.08533	-0
3.08900	1
3.09267	3
3.09633	4
3.10000	5
3.10367	6
3.10733	7
3.11100	8
3.11467	9
3.11833	9
3.12200	10
3.12567	10
3.12933	10
3.13300	11
3.13667	11
3.14033	11
3.14400	12
3.14767	12
3.15133	12
3.15500	12
3.15867	12
3.16233	13
3.16600	13
3.16967	13
3.17333	13
3.17700	14
3.18067	14
3.18433	14
3.18800	15
3.19167	15
3.19533	16
3.19900	16
3.20267	17
3.20633	17
3.21000	18
3.21367	19
3.21733	19
3.22100	20
3.22467	20
3.22833	21
3.23200	21
3.23567	22
3.23933	22
3.24300	22
3.24667	23
3.25033	23
3.25400	23
3.25767	24
3.26133	24
3.26500	24
3.26867	24
3.27233	25
3.27600	25
3.27967	25
3.28333	25
3.28700	25
3.29067	25
3.29433	25
3.29800	25
3.30167	25
3.30533	25
3.30900	25
3.31267	25
3.31633	25
3.32000	25
3.32367	25
3.32733	25
3.33100	25
3.33467	25
3.33833	25
3.34200	25
3.34567	25
3.34933	25
3.35300	25
3.35667	25
3.36033	25
3.36400	25
3.36767	25
3.37133	25
3.37500	25
3.37867	25
3.38233	25
3.38600	25
3.38967	25
3.39333	25
3.39700	25
3.40067	25
3.40433	25
3.40800	26
3.41167	26
3.41533	26
3.41900	26
3.42267	26
3.42633	26
3.43000	26
3.43367	26
3.43733	25
3.44100	25
3.44467	25
3.44833	25
3.45200	25
3.45567	25
3.45933	25
3.46300	25
3.46667	25
3.47033	25
3.47400	25
3.47767	25
3.48133	25
3.48500	25
3.48867	25
3.49233	25
3.49600	25
3.49967	25
3.50333	25
3.50700	25
3.51067	25
3.51433	25
3.51800	25
3.52167	25
3.52533	25
3.52900	25
3.53267	25
3.53633	25
3.54000	25
3.54367	25
3.54733	25
3.55100	25
3.55467	25
3.55833	25
3.56200	24
3.56567	24
3.56933	24
3.57300	24
3.57667	24
3.58033	23
3.58400	23
3.58767	23
3.59133	23
3.59500	23
3.59867	23
3.60233	23
3.60600	23
3.60967	23
3.61333	23
3.61700	23
3.62067	23
3.62433	23
3.62800	23
3.63167	23
3.63533	23
3.63900	23
3.64267	23
3.64633	23
3.65000	23
3.65367	23
3.65733	23
3.66100	23
3.66467	23
3.66833	23
3.67200	23
3.67567	23
3.67933	23
3.68300	23
3.68667	24
3.69033	24
3.69400	24
3.69767	24
3.70133	24
3.70500	24
3.70867	24
3.71233	25
3.71600	25
3.71967	25
3.72333	25
3.72700	25
3.73067	25
3.73433	25
3.73800	25
3.74167	25
3.74533	25
3.74900	25
3.75267	24
3.75633	24
3.76000	24
3.76367	24
3.76733	24
3.77100	24
3.77467	24
3.77833	24
3.78200	24
3.78567	24
3.78933	23
3.79300	23
3.79667	23
3.80033	23
3.80400	23
3.80767	23
3.81133	23
3.81500	23
3.81867	23
3.82233	23
3.82600	23
3.82967	23
3.83333	23
3.83700	23
3.84067	23
3.84433	23
3.84800	23
3.85167	23
3.85533	23
3.85900	23
3.86267	23
3.86633	23
3.87000	23
3.87367	23
3.87733	23
3.88100	23
3.88467	23
3.88833	24
3.89200	24
3.89567	24
3.89933	24
3.90300	24
3.90667	24
3.91033	24
3.91400	24
3.91767	25
3.92133	25
3.92500	25
3.92867	25
3.93233	25
3.93600	25
3.93967	25
3.94333	25
3.94700	25
3.95067	25
3.95433	25
3.95800	25
3.96167	25
3.96533	25
3.96900	24
3.97267	24
3.97633	24
3.98000	24
3.98367	24
3.98733	24
3.99100	24
3.99467	24
3.99833	24

[Chromatogram (Ch3)]
Interval(msec)	220
# of Points	1091
Start Time(min)	0.002
End Time(min)	3.998
R.Time (min)	Intensity
0.00167	-1
0.00533	-3
0.00900	-3
0.01267	-4
0.01633	-4
0.02000	-4
0.02367	-5
0.02733	-4
0.03100	-4
0.03467	-4
0.03833	-4
0.04200	-5
0.04567	-4
0.04933	-2
0.05300	-0
0.05667	-1
0.06033	-2
0.06400	-1
0.06767	-2
0.07133	-2
0.07500	-1
0.07867	-1
0.08233	1
0.08600	3
0.08967	5
0.09333	8
0.09700	7
0.10067	5
0.10433	4
0.10800	2
0.11167	-0
0.11533	-2
0.11900	-3
0.12267	-3
0.12633	-2
0.13000	-0
0.13367	2
0.13733	2
0.14100	0
0.14467	-2
0.14833	-3
0.15200	-4
0.15567	-4
0.15933	-4
0.16300	-1
0.16667	-1
0.17033	-0
0.17400	-1
0.17767	-0
0.18133	-0
0.18500	-1
0.18867	1
0.19233	4
0.19600	6
0.19967	7
0.20333	6
0.20700	4
0.21067	6
0.21433	6
0.21800	4
0.22167	-1
0.22533	0
0.22900	3
0.23267	5
0.23633	5
0.24000	4
0.24367	2
0.24733	2
0.25100	4
0.25467	5
0.25833	5
0.26200	3
0.26567	1
0.26933	0
0.27300	-0
0.27667	-2
0.28033	-1
0.28400	3
0.28767	6
0.29133	8
0.29500	7
0.29867	7
0.30233	5
0.30600	2
0.30967	3
0.31333	4
0.31700	3
0.32067	2
0.32433	4
0.32800	6
0.33167	8
0.33533	8
0.33900	8
0.34267	10
0.34633	12
0.35000	14
0.35367	14
0.35733	12
0.36100	9
0.36467	8
0.36833	6
0.37200	6
0.37567	8
0.37933	9
0.38300	9
0.38667	8
0.39033	8
0.39400	9
0.39767	9
0.40133	10
0.40500	12
0.40867	15
0.41233	16
0.41600	18
0.41967	17
0.42333	16
0.42700	14
0.43067	12
0.43433	12
0.43800	11
0.44167	12
0.44533	15
0.44900	17
0.45267	15
0.45633	12
0.46000	11
0.46367	13
0.46733	14
0.47100	15
0.47467	14
0.47833	10
0.48200	8
0.48567	6
0.48933	7
0.49300	8
0.49667	6
0.50033	7
0.50400	8
0.50767	7
0.51133	6
0.51500	4
0.51867	3
0.52233	5
0.52600	7
0.52967	6
0.53333	6
0.53700	7
0.54067	9
0.54433	10
0.54800	9
0.55167	9
0.55533	9
0.55900	11
0.56267	11
0.56633	12
0.57000	13
0.57367	14
0.57733	15
0.58100	14
0.58467	13
0.58833	12
0.59200	10
0.59567	10
0.59933	9
0.60300	9
0.60667	11
0.61033	13
0.61400	14
0.61767	14
0.62133	14
0.62500	14
0.62867	15
0.63233	15
0.63600	15
0.63967	14
0.64333	14
0.64700	17
0.65067	19
0.65433	19
0.65800	18
0.66167	15
0.66533	12
0.66900	11
0.67267	10
0.67633	10
0.68000	11
0.68367	12
0.68733	11
0.69100	9
0.69467	10
0.69833	10
0.70200	10
0.70567	9
0.70933	8
0.71300	9
0.71667	10
0.72033	10
0.72400	12
0.72767	14
0.73133	15
0.73500	14
0.73867	11
0.74233	10
0.74600	9
0.74967	7
0.75333	8
0.75700	8
0.76067	8
0.76433	9
0.76800	10
0.77167	14
0.77533	15
0.77900	15
0.78267	15
0.78633	18
0.79000	18
0.79367	17
0.79733	16
0.80100	16
0.80467	15
0.80833	15
0.81200	14
0.81567	12
0.81933	13
0.82300	12
0.82667	12
0.83033	11
0.83400	12
0.83767	13
0.84133	13
0.84500	14
0.84867	16
0.85233	17
0.85600	17
0.85967	16
0.86333	14
0.86700	15
0.87067	17
0.87433	18
0.87800	14
0.88167	14
0.88533	15
0.88900	15
0.89267	16
0.89633	15
0.90000	15
0.90367	16
0.90733	15
0.91100	14
0.91467	15
0.91833	15
0.92200	14
0.92567	12
0.92933	12
0.93300	13
0.93667	15
0.94033	15
0.94400	16
0.94767	17
0.95133	18
0.95500	19
0.95867	18
0.96233	15
0.96600	12
0.96967	11
0.97333	12
0.97700	15
0.98067	15
0.98433	13
0.98800	15
0.99167	17
0.99533	18
0.99900	17
1.00267	17
1.00633	19
1.01000	19
1.01367	19
1.01733	20
1.02100	20
1.02467	20
1.02833	20
1.03200	18
1.03567	17
1.03933	18
1.04300	20
1.04667	17
1.05033	14
1.05400	13
1.05767	15
1.06133	16
1.06500	14
1.06867	12
1.07233	13
1.07600	15
1.07967	15
1.08333	15
1.08700	17
1.09067	18
1.09433	20
1.09800	20
1.10167	21
1.10533	22
1.10900	21
1.11267	21
1.11633	18
1.12000	15
1.12367	13
1.12733	12
1.13100	12
1.13467	14
1.13833	17
1.14200	21
1.14567	22
1.14933	22
1.15300	21
1.15667	22
1.16033	24
1.16400	24
1.16767	25
1.17133	26
1.17500	25
1.17867	24
1.18233	23
1.18600	20
1.18967	19
1.19333	21
1.19700	24
1.20067	23
1.20433	24
1.20800	23
1.21167	23
1.21533	24
1.21900	23
1.22267	25
1.22633	27
1.23000	28
1.23367	28
1.23733	27
1.24100	29
1.24467	28
1.24833	28
1.25200	26
1.25567	22
1.25933	22
1.26300	23
1.26667	22
1.27033	22
1.27400	19
1.27767	16
1.28133	15
1.28500	16
1.28867	19
1.29233	21
1.29600	22
1.29967	22
1.30333	19
1.30700	19
1.31067	22
1.31433	24
1.31800	25
1.32167	26
1.32533	26
1.32900	27
1.33267	27
1.33633	28
1.34000	26
1.34367	24
1.34733	23
1.35100	20
1.35467	19
1.35833	19
1.36200	21
1.36567	22
1.36933	23
1.37300	23
1.37667	24
1.38033	25
1.38400	25
1.38767	24
1.39133	23
1.39500	25
1.39867	21
1.40233	20
1.40600	20
1.40967	20
1.41333	21
1.41700	20
1.42067	20
1.42433	21
1.42800	22
1.43167	22
1.43533	22
1.43900	22
1.44267	21
1.44633	21
1.45000	21
1.45367	21
1.45733	20
1.46100	18
1.46467	16
1.46833	18
1.47200	22
1.47567	25
1.47933	25
1.48300	26
1.48667	27
1.49033	27
1.49400	26
1.49767	27
1.50133	28
1.50500	27
1.50867	24
1.51233	20
1.51600	20
1.51967	22
1.52333	24
1.52700	23
1.53067	24
1.53433	27
1.53800	26
1.54167	23
1.54533	24
1.54900	24
1.55267	25
1.55633	25
1.56000	23
1.56367	22
1.56733	22
1.57100	22
1.57467	23
1.57833	25
1.58200	28
1.58567	30
1.58933	32
1.59300	31
1.59667	30
1.60033	28
1.60400	28
1.60767	29
1.61133	30
1.61500	30
1.61867	33
1.62233	34
1.62600	34
1.62967	34
1.63333	33
1.63700	31
1.64067	31
1.64433	30
1.64800	30
1.65167	30
1.65533	33
1.65900	37
1.66267	40
1.66633	39
1.67000	37
1.67367	37
1.67733	35
1.68100	34
1.68467	33
1.68833	36
1.69200	37
1.69567	36
1.69933	33
1.70300	32
1.70667	34
1.71033	37
1.71400	39
1.71767	38
1.72133	37
1.72500	35
1.72867	34
1.73233	37
1.73600	39
1.73967	40
1.74333	40
1.74700	41
1.75067	42
1.75433	40
1.75800	38
1.76167	37
1.76533	38
1.76900	38
1.77267	37
1.77633	37
1.78000	40
1.78367	41
1.78733	42
1.79100	43
1.79467	46
1.79833	47
1.80200	43
1.80567	41
1.80933	42
1.81300	42
1.81667	41
1.82033	42
1.82400	43
1.82767	43
1.83133	43
1.83500	42
1.83867	42
1.84233	42
1.84600	45
1.84967	49
1.85333	50
1.85700	49
1.86067	48
1.86433	50
1.86800	52
1.87167	51
1.87533	52
1.87900	51
1.88267	49
1.88633	48
1.89000	46
1.89367	47
1.89733	50
1.90100	51
1.90467	53
1.90833	53
1.91200	52
1.91567	53
1.91933	52
1.92300	52
1.92667	52
1.93033	52
1.93400	52
1.93767	52
1.94133	53
1.94500	54
1.94867	55
1.95233	55
1.95600	55
1.95967	56
1.96333	58
1.96700	57
1.97067	56
1.97433	57
1.97800	58
1.98167	59
1.98533	63
1.98900	66
1.99267	67
1.99633	68
2.00000	69
2.00367	70
2.00733	70
2.01100	69
2.01467	73
2.01833	78
2.02200	79
2.02567	78
2.02933	77
2.03300	74
2.03667	74
2.04033	73
2.04400	75
2.04767	76
2.05133	78
2.05500	79
2.05867	80
2.06233	80
2.06600	80
2.06967	80
2.07333	79
2.07700	80
2.08067	79
2.08433	80
2.08800	81
2.09167	81
2.09533	83
2.09900	85
2.10267	85
2.10633	85
2.11000	86
2.11367	86
2.11733	86
2.12100	83
2.12467	82
2.12833	84
2.13200	87
2.13567	90
2.13933	92
2.14300	92
2.14667	91
2.15033	90
2.15400	91
2.15767	91
2.16133	90
2.16500	90
2.16867	90
2.17233	92
2.17600	93
2.17967	92
2.18333	94
2.18700	95
2.19067	97
2.19433	100
2.19800	103
2.20167	103
2.20533	104
2.20900	102
2.21267	101
2.21633	103
2.22000	104
2.22367	105
2.22733	107
2.23100	110
2.23467	113
2.23833	115
2.24200	117
2.24567	117
2.24933	116
2.25300	115
2.25667	114
2.26033	113
2.26400	114
2.26767	115
2.27133	114
2.27500	114
2.27867	117
2.28233	121
2.28600	122
2.28967	125
2.29333	129
2.29700	131
2.30067	128
2.30433	125
2.30800	124
2.31167	123
2.31533	124
2.31900	130
2.32267	133
2.32633	135
2.33000	137
2.33367	137
2.33733	136
2.34100	137
2.34467	138
2.34833	140
2.35200	143
2.35567	143
2.35933	144
2.36300	145
2.36667	145
2.37033	144
2.37400	144
2.37767	144
2.38133	145
2.38500	145
2.38867	146
2.39233	150
2.39600	154
2.39967	157
2.40333	157
2.40700	157
2.41067	161
2.41433	165
2.41800	166
2.42167	166
2.42533	163
2.42900	164
2.43267	167
2.43633	167
2.44000	167
2.44367	185
2.44733	235
2.45100	291
2.45467	336
2.45833	371
2.46200	383
2.46567	377
2.46933	362
2.47300	348
2.47667	334
2.48033	323
2.48400	318
2.48767	316
2.49133	308
2.49500	298
2.49867	286
2.50233	274
2.50600	265
2.50967	257
2.51333	251
2.51700	245
2.52067	241
2.52433	239
2.52800	240
2.53167	240
2.53533	241
2.53900	244
2.54267	247
2.54633	251
2.55000	254
2.55367	257
2.55733	257
2.56100	254
2.56467	252
2.56833	248
2.57200	243
2.57567	238
2.57933	233
2.58300	227
2.58667	224
2.59033	221
2.59400	214
2.59767	203
2.60133	188
2.60500	167
2.60867	142
2.61233	117
2.61600	91
2.61967	65
2.62333	43
2.62700	24
2.63067	7
2.63433	-7
2.63800	-15
2.64167	-19
2.64533	-19
2.64900	-16
2.65267	-12
2.65633	-6
2.66000	4
2.66367	15
2.66733	24
2.67100	35
2.67467	46
2.67833	56
2.68200	67
2.68567	74
2.68933	82
2.69300	90
2.69667	98
2.70033	108
2.70400	118
2.70767	128
2.71133	135
2.71500	139
2.71867	142
2.72233	147
2.72600	150
2.72967	154
2.73333	158
2.73700	163
2.74067	168
2.74433	172
2.74800	176
2.75167	179
2.75533	179
2.75900	178
2.76267	177
2.76633	178
2.77000	180
2.77367	183
2.77733	184
2.78100	184
2.78467	183
2.78833	186
2.79200	187
2.79567	190
2.79933	192
2.80300	193
2.80667	195
2.81033	200
2.81400	210
2.81767	236
2.82133	300
2.82500	436
2.82867	703
2.83233	1166
2.83600	1893
2.83967	2920
2.84333	4251
2.84700	5844
2.85067	7613
2.85433	9441
2.85800	11194
2.86167	12732
2.86533	13941
2.86900	14752
2.87267	15127
2.87633	15084
2.88000	14685
2.88367	14004
2.88733	13125
2.89100	12123
2.89467	11063
2.89833	10001
2.90200	8976
2.90567	8008
2.90933	7107
2.91300	6282
2.91667	5539
2.92033	4869
2.92400	4273
2.92767	3746
2.93133	3282
2.93500	2872
2.93867	2512
2.94233	2200
2.94600	1930
2.94967	1695
2.95333	1489
2.95700	1311
2.96067	1157
2.96433	1023
2.96800	908
2.97167	808
2.97533	722
2.97900	648
2.98267	588
2.98633	536
2.99000	487
2.99367	445
2.99733	410
3.00100	381
3.00467	356
3.00833	336
3.01200	319
3.01567	303
3.01933	289
3.02300	275
3.02667	264
3.03033	255
3.03400	247
3.03767	241
3.04133	237
3.04500	232
3.04867	226
3.05233	221
3.05600	218
3.05967	217
3.06333	216
3.06700	213
3.07067	208
3.07433	203
3.07800	201
3.08167	200
3.08533	198
3.08900	196
3.09267	195
3.09633	193
3.10000	192
3.10367	192
3.10733	194
3.11100	194
3.11467	193
3.11833	191
3.12200	189
3.12567	184
3.12933	182
3.13300	181
3.13667	180
3.14033	179
3.14400	176
3.14767	173
3.15133	173
3.15500	173
3.15867	174
3.16233	176
3.16600	178
3.16967	178
3.17333	176
3.17700	174
3.18067	175
3.18433	174
3.18800	174
3.19167	174
3.19533	171
3.19900	171
3.20267	173
3.20633	173
3.21000	173
3.21367	173
3.21733	176
3.22100	178
3.22467	178
3.22833	178
3.23200	180
3.23567	181
3.23933	181
3.24300	180
3.24667	180
3.25033	178
3.25400	178
3.25767	178
3.26133	177
3.26500	175
3.26867	173
3.27233	173
3.27600	171
3.27967	168
3.28333	167
3.28700	166
3.29067	169
3.29433	172
3.29800	173
3.30167	173
3.30533	171
3.30900	171
3.31267	170
3.31633	168
3.32000	166
3.32367	166
3.32733	167
3.33100	166
3.33467	166
3.33833	167
3.34200	169
3.34567	170
3.34933	171
3.35300	170
3.35667	171
3.36033	173
3.36400	175
3.36767	175
3.37133	173
3.37500	170
3.37867	168
3.38233	169
3.38600	169
3.38967	167
3.39333	167
3.39700	168
3.40067	168
3.40433	168
3.40800	167
3.41167	164
3.41533	161
3.41900	162
3.42267	164
3.42633	163
3.43000	160
3.43367	159
3.43733	160
3.44100	160
3.44467	163
3.44833	165
3.45200	169
3.45567	172
3.45933	174
3.46300	174
3.46667	174
3.47033	174
3.47400	172
3.47767	174
3.48133	176
3.48500	177
3.48867	176
3.49233	175
3.49600	177
3.49967	179
3.50333	181
3.50700	180
3.51067	179
3.51433	178
3.51800	175
3.52167	171
3.52533	170
3.52900	171
3.53267	172
3.53633	174
3.54000	174
3.54367	174
3.54733	173
3.55100	173
3.55467	170
3.55833	168
3.56200	166
3.56567	163
3.56933	161
3.57300	160
3.57667	162
3.58033	163
3.58400	163
3.58767	161
3.59133	160
3.59500	159
3.59867	159
3.60233	159
3.60600	160
3.60967	161
3.61333	161
3.61700	163
3.62067	163
3.62433	163
3.62800	161
3.63167	158
3.63533	158
3.63900	158
3.64267	157
3.64633	157
3.65000	159
3.65367	160
3.65733	162
3.66100	161
3.66467	159
3.66833	158
3.67200	157
3.67567	159
3.67933	160
3.68300	161
3.68667	161
3.69033	163
3.69400	166
3.69767	166
3.70133	166
3.70500	165
3.70867	164
3.71233	161
3.71600	158
3.71967	158
3.72333	158
3.72700	158
3.73067	158
3.73433	160
3.73800	161
3.74167	161
3.74533	160
3.74900	161
3.75267	160
3.75633	155
3.76000	148
3.76367	138
3.76733	128
3.77100	124
3.77467	123
3.77833	127
3.78200	137
3.78567	147
3.78933	158
3.79300	171
3.79667	183
3.80033	195
3.80400	208
3.80767	220
3.81133	230
3.81500	241
3.81867	254
3.82233	265
3.82600	272
3.82967	279
3.83333	284
3.83700	293
3.84067	302
3.84433	310
3.84800	319
3.85167	326
3.85533	334
3.85900	344
3.86267	356
3.86633	366
3.87000	375
3.87367	381
3.87733	385
3.88100	391
3.88467	396
3.88833	398
3.89200	402
3.89567	405
3.89933	407
3.90300	408
3.90667	409
3.91033	410
3.91400	412
3.91767	411
3.92133	407
3.92500	405
3.92867	403
3.93233	400
3.93600	397
3.93967	395
3.94333	394
3.94700	394
3.95067	395
3.95433	398
3.95800	400
3.96167	399
3.96533	397
3.96900	394
3.97267	391
3.97633	390
3.98000	390
3.98367	389
3.98733	388
3.99100	388
3.99467	389
3.99833	388

[Status Trace (Column Oven Temperature)]
Interval(msec)	1000
# of Points	240
Start Time(min)	0.010
End Time(min)	3.993
Intensity Units	
Intensity Multiplier	1
R.Time (min)	Intensity
0.01010	35.06
0.02677	35.07
0.04343	35.07
0.06010	35.07
0.07677	35.08
0.09343	35.09
0.11010	35.09
0.12677	35.08
0.14343	35.07
0.16010	35.05
0.17677	35.04
0.19343	35.04
0.21010	35.03
0.22677	35.04
0.24343	35.05
0.26010	35.05
0.27677	35.04
0.29343	35.03
0.31010	35.02
0.32677	35.02
0.34343	35.02
0.36010	35.02
0.37677	35.02
0.39343	35.03
0.41010	35.02
0.42677	35.02
0.44343	35.01
0.46010	35.00
0.47677	35.00
0.49343	34.98
0.51010	34.98
0.52677	34.99
0.54343	35.00
0.56010	34.98
0.57677	34.97
0.59343	34.98
0.61010	34.99
0.62677	34.99
0.64343	34.99
0.66010	35.00
0.67677	34.99
0.69343	34.99
0.71010	35.00
0.72677	35.00
0.74343	35.01
0.76010	35.01
0.77677	35.00
0.79343	35.00
0.81010	34.99
0.82677	34.98
0.84343	34.98
0.86010	34.99
0.87677	34.99
0.89343	34.98
0.91010	34.98
0.92677	34.98
0.94343	34.99
0.96010	34.98
0.97677	34.98
0.99343	34.98
1.01010	34.98
1.02677	34.98
1.04343	34.97
1.06010	34.98
1.07677	34.97
1.09343	34.97
1.11010	34.97
1.12677	34.97
1.14343	34.97
1.16010	34.97
1.17677	34.99
1.19343	34.99
1.21010	35.01
1.22677	35.01
1.24343	35.02
1.26010	35.02
1.27677	35.03
1.29343	35.03
1.31010	35.03
1.32677	35.02
1.34343	35.01
1.36010	35.00
1.37677	34.99
1.39343	35.00
1.41010	34.98
1.42677	34.99
1.44343	34.99
1.46010	34.97
1.47677	34.96
1.49343	34.96
1.51010	34.97
1.52677	34.98
1.54343	34.99
1.56010	34.98
1.57677	35.00
1.59343	35.02
1.61010	35.09
1.62677	35.23
1.64343	35.42
1.66010	35.67
1.67677	36.01
1.69343	36.36
1.71010	36.72
1.72677	37.05
1.74343	37.39
1.76010	37.72
1.77677	38.05
1.79343	38.39
1.81010	38.71
1.82677	39.04
1.84343	39.36
1.86010	39.70
1.87677	40.03
1.89343	40.37
1.91010	40.69
1.92677	41.01
1.94343	41.33
1.96010	41.65
1.97677	41.97
1.99343	42.31
2.01010	42.62
2.02677	42.93
2.04343	43.27
2.06010	43.59
2.07677	43.92
2.09343	44.25
2.11010	44.58
2.12677	44.90
2.14343	45.23
2.16010	45.56
2.17677	45.88
2.19343	46.21
2.21010	46.53
2.22677	46.86
2.24343	47.20
2.26010	47.55
2.27677	47.88
2.29343	48.21
2.31010	48.55
2.32677	48.86
2.34343	49.18
2.36010	49.51
2.37677	49.71
2.39343	49.75
2.41010	49.74
2.42677	49.74
2.44343	49.73
2.46010	49.76
2.47677	49.76
2.49343	49.76
2.51010	49.80
2.52677	49.79
2.54343	49.80
2.56010	49.82
2.57677	49.82
2.59343	49.84
2.61010	49.85
2.62677	49.85
2.64343	49.85
2.66010	49.85
2.67677	49.85
2.69343	49.84
2.71010	49.86
2.72677	49.89
2.74343	49.90
2.76010	49.90
2.77677	49.89
2.79343	49.89
2.81010	49.89
2.82677	49.90
2.84343	49.91
2.86010	49.94
2.87677	49.95
2.89343	49.97
2.91010	49.98
2.92677	50.00
2.94343	50.00
2.96010	50.01
2.97677	50.03
2.99343	50.03
3.01010	50.04
3.02677	50.05
3.04343	50.06
3.06010	50.05
3.07677	50.06
3.09343	50.06
3.11010	50.06
3.12677	50.07
3.14343	50.09
3.16010	50.11
3.17677	50.11
3.19343	50.11
3.21010	50.10
3.22677	50.09
3.24343	50.07
3.26010	50.06
3.27677	50.05
3.29343	50.03
3.31010	50.02
3.32677	50.02
3.34343	50.01
3.36010	50.01
3.37677	50.01
3.39343	50.01
3.41010	50.00
3.42677	50.00
3.44343	49.99
3.46010	49.99
3.47677	49.99
3.49343	49.99
3.51010	50.00
3.52677	50.00
3.54343	49.99
3.56010	50.00
3.57677	50.01
3.59343	50.02
3.61010	50.03
3.62677	50.03
3.64343	50.03
3.66010	50.04
3.67677	50.04
3.69343	50.04
3.71010	50.03
3.72677	50.03
3.74343	50.04
3.76010	50.05
3.77677	50.06
3.79343	50.07
3.81010	50.07
3.82677	50.07
3.84343	50.07
3.86010	50.08
3.87677	50.08
3.89343	50.09
3.91010	50.09
3.92677	50.09
3.94343	50.09
3.96010	50.10
3.97677	50.10
3.99343	50.08

[Status Trace (Injection Unit Temperature)]
Interval(msec)	1000
# of Points	240
Start Time(min)	0.010
End Time(min)	3.993
Intensity Units	
Intensity Multiplier	1
R.Time (min)	Intensity
0.01010	99.98
0.02677	99.99
0.04343	99.98
0.06010	99.98
0.07677	99.99
0.09343	99.98
0.11010	99.99
0.12677	99.98
0.14343	99.99
0.16010	99.99
0.17677	99.99
0.19343	99.98
0.21010	99.99
0.22677	99.98
0.24343	99.98
0.26010	99.99
0.27677	99.98
0.29343	99.99
0.31010	99.99
0.32677	99.99
0.34343	99.98
0.36010	99.98
0.37677	99.98
0.39343	99.99
0.41010	99.99
0.42677	99.98
0.44343	99.99
0.46010	99.98
0.47677	99.98
0.49343	99.98
0.51010	99.98
0.52677	99.99
0.54343	99.98
0.56010	99.99
0.57677	99.98
0.59343	99.98
0.61010	99.98
0.62677	99.98
0.64343	99.98
0.66010	99.98
0.67677	99.98
0.69343	99.98
0.71010	99.98
0.72677	99.98
0.74343	99.98
0.76010	99.98
0.77677	99.98
0.79343	99.98
0.81010	99.98
0.82677	99.98
0.84343	99.98
0.86010	99.97
0.87677	99.98
0.89343	99.98
0.91010	99.98
0.92677	99.98
0.94343	99.98
0.96010	99.98
0.97677	99.97
0.99343	99.98
1.01010	99.98
1.02677	99.98
1.04343	99.98
1.06010	99.98
1.07677	99.98
1.09343	99.98
1.11010	99.98
1.12677	99.98
1.14343	99.98
1.16010	99.98
1.17677	99.98
1.19343	99.98
1.21010	99.98
1.22677	99.98
1.24343	99.98
1.26010	99.98
1.27677	99.98
1.29343	99.98
1.31010	99.98
1.32677	99.98
1.34343	99.98
1.36010	99.98
1.37677	99.98
1.39343	99.99
1.41010	99.98
1.42677	99.98
1.44343	99.98
1.46010	99.99
1.47677	99.99
1.49343	99.98
1.51010	99.99
1.52677	99.98
1.54343	99.98
1.56010	99.98
1.57677	99.98
1.59343	99.98
1.61010	99.98
1.62677	99.98
1.64343	99.99
1.66010	99.98
1.67677	99.98
1.69343	99.99
1.71010	99.98
1.72677	99.98
1.74343	99.98
1.76010	99.99
1.77677	99.99
1.79343	99.98
1.81010	99.98
1.82677	99.98
1.84343	99.98
1.86010	99.98
1.87677	99.99
1.89343	99.99
1.91010	99.99
1.92677	99.98
1.94343	99.98
1.96010	99.98
1.97677	99.98
1.99343	99.98
2.01010	99.98
2.02677	99.97
2.04343	99.98
2.06010	99.97
2.07677	99.97
2.09343	99.97
2.11010	99.97
2.12677	99.97
2.14343	99.97
2.16010	99.97
2.17677	99.97
2.19343	99.97
2.21010	99.97
2.22677	99.97
2.24343	99.97
2.26010	99.97
2.27677	99.97
2.29343	99.97
2.31010	99.97
2.32677	99.97
2.34343	99.97
2.36010	99.97
2.37677	99.97
2.39343	99.97
2.41010	99.97
2.42677	99.97
2.44343	99.97
2.46010	99.97
2.47677	99.97
2.49343	99.97
2.51010	99.97
2.52677	99.98
2.54343	99.98
2.56010	99.98
2.57677	99.98
2.59343	99.98
2.61010	99.97
2.62677	99.98
2.64343	99.98
2.66010	99.98
2.67677	99.98
2.69343	99.98
2.71010	99.98
2.72677	99.98
2.74343	99.98
2.76010	99.99
2.77677	99.99
2.79343	99.99
2.81010	99.99
2.82677	99.99
2.84343	99.99
2.86010	100.00
2.87677	99.99
2.89343	100.00
2.91010	100.00
2.92677	100.00
2.94343	100.00
2.96010	100.00
2.97677	100.01
2.99343	100.00
3.01010	100.01
3.02677	100.00
3.04343	100.01
3.06010	100.01
3.07677	100.01
3.09343	100.01
3.11010	100.01
3.12677	100.01
3.14343	100.01
3.16010	100.02
3.17677	100.02
3.19343	100.02
3.21010	100.02
3.22677	100.02
3.24343	100.02
3.26010	100.02
3.27677	100.02
3.29343	100.03
3.31010	100.02
3.32677	100.03
3.34343	100.03
3.36010	100.03
3.37677	100.03
3.39343	100.03
3.41010	100.03
3.42677	100.03
3.44343	100.03
3.46010	100.03
3.47677	100.03
3.49343	100.03
3.51010	100.03
3.52677	100.04
3.54343	100.03
3.56010	100.04
3.57677	100.04
3.59343	100.04
3.61010	100.04
3.62677	100.04
3.64343	100.04
3.66010	100.04
3.67677	100.04
3.69343	100.04
3.71010	100.04
3.72677	100.04
3.74343	100.04
3.76010	100.04
3.77677	100.04
3.79343	100.04
3.81010	100.04
3.82677	100.04
3.84343	100.04
3.86010	100.04
3.87677	100.04
3.89343	100.04
3.91010	100.04
3.92677	100.04
3.94343	100.04
3.96010	100.04
3.97677	100.04
3.99343	100.04

[Status Trace (Carrier Gas Pressure)]
Interval(msec)	1000
# of Points	240
Start Time(min)	0.010
End Time(min)	3.993
Intensity Units	
Intensity Multiplier	1
R.Time (min)	Intensity
0.01010	58.00
0.02677	55.13
0.04343	57.46
0.06010	59.48
0.07677	59.14
0.09343	58.01
0.11010	57.99
0.12677	58.01
0.14343	58.01
0.16010	58.00
0.17677	58.00
0.19343	58.00
0.21010	58.00
0.22677	58.00
0.24343	58.00
0.26010	58.00
0.27677	58.00
0.29343	58.00
0.31010	58.00
0.32677	58.00
0.34343	58.00
0.36010	58.00
0.37677	58.00
0.39343	58.00
0.41010	58.00
0.42677	58.00
0.44343	58.00
0.46010	58.00
0.47677	58.00
0.49343	58.00
0.51010	58.00
0.52677	58.00
0.54343	58.00
0.56010	58.00
0.57677	58.00
0.59343	58.00
0.61010	58.00
0.62677	58.00
0.64343	58.00
0.66010	58.00
0.67677	58.00
0.69343	58.00
0.71010	58.00
0.72677	58.00
0.74343	58.00
0.76010	58.00
0.77677	58.00
0.79343	58.00
0.81010	58.00
0.82677	58.00
0.84343	58.00
0.86010	58.00
0.87677	58.00
0.89343	58.00
0.91010	58.00
0.92677	58.00
0.94343	58.00
0.96010	58.00
0.97677	58.00
0.99343	58.00
1.01010	58.00
1.02677	58.00
1.04343	58.00
1.06010	58.00
1.07677	58.00
1.09343	58.00
1.11010	58.00
1.12677	58.00
1.14343	58.00
1.16010	58.00
1.17677	58.00
1.19343	58.00
1.21010	58.00
1.22677	58.00
1.24343	58.00
1.26010	58.00
1.27677	58.00
1.29343	58.00
1.31010	58.00
1.32677	58.00
1.34343	58.00
1.36010	58.00
1.37677	58.00
1.39343	58.00
1.41010	58.00
1.42677	58.00
1.44343	58.00
1.46010	58.00
1.47677	58.00
1.49343	58.00
1.51010	58.00
1.52677	58.00
1.54343	58.00
1.56010	58.00
1.57677	58.00
1.59343	58.00
1.61010	58.00
1.62677	58.00
1.64343	58.00
1.66010	58.00
1.67677	58.01
1.69343	58.00
1.71010	58.00
1.72677	58.00
1.74343	58.00
1.76010	58.00
1.77677	58.00
1.79343	58.00
1.81010	58.00
1.82677	58.00
1.84343	58.00
1.86010	58.00
1.87677	58.00
1.89343	58.00
1.91010	58.00
1.92677	58.00
1.94343	58.00
1.96010	58.00
1.97677	58.00
1.99343	58.00
2.01010	58.00
2.02677	58.00
2.04343	58.00
2.06010	58.00
2.07677	58.00
2.09343	58.00
2.11010	58.00
2.12677	58.00
2.14343	58.00
2.16010	58.00
2.17677	58.00
2.19343	58.00
2.21010	58.00
2.22677	58.00
2.24343	58.00
2.26010	58.00
2.27677	58.00
2.29343	58.00
2.31010	58.00
2.32677	58.00
2.34343	58.00
2.36010	58.00
2.37677	58.00
2.39343	57.99
2.41010	57.99
2.42677	58.00
2.44343	58.00
2.46010	58.00
2.47677	58.00
2.49343	58.00
2.51010	58.00
2.52677	57.98
2.54343	58.00
2.56010	58.00
2.57677	58.00
2.59343	58.00
2.61010	58.00
2.62677	58.00
2.64343	58.00
2.66010	58.00
2.67677	58.00
2.69343	58.00
2.71010	58.00
2.72677	58.00
2.74343	58.00
2.76010	58.00
2.77677	58.00
2.79343	58.00
2.81010	58.00
2.82677	58.00
2.84343	58.00
2.86010	58.00
2.87677	58.00
2.89343	58.00
2.91010	58.00
2.92677	58.00
2.94343	58.00
2.96010	58.00
2.97677	58.00
2.99343	58.00
3.01010	58.00
3.02677	58.00
3.04343	58.00
3.06010	58.00
3.07677	58.00
3.09343	58.00
3.11010	58.00
3.12677	58.00
3.14343	58.00
3.16010	58.00
3.17677	58.00
3.19343	58.00
3.21010	58.00
3.22677	58.00
3.24343	58.00
3.26010	58.00
3.27677	58.00
3.29343	58.00
3.31010	58.00
3.32677	58.00
3.34343	58.00
3.36010	58.00
3.37677	58.00
3.39343	58.00
3.41010	58.00
3.42677	58.00
3.44343	58.00
3.46010	58.00
3.47677	58.00
3.49343	58.00
3.51010	58.00
3.52677	58.00
3.54343	58.00
3.56010	58.00
3.57677	58.00
3.59343	58.00
3.61010	58.00
3.62677	58.00
3.64343	58.00
3.66010	58.00
3.67677	58.00
3.69343	58.00
3.71010	58.00
3.72677	58.00
3.74343	58.00
3.76010	58.00
3.77677	58.00
3.79343	58.00
3.81010	58.00
3.82677	58.00
3.84343	58.00
3.86010	58.00
3.87677	58.00
3.89343	58.00
3.91010	58.00
3.92677	58.00
3.94343	58.00
3.96010	58.00
3.97677	58.00
3.99343	58.00

[Status Trace (Carrier Gas Flow)]
Interval(msec)	1000
# of Points	240
Start Time(min)	0.010
End Time(min)	3.993
Intensity Units	
Intensity Multiplier	1
R.Time (min)	Intensity
0.01010	34.52
0.02677	34.54
0.04343	34.55
0.06010	34.54
0.07677	34.51
0.09343	34.52
0.11010	34.52
0.12677	34.52
0.14343	34.52
0.16010	34.52
0.17677	34.52
0.19343	34.52
0.21010	34.52
0.22677	34.52
0.24343	34.52
0.26010	34.52
0.27677	34.52
0.29343	34.52
0.31010	34.52
0.32677	34.52
0.34343	34.52
0.36010	34.52
0.37677	34.52
0.39343	34.53
0.41010	34.52
0.42677	34.52
0.44343	34.52
0.46010	34.52
0.47677	34.52
0.49343	34.52
0.51010	34.52
0.52677	34.52
0.54343	34.52
0.56010	34.52
0.57677	34.52
0.59343	34.52
0.61010	34.52
0.62677	34.52
0.64343	34.52
0.66010	34.52
0.67677	34.52
0.69343	34.52
0.71010	34.52
0.72677	34.52
0.74343	34.52
0.76010	34.52
0.77677	34.52
0.79343	34.52
0.81010	34.52
0.82677	34.52
0.84343	34.52
0.86010	34.52
0.87677	34.52
0.89343	34.52
0.91010	34.52
0.92677	34.52
0.94343	34.52
0.96010	34.52
0.97677	34.52
0.99343	34.52
1.01010	34.51
1.02677	34.52
1.04343	34.52
1.06010	34.52
1.07677	34.52
1.09343	34.52
1.11010	34.52
1.12677	34.52
1.14343	34.52
1.16010	34.52
1.17677	34.52
1.19343	34.52
1.21010	34.52
1.22677	34.52
1.24343	34.52
1.26010	34.52
1.27677	34.52
1.29343	34.52
1.31010	34.52
1.32677	34.52
1.34343	34.52
1.36010	34.52
1.37677	34.52
1.39343	34.52
1.41010	34.52
1.42677	34.52
1.44343	34.52
1.46010	34.52
1.47677	34.52
1.49343	34.52
1.51010	34.52
1.52677	34.52
1.54343	34.52
1.56010	34.52
1.57677	34.52
1.59343	34.52
1.61010	34.52
1.62677	34.52
1.64343	34.52
1.66010	34.52
1.67677	34.52
1.69343	34.52
1.71010	34.51
1.72677	34.52
1.74343	34.52
1.76010	34.52
1.77677	34.52
1.79343	34.52
1.81010	34.52
1.82677	34.52
1.84343	34.52
1.86010	34.52
1.87677	34.52
1.89343	34.51
1.91010	34.52
1.92677	34.52
1.94343	34.52
1.96010	34.52
1.97677	34.52
1.99343	34.52
2.01010	34.52
2.02677	34.52
2.04343	34.52
2.06010	34.52
2.07677	34.52
2.09343	34.52
2.11010	34.52
2.12677	34.52
2.14343	34.52
2.16010	34.52
2.17677	34.52
2.19343	34.52
2.21010	34.52
2.22677	34.52
2.24343	34.52
2.26010	34.52
2.27677	34.52
2.29343	34.52
2.31010	34.52
2.32677	34.52
2.34343	34.52
2.36010	34.52
2.37677	34.52
2.39343	34.52
2.41010	34.52
2.42677	34.51
2.44343	34.52
2.46010	34.51
2.47677	34.51
2.49343	34.52
2.51010	34.51
2.52677	34.52
2.54343	34.52
2.56010	34.52
2.57677	34.52
2.59343	34.52
2.61010	34.52
2.62677	34.52
2.64343	34.52
2.66010	34.52
2.67677	34.52
2.69343	34.52
2.71010	34.52
2.72677	34.52
2.74343	34.52
2.76010	34.52
2.77677	34.52
2.79343	34.52
2.81010	34.52
2.82677	34.52
2.84343	34.52
2.86010	34.52
2.87677	34.52
2.89343	34.52
2.91010	34.52
2.92677	34.52
2.94343	34.52
2.96010	34.52
2.97677	34.52
2.99343	34.52
3.01010	34.52
3.02677	34.52
3.04343	34.52
3.06010	34.52
3.07677	34.52
3.09343	34.52
3.11010	34.52
3.12677	34.52
3.14343	34.52
3.16010	34.52
3.17677	34.52
3.19343	34.52
3.21010	34.53
3.22677	34.52
3.24343	34.52
3.26010	34.52
3.27677	34.52
3.29343	34.52
3.31010	34.51
3.32677	34.52
3.34343	34.52
3.36010	34.52
3.37677	34.52
3.39343	34.52
3.41010	34.52
3.42677	34.52
3.44343	34.52
3.46010	34.52
3.47677	34.52
3.49343	34.52
3.51010	34.52
3.52677	34.52
3.54343	34.52
3.56010	34.52
3.57677	34.52
3.59343	34.52
3.61010	34.52
3.62677	34.52
3.64343	34.52
3.66010	34.52
3.67677	34.52
3.69343	34.52
3.71010	34.52
3.72677	34.52
3.74343	34.52
3.76010	34.52
3.77677	34.52
3.79343	34.52
3.81010	34.52
3.82677	34.52
3.84343	34.52
3.86010	34.52
3.87677	34.52
3.89343	34.52
3.91010	34.52
3.92677	34.52
3.94343	34.52
3.96010	34.52
3.97677	34.52
3.99343	34.52

[Status Trace (Column Flow)]
Interval(msec)	1000
# of Points	240
Start Time(min)	0.010
End Time(min)	3.993
Intensity Units	
Intensity Multiplier	1
R.Time (min)	Intensity
0.01010	5.57
0.02677	5.24
0.04343	5.51
0.06010	5.74
0.07677	5.70
0.09343	5.57
0.11010	5.57
0.12677	5.57
0.14343	5.57
0.16010	5.57
0.17677	5.57
0.19343	5.57
0.21010	5.57
0.22677	5.57
0.24343	5.57
0.26010	5.57
0.27677	5.57
0.29343	5.57
0.31010	5.57
0.32677	5.57
0.34343	5.57
0.36010	5.57
0.37677	5.57
0.39343	5.57
0.41010	5.57
0.42677	5.57
0.44343	5.57
0.46010	5.57
0.47677	5.57
0.49343	5.57
0.51010	5.57
0.52677	5.57
0.54343	5.57
0.56010	5.57
0.57677	5.57
0.59343	5.57
0.61010	5.57
0.62677	5.57
0.64343	5.57
0.66010	5.57
0.67677	5.57
0.69343	5.57
0.71010	5.57
0.72677	5.57
0.74343	5.57
0.76010	5.57
0.77677	5.57
0.79343	5.57
0.81010	5.57
0.82677	5.57
0.84343	5.57
0.86010	5.57
0.87677	5.57
0.89343	5.57
0.91010	5.57
0.92677	5.57
0.94343	5.57
0.96010	5.57
0.97677	5.57
0.99343	5.57
1.01010	5.57
1.02677	5.57
1.04343	5.57
1.06010	5.57
1.07677	5.57
1.09343	5.57
1.11010	5.57
1.12677	5.57
1.14343	5.57
1.16010	5.57
1.17677	5.57
1.19343	5.57
1.21010	5.57
1.22677	5.57
1.24343	5.57
1.26010	5.57
1.27677	5.57
1.29343	5.57
1.31010	5.57
1.32677	5.57
1.34343	5.57
1.36010	5.57
1.37677	5.57
1.39343	5.57
1.41010	5.57
1.42677	5.57
1.44343	5.57
1.46010	5.57
1.47677	5.57
1.49343	5.57
1.51010	5.57
1.52677	5.57
1.54343	5.57
1.56010	5.57
1.57677	5.57
1.59343	5.57
1.61010	5.57
1.62677	5.57
1.64343	5.56
1.66010	5.55
1.67677	5.54
1.69343	5.53
1.71010	5.52
1.72677	5.51
1.74343	5.50
1.76010	5.49
1.77677	5.48
1.79343	5.47
1.81010	5.46
1.82677	5.45
1.84343	5.44
1.86010	5.43
1.87677	5.42
1.89343	5.41
1.91010	5.40
1.92677	5.39
1.94343	5.38
1.96010	5.37
1.97677	5.36
1.99343	5.35
2.01010	5.34
2.02677	5.33
2.04343	5.32
2.06010	5.31
2.07677	5.30
2.09343	5.29
2.11010	5.28
2.12677	5.27
2.14343	5.26
2.16010	5.25
2.17677	5.24
2.19343	5.23
2.21010	5.22
2.22677	5.21
2.24343	5.20
2.26010	5.20
2.27677	5.18
2.29343	5.18
2.31010	5.17
2.32677	5.16
2.34343	5.15
2.36010	5.14
2.37677	5.13
2.39343	5.13
2.41010	5.13
2.42677	5.13
2.44343	5.13
2.46010	5.13
2.47677	5.13
2.49343	5.13
2.51010	5.13
2.52677	5.13
2.54343	5.13
2.56010	5.13
2.57677	5.13
2.59343	5.13
2.61010	5.13
2.62677	5.13
2.64343	5.13
2.66010	5.13
2.67677	5.13
2.69343	5.13
2.71010	5.13
2.72677	5.13
2.74343	5.13
2.76010	5.13
2.77677	5.13
2.79343	5.13
2.81010	5.13
2.82677	5.13
2.84343	5.13
2.86010	5.13
2.87677	5.13
2.89343	5.13
2.91010	5.13
2.92677	5.12
2.94343	5.12
2.96010	5.12
2.97677	5.12
2.99343	5.12
3.01010	5.12
3.02677	5.12
3.04343	5.12
3.06010	5.12
3.07677	5.12
3.09343	5.12
3.11010	5.12
3.12677	5.12
3.14343	5.12
3.16010	5.12
3.17677	5.12
3.19343	5.12
3.21010	5.12
3.22677	5.12
3.24343	5.12
3.26010	5.12
3.27677	5.12
3.29343	5.12
3.31010	5.12
3.32677	5.12
3.34343	5.12
3.36010	5.12
3.37677	5.12
3.39343	5.12
3.41010	5.12
3.42677	5.12
3.44343	5.12
3.46010	5.12
3.47677	5.13
3.49343	5.12
3.51010	5.12
3.52677	5.12
3.54343	5.12
3.56010	5.12
3.57677	5.12
3.59343	5.12
3.61010	5.12
3.62677	5.12
3.64343	5.12
3.66010	5.12
3.67677	5.12
3.69343	5.12
3.71010	5.12
3.72677	5.12
3.74343	5.12
3.76010	5.12
3.77677	5.12
3.79343	5.12
3.81010	5.12
3.82677	5.12
3.84343	5.12
3.86010	5.12
3.87677	5.12
3.89343	5.12
3.91010	5.12
3.92677	5.12
3.94343	5.12
3.96010	5.12
3.97677	5.12
3.99343	5.12

[Status Trace (Linear Velocity)]
Interval(msec)	1000
# of Points	240
Start Time(min)	0.010
End Time(min)	3.993
Intensity Units	
Intensity Multiplier	1
R.Time (min)	Intensity
0.01010	39.02
0.02677	37.14
0.04343	38.67
0.06010	39.99
0.07677	39.77
0.09343	39.03
0.11010	39.01
0.12677	39.03
0.14343	39.03
0.16010	39.03
0.17677	39.03
0.19343	39.03
0.21010	39.03
0.22677	39.03
0.24343	39.03
0.26010	39.02
0.27677	39.02
0.29343	39.03
0.31010	39.03
0.32677	39.03
0.34343	39.03
0.36010	39.03
0.37677	39.03
0.39343	39.03
0.41010	39.03
0.42677	39.03
0.44343	39.03
0.46010	39.03
0.47677	39.03
0.49343	39.03
0.51010	39.03
0.52677	39.03
0.54343	39.03
0.56010	39.03
0.57677	39.03
0.59343	39.03
0.61010	39.03
0.62677	39.03
0.64343	39.03
0.66010	39.03
0.67677	39.03
0.69343	39.03
0.71010	39.03
0.72677	39.03
0.74343	39.03
0.76010	39.03
0.77677	39.03
0.79343	39.03
0.81010	39.03
0.82677	39.03
0.84343	39.03
0.86010	39.03
0.87677	39.03
0.89343	39.03
0.91010	39.03
0.92677	39.03
0.94343	39.03
0.96010	39.03
0.97677	39.03
0.99343	39.03
1.01010	39.03
1.02677	39.03
1.04343	39.03
1.06010	39.03
1.07677	39.03
1.09343	39.03
1.11010	39.03
1.12677	39.03
1.14343	39.03
1.16010	39.03
1.17677	39.03
1.19343	39.03
1.21010	39.03
1.22677	39.03
1.24343	39.03
1.26010	39.03
1.27677	39.03
1.29343	39.02
1.31010	39.02
1.32677	39.03
1.34343	39.03
1.36010	39.03
1.37677	39.03
1.39343	39.03
1.41010	39.03
1.42677	39.03
1.44343	39.03
1.46010	39.03
1.47677	39.03
1.49343	39.03
1.51010	39.03
1.52677	39.03
1.54343	39.03
1.56010	39.03
1.57677	39.03
1.59343	39.03
1.61010	39.02
1.62677	39.01
1.64343	38.99
1.66010	38.97
1.67677	38.94
1.69343	38.90
1.71010	38.87
1.72677	38.83
1.74343	38.80
1.76010	38.77
1.77677	38.74
1.79343	38.71
1.81010	38.68
1.82677	38.64
1.84343	38.61
1.86010	38.58
1.87677	38.55
1.89343	38.52
1.91010	38.49
1.92677	38.46
1.94343	38.43
1.96010	38.40
1.97677	38.37
1.99343	38.34
2.01010	38.31
2.02677	38.28
2.04343	38.25
2.06010	38.22
2.07677	38.19
2.09343	38.16
2.11010	38.13
2.12677	38.10
2.14343	38.07
2.16010	38.04
2.17677	38.01
2.19343	37.98
2.21010	37.96
2.22677	37.92
2.24343	37.89
2.26010	37.87
2.27677	37.83
2.29343	37.80
2.31010	37.78
2.32677	37.74
2.34343	37.72
2.36010	37.69
2.37677	37.67
2.39343	37.66
2.41010	37.66
2.42677	37.67
2.44343	37.67
2.46010	37.66
2.47677	37.67
2.49343	37.66
2.51010	37.66
2.52677	37.65
2.54343	37.66
2.56010	37.66
2.57677	37.66
2.59343	37.66
2.61010	37.66
2.62677	37.66
2.64343	37.66
2.66010	37.66
2.67677	37.66
2.69343	37.66
2.71010	37.66
2.72677	37.65
2.74343	37.65
2.76010	37.65
2.77677	37.65
2.79343	37.65
2.81010	37.65
2.82677	37.65
2.84343	37.65
2.86010	37.65
2.87677	37.65
2.89343	37.65
2.91010	37.65
2.92677	37.64
2.94343	37.64
2.96010	37.64
2.97677	37.64
2.99343	37.64
3.01010	37.64
3.02677	37.64
3.04343	37.64
3.06010	37.64
3.07677	37.64
3.09343	37.64
3.11010	37.64
3.12677	37.64
3.14343	37.64
3.16010	37.64
3.17677	37.63
3.19343	37.63
3.21010	37.63
3.22677	37.64
3.24343	37.64
3.26010	37.64
3.27677	37.64
3.29343	37.64
3.31010	37.64
3.32677	37.64
3.34343	37.64
3.36010	37.64
3.37677	37.64
3.39343	37.64
3.41010	37.64
3.42677	37.64
3.44343	37.64
3.46010	37.64
3.47677	37.65
3.49343	37.64
3.51010	37.64
3.52677	37.64
3.54343	37.64
3.56010	37.64
3.57677	37.64
3.59343	37.64
3.61010	37.64
3.62677	37.64
3.64343	37.64
3.66010	37.64
3.67677	37.64
3.69343	37.64
3.71010	37.64
3.72677	37.64
3.74343	37.64
3.76010	37.64
3.77677	37.64
3.79343	37.64
3.81010	37.64
3.82677	37.64
3.84343	37.64
3.86010	37.64
3.87677	37.64
3.89343	37.64
3.91010	37.64
3.92677	37.64
3.94343	37.64
3.96010	37.64
3.97677	37.64
3.99343	37.64

