[Header]
Application Name	LabSolutions
Version	5.110
Data File Name	C:\Users\User\Desktop\GC Analyses\Jack\Nachusa Grasslands Sampling\T0 Timepoint July 12th\T0_07122022_053.gcd
Output Date	3/14/2023
Output Time	3:40:37 PM

[File Information]
Type	Data File
Generated	3/7/2023 7:39:22 PM
Generated by	System Administrator
Modified	3/7/2023 7:46:14 PM
Modified by	System Administrator

[Sample Information]
Operator Name	System Administrator
Acquired	3/7/2023 7:42:11 PM
Sample Type	0:Unknown
Level	0
Sample Name	053
Sample ID	053
ISTD Amount1	1
ISTD Amount2	1
ISTD Amount3	1
ISTD Amount4	1
ISTD Amount5	1
ISTD Amount6	1
ISTD Amount7	1
ISTD Amount8	1
ISTD Amount9	1
ISTD Amount10	1
ISTD Amount11	1
ISTD Amount12	1
ISTD Amount13	1
ISTD Amount14	1
ISTD Amount15	1
ISTD Amount16	1
ISTD Amount17	1
ISTD Amount18	1
ISTD Amount19	1
ISTD Amount20	1
ISTD Amount21	1
ISTD Amount22	1
ISTD Amount23	1
ISTD Amount24	1
ISTD Amount25	1
ISTD Amount26	1
ISTD Amount27	1
ISTD Amount28	1
ISTD Amount29	1
ISTD Amount30	1
ISTD Amount31	1
ISTD Amount32	1
Sample Amount	1
Dilution Factor	1
Vial#	52
Injection Volume	1
Injection Count	1
Bar Code	

[Original Files]
Data File	C:\Users\User\Desktop\GC Analyses\Jack\Nachusa Grasslands Sampling\T0 Timepoint July 12th\T0_07122022_053.gcd
Method File	C:\LabSolutions\Data\GHG_4min_2022\ghg3_togas_w_acet_4 min_new_int.gcm
Batch File	C:\LabSolutions\Data\AutoSamplerTesting\T0_07122022.gcb
Report Format File	c:\LabSolutions\System\DEFAULT.lsr

[File Description]


[Configuration]
Instrument Name	C0B7VH3-Instrument1
Instrument #	1
Line #	1
# of Detectors	3
Detector ID	DET#1	DET#2	DET#3
Detector Name	FID	PTCD	ECD
# of Channels	1	1	1

[Peak Table(Ch1)]
# of Peaks	3
Peak#	R.Time	I.Time	F.Time	Area	Height	A/H	Conc.	Mark	ID#	Name	k'	Plate #	Plate Ht.	Tailing	Resolution	Sep.Factor	Area Ratio	Height Ratio	Conc. %	Norm Conc.
1	1.483	1.439	1.534	2428	686	3.540	17.142	   	1	CO	0.000	4705	31.883	0.000	0.000	0.000	0	0	1.839	1.839
2	1.567	1.534	1.637	20270	10151	1.997	391.934	 V 	2	CH4	0.057	11291	13.285	1.267	1.159	0.000	0	0	42.038	42.038
3	1.996	1.949	2.675	2084923	981761	2.124	523.259	   	3	CO2	0.346	17062	8.791	1.288	7.142	6.087	0	0	56.123	56.123

[Peak Table(Ch2)]
# of Peaks	0

[Peak Table(Ch3)]
# of Peaks	5
Peak#	R.Time	I.Time	F.Time	Area	Height	A/H	Conc.	Mark	ID#	Name	k'	Plate #	Plate Ht.	Tailing	Resolution	Sep.Factor	Area Ratio	Height Ratio	Conc. %	Norm Conc.
1	2.462	2.220	2.521	2432	439	5.537	0.000	   			0.000	5112	29.341	0.000	0.000	0.000	0	0	0.000	0.000
2	2.550	2.521	2.638	1285	267	4.819	0.000	 V 			0.036	1910	78.552	0.000	0.474	0.000	0	0	0.000	0.000
3	2.715	2.653	2.755	545	114	4.781	0.000	   			0.103	538	278.642	0.000	0.470	2.875	0	0	0.000	0.000
4	2.873	2.755	3.100	58899	15028	3.919	1.504	 V 	1	N2O	0.167	12588	11.916	1.617	0.553	1.623	0	0	100.000	100.000
5	3.228	3.107	3.753	10110	539	18.764	0.000	   	2	SF6	0.311	846	177.223	2.597	1.302	1.866	0	0	0.000	0.000

[Compound Results(Ch1)]
# of IDs	6
ID#	Name	R.Time	Area	Height	Conc.	Curve	3rd	2nd	1st	Constant	Area Ratio	Height Ratio	Conc. %	Norm Conc.
1	CO	1.483	2428	686	17.142	Linear	0.000000e+00	0.000000e+00	1.416423e+002	0.000000e+00	0	0	1.839	1.839
2	CH4	1.567	20270	10151	391.934	Linear	0.000000e+00	0.000000e+00	5.171738e+001	0.000000e+00	0	0	42.038	42.038
3	CO2	1.996	2084923	981761	523.259	Linear	0.000000e+00	0.000000e+00	3.984494e+003	0.000000e+00	0	0	56.123	56.123
4	Ethylene	0.000	0	0	0.000	Linear	0.000000e+00	0.000000e+00	0.000000e+00	0.000000e+00	0	0	0.000	0.000
5	Acetylene	0.000	0	0	0.000	Linear	0.000000e+00	0.000000e+00	0.000000e+00	0.000000e+00	0	0	0.000	0.000
6	Ethane	0.000	0	0	0.000	Linear	0.000000e+00	0.000000e+00	0.000000e+00	0.000000e+00	0	0	0.000	0.000

[Compound Results(Ch2)]
# of IDs	5
ID#	Name	R.Time	Area	Height	Conc.	Curve	3rd	2nd	1st	Constant	Area Ratio	Height Ratio	Conc. %	Norm Conc.
1	Hydrogen	0.000	0	0	0.000	Linear	0.000000e+00	0.000000e+00	0.000000e+00	0.000000e+00	0	0	0.000	0.000
2	Oxygen	0.000	0	0	0.000	Linear	0.000000e+00	0.000000e+00	0.000000e+00	0.000000e+00	0	0	0.000	0.000
3	Nitrogen	0.000	0	0	0.000	Linear	0.000000e+00	0.000000e+00	0.000000e+00	0.000000e+00	0	0	0.000	0.000
4	Methane	0.000	0	0	0.000	Linear	0.000000e+00	0.000000e+00	0.000000e+00	0.000000e+00	0	0	0.000	0.000
5	Carbon Monoxide	0.000	0	0	0.000	Linear	0.000000e+00	0.000000e+00	0.000000e+00	0.000000e+00	0	0	0.000	0.000

[Compound Results(Ch3)]
# of IDs	2
ID#	Name	R.Time	Area	Height	Conc.	Curve	3rd	2nd	1st	Constant	Area Ratio	Height Ratio	Conc. %	Norm Conc.
1	N2O	2.873	58899	15028	1.504	Linear	0.000000e+00	0.000000e+00	3.915173e+004	0.000000e+00	0	0	100.000	100.000
2	SF6	3.228	10110	539	0.000	Linear	0.000000e+00	0.000000e+00	0.000000e+00	0.000000e+00	0	0	0.000	0.000

[Group Results(Ch1)]
# of Groups	0

[Group Results(Ch2)]
# of Groups	0

[Group Results(Ch3)]
# of Groups	0

[Chromatogram (Ch1)]
Interval(msec)	220
# of Points	1091
Start Time(min)	0.002
End Time(min)	3.998
R.Time (min)	Intensity
0.00167	29
0.00533	40
0.00900	47
0.01267	49
0.01633	50
0.02000	51
0.02367	51
0.02733	51
0.03100	55
0.03467	64
0.03833	73
0.04200	81
0.04567	89
0.04933	95
0.05300	97
0.05667	97
0.06033	95
0.06400	95
0.06767	100
0.07133	108
0.07500	116
0.07867	121
0.08233	121
0.08600	120
0.08967	124
0.09333	135
0.09700	148
0.10067	158
0.10433	165
0.10800	167
0.11167	165
0.11533	159
0.11900	152
0.12267	149
0.12633	149
0.13000	147
0.13367	144
0.13733	143
0.14100	142
0.14467	139
0.14833	135
0.15200	132
0.15567	130
0.15933	127
0.16300	125
0.16667	121
0.17033	116
0.17400	108
0.17767	100
0.18133	94
0.18500	91
0.18867	90
0.19233	88
0.19600	87
0.19967	85
0.20333	82
0.20700	79
0.21067	73
0.21433	70
0.21800	75
0.22167	82
0.22533	85
0.22900	82
0.23267	73
0.23633	61
0.24000	46
0.24367	34
0.24733	25
0.25100	20
0.25467	18
0.25833	20
0.26200	23
0.26567	26
0.26933	26
0.27300	26
0.27667	26
0.28033	27
0.28400	35
0.28767	46
0.29133	53
0.29500	54
0.29867	50
0.30233	41
0.30600	31
0.30967	27
0.31333	25
0.31700	24
0.32067	23
0.32433	22
0.32800	22
0.33167	23
0.33533	26
0.33900	29
0.34267	31
0.34633	34
0.35000	40
0.35367	44
0.35733	46
0.36100	47
0.36467	47
0.36833	49
0.37200	48
0.37567	44
0.37933	38
0.38300	34
0.38667	32
0.39033	31
0.39400	30
0.39767	31
0.40133	33
0.40500	37
0.40867	41
0.41233	44
0.41600	46
0.41967	47
0.42333	48
0.42700	47
0.43067	45
0.43433	41
0.43800	33
0.44167	24
0.44533	20
0.44900	20
0.45267	20
0.45633	19
0.46000	18
0.46367	20
0.46733	23
0.47100	26
0.47467	28
0.47833	31
0.48200	31
0.48567	30
0.48933	32
0.49300	33
0.49667	32
0.50033	28
0.50400	23
0.50767	21
0.51133	21
0.51500	20
0.51867	20
0.52233	22
0.52600	29
0.52967	39
0.53333	48
0.53700	52
0.54067	51
0.54433	43
0.54800	32
0.55167	20
0.55533	8
0.55900	-1
0.56267	-4
0.56633	-3
0.57000	0
0.57367	8
0.57733	17
0.58100	19
0.58467	15
0.58833	5
0.59200	-6
0.59567	-13
0.59933	-11
0.60300	1
0.60667	12
0.61033	20
0.61400	21
0.61767	18
0.62133	16
0.62500	16
0.62867	18
0.63233	21
0.63600	21
0.63967	21
0.64333	23
0.64700	26
0.65067	25
0.65433	22
0.65800	18
0.66167	17
0.66533	19
0.66900	25
0.67267	31
0.67633	36
0.68000	39
0.68367	39
0.68733	42
0.69100	46
0.69467	48
0.69833	46
0.70200	39
0.70567	29
0.70933	20
0.71300	12
0.71667	9
0.72033	7
0.72400	4
0.72767	-0
0.73133	-4
0.73500	-3
0.73867	-0
0.74233	5
0.74600	11
0.74967	17
0.75333	22
0.75700	25
0.76067	26
0.76433	31
0.76800	34
0.77167	31
0.77533	25
0.77900	18
0.78267	12
0.78633	9
0.79000	8
0.79367	12
0.79733	19
0.80100	29
0.80467	38
0.80833	42
0.81200	39
0.81567	38
0.81933	38
0.82300	34
0.82667	29
0.83033	23
0.83400	14
0.83767	4
0.84133	0
0.84500	3
0.84867	10
0.85233	15
0.85600	17
0.85967	17
0.86333	16
0.86700	18
0.87067	20
0.87433	23
0.87800	22
0.88167	18
0.88533	12
0.88900	5
0.89267	-1
0.89633	-5
0.90000	-5
0.90367	-4
0.90733	-1
0.91100	1
0.91467	3
0.91833	4
0.92200	8
0.92567	13
0.92933	11
0.93300	4
0.93667	-6
0.94033	-14
0.94400	-16
0.94767	-11
0.95133	-1
0.95500	11
0.95867	22
0.96233	33
0.96600	37
0.96967	33
0.97333	20
0.97700	1
0.98067	-15
0.98433	-24
0.98800	-27
0.99167	-25
0.99533	-21
0.99900	-16
1.00267	-12
1.00633	-10
1.01000	-5
1.01367	0
1.01733	3
1.02100	6
1.02467	10
1.02833	14
1.03200	16
1.03567	14
1.03933	6
1.04300	-2
1.04667	-8
1.05033	-10
1.05400	-9
1.05767	-8
1.06133	-9
1.06500	-7
1.06867	-4
1.07233	4
1.07600	16
1.07967	27
1.08333	33
1.08700	34
1.09067	26
1.09433	13
1.09800	4
1.10167	-0
1.10533	-1
1.10900	-0
1.11267	2
1.11633	5
1.12000	9
1.12367	15
1.12733	21
1.13100	27
1.13467	31
1.13833	29
1.14200	19
1.14567	6
1.14933	-5
1.15300	-11
1.15667	-10
1.16033	-7
1.16400	-4
1.16767	1
1.17133	10
1.17500	19
1.17867	26
1.18233	29
1.18600	30
1.18967	28
1.19333	25
1.19700	26
1.20067	28
1.20433	31
1.20800	35
1.21167	36
1.21533	33
1.21900	26
1.22267	17
1.22633	7
1.23000	0
1.23367	1
1.23733	9
1.24100	19
1.24467	26
1.24833	27
1.25200	23
1.25567	18
1.25933	16
1.26300	12
1.26667	9
1.27033	10
1.27400	15
1.27767	19
1.28133	21
1.28500	23
1.28867	22
1.29233	16
1.29600	7
1.29967	3
1.30333	4
1.30700	4
1.31067	4
1.31433	8
1.31800	14
1.32167	20
1.32533	25
1.32900	29
1.33267	31
1.33633	33
1.34000	37
1.34367	41
1.34733	42
1.35100	38
1.35467	30
1.35833	21
1.36200	16
1.36567	16
1.36933	20
1.37300	20
1.37667	15
1.38033	11
1.38400	14
1.38767	18
1.39133	19
1.39500	15
1.39867	10
1.40233	6
1.40600	4
1.40967	5
1.41333	6
1.41700	7
1.42067	8
1.42433	5
1.42800	3
1.43167	-1
1.43533	-3
1.43900	17
1.44267	102
1.44633	264
1.45000	433
1.45367	559
1.45733	628
1.46100	655
1.46467	658
1.46833	654
1.47200	655
1.47567	666
1.47933	685
1.48300	701
1.48667	696
1.49033	659
1.49400	596
1.49767	520
1.50133	445
1.50500	379
1.50867	319
1.51233	266
1.51600	221
1.51967	187
1.52333	164
1.52700	143
1.53067	122
1.53433	112
1.53800	174
1.54167	491
1.54533	1349
1.54900	2873
1.55267	4819
1.55633	6764
1.56000	8389
1.56367	9556
1.56733	10164
1.57100	10081
1.57467	9249
1.57833	7828
1.58200	6157
1.58567	4564
1.58933	3236
1.59300	2226
1.59667	1501
1.60033	1002
1.60400	669
1.60767	451
1.61133	306
1.61500	211
1.61867	146
1.62233	100
1.62600	65
1.62967	40
1.63333	23
1.63700	12
1.64067	8
1.64433	9
1.64800	10
1.65167	6
1.65533	-2
1.65900	-11
1.66267	-19
1.66633	-25
1.67000	-30
1.67367	-33
1.67733	-33
1.68100	-28
1.68467	-23
1.68833	-19
1.69200	-19
1.69567	-22
1.69933	-23
1.70300	-21
1.70667	-14
1.71033	-4
1.71400	1
1.71767	1
1.72133	-1
1.72500	-3
1.72867	-8
1.73233	-13
1.73600	-15
1.73967	-14
1.74333	-11
1.74700	-5
1.75067	-1
1.75433	0
1.75800	2
1.76167	2
1.76533	3
1.76900	3
1.77267	5
1.77633	8
1.78000	6
1.78367	0
1.78733	-5
1.79100	-6
1.79467	-6
1.79833	-6
1.80200	-4
1.80567	-4
1.80933	-8
1.81300	-18
1.81667	-25
1.82033	-28
1.82400	-28
1.82767	-28
1.83133	-27
1.83500	-24
1.83867	-17
1.84233	-11
1.84600	-5
1.84967	-2
1.85333	-4
1.85700	-10
1.86067	-16
1.86433	-17
1.86800	-17
1.87167	-14
1.87533	-7
1.87900	-1
1.88267	1
1.88633	0
1.89000	-1
1.89367	-2
1.89733	-2
1.90100	2
1.90467	4
1.90833	5
1.91200	1
1.91567	-6
1.91933	-15
1.92300	-22
1.92667	-23
1.93033	-20
1.93400	-12
1.93767	-6
1.94133	-2
1.94500	-2
1.94867	0
1.95233	28
1.95600	226
1.95967	1349
1.96333	6342
1.96700	23250
1.97067	67361
1.97433	156462
1.97800	297421
1.98167	475983
1.98533	661861
1.98900	822888
1.99267	934379
1.99633	981784
2.00000	960694
2.00367	878319
2.00733	752846
2.01100	608318
2.01467	467272
2.01833	344812
2.02200	247243
2.02567	174206
2.02933	121891
2.03300	85505
2.03667	60654
2.04033	43837
2.04400	32476
2.04767	24760
2.05133	19456
2.05500	15749
2.05867	13103
2.06233	11166
2.06600	9707
2.06967	8577
2.07333	7685
2.07700	6965
2.08067	6367
2.08433	5864
2.08800	5438
2.09167	5072
2.09533	4749
2.09900	4464
2.10267	4209
2.10633	3977
2.11000	3767
2.11367	3579
2.11733	3409
2.12100	3253
2.12467	3108
2.12833	2977
2.13200	2857
2.13567	2745
2.13933	2640
2.14300	2542
2.14667	2453
2.15033	2366
2.15400	2280
2.15767	2196
2.16133	2120
2.16500	2052
2.16867	1988
2.17233	1928
2.17600	1869
2.17967	1815
2.18333	1766
2.18700	1720
2.19067	1671
2.19433	1625
2.19800	1585
2.20167	1548
2.20533	1510
2.20900	1472
2.21267	1436
2.21633	1403
2.22000	1374
2.22367	1348
2.22733	1322
2.23100	1298
2.23467	1277
2.23833	1251
2.24200	1217
2.24567	1181
2.24933	1150
2.25300	1123
2.25667	1098
2.26033	1072
2.26400	1049
2.26767	1032
2.27133	1019
2.27500	1007
2.27867	992
2.28233	975
2.28600	955
2.28967	933
2.29333	913
2.29700	900
2.30067	888
2.30433	874
2.30800	859
2.31167	840
2.31533	825
2.31900	815
2.32267	807
2.32633	799
2.33000	789
2.33367	777
2.33733	766
2.34100	754
2.34467	742
2.34833	732
2.35200	725
2.35567	720
2.35933	713
2.36300	700
2.36667	687
2.37033	673
2.37400	660
2.37767	648
2.38133	642
2.38500	643
2.38867	642
2.39233	636
2.39600	631
2.39967	625
2.40333	616
2.40700	607
2.41067	600
2.41433	597
2.41800	597
2.42167	597
2.42533	598
2.42900	596
2.43267	591
2.43633	585
2.44000	575
2.44367	566
2.44733	559
2.45100	554
2.45467	547
2.45833	542
2.46200	539
2.46567	533
2.46933	528
2.47300	524
2.47667	517
2.48033	510
2.48400	504
2.48767	500
2.49133	496
2.49500	493
2.49867	488
2.50233	483
2.50600	480
2.50967	477
2.51333	475
2.51700	472
2.52067	468
2.52433	462
2.52800	457
2.53167	455
2.53533	456
2.53900	455
2.54267	452
2.54633	449
2.55000	446
2.55367	445
2.55733	445
2.56100	446
2.56467	443
2.56833	439
2.57200	432
2.57567	425
2.57933	419
2.58300	415
2.58667	412
2.59033	413
2.59400	414
2.59767	417
2.60133	416
2.60500	407
2.60867	397
2.61233	390
2.61600	385
2.61967	382
2.62333	383
2.62700	386
2.63067	389
2.63433	391
2.63800	392
2.64167	393
2.64533	391
2.64900	387
2.65267	383
2.65633	379
2.66000	375
2.66367	374
2.66733	372
2.67100	367
2.67467	359
2.67833	354
2.68200	354
2.68567	356
2.68933	357
2.69300	356
2.69667	357
2.70033	357
2.70400	358
2.70767	359
2.71133	356
2.71500	351
2.71867	346
2.72233	345
2.72600	347
2.72967	353
2.73333	360
2.73700	365
2.74067	367
2.74433	365
2.74800	361
2.75167	360
2.75533	356
2.75900	346
2.76267	337
2.76633	333
2.77000	331
2.77367	327
2.77733	324
2.78100	326
2.78467	328
2.78833	327
2.79200	325
2.79567	324
2.79933	324
2.80300	325
2.80667	327
2.81033	333
2.81400	340
2.81767	348
2.82133	350
2.82500	348
2.82867	344
2.83233	338
2.83600	330
2.83967	321
2.84333	317
2.84700	312
2.85067	311
2.85433	311
2.85800	312
2.86167	315
2.86533	322
2.86900	329
2.87267	334
2.87633	334
2.88000	330
2.88367	324
2.88733	321
2.89100	322
2.89467	326
2.89833	324
2.90200	320
2.90567	317
2.90933	312
2.91300	310
2.91667	307
2.92033	304
2.92400	302
2.92767	303
2.93133	304
2.93500	306
2.93867	307
2.94233	310
2.94600	315
2.94967	321
2.95333	323
2.95700	322
2.96067	322
2.96433	323
2.96800	320
2.97167	315
2.97533	310
2.97900	307
2.98267	306
2.98633	304
2.99000	299
2.99367	292
2.99733	286
3.00100	282
3.00467	277
3.00833	277
3.01200	283
3.01567	292
3.01933	297
3.02300	299
3.02667	303
3.03033	308
3.03400	309
3.03767	308
3.04133	308
3.04500	310
3.04867	316
3.05233	320
3.05600	320
3.05967	314
3.06333	308
3.06700	299
3.07067	291
3.07433	285
3.07800	279
3.08167	274
3.08533	269
3.08900	269
3.09267	273
3.09633	277
3.10000	279
3.10367	276
3.10733	273
3.11100	270
3.11467	269
3.11833	271
3.12200	273
3.12567	274
3.12933	277
3.13300	283
3.13667	287
3.14033	289
3.14400	288
3.14767	286
3.15133	280
3.15500	269
3.15867	258
3.16233	247
3.16600	243
3.16967	244
3.17333	246
3.17700	251
3.18067	257
3.18433	262
3.18800	267
3.19167	275
3.19533	285
3.19900	292
3.20267	292
3.20633	289
3.21000	284
3.21367	278
3.21733	273
3.22100	270
3.22467	267
3.22833	266
3.23200	269
3.23567	271
3.23933	272
3.24300	273
3.24667	271
3.25033	267
3.25400	263
3.25767	261
3.26133	260
3.26500	265
3.26867	272
3.27233	275
3.27600	274
3.27967	272
3.28333	271
3.28700	267
3.29067	262
3.29433	259
3.29800	258
3.30167	261
3.30533	265
3.30900	262
3.31267	256
3.31633	250
3.32000	248
3.32367	251
3.32733	257
3.33100	266
3.33467	275
3.33833	279
3.34200	274
3.34567	263
3.34933	251
3.35300	246
3.35667	244
3.36033	243
3.36400	242
3.36767	245
3.37133	249
3.37500	252
3.37867	254
3.38233	256
3.38600	257
3.38967	256
3.39333	252
3.39700	246
3.40067	242
3.40433	242
3.40800	247
3.41167	258
3.41533	272
3.41900	277
3.42267	271
3.42633	258
3.43000	246
3.43367	241
3.43733	238
3.44100	235
3.44467	234
3.44833	234
3.45200	231
3.45567	227
3.45933	223
3.46300	218
3.46667	214
3.47033	214
3.47400	216
3.47767	215
3.48133	212
3.48500	210
3.48867	212
3.49233	220
3.49600	227
3.49967	229
3.50333	230
3.50700	233
3.51067	236
3.51433	238
3.51800	238
3.52167	236
3.52533	235
3.52900	233
3.53267	231
3.53633	229
3.54000	232
3.54367	235
3.54733	236
3.55100	233
3.55467	225
3.55833	215
3.56200	205
3.56567	197
3.56933	196
3.57300	202
3.57667	212
3.58033	223
3.58400	230
3.58767	234
3.59133	233
3.59500	227
3.59867	220
3.60233	213
3.60600	208
3.60967	208
3.61333	212
3.61700	214
3.62067	216
3.62433	217
3.62800	216
3.63167	215
3.63533	215
3.63900	216
3.64267	218
3.64633	219
3.65000	218
3.65367	219
3.65733	222
3.66100	226
3.66467	229
3.66833	229
3.67200	226
3.67567	220
3.67933	212
3.68300	204
3.68667	196
3.69033	187
3.69400	179
3.69767	174
3.70133	169
3.70500	166
3.70867	173
3.71233	184
3.71600	192
3.71967	195
3.72333	194
3.72700	193
3.73067	193
3.73433	195
3.73800	199
3.74167	201
3.74533	202
3.74900	201
3.75267	203
3.75633	204
3.76000	205
3.76367	205
3.76733	203
3.77100	197
3.77467	190
3.77833	183
3.78200	183
3.78567	186
3.78933	188
3.79300	186
3.79667	182
3.80033	176
3.80400	167
3.80767	162
3.81133	166
3.81500	174
3.81867	181
3.82233	183
3.82600	184
3.82967	188
3.83333	188
3.83700	182
3.84067	177
3.84433	174
3.84800	169
3.85167	166
3.85533	166
3.85900	167
3.86267	168
3.86633	166
3.87000	164
3.87367	165
3.87733	168
3.88100	176
3.88467	186
3.88833	194
3.89200	196
3.89567	192
3.89933	183
3.90300	172
3.90667	163
3.91033	157
3.91400	153
3.91767	152
3.92133	152
3.92500	153
3.92867	158
3.93233	164
3.93600	168
3.93967	168
3.94333	168
3.94700	170
3.95067	172
3.95433	173
3.95800	170
3.96167	169
3.96533	170
3.96900	177
3.97267	186
3.97633	190
3.98000	187
3.98367	176
3.98733	162
3.99100	149
3.99467	137
3.99833	130

[Chromatogram (Ch2)]
Interval(msec)	220
# of Points	1091
Start Time(min)	0.002
End Time(min)	3.998
R.Time (min)	Intensity
0.00167	1
0.00533	1
0.00900	1
0.01267	2
0.01633	2
0.02000	2
0.02367	2
0.02733	2
0.03100	3
0.03467	3
0.03833	3
0.04200	3
0.04567	3
0.04933	3
0.05300	3
0.05667	3
0.06033	3
0.06400	2
0.06767	2
0.07133	2
0.07500	2
0.07867	2
0.08233	2
0.08600	2
0.08967	2
0.09333	2
0.09700	2
0.10067	1
0.10433	1
0.10800	2
0.11167	2
0.11533	2
0.11900	2
0.12267	2
0.12633	2
0.13000	2
0.13367	2
0.13733	2
0.14100	2
0.14467	2
0.14833	2
0.15200	1
0.15567	1
0.15933	1
0.16300	1
0.16667	1
0.17033	1
0.17400	0
0.17767	-1
0.18133	-1
0.18500	-1
0.18867	-2
0.19233	-2
0.19600	-2
0.19967	-2
0.20333	-2
0.20700	-3
0.21067	-3
0.21433	-3
0.21800	-3
0.22167	-3
0.22533	-3
0.22900	-2
0.23267	-2
0.23633	-2
0.24000	-1
0.24367	-1
0.24733	-1
0.25100	-1
0.25467	-1
0.25833	-1
0.26200	-1
0.26567	-1
0.26933	-1
0.27300	-1
0.27667	-2
0.28033	-2
0.28400	-2
0.28767	-2
0.29133	-2
0.29500	-2
0.29867	-2
0.30233	-1
0.30600	-1
0.30967	-1
0.31333	-0
0.31700	-0
0.32067	-0
0.32433	-1
0.32800	-1
0.33167	-1
0.33533	-1
0.33900	-1
0.34267	-1
0.34633	-1
0.35000	-1
0.35367	-1
0.35733	-0
0.36100	0
0.36467	1
0.36833	1
0.37200	1
0.37567	1
0.37933	1
0.38300	1
0.38667	1
0.39033	1
0.39400	1
0.39767	1
0.40133	1
0.40500	1
0.40867	1
0.41233	1
0.41600	1
0.41967	1
0.42333	1
0.42700	1
0.43067	1
0.43433	1
0.43800	1
0.44167	1
0.44533	2
0.44900	2
0.45267	2
0.45633	1
0.46000	1
0.46367	1
0.46733	1
0.47100	0
0.47467	0
0.47833	0
0.48200	0
0.48567	0
0.48933	0
0.49300	1
0.49667	1
0.50033	1
0.50400	1
0.50767	0
0.51133	0
0.51500	0
0.51867	0
0.52233	1
0.52600	1
0.52967	1
0.53333	1
0.53700	1
0.54067	1
0.54433	1
0.54800	1
0.55167	1
0.55533	1
0.55900	1
0.56267	1
0.56633	1
0.57000	2
0.57367	1
0.57733	1
0.58100	1
0.58467	1
0.58833	0
0.59200	0
0.59567	-0
0.59933	-0
0.60300	0
0.60667	0
0.61033	0
0.61400	0
0.61767	-0
0.62133	-0
0.62500	-1
0.62867	-1
0.63233	-1
0.63600	-1
0.63967	-1
0.64333	-1
0.64700	-0
0.65067	-0
0.65433	-0
0.65800	-0
0.66167	-0
0.66533	-0
0.66900	-1
0.67267	-1
0.67633	-1
0.68000	-1
0.68367	-1
0.68733	-1
0.69100	-1
0.69467	-1
0.69833	-1
0.70200	-1
0.70567	-0
0.70933	-0
0.71300	-0
0.71667	0
0.72033	0
0.72400	0
0.72767	0
0.73133	0
0.73500	0
0.73867	0
0.74233	0
0.74600	0
0.74967	0
0.75333	0
0.75700	-0
0.76067	-0
0.76433	-0
0.76800	-1
0.77167	-1
0.77533	-1
0.77900	-1
0.78267	-1
0.78633	-1
0.79000	-1
0.79367	-1
0.79733	-1
0.80100	-1
0.80467	-1
0.80833	-1
0.81200	-1
0.81567	-0
0.81933	-0
0.82300	-0
0.82667	-0
0.83033	-0
0.83400	-0
0.83767	-0
0.84133	-0
0.84500	-1
0.84867	-1
0.85233	-1
0.85600	-1
0.85967	-1
0.86333	-1
0.86700	-1
0.87067	-1
0.87433	-1
0.87800	-1
0.88167	-1
0.88533	-1
0.88900	-1
0.89267	-1
0.89633	-1
0.90000	-1
0.90367	-1
0.90733	-1
0.91100	-1
0.91467	-1
0.91833	-1
0.92200	-1
0.92567	-1
0.92933	-2
0.93300	-2
0.93667	-2
0.94033	-2
0.94400	-1
0.94767	-1
0.95133	-1
0.95500	-0
0.95867	-0
0.96233	-0
0.96600	-0
0.96967	0
0.97333	0
0.97700	0
0.98067	0
0.98433	0
0.98800	0
0.99167	-0
0.99533	-0
0.99900	-1
1.00267	-1
1.00633	-1
1.01000	-1
1.01367	-2
1.01733	-2
1.02100	-2
1.02467	-3
1.02833	-3
1.03200	-4
1.03567	-4
1.03933	-4
1.04300	-4
1.04667	-3
1.05033	-3
1.05400	-3
1.05767	-2
1.06133	-2
1.06500	-1
1.06867	-1
1.07233	-1
1.07600	-1
1.07967	-1
1.08333	-1
1.08700	-1
1.09067	-1
1.09433	-1
1.09800	-1
1.10167	-2
1.10533	-2
1.10900	-2
1.11267	-2
1.11633	-2
1.12000	-2
1.12367	-2
1.12733	-2
1.13100	-1
1.13467	-1
1.13833	-1
1.14200	-0
1.14567	-0
1.14933	0
1.15300	0
1.15667	0
1.16033	1
1.16400	0
1.16767	0
1.17133	0
1.17500	0
1.17867	-0
1.18233	-0
1.18600	-0
1.18967	-0
1.19333	-0
1.19700	-0
1.20067	-0
1.20433	-0
1.20800	-0
1.21167	-0
1.21533	-0
1.21900	-0
1.22267	-1
1.22633	-1
1.23000	-1
1.23367	-1
1.23733	-1
1.24100	-1
1.24467	-2
1.24833	-2
1.25200	-2
1.25567	-3
1.25933	-3
1.26300	-3
1.26667	-3
1.27033	-3
1.27400	-3
1.27767	-2
1.28133	-2
1.28500	-2
1.28867	-2
1.29233	-3
1.29600	-3
1.29967	-3
1.30333	-3
1.30700	-2
1.31067	-2
1.31433	-2
1.31800	-2
1.32167	-1
1.32533	-1
1.32900	-1
1.33267	-1
1.33633	-1
1.34000	-1
1.34367	-1
1.34733	-1
1.35100	-1
1.35467	-1
1.35833	-1
1.36200	-1
1.36567	-1
1.36933	-1
1.37300	-2
1.37667	-2
1.38033	-2
1.38400	-2
1.38767	-2
1.39133	-2
1.39500	-2
1.39867	-1
1.40233	-1
1.40600	-1
1.40967	-1
1.41333	-1
1.41700	-1
1.42067	-1
1.42433	-1
1.42800	-1
1.43167	-1
1.43533	-0
1.43900	-1
1.44267	-1
1.44633	-1
1.45000	-1
1.45367	-1
1.45733	-1
1.46100	-1
1.46467	-1
1.46833	-1
1.47200	-1
1.47567	-1
1.47933	-1
1.48300	-1
1.48667	-1
1.49033	-1
1.49400	-2
1.49767	-2
1.50133	-3
1.50500	-3
1.50867	-3
1.51233	-3
1.51600	-4
1.51967	-4
1.52333	-4
1.52700	-4
1.53067	-4
1.53433	-4
1.53800	-4
1.54167	-4
1.54533	-4
1.54900	-3
1.55267	-3
1.55633	-3
1.56000	-3
1.56367	-3
1.56733	-3
1.57100	-3
1.57467	-3
1.57833	-3
1.58200	-3
1.58567	-3
1.58933	-3
1.59300	-4
1.59667	-4
1.60033	-5
1.60400	-6
1.60767	-7
1.61133	-8
1.61500	-10
1.61867	-12
1.62233	-14
1.62600	-16
1.62967	-19
1.63333	-22
1.63700	-25
1.64067	-29
1.64433	-32
1.64800	-36
1.65167	-40
1.65533	-44
1.65900	-47
1.66267	-51
1.66633	-56
1.67000	-60
1.67367	-65
1.67733	-70
1.68100	-75
1.68467	-80
1.68833	-85
1.69200	-90
1.69567	-93
1.69933	-97
1.70300	-99
1.70667	-101
1.71033	-103
1.71400	-104
1.71767	-106
1.72133	-107
1.72500	-107
1.72867	-108
1.73233	-109
1.73600	-109
1.73967	-110
1.74333	-111
1.74700	-111
1.75067	-112
1.75433	-113
1.75800	-114
1.76167	-115
1.76533	-116
1.76900	-116
1.77267	-117
1.77633	-117
1.78000	-117
1.78367	-117
1.78733	-118
1.79100	-118
1.79467	-118
1.79833	-118
1.80200	-118
1.80567	-118
1.80933	-118
1.81300	-118
1.81667	-118
1.82033	-118
1.82400	-119
1.82767	-119
1.83133	-119
1.83500	-119
1.83867	-119
1.84233	-118
1.84600	-118
1.84967	-118
1.85333	-118
1.85700	-118
1.86067	-118
1.86433	-118
1.86800	-117
1.87167	-117
1.87533	-117
1.87900	-117
1.88267	-117
1.88633	-117
1.89000	-117
1.89367	-117
1.89733	-117
1.90100	-117
1.90467	-117
1.90833	-117
1.91200	-117
1.91567	-117
1.91933	-117
1.92300	-116
1.92667	-116
1.93033	-116
1.93400	-115
1.93767	-115
1.94133	-114
1.94500	-114
1.94867	-114
1.95233	-114
1.95600	-114
1.95967	-114
1.96333	-114
1.96700	-113
1.97067	-112
1.97433	-111
1.97800	-111
1.98167	-110
1.98533	-110
1.98900	-109
1.99267	-109
1.99633	-110
2.00000	-110
2.00367	-110
2.00733	-110
2.01100	-110
2.01467	-110
2.01833	-110
2.02200	-110
2.02567	-109
2.02933	-109
2.03300	-108
2.03667	-108
2.04033	-107
2.04400	-106
2.04767	-105
2.05133	-105
2.05500	-104
2.05867	-104
2.06233	-103
2.06600	-103
2.06967	-102
2.07333	-102
2.07700	-102
2.08067	-102
2.08433	-102
2.08800	-102
2.09167	-102
2.09533	-103
2.09900	-104
2.10267	-104
2.10633	-104
2.11000	-104
2.11367	-103
2.11733	-103
2.12100	-102
2.12467	-102
2.12833	-101
2.13200	-100
2.13567	-99
2.13933	-99
2.14300	-98
2.14667	-98
2.15033	-97
2.15400	-96
2.15767	-96
2.16133	-96
2.16500	-96
2.16867	-96
2.17233	-96
2.17600	-96
2.17967	-96
2.18333	-96
2.18700	-96
2.19067	-96
2.19433	-96
2.19800	-95
2.20167	-95
2.20533	-94
2.20900	-94
2.21267	-94
2.21633	-93
2.22000	-92
2.22367	-91
2.22733	-91
2.23100	-91
2.23467	-91
2.23833	-91
2.24200	-91
2.24567	-91
2.24933	-90
2.25300	-90
2.25667	-91
2.26033	-91
2.26400	-91
2.26767	-92
2.27133	-92
2.27500	-91
2.27867	-90
2.28233	-89
2.28600	-88
2.28967	-87
2.29333	-86
2.29700	-86
2.30067	-85
2.30433	-85
2.30800	-84
2.31167	-84
2.31533	-84
2.31900	-84
2.32267	-84
2.32633	-84
2.33000	-83
2.33367	-83
2.33733	-83
2.34100	-83
2.34467	-83
2.34833	-83
2.35200	-83
2.35567	-82
2.35933	-81
2.36300	-79
2.36667	-77
2.37033	-75
2.37400	-72
2.37767	-68
2.38133	-65
2.38500	-61
2.38867	-56
2.39233	-52
2.39600	-48
2.39967	-43
2.40333	-39
2.40700	-36
2.41067	-32
2.41433	-30
2.41800	-27
2.42167	-25
2.42533	-23
2.42900	-21
2.43267	-19
2.43633	-17
2.44000	-15
2.44367	-14
2.44733	-12
2.45100	-10
2.45467	-8
2.45833	-6
2.46200	-4
2.46567	-3
2.46933	-1
2.47300	1
2.47667	1
2.48033	2
2.48400	3
2.48767	3
2.49133	4
2.49500	4
2.49867	6
2.50233	7
2.50600	8
2.50967	8
2.51333	9
2.51700	10
2.52067	10
2.52433	10
2.52800	10
2.53167	11
2.53533	11
2.53900	12
2.54267	12
2.54633	13
2.55000	13
2.55367	13
2.55733	14
2.56100	14
2.56467	14
2.56833	14
2.57200	14
2.57567	15
2.57933	15
2.58300	15
2.58667	15
2.59033	15
2.59400	15
2.59767	15
2.60133	16
2.60500	16
2.60867	16
2.61233	17
2.61600	17
2.61967	18
2.62333	18
2.62700	18
2.63067	18
2.63433	18
2.63800	19
2.64167	20
2.64533	20
2.64900	21
2.65267	21
2.65633	22
2.66000	22
2.66367	22
2.66733	22
2.67100	22
2.67467	22
2.67833	22
2.68200	22
2.68567	21
2.68933	21
2.69300	21
2.69667	21
2.70033	21
2.70400	21
2.70767	21
2.71133	21
2.71500	21
2.71867	21
2.72233	21
2.72600	21
2.72967	21
2.73333	21
2.73700	21
2.74067	22
2.74433	22
2.74800	23
2.75167	23
2.75533	23
2.75900	24
2.76267	24
2.76633	24
2.77000	25
2.77367	25
2.77733	25
2.78100	26
2.78467	25
2.78833	25
2.79200	25
2.79567	24
2.79933	24
2.80300	23
2.80667	23
2.81033	22
2.81400	22
2.81767	22
2.82133	22
2.82500	22
2.82867	23
2.83233	23
2.83600	22
2.83967	21
2.84333	17
2.84700	12
2.85067	3
2.85433	-10
2.85800	-27
2.86167	-49
2.86533	-76
2.86900	-108
2.87267	-145
2.87633	-188
2.88000	-236
2.88367	-289
2.88733	-347
2.89100	-409
2.89467	-475
2.89833	-544
2.90200	-617
2.90567	-693
2.90933	-771
2.91300	-852
2.91667	-935
2.92033	-1020
2.92400	-1107
2.92767	-1196
2.93133	-1286
2.93500	-1376
2.93867	-1459
2.94233	-1521
2.94600	-1551
2.94967	-1545
2.95333	-1504
2.95700	-1435
2.96067	-1344
2.96433	-1240
2.96800	-1130
2.97167	-1018
2.97533	-908
2.97900	-804
2.98267	-708
2.98633	-619
2.99000	-539
2.99367	-467
2.99733	-403
3.00100	-347
3.00467	-298
3.00833	-256
3.01200	-219
3.01567	-187
3.01933	-159
3.02300	-135
3.02667	-115
3.03033	-97
3.03400	-82
3.03767	-69
3.04133	-58
3.04500	-48
3.04867	-40
3.05233	-33
3.05600	-27
3.05967	-22
3.06333	-18
3.06700	-14
3.07067	-11
3.07433	-8
3.07800	-6
3.08167	-3
3.08533	-1
3.08900	0
3.09267	2
3.09633	3
3.10000	4
3.10367	5
3.10733	6
3.11100	6
3.11467	7
3.11833	8
3.12200	9
3.12567	10
3.12933	10
3.13300	11
3.13667	12
3.14033	13
3.14400	13
3.14767	14
3.15133	14
3.15500	14
3.15867	14
3.16233	15
3.16600	15
3.16967	15
3.17333	15
3.17700	15
3.18067	16
3.18433	16
3.18800	16
3.19167	16
3.19533	17
3.19900	17
3.20267	17
3.20633	17
3.21000	17
3.21367	17
3.21733	18
3.22100	18
3.22467	18
3.22833	19
3.23200	19
3.23567	19
3.23933	19
3.24300	19
3.24667	19
3.25033	20
3.25400	20
3.25767	20
3.26133	20
3.26500	20
3.26867	20
3.27233	20
3.27600	20
3.27967	20
3.28333	20
3.28700	20
3.29067	20
3.29433	20
3.29800	20
3.30167	20
3.30533	20
3.30900	20
3.31267	20
3.31633	20
3.32000	21
3.32367	21
3.32733	21
3.33100	21
3.33467	21
3.33833	21
3.34200	22
3.34567	22
3.34933	22
3.35300	22
3.35667	23
3.36033	23
3.36400	24
3.36767	24
3.37133	25
3.37500	25
3.37867	26
3.38233	26
3.38600	26
3.38967	26
3.39333	26
3.39700	26
3.40067	26
3.40433	26
3.40800	26
3.41167	26
3.41533	26
3.41900	26
3.42267	26
3.42633	27
3.43000	27
3.43367	26
3.43733	26
3.44100	26
3.44467	27
3.44833	27
3.45200	27
3.45567	27
3.45933	27
3.46300	27
3.46667	27
3.47033	27
3.47400	27
3.47767	27
3.48133	27
3.48500	27
3.48867	27
3.49233	27
3.49600	27
3.49967	27
3.50333	27
3.50700	27
3.51067	27
3.51433	27
3.51800	27
3.52167	27
3.52533	27
3.52900	27
3.53267	27
3.53633	27
3.54000	27
3.54367	28
3.54733	28
3.55100	28
3.55467	28
3.55833	27
3.56200	27
3.56567	27
3.56933	27
3.57300	26
3.57667	26
3.58033	26
3.58400	26
3.58767	26
3.59133	25
3.59500	25
3.59867	25
3.60233	25
3.60600	25
3.60967	25
3.61333	25
3.61700	25
3.62067	25
3.62433	25
3.62800	25
3.63167	25
3.63533	25
3.63900	25
3.64267	25
3.64633	26
3.65000	26
3.65367	26
3.65733	25
3.66100	25
3.66467	25
3.66833	25
3.67200	24
3.67567	24
3.67933	23
3.68300	23
3.68667	23
3.69033	23
3.69400	22
3.69767	22
3.70133	22
3.70500	22
3.70867	22
3.71233	22
3.71600	22
3.71967	22
3.72333	22
3.72700	23
3.73067	23
3.73433	23
3.73800	23
3.74167	24
3.74533	24
3.74900	25
3.75267	25
3.75633	25
3.76000	25
3.76367	25
3.76733	25
3.77100	25
3.77467	26
3.77833	26
3.78200	26
3.78567	25
3.78933	25
3.79300	25
3.79667	25
3.80033	25
3.80400	25
3.80767	25
3.81133	26
3.81500	26
3.81867	26
3.82233	26
3.82600	27
3.82967	27
3.83333	27
3.83700	27
3.84067	27
3.84433	26
3.84800	26
3.85167	26
3.85533	26
3.85900	25
3.86267	25
3.86633	25
3.87000	25
3.87367	25
3.87733	24
3.88100	24
3.88467	24
3.88833	24
3.89200	24
3.89567	25
3.89933	25
3.90300	25
3.90667	25
3.91033	25
3.91400	25
3.91767	25
3.92133	25
3.92500	25
3.92867	25
3.93233	25
3.93600	25
3.93967	25
3.94333	25
3.94700	25
3.95067	26
3.95433	26
3.95800	26
3.96167	26
3.96533	26
3.96900	26
3.97267	25
3.97633	25
3.98000	25
3.98367	25
3.98733	24
3.99100	24
3.99467	24
3.99833	23

[Chromatogram (Ch3)]
Interval(msec)	220
# of Points	1091
Start Time(min)	0.002
End Time(min)	3.998
R.Time (min)	Intensity
0.00167	1
0.00533	1
0.00900	2
0.01267	4
0.01633	6
0.02000	5
0.02367	4
0.02733	4
0.03100	3
0.03467	2
0.03833	3
0.04200	4
0.04567	5
0.04933	6
0.05300	7
0.05667	7
0.06033	7
0.06400	7
0.06767	6
0.07133	5
0.07500	6
0.07867	4
0.08233	1
0.08600	-1
0.08967	-2
0.09333	-3
0.09700	-4
0.10067	-4
0.10433	-4
0.10800	-4
0.11167	-3
0.11533	-2
0.11900	-1
0.12267	-4
0.12633	-4
0.13000	-4
0.13367	-4
0.13733	-6
0.14100	-7
0.14467	-8
0.14833	-7
0.15200	-7
0.15567	-7
0.15933	-9
0.16300	-10
0.16667	-9
0.17033	-8
0.17400	-9
0.17767	-10
0.18133	-10
0.18500	-10
0.18867	-9
0.19233	-8
0.19600	-7
0.19967	-6
0.20333	-7
0.20700	-5
0.21067	-3
0.21433	-2
0.21800	-2
0.22167	-2
0.22533	-4
0.22900	-3
0.23267	-3
0.23633	-5
0.24000	-7
0.24367	-6
0.24733	-4
0.25100	-3
0.25467	-3
0.25833	-4
0.26200	-4
0.26567	-4
0.26933	-2
0.27300	1
0.27667	2
0.28033	2
0.28400	2
0.28767	3
0.29133	3
0.29500	2
0.29867	3
0.30233	4
0.30600	6
0.30967	8
0.31333	7
0.31700	6
0.32067	3
0.32433	2
0.32800	3
0.33167	6
0.33533	6
0.33900	7
0.34267	6
0.34633	4
0.35000	3
0.35367	3
0.35733	4
0.36100	3
0.36467	3
0.36833	1
0.37200	-1
0.37567	1
0.37933	3
0.38300	2
0.38667	-0
0.39033	-3
0.39400	-5
0.39767	-4
0.40133	-3
0.40500	-2
0.40867	-1
0.41233	-1
0.41600	-0
0.41967	0
0.42333	0
0.42700	1
0.43067	2
0.43433	3
0.43800	5
0.44167	4
0.44533	3
0.44900	-1
0.45267	-3
0.45633	-4
0.46000	-4
0.46367	-5
0.46733	-5
0.47100	-7
0.47467	-5
0.47833	-2
0.48200	-2
0.48567	-1
0.48933	2
0.49300	3
0.49667	4
0.50033	5
0.50400	6
0.50767	6
0.51133	5
0.51500	3
0.51867	2
0.52233	2
0.52600	0
0.52967	-3
0.53333	-4
0.53700	-4
0.54067	-3
0.54433	-5
0.54800	-6
0.55167	-5
0.55533	-5
0.55900	-5
0.56267	-4
0.56633	-3
0.57000	-4
0.57367	-2
0.57733	-0
0.58100	-1
0.58467	-1
0.58833	-1
0.59200	0
0.59567	-0
0.59933	-2
0.60300	-3
0.60667	-4
0.61033	-4
0.61400	-6
0.61767	-7
0.62133	-8
0.62500	-8
0.62867	-8
0.63233	-7
0.63600	-6
0.63967	-3
0.64333	-1
0.64700	-0
0.65067	-1
0.65433	-2
0.65800	-4
0.66167	-4
0.66533	-3
0.66900	-2
0.67267	-3
0.67633	-3
0.68000	-1
0.68367	0
0.68733	-0
0.69100	-2
0.69467	-4
0.69833	-3
0.70200	-2
0.70567	-2
0.70933	-2
0.71300	-1
0.71667	0
0.72033	1
0.72400	1
0.72767	-0
0.73133	-2
0.73500	-2
0.73867	-1
0.74233	0
0.74600	2
0.74967	2
0.75333	3
0.75700	4
0.76067	4
0.76433	3
0.76800	2
0.77167	1
0.77533	-2
0.77900	-2
0.78267	1
0.78633	2
0.79000	1
0.79367	2
0.79733	2
0.80100	1
0.80467	-1
0.80833	-2
0.81200	-3
0.81567	-4
0.81933	-4
0.82300	-6
0.82667	-8
0.83033	-6
0.83400	-6
0.83767	-7
0.84133	-6
0.84500	-5
0.84867	-4
0.85233	-5
0.85600	-6
0.85967	-5
0.86333	-4
0.86700	-5
0.87067	-8
0.87433	-7
0.87800	-9
0.88167	-9
0.88533	-7
0.88900	-8
0.89267	-8
0.89633	-7
0.90000	-7
0.90367	-8
0.90733	-7
0.91100	-7
0.91467	-6
0.91833	-5
0.92200	-5
0.92567	-6
0.92933	-7
0.93300	-9
0.93667	-11
0.94033	-9
0.94400	-6
0.94767	-6
0.95133	-7
0.95500	-7
0.95867	-8
0.96233	-9
0.96600	-8
0.96967	-6
0.97333	-4
0.97700	-5
0.98067	-6
0.98433	-7
0.98800	-7
0.99167	-8
0.99533	-8
0.99900	-7
1.00267	-5
1.00633	-2
1.01000	0
1.01367	2
1.01733	2
1.02100	-1
1.02467	-2
1.02833	-5
1.03200	-9
1.03567	-10
1.03933	-9
1.04300	-7
1.04667	-4
1.05033	-0
1.05400	4
1.05767	7
1.06133	5
1.06500	2
1.06867	0
1.07233	0
1.07600	1
1.07967	2
1.08333	3
1.08700	4
1.09067	4
1.09433	4
1.09800	5
1.10167	7
1.10533	7
1.10900	6
1.11267	8
1.11633	9
1.12000	9
1.12367	7
1.12733	6
1.13100	7
1.13467	8
1.13833	9
1.14200	7
1.14567	6
1.14933	7
1.15300	8
1.15667	9
1.16033	9
1.16400	10
1.16767	12
1.17133	15
1.17500	16
1.17867	13
1.18233	11
1.18600	9
1.18967	8
1.19333	7
1.19700	6
1.20067	9
1.20433	12
1.20800	13
1.21167	13
1.21533	12
1.21900	12
1.22267	14
1.22633	15
1.23000	15
1.23367	14
1.23733	12
1.24100	10
1.24467	10
1.24833	12
1.25200	13
1.25567	15
1.25933	16
1.26300	15
1.26667	15
1.27033	15
1.27400	16
1.27767	18
1.28133	19
1.28500	18
1.28867	18
1.29233	18
1.29600	16
1.29967	13
1.30333	16
1.30700	18
1.31067	19
1.31433	17
1.31800	16
1.32167	19
1.32533	20
1.32900	22
1.33267	21
1.33633	19
1.34000	19
1.34367	18
1.34733	16
1.35100	16
1.35467	16
1.35833	16
1.36200	17
1.36567	19
1.36933	17
1.37300	14
1.37667	12
1.38033	9
1.38400	7
1.38767	7
1.39133	9
1.39500	8
1.39867	7
1.40233	8
1.40600	11
1.40967	13
1.41333	14
1.41700	15
1.42067	15
1.42433	15
1.42800	13
1.43167	12
1.43533	12
1.43900	12
1.44267	13
1.44633	14
1.45000	13
1.45367	14
1.45733	16
1.46100	15
1.46467	13
1.46833	12
1.47200	11
1.47567	9
1.47933	8
1.48300	7
1.48667	9
1.49033	11
1.49400	13
1.49767	14
1.50133	13
1.50500	13
1.50867	14
1.51233	14
1.51600	12
1.51967	12
1.52333	12
1.52700	13
1.53067	12
1.53433	10
1.53800	9
1.54167	10
1.54533	13
1.54900	15
1.55267	16
1.55633	14
1.56000	11
1.56367	11
1.56733	10
1.57100	8
1.57467	7
1.57833	7
1.58200	10
1.58567	14
1.58933	15
1.59300	16
1.59667	18
1.60033	21
1.60400	21
1.60767	21
1.61133	21
1.61500	20
1.61867	19
1.62233	19
1.62600	19
1.62967	19
1.63333	17
1.63700	17
1.64067	17
1.64433	14
1.64800	13
1.65167	13
1.65533	15
1.65900	16
1.66267	16
1.66633	16
1.67000	17
1.67367	19
1.67733	20
1.68100	22
1.68467	21
1.68833	19
1.69200	18
1.69567	19
1.69933	20
1.70300	20
1.70667	18
1.71033	18
1.71400	17
1.71767	19
1.72133	23
1.72500	24
1.72867	22
1.73233	20
1.73600	19
1.73967	18
1.74333	18
1.74700	21
1.75067	23
1.75433	21
1.75800	20
1.76167	19
1.76533	19
1.76900	18
1.77267	18
1.77633	18
1.78000	20
1.78367	21
1.78733	21
1.79100	24
1.79467	24
1.79833	25
1.80200	25
1.80567	26
1.80933	25
1.81300	24
1.81667	25
1.82033	26
1.82400	24
1.82767	23
1.83133	23
1.83500	24
1.83867	25
1.84233	26
1.84600	28
1.84967	30
1.85333	31
1.85700	29
1.86067	29
1.86433	30
1.86800	31
1.87167	33
1.87533	34
1.87900	33
1.88267	33
1.88633	35
1.89000	35
1.89367	32
1.89733	30
1.90100	28
1.90467	29
1.90833	31
1.91200	33
1.91567	34
1.91933	35
1.92300	36
1.92667	38
1.93033	38
1.93400	37
1.93767	37
1.94133	38
1.94500	38
1.94867	38
1.95233	38
1.95600	37
1.95967	38
1.96333	39
1.96700	38
1.97067	38
1.97433	39
1.97800	39
1.98167	39
1.98533	39
1.98900	39
1.99267	41
1.99633	44
2.00000	45
2.00367	47
2.00733	48
2.01100	50
2.01467	52
2.01833	53
2.02200	54
2.02567	54
2.02933	55
2.03300	56
2.03667	55
2.04033	55
2.04400	55
2.04767	55
2.05133	55
2.05500	54
2.05867	53
2.06233	55
2.06600	56
2.06967	56
2.07333	56
2.07700	57
2.08067	58
2.08433	59
2.08800	59
2.09167	59
2.09533	60
2.09900	63
2.10267	65
2.10633	65
2.11000	66
2.11367	67
2.11733	70
2.12100	72
2.12467	73
2.12833	74
2.13200	74
2.13567	73
2.13933	75
2.14300	77
2.14667	79
2.15033	81
2.15400	82
2.15767	84
2.16133	85
2.16500	86
2.16867	90
2.17233	94
2.17600	94
2.17967	93
2.18333	93
2.18700	93
2.19067	92
2.19433	93
2.19800	96
2.20167	99
2.20533	103
2.20900	103
2.21267	102
2.21633	103
2.22000	106
2.22367	106
2.22733	108
2.23100	109
2.23467	110
2.23833	108
2.24200	105
2.24567	103
2.24933	102
2.25300	101
2.25667	104
2.26033	107
2.26400	112
2.26767	116
2.27133	119
2.27500	122
2.27867	124
2.28233	127
2.28600	129
2.28967	130
2.29333	130
2.29700	129
2.30067	128
2.30433	130
2.30800	133
2.31167	135
2.31533	133
2.31900	131
2.32267	131
2.32633	135
2.33000	140
2.33367	142
2.33733	141
2.34100	144
2.34467	147
2.34833	147
2.35200	147
2.35567	147
2.35933	148
2.36300	150
2.36667	151
2.37033	153
2.37400	153
2.37767	156
2.38133	158
2.38500	159
2.38867	158
2.39233	158
2.39600	160
2.39967	162
2.40333	164
2.40700	167
2.41067	170
2.41433	173
2.41800	178
2.42167	181
2.42533	181
2.42900	181
2.43267	179
2.43633	177
2.44000	180
2.44367	209
2.44733	281
2.45100	360
2.45467	421
2.45833	458
2.46200	464
2.46567	443
2.46933	417
2.47300	393
2.47667	377
2.48033	365
2.48400	355
2.48767	341
2.49133	323
2.49500	302
2.49867	282
2.50233	265
2.50600	254
2.50967	242
2.51333	233
2.51700	227
2.52067	226
2.52433	227
2.52800	231
2.53167	236
2.53533	241
2.53900	249
2.54267	258
2.54633	262
2.55000	262
2.55367	257
2.55733	251
2.56100	244
2.56467	234
2.56833	225
2.57200	215
2.57567	206
2.57933	200
2.58300	195
2.58667	190
2.59033	184
2.59400	178
2.59767	168
2.60133	155
2.60500	134
2.60867	112
2.61233	88
2.61600	63
2.61967	37
2.62333	15
2.62700	-4
2.63067	-16
2.63433	-25
2.63800	-35
2.64167	-39
2.64533	-39
2.64900	-34
2.65267	-28
2.65633	-20
2.66000	-10
2.66367	2
2.66733	14
2.67100	26
2.67467	38
2.67833	51
2.68200	62
2.68567	73
2.68933	81
2.69300	85
2.69667	91
2.70033	94
2.70400	97
2.70767	97
2.71133	98
2.71500	100
2.71867	100
2.72233	98
2.72600	98
2.72967	100
2.73333	101
2.73700	99
2.74067	98
2.74433	99
2.74800	101
2.75167	101
2.75533	101
2.75900	101
2.76267	102
2.76633	104
2.77000	107
2.77367	109
2.77733	109
2.78100	109
2.78467	111
2.78833	111
2.79200	112
2.79567	114
2.79933	116
2.80300	117
2.80667	118
2.81033	121
2.81400	133
2.81767	165
2.82133	240
2.82500	402
2.82867	710
2.83233	1229
2.83600	2015
2.83967	3101
2.84333	4482
2.84700	6108
2.85067	7893
2.85433	9713
2.85800	11430
2.86167	12906
2.86533	14037
2.86900	14758
2.87267	15049
2.87633	14937
2.88000	14482
2.88367	13761
2.88733	12864
2.89100	11861
2.89467	10812
2.89833	9765
2.90200	8755
2.90567	7799
2.90933	6914
2.91300	6109
2.91667	5385
2.92033	4736
2.92400	4154
2.92767	3639
2.93133	3185
2.93500	2784
2.93867	2433
2.94233	2127
2.94600	1860
2.94967	1627
2.95333	1426
2.95700	1250
2.96067	1097
2.96433	967
2.96800	853
2.97167	753
2.97533	666
2.97900	592
2.98267	531
2.98633	478
2.99000	431
2.99367	393
2.99733	363
3.00100	334
3.00467	308
3.00833	286
3.01200	266
3.01567	249
3.01933	233
3.02300	219
3.02667	208
3.03033	197
3.03400	188
3.03767	182
3.04133	175
3.04500	169
3.04867	165
3.05233	161
3.05600	157
3.05967	152
3.06333	149
3.06700	146
3.07067	143
3.07433	140
3.07800	138
3.08167	135
3.08533	133
3.08900	126
3.09267	113
3.09633	91
3.10000	72
3.10367	70
3.10733	85
3.11100	109
3.11467	139
3.11833	171
3.12200	206
3.12567	242
3.12933	277
3.13300	313
3.13667	348
3.14033	380
3.14400	411
3.14767	441
3.15133	467
3.15500	492
3.15867	516
3.16233	534
3.16600	549
3.16967	563
3.17333	577
3.17700	589
3.18067	598
3.18433	606
3.18800	613
3.19167	621
3.19533	629
3.19900	639
3.20267	650
3.20633	658
3.21000	664
3.21367	669
3.21733	672
3.22100	675
3.22467	677
3.22833	679
3.23200	681
3.23567	680
3.23933	679
3.24300	679
3.24667	680
3.25033	678
3.25400	675
3.25767	671
3.26133	666
3.26500	662
3.26867	653
3.27233	646
3.27600	638
3.27967	633
3.28333	626
3.28700	619
3.29067	614
3.29433	608
3.29800	600
3.30167	593
3.30533	586
3.30900	581
3.31267	577
3.31633	572
3.32000	565
3.32367	558
3.32733	555
3.33100	553
3.33467	550
3.33833	545
3.34200	539
3.34567	532
3.34933	527
3.35300	526
3.35667	525
3.36033	525
3.36400	523
3.36767	520
3.37133	516
3.37500	512
3.37867	512
3.38233	512
3.38600	511
3.38967	510
3.39333	508
3.39700	508
3.40067	509
3.40433	509
3.40800	508
3.41167	508
3.41533	507
3.41900	507
3.42267	509
3.42633	509
3.43000	509
3.43367	507
3.43733	504
3.44100	503
3.44467	503
3.44833	505
3.45200	507
3.45567	509
3.45933	511
3.46300	509
3.46667	507
3.47033	506
3.47400	502
3.47767	499
3.48133	499
3.48500	500
3.48867	501
3.49233	501
3.49600	502
3.49967	501
3.50333	496
3.50700	490
3.51067	487
3.51433	486
3.51800	484
3.52167	480
3.52533	476
3.52900	477
3.53267	477
3.53633	474
3.54000	472
3.54367	468
3.54733	465
3.55100	463
3.55467	463
3.55833	460
3.56200	456
3.56567	452
3.56933	449
3.57300	448
3.57667	448
3.58033	445
3.58400	442
3.58767	439
3.59133	438
3.59500	440
3.59867	442
3.60233	441
3.60600	440
3.60967	440
3.61333	438
3.61700	436
3.62067	433
3.62433	428
3.62800	423
3.63167	421
3.63533	422
3.63900	422
3.64267	422
3.64633	422
3.65000	422
3.65367	421
3.65733	419
3.66100	415
3.66467	411
3.66833	409
3.67200	406
3.67567	405
3.67933	405
3.68300	405
3.68667	403
3.69033	402
3.69400	400
3.69767	399
3.70133	398
3.70500	396
3.70867	394
3.71233	393
3.71600	392
3.71967	391
3.72333	388
3.72700	384
3.73067	384
3.73433	383
3.73800	380
3.74167	379
3.74533	380
3.74900	381
3.75267	381
3.75633	379
3.76000	375
3.76367	375
3.76733	376
3.77100	377
3.77467	375
3.77833	374
3.78200	375
3.78567	375
3.78933	374
3.79300	374
3.79667	376
3.80033	377
3.80400	377
3.80767	374
3.81133	371
3.81500	369
3.81867	368
3.82233	366
3.82600	365
3.82967	363
3.83333	361
3.83700	361
3.84067	363
3.84433	365
3.84800	365
3.85167	364
3.85533	362
3.85900	361
3.86267	360
3.86633	360
3.87000	361
3.87367	362
3.87733	365
3.88100	365
3.88467	366
3.88833	365
3.89200	365
3.89567	362
3.89933	361
3.90300	360
3.90667	357
3.91033	355
3.91400	352
3.91767	353
3.92133	353
3.92500	353
3.92867	353
3.93233	353
3.93600	351
3.93967	350
3.94333	348
3.94700	347
3.95067	346
3.95433	344
3.95800	343
3.96167	342
3.96533	340
3.96900	340
3.97267	341
3.97633	343
3.98000	344
3.98367	343
3.98733	343
3.99100	341
3.99467	341
3.99833	338

[Status Trace (Column Oven Temperature)]
Interval(msec)	1000
# of Points	240
Start Time(min)	0.007
End Time(min)	3.990
Intensity Units	
Intensity Multiplier	1
R.Time (min)	Intensity
0.00695	35.06
0.02362	35.03
0.04028	35.03
0.05695	35.02
0.07362	35.02
0.09028	35.02
0.10695	35.02
0.12362	35.02
0.14028	35.02
0.15695	35.01
0.17362	35.03
0.19028	35.04
0.20695	35.05
0.22362	35.04
0.24028	35.04
0.25695	35.05
0.27362	35.05
0.29028	35.05
0.30695	35.06
0.32362	35.07
0.34028	35.06
0.35695	35.05
0.37362	35.04
0.39028	35.03
0.40695	35.03
0.42362	35.03
0.44028	35.03
0.45695	35.02
0.47362	35.02
0.49028	35.02
0.50695	35.01
0.52362	35.01
0.54028	35.01
0.55695	35.00
0.57362	35.00
0.59028	35.00
0.60695	35.01
0.62362	35.01
0.64028	35.01
0.65695	35.01
0.67362	35.00
0.69028	34.99
0.70695	34.99
0.72362	34.99
0.74028	34.98
0.75695	34.99
0.77362	35.00
0.79028	34.99
0.80695	34.99
0.82362	34.98
0.84028	34.98
0.85695	34.98
0.87362	35.00
0.89028	34.99
0.90695	35.00
0.92362	35.00
0.94028	35.00
0.95695	34.99
0.97362	34.99
0.99028	34.98
1.00695	34.99
1.02362	35.01
1.04028	35.01
1.05695	35.00
1.07362	34.99
1.09028	35.00
1.10695	35.00
1.12362	35.01
1.14028	35.00
1.15695	34.99
1.17362	34.99
1.19028	34.99
1.20695	34.98
1.22362	34.98
1.24028	34.99
1.25695	35.00
1.27362	35.00
1.29028	35.00
1.30695	35.01
1.32362	35.01
1.34028	35.00
1.35695	35.00
1.37362	35.00
1.39028	34.99
1.40695	34.98
1.42362	34.98
1.44028	34.98
1.45695	34.98
1.47362	34.97
1.49028	34.99
1.50695	35.00
1.52362	35.01
1.54028	35.01
1.55695	35.02
1.57362	35.03
1.59028	35.04
1.60695	35.08
1.62362	35.18
1.64028	35.36
1.65695	35.60
1.67362	35.93
1.69028	36.30
1.70695	36.65
1.72362	36.99
1.74028	37.32
1.75695	37.66
1.77362	37.99
1.79028	38.32
1.80695	38.65
1.82362	38.99
1.84028	39.33
1.85695	39.66
1.87362	39.97
1.89028	40.31
1.90695	40.64
1.92362	40.95
1.94028	41.29
1.95695	41.61
1.97362	41.92
1.99028	42.25
2.00695	42.57
2.02362	42.92
2.04028	43.23
2.05695	43.54
2.07362	43.86
2.09028	44.20
2.10695	44.53
2.12362	44.84
2.14028	45.17
2.15695	45.49
2.17362	45.83
2.19028	46.16
2.20695	46.49
2.22362	46.80
2.24028	47.13
2.25695	47.49
2.27362	47.82
2.29028	48.14
2.30695	48.48
2.32362	48.80
2.34028	49.14
2.35695	49.42
2.37362	49.59
2.39028	49.66
2.40695	49.66
2.42362	49.66
2.44028	49.68
2.45695	49.67
2.47362	49.68
2.49028	49.69
2.50695	49.68
2.52362	49.72
2.54028	49.73
2.55695	49.74
2.57362	49.77
2.59028	49.79
2.60695	49.80
2.62362	49.82
2.64028	49.81
2.65695	49.81
2.67362	49.81
2.69028	49.83
2.70695	49.84
2.72362	49.85
2.74028	49.86
2.75695	49.86
2.77362	49.84
2.79028	49.86
2.80695	49.89
2.82362	49.90
2.84028	49.90
2.85695	49.89
2.87362	49.89
2.89028	49.91
2.90695	49.93
2.92362	49.96
2.94028	49.96
2.95695	49.97
2.97362	49.98
2.99028	49.98
3.00695	49.99
3.02362	50.00
3.04028	50.01
3.05695	50.02
3.07362	50.03
3.09028	50.03
3.10695	50.04
3.12362	50.04
3.14028	50.03
3.15695	50.04
3.17362	50.06
3.19028	50.06
3.20695	50.07
3.22362	50.07
3.24028	50.07
3.25695	50.08
3.27362	50.09
3.29028	50.10
3.30695	50.11
3.32362	50.11
3.34028	50.11
3.35695	50.10
3.37362	50.07
3.39028	50.06
3.40695	50.06
3.42362	50.05
3.44028	50.04
3.45695	50.03
3.47362	50.02
3.49028	50.00
3.50695	49.99
3.52362	49.99
3.54028	49.97
3.55695	49.97
3.57362	49.97
3.59028	49.99
3.60695	50.00
3.62362	50.00
3.64028	50.00
3.65695	50.00
3.67362	50.02
3.69028	50.03
3.70695	50.04
3.72362	50.04
3.74028	50.03
3.75695	50.03
3.77362	50.02
3.79028	50.02
3.80695	50.01
3.82362	50.00
3.84028	50.00
3.85695	50.01
3.87362	50.02
3.89028	50.01
3.90695	50.01
3.92362	50.02
3.94028	50.01
3.95695	50.01
3.97362	50.02
3.99028	50.04

[Status Trace (Injection Unit Temperature)]
Interval(msec)	1000
# of Points	240
Start Time(min)	0.007
End Time(min)	3.990
Intensity Units	
Intensity Multiplier	1
R.Time (min)	Intensity
0.00695	99.97
0.02362	99.97
0.04028	99.98
0.05695	99.98
0.07362	99.98
0.09028	99.98
0.10695	99.98
0.12362	99.97
0.14028	99.98
0.15695	99.98
0.17362	99.98
0.19028	99.98
0.20695	99.98
0.22362	99.98
0.24028	99.98
0.25695	99.98
0.27362	99.98
0.29028	99.98
0.30695	99.98
0.32362	99.98
0.34028	99.98
0.35695	99.98
0.37362	99.98
0.39028	99.98
0.40695	99.98
0.42362	99.98
0.44028	99.98
0.45695	99.98
0.47362	99.98
0.49028	99.98
0.50695	99.98
0.52362	99.98
0.54028	99.98
0.55695	99.98
0.57362	99.98
0.59028	99.98
0.60695	99.98
0.62362	99.98
0.64028	99.98
0.65695	99.98
0.67362	99.98
0.69028	99.98
0.70695	99.98
0.72362	99.98
0.74028	99.98
0.75695	99.98
0.77362	99.98
0.79028	99.98
0.80695	99.98
0.82362	99.98
0.84028	99.98
0.85695	99.98
0.87362	99.98
0.89028	99.98
0.90695	99.98
0.92362	99.98
0.94028	99.98
0.95695	99.98
0.97362	99.99
0.99028	99.98
1.00695	99.99
1.02362	99.98
1.04028	99.98
1.05695	99.98
1.07362	99.98
1.09028	99.98
1.10695	99.99
1.12362	99.98
1.14028	99.99
1.15695	99.99
1.17362	99.98
1.19028	99.98
1.20695	99.98
1.22362	99.98
1.24028	99.98
1.25695	99.98
1.27362	99.98
1.29028	99.98
1.30695	99.98
1.32362	99.98
1.34028	99.98
1.35695	99.98
1.37362	99.98
1.39028	99.98
1.40695	99.98
1.42362	99.98
1.44028	99.98
1.45695	99.98
1.47362	99.98
1.49028	99.98
1.50695	99.98
1.52362	99.97
1.54028	99.98
1.55695	99.98
1.57362	99.98
1.59028	99.98
1.60695	99.98
1.62362	99.98
1.64028	99.99
1.65695	99.99
1.67362	99.98
1.69028	99.98
1.70695	99.98
1.72362	99.98
1.74028	99.98
1.75695	99.98
1.77362	99.98
1.79028	99.98
1.80695	99.98
1.82362	99.98
1.84028	99.98
1.85695	99.98
1.87362	99.98
1.89028	99.97
1.90695	99.98
1.92362	99.98
1.94028	99.97
1.95695	99.98
1.97362	99.98
1.99028	99.97
2.00695	99.97
2.02362	99.97
2.04028	99.97
2.05695	99.97
2.07362	99.97
2.09028	99.97
2.10695	99.97
2.12362	99.97
2.14028	99.97
2.15695	99.96
2.17362	99.97
2.19028	99.96
2.20695	99.96
2.22362	99.97
2.24028	99.96
2.25695	99.96
2.27362	99.96
2.29028	99.96
2.30695	99.96
2.32362	99.96
2.34028	99.96
2.35695	99.96
2.37362	99.96
2.39028	99.96
2.40695	99.96
2.42362	99.96
2.44028	99.96
2.45695	99.96
2.47362	99.96
2.49028	99.96
2.50695	99.96
2.52362	99.96
2.54028	99.96
2.55695	99.96
2.57362	99.96
2.59028	99.97
2.60695	99.96
2.62362	99.97
2.64028	99.97
2.65695	99.97
2.67362	99.97
2.69028	99.97
2.70695	99.97
2.72362	99.97
2.74028	99.98
2.75695	99.97
2.77362	99.98
2.79028	99.98
2.80695	99.98
2.82362	99.98
2.84028	99.99
2.85695	99.99
2.87362	99.99
2.89028	99.99
2.90695	99.99
2.92362	100.00
2.94028	100.00
2.95695	100.00
2.97362	100.00
2.99028	100.00
3.00695	100.01
3.02362	100.01
3.04028	100.01
3.05695	100.01
3.07362	100.01
3.09028	100.01
3.10695	100.01
3.12362	100.02
3.14028	100.02
3.15695	100.02
3.17362	100.02
3.19028	100.02
3.20695	100.02
3.22362	100.02
3.24028	100.03
3.25695	100.03
3.27362	100.03
3.29028	100.02
3.30695	100.03
3.32362	100.03
3.34028	100.03
3.35695	100.03
3.37362	100.03
3.39028	100.03
3.40695	100.03
3.42362	100.04
3.44028	100.04
3.45695	100.03
3.47362	100.03
3.49028	100.03
3.50695	100.03
3.52362	100.04
3.54028	100.04
3.55695	100.03
3.57362	100.03
3.59028	100.04
3.60695	100.04
3.62362	100.04
3.64028	100.04
3.65695	100.04
3.67362	100.04
3.69028	100.04
3.70695	100.04
3.72362	100.04
3.74028	100.04
3.75695	100.04
3.77362	100.04
3.79028	100.05
3.80695	100.04
3.82362	100.04
3.84028	100.04
3.85695	100.05
3.87362	100.04
3.89028	100.05
3.90695	100.04
3.92362	100.04
3.94028	100.04
3.95695	100.05
3.97362	100.05
3.99028	100.05

[Status Trace (Carrier Gas Pressure)]
Interval(msec)	1000
# of Points	240
Start Time(min)	0.007
End Time(min)	3.990
Intensity Units	
Intensity Multiplier	1
R.Time (min)	Intensity
0.00695	58.00
0.02362	55.52
0.04028	57.02
0.05695	59.09
0.07362	59.54
0.09028	58.09
0.10695	57.98
0.12362	58.01
0.14028	58.01
0.15695	58.00
0.17362	58.00
0.19028	58.00
0.20695	58.00
0.22362	58.00
0.24028	58.00
0.25695	58.00
0.27362	58.00
0.29028	58.00
0.30695	58.00
0.32362	58.00
0.34028	58.00
0.35695	58.00
0.37362	58.00
0.39028	58.00
0.40695	58.00
0.42362	58.00
0.44028	58.00
0.45695	58.00
0.47362	58.00
0.49028	58.00
0.50695	58.00
0.52362	58.00
0.54028	58.00
0.55695	58.00
0.57362	58.00
0.59028	58.00
0.60695	58.00
0.62362	58.00
0.64028	58.00
0.65695	58.00
0.67362	58.00
0.69028	58.00
0.70695	58.00
0.72362	58.00
0.74028	58.00
0.75695	58.00
0.77362	58.00
0.79028	58.00
0.80695	58.00
0.82362	58.00
0.84028	58.00
0.85695	58.00
0.87362	58.00
0.89028	58.00
0.90695	58.00
0.92362	58.00
0.94028	58.00
0.95695	58.00
0.97362	58.00
0.99028	58.00
1.00695	58.00
1.02362	58.00
1.04028	58.00
1.05695	58.00
1.07362	58.00
1.09028	58.00
1.10695	58.00
1.12362	58.00
1.14028	58.00
1.15695	58.00
1.17362	58.00
1.19028	58.00
1.20695	58.00
1.22362	58.00
1.24028	58.00
1.25695	58.00
1.27362	58.00
1.29028	58.00
1.30695	58.00
1.32362	58.00
1.34028	58.00
1.35695	58.00
1.37362	58.00
1.39028	58.00
1.40695	58.00
1.42362	58.00
1.44028	58.00
1.45695	58.00
1.47362	58.00
1.49028	58.00
1.50695	58.00
1.52362	58.00
1.54028	58.00
1.55695	58.00
1.57362	58.00
1.59028	58.00
1.60695	58.00
1.62362	58.00
1.64028	58.01
1.65695	58.00
1.67362	58.01
1.69028	58.01
1.70695	58.00
1.72362	58.00
1.74028	58.00
1.75695	58.00
1.77362	58.00
1.79028	58.00
1.80695	58.00
1.82362	58.00
1.84028	58.00
1.85695	58.00
1.87362	58.00
1.89028	58.00
1.90695	58.00
1.92362	58.00
1.94028	58.00
1.95695	58.00
1.97362	58.00
1.99028	58.00
2.00695	58.00
2.02362	58.00
2.04028	58.00
2.05695	58.00
2.07362	58.00
2.09028	58.00
2.10695	58.00
2.12362	58.00
2.14028	58.00
2.15695	58.00
2.17362	58.00
2.19028	58.00
2.20695	58.00
2.22362	58.00
2.24028	58.00
2.25695	58.00
2.27362	58.00
2.29028	58.00
2.30695	58.00
2.32362	58.00
2.34028	58.00
2.35695	58.00
2.37362	58.00
2.39028	57.99
2.40695	57.99
2.42362	58.00
2.44028	58.00
2.45695	58.00
2.47362	58.00
2.49028	58.00
2.50695	57.99
2.52362	57.98
2.54028	58.00
2.55695	58.00
2.57362	58.00
2.59028	58.00
2.60695	58.00
2.62362	58.00
2.64028	58.00
2.65695	58.00
2.67362	58.00
2.69028	58.00
2.70695	58.00
2.72362	58.00
2.74028	58.00
2.75695	58.00
2.77362	58.00
2.79028	58.00
2.80695	58.00
2.82362	58.00
2.84028	58.00
2.85695	58.00
2.87362	58.00
2.89028	58.00
2.90695	58.00
2.92362	58.00
2.94028	58.00
2.95695	58.00
2.97362	58.00
2.99028	58.00
3.00695	58.00
3.02362	58.00
3.04028	58.00
3.05695	58.00
3.07362	58.00
3.09028	58.00
3.10695	58.00
3.12362	58.00
3.14028	58.00
3.15695	58.00
3.17362	58.00
3.19028	58.00
3.20695	58.00
3.22362	58.00
3.24028	58.00
3.25695	58.00
3.27362	58.00
3.29028	58.00
3.30695	58.00
3.32362	58.00
3.34028	58.00
3.35695	58.00
3.37362	58.00
3.39028	58.00
3.40695	58.00
3.42362	58.00
3.44028	58.00
3.45695	58.00
3.47362	58.00
3.49028	58.00
3.50695	58.00
3.52362	58.00
3.54028	58.00
3.55695	58.00
3.57362	58.00
3.59028	58.00
3.60695	58.00
3.62362	58.00
3.64028	58.00
3.65695	58.00
3.67362	58.00
3.69028	58.00
3.70695	58.00
3.72362	58.00
3.74028	58.00
3.75695	58.00
3.77362	58.00
3.79028	58.00
3.80695	58.00
3.82362	58.00
3.84028	58.00
3.85695	58.00
3.87362	58.00
3.89028	58.00
3.90695	58.00
3.92362	58.00
3.94028	58.00
3.95695	58.00
3.97362	58.00
3.99028	58.00

[Status Trace (Carrier Gas Flow)]
Interval(msec)	1000
# of Points	240
Start Time(min)	0.007
End Time(min)	3.990
Intensity Units	
Intensity Multiplier	1
R.Time (min)	Intensity
0.00695	34.52
0.02362	34.53
0.04028	34.55
0.05695	34.55
0.07362	34.50
0.09028	34.52
0.10695	34.52
0.12362	34.52
0.14028	34.52
0.15695	34.52
0.17362	34.52
0.19028	34.52
0.20695	34.52
0.22362	34.52
0.24028	34.52
0.25695	34.52
0.27362	34.52
0.29028	34.51
0.30695	34.52
0.32362	34.52
0.34028	34.52
0.35695	34.52
0.37362	34.52
0.39028	34.52
0.40695	34.51
0.42362	34.52
0.44028	34.52
0.45695	34.52
0.47362	34.52
0.49028	34.52
0.50695	34.52
0.52362	34.52
0.54028	34.52
0.55695	34.52
0.57362	34.52
0.59028	34.52
0.60695	34.52
0.62362	34.52
0.64028	34.52
0.65695	34.52
0.67362	34.52
0.69028	34.52
0.70695	34.51
0.72362	34.52
0.74028	34.52
0.75695	34.52
0.77362	34.52
0.79028	34.52
0.80695	34.52
0.82362	34.52
0.84028	34.52
0.85695	34.52
0.87362	34.52
0.89028	34.52
0.90695	34.52
0.92362	34.52
0.94028	34.51
0.95695	34.53
0.97362	34.53
0.99028	34.51
1.00695	34.52
1.02362	34.52
1.04028	34.52
1.05695	34.51
1.07362	34.52
1.09028	34.52
1.10695	34.53
1.12362	34.51
1.14028	34.52
1.15695	34.52
1.17362	34.52
1.19028	34.53
1.20695	34.51
1.22362	34.51
1.24028	34.53
1.25695	34.53
1.27362	34.51
1.29028	34.51
1.30695	34.52
1.32362	34.53
1.34028	34.52
1.35695	34.52
1.37362	34.52
1.39028	34.52
1.40695	34.52
1.42362	34.52
1.44028	34.52
1.45695	34.52
1.47362	34.51
1.49028	34.52
1.50695	34.52
1.52362	34.52
1.54028	34.53
1.55695	34.51
1.57362	34.53
1.59028	34.52
1.60695	34.53
1.62362	34.51
1.64028	34.51
1.65695	34.52
1.67362	34.51
1.69028	34.52
1.70695	34.53
1.72362	34.52
1.74028	34.53
1.75695	34.52
1.77362	34.52
1.79028	34.52
1.80695	34.52
1.82362	34.52
1.84028	34.51
1.85695	34.51
1.87362	34.52
1.89028	34.52
1.90695	34.52
1.92362	34.52
1.94028	34.52
1.95695	34.51
1.97362	34.51
1.99028	34.53
2.00695	34.53
2.02362	34.52
2.04028	34.53
2.05695	34.52
2.07362	34.52
2.09028	34.51
2.10695	34.52
2.12362	34.53
2.14028	34.53
2.15695	34.52
2.17362	34.52
2.19028	34.51
2.20695	34.53
2.22362	34.51
2.24028	34.53
2.25695	34.51
2.27362	34.51
2.29028	34.53
2.30695	34.53
2.32362	34.52
2.34028	34.52
2.35695	34.52
2.37362	34.52
2.39028	34.51
2.40695	34.51
2.42362	34.52
2.44028	34.52
2.45695	34.52
2.47362	34.51
2.49028	34.52
2.50695	34.41
2.52362	34.52
2.54028	34.52
2.55695	34.52
2.57362	34.52
2.59028	34.52
2.60695	34.52
2.62362	34.52
2.64028	34.52
2.65695	34.52
2.67362	34.52
2.69028	34.52
2.70695	34.52
2.72362	34.51
2.74028	34.52
2.75695	34.52
2.77362	34.52
2.79028	34.52
2.80695	34.52
2.82362	34.52
2.84028	34.52
2.85695	34.52
2.87362	34.52
2.89028	34.52
2.90695	34.52
2.92362	34.52
2.94028	34.52
2.95695	34.52
2.97362	34.52
2.99028	34.52
3.00695	34.52
3.02362	34.52
3.04028	34.52
3.05695	34.52
3.07362	34.52
3.09028	34.52
3.10695	34.52
3.12362	34.52
3.14028	34.52
3.15695	34.52
3.17362	34.52
3.19028	34.52
3.20695	34.52
3.22362	34.52
3.24028	34.52
3.25695	34.52
3.27362	34.52
3.29028	34.52
3.30695	34.52
3.32362	34.51
3.34028	34.52
3.35695	34.52
3.37362	34.51
3.39028	34.52
3.40695	34.51
3.42362	34.52
3.44028	34.52
3.45695	34.52
3.47362	34.52
3.49028	34.52
3.50695	34.52
3.52362	34.51
3.54028	34.52
3.55695	34.51
3.57362	34.52
3.59028	34.52
3.60695	34.52
3.62362	34.52
3.64028	34.52
3.65695	34.52
3.67362	34.52
3.69028	34.52
3.70695	34.52
3.72362	34.52
3.74028	34.52
3.75695	34.52
3.77362	34.52
3.79028	34.52
3.80695	34.52
3.82362	34.52
3.84028	34.52
3.85695	34.52
3.87362	34.52
3.89028	34.52
3.90695	34.52
3.92362	34.52
3.94028	34.51
3.95695	34.52
3.97362	34.52
3.99028	34.52

[Status Trace (Column Flow)]
Interval(msec)	1000
# of Points	240
Start Time(min)	0.007
End Time(min)	3.990
Intensity Units	
Intensity Multiplier	1
R.Time (min)	Intensity
0.00695	5.57
0.02362	5.28
0.04028	5.46
0.05695	5.70
0.07362	5.75
0.09028	5.58
0.10695	5.57
0.12362	5.57
0.14028	5.57
0.15695	5.57
0.17362	5.57
0.19028	5.57
0.20695	5.57
0.22362	5.57
0.24028	5.57
0.25695	5.57
0.27362	5.57
0.29028	5.57
0.30695	5.57
0.32362	5.57
0.34028	5.57
0.35695	5.57
0.37362	5.57
0.39028	5.57
0.40695	5.57
0.42362	5.57
0.44028	5.57
0.45695	5.57
0.47362	5.57
0.49028	5.57
0.50695	5.57
0.52362	5.57
0.54028	5.57
0.55695	5.57
0.57362	5.57
0.59028	5.57
0.60695	5.57
0.62362	5.57
0.64028	5.57
0.65695	5.57
0.67362	5.57
0.69028	5.57
0.70695	5.57
0.72362	5.57
0.74028	5.57
0.75695	5.57
0.77362	5.57
0.79028	5.57
0.80695	5.57
0.82362	5.57
0.84028	5.57
0.85695	5.57
0.87362	5.57
0.89028	5.57
0.90695	5.57
0.92362	5.57
0.94028	5.57
0.95695	5.57
0.97362	5.57
0.99028	5.57
1.00695	5.57
1.02362	5.57
1.04028	5.57
1.05695	5.57
1.07362	5.57
1.09028	5.57
1.10695	5.57
1.12362	5.57
1.14028	5.57
1.15695	5.57
1.17362	5.57
1.19028	5.57
1.20695	5.57
1.22362	5.57
1.24028	5.57
1.25695	5.57
1.27362	5.57
1.29028	5.57
1.30695	5.57
1.32362	5.57
1.34028	5.57
1.35695	5.57
1.37362	5.57
1.39028	5.57
1.40695	5.57
1.42362	5.57
1.44028	5.57
1.45695	5.57
1.47362	5.57
1.49028	5.57
1.50695	5.57
1.52362	5.57
1.54028	5.57
1.55695	5.57
1.57362	5.57
1.59028	5.57
1.60695	5.57
1.62362	5.57
1.64028	5.56
1.65695	5.56
1.67362	5.54
1.69028	5.53
1.70695	5.52
1.72362	5.51
1.74028	5.50
1.75695	5.49
1.77362	5.48
1.79028	5.47
1.80695	5.46
1.82362	5.45
1.84028	5.44
1.85695	5.43
1.87362	5.42
1.89028	5.41
1.90695	5.40
1.92362	5.39
1.94028	5.38
1.95695	5.37
1.97362	5.36
1.99028	5.35
2.00695	5.34
2.02362	5.33
2.04028	5.32
2.05695	5.31
2.07362	5.30
2.09028	5.29
2.10695	5.28
2.12362	5.27
2.14028	5.26
2.15695	5.26
2.17362	5.24
2.19028	5.24
2.20695	5.23
2.22362	5.22
2.24028	5.21
2.25695	5.20
2.27362	5.19
2.29028	5.18
2.30695	5.17
2.32362	5.16
2.34028	5.15
2.35695	5.14
2.37362	5.14
2.39028	5.13
2.40695	5.14
2.42362	5.14
2.44028	5.13
2.45695	5.14
2.47362	5.13
2.49028	5.13
2.50695	5.13
2.52362	5.13
2.54028	5.13
2.55695	5.13
2.57362	5.13
2.59028	5.13
2.60695	5.13
2.62362	5.13
2.64028	5.13
2.65695	5.13
2.67362	5.13
2.69028	5.13
2.70695	5.13
2.72362	5.13
2.74028	5.13
2.75695	5.13
2.77362	5.13
2.79028	5.13
2.80695	5.13
2.82362	5.13
2.84028	5.13
2.85695	5.13
2.87362	5.13
2.89028	5.13
2.90695	5.13
2.92362	5.13
2.94028	5.13
2.95695	5.13
2.97362	5.13
2.99028	5.13
3.00695	5.13
3.02362	5.13
3.04028	5.13
3.05695	5.13
3.07362	5.13
3.09028	5.12
3.10695	5.12
3.12362	5.12
3.14028	5.12
3.15695	5.12
3.17362	5.12
3.19028	5.12
3.20695	5.12
3.22362	5.12
3.24028	5.12
3.25695	5.12
3.27362	5.12
3.29028	5.12
3.30695	5.12
3.32362	5.12
3.34028	5.12
3.35695	5.12
3.37362	5.12
3.39028	5.12
3.40695	5.12
3.42362	5.12
3.44028	5.12
3.45695	5.13
3.47362	5.13
3.49028	5.13
3.50695	5.13
3.52362	5.13
3.54028	5.13
3.55695	5.13
3.57362	5.13
3.59028	5.13
3.60695	5.13
3.62362	5.13
3.64028	5.13
3.65695	5.13
3.67362	5.13
3.69028	5.13
3.70695	5.13
3.72362	5.12
3.74028	5.13
3.75695	5.13
3.77362	5.13
3.79028	5.13
3.80695	5.13
3.82362	5.13
3.84028	5.13
3.85695	5.13
3.87362	5.13
3.89028	5.13
3.90695	5.13
3.92362	5.13
3.94028	5.13
3.95695	5.13
3.97362	5.13
3.99028	5.13

[Status Trace (Linear Velocity)]
Interval(msec)	1000
# of Points	240
Start Time(min)	0.007
End Time(min)	3.990
Intensity Units	
Intensity Multiplier	1
R.Time (min)	Intensity
0.00695	39.02
0.02362	37.40
0.04028	38.38
0.05695	39.74
0.07362	40.04
0.09028	39.08
0.10695	39.01
0.12362	39.03
0.14028	39.03
0.15695	39.03
0.17362	39.03
0.19028	39.03
0.20695	39.03
0.22362	39.03
0.24028	39.03
0.25695	39.03
0.27362	39.02
0.29028	39.02
0.30695	39.02
0.32362	39.02
0.34028	39.02
0.35695	39.02
0.37362	39.02
0.39028	39.03
0.40695	39.03
0.42362	39.03
0.44028	39.03
0.45695	39.03
0.47362	39.03
0.49028	39.03
0.50695	39.03
0.52362	39.03
0.54028	39.03
0.55695	39.03
0.57362	39.03
0.59028	39.03
0.60695	39.03
0.62362	39.03
0.64028	39.03
0.65695	39.03
0.67362	39.03
0.69028	39.03
0.70695	39.03
0.72362	39.03
0.74028	39.03
0.75695	39.03
0.77362	39.03
0.79028	39.03
0.80695	39.03
0.82362	39.03
0.84028	39.03
0.85695	39.03
0.87362	39.03
0.89028	39.03
0.90695	39.03
0.92362	39.03
0.94028	39.03
0.95695	39.03
0.97362	39.03
0.99028	39.03
1.00695	39.03
1.02362	39.03
1.04028	39.03
1.05695	39.03
1.07362	39.03
1.09028	39.03
1.10695	39.03
1.12362	39.03
1.14028	39.03
1.15695	39.03
1.17362	39.03
1.19028	39.03
1.20695	39.03
1.22362	39.03
1.24028	39.03
1.25695	39.03
1.27362	39.03
1.29028	39.03
1.30695	39.03
1.32362	39.03
1.34028	39.03
1.35695	39.03
1.37362	39.03
1.39028	39.03
1.40695	39.03
1.42362	39.03
1.44028	39.03
1.45695	39.03
1.47362	39.03
1.49028	39.03
1.50695	39.03
1.52362	39.03
1.54028	39.03
1.55695	39.03
1.57362	39.03
1.59028	39.03
1.60695	39.02
1.62362	39.01
1.64028	39.00
1.65695	38.98
1.67362	38.94
1.69028	38.91
1.70695	38.87
1.72362	38.84
1.74028	38.81
1.75695	38.78
1.77362	38.74
1.79028	38.71
1.80695	38.68
1.82362	38.65
1.84028	38.62
1.85695	38.59
1.87362	38.56
1.89028	38.53
1.90695	38.50
1.92362	38.46
1.94028	38.44
1.95695	38.41
1.97362	38.37
1.99028	38.35
2.00695	38.32
2.02362	38.28
2.04028	38.25
2.05695	38.23
2.07362	38.20
2.09028	38.17
2.10695	38.14
2.12362	38.11
2.14028	38.08
2.15695	38.05
2.17362	38.02
2.19028	37.99
2.20695	37.96
2.22362	37.93
2.24028	37.90
2.25695	37.87
2.27362	37.84
2.29028	37.81
2.30695	37.78
2.32362	37.75
2.34028	37.72
2.35695	37.70
2.37362	37.68
2.39028	37.67
2.40695	37.67
2.42362	37.67
2.44028	37.67
2.45695	37.67
2.47362	37.67
2.49028	37.67
2.50695	37.67
2.52362	37.66
2.54028	37.67
2.55695	37.67
2.57362	37.66
2.59028	37.66
2.60695	37.66
2.62362	37.66
2.64028	37.66
2.65695	37.66
2.67362	37.66
2.69028	37.66
2.70695	37.66
2.72362	37.66
2.74028	37.66
2.75695	37.66
2.77362	37.66
2.79028	37.66
2.80695	37.65
2.82362	37.65
2.84028	37.65
2.85695	37.65
2.87362	37.65
2.89028	37.65
2.90695	37.65
2.92362	37.65
2.94028	37.65
2.95695	37.65
2.97362	37.65
2.99028	37.65
3.00695	37.65
3.02362	37.64
3.04028	37.64
3.05695	37.64
3.07362	37.64
3.09028	37.64
3.10695	37.64
3.12362	37.64
3.14028	37.64
3.15695	37.64
3.17362	37.64
3.19028	37.64
3.20695	37.64
3.22362	37.64
3.24028	37.64
3.25695	37.64
3.27362	37.64
3.29028	37.63
3.30695	37.63
3.32362	37.63
3.34028	37.63
3.35695	37.64
3.37362	37.64
3.39028	37.64
3.40695	37.64
3.42362	37.64
3.44028	37.64
3.45695	37.64
3.47362	37.64
3.49028	37.64
3.50695	37.65
3.52362	37.65
3.54028	37.65
3.55695	37.65
3.57362	37.65
3.59028	37.65
3.60695	37.64
3.62362	37.64
3.64028	37.64
3.65695	37.64
3.67362	37.64
3.69028	37.64
3.70695	37.64
3.72362	37.64
3.74028	37.64
3.75695	37.64
3.77362	37.64
3.79028	37.64
3.80695	37.64
3.82362	37.64
3.84028	37.64
3.85695	37.64
3.87362	37.64
3.89028	37.64
3.90695	37.64
3.92362	37.64
3.94028	37.64
3.95695	37.64
3.97362	37.64
3.99028	37.64

