[Header]
Application Name	LabSolutions
Version	5.110
Data File Name	C:\Users\User\Desktop\GC Analyses\Jack\Nachusa Grasslands Sampling\T0 Timepoint July 12th\T0_07122022_015.gcd
Output Date	3/14/2023
Output Time	3:40:34 PM

[File Information]
Type	Data File
Generated	3/7/2023 3:20:30 PM
Generated by	System Administrator
Modified	3/7/2023 3:27:04 PM
Modified by	System Administrator

[Sample Information]
Operator Name	System Administrator
Acquired	3/7/2023 3:23:04 PM
Sample Type	0:Unknown
Level	0
Sample Name	015
Sample ID	015
ISTD Amount1	1
ISTD Amount2	1
ISTD Amount3	1
ISTD Amount4	1
ISTD Amount5	1
ISTD Amount6	1
ISTD Amount7	1
ISTD Amount8	1
ISTD Amount9	1
ISTD Amount10	1
ISTD Amount11	1
ISTD Amount12	1
ISTD Amount13	1
ISTD Amount14	1
ISTD Amount15	1
ISTD Amount16	1
ISTD Amount17	1
ISTD Amount18	1
ISTD Amount19	1
ISTD Amount20	1
ISTD Amount21	1
ISTD Amount22	1
ISTD Amount23	1
ISTD Amount24	1
ISTD Amount25	1
ISTD Amount26	1
ISTD Amount27	1
ISTD Amount28	1
ISTD Amount29	1
ISTD Amount30	1
ISTD Amount31	1
ISTD Amount32	1
Sample Amount	1
Dilution Factor	1
Vial#	14
Injection Volume	1
Injection Count	1
Bar Code	

[Original Files]
Data File	C:\Users\User\Desktop\GC Analyses\Jack\Nachusa Grasslands Sampling\T0 Timepoint July 12th\T0_07122022_015.gcd
Method File	C:\LabSolutions\Data\GHG_4min_2022\ghg3_togas_w_acet_4 min_new_int.gcm
Batch File	C:\LabSolutions\Data\AutoSamplerTesting\T0_07122022.gcb
Report Format File	c:\LabSolutions\System\DEFAULT.lsr

[File Description]


[Configuration]
Instrument Name	C0B7VH3-Instrument1
Instrument #	1
Line #	1
# of Detectors	3
Detector ID	DET#1	DET#2	DET#3
Detector Name	FID	PTCD	ECD
# of Channels	1	1	1

[Peak Table(Ch1)]
# of Peaks	3
Peak#	R.Time	I.Time	F.Time	Area	Height	A/H	Conc.	Mark	ID#	Name	k'	Plate #	Plate Ht.	Tailing	Resolution	Sep.Factor	Area Ratio	Height Ratio	Conc. %	Norm Conc.
1	1.476	1.439	1.538	26861	12617	2.129	189.637	   	1	CO	0.000	9088	16.505	1.354	0.000	0.000	0	0	33.840	33.840
2	1.571	1.538	1.630	4825	2314	2.086	93.302	 V 	2	CH4	0.065	10486	14.305	0.000	1.547	0.000	0	0	16.650	16.650
3	1.996	1.952	2.403	1105489	520264	2.125	277.448	   	3	CO2	0.353	17316	8.663	1.330	6.970	5.462	0	0	49.510	49.510

[Peak Table(Ch2)]
# of Peaks	0

[Peak Table(Ch3)]
# of Peaks	4
Peak#	R.Time	I.Time	F.Time	Area	Height	A/H	Conc.	Mark	ID#	Name	k'	Plate #	Plate Ht.	Tailing	Resolution	Sep.Factor	Area Ratio	Height Ratio	Conc. %	Norm Conc.
1	2.458	2.323	2.521	1136	265	4.282	0.000	   			0.000	11520	13.021	0.000	0.000	0.000	0	0	0.000	0.000
2	2.554	2.521	2.634	689	140	4.916	0.000	 V 			0.039	4545	33.004	0.000	0.784	0.000	0	0	0.000	0.000
3	2.873	2.645	3.170	21189	4816	4.400	0.541	   	1	N2O	0.169	13077	11.471	1.739	2.532	4.346	0	0	100.000	100.000
4	3.280	3.173	3.980	15748	635	24.795	0.000	   	2	SF6	0.334	387	387.799	3.755	1.061	1.982	0	0	0.000	0.000

[Compound Results(Ch1)]
# of IDs	6
ID#	Name	R.Time	Area	Height	Conc.	Curve	3rd	2nd	1st	Constant	Area Ratio	Height Ratio	Conc. %	Norm Conc.
1	CO	1.476	26861	12617	189.637	Linear	0.000000e+00	0.000000e+00	1.416423e+002	0.000000e+00	0	0	33.840	33.840
2	CH4	1.571	4825	2314	93.302	Linear	0.000000e+00	0.000000e+00	5.171738e+001	0.000000e+00	0	0	16.650	16.650
3	CO2	1.996	1105489	520264	277.448	Linear	0.000000e+00	0.000000e+00	3.984494e+003	0.000000e+00	0	0	49.510	49.510
4	Ethylene	0.000	0	0	0.000	Linear	0.000000e+00	0.000000e+00	0.000000e+00	0.000000e+00	0	0	0.000	0.000
5	Acetylene	0.000	0	0	0.000	Linear	0.000000e+00	0.000000e+00	0.000000e+00	0.000000e+00	0	0	0.000	0.000
6	Ethane	0.000	0	0	0.000	Linear	0.000000e+00	0.000000e+00	0.000000e+00	0.000000e+00	0	0	0.000	0.000

[Compound Results(Ch2)]
# of IDs	5
ID#	Name	R.Time	Area	Height	Conc.	Curve	3rd	2nd	1st	Constant	Area Ratio	Height Ratio	Conc. %	Norm Conc.
1	Hydrogen	0.000	0	0	0.000	Linear	0.000000e+00	0.000000e+00	0.000000e+00	0.000000e+00	0	0	0.000	0.000
2	Oxygen	0.000	0	0	0.000	Linear	0.000000e+00	0.000000e+00	0.000000e+00	0.000000e+00	0	0	0.000	0.000
3	Nitrogen	0.000	0	0	0.000	Linear	0.000000e+00	0.000000e+00	0.000000e+00	0.000000e+00	0	0	0.000	0.000
4	Methane	0.000	0	0	0.000	Linear	0.000000e+00	0.000000e+00	0.000000e+00	0.000000e+00	0	0	0.000	0.000
5	Carbon Monoxide	0.000	0	0	0.000	Linear	0.000000e+00	0.000000e+00	0.000000e+00	0.000000e+00	0	0	0.000	0.000

[Compound Results(Ch3)]
# of IDs	2
ID#	Name	R.Time	Area	Height	Conc.	Curve	3rd	2nd	1st	Constant	Area Ratio	Height Ratio	Conc. %	Norm Conc.
1	N2O	2.873	21189	4816	0.541	Linear	0.000000e+00	0.000000e+00	3.915173e+004	0.000000e+00	0	0	100.000	100.000
2	SF6	3.280	15748	635	0.000	Linear	0.000000e+00	0.000000e+00	0.000000e+00	0.000000e+00	0	0	0.000	0.000

[Group Results(Ch1)]
# of Groups	0

[Group Results(Ch2)]
# of Groups	0

[Group Results(Ch3)]
# of Groups	0

[Chromatogram (Ch1)]
Interval(msec)	220
# of Points	1091
Start Time(min)	0.002
End Time(min)	3.998
R.Time (min)	Intensity
0.00167	4
0.00533	6
0.00900	10
0.01267	11
0.01633	12
0.02000	9
0.02367	4
0.02733	-1
0.03100	-5
0.03467	-10
0.03833	-12
0.04200	-11
0.04567	-7
0.04933	-5
0.05300	-2
0.05667	2
0.06033	5
0.06400	5
0.06767	2
0.07133	-2
0.07500	-5
0.07867	-6
0.08233	-8
0.08600	-11
0.08967	-11
0.09333	-9
0.09700	-5
0.10067	1
0.10433	7
0.10800	10
0.11167	11
0.11533	10
0.11900	7
0.12267	2
0.12633	-0
0.13000	-4
0.13367	-7
0.13733	-5
0.14100	-2
0.14467	-2
0.14833	-3
0.15200	-7
0.15567	-10
0.15933	-14
0.16300	-19
0.16667	-21
0.17033	-20
0.17400	-18
0.17767	-14
0.18133	-9
0.18500	-1
0.18867	6
0.19233	11
0.19600	10
0.19967	8
0.20333	6
0.20700	2
0.21067	-3
0.21433	-7
0.21800	-11
0.22167	-13
0.22533	-15
0.22900	-14
0.23267	-13
0.23633	-12
0.24000	-12
0.24367	-8
0.24733	-3
0.25100	2
0.25467	7
0.25833	10
0.26200	10
0.26567	10
0.26933	9
0.27300	10
0.27667	9
0.28033	7
0.28400	5
0.28767	9
0.29133	19
0.29500	27
0.29867	25
0.30233	12
0.30600	-5
0.30967	-20
0.31333	-25
0.31700	-17
0.32067	-2
0.32433	12
0.32800	17
0.33167	16
0.33533	15
0.33900	14
0.34267	14
0.34633	14
0.35000	16
0.35367	18
0.35733	20
0.36100	20
0.36467	18
0.36833	13
0.37200	13
0.37567	17
0.37933	20
0.38300	20
0.38667	17
0.39033	15
0.39400	15
0.39767	18
0.40133	23
0.40500	27
0.40867	31
0.41233	31
0.41600	27
0.41967	22
0.42333	22
0.42700	27
0.43067	33
0.43433	36
0.43800	32
0.44167	23
0.44533	11
0.44900	1
0.45267	-9
0.45633	-19
0.46000	-26
0.46367	-26
0.46733	-24
0.47100	-18
0.47467	-11
0.47833	-7
0.48200	-4
0.48567	-1
0.48933	2
0.49300	3
0.49667	2
0.50033	2
0.50400	3
0.50767	0
0.51133	-5
0.51500	-10
0.51867	-14
0.52233	-15
0.52600	-14
0.52967	-12
0.53333	-10
0.53700	-7
0.54067	-2
0.54433	2
0.54800	4
0.55167	1
0.55533	-5
0.55900	-10
0.56267	-14
0.56633	-22
0.57000	-33
0.57367	-42
0.57733	-46
0.58100	-45
0.58467	-40
0.58833	-36
0.59200	-33
0.59567	-32
0.59933	-30
0.60300	-28
0.60667	-24
0.61033	-22
0.61400	-19
0.61767	-16
0.62133	-11
0.62500	-8
0.62867	-6
0.63233	-8
0.63600	-11
0.63967	-15
0.64333	-22
0.64700	-30
0.65067	-36
0.65433	-37
0.65800	-35
0.66167	-31
0.66533	-24
0.66900	-18
0.67267	-13
0.67633	-10
0.68000	-9
0.68367	-10
0.68733	-12
0.69100	-13
0.69467	-14
0.69833	-17
0.70200	-22
0.70567	-27
0.70933	-30
0.71300	-32
0.71667	-31
0.72033	-28
0.72400	-25
0.72767	-20
0.73133	-14
0.73500	-10
0.73867	-11
0.74233	-16
0.74600	-21
0.74967	-22
0.75333	-19
0.75700	-16
0.76067	-15
0.76433	-19
0.76800	-22
0.77167	-23
0.77533	-21
0.77900	-18
0.78267	-17
0.78633	-17
0.79000	-17
0.79367	-17
0.79733	-18
0.80100	-18
0.80467	-15
0.80833	-13
0.81200	-14
0.81567	-17
0.81933	-20
0.82300	-25
0.82667	-31
0.83033	-39
0.83400	-46
0.83767	-47
0.84133	-42
0.84500	-35
0.84867	-29
0.85233	-27
0.85600	-30
0.85967	-38
0.86333	-48
0.86700	-55
0.87067	-61
0.87433	-63
0.87800	-60
0.88167	-53
0.88533	-47
0.88900	-43
0.89267	-40
0.89633	-39
0.90000	-36
0.90367	-35
0.90733	-35
0.91100	-38
0.91467	-41
0.91833	-43
0.92200	-42
0.92567	-39
0.92933	-35
0.93300	-33
0.93667	-29
0.94033	-23
0.94400	-19
0.94767	-21
0.95133	-30
0.95500	-39
0.95867	-48
0.96233	-52
0.96600	-52
0.96967	-53
0.97333	-57
0.97700	-61
0.98067	-62
0.98433	-62
0.98800	-63
0.99167	-59
0.99533	-51
0.99900	-44
1.00267	-34
1.00633	-23
1.01000	-13
1.01367	-6
1.01733	-4
1.02100	-7
1.02467	-11
1.02833	-13
1.03200	-15
1.03567	-19
1.03933	-24
1.04300	-26
1.04667	-24
1.05033	-23
1.05400	-24
1.05767	-34
1.06133	-45
1.06500	-56
1.06867	-63
1.07233	-63
1.07600	-58
1.07967	-50
1.08333	-43
1.08700	-40
1.09067	-41
1.09433	-40
1.09800	-36
1.10167	-34
1.10533	-31
1.10900	-31
1.11267	-32
1.11633	-31
1.12000	-30
1.12367	-31
1.12733	-33
1.13100	-31
1.13467	-27
1.13833	-20
1.14200	-16
1.14567	-15
1.14933	-15
1.15300	-17
1.15667	-21
1.16033	-23
1.16400	-23
1.16767	-21
1.17133	-16
1.17500	-8
1.17867	-0
1.18233	1
1.18600	-7
1.18967	-16
1.19333	-23
1.19700	-28
1.20067	-31
1.20433	-34
1.20800	-35
1.21167	-34
1.21533	-31
1.21900	-31
1.22267	-35
1.22633	-42
1.23000	-49
1.23367	-51
1.23733	-48
1.24100	-43
1.24467	-37
1.24833	-33
1.25200	-31
1.25567	-27
1.25933	-21
1.26300	-13
1.26667	-5
1.27033	5
1.27400	16
1.27767	22
1.28133	20
1.28500	12
1.28867	1
1.29233	-9
1.29600	-16
1.29967	-20
1.30333	-20
1.30700	-16
1.31067	-9
1.31433	-1
1.31800	6
1.32167	13
1.32533	17
1.32900	17
1.33267	15
1.33633	10
1.34000	4
1.34367	1
1.34733	-1
1.35100	-3
1.35467	-4
1.35833	-7
1.36200	-9
1.36567	-6
1.36933	1
1.37300	7
1.37667	12
1.38033	15
1.38400	16
1.38767	14
1.39133	15
1.39500	22
1.39867	27
1.40233	29
1.40600	27
1.40967	19
1.41333	9
1.41700	1
1.42067	-3
1.42433	-6
1.42800	-8
1.43167	-9
1.43533	-9
1.43900	6
1.44267	83
1.44633	282
1.45000	764
1.45367	1903
1.45733	3866
1.46100	6293
1.46467	8645
1.46833	10580
1.47200	11945
1.47567	12630
1.47933	12520
1.48300	11592
1.48667	10017
1.49033	8127
1.49400	6266
1.49767	4659
1.50133	3388
1.50500	2436
1.50867	1746
1.51233	1262
1.51600	932
1.51967	711
1.52333	560
1.52700	452
1.53067	371
1.53433	310
1.53800	273
1.54167	292
1.54533	429
1.54900	723
1.55267	1128
1.55633	1551
1.56000	1917
1.56367	2188
1.56733	2339
1.57100	2342
1.57467	2179
1.57833	1878
1.58200	1508
1.58567	1147
1.58933	838
1.59300	597
1.59667	420
1.60033	296
1.60400	214
1.60767	161
1.61133	124
1.61500	97
1.61867	75
1.62233	58
1.62600	46
1.62967	39
1.63333	34
1.63700	32
1.64067	32
1.64433	31
1.64800	25
1.65167	18
1.65533	14
1.65900	14
1.66267	15
1.66633	16
1.67000	16
1.67367	17
1.67733	18
1.68100	18
1.68467	14
1.68833	9
1.69200	-0
1.69567	-5
1.69933	-5
1.70300	-1
1.70667	4
1.71033	6
1.71400	6
1.71767	5
1.72133	6
1.72500	7
1.72867	13
1.73233	21
1.73600	27
1.73967	34
1.74333	43
1.74700	44
1.75067	35
1.75433	20
1.75800	8
1.76167	3
1.76533	3
1.76900	8
1.77267	15
1.77633	19
1.78000	15
1.78367	3
1.78733	-11
1.79100	-23
1.79467	-30
1.79833	-33
1.80200	-31
1.80567	-26
1.80933	-21
1.81300	-14
1.81667	-4
1.82033	6
1.82400	11
1.82767	14
1.83133	12
1.83500	9
1.83867	6
1.84233	6
1.84600	6
1.84967	7
1.85333	7
1.85700	7
1.86067	7
1.86433	4
1.86800	5
1.87167	2
1.87533	-0
1.87900	-1
1.88267	0
1.88633	1
1.89000	1
1.89367	1
1.89733	1
1.90100	-0
1.90467	-1
1.90833	-4
1.91200	-5
1.91567	-6
1.91933	-6
1.92300	-6
1.92667	-4
1.93033	-0
1.93400	4
1.93767	11
1.94133	17
1.94500	23
1.94867	26
1.95233	39
1.95600	119
1.95967	578
1.96333	2674
1.96700	10021
1.97067	29697
1.97433	70688
1.97800	138173
1.98167	227756
1.98533	326070
1.98900	416481
1.99267	484541
1.99633	520330
2.00000	519192
2.00367	482716
2.00733	419430
2.01100	342484
2.01467	265111
2.01833	196712
2.02200	141603
2.02567	100055
2.02933	70153
2.03300	49296
2.03667	35023
2.04033	25349
2.04400	18800
2.04767	14344
2.05133	11279
2.05500	9133
2.05867	7596
2.06233	6471
2.06600	5629
2.06967	4977
2.07333	4459
2.07700	4036
2.08067	3684
2.08433	3387
2.08800	3133
2.09167	2912
2.09533	2718
2.09900	2549
2.10267	2402
2.10633	2271
2.11000	2151
2.11367	2043
2.11733	1942
2.12100	1847
2.12467	1761
2.12833	1684
2.13200	1616
2.13567	1557
2.13933	1502
2.14300	1449
2.14667	1397
2.15033	1346
2.15400	1297
2.15767	1250
2.16133	1204
2.16500	1160
2.16867	1122
2.17233	1089
2.17600	1060
2.17967	1032
2.18333	1003
2.18700	972
2.19067	942
2.19433	912
2.19800	882
2.20167	854
2.20533	830
2.20900	810
2.21267	797
2.21633	784
2.22000	767
2.22367	743
2.22733	717
2.23100	695
2.23467	681
2.23833	670
2.24200	663
2.24567	662
2.24933	661
2.25300	653
2.25667	635
2.26033	613
2.26400	591
2.26767	572
2.27133	559
2.27500	551
2.27867	541
2.28233	527
2.28600	513
2.28967	505
2.29333	499
2.29700	493
2.30067	486
2.30433	481
2.30800	476
2.31167	465
2.31533	450
2.31900	436
2.32267	427
2.32633	424
2.33000	422
2.33367	417
2.33733	415
2.34100	415
2.34467	416
2.34833	414
2.35200	407
2.35567	397
2.35933	387
2.36300	377
2.36667	371
2.37033	366
2.37400	363
2.37767	362
2.38133	358
2.38500	354
2.38867	349
2.39233	341
2.39600	334
2.39967	328
2.40333	324
2.40700	323
2.41067	328
2.41433	333
2.41800	334
2.42167	330
2.42533	325
2.42900	324
2.43267	328
2.43633	331
2.44000	331
2.44367	330
2.44733	326
2.45100	323
2.45467	319
2.45833	311
2.46200	299
2.46567	293
2.46933	291
2.47300	293
2.47667	294
2.48033	294
2.48400	292
2.48767	287
2.49133	283
2.49500	282
2.49867	280
2.50233	274
2.50600	267
2.50967	262
2.51333	261
2.51700	263
2.52067	269
2.52433	275
2.52800	284
2.53167	292
2.53533	296
2.53900	295
2.54267	286
2.54633	273
2.55000	261
2.55367	254
2.55733	249
2.56100	246
2.56467	244
2.56833	247
2.57200	251
2.57567	255
2.57933	262
2.58300	266
2.58667	261
2.59033	251
2.59400	239
2.59767	228
2.60133	223
2.60500	221
2.60867	223
2.61233	227
2.61600	228
2.61967	229
2.62333	235
2.62700	242
2.63067	245
2.63433	248
2.63800	249
2.64167	246
2.64533	240
2.64900	234
2.65267	228
2.65633	224
2.66000	222
2.66367	223
2.66733	224
2.67100	225
2.67467	223
2.67833	220
2.68200	218
2.68567	219
2.68933	223
2.69300	227
2.69667	232
2.70033	234
2.70400	234
2.70767	233
2.71133	232
2.71500	234
2.71867	237
2.72233	237
2.72600	230
2.72967	222
2.73333	216
2.73700	212
2.74067	212
2.74433	214
2.74800	218
2.75167	224
2.75533	232
2.75900	236
2.76267	236
2.76633	239
2.77000	244
2.77367	248
2.77733	247
2.78100	243
2.78467	238
2.78833	236
2.79200	236
2.79567	234
2.79933	233
2.80300	232
2.80667	232
2.81033	232
2.81400	233
2.81767	234
2.82133	237
2.82500	238
2.82867	236
2.83233	237
2.83600	239
2.83967	240
2.84333	239
2.84700	237
2.85067	235
2.85433	234
2.85800	234
2.86167	235
2.86533	235
2.86900	236
2.87267	239
2.87633	242
2.88000	243
2.88367	245
2.88733	251
2.89100	256
2.89467	254
2.89833	250
2.90200	247
2.90567	243
2.90933	241
2.91300	243
2.91667	249
2.92033	255
2.92400	258
2.92767	258
2.93133	255
2.93500	251
2.93867	247
2.94233	244
2.94600	243
2.94967	242
2.95333	241
2.95700	240
2.96067	241
2.96433	246
2.96800	252
2.97167	261
2.97533	265
2.97900	262
2.98267	260
2.98633	261
2.99000	262
2.99367	259
2.99733	254
3.00100	245
3.00467	240
3.00833	236
3.01200	231
3.01567	233
3.01933	239
3.02300	243
3.02667	247
3.03033	249
3.03400	250
3.03767	247
3.04133	244
3.04500	247
3.04867	255
3.05233	265
3.05600	271
3.05967	269
3.06333	258
3.06700	245
3.07067	238
3.07433	236
3.07800	240
3.08167	245
3.08533	252
3.08900	262
3.09267	275
3.09633	284
3.10000	285
3.10367	278
3.10733	265
3.11100	251
3.11467	240
3.11833	235
3.12200	235
3.12567	240
3.12933	247
3.13300	253
3.13667	258
3.14033	263
3.14400	266
3.14767	267
3.15133	266
3.15500	262
3.15867	258
3.16233	257
3.16600	257
3.16967	256
3.17333	251
3.17700	245
3.18067	242
3.18433	243
3.18800	243
3.19167	243
3.19533	242
3.19900	241
3.20267	239
3.20633	239
3.21000	242
3.21367	245
3.21733	248
3.22100	251
3.22467	254
3.22833	257
3.23200	260
3.23567	264
3.23933	266
3.24300	263
3.24667	258
3.25033	255
3.25400	250
3.25767	246
3.26133	248
3.26500	252
3.26867	254
3.27233	256
3.27600	256
3.27967	256
3.28333	257
3.28700	260
3.29067	264
3.29433	265
3.29800	264
3.30167	263
3.30533	261
3.30900	258
3.31267	260
3.31633	266
3.32000	271
3.32367	272
3.32733	267
3.33100	259
3.33467	251
3.33833	243
3.34200	237
3.34567	231
3.34933	227
3.35300	226
3.35667	229
3.36033	236
3.36400	239
3.36767	237
3.37133	236
3.37500	240
3.37867	245
3.38233	249
3.38600	249
3.38967	246
3.39333	243
3.39700	238
3.40067	236
3.40433	235
3.40800	233
3.41167	232
3.41533	234
3.41900	237
3.42267	240
3.42633	244
3.43000	247
3.43367	251
3.43733	254
3.44100	255
3.44467	255
3.44833	253
3.45200	255
3.45567	260
3.45933	264
3.46300	261
3.46667	252
3.47033	242
3.47400	235
3.47767	231
3.48133	232
3.48500	236
3.48867	241
3.49233	245
3.49600	249
3.49967	252
3.50333	252
3.50700	252
3.51067	248
3.51433	241
3.51800	233
3.52167	226
3.52533	222
3.52900	221
3.53267	222
3.53633	223
3.54000	224
3.54367	224
3.54733	225
3.55100	227
3.55467	230
3.55833	233
3.56200	237
3.56567	243
3.56933	247
3.57300	247
3.57667	246
3.58033	247
3.58400	246
3.58767	241
3.59133	232
3.59500	221
3.59867	216
3.60233	215
3.60600	217
3.60967	222
3.61333	228
3.61700	234
3.62067	238
3.62433	238
3.62800	233
3.63167	227
3.63533	222
3.63900	219
3.64267	217
3.64633	215
3.65000	216
3.65367	218
3.65733	217
3.66100	215
3.66467	216
3.66833	218
3.67200	217
3.67567	217
3.67933	217
3.68300	217
3.68667	218
3.69033	217
3.69400	215
3.69767	212
3.70133	210
3.70500	212
3.70867	217
3.71233	224
3.71600	231
3.71967	233
3.72333	230
3.72700	225
3.73067	218
3.73433	213
3.73800	209
3.74167	206
3.74533	202
3.74900	199
3.75267	202
3.75633	208
3.76000	215
3.76367	219
3.76733	221
3.77100	220
3.77467	219
3.77833	218
3.78200	217
3.78567	212
3.78933	203
3.79300	194
3.79667	189
3.80033	187
3.80400	186
3.80767	187
3.81133	187
3.81500	188
3.81867	191
3.82233	195
3.82600	197
3.82967	197
3.83333	199
3.83700	207
3.84067	220
3.84433	232
3.84800	236
3.85167	233
3.85533	225
3.85900	217
3.86267	210
3.86633	199
3.87000	188
3.87367	179
3.87733	172
3.88100	169
3.88467	169
3.88833	170
3.89200	171
3.89567	169
3.89933	166
3.90300	165
3.90667	167
3.91033	173
3.91400	179
3.91767	181
3.92133	181
3.92500	179
3.92867	180
3.93233	182
3.93600	184
3.93967	187
3.94333	193
3.94700	199
3.95067	201
3.95433	197
3.95800	192
3.96167	187
3.96533	181
3.96900	177
3.97267	173
3.97633	169
3.98000	166
3.98367	168
3.98733	174
3.99100	176
3.99467	175
3.99833	176

[Chromatogram (Ch2)]
Interval(msec)	220
# of Points	1091
Start Time(min)	0.002
End Time(min)	3.998
R.Time (min)	Intensity
0.00167	-1
0.00533	-1
0.00900	-2
0.01267	-2
0.01633	-2
0.02000	-2
0.02367	-2
0.02733	-1
0.03100	-1
0.03467	-1
0.03833	-1
0.04200	-1
0.04567	-1
0.04933	-1
0.05300	-1
0.05667	-1
0.06033	-1
0.06400	-1
0.06767	-1
0.07133	-2
0.07500	-2
0.07867	-2
0.08233	-2
0.08600	-2
0.08967	-2
0.09333	-2
0.09700	-2
0.10067	-1
0.10433	-1
0.10800	-1
0.11167	-1
0.11533	-1
0.11900	-1
0.12267	-1
0.12633	-1
0.13000	-1
0.13367	-1
0.13733	-1
0.14100	-1
0.14467	-2
0.14833	-2
0.15200	-2
0.15567	-3
0.15933	-3
0.16300	-3
0.16667	-2
0.17033	-2
0.17400	-2
0.17767	-2
0.18133	-1
0.18500	-1
0.18867	-1
0.19233	-1
0.19600	-1
0.19967	-1
0.20333	-1
0.20700	-1
0.21067	-1
0.21433	-1
0.21800	-1
0.22167	-1
0.22533	-1
0.22900	-2
0.23267	-2
0.23633	-2
0.24000	-2
0.24367	-3
0.24733	-3
0.25100	-3
0.25467	-2
0.25833	-2
0.26200	-2
0.26567	-2
0.26933	-1
0.27300	-1
0.27667	-1
0.28033	-1
0.28400	-1
0.28767	-0
0.29133	-0
0.29500	-0
0.29867	-0
0.30233	-0
0.30600	-0
0.30967	0
0.31333	0
0.31700	1
0.32067	1
0.32433	1
0.32800	1
0.33167	1
0.33533	1
0.33900	2
0.34267	2
0.34633	1
0.35000	1
0.35367	1
0.35733	1
0.36100	1
0.36467	1
0.36833	1
0.37200	1
0.37567	1
0.37933	1
0.38300	1
0.38667	1
0.39033	1
0.39400	1
0.39767	0
0.40133	-0
0.40500	-0
0.40867	-0
0.41233	-0
0.41600	-0
0.41967	-0
0.42333	-0
0.42700	-0
0.43067	0
0.43433	0
0.43800	-0
0.44167	-0
0.44533	-0
0.44900	-0
0.45267	-1
0.45633	-1
0.46000	-1
0.46367	-1
0.46733	-1
0.47100	-2
0.47467	-1
0.47833	-1
0.48200	-1
0.48567	-1
0.48933	-1
0.49300	-1
0.49667	-1
0.50033	-1
0.50400	-1
0.50767	-1
0.51133	-2
0.51500	-2
0.51867	-2
0.52233	-1
0.52600	-1
0.52967	-1
0.53333	-1
0.53700	-1
0.54067	-1
0.54433	-1
0.54800	-1
0.55167	-1
0.55533	-1
0.55900	-1
0.56267	-1
0.56633	-1
0.57000	-1
0.57367	-1
0.57733	-1
0.58100	-1
0.58467	-1
0.58833	-1
0.59200	-1
0.59567	-1
0.59933	-1
0.60300	-1
0.60667	-1
0.61033	-1
0.61400	-1
0.61767	-1
0.62133	-2
0.62500	-2
0.62867	-2
0.63233	-2
0.63600	-1
0.63967	-1
0.64333	-1
0.64700	-1
0.65067	-1
0.65433	-1
0.65800	-1
0.66167	-0
0.66533	0
0.66900	0
0.67267	0
0.67633	0
0.68000	1
0.68367	1
0.68733	1
0.69100	1
0.69467	1
0.69833	1
0.70200	0
0.70567	-0
0.70933	-0
0.71300	-0
0.71667	-1
0.72033	-1
0.72400	-1
0.72767	-1
0.73133	-1
0.73500	-1
0.73867	-1
0.74233	-1
0.74600	-2
0.74967	-2
0.75333	-2
0.75700	-2
0.76067	-2
0.76433	-2
0.76800	-2
0.77167	-3
0.77533	-2
0.77900	-2
0.78267	-2
0.78633	-1
0.79000	-1
0.79367	-1
0.79733	-1
0.80100	-1
0.80467	-1
0.80833	-1
0.81200	-1
0.81567	-1
0.81933	-1
0.82300	-1
0.82667	-1
0.83033	-1
0.83400	-2
0.83767	-2
0.84133	-2
0.84500	-2
0.84867	-2
0.85233	-2
0.85600	-2
0.85967	-2
0.86333	-1
0.86700	-1
0.87067	-1
0.87433	-1
0.87800	-1
0.88167	-1
0.88533	-1
0.88900	-1
0.89267	-1
0.89633	-1
0.90000	-1
0.90367	-1
0.90733	-1
0.91100	-0
0.91467	-1
0.91833	-1
0.92200	-1
0.92567	-1
0.92933	-1
0.93300	-1
0.93667	-1
0.94033	-2
0.94400	-2
0.94767	-3
0.95133	-3
0.95500	-3
0.95867	-3
0.96233	-4
0.96600	-4
0.96967	-4
0.97333	-4
0.97700	-4
0.98067	-4
0.98433	-3
0.98800	-3
0.99167	-3
0.99533	-4
0.99900	-4
1.00267	-4
1.00633	-4
1.01000	-4
1.01367	-4
1.01733	-4
1.02100	-4
1.02467	-5
1.02833	-5
1.03200	-5
1.03567	-5
1.03933	-5
1.04300	-5
1.04667	-5
1.05033	-5
1.05400	-5
1.05767	-5
1.06133	-5
1.06500	-5
1.06867	-5
1.07233	-5
1.07600	-5
1.07967	-5
1.08333	-5
1.08700	-4
1.09067	-4
1.09433	-4
1.09800	-3
1.10167	-3
1.10533	-3
1.10900	-3
1.11267	-2
1.11633	-2
1.12000	-2
1.12367	-2
1.12733	-2
1.13100	-2
1.13467	-2
1.13833	-2
1.14200	-1
1.14567	-1
1.14933	-1
1.15300	-1
1.15667	-1
1.16033	-1
1.16400	-1
1.16767	-1
1.17133	-1
1.17500	-1
1.17867	-1
1.18233	-1
1.18600	-2
1.18967	-2
1.19333	-2
1.19700	-3
1.20067	-3
1.20433	-3
1.20800	-3
1.21167	-3
1.21533	-4
1.21900	-4
1.22267	-4
1.22633	-4
1.23000	-3
1.23367	-3
1.23733	-3
1.24100	-3
1.24467	-3
1.24833	-3
1.25200	-3
1.25567	-3
1.25933	-3
1.26300	-3
1.26667	-3
1.27033	-3
1.27400	-3
1.27767	-4
1.28133	-4
1.28500	-4
1.28867	-4
1.29233	-3
1.29600	-3
1.29967	-3
1.30333	-3
1.30700	-3
1.31067	-2
1.31433	-2
1.31800	-2
1.32167	-2
1.32533	-2
1.32900	-2
1.33267	-2
1.33633	-2
1.34000	-3
1.34367	-3
1.34733	-3
1.35100	-3
1.35467	-4
1.35833	-4
1.36200	-4
1.36567	-4
1.36933	-4
1.37300	-4
1.37667	-4
1.38033	-4
1.38400	-3
1.38767	-3
1.39133	-3
1.39500	-3
1.39867	-2
1.40233	-2
1.40600	-2
1.40967	-2
1.41333	-2
1.41700	-2
1.42067	-2
1.42433	-2
1.42800	-2
1.43167	-2
1.43533	-2
1.43900	-2
1.44267	-2
1.44633	-2
1.45000	-2
1.45367	-2
1.45733	-2
1.46100	-2
1.46467	-2
1.46833	-2
1.47200	-2
1.47567	-2
1.47933	-2
1.48300	-2
1.48667	-2
1.49033	-2
1.49400	-1
1.49767	-1
1.50133	-1
1.50500	-2
1.50867	-2
1.51233	-2
1.51600	-2
1.51967	-2
1.52333	-2
1.52700	-3
1.53067	-3
1.53433	-3
1.53800	-3
1.54167	-3
1.54533	-4
1.54900	-4
1.55267	-4
1.55633	-4
1.56000	-4
1.56367	-4
1.56733	-3
1.57100	-3
1.57467	-3
1.57833	-3
1.58200	-3
1.58567	-3
1.58933	-3
1.59300	-3
1.59667	-3
1.60033	-4
1.60400	-5
1.60767	-7
1.61133	-9
1.61500	-11
1.61867	-13
1.62233	-16
1.62600	-18
1.62967	-21
1.63333	-25
1.63700	-28
1.64067	-32
1.64433	-36
1.64800	-40
1.65167	-44
1.65533	-48
1.65900	-52
1.66267	-56
1.66633	-60
1.67000	-65
1.67367	-71
1.67733	-76
1.68100	-81
1.68467	-86
1.68833	-91
1.69200	-95
1.69567	-98
1.69933	-101
1.70300	-104
1.70667	-106
1.71033	-107
1.71400	-109
1.71767	-110
1.72133	-111
1.72500	-112
1.72867	-112
1.73233	-112
1.73600	-112
1.73967	-112
1.74333	-112
1.74700	-112
1.75067	-112
1.75433	-112
1.75800	-112
1.76167	-113
1.76533	-114
1.76900	-115
1.77267	-116
1.77633	-118
1.78000	-119
1.78367	-119
1.78733	-120
1.79100	-120
1.79467	-120
1.79833	-120
1.80200	-120
1.80567	-120
1.80933	-120
1.81300	-120
1.81667	-121
1.82033	-121
1.82400	-121
1.82767	-121
1.83133	-120
1.83500	-120
1.83867	-120
1.84233	-120
1.84600	-120
1.84967	-120
1.85333	-120
1.85700	-120
1.86067	-120
1.86433	-119
1.86800	-119
1.87167	-119
1.87533	-119
1.87900	-119
1.88267	-119
1.88633	-119
1.89000	-119
1.89367	-119
1.89733	-118
1.90100	-118
1.90467	-118
1.90833	-118
1.91200	-118
1.91567	-118
1.91933	-117
1.92300	-117
1.92667	-116
1.93033	-116
1.93400	-115
1.93767	-115
1.94133	-114
1.94500	-114
1.94867	-114
1.95233	-114
1.95600	-114
1.95967	-114
1.96333	-114
1.96700	-114
1.97067	-114
1.97433	-114
1.97800	-114
1.98167	-114
1.98533	-114
1.98900	-113
1.99267	-113
1.99633	-113
2.00000	-112
2.00367	-112
2.00733	-112
2.01100	-112
2.01467	-112
2.01833	-112
2.02200	-112
2.02567	-111
2.02933	-111
2.03300	-111
2.03667	-111
2.04033	-111
2.04400	-110
2.04767	-110
2.05133	-109
2.05500	-109
2.05867	-108
2.06233	-108
2.06600	-107
2.06967	-107
2.07333	-106
2.07700	-106
2.08067	-106
2.08433	-106
2.08800	-106
2.09167	-106
2.09533	-105
2.09900	-105
2.10267	-104
2.10633	-104
2.11000	-103
2.11367	-102
2.11733	-101
2.12100	-101
2.12467	-101
2.12833	-101
2.13200	-100
2.13567	-100
2.13933	-100
2.14300	-99
2.14667	-99
2.15033	-100
2.15400	-100
2.15767	-100
2.16133	-100
2.16500	-100
2.16867	-99
2.17233	-99
2.17600	-98
2.17967	-98
2.18333	-97
2.18700	-97
2.19067	-97
2.19433	-96
2.19800	-96
2.20167	-96
2.20533	-95
2.20900	-94
2.21267	-94
2.21633	-93
2.22000	-93
2.22367	-92
2.22733	-92
2.23100	-92
2.23467	-92
2.23833	-92
2.24200	-92
2.24567	-92
2.24933	-91
2.25300	-91
2.25667	-90
2.26033	-90
2.26400	-89
2.26767	-89
2.27133	-88
2.27500	-88
2.27867	-88
2.28233	-88
2.28600	-88
2.28967	-88
2.29333	-88
2.29700	-88
2.30067	-88
2.30433	-87
2.30800	-86
2.31167	-86
2.31533	-85
2.31900	-85
2.32267	-85
2.32633	-85
2.33000	-86
2.33367	-86
2.33733	-87
2.34100	-86
2.34467	-85
2.34833	-84
2.35200	-82
2.35567	-80
2.35933	-79
2.36300	-77
2.36667	-74
2.37033	-72
2.37400	-69
2.37767	-66
2.38133	-62
2.38500	-59
2.38867	-54
2.39233	-50
2.39600	-46
2.39967	-43
2.40333	-39
2.40700	-35
2.41067	-32
2.41433	-29
2.41800	-27
2.42167	-25
2.42533	-23
2.42900	-21
2.43267	-20
2.43633	-18
2.44000	-17
2.44367	-16
2.44733	-14
2.45100	-13
2.45467	-11
2.45833	-9
2.46200	-7
2.46567	-6
2.46933	-4
2.47300	-3
2.47667	-2
2.48033	-1
2.48400	1
2.48767	2
2.49133	3
2.49500	4
2.49867	5
2.50233	7
2.50600	7
2.50967	8
2.51333	8
2.51700	8
2.52067	8
2.52433	8
2.52800	8
2.53167	8
2.53533	8
2.53900	9
2.54267	10
2.54633	10
2.55000	11
2.55367	11
2.55733	11
2.56100	12
2.56467	12
2.56833	12
2.57200	12
2.57567	13
2.57933	13
2.58300	13
2.58667	13
2.59033	13
2.59400	12
2.59767	12
2.60133	12
2.60500	12
2.60867	12
2.61233	12
2.61600	12
2.61967	12
2.62333	13
2.62700	13
2.63067	13
2.63433	13
2.63800	13
2.64167	13
2.64533	13
2.64900	13
2.65267	13
2.65633	13
2.66000	14
2.66367	14
2.66733	15
2.67100	15
2.67467	16
2.67833	17
2.68200	18
2.68567	18
2.68933	19
2.69300	20
2.69667	21
2.70033	21
2.70400	22
2.70767	22
2.71133	22
2.71500	22
2.71867	22
2.72233	22
2.72600	22
2.72967	22
2.73333	23
2.73700	23
2.74067	23
2.74433	23
2.74800	22
2.75167	22
2.75533	22
2.75900	21
2.76267	21
2.76633	21
2.77000	21
2.77367	21
2.77733	22
2.78100	22
2.78467	22
2.78833	23
2.79200	23
2.79567	23
2.79933	23
2.80300	24
2.80667	24
2.81033	24
2.81400	24
2.81767	25
2.82133	25
2.82500	25
2.82867	26
2.83233	26
2.83600	25
2.83967	23
2.84333	20
2.84700	16
2.85067	8
2.85433	-2
2.85800	-15
2.86167	-33
2.86533	-54
2.86900	-79
2.87267	-109
2.87633	-142
2.88000	-180
2.88367	-220
2.88733	-265
2.89100	-311
2.89467	-361
2.89833	-412
2.90200	-464
2.90567	-518
2.90933	-572
2.91300	-626
2.91667	-680
2.92033	-733
2.92400	-785
2.92767	-837
2.93133	-890
2.93500	-948
2.93867	-1008
2.94233	-1063
2.94600	-1101
2.94967	-1115
2.95333	-1103
2.95700	-1066
2.96067	-1010
2.96433	-940
2.96800	-863
2.97167	-781
2.97533	-700
2.97900	-621
2.98267	-547
2.98633	-479
2.99000	-417
2.99367	-361
2.99733	-311
3.00100	-267
3.00467	-228
3.00833	-194
3.01200	-165
3.01567	-139
3.01933	-117
3.02300	-99
3.02667	-82
3.03033	-69
3.03400	-57
3.03767	-47
3.04133	-38
3.04500	-31
3.04867	-25
3.05233	-20
3.05600	-16
3.05967	-12
3.06333	-9
3.06700	-6
3.07067	-4
3.07433	-2
3.07800	-0
3.08167	1
3.08533	2
3.08900	4
3.09267	5
3.09633	6
3.10000	7
3.10367	8
3.10733	9
3.11100	9
3.11467	10
3.11833	10
3.12200	10
3.12567	11
3.12933	11
3.13300	12
3.13667	12
3.14033	13
3.14400	13
3.14767	13
3.15133	14
3.15500	14
3.15867	14
3.16233	14
3.16600	15
3.16967	15
3.17333	15
3.17700	15
3.18067	15
3.18433	16
3.18800	16
3.19167	16
3.19533	16
3.19900	17
3.20267	17
3.20633	17
3.21000	18
3.21367	18
3.21733	18
3.22100	18
3.22467	19
3.22833	19
3.23200	19
3.23567	19
3.23933	19
3.24300	19
3.24667	20
3.25033	20
3.25400	20
3.25767	20
3.26133	20
3.26500	20
3.26867	20
3.27233	20
3.27600	19
3.27967	19
3.28333	20
3.28700	20
3.29067	20
3.29433	20
3.29800	20
3.30167	20
3.30533	20
3.30900	21
3.31267	21
3.31633	21
3.32000	21
3.32367	21
3.32733	22
3.33100	22
3.33467	22
3.33833	22
3.34200	22
3.34567	22
3.34933	22
3.35300	22
3.35667	22
3.36033	22
3.36400	22
3.36767	22
3.37133	22
3.37500	22
3.37867	22
3.38233	22
3.38600	22
3.38967	22
3.39333	22
3.39700	23
3.40067	23
3.40433	23
3.40800	23
3.41167	23
3.41533	23
3.41900	23
3.42267	23
3.42633	23
3.43000	24
3.43367	24
3.43733	24
3.44100	24
3.44467	24
3.44833	24
3.45200	24
3.45567	24
3.45933	24
3.46300	24
3.46667	24
3.47033	24
3.47400	24
3.47767	24
3.48133	23
3.48500	23
3.48867	23
3.49233	23
3.49600	23
3.49967	23
3.50333	23
3.50700	23
3.51067	23
3.51433	23
3.51800	23
3.52167	23
3.52533	23
3.52900	23
3.53267	23
3.53633	23
3.54000	23
3.54367	23
3.54733	23
3.55100	23
3.55467	23
3.55833	22
3.56200	23
3.56567	23
3.56933	23
3.57300	23
3.57667	23
3.58033	23
3.58400	23
3.58767	23
3.59133	23
3.59500	23
3.59867	23
3.60233	23
3.60600	23
3.60967	23
3.61333	23
3.61700	24
3.62067	24
3.62433	24
3.62800	24
3.63167	24
3.63533	24
3.63900	24
3.64267	24
3.64633	24
3.65000	24
3.65367	24
3.65733	24
3.66100	24
3.66467	24
3.66833	24
3.67200	24
3.67567	24
3.67933	25
3.68300	25
3.68667	24
3.69033	24
3.69400	23
3.69767	23
3.70133	23
3.70500	23
3.70867	23
3.71233	23
3.71600	23
3.71967	24
3.72333	24
3.72700	24
3.73067	24
3.73433	24
3.73800	24
3.74167	24
3.74533	24
3.74900	24
3.75267	24
3.75633	24
3.76000	24
3.76367	24
3.76733	24
3.77100	24
3.77467	24
3.77833	24
3.78200	24
3.78567	24
3.78933	25
3.79300	25
3.79667	25
3.80033	25
3.80400	25
3.80767	25
3.81133	25
3.81500	25
3.81867	25
3.82233	24
3.82600	24
3.82967	24
3.83333	24
3.83700	24
3.84067	24
3.84433	23
3.84800	23
3.85167	23
3.85533	23
3.85900	23
3.86267	23
3.86633	22
3.87000	22
3.87367	22
3.87733	22
3.88100	23
3.88467	23
3.88833	23
3.89200	23
3.89567	24
3.89933	24
3.90300	24
3.90667	24
3.91033	24
3.91400	24
3.91767	24
3.92133	24
3.92500	24
3.92867	24
3.93233	24
3.93600	24
3.93967	24
3.94333	24
3.94700	23
3.95067	23
3.95433	23
3.95800	24
3.96167	24
3.96533	24
3.96900	24
3.97267	24
3.97633	24
3.98000	24
3.98367	24
3.98733	24
3.99100	24
3.99467	24
3.99833	24

[Chromatogram (Ch3)]
Interval(msec)	220
# of Points	1091
Start Time(min)	0.002
End Time(min)	3.998
R.Time (min)	Intensity
0.00167	0
0.00533	-1
0.00900	-1
0.01267	-1
0.01633	2
0.02000	4
0.02367	3
0.02733	1
0.03100	0
0.03467	1
0.03833	2
0.04200	1
0.04567	1
0.04933	3
0.05300	4
0.05667	5
0.06033	5
0.06400	5
0.06767	3
0.07133	2
0.07500	4
0.07867	4
0.08233	5
0.08600	6
0.08967	6
0.09333	4
0.09700	3
0.10067	5
0.10433	7
0.10800	6
0.11167	6
0.11533	7
0.11900	6
0.12267	6
0.12633	5
0.13000	4
0.13367	2
0.13733	2
0.14100	1
0.14467	1
0.14833	3
0.15200	7
0.15567	10
0.15933	11
0.16300	14
0.16667	16
0.17033	15
0.17400	15
0.17767	14
0.18133	14
0.18500	13
0.18867	12
0.19233	11
0.19600	12
0.19967	13
0.20333	11
0.20700	9
0.21067	7
0.21433	7
0.21800	7
0.22167	7
0.22533	10
0.22900	12
0.23267	13
0.23633	14
0.24000	13
0.24367	15
0.24733	16
0.25100	12
0.25467	12
0.25833	13
0.26200	12
0.26567	10
0.26933	10
0.27300	11
0.27667	11
0.28033	11
0.28400	11
0.28767	11
0.29133	10
0.29500	10
0.29867	11
0.30233	10
0.30600	11
0.30967	12
0.31333	11
0.31700	11
0.32067	12
0.32433	13
0.32800	12
0.33167	11
0.33533	10
0.33900	10
0.34267	11
0.34633	12
0.35000	13
0.35367	16
0.35733	18
0.36100	19
0.36467	20
0.36833	19
0.37200	19
0.37567	19
0.37933	19
0.38300	18
0.38667	17
0.39033	16
0.39400	16
0.39767	16
0.40133	16
0.40500	14
0.40867	14
0.41233	13
0.41600	11
0.41967	12
0.42333	17
0.42700	21
0.43067	20
0.43433	18
0.43800	17
0.44167	18
0.44533	18
0.44900	19
0.45267	20
0.45633	19
0.46000	19
0.46367	19
0.46733	19
0.47100	20
0.47467	20
0.47833	17
0.48200	17
0.48567	19
0.48933	21
0.49300	22
0.49667	20
0.50033	20
0.50400	20
0.50767	21
0.51133	21
0.51500	20
0.51867	18
0.52233	15
0.52600	15
0.52967	16
0.53333	17
0.53700	19
0.54067	21
0.54433	20
0.54800	19
0.55167	19
0.55533	19
0.55900	20
0.56267	22
0.56633	24
0.57000	24
0.57367	23
0.57733	23
0.58100	23
0.58467	23
0.58833	24
0.59200	23
0.59567	21
0.59933	22
0.60300	23
0.60667	24
0.61033	23
0.61400	22
0.61767	24
0.62133	24
0.62500	23
0.62867	22
0.63233	21
0.63600	22
0.63967	24
0.64333	27
0.64700	29
0.65067	26
0.65433	24
0.65800	23
0.66167	25
0.66533	27
0.66900	28
0.67267	27
0.67633	27
0.68000	27
0.68367	25
0.68733	25
0.69100	27
0.69467	28
0.69833	27
0.70200	28
0.70567	30
0.70933	30
0.71300	30
0.71667	31
0.72033	33
0.72400	34
0.72767	35
0.73133	33
0.73500	30
0.73867	31
0.74233	34
0.74600	37
0.74967	38
0.75333	36
0.75700	35
0.76067	35
0.76433	33
0.76800	30
0.77167	30
0.77533	31
0.77900	34
0.78267	36
0.78633	35
0.79000	34
0.79367	34
0.79733	34
0.80100	34
0.80467	34
0.80833	34
0.81200	35
0.81567	36
0.81933	35
0.82300	35
0.82667	35
0.83033	38
0.83400	39
0.83767	40
0.84133	38
0.84500	37
0.84867	37
0.85233	36
0.85600	35
0.85967	35
0.86333	34
0.86700	35
0.87067	36
0.87433	36
0.87800	37
0.88167	39
0.88533	39
0.88900	39
0.89267	40
0.89633	39
0.90000	40
0.90367	41
0.90733	40
0.91100	39
0.91467	39
0.91833	37
0.92200	37
0.92567	36
0.92933	37
0.93300	38
0.93667	38
0.94033	37
0.94400	35
0.94767	36
0.95133	36
0.95500	36
0.95867	38
0.96233	39
0.96600	40
0.96967	40
0.97333	39
0.97700	37
0.98067	34
0.98433	32
0.98800	34
0.99167	38
0.99533	40
0.99900	41
1.00267	42
1.00633	43
1.01000	42
1.01367	42
1.01733	43
1.02100	44
1.02467	42
1.02833	42
1.03200	42
1.03567	44
1.03933	45
1.04300	47
1.04667	46
1.05033	45
1.05400	46
1.05767	50
1.06133	52
1.06500	53
1.06867	52
1.07233	51
1.07600	50
1.07967	47
1.08333	45
1.08700	42
1.09067	43
1.09433	47
1.09800	46
1.10167	44
1.10533	44
1.10900	45
1.11267	45
1.11633	46
1.12000	45
1.12367	43
1.12733	43
1.13100	43
1.13467	44
1.13833	44
1.14200	46
1.14567	46
1.14933	45
1.15300	43
1.15667	41
1.16033	39
1.16400	41
1.16767	45
1.17133	46
1.17500	46
1.17867	48
1.18233	49
1.18600	49
1.18967	49
1.19333	49
1.19700	49
1.20067	49
1.20433	48
1.20800	47
1.21167	46
1.21533	46
1.21900	45
1.22267	46
1.22633	47
1.23000	48
1.23367	48
1.23733	48
1.24100	47
1.24467	48
1.24833	51
1.25200	52
1.25567	51
1.25933	48
1.26300	45
1.26667	44
1.27033	44
1.27400	43
1.27767	41
1.28133	42
1.28500	45
1.28867	46
1.29233	46
1.29600	48
1.29967	50
1.30333	50
1.30700	49
1.31067	50
1.31433	49
1.31800	48
1.32167	47
1.32533	48
1.32900	50
1.33267	49
1.33633	49
1.34000	51
1.34367	54
1.34733	55
1.35100	53
1.35467	49
1.35833	47
1.36200	47
1.36567	48
1.36933	48
1.37300	48
1.37667	48
1.38033	48
1.38400	47
1.38767	47
1.39133	48
1.39500	49
1.39867	49
1.40233	50
1.40600	52
1.40967	54
1.41333	55
1.41700	56
1.42067	57
1.42433	59
1.42800	59
1.43167	56
1.43533	55
1.43900	56
1.44267	56
1.44633	56
1.45000	56
1.45367	55
1.45733	55
1.46100	56
1.46467	55
1.46833	55
1.47200	55
1.47567	56
1.47933	57
1.48300	56
1.48667	54
1.49033	53
1.49400	54
1.49767	55
1.50133	55
1.50500	58
1.50867	59
1.51233	61
1.51600	62
1.51967	63
1.52333	64
1.52700	65
1.53067	65
1.53433	64
1.53800	64
1.54167	63
1.54533	62
1.54900	62
1.55267	61
1.55633	61
1.56000	62
1.56367	61
1.56733	59
1.57100	59
1.57467	57
1.57833	53
1.58200	54
1.58567	56
1.58933	57
1.59300	60
1.59667	62
1.60033	60
1.60400	59
1.60767	58
1.61133	58
1.61500	58
1.61867	60
1.62233	63
1.62600	63
1.62967	62
1.63333	60
1.63700	58
1.64067	57
1.64433	58
1.64800	60
1.65167	60
1.65533	58
1.65900	57
1.66267	56
1.66633	57
1.67000	60
1.67367	62
1.67733	62
1.68100	65
1.68467	68
1.68833	69
1.69200	68
1.69567	67
1.69933	67
1.70300	67
1.70667	66
1.71033	64
1.71400	64
1.71767	65
1.72133	66
1.72500	67
1.72867	66
1.73233	65
1.73600	65
1.73967	67
1.74333	70
1.74700	72
1.75067	76
1.75433	76
1.75800	73
1.76167	74
1.76533	74
1.76900	75
1.77267	74
1.77633	72
1.78000	73
1.78367	72
1.78733	73
1.79100	74
1.79467	76
1.79833	77
1.80200	80
1.80567	82
1.80933	83
1.81300	83
1.81667	84
1.82033	85
1.82400	85
1.82767	84
1.83133	83
1.83500	84
1.83867	85
1.84233	83
1.84600	81
1.84967	81
1.85333	79
1.85700	79
1.86067	82
1.86433	83
1.86800	86
1.87167	89
1.87533	90
1.87900	89
1.88267	89
1.88633	88
1.89000	88
1.89367	88
1.89733	89
1.90100	90
1.90467	93
1.90833	94
1.91200	94
1.91567	94
1.91933	94
1.92300	93
1.92667	92
1.93033	94
1.93400	95
1.93767	96
1.94133	96
1.94500	97
1.94867	98
1.95233	99
1.95600	100
1.95967	102
1.96333	103
1.96700	102
1.97067	99
1.97433	97
1.97800	96
1.98167	96
1.98533	97
1.98900	97
1.99267	100
1.99633	103
2.00000	104
2.00367	106
2.00733	107
2.01100	109
2.01467	111
2.01833	110
2.02200	109
2.02567	109
2.02933	105
2.03300	103
2.03667	102
2.04033	104
2.04400	105
2.04767	105
2.05133	107
2.05500	108
2.05867	110
2.06233	115
2.06600	120
2.06967	121
2.07333	120
2.07700	119
2.08067	120
2.08433	122
2.08800	124
2.09167	124
2.09533	125
2.09900	127
2.10267	128
2.10633	130
2.11000	131
2.11367	132
2.11733	131
2.12100	130
2.12467	128
2.12833	128
2.13200	127
2.13567	126
2.13933	126
2.14300	128
2.14667	131
2.15033	135
2.15400	138
2.15767	142
2.16133	144
2.16500	146
2.16867	147
2.17233	149
2.17600	149
2.17967	148
2.18333	151
2.18700	154
2.19067	157
2.19433	159
2.19800	161
2.20167	161
2.20533	163
2.20900	164
2.21267	164
2.21633	164
2.22000	165
2.22367	165
2.22733	166
2.23100	166
2.23467	166
2.23833	166
2.24200	165
2.24567	165
2.24933	166
2.25300	170
2.25667	172
2.26033	174
2.26400	176
2.26767	177
2.27133	180
2.27500	182
2.27867	181
2.28233	183
2.28600	185
2.28967	187
2.29333	189
2.29700	190
2.30067	191
2.30433	194
2.30800	195
2.31167	195
2.31533	196
2.31900	195
2.32267	195
2.32633	197
2.33000	200
2.33367	202
2.33733	202
2.34100	203
2.34467	206
2.34833	209
2.35200	210
2.35567	211
2.35933	213
2.36300	216
2.36667	216
2.37033	219
2.37400	221
2.37767	220
2.38133	220
2.38500	220
2.38867	218
2.39233	217
2.39600	220
2.39967	223
2.40333	225
2.40700	227
2.41067	231
2.41433	232
2.41800	231
2.42167	231
2.42533	232
2.42900	236
2.43267	239
2.43633	242
2.44000	243
2.44367	262
2.44733	314
2.45100	360
2.45467	388
2.45833	402
2.46200	393
2.46567	371
2.46933	347
2.47300	325
2.47667	306
2.48033	293
2.48400	284
2.48767	278
2.49133	271
2.49500	261
2.49867	247
2.50233	232
2.50600	219
2.50967	207
2.51333	201
2.51700	196
2.52067	193
2.52433	192
2.52800	196
2.53167	202
2.53533	209
2.53900	214
2.54267	220
2.54633	228
2.55000	235
2.55367	236
2.55733	233
2.56100	229
2.56467	224
2.56833	220
2.57200	218
2.57567	215
2.57933	210
2.58300	204
2.58667	199
2.59033	197
2.59400	195
2.59767	192
2.60133	188
2.60500	178
2.60867	163
2.61233	147
2.61600	131
2.61967	115
2.62333	100
2.62700	84
2.63067	71
2.63433	61
2.63800	54
2.64167	52
2.64533	56
2.64900	62
2.65267	69
2.65633	77
2.66000	87
2.66367	98
2.66733	109
2.67100	119
2.67467	130
2.67833	141
2.68200	150
2.68567	159
2.68933	167
2.69300	172
2.69667	180
2.70033	187
2.70400	193
2.70767	197
2.71133	199
2.71500	201
2.71867	204
2.72233	207
2.72600	206
2.72967	205
2.73333	204
2.73700	206
2.74067	209
2.74433	212
2.74800	213
2.75167	215
2.75533	218
2.75900	219
2.76267	222
2.76633	223
2.77000	223
2.77367	225
2.77733	225
2.78100	228
2.78467	228
2.78833	229
2.79200	231
2.79567	232
2.79933	232
2.80300	231
2.80667	231
2.81033	233
2.81400	235
2.81767	241
2.82133	255
2.82500	291
2.82867	360
2.83233	482
2.83600	682
2.83967	974
2.84333	1369
2.84700	1858
2.85067	2417
2.85433	3006
2.85800	3582
2.86167	4095
2.86533	4504
2.86900	4782
2.87267	4913
2.87633	4906
2.88000	4777
2.88367	4553
2.88733	4265
2.89100	3937
2.89467	3588
2.89833	3241
2.90200	2910
2.90567	2599
2.90933	2313
2.91300	2055
2.91667	1825
2.92033	1620
2.92400	1440
2.92767	1284
2.93133	1148
2.93500	1026
2.93867	919
2.94233	824
2.94600	746
2.94967	679
2.95333	620
2.95700	569
2.96067	527
2.96433	493
2.96800	462
2.97167	435
2.97533	411
2.97900	391
2.98267	372
2.98633	356
2.99000	345
2.99367	337
2.99733	329
3.00100	322
3.00467	313
3.00833	304
3.01200	298
3.01567	295
3.01933	291
3.02300	288
3.02667	284
3.03033	283
3.03400	282
3.03767	281
3.04133	281
3.04500	281
3.04867	280
3.05233	279
3.05600	276
3.05967	272
3.06333	271
3.06700	271
3.07067	271
3.07433	272
3.07800	270
3.08167	267
3.08533	266
3.08900	265
3.09267	262
3.09633	261
3.10000	262
3.10367	260
3.10733	260
3.11100	260
3.11467	260
3.11833	258
3.12200	255
3.12567	252
3.12933	251
3.13300	252
3.13667	252
3.14033	252
3.14400	252
3.14767	252
3.15133	252
3.15500	252
3.15867	248
3.16233	231
3.16600	190
3.16967	152
3.17333	143
3.17700	166
3.18067	209
3.18433	261
3.18800	316
3.19167	367
3.19533	414
3.19900	461
3.20267	505
3.20633	547
3.21000	586
3.21367	621
3.21733	652
3.22100	677
3.22467	702
3.22833	726
3.23200	746
3.23567	764
3.23933	779
3.24300	790
3.24667	798
3.25033	808
3.25400	815
3.25767	819
3.26133	823
3.26500	825
3.26867	827
3.27233	829
3.27600	832
3.27967	835
3.28333	835
3.28700	834
3.29067	832
3.29433	831
3.29800	829
3.30167	826
3.30533	823
3.30900	820
3.31267	819
3.31633	817
3.32000	817
3.32367	818
3.32733	818
3.33100	820
3.33467	818
3.33833	817
3.34200	818
3.34567	821
3.34933	824
3.35300	825
3.35667	825
3.36033	826
3.36400	827
3.36767	826
3.37133	828
3.37500	827
3.37867	826
3.38233	827
3.38600	826
3.38967	825
3.39333	822
3.39700	821
3.40067	818
3.40433	816
3.40800	816
3.41167	817
3.41533	815
3.41900	811
3.42267	809
3.42633	807
3.43000	805
3.43367	801
3.43733	799
3.44100	798
3.44467	795
3.44833	793
3.45200	790
3.45567	787
3.45933	784
3.46300	781
3.46667	775
3.47033	770
3.47400	767
3.47767	765
3.48133	763
3.48500	762
3.48867	758
3.49233	754
3.49600	752
3.49967	749
3.50333	744
3.50700	742
3.51067	741
3.51433	740
3.51800	736
3.52167	731
3.52533	729
3.52900	729
3.53267	727
3.53633	724
3.54000	722
3.54367	719
3.54733	714
3.55100	712
3.55467	710
3.55833	709
3.56200	708
3.56567	708
3.56933	706
3.57300	704
3.57667	702
3.58033	700
3.58400	701
3.58767	703
3.59133	702
3.59500	700
3.59867	697
3.60233	694
3.60600	691
3.60967	687
3.61333	686
3.61700	684
3.62067	681
3.62433	678
3.62800	678
3.63167	676
3.63533	673
3.63900	669
3.64267	665
3.64633	661
3.65000	659
3.65367	657
3.65733	655
3.66100	652
3.66467	648
3.66833	646
3.67200	645
3.67567	646
3.67933	646
3.68300	645
3.68667	643
3.69033	646
3.69400	645
3.69767	644
3.70133	642
3.70500	639
3.70867	637
3.71233	635
3.71600	634
3.71967	633
3.72333	631
3.72700	631
3.73067	631
3.73433	629
3.73800	626
3.74167	622
3.74533	620
3.74900	620
3.75267	622
3.75633	622
3.76000	621
3.76367	620
3.76733	618
3.77100	616
3.77467	614
3.77833	612
3.78200	611
3.78567	609
3.78933	609
3.79300	608
3.79667	608
3.80033	606
3.80400	605
3.80767	604
3.81133	603
3.81500	601
3.81867	599
3.82233	599
3.82600	600
3.82967	599
3.83333	599
3.83700	599
3.84067	597
3.84433	595
3.84800	593
3.85167	590
3.85533	587
3.85900	587
3.86267	587
3.86633	587
3.87000	588
3.87367	589
3.87733	588
3.88100	587
3.88467	590
3.88833	593
3.89200	592
3.89567	589
3.89933	588
3.90300	591
3.90667	591
3.91033	588
3.91400	586
3.91767	585
3.92133	584
3.92500	584
3.92867	585
3.93233	587
3.93600	588
3.93967	584
3.94333	581
3.94700	577
3.95067	575
3.95433	574
3.95800	573
3.96167	573
3.96533	573
3.96900	573
3.97267	573
3.97633	573
3.98000	571
3.98367	570
3.98733	570
3.99100	570
3.99467	571
3.99833	568

[Status Trace (Column Oven Temperature)]
Interval(msec)	1000
# of Points	240
Start Time(min)	0.012
End Time(min)	3.995
Intensity Units	
Intensity Multiplier	1
R.Time (min)	Intensity
0.01195	35.01
0.02862	35.01
0.04528	35.02
0.06195	35.03
0.07862	35.03
0.09528	35.03
0.11195	35.03
0.12862	35.02
0.14528	35.04
0.16195	35.04
0.17862	35.04
0.19528	35.04
0.21195	35.03
0.22862	35.04
0.24528	35.05
0.26195	35.05
0.27862	35.05
0.29528	35.04
0.31195	35.03
0.32862	35.01
0.34528	35.02
0.36195	35.00
0.37862	35.01
0.39528	35.00
0.41195	35.00
0.42862	35.00
0.44528	35.00
0.46195	35.01
0.47862	35.00
0.49528	35.01
0.51195	35.00
0.52862	35.00
0.54528	35.00
0.56195	35.00
0.57862	35.01
0.59528	35.01
0.61195	35.01
0.62862	35.00
0.64528	34.99
0.66195	34.99
0.67862	34.98
0.69528	34.98
0.71195	34.97
0.72862	34.98
0.74528	34.98
0.76195	34.98
0.77862	34.98
0.79528	34.98
0.81195	34.98
0.82862	34.98
0.84528	34.99
0.86195	34.97
0.87862	34.96
0.89528	34.96
0.91195	34.95
0.92862	34.95
0.94528	34.96
0.96195	34.97
0.97862	34.97
0.99528	34.98
1.01195	34.99
1.02862	35.00
1.04528	35.00
1.06195	35.00
1.07862	35.00
1.09528	35.00
1.11195	34.99
1.12862	34.99
1.14528	34.98
1.16195	34.99
1.17862	34.99
1.19528	34.99
1.21195	34.99
1.22862	34.99
1.24528	35.00
1.26195	35.00
1.27862	35.00
1.29528	34.99
1.31195	34.99
1.32862	35.00
1.34528	35.00
1.36195	35.00
1.37862	35.00
1.39528	35.00
1.41195	34.99
1.42862	34.99
1.44528	34.98
1.46195	34.98
1.47862	34.97
1.49528	34.97
1.51195	34.97
1.52862	34.97
1.54528	34.99
1.56195	34.99
1.57862	34.99
1.59528	35.00
1.61195	35.07
1.62862	35.22
1.64528	35.42
1.66195	35.69
1.67862	36.06
1.69528	36.42
1.71195	36.77
1.72862	37.11
1.74528	37.42
1.76195	37.76
1.77862	38.10
1.79528	38.41
1.81195	38.76
1.82862	39.08
1.84528	39.43
1.86195	39.75
1.87862	40.09
1.89528	40.42
1.91195	40.74
1.92862	41.06
1.94528	41.38
1.96195	41.72
1.97862	42.04
1.99528	42.36
2.01195	42.70
2.02862	43.03
2.04528	43.34
2.06195	43.65
2.07862	44.00
2.09528	44.33
2.11195	44.65
2.12862	44.97
2.14528	45.31
2.16195	45.63
2.17862	45.95
2.19528	46.29
2.21195	46.60
2.22862	46.93
2.24528	47.25
2.26195	47.59
2.27862	47.91
2.29528	48.25
2.31195	48.56
2.32862	48.93
2.34528	49.24
2.36195	49.49
2.37862	49.62
2.39528	49.64
2.41195	49.63
2.42862	49.64
2.44528	49.65
2.46195	49.65
2.47862	49.66
2.49528	49.67
2.51195	49.70
2.52862	49.72
2.54528	49.73
2.56195	49.74
2.57862	49.75
2.59528	49.77
2.61195	49.80
2.62862	49.80
2.64528	49.83
2.66195	49.85
2.67862	49.85
2.69528	49.85
2.71195	49.86
2.72862	49.84
2.74528	49.85
2.76195	49.88
2.77862	49.88
2.79528	49.87
2.81195	49.86
2.82862	49.84
2.84528	49.86
2.86195	49.90
2.87862	49.90
2.89528	49.92
2.91195	49.94
2.92862	49.96
2.94528	49.98
2.96195	49.99
2.97862	49.99
2.99528	49.98
3.01195	49.97
3.02862	49.97
3.04528	49.98
3.06195	49.99
3.07862	50.00
3.09528	50.01
3.11195	50.02
3.12862	50.03
3.14528	50.04
3.16195	50.04
3.17862	50.05
3.19528	50.06
3.21195	50.07
3.22862	50.07
3.24528	50.07
3.26195	50.08
3.27862	50.09
3.29528	50.10
3.31195	50.09
3.32862	50.09
3.34528	50.09
3.36195	50.10
3.37862	50.10
3.39528	50.09
3.41195	50.09
3.42862	50.09
3.44528	50.09
3.46195	50.09
3.47862	50.09
3.49528	50.08
3.51195	50.08
3.52862	50.09
3.54528	50.09
3.56195	50.10
3.57862	50.10
3.59528	50.10
3.61195	50.09
3.62862	50.08
3.64528	50.08
3.66195	50.07
3.67862	50.07
3.69528	50.08
3.71195	50.07
3.72862	50.07
3.74528	50.06
3.76195	50.07
3.77862	50.05
3.79528	50.04
3.81195	50.04
3.82862	50.05
3.84528	50.05
3.86195	50.05
3.87862	50.06
3.89528	50.06
3.91195	50.05
3.92862	50.05
3.94528	50.05
3.96195	50.05
3.97862	50.05
3.99528	50.04

[Status Trace (Injection Unit Temperature)]
Interval(msec)	1000
# of Points	240
Start Time(min)	0.012
End Time(min)	3.995
Intensity Units	
Intensity Multiplier	1
R.Time (min)	Intensity
0.01195	99.98
0.02862	99.98
0.04528	99.98
0.06195	99.98
0.07862	99.98
0.09528	99.98
0.11195	99.98
0.12862	99.98
0.14528	99.98
0.16195	99.98
0.17862	99.98
0.19528	99.98
0.21195	99.98
0.22862	99.98
0.24528	99.98
0.26195	99.98
0.27862	99.98
0.29528	99.98
0.31195	99.98
0.32862	99.98
0.34528	99.98
0.36195	99.98
0.37862	99.98
0.39528	99.98
0.41195	99.98
0.42862	99.98
0.44528	99.98
0.46195	99.98
0.47862	99.98
0.49528	99.98
0.51195	99.98
0.52862	99.98
0.54528	99.97
0.56195	99.98
0.57862	99.98
0.59528	99.98
0.61195	99.97
0.62862	99.98
0.64528	99.98
0.66195	99.98
0.67862	99.98
0.69528	99.97
0.71195	99.98
0.72862	99.98
0.74528	99.98
0.76195	99.98
0.77862	99.99
0.79528	99.98
0.81195	99.98
0.82862	99.98
0.84528	99.98
0.86195	99.98
0.87862	99.98
0.89528	99.98
0.91195	99.98
0.92862	99.98
0.94528	99.98
0.96195	99.99
0.97862	99.98
0.99528	99.99
1.01195	99.98
1.02862	99.98
1.04528	99.98
1.06195	99.98
1.07862	99.99
1.09528	99.98
1.11195	99.98
1.12862	99.98
1.14528	99.98
1.16195	99.98
1.17862	99.98
1.19528	99.98
1.21195	99.98
1.22862	99.98
1.24528	99.98
1.26195	99.98
1.27862	99.98
1.29528	99.98
1.31195	99.98
1.32862	99.98
1.34528	99.98
1.36195	99.98
1.37862	99.98
1.39528	99.98
1.41195	99.98
1.42862	99.98
1.44528	99.98
1.46195	99.98
1.47862	99.97
1.49528	99.98
1.51195	99.98
1.52862	99.98
1.54528	99.98
1.56195	99.97
1.57862	99.97
1.59528	99.98
1.61195	99.98
1.62862	99.98
1.64528	99.98
1.66195	99.98
1.67862	99.98
1.69528	99.98
1.71195	99.97
1.72862	99.98
1.74528	99.97
1.76195	99.98
1.77862	99.98
1.79528	99.97
1.81195	99.97
1.82862	99.97
1.84528	99.97
1.86195	99.97
1.87862	99.97
1.89528	99.97
1.91195	99.98
1.92862	99.97
1.94528	99.97
1.96195	99.97
1.97862	99.97
1.99528	99.97
2.01195	99.97
2.02862	99.97
2.04528	99.97
2.06195	99.97
2.07862	99.97
2.09528	99.97
2.11195	99.97
2.12862	99.97
2.14528	99.97
2.16195	99.97
2.17862	99.97
2.19528	99.97
2.21195	99.97
2.22862	99.97
2.24528	99.97
2.26195	99.97
2.27862	99.97
2.29528	99.97
2.31195	99.97
2.32862	99.97
2.34528	99.97
2.36195	99.97
2.37862	99.97
2.39528	99.97
2.41195	99.97
2.42862	99.96
2.44528	99.97
2.46195	99.97
2.47862	99.97
2.49528	99.96
2.51195	99.97
2.52862	99.97
2.54528	99.97
2.56195	99.97
2.57862	99.97
2.59528	99.97
2.61195	99.97
2.62862	99.97
2.64528	99.98
2.66195	99.98
2.67862	99.98
2.69528	99.98
2.71195	99.98
2.72862	99.98
2.74528	99.99
2.76195	99.99
2.77862	99.99
2.79528	99.99
2.81195	99.99
2.82862	99.99
2.84528	100.00
2.86195	100.00
2.87862	100.00
2.89528	100.00
2.91195	100.00
2.92862	100.00
2.94528	100.00
2.96195	100.00
2.97862	100.01
2.99528	100.00
3.01195	100.00
3.02862	100.01
3.04528	100.01
3.06195	100.01
3.07862	100.01
3.09528	100.01
3.11195	100.01
3.12862	100.02
3.14528	100.02
3.16195	100.02
3.17862	100.02
3.19528	100.02
3.21195	100.02
3.22862	100.02
3.24528	100.02
3.26195	100.02
3.27862	100.03
3.29528	100.03
3.31195	100.03
3.32862	100.03
3.34528	100.03
3.36195	100.03
3.37862	100.03
3.39528	100.03
3.41195	100.03
3.42862	100.03
3.44528	100.04
3.46195	100.04
3.47862	100.04
3.49528	100.03
3.51195	100.04
3.52862	100.04
3.54528	100.04
3.56195	100.04
3.57862	100.04
3.59528	100.04
3.61195	100.04
3.62862	100.04
3.64528	100.04
3.66195	100.04
3.67862	100.04
3.69528	100.04
3.71195	100.04
3.72862	100.04
3.74528	100.04
3.76195	100.04
3.77862	100.04
3.79528	100.04
3.81195	100.04
3.82862	100.04
3.84528	100.05
3.86195	100.05
3.87862	100.05
3.89528	100.04
3.91195	100.05
3.92862	100.05
3.94528	100.05
3.96195	100.05
3.97862	100.05
3.99528	100.05

[Status Trace (Carrier Gas Pressure)]
Interval(msec)	1000
# of Points	240
Start Time(min)	0.012
End Time(min)	3.995
Intensity Units	
Intensity Multiplier	1
R.Time (min)	Intensity
0.01195	57.99
0.02862	54.95
0.04528	57.63
0.06195	59.69
0.07862	58.87
0.09528	58.00
0.11195	57.99
0.12862	58.01
0.14528	58.01
0.16195	58.00
0.17862	58.00
0.19528	58.00
0.21195	58.00
0.22862	58.00
0.24528	58.00
0.26195	58.00
0.27862	58.00
0.29528	58.00
0.31195	58.00
0.32862	58.00
0.34528	58.00
0.36195	58.00
0.37862	58.00
0.39528	58.00
0.41195	58.00
0.42862	58.00
0.44528	58.00
0.46195	58.00
0.47862	58.00
0.49528	58.00
0.51195	58.00
0.52862	58.00
0.54528	58.00
0.56195	58.00
0.57862	58.00
0.59528	58.00
0.61195	58.00
0.62862	58.00
0.64528	58.00
0.66195	58.00
0.67862	58.00
0.69528	58.00
0.71195	58.00
0.72862	58.00
0.74528	58.00
0.76195	58.00
0.77862	58.00
0.79528	58.00
0.81195	58.00
0.82862	58.00
0.84528	58.00
0.86195	58.00
0.87862	58.00
0.89528	58.00
0.91195	58.00
0.92862	58.00
0.94528	58.00
0.96195	58.00
0.97862	58.00
0.99528	58.00
1.01195	58.00
1.02862	58.00
1.04528	58.00
1.06195	58.00
1.07862	58.00
1.09528	58.00
1.11195	58.00
1.12862	58.00
1.14528	58.00
1.16195	58.00
1.17862	58.00
1.19528	58.00
1.21195	58.00
1.22862	58.00
1.24528	58.00
1.26195	58.00
1.27862	58.00
1.29528	58.00
1.31195	58.00
1.32862	58.00
1.34528	58.00
1.36195	58.00
1.37862	58.00
1.39528	58.00
1.41195	58.00
1.42862	58.00
1.44528	58.00
1.46195	58.00
1.47862	58.00
1.49528	58.00
1.51195	58.00
1.52862	58.00
1.54528	58.00
1.56195	58.00
1.57862	58.00
1.59528	58.00
1.61195	58.00
1.62862	58.00
1.64528	58.00
1.66195	58.01
1.67862	58.01
1.69528	58.00
1.71195	58.00
1.72862	58.00
1.74528	58.00
1.76195	58.00
1.77862	58.00
1.79528	58.00
1.81195	58.00
1.82862	58.00
1.84528	58.00
1.86195	58.00
1.87862	58.00
1.89528	58.00
1.91195	58.00
1.92862	58.00
1.94528	58.00
1.96195	58.00
1.97862	58.00
1.99528	58.00
2.01195	58.00
2.02862	58.00
2.04528	58.00
2.06195	58.00
2.07862	58.00
2.09528	58.00
2.11195	58.00
2.12862	58.00
2.14528	58.00
2.16195	58.00
2.17862	58.00
2.19528	58.00
2.21195	58.00
2.22862	58.00
2.24528	58.00
2.26195	58.00
2.27862	58.00
2.29528	58.00
2.31195	58.00
2.32862	58.00
2.34528	58.00
2.36195	58.00
2.37862	57.99
2.39528	57.99
2.41195	58.00
2.42862	58.00
2.44528	58.00
2.46195	58.00
2.47862	58.00
2.49528	58.00
2.51195	57.99
2.52862	57.98
2.54528	58.00
2.56195	58.00
2.57862	58.00
2.59528	58.00
2.61195	58.00
2.62862	58.00
2.64528	58.00
2.66195	58.00
2.67862	58.00
2.69528	58.00
2.71195	58.00
2.72862	58.00
2.74528	58.00
2.76195	58.00
2.77862	58.00
2.79528	58.00
2.81195	58.00
2.82862	58.00
2.84528	58.00
2.86195	58.00
2.87862	58.00
2.89528	58.00
2.91195	58.00
2.92862	58.00
2.94528	58.00
2.96195	58.00
2.97862	58.00
2.99528	58.00
3.01195	58.00
3.02862	58.00
3.04528	58.00
3.06195	58.00
3.07862	58.00
3.09528	58.00
3.11195	58.00
3.12862	58.00
3.14528	58.00
3.16195	58.00
3.17862	58.00
3.19528	58.00
3.21195	58.00
3.22862	58.00
3.24528	58.00
3.26195	58.00
3.27862	58.00
3.29528	58.00
3.31195	58.00
3.32862	58.00
3.34528	58.00
3.36195	58.00
3.37862	58.00
3.39528	58.00
3.41195	58.00
3.42862	58.00
3.44528	58.00
3.46195	58.00
3.47862	58.00
3.49528	58.00
3.51195	58.00
3.52862	58.00
3.54528	58.00
3.56195	58.00
3.57862	58.00
3.59528	58.00
3.61195	58.00
3.62862	58.00
3.64528	58.00
3.66195	58.00
3.67862	58.00
3.69528	58.00
3.71195	58.00
3.72862	58.00
3.74528	58.00
3.76195	58.00
3.77862	58.00
3.79528	58.00
3.81195	58.00
3.82862	58.00
3.84528	58.00
3.86195	58.00
3.87862	58.00
3.89528	58.00
3.91195	58.00
3.92862	58.00
3.94528	58.00
3.96195	58.00
3.97862	58.00
3.99528	58.00

[Status Trace (Carrier Gas Flow)]
Interval(msec)	1000
# of Points	240
Start Time(min)	0.012
End Time(min)	3.995
Intensity Units	
Intensity Multiplier	1
R.Time (min)	Intensity
0.01195	34.54
0.02862	34.54
0.04528	34.55
0.06195	34.54
0.07862	34.50
0.09528	34.51
0.11195	34.52
0.12862	34.52
0.14528	34.52
0.16195	34.52
0.17862	34.52
0.19528	34.52
0.21195	34.52
0.22862	34.52
0.24528	34.52
0.26195	34.52
0.27862	34.52
0.29528	34.52
0.31195	34.52
0.32862	34.52
0.34528	34.52
0.36195	34.52
0.37862	34.52
0.39528	34.52
0.41195	34.52
0.42862	34.52
0.44528	34.52
0.46195	34.52
0.47862	34.52
0.49528	34.52
0.51195	34.52
0.52862	34.52
0.54528	34.52
0.56195	34.52
0.57862	34.52
0.59528	34.52
0.61195	34.52
0.62862	34.52
0.64528	34.52
0.66195	34.52
0.67862	34.52
0.69528	34.52
0.71195	34.52
0.72862	34.52
0.74528	34.52
0.76195	34.52
0.77862	34.52
0.79528	34.52
0.81195	34.52
0.82862	34.52
0.84528	34.52
0.86195	34.52
0.87862	34.52
0.89528	34.52
0.91195	34.52
0.92862	34.52
0.94528	34.52
0.96195	34.52
0.97862	34.52
0.99528	34.52
1.01195	34.52
1.02862	34.52
1.04528	34.52
1.06195	34.52
1.07862	34.52
1.09528	34.52
1.11195	34.52
1.12862	34.52
1.14528	34.52
1.16195	34.52
1.17862	34.52
1.19528	34.52
1.21195	34.52
1.22862	34.52
1.24528	34.52
1.26195	34.52
1.27862	34.52
1.29528	34.52
1.31195	34.52
1.32862	34.52
1.34528	34.52
1.36195	34.52
1.37862	34.52
1.39528	34.51
1.41195	34.53
1.42862	34.53
1.44528	34.51
1.46195	34.52
1.47862	34.53
1.49528	34.52
1.51195	34.51
1.52862	34.51
1.54528	34.53
1.56195	34.52
1.57862	34.52
1.59528	34.52
1.61195	34.52
1.62862	34.52
1.64528	34.52
1.66195	34.52
1.67862	34.52
1.69528	34.52
1.71195	34.52
1.72862	34.52
1.74528	34.52
1.76195	34.52
1.77862	34.52
1.79528	34.52
1.81195	34.52
1.82862	34.52
1.84528	34.52
1.86195	34.52
1.87862	34.52
1.89528	34.52
1.91195	34.52
1.92862	34.52
1.94528	34.52
1.96195	34.52
1.97862	34.52
1.99528	34.52
2.01195	34.52
2.02862	34.52
2.04528	34.52
2.06195	34.52
2.07862	34.52
2.09528	34.52
2.11195	34.51
2.12862	34.52
2.14528	34.52
2.16195	34.52
2.17862	34.52
2.19528	34.52
2.21195	34.52
2.22862	34.52
2.24528	34.52
2.26195	34.52
2.27862	34.52
2.29528	34.52
2.31195	34.52
2.32862	34.52
2.34528	34.52
2.36195	34.52
2.37862	34.52
2.39528	34.52
2.41195	34.52
2.42862	34.52
2.44528	34.52
2.46195	34.52
2.47862	34.52
2.49528	34.52
2.51195	34.52
2.52862	34.52
2.54528	34.52
2.56195	34.52
2.57862	34.52
2.59528	34.52
2.61195	34.52
2.62862	34.52
2.64528	34.52
2.66195	34.52
2.67862	34.52
2.69528	34.52
2.71195	34.52
2.72862	34.52
2.74528	34.52
2.76195	34.52
2.77862	34.52
2.79528	34.52
2.81195	34.52
2.82862	34.52
2.84528	34.52
2.86195	34.52
2.87862	34.52
2.89528	34.52
2.91195	34.52
2.92862	34.52
2.94528	34.52
2.96195	34.52
2.97862	34.52
2.99528	34.52
3.01195	34.52
3.02862	34.52
3.04528	34.52
3.06195	34.52
3.07862	34.51
3.09528	34.52
3.11195	34.52
3.12862	34.52
3.14528	34.52
3.16195	34.52
3.17862	34.52
3.19528	34.52
3.21195	34.52
3.22862	34.52
3.24528	34.52
3.26195	34.52
3.27862	34.52
3.29528	34.52
3.31195	34.52
3.32862	34.52
3.34528	34.52
3.36195	34.51
3.37862	34.51
3.39528	34.52
3.41195	34.52
3.42862	34.52
3.44528	34.52
3.46195	34.52
3.47862	34.52
3.49528	34.52
3.51195	34.51
3.52862	34.52
3.54528	34.52
3.56195	34.52
3.57862	34.52
3.59528	34.52
3.61195	34.52
3.62862	34.52
3.64528	34.52
3.66195	34.52
3.67862	34.51
3.69528	34.52
3.71195	34.52
3.72862	34.52
3.74528	34.52
3.76195	34.52
3.77862	34.52
3.79528	34.52
3.81195	34.52
3.82862	34.52
3.84528	34.52
3.86195	34.52
3.87862	34.52
3.89528	34.52
3.91195	34.52
3.92862	34.52
3.94528	34.52
3.96195	34.52
3.97862	34.52
3.99528	34.52

[Status Trace (Column Flow)]
Interval(msec)	1000
# of Points	240
Start Time(min)	0.012
End Time(min)	3.995
Intensity Units	
Intensity Multiplier	1
R.Time (min)	Intensity
0.01195	5.57
0.02862	5.22
0.04528	5.53
0.06195	5.77
0.07862	5.67
0.09528	5.57
0.11195	5.57
0.12862	5.57
0.14528	5.57
0.16195	5.57
0.17862	5.57
0.19528	5.57
0.21195	5.57
0.22862	5.57
0.24528	5.57
0.26195	5.57
0.27862	5.57
0.29528	5.57
0.31195	5.57
0.32862	5.57
0.34528	5.57
0.36195	5.57
0.37862	5.57
0.39528	5.57
0.41195	5.57
0.42862	5.57
0.44528	5.57
0.46195	5.57
0.47862	5.57
0.49528	5.57
0.51195	5.57
0.52862	5.57
0.54528	5.57
0.56195	5.57
0.57862	5.57
0.59528	5.57
0.61195	5.57
0.62862	5.57
0.64528	5.57
0.66195	5.57
0.67862	5.57
0.69528	5.57
0.71195	5.57
0.72862	5.57
0.74528	5.57
0.76195	5.57
0.77862	5.57
0.79528	5.57
0.81195	5.57
0.82862	5.57
0.84528	5.57
0.86195	5.57
0.87862	5.57
0.89528	5.57
0.91195	5.57
0.92862	5.57
0.94528	5.57
0.96195	5.57
0.97862	5.57
0.99528	5.57
1.01195	5.57
1.02862	5.57
1.04528	5.57
1.06195	5.57
1.07862	5.57
1.09528	5.57
1.11195	5.57
1.12862	5.57
1.14528	5.57
1.16195	5.57
1.17862	5.57
1.19528	5.57
1.21195	5.57
1.22862	5.57
1.24528	5.57
1.26195	5.57
1.27862	5.57
1.29528	5.57
1.31195	5.57
1.32862	5.57
1.34528	5.57
1.36195	5.57
1.37862	5.57
1.39528	5.57
1.41195	5.57
1.42862	5.57
1.44528	5.57
1.46195	5.57
1.47862	5.57
1.49528	5.57
1.51195	5.57
1.52862	5.57
1.54528	5.57
1.56195	5.57
1.57862	5.57
1.59528	5.57
1.61195	5.57
1.62862	5.57
1.64528	5.56
1.66195	5.55
1.67862	5.54
1.69528	5.53
1.71195	5.52
1.72862	5.51
1.74528	5.50
1.76195	5.49
1.77862	5.48
1.79528	5.47
1.81195	5.46
1.82862	5.45
1.84528	5.44
1.86195	5.43
1.87862	5.41
1.89528	5.41
1.91195	5.39
1.92862	5.39
1.94528	5.38
1.96195	5.37
1.97862	5.36
1.99528	5.35
2.01195	5.34
2.02862	5.33
2.04528	5.32
2.06195	5.31
2.07862	5.30
2.09528	5.29
2.11195	5.28
2.12862	5.27
2.14528	5.26
2.16195	5.25
2.17862	5.24
2.19528	5.23
2.21195	5.22
2.22862	5.21
2.24528	5.20
2.26195	5.19
2.27862	5.18
2.29528	5.18
2.31195	5.17
2.32862	5.16
2.34528	5.15
2.36195	5.14
2.37862	5.14
2.39528	5.13
2.41195	5.14
2.42862	5.14
2.44528	5.14
2.46195	5.14
2.47862	5.13
2.49528	5.13
2.51195	5.13
2.52862	5.13
2.54528	5.13
2.56195	5.13
2.57862	5.13
2.59528	5.13
2.61195	5.13
2.62862	5.13
2.64528	5.13
2.66195	5.13
2.67862	5.13
2.69528	5.13
2.71195	5.13
2.72862	5.13
2.74528	5.13
2.76195	5.13
2.77862	5.13
2.79528	5.13
2.81195	5.13
2.82862	5.13
2.84528	5.13
2.86195	5.13
2.87862	5.13
2.89528	5.13
2.91195	5.13
2.92862	5.13
2.94528	5.13
2.96195	5.13
2.97862	5.13
2.99528	5.13
3.01195	5.13
3.02862	5.13
3.04528	5.13
3.06195	5.13
3.07862	5.13
3.09528	5.13
3.11195	5.13
3.12862	5.12
3.14528	5.12
3.16195	5.12
3.17862	5.12
3.19528	5.12
3.21195	5.12
3.22862	5.12
3.24528	5.12
3.26195	5.12
3.27862	5.12
3.29528	5.12
3.31195	5.12
3.32862	5.12
3.34528	5.12
3.36195	5.12
3.37862	5.12
3.39528	5.12
3.41195	5.12
3.42862	5.12
3.44528	5.12
3.46195	5.12
3.47862	5.12
3.49528	5.12
3.51195	5.12
3.52862	5.12
3.54528	5.12
3.56195	5.12
3.57862	5.12
3.59528	5.12
3.61195	5.12
3.62862	5.12
3.64528	5.12
3.66195	5.12
3.67862	5.12
3.69528	5.12
3.71195	5.12
3.72862	5.12
3.74528	5.12
3.76195	5.12
3.77862	5.12
3.79528	5.12
3.81195	5.12
3.82862	5.12
3.84528	5.12
3.86195	5.12
3.87862	5.12
3.89528	5.12
3.91195	5.12
3.92862	5.12
3.94528	5.12
3.96195	5.12
3.97862	5.12
3.99528	5.12

[Status Trace (Linear Velocity)]
Interval(msec)	1000
# of Points	240
Start Time(min)	0.012
End Time(min)	3.995
Intensity Units	
Intensity Multiplier	1
R.Time (min)	Intensity
0.01195	39.02
0.02862	37.03
0.04528	38.79
0.06195	40.13
0.07862	39.59
0.09528	39.02
0.11195	39.02
0.12862	39.03
0.14528	39.03
0.16195	39.03
0.17862	39.03
0.19528	39.03
0.21195	39.03
0.22862	39.03
0.24528	39.03
0.26195	39.02
0.27862	39.02
0.29528	39.03
0.31195	39.03
0.32862	39.03
0.34528	39.03
0.36195	39.03
0.37862	39.03
0.39528	39.03
0.41195	39.03
0.42862	39.03
0.44528	39.03
0.46195	39.03
0.47862	39.03
0.49528	39.03
0.51195	39.03
0.52862	39.03
0.54528	39.03
0.56195	39.03
0.57862	39.03
0.59528	39.03
0.61195	39.03
0.62862	39.03
0.64528	39.03
0.66195	39.03
0.67862	39.03
0.69528	39.03
0.71195	39.03
0.72862	39.03
0.74528	39.03
0.76195	39.03
0.77862	39.03
0.79528	39.03
0.81195	39.03
0.82862	39.03
0.84528	39.03
0.86195	39.03
0.87862	39.03
0.89528	39.03
0.91195	39.03
0.92862	39.03
0.94528	39.03
0.96195	39.03
0.97862	39.03
0.99528	39.03
1.01195	39.03
1.02862	39.03
1.04528	39.03
1.06195	39.03
1.07862	39.03
1.09528	39.03
1.11195	39.03
1.12862	39.03
1.14528	39.03
1.16195	39.03
1.17862	39.03
1.19528	39.03
1.21195	39.03
1.22862	39.03
1.24528	39.03
1.26195	39.03
1.27862	39.03
1.29528	39.03
1.31195	39.03
1.32862	39.03
1.34528	39.03
1.36195	39.03
1.37862	39.03
1.39528	39.03
1.41195	39.03
1.42862	39.03
1.44528	39.03
1.46195	39.03
1.47862	39.03
1.49528	39.03
1.51195	39.03
1.52862	39.03
1.54528	39.03
1.56195	39.03
1.57862	39.03
1.59528	39.03
1.61195	39.02
1.62862	39.01
1.64528	38.99
1.66195	38.97
1.67862	38.93
1.69528	38.90
1.71195	38.86
1.72862	38.83
1.74528	38.80
1.76195	38.77
1.77862	38.73
1.79528	38.71
1.81195	38.67
1.82862	38.64
1.84528	38.61
1.86195	38.58
1.87862	38.55
1.89528	38.52
1.91195	38.48
1.92862	38.45
1.94528	38.43
1.96195	38.39
1.97862	38.36
1.99528	38.34
2.01195	38.30
2.02862	38.27
2.04528	38.25
2.06195	38.22
2.07862	38.18
2.09528	38.16
2.11195	38.12
2.12862	38.10
2.14528	38.07
2.16195	38.04
2.17862	38.01
2.19528	37.98
2.21195	37.95
2.22862	37.92
2.24528	37.89
2.26195	37.86
2.27862	37.83
2.29528	37.80
2.31195	37.77
2.32862	37.74
2.34528	37.71
2.36195	37.69
2.37862	37.67
2.39528	37.67
2.41195	37.67
2.42862	37.68
2.44528	37.67
2.46195	37.67
2.47862	37.67
2.49528	37.67
2.51195	37.67
2.52862	37.66
2.54528	37.67
2.56195	37.67
2.57862	37.67
2.59528	37.67
2.61195	37.66
2.62862	37.66
2.64528	37.66
2.66195	37.66
2.67862	37.66
2.69528	37.66
2.71195	37.66
2.72862	37.66
2.74528	37.66
2.76195	37.65
2.77862	37.65
2.79528	37.66
2.81195	37.66
2.82862	37.66
2.84528	37.66
2.86195	37.65
2.87862	37.65
2.89528	37.65
2.91195	37.65
2.92862	37.65
2.94528	37.65
2.96195	37.64
2.97862	37.64
2.99528	37.65
3.01195	37.65
3.02862	37.65
3.04528	37.65
3.06195	37.65
3.07862	37.64
3.09528	37.64
3.11195	37.64
3.12862	37.64
3.14528	37.64
3.16195	37.64
3.17862	37.64
3.19528	37.64
3.21195	37.64
3.22862	37.64
3.24528	37.64
3.26195	37.64
3.27862	37.64
3.29528	37.64
3.31195	37.64
3.32862	37.64
3.34528	37.64
3.36195	37.64
3.37862	37.64
3.39528	37.64
3.41195	37.64
3.42862	37.64
3.44528	37.64
3.46195	37.64
3.47862	37.64
3.49528	37.64
3.51195	37.64
3.52862	37.64
3.54528	37.64
3.56195	37.64
3.57862	37.64
3.59528	37.64
3.61195	37.64
3.62862	37.64
3.64528	37.64
3.66195	37.64
3.67862	37.64
3.69528	37.64
3.71195	37.64
3.72862	37.64
3.74528	37.64
3.76195	37.64
3.77862	37.64
3.79528	37.64
3.81195	37.64
3.82862	37.64
3.84528	37.64
3.86195	37.64
3.87862	37.64
3.89528	37.64
3.91195	37.64
3.92862	37.64
3.94528	37.64
3.96195	37.64
3.97862	37.64
3.99528	37.64

