[Header]
Application Name	LabSolutions
Version	5.110
Data File Name	C:\Users\User\Desktop\GC Analyses\Jack\Nachusa Grasslands Sampling\T0 Timepoint July 12th\T0_07122022_020.gcd
Output Date	3/14/2023
Output Time	3:40:34 PM

[File Information]
Type	Data File
Generated	3/7/2023 3:54:34 PM
Generated by	System Administrator
Modified	3/7/2023 4:01:22 PM
Modified by	System Administrator

[Sample Information]
Operator Name	System Administrator
Acquired	3/7/2023 3:57:21 PM
Sample Type	0:Unknown
Level	0
Sample Name	020
Sample ID	020
ISTD Amount1	1
ISTD Amount2	1
ISTD Amount3	1
ISTD Amount4	1
ISTD Amount5	1
ISTD Amount6	1
ISTD Amount7	1
ISTD Amount8	1
ISTD Amount9	1
ISTD Amount10	1
ISTD Amount11	1
ISTD Amount12	1
ISTD Amount13	1
ISTD Amount14	1
ISTD Amount15	1
ISTD Amount16	1
ISTD Amount17	1
ISTD Amount18	1
ISTD Amount19	1
ISTD Amount20	1
ISTD Amount21	1
ISTD Amount22	1
ISTD Amount23	1
ISTD Amount24	1
ISTD Amount25	1
ISTD Amount26	1
ISTD Amount27	1
ISTD Amount28	1
ISTD Amount29	1
ISTD Amount30	1
ISTD Amount31	1
ISTD Amount32	1
Sample Amount	1
Dilution Factor	1
Vial#	19
Injection Volume	1
Injection Count	1
Bar Code	

[Original Files]
Data File	C:\Users\User\Desktop\GC Analyses\Jack\Nachusa Grasslands Sampling\T0 Timepoint July 12th\T0_07122022_020.gcd
Method File	C:\LabSolutions\Data\GHG_4min_2022\ghg3_togas_w_acet_4 min_new_int.gcm
Batch File	C:\LabSolutions\Data\AutoSamplerTesting\T0_07122022.gcb
Report Format File	c:\LabSolutions\System\DEFAULT.lsr

[File Description]


[Configuration]
Instrument Name	C0B7VH3-Instrument1
Instrument #	1
Line #	1
# of Detectors	3
Detector ID	DET#1	DET#2	DET#3
Detector Name	FID	PTCD	ECD
# of Channels	1	1	1

[Peak Table(Ch1)]
# of Peaks	3
Peak#	R.Time	I.Time	F.Time	Area	Height	A/H	Conc.	Mark	ID#	Name	k'	Plate #	Plate Ht.	Tailing	Resolution	Sep.Factor	Area Ratio	Height Ratio	Conc. %	Norm Conc.
1	1.476	1.439	1.538	28311	13406	2.112	199.876	   	1	CO	0.000	9399	15.958	1.318	0.000	0.000	0	0	34.297	34.297
2	1.567	1.538	1.626	4752	2349	2.023	91.887	 V 	2	CH4	0.062	10709	14.007	0.000	1.509	0.000	0	0	15.767	15.767
3	1.996	1.952	2.436	1159566	547832	2.117	291.020	   	3	CO2	0.353	17278	8.682	1.305	7.071	5.680	0	0	49.936	49.936

[Peak Table(Ch2)]
# of Peaks	0

[Peak Table(Ch3)]
# of Peaks	5
Peak#	R.Time	I.Time	F.Time	Area	Height	A/H	Conc.	Mark	ID#	Name	k'	Plate #	Plate Ht.	Tailing	Resolution	Sep.Factor	Area Ratio	Height Ratio	Conc. %	Norm Conc.
1	2.462	2.187	2.528	1998	363	5.504	0.000	   			0.000	4920	30.488	0.000	0.000	0.000	0	0	0.000	0.000
2	2.554	2.528	2.638	1033	230	4.489	0.000	 V 			0.037	1915	78.348	0.000	0.490	0.000	0	0	0.000	0.000
3	2.755	2.649	2.799	840	116	7.214	0.021	   	1	N2O	0.119	1317	113.897	0.000	0.751	3.200	0	0	4.224	4.224
4	2.873	2.799	3.089	19043	4826	3.946	0.486	 V 	1	N2O	0.167	13177	11.383	1.645	0.581	1.400	0	0	95.776	95.776
5	3.225	3.093	3.995	15737	596	26.390	0.000	   	2	SF6	0.310	258	580.885	3.347	0.780	1.857	0	0	0.000	0.000

[Compound Results(Ch1)]
# of IDs	6
ID#	Name	R.Time	Area	Height	Conc.	Curve	3rd	2nd	1st	Constant	Area Ratio	Height Ratio	Conc. %	Norm Conc.
1	CO	1.476	28311	13406	199.876	Linear	0.000000e+00	0.000000e+00	1.416423e+002	0.000000e+00	0	0	34.297	34.297
2	CH4	1.567	4752	2349	91.887	Linear	0.000000e+00	0.000000e+00	5.171738e+001	0.000000e+00	0	0	15.767	15.767
3	CO2	1.996	1159566	547832	291.020	Linear	0.000000e+00	0.000000e+00	3.984494e+003	0.000000e+00	0	0	49.936	49.936
4	Ethylene	0.000	0	0	0.000	Linear	0.000000e+00	0.000000e+00	0.000000e+00	0.000000e+00	0	0	0.000	0.000
5	Acetylene	0.000	0	0	0.000	Linear	0.000000e+00	0.000000e+00	0.000000e+00	0.000000e+00	0	0	0.000	0.000
6	Ethane	0.000	0	0	0.000	Linear	0.000000e+00	0.000000e+00	0.000000e+00	0.000000e+00	0	0	0.000	0.000

[Compound Results(Ch2)]
# of IDs	5
ID#	Name	R.Time	Area	Height	Conc.	Curve	3rd	2nd	1st	Constant	Area Ratio	Height Ratio	Conc. %	Norm Conc.
1	Hydrogen	0.000	0	0	0.000	Linear	0.000000e+00	0.000000e+00	0.000000e+00	0.000000e+00	0	0	0.000	0.000
2	Oxygen	0.000	0	0	0.000	Linear	0.000000e+00	0.000000e+00	0.000000e+00	0.000000e+00	0	0	0.000	0.000
3	Nitrogen	0.000	0	0	0.000	Linear	0.000000e+00	0.000000e+00	0.000000e+00	0.000000e+00	0	0	0.000	0.000
4	Methane	0.000	0	0	0.000	Linear	0.000000e+00	0.000000e+00	0.000000e+00	0.000000e+00	0	0	0.000	0.000
5	Carbon Monoxide	0.000	0	0	0.000	Linear	0.000000e+00	0.000000e+00	0.000000e+00	0.000000e+00	0	0	0.000	0.000

[Compound Results(Ch3)]
# of IDs	2
ID#	Name	R.Time	Area	Height	Conc.	Curve	3rd	2nd	1st	Constant	Area Ratio	Height Ratio	Conc. %	Norm Conc.
1	N2O	2.873	19883	4942	0.508	Linear	0.000000e+00	0.000000e+00	3.915173e+004	0.000000e+00	0	0	100.000	100.000
2	SF6	3.225	15737	596	0.000	Linear	0.000000e+00	0.000000e+00	0.000000e+00	0.000000e+00	0	0	0.000	0.000

[Group Results(Ch1)]
# of Groups	0

[Group Results(Ch2)]
# of Groups	0

[Group Results(Ch3)]
# of Groups	0

[Chromatogram (Ch1)]
Interval(msec)	220
# of Points	1091
Start Time(min)	0.002
End Time(min)	3.998
R.Time (min)	Intensity
0.00167	-19
0.00533	-18
0.00900	-18
0.01267	-17
0.01633	-15
0.02000	-11
0.02367	-2
0.02733	7
0.03100	11
0.03467	8
0.03833	3
0.04200	0
0.04567	2
0.04933	6
0.05300	12
0.05667	17
0.06033	20
0.06400	23
0.06767	26
0.07133	27
0.07500	25
0.07867	19
0.08233	15
0.08600	11
0.08967	8
0.09333	5
0.09700	5
0.10067	9
0.10433	15
0.10800	19
0.11167	20
0.11533	19
0.11900	17
0.12267	15
0.12633	15
0.13000	21
0.13367	29
0.13733	41
0.14100	53
0.14467	62
0.14833	66
0.15200	67
0.15567	66
0.15933	62
0.16300	53
0.16667	43
0.17033	36
0.17400	32
0.17767	32
0.18133	37
0.18500	42
0.18867	46
0.19233	49
0.19600	50
0.19967	47
0.20333	42
0.20700	41
0.21067	45
0.21433	48
0.21800	48
0.22167	45
0.22533	38
0.22900	31
0.23267	26
0.23633	21
0.24000	18
0.24367	17
0.24733	16
0.25100	13
0.25467	8
0.25833	4
0.26200	3
0.26567	1
0.26933	2
0.27300	5
0.27667	6
0.28033	6
0.28400	8
0.28767	10
0.29133	11
0.29500	8
0.29867	7
0.30233	8
0.30600	8
0.30967	6
0.31333	2
0.31700	-3
0.32067	-7
0.32433	-10
0.32800	-11
0.33167	-12
0.33533	-12
0.33900	-11
0.34267	-8
0.34633	-7
0.35000	-4
0.35367	2
0.35733	8
0.36100	11
0.36467	10
0.36833	3
0.37200	-7
0.37567	-17
0.37933	-21
0.38300	-21
0.38667	-18
0.39033	-12
0.39400	-6
0.39767	-3
0.40133	-5
0.40500	-12
0.40867	-18
0.41233	-21
0.41600	-25
0.41967	-31
0.42333	-34
0.42700	-35
0.43067	-34
0.43433	-28
0.43800	-23
0.44167	-18
0.44533	-18
0.44900	-20
0.45267	-24
0.45633	-30
0.46000	-33
0.46367	-36
0.46733	-37
0.47100	-38
0.47467	-39
0.47833	-39
0.48200	-40
0.48567	-37
0.48933	-34
0.49300	-31
0.49667	-34
0.50033	-35
0.50400	-34
0.50767	-29
0.51133	-20
0.51500	-13
0.51867	-12
0.52233	-13
0.52600	-13
0.52967	-14
0.53333	-19
0.53700	-27
0.54067	-34
0.54433	-38
0.54800	-39
0.55167	-37
0.55533	-31
0.55900	-25
0.56267	-23
0.56633	-25
0.57000	-33
0.57367	-39
0.57733	-41
0.58100	-41
0.58467	-40
0.58833	-40
0.59200	-43
0.59567	-45
0.59933	-45
0.60300	-42
0.60667	-38
0.61033	-36
0.61400	-37
0.61767	-38
0.62133	-41
0.62500	-44
0.62867	-46
0.63233	-45
0.63600	-43
0.63967	-40
0.64333	-37
0.64700	-32
0.65067	-31
0.65433	-32
0.65800	-33
0.66167	-32
0.66533	-32
0.66900	-34
0.67267	-34
0.67633	-34
0.68000	-27
0.68367	-21
0.68733	-18
0.69100	-20
0.69467	-29
0.69833	-40
0.70200	-49
0.70567	-54
0.70933	-54
0.71300	-52
0.71667	-47
0.72033	-42
0.72400	-36
0.72767	-30
0.73133	-26
0.73500	-27
0.73867	-31
0.74233	-34
0.74600	-37
0.74967	-40
0.75333	-46
0.75700	-51
0.76067	-52
0.76433	-50
0.76800	-47
0.77167	-45
0.77533	-45
0.77900	-48
0.78267	-49
0.78633	-42
0.79000	-34
0.79367	-25
0.79733	-17
0.80100	-12
0.80467	-11
0.80833	-10
0.81200	-5
0.81567	-1
0.81933	1
0.82300	1
0.82667	-1
0.83033	-7
0.83400	-14
0.83767	-22
0.84133	-27
0.84500	-27
0.84867	-25
0.85233	-18
0.85600	-11
0.85967	-6
0.86333	-8
0.86700	-10
0.87067	-9
0.87433	-7
0.87800	-7
0.88167	-10
0.88533	-11
0.88900	-10
0.89267	-9
0.89633	-7
0.90000	-2
0.90367	2
0.90733	3
0.91100	2
0.91467	0
0.91833	-2
0.92200	-6
0.92567	-8
0.92933	-7
0.93300	-3
0.93667	3
0.94033	9
0.94400	9
0.94767	2
0.95133	-9
0.95500	-20
0.95867	-26
0.96233	-29
0.96600	-33
0.96967	-30
0.97333	-26
0.97700	-25
0.98067	-23
0.98433	-18
0.98800	-12
0.99167	-9
0.99533	-4
0.99900	8
1.00267	19
1.00633	21
1.01000	20
1.01367	17
1.01733	9
1.02100	-5
1.02467	-19
1.02833	-32
1.03200	-39
1.03567	-40
1.03933	-38
1.04300	-33
1.04667	-26
1.05033	-22
1.05400	-21
1.05767	-20
1.06133	-14
1.06500	-6
1.06867	-2
1.07233	-3
1.07600	-5
1.07967	-6
1.08333	-9
1.08700	-17
1.09067	-26
1.09433	-34
1.09800	-40
1.10167	-47
1.10533	-55
1.10900	-56
1.11267	-49
1.11633	-41
1.12000	-34
1.12367	-25
1.12733	-19
1.13100	-17
1.13467	-17
1.13833	-14
1.14200	-12
1.14567	-14
1.14933	-18
1.15300	-21
1.15667	-21
1.16033	-20
1.16400	-20
1.16767	-21
1.17133	-21
1.17500	-24
1.17867	-29
1.18233	-35
1.18600	-40
1.18967	-41
1.19333	-39
1.19700	-39
1.20067	-44
1.20433	-48
1.20800	-50
1.21167	-50
1.21533	-49
1.21900	-44
1.22267	-36
1.22633	-26
1.23000	-20
1.23367	-19
1.23733	-24
1.24100	-32
1.24467	-38
1.24833	-39
1.25200	-38
1.25567	-38
1.25933	-37
1.26300	-34
1.26667	-29
1.27033	-26
1.27400	-23
1.27767	-25
1.28133	-29
1.28500	-32
1.28867	-32
1.29233	-28
1.29600	-21
1.29967	-14
1.30333	-13
1.30700	-18
1.31067	-27
1.31433	-37
1.31800	-44
1.32167	-48
1.32533	-49
1.32900	-44
1.33267	-50
1.33633	-57
1.34000	-57
1.34367	-55
1.34733	-52
1.35100	-52
1.35467	-52
1.35833	-48
1.36200	-46
1.36567	-45
1.36933	-47
1.37300	-54
1.37667	-60
1.38033	-64
1.38400	-62
1.38767	-55
1.39133	-50
1.39500	-49
1.39867	-48
1.40233	-48
1.40600	-50
1.40967	-53
1.41333	-53
1.41700	-51
1.42067	-47
1.42433	-42
1.42800	-36
1.43167	-31
1.43533	-29
1.43900	-14
1.44267	72
1.44633	297
1.45000	869
1.45367	2195
1.45733	4376
1.46100	6971
1.46467	9427
1.46833	11412
1.47200	12773
1.47567	13392
1.47933	13149
1.48300	12043
1.48667	10292
1.49033	8263
1.49400	6312
1.49767	4656
1.50133	3365
1.50500	2410
1.50867	1726
1.51233	1241
1.51600	901
1.51967	666
1.52333	500
1.52700	381
1.53067	293
1.53433	233
1.53800	208
1.54167	253
1.54533	428
1.54900	755
1.55267	1178
1.55633	1606
1.56000	1963
1.56367	2214
1.56733	2335
1.57100	2301
1.57467	2100
1.57833	1768
1.58200	1381
1.58567	1014
1.58933	711
1.59300	479
1.59667	309
1.60033	188
1.60400	106
1.60767	55
1.61133	25
1.61500	8
1.61867	-2
1.62233	-9
1.62600	-14
1.62967	-17
1.63333	-17
1.63700	-19
1.64067	-23
1.64433	-28
1.64800	-32
1.65167	-36
1.65533	-40
1.65900	-43
1.66267	-42
1.66633	-40
1.67000	-38
1.67367	-36
1.67733	-35
1.68100	-34
1.68467	-33
1.68833	-34
1.69200	-37
1.69567	-40
1.69933	-44
1.70300	-47
1.70667	-48
1.71033	-48
1.71400	-46
1.71767	-42
1.72133	-37
1.72500	-34
1.72867	-33
1.73233	-32
1.73600	-28
1.73967	-24
1.74333	-26
1.74700	-34
1.75067	-45
1.75433	-55
1.75800	-63
1.76167	-69
1.76533	-76
1.76900	-80
1.77267	-82
1.77633	-84
1.78000	-88
1.78367	-91
1.78733	-88
1.79100	-78
1.79467	-63
1.79833	-50
1.80200	-41
1.80567	-40
1.80933	-43
1.81300	-48
1.81667	-55
1.82033	-61
1.82400	-64
1.82767	-63
1.83133	-59
1.83500	-54
1.83867	-50
1.84233	-47
1.84600	-46
1.84967	-42
1.85333	-38
1.85700	-33
1.86067	-28
1.86433	-26
1.86800	-27
1.87167	-30
1.87533	-34
1.87900	-37
1.88267	-41
1.88633	-47
1.89000	-52
1.89367	-55
1.89733	-56
1.90100	-51
1.90467	-44
1.90833	-38
1.91200	-37
1.91567	-37
1.91933	-35
1.92300	-33
1.92667	-31
1.93033	-30
1.93400	-30
1.93767	-34
1.94133	-40
1.94500	-48
1.94867	-52
1.95233	-40
1.95600	62
1.95967	650
1.96333	3249
1.96700	12034
1.97067	34853
1.97433	81159
1.97800	155553
1.98167	251882
1.98533	355024
1.98900	447591
1.99267	515113
1.99633	547832
2.00000	541464
2.00367	498875
2.00733	429810
2.01100	348317
2.01467	267925
2.01833	197835
2.02200	141922
2.02567	100071
2.02933	70100
2.03300	49260
2.03667	35029
2.04033	25393
2.04400	18875
2.04767	14438
2.05133	11383
2.05500	9249
2.05867	7715
2.06233	6589
2.06600	5740
2.06967	5082
2.07333	4562
2.07700	4139
2.08067	3784
2.08433	3482
2.08800	3228
2.09167	3012
2.09533	2822
2.09900	2650
2.10267	2493
2.10633	2351
2.11000	2228
2.11367	2122
2.11733	2029
2.12100	1940
2.12467	1861
2.12833	1789
2.13200	1723
2.13567	1653
2.13933	1583
2.14300	1519
2.14667	1458
2.15033	1400
2.15400	1346
2.15767	1298
2.16133	1257
2.16500	1217
2.16867	1173
2.17233	1129
2.17600	1090
2.17967	1055
2.18333	1024
2.18700	999
2.19067	979
2.19433	963
2.19800	943
2.20167	921
2.20533	900
2.20900	878
2.21267	854
2.21633	836
2.22000	822
2.22367	806
2.22733	786
2.23100	767
2.23467	749
2.23833	732
2.24200	718
2.24567	704
2.24933	690
2.25300	679
2.25667	671
2.26033	661
2.26400	648
2.26767	636
2.27133	624
2.27500	610
2.27867	594
2.28233	578
2.28600	564
2.28967	553
2.29333	545
2.29700	539
2.30067	531
2.30433	523
2.30800	521
2.31167	521
2.31533	522
2.31900	524
2.32267	527
2.32633	527
2.33000	521
2.33367	507
2.33733	489
2.34100	471
2.34467	457
2.34833	451
2.35200	446
2.35567	440
2.35933	432
2.36300	422
2.36667	412
2.37033	406
2.37400	404
2.37767	405
2.38133	409
2.38500	413
2.38867	417
2.39233	419
2.39600	418
2.39967	415
2.40333	412
2.40700	410
2.41067	409
2.41433	407
2.41800	406
2.42167	404
2.42533	399
2.42900	396
2.43267	395
2.43633	396
2.44000	396
2.44367	392
2.44733	385
2.45100	375
2.45467	367
2.45833	361
2.46200	359
2.46567	360
2.46933	359
2.47300	359
2.47667	363
2.48033	366
2.48400	366
2.48767	364
2.49133	357
2.49500	348
2.49867	337
2.50233	330
2.50600	329
2.50967	331
2.51333	332
2.51700	333
2.52067	335
2.52433	335
2.52800	338
2.53167	343
2.53533	344
2.53900	343
2.54267	339
2.54633	335
2.55000	330
2.55367	324
2.55733	320
2.56100	316
2.56467	312
2.56833	310
2.57200	308
2.57567	309
2.57933	310
2.58300	308
2.58667	304
2.59033	302
2.59400	303
2.59767	308
2.60133	313
2.60500	313
2.60867	310
2.61233	306
2.61600	301
2.61967	295
2.62333	290
2.62700	287
2.63067	284
2.63433	283
2.63800	286
2.64167	291
2.64533	298
2.64900	301
2.65267	302
2.65633	303
2.66000	300
2.66367	295
2.66733	291
2.67100	289
2.67467	286
2.67833	285
2.68200	287
2.68567	289
2.68933	292
2.69300	296
2.69667	301
2.70033	300
2.70400	295
2.70767	290
2.71133	287
2.71500	287
2.71867	287
2.72233	285
2.72600	279
2.72967	268
2.73333	263
2.73700	263
2.74067	265
2.74433	269
2.74800	276
2.75167	284
2.75533	285
2.75900	281
2.76267	275
2.76633	269
2.77000	268
2.77367	277
2.77733	290
2.78100	301
2.78467	310
2.78833	316
2.79200	322
2.79567	322
2.79933	315
2.80300	303
2.80667	291
2.81033	282
2.81400	276
2.81767	276
2.82133	283
2.82500	289
2.82867	291
2.83233	293
2.83600	295
2.83967	295
2.84333	295
2.84700	294
2.85067	295
2.85433	298
2.85800	300
2.86167	299
2.86533	297
2.86900	296
2.87267	296
2.87633	299
2.88000	303
2.88367	305
2.88733	308
2.89100	308
2.89467	305
2.89833	301
2.90200	297
2.90567	294
2.90933	288
2.91300	282
2.91667	278
2.92033	278
2.92400	278
2.92767	279
2.93133	279
2.93500	281
2.93867	282
2.94233	281
2.94600	281
2.94967	284
2.95333	287
2.95700	291
2.96067	297
2.96433	304
2.96800	311
2.97167	312
2.97533	306
2.97900	302
2.98267	301
2.98633	300
2.99000	297
2.99367	292
2.99733	290
3.00100	290
3.00467	293
3.00833	295
3.01200	295
3.01567	295
3.01933	294
3.02300	293
3.02667	290
3.03033	287
3.03400	288
3.03767	291
3.04133	295
3.04500	298
3.04867	297
3.05233	294
3.05600	293
3.05967	293
3.06333	293
3.06700	295
3.07067	298
3.07433	300
3.07800	297
3.08167	289
3.08533	282
3.08900	279
3.09267	279
3.09633	279
3.10000	283
3.10367	289
3.10733	294
3.11100	297
3.11467	300
3.11833	303
3.12200	307
3.12567	311
3.12933	311
3.13300	308
3.13667	300
3.14033	289
3.14400	280
3.14767	276
3.15133	276
3.15500	280
3.15867	286
3.16233	292
3.16600	294
3.16967	289
3.17333	280
3.17700	272
3.18067	267
3.18433	264
3.18800	264
3.19167	269
3.19533	277
3.19900	285
3.20267	293
3.20633	302
3.21000	310
3.21367	315
3.21733	315
3.22100	308
3.22467	298
3.22833	284
3.23200	270
3.23567	261
3.23933	257
3.24300	260
3.24667	263
3.25033	265
3.25400	266
3.25767	268
3.26133	269
3.26500	271
3.26867	280
3.27233	295
3.27600	306
3.27967	305
3.28333	294
3.28700	281
3.29067	271
3.29433	268
3.29800	271
3.30167	273
3.30533	269
3.30900	261
3.31267	255
3.31633	249
3.32000	247
3.32367	248
3.32733	249
3.33100	250
3.33467	252
3.33833	254
3.34200	260
3.34567	265
3.34933	269
3.35300	271
3.35667	271
3.36033	272
3.36400	272
3.36767	268
3.37133	263
3.37500	261
3.37867	261
3.38233	264
3.38600	270
3.38967	276
3.39333	279
3.39700	279
3.40067	276
3.40433	272
3.40800	269
3.41167	265
3.41533	260
3.41900	256
3.42267	255
3.42633	256
3.43000	261
3.43367	266
3.43733	267
3.44100	261
3.44467	252
3.44833	242
3.45200	235
3.45567	233
3.45933	236
3.46300	240
3.46667	244
3.47033	243
3.47400	241
3.47767	239
3.48133	240
3.48500	245
3.48867	251
3.49233	255
3.49600	256
3.49967	256
3.50333	258
3.50700	261
3.51067	262
3.51433	260
3.51800	256
3.52167	251
3.52533	248
3.52900	245
3.53267	241
3.53633	240
3.54000	242
3.54367	245
3.54733	244
3.55100	241
3.55467	239
3.55833	237
3.56200	234
3.56567	232
3.56933	232
3.57300	234
3.57667	236
3.58033	236
3.58400	240
3.58767	245
3.59133	252
3.59500	255
3.59867	253
3.60233	251
3.60600	248
3.60967	243
3.61333	238
3.61700	234
3.62067	229
3.62433	224
3.62800	222
3.63167	221
3.63533	219
3.63900	216
3.64267	215
3.64633	217
3.65000	219
3.65367	222
3.65733	224
3.66100	221
3.66467	214
3.66833	209
3.67200	209
3.67567	210
3.67933	209
3.68300	206
3.68667	204
3.69033	204
3.69400	203
3.69767	204
3.70133	205
3.70500	205
3.70867	205
3.71233	208
3.71600	212
3.71967	212
3.72333	207
3.72700	199
3.73067	191
3.73433	186
3.73800	184
3.74167	185
3.74533	187
3.74900	190
3.75267	193
3.75633	197
3.76000	203
3.76367	208
3.76733	210
3.77100	208
3.77467	204
3.77833	201
3.78200	201
3.78567	203
3.78933	205
3.79300	205
3.79667	205
3.80033	207
3.80400	206
3.80767	203
3.81133	199
3.81500	196
3.81867	192
3.82233	189
3.82600	185
3.82967	180
3.83333	174
3.83700	172
3.84067	177
3.84433	182
3.84800	181
3.85167	178
3.85533	174
3.85900	170
3.86267	167
3.86633	166
3.87000	169
3.87367	175
3.87733	182
3.88100	186
3.88467	189
3.88833	192
3.89200	198
3.89567	199
3.89933	190
3.90300	179
3.90667	170
3.91033	164
3.91400	159
3.91767	155
3.92133	154
3.92500	157
3.92867	161
3.93233	162
3.93600	158
3.93967	150
3.94333	144
3.94700	141
3.95067	145
3.95433	154
3.95800	166
3.96167	176
3.96533	182
3.96900	186
3.97267	183
3.97633	181
3.98000	180
3.98367	179
3.98733	175
3.99100	171
3.99467	164
3.99833	159

[Chromatogram (Ch2)]
Interval(msec)	220
# of Points	1091
Start Time(min)	0.002
End Time(min)	3.998
R.Time (min)	Intensity
0.00167	-1
0.00533	-1
0.00900	-2
0.01267	-2
0.01633	-3
0.02000	-4
0.02367	-4
0.02733	-4
0.03100	-4
0.03467	-4
0.03833	-4
0.04200	-4
0.04567	-4
0.04933	-5
0.05300	-5
0.05667	-5
0.06033	-5
0.06400	-6
0.06767	-6
0.07133	-5
0.07500	-5
0.07867	-5
0.08233	-4
0.08600	-3
0.08967	-3
0.09333	-2
0.09700	-1
0.10067	-1
0.10433	-0
0.10800	-0
0.11167	0
0.11533	0
0.11900	0
0.12267	0
0.12633	-0
0.13000	0
0.13367	0
0.13733	0
0.14100	0
0.14467	1
0.14833	1
0.15200	1
0.15567	1
0.15933	1
0.16300	1
0.16667	1
0.17033	1
0.17400	1
0.17767	2
0.18133	2
0.18500	1
0.18867	1
0.19233	1
0.19600	1
0.19967	2
0.20333	2
0.20700	2
0.21067	2
0.21433	2
0.21800	2
0.22167	2
0.22533	1
0.22900	1
0.23267	1
0.23633	1
0.24000	2
0.24367	2
0.24733	2
0.25100	2
0.25467	2
0.25833	2
0.26200	2
0.26567	2
0.26933	2
0.27300	2
0.27667	2
0.28033	2
0.28400	2
0.28767	2
0.29133	3
0.29500	3
0.29867	3
0.30233	4
0.30600	4
0.30967	4
0.31333	3
0.31700	3
0.32067	3
0.32433	2
0.32800	2
0.33167	2
0.33533	1
0.33900	1
0.34267	1
0.34633	1
0.35000	1
0.35367	1
0.35733	0
0.36100	0
0.36467	0
0.36833	0
0.37200	0
0.37567	0
0.37933	0
0.38300	0
0.38667	0
0.39033	-0
0.39400	-0
0.39767	-1
0.40133	-1
0.40500	-1
0.40867	-1
0.41233	-2
0.41600	-2
0.41967	-1
0.42333	-1
0.42700	-1
0.43067	-1
0.43433	-1
0.43800	-1
0.44167	-1
0.44533	-1
0.44900	-1
0.45267	-1
0.45633	-1
0.46000	-1
0.46367	-1
0.46733	-1
0.47100	-1
0.47467	-1
0.47833	-1
0.48200	-1
0.48567	-1
0.48933	-1
0.49300	-1
0.49667	-1
0.50033	-1
0.50400	-1
0.50767	-0
0.51133	-0
0.51500	-0
0.51867	-0
0.52233	-1
0.52600	-1
0.52967	-1
0.53333	-2
0.53700	-2
0.54067	-3
0.54433	-3
0.54800	-4
0.55167	-4
0.55533	-5
0.55900	-5
0.56267	-5
0.56633	-5
0.57000	-5
0.57367	-4
0.57733	-4
0.58100	-4
0.58467	-5
0.58833	-5
0.59200	-4
0.59567	-4
0.59933	-4
0.60300	-4
0.60667	-3
0.61033	-3
0.61400	-2
0.61767	-1
0.62133	-1
0.62500	-1
0.62867	-1
0.63233	-1
0.63600	-1
0.63967	-1
0.64333	-1
0.64700	-1
0.65067	-1
0.65433	-1
0.65800	-1
0.66167	-1
0.66533	-1
0.66900	-1
0.67267	-1
0.67633	-2
0.68000	-2
0.68367	-2
0.68733	-2
0.69100	-2
0.69467	-2
0.69833	-2
0.70200	-2
0.70567	-2
0.70933	-2
0.71300	-2
0.71667	-2
0.72033	-2
0.72400	-2
0.72767	-2
0.73133	-2
0.73500	-2
0.73867	-2
0.74233	-2
0.74600	-2
0.74967	-2
0.75333	-2
0.75700	-2
0.76067	-2
0.76433	-2
0.76800	-2
0.77167	-2
0.77533	-2
0.77900	-1
0.78267	-1
0.78633	-0
0.79000	-0
0.79367	-0
0.79733	-0
0.80100	-0
0.80467	-0
0.80833	0
0.81200	0
0.81567	1
0.81933	1
0.82300	1
0.82667	1
0.83033	1
0.83400	0
0.83767	0
0.84133	0
0.84500	0
0.84867	-0
0.85233	-1
0.85600	-1
0.85967	-2
0.86333	-3
0.86700	-3
0.87067	-3
0.87433	-4
0.87800	-4
0.88167	-4
0.88533	-4
0.88900	-4
0.89267	-4
0.89633	-4
0.90000	-4
0.90367	-4
0.90733	-4
0.91100	-4
0.91467	-4
0.91833	-4
0.92200	-4
0.92567	-4
0.92933	-4
0.93300	-3
0.93667	-3
0.94033	-3
0.94400	-3
0.94767	-2
0.95133	-2
0.95500	-2
0.95867	-2
0.96233	-2
0.96600	-2
0.96967	-2
0.97333	-2
0.97700	-2
0.98067	-1
0.98433	-1
0.98800	-1
0.99167	-1
0.99533	-1
0.99900	-1
1.00267	-2
1.00633	-2
1.01000	-3
1.01367	-3
1.01733	-3
1.02100	-3
1.02467	-3
1.02833	-3
1.03200	-3
1.03567	-3
1.03933	-3
1.04300	-3
1.04667	-2
1.05033	-2
1.05400	-2
1.05767	-2
1.06133	-1
1.06500	-1
1.06867	-1
1.07233	-1
1.07600	-1
1.07967	-1
1.08333	-1
1.08700	-1
1.09067	-0
1.09433	-0
1.09800	-0
1.10167	-1
1.10533	-1
1.10900	-1
1.11267	-2
1.11633	-2
1.12000	-3
1.12367	-3
1.12733	-4
1.13100	-4
1.13467	-5
1.13833	-5
1.14200	-6
1.14567	-6
1.14933	-6
1.15300	-7
1.15667	-7
1.16033	-7
1.16400	-7
1.16767	-7
1.17133	-6
1.17500	-6
1.17867	-6
1.18233	-6
1.18600	-6
1.18967	-5
1.19333	-5
1.19700	-5
1.20067	-5
1.20433	-5
1.20800	-5
1.21167	-5
1.21533	-5
1.21900	-5
1.22267	-5
1.22633	-5
1.23000	-6
1.23367	-6
1.23733	-6
1.24100	-7
1.24467	-7
1.24833	-7
1.25200	-7
1.25567	-6
1.25933	-6
1.26300	-6
1.26667	-5
1.27033	-5
1.27400	-5
1.27767	-4
1.28133	-4
1.28500	-3
1.28867	-3
1.29233	-2
1.29600	-2
1.29967	-2
1.30333	-1
1.30700	-1
1.31067	-1
1.31433	-1
1.31800	-1
1.32167	-1
1.32533	-2
1.32900	-2
1.33267	-2
1.33633	-2
1.34000	-1
1.34367	-1
1.34733	-1
1.35100	-1
1.35467	-2
1.35833	-2
1.36200	-2
1.36567	-3
1.36933	-3
1.37300	-4
1.37667	-4
1.38033	-5
1.38400	-5
1.38767	-5
1.39133	-5
1.39500	-6
1.39867	-6
1.40233	-6
1.40600	-6
1.40967	-6
1.41333	-6
1.41700	-5
1.42067	-5
1.42433	-5
1.42800	-5
1.43167	-5
1.43533	-4
1.43900	-4
1.44267	-3
1.44633	-3
1.45000	-3
1.45367	-3
1.45733	-3
1.46100	-2
1.46467	-2
1.46833	-1
1.47200	-1
1.47567	-1
1.47933	-1
1.48300	-1
1.48667	-1
1.49033	-1
1.49400	-1
1.49767	-2
1.50133	-2
1.50500	-2
1.50867	-3
1.51233	-3
1.51600	-3
1.51967	-3
1.52333	-3
1.52700	-4
1.53067	-4
1.53433	-4
1.53800	-4
1.54167	-4
1.54533	-4
1.54900	-4
1.55267	-4
1.55633	-4
1.56000	-4
1.56367	-4
1.56733	-4
1.57100	-4
1.57467	-4
1.57833	-3
1.58200	-3
1.58567	-3
1.58933	-3
1.59300	-3
1.59667	-4
1.60033	-5
1.60400	-6
1.60767	-7
1.61133	-9
1.61500	-12
1.61867	-14
1.62233	-17
1.62600	-21
1.62967	-24
1.63333	-28
1.63700	-31
1.64067	-35
1.64433	-39
1.64800	-42
1.65167	-46
1.65533	-49
1.65900	-53
1.66267	-57
1.66633	-61
1.67000	-66
1.67367	-70
1.67733	-75
1.68100	-80
1.68467	-85
1.68833	-90
1.69200	-93
1.69567	-97
1.69933	-99
1.70300	-102
1.70667	-104
1.71033	-106
1.71400	-107
1.71767	-108
1.72133	-109
1.72500	-110
1.72867	-109
1.73233	-109
1.73600	-109
1.73967	-109
1.74333	-110
1.74700	-110
1.75067	-112
1.75433	-113
1.75800	-115
1.76167	-117
1.76533	-118
1.76900	-118
1.77267	-119
1.77633	-119
1.78000	-119
1.78367	-118
1.78733	-118
1.79100	-117
1.79467	-117
1.79833	-116
1.80200	-116
1.80567	-116
1.80933	-116
1.81300	-116
1.81667	-116
1.82033	-116
1.82400	-117
1.82767	-117
1.83133	-117
1.83500	-118
1.83867	-118
1.84233	-119
1.84600	-119
1.84967	-119
1.85333	-120
1.85700	-120
1.86067	-120
1.86433	-120
1.86800	-120
1.87167	-120
1.87533	-120
1.87900	-120
1.88267	-120
1.88633	-120
1.89000	-119
1.89367	-119
1.89733	-119
1.90100	-119
1.90467	-118
1.90833	-118
1.91200	-118
1.91567	-118
1.91933	-118
1.92300	-118
1.92667	-118
1.93033	-118
1.93400	-118
1.93767	-118
1.94133	-118
1.94500	-118
1.94867	-118
1.95233	-118
1.95600	-118
1.95967	-117
1.96333	-117
1.96700	-117
1.97067	-117
1.97433	-116
1.97800	-116
1.98167	-115
1.98533	-115
1.98900	-114
1.99267	-113
1.99633	-112
2.00000	-112
2.00367	-111
2.00733	-111
2.01100	-111
2.01467	-111
2.01833	-111
2.02200	-111
2.02567	-111
2.02933	-110
2.03300	-110
2.03667	-109
2.04033	-108
2.04400	-108
2.04767	-107
2.05133	-107
2.05500	-107
2.05867	-106
2.06233	-106
2.06600	-105
2.06967	-105
2.07333	-104
2.07700	-103
2.08067	-103
2.08433	-102
2.08800	-102
2.09167	-102
2.09533	-102
2.09900	-102
2.10267	-102
2.10633	-102
2.11000	-102
2.11367	-101
2.11733	-101
2.12100	-101
2.12467	-100
2.12833	-100
2.13200	-100
2.13567	-101
2.13933	-101
2.14300	-101
2.14667	-101
2.15033	-101
2.15400	-100
2.15767	-99
2.16133	-98
2.16500	-97
2.16867	-97
2.17233	-96
2.17600	-96
2.17967	-96
2.18333	-96
2.18700	-96
2.19067	-96
2.19433	-96
2.19800	-96
2.20167	-95
2.20533	-95
2.20900	-94
2.21267	-93
2.21633	-93
2.22000	-92
2.22367	-92
2.22733	-92
2.23100	-92
2.23467	-92
2.23833	-93
2.24200	-92
2.24567	-92
2.24933	-91
2.25300	-90
2.25667	-89
2.26033	-89
2.26400	-89
2.26767	-89
2.27133	-88
2.27500	-88
2.27867	-88
2.28233	-88
2.28600	-87
2.28967	-87
2.29333	-87
2.29700	-87
2.30067	-87
2.30433	-87
2.30800	-87
2.31167	-86
2.31533	-85
2.31900	-84
2.32267	-84
2.32633	-84
2.33000	-85
2.33367	-87
2.33733	-88
2.34100	-89
2.34467	-89
2.34833	-89
2.35200	-88
2.35567	-86
2.35933	-84
2.36300	-82
2.36667	-79
2.37033	-76
2.37400	-72
2.37767	-68
2.38133	-63
2.38500	-59
2.38867	-55
2.39233	-50
2.39600	-46
2.39967	-42
2.40333	-38
2.40700	-35
2.41067	-32
2.41433	-29
2.41800	-26
2.42167	-24
2.42533	-21
2.42900	-19
2.43267	-17
2.43633	-15
2.44000	-14
2.44367	-13
2.44733	-12
2.45100	-11
2.45467	-9
2.45833	-8
2.46200	-6
2.46567	-5
2.46933	-3
2.47300	-2
2.47667	-2
2.48033	-1
2.48400	-0
2.48767	1
2.49133	2
2.49500	4
2.49867	5
2.50233	6
2.50600	7
2.50967	7
2.51333	8
2.51700	8
2.52067	8
2.52433	9
2.52800	9
2.53167	10
2.53533	10
2.53900	11
2.54267	11
2.54633	12
2.55000	12
2.55367	11
2.55733	11
2.56100	11
2.56467	11
2.56833	11
2.57200	11
2.57567	12
2.57933	12
2.58300	12
2.58667	13
2.59033	14
2.59400	14
2.59767	14
2.60133	14
2.60500	14
2.60867	14
2.61233	14
2.61600	13
2.61967	13
2.62333	13
2.62700	14
2.63067	14
2.63433	14
2.63800	15
2.64167	15
2.64533	16
2.64900	16
2.65267	17
2.65633	17
2.66000	18
2.66367	18
2.66733	18
2.67100	18
2.67467	18
2.67833	18
2.68200	19
2.68567	19
2.68933	19
2.69300	19
2.69667	20
2.70033	20
2.70400	20
2.70767	21
2.71133	21
2.71500	22
2.71867	22
2.72233	22
2.72600	22
2.72967	21
2.73333	21
2.73700	20
2.74067	20
2.74433	20
2.74800	20
2.75167	20
2.75533	20
2.75900	21
2.76267	21
2.76633	22
2.77000	22
2.77367	23
2.77733	23
2.78100	24
2.78467	24
2.78833	24
2.79200	24
2.79567	24
2.79933	24
2.80300	24
2.80667	24
2.81033	24
2.81400	24
2.81767	24
2.82133	25
2.82500	25
2.82867	25
2.83233	25
2.83600	24
2.83967	23
2.84333	20
2.84700	16
2.85067	9
2.85433	-1
2.85800	-15
2.86167	-32
2.86533	-53
2.86900	-78
2.87267	-108
2.87633	-142
2.88000	-179
2.88367	-220
2.88733	-264
2.89100	-311
2.89467	-360
2.89833	-411
2.90200	-463
2.90567	-516
2.90933	-570
2.91300	-624
2.91667	-677
2.92033	-731
2.92400	-783
2.92767	-835
2.93133	-889
2.93500	-947
2.93867	-1008
2.94233	-1063
2.94600	-1100
2.94967	-1114
2.95333	-1101
2.95700	-1064
2.96067	-1008
2.96433	-938
2.96800	-861
2.97167	-780
2.97533	-699
2.97900	-621
2.98267	-547
2.98633	-479
2.99000	-417
2.99367	-361
2.99733	-311
3.00100	-267
3.00467	-229
3.00833	-195
3.01200	-166
3.01567	-140
3.01933	-118
3.02300	-100
3.02667	-83
3.03033	-70
3.03400	-58
3.03767	-48
3.04133	-39
3.04500	-32
3.04867	-26
3.05233	-20
3.05600	-16
3.05967	-12
3.06333	-9
3.06700	-6
3.07067	-3
3.07433	-1
3.07800	1
3.08167	3
3.08533	5
3.08900	6
3.09267	7
3.09633	8
3.10000	10
3.10367	11
3.10733	12
3.11100	12
3.11467	12
3.11833	13
3.12200	13
3.12567	13
3.12933	13
3.13300	13
3.13667	14
3.14033	14
3.14400	14
3.14767	14
3.15133	14
3.15500	15
3.15867	15
3.16233	15
3.16600	15
3.16967	15
3.17333	15
3.17700	16
3.18067	16
3.18433	16
3.18800	16
3.19167	17
3.19533	17
3.19900	17
3.20267	18
3.20633	18
3.21000	19
3.21367	19
3.21733	19
3.22100	20
3.22467	20
3.22833	20
3.23200	20
3.23567	20
3.23933	20
3.24300	20
3.24667	20
3.25033	20
3.25400	20
3.25767	20
3.26133	21
3.26500	21
3.26867	21
3.27233	21
3.27600	21
3.27967	22
3.28333	22
3.28700	22
3.29067	22
3.29433	22
3.29800	23
3.30167	23
3.30533	23
3.30900	23
3.31267	24
3.31633	24
3.32000	24
3.32367	24
3.32733	24
3.33100	24
3.33467	24
3.33833	24
3.34200	24
3.34567	24
3.34933	24
3.35300	24
3.35667	24
3.36033	24
3.36400	24
3.36767	24
3.37133	24
3.37500	24
3.37867	23
3.38233	24
3.38600	24
3.38967	24
3.39333	24
3.39700	24
3.40067	24
3.40433	25
3.40800	25
3.41167	25
3.41533	25
3.41900	24
3.42267	24
3.42633	24
3.43000	24
3.43367	24
3.43733	24
3.44100	24
3.44467	24
3.44833	24
3.45200	24
3.45567	24
3.45933	24
3.46300	24
3.46667	24
3.47033	24
3.47400	24
3.47767	25
3.48133	25
3.48500	25
3.48867	25
3.49233	25
3.49600	25
3.49967	25
3.50333	25
3.50700	25
3.51067	25
3.51433	25
3.51800	25
3.52167	24
3.52533	24
3.52900	23
3.53267	23
3.53633	23
3.54000	22
3.54367	22
3.54733	23
3.55100	23
3.55467	23
3.55833	22
3.56200	22
3.56567	22
3.56933	22
3.57300	22
3.57667	22
3.58033	22
3.58400	23
3.58767	23
3.59133	23
3.59500	23
3.59867	23
3.60233	23
3.60600	23
3.60967	23
3.61333	23
3.61700	24
3.62067	24
3.62433	24
3.62800	23
3.63167	23
3.63533	23
3.63900	23
3.64267	24
3.64633	24
3.65000	24
3.65367	24
3.65733	24
3.66100	25
3.66467	25
3.66833	25
3.67200	25
3.67567	25
3.67933	25
3.68300	25
3.68667	25
3.69033	25
3.69400	25
3.69767	25
3.70133	24
3.70500	24
3.70867	24
3.71233	24
3.71600	24
3.71967	24
3.72333	24
3.72700	24
3.73067	24
3.73433	24
3.73800	24
3.74167	24
3.74533	24
3.74900	24
3.75267	24
3.75633	24
3.76000	25
3.76367	25
3.76733	25
3.77100	25
3.77467	26
3.77833	26
3.78200	26
3.78567	26
3.78933	26
3.79300	26
3.79667	26
3.80033	26
3.80400	26
3.80767	25
3.81133	25
3.81500	25
3.81867	25
3.82233	25
3.82600	25
3.82967	24
3.83333	24
3.83700	24
3.84067	23
3.84433	23
3.84800	23
3.85167	23
3.85533	23
3.85900	22
3.86267	22
3.86633	22
3.87000	22
3.87367	23
3.87733	23
3.88100	23
3.88467	23
3.88833	23
3.89200	23
3.89567	23
3.89933	24
3.90300	24
3.90667	24
3.91033	24
3.91400	24
3.91767	25
3.92133	25
3.92500	25
3.92867	25
3.93233	25
3.93600	26
3.93967	26
3.94333	26
3.94700	26
3.95067	26
3.95433	26
3.95800	25
3.96167	25
3.96533	25
3.96900	25
3.97267	25
3.97633	25
3.98000	25
3.98367	25
3.98733	25
3.99100	25
3.99467	25
3.99833	25

[Chromatogram (Ch3)]
Interval(msec)	220
# of Points	1091
Start Time(min)	0.002
End Time(min)	3.998
R.Time (min)	Intensity
0.00167	0
0.00533	1
0.00900	3
0.01267	4
0.01633	4
0.02000	1
0.02367	0
0.02733	1
0.03100	-0
0.03467	-0
0.03833	3
0.04200	6
0.04567	6
0.04933	3
0.05300	-0
0.05667	-1
0.06033	1
0.06400	3
0.06767	5
0.07133	5
0.07500	5
0.07867	6
0.08233	9
0.08600	8
0.08967	6
0.09333	5
0.09700	6
0.10067	7
0.10433	7
0.10800	7
0.11167	6
0.11533	6
0.11900	6
0.12267	7
0.12633	6
0.13000	6
0.13367	7
0.13733	9
0.14100	9
0.14467	9
0.14833	9
0.15200	9
0.15567	8
0.15933	7
0.16300	5
0.16667	3
0.17033	4
0.17400	6
0.17767	5
0.18133	4
0.18500	4
0.18867	6
0.19233	9
0.19600	8
0.19967	7
0.20333	6
0.20700	5
0.21067	5
0.21433	5
0.21800	7
0.22167	7
0.22533	9
0.22900	9
0.23267	8
0.23633	7
0.24000	5
0.24367	2
0.24733	0
0.25100	-1
0.25467	-1
0.25833	-1
0.26200	2
0.26567	5
0.26933	4
0.27300	5
0.27667	6
0.28033	7
0.28400	8
0.28767	6
0.29133	5
0.29500	5
0.29867	6
0.30233	5
0.30600	3
0.30967	3
0.31333	3
0.31700	2
0.32067	1
0.32433	1
0.32800	4
0.33167	7
0.33533	9
0.33900	8
0.34267	5
0.34633	4
0.35000	4
0.35367	5
0.35733	4
0.36100	2
0.36467	-0
0.36833	-2
0.37200	-3
0.37567	-2
0.37933	-1
0.38300	-3
0.38667	-3
0.39033	-3
0.39400	-1
0.39767	-2
0.40133	-1
0.40500	0
0.40867	4
0.41233	6
0.41600	4
0.41967	3
0.42333	3
0.42700	5
0.43067	6
0.43433	6
0.43800	7
0.44167	7
0.44533	7
0.44900	6
0.45267	5
0.45633	5
0.46000	6
0.46367	7
0.46733	7
0.47100	5
0.47467	4
0.47833	3
0.48200	3
0.48567	3
0.48933	2
0.49300	3
0.49667	2
0.50033	4
0.50400	4
0.50767	5
0.51133	6
0.51500	6
0.51867	6
0.52233	6
0.52600	8
0.52967	10
0.53333	11
0.53700	10
0.54067	7
0.54433	5
0.54800	4
0.55167	4
0.55533	6
0.55900	8
0.56267	10
0.56633	11
0.57000	12
0.57367	14
0.57733	17
0.58100	16
0.58467	16
0.58833	15
0.59200	11
0.59567	9
0.59933	6
0.60300	4
0.60667	4
0.61033	6
0.61400	7
0.61767	7
0.62133	7
0.62500	6
0.62867	5
0.63233	6
0.63600	7
0.63967	7
0.64333	8
0.64700	9
0.65067	10
0.65433	11
0.65800	11
0.66167	11
0.66533	11
0.66900	14
0.67267	18
0.67633	19
0.68000	16
0.68367	14
0.68733	13
0.69100	12
0.69467	13
0.69833	13
0.70200	12
0.70567	10
0.70933	8
0.71300	7
0.71667	6
0.72033	8
0.72400	10
0.72767	11
0.73133	10
0.73500	8
0.73867	7
0.74233	7
0.74600	6
0.74967	5
0.75333	5
0.75700	6
0.76067	8
0.76433	10
0.76800	10
0.77167	10
0.77533	9
0.77900	7
0.78267	6
0.78633	7
0.79000	9
0.79367	10
0.79733	13
0.80100	14
0.80467	14
0.80833	11
0.81200	11
0.81567	12
0.81933	14
0.82300	12
0.82667	12
0.83033	14
0.83400	13
0.83767	15
0.84133	17
0.84500	16
0.84867	16
0.85233	16
0.85600	15
0.85967	13
0.86333	12
0.86700	14
0.87067	14
0.87433	11
0.87800	8
0.88167	9
0.88533	11
0.88900	10
0.89267	8
0.89633	8
0.90000	9
0.90367	10
0.90733	11
0.91100	11
0.91467	12
0.91833	13
0.92200	13
0.92567	14
0.92933	15
0.93300	15
0.93667	16
0.94033	17
0.94400	20
0.94767	21
0.95133	20
0.95500	18
0.95867	17
0.96233	15
0.96600	15
0.96967	14
0.97333	14
0.97700	12
0.98067	11
0.98433	11
0.98800	11
0.99167	13
0.99533	13
0.99900	15
1.00267	16
1.00633	19
1.01000	17
1.01367	16
1.01733	18
1.02100	18
1.02467	17
1.02833	17
1.03200	16
1.03567	15
1.03933	15
1.04300	15
1.04667	14
1.05033	13
1.05400	14
1.05767	15
1.06133	17
1.06500	18
1.06867	17
1.07233	14
1.07600	14
1.07967	14
1.08333	16
1.08700	18
1.09067	18
1.09433	18
1.09800	18
1.10167	17
1.10533	16
1.10900	17
1.11267	18
1.11633	18
1.12000	17
1.12367	16
1.12733	16
1.13100	15
1.13467	14
1.13833	14
1.14200	14
1.14567	16
1.14933	19
1.15300	21
1.15667	22
1.16033	25
1.16400	24
1.16767	21
1.17133	19
1.17500	19
1.17867	19
1.18233	21
1.18600	20
1.18967	20
1.19333	19
1.19700	19
1.20067	18
1.20433	17
1.20800	18
1.21167	18
1.21533	18
1.21900	19
1.22267	21
1.22633	21
1.23000	23
1.23367	23
1.23733	21
1.24100	21
1.24467	21
1.24833	20
1.25200	19
1.25567	17
1.25933	17
1.26300	20
1.26667	22
1.27033	25
1.27400	28
1.27767	26
1.28133	25
1.28500	27
1.28867	28
1.29233	27
1.29600	28
1.29967	28
1.30333	27
1.30700	25
1.31067	24
1.31433	21
1.31800	20
1.32167	19
1.32533	19
1.32900	19
1.33267	22
1.33633	24
1.34000	23
1.34367	23
1.34733	24
1.35100	24
1.35467	26
1.35833	29
1.36200	31
1.36567	33
1.36933	31
1.37300	28
1.37667	27
1.38033	26
1.38400	26
1.38767	25
1.39133	26
1.39500	29
1.39867	31
1.40233	29
1.40600	27
1.40967	25
1.41333	26
1.41700	28
1.42067	29
1.42433	29
1.42800	31
1.43167	34
1.43533	34
1.43900	30
1.44267	29
1.44633	29
1.45000	30
1.45367	31
1.45733	31
1.46100	29
1.46467	28
1.46833	27
1.47200	29
1.47567	30
1.47933	29
1.48300	30
1.48667	33
1.49033	34
1.49400	32
1.49767	31
1.50133	32
1.50500	33
1.50867	35
1.51233	36
1.51600	37
1.51967	36
1.52333	36
1.52700	36
1.53067	37
1.53433	37
1.53800	39
1.54167	40
1.54533	37
1.54900	34
1.55267	32
1.55633	31
1.56000	33
1.56367	34
1.56733	36
1.57100	38
1.57467	41
1.57833	42
1.58200	44
1.58567	44
1.58933	42
1.59300	37
1.59667	38
1.60033	37
1.60400	38
1.60767	38
1.61133	38
1.61500	40
1.61867	44
1.62233	44
1.62600	45
1.62967	47
1.63333	46
1.63700	45
1.64067	44
1.64433	43
1.64800	43
1.65167	41
1.65533	40
1.65900	40
1.66267	43
1.66633	47
1.67000	47
1.67367	46
1.67733	45
1.68100	45
1.68467	47
1.68833	48
1.69200	49
1.69567	49
1.69933	50
1.70300	49
1.70667	48
1.71033	47
1.71400	48
1.71767	52
1.72133	53
1.72500	54
1.72867	55
1.73233	54
1.73600	54
1.73967	54
1.74333	53
1.74700	52
1.75067	53
1.75433	56
1.75800	57
1.76167	57
1.76533	58
1.76900	56
1.77267	56
1.77633	56
1.78000	55
1.78367	55
1.78733	52
1.79100	51
1.79467	52
1.79833	56
1.80200	59
1.80567	62
1.80933	64
1.81300	65
1.81667	65
1.82033	66
1.82400	67
1.82767	67
1.83133	66
1.83500	66
1.83867	64
1.84233	65
1.84600	64
1.84967	64
1.85333	63
1.85700	64
1.86067	66
1.86433	66
1.86800	66
1.87167	65
1.87533	65
1.87900	66
1.88267	68
1.88633	68
1.89000	69
1.89367	70
1.89733	70
1.90100	71
1.90467	72
1.90833	75
1.91200	77
1.91567	78
1.91933	78
1.92300	76
1.92667	76
1.93033	77
1.93400	79
1.93767	81
1.94133	81
1.94500	82
1.94867	82
1.95233	82
1.95600	85
1.95967	87
1.96333	87
1.96700	85
1.97067	86
1.97433	87
1.97800	89
1.98167	92
1.98533	92
1.98900	94
1.99267	96
1.99633	96
2.00000	95
2.00367	90
2.00733	88
2.01100	88
2.01467	90
2.01833	94
2.02200	97
2.02567	97
2.02933	95
2.03300	92
2.03667	92
2.04033	92
2.04400	92
2.04767	93
2.05133	96
2.05500	97
2.05867	98
2.06233	98
2.06600	99
2.06967	98
2.07333	100
2.07700	101
2.08067	102
2.08433	103
2.08800	103
2.09167	104
2.09533	104
2.09900	107
2.10267	110
2.10633	109
2.11000	108
2.11367	109
2.11733	111
2.12100	110
2.12467	111
2.12833	112
2.13200	112
2.13567	115
2.13933	118
2.14300	121
2.14667	120
2.15033	120
2.15400	120
2.15767	121
2.16133	122
2.16500	121
2.16867	120
2.17233	122
2.17600	123
2.17967	123
2.18333	122
2.18700	120
2.19067	121
2.19433	124
2.19800	126
2.20167	129
2.20533	130
2.20900	131
2.21267	131
2.21633	133
2.22000	134
2.22367	136
2.22733	137
2.23100	139
2.23467	139
2.23833	140
2.24200	143
2.24567	145
2.24933	144
2.25300	144
2.25667	144
2.26033	143
2.26400	144
2.26767	145
2.27133	144
2.27500	144
2.27867	146
2.28233	152
2.28600	155
2.28967	155
2.29333	156
2.29700	158
2.30067	158
2.30433	160
2.30800	164
2.31167	167
2.31533	169
2.31900	171
2.32267	171
2.32633	172
2.33000	176
2.33367	179
2.33733	180
2.34100	181
2.34467	181
2.34833	181
2.35200	181
2.35567	181
2.35933	180
2.36300	181
2.36667	183
2.37033	185
2.37400	186
2.37767	188
2.38133	189
2.38500	188
2.38867	186
2.39233	188
2.39600	191
2.39967	195
2.40333	197
2.40700	199
2.41067	202
2.41433	206
2.41800	208
2.42167	210
2.42533	209
2.42900	208
2.43267	207
2.43633	209
2.44000	212
2.44367	237
2.44733	304
2.45100	377
2.45467	437
2.45833	479
2.46200	492
2.46567	482
2.46933	466
2.47300	450
2.47667	439
2.48033	433
2.48400	429
2.48767	423
2.49133	412
2.49500	396
2.49867	381
2.50233	368
2.50600	356
2.50967	345
2.51333	336
2.51700	331
2.52067	329
2.52433	327
2.52800	327
2.53167	330
2.53533	335
2.53900	341
2.54267	348
2.54633	354
2.55000	359
2.55367	361
2.55733	359
2.56100	352
2.56467	344
2.56833	337
2.57200	331
2.57567	325
2.57933	321
2.58300	315
2.58667	310
2.59033	307
2.59400	302
2.59767	295
2.60133	286
2.60500	272
2.60867	257
2.61233	238
2.61600	217
2.61967	196
2.62333	177
2.62700	163
2.63067	152
2.63433	141
2.63800	134
2.64167	130
2.64533	129
2.64900	132
2.65267	139
2.65633	147
2.66000	157
2.66367	167
2.66733	178
2.67100	187
2.67467	196
2.67833	205
2.68200	214
2.68567	219
2.68933	223
2.69300	227
2.69667	232
2.70033	236
2.70400	239
2.70767	243
2.71133	245
2.71500	245
2.71867	246
2.72233	248
2.72600	248
2.72967	249
2.73333	251
2.73700	253
2.74067	253
2.74433	253
2.74800	254
2.75167	256
2.75533	257
2.75900	256
2.76267	255
2.76633	254
2.77000	255
2.77367	256
2.77733	257
2.78100	258
2.78467	258
2.78833	256
2.79200	254
2.79567	253
2.79933	251
2.80300	251
2.80667	252
2.81033	255
2.81400	259
2.81767	265
2.82133	284
2.82500	323
2.82867	400
2.83233	540
2.83600	764
2.83967	1086
2.84333	1508
2.84700	2019
2.85067	2596
2.85433	3194
2.85800	3766
2.86167	4262
2.86533	4641
2.86900	4880
2.87267	4975
2.87633	4934
2.88000	4780
2.88367	4540
2.88733	4238
2.89100	3901
2.89467	3552
2.89833	3207
2.90200	2877
2.90567	2567
2.90933	2283
2.91300	2028
2.91667	1799
2.92033	1597
2.92400	1419
2.92767	1261
2.93133	1124
2.93500	1005
2.93867	899
2.94233	806
2.94600	726
2.94967	657
2.95333	600
2.95700	552
2.96067	511
2.96433	476
2.96800	447
2.97167	419
2.97533	395
2.97900	374
2.98267	354
2.98633	341
2.99000	329
2.99367	321
2.99733	316
3.00100	311
3.00467	304
3.00833	297
3.01200	289
3.01567	282
3.01933	278
3.02300	276
3.02667	274
3.03033	272
3.03400	271
3.03767	271
3.04133	268
3.04500	266
3.04867	264
3.05233	262
3.05600	259
3.05967	259
3.06333	259
3.06700	255
3.07067	252
3.07433	249
3.07800	244
3.08167	228
3.08533	197
3.08900	165
3.09267	155
3.09633	171
3.10000	204
3.10367	243
3.10733	283
3.11100	323
3.11467	362
3.11833	398
3.12200	435
3.12567	471
3.12933	505
3.13300	537
3.13667	570
3.14033	599
3.14400	624
3.14767	645
3.15133	665
3.15500	684
3.15867	700
3.16233	715
3.16600	728
3.16967	737
3.17333	744
3.17700	753
3.18067	759
3.18433	764
3.18800	768
3.19167	769
3.19533	773
3.19900	776
3.20267	779
3.20633	784
3.21000	787
3.21367	788
3.21733	791
3.22100	792
3.22467	794
3.22833	794
3.23200	796
3.23567	796
3.23933	795
3.24300	795
3.24667	795
3.25033	794
3.25400	794
3.25767	792
3.26133	789
3.26500	788
3.26867	788
3.27233	789
3.27600	789
3.27967	785
3.28333	780
3.28700	775
3.29067	772
3.29433	769
3.29800	764
3.30167	758
3.30533	754
3.30900	749
3.31267	743
3.31633	740
3.32000	737
3.32367	732
3.32733	728
3.33100	722
3.33467	718
3.33833	715
3.34200	712
3.34567	707
3.34933	702
3.35300	697
3.35667	693
3.36033	689
3.36400	685
3.36767	682
3.37133	683
3.37500	682
3.37867	679
3.38233	678
3.38600	678
3.38967	678
3.39333	675
3.39700	673
3.40067	671
3.40433	668
3.40800	664
3.41167	662
3.41533	662
3.41900	664
3.42267	664
3.42633	663
3.43000	661
3.43367	660
3.43733	662
3.44100	661
3.44467	659
3.44833	656
3.45200	653
3.45567	651
3.45933	649
3.46300	649
3.46667	649
3.47033	648
3.47400	646
3.47767	644
3.48133	642
3.48500	640
3.48867	637
3.49233	635
3.49600	634
3.49967	633
3.50333	631
3.50700	628
3.51067	625
3.51433	622
3.51800	622
3.52167	621
3.52533	619
3.52900	616
3.53267	615
3.53633	612
3.54000	610
3.54367	607
3.54733	605
3.55100	604
3.55467	603
3.55833	601
3.56200	597
3.56567	595
3.56933	591
3.57300	588
3.57667	589
3.58033	588
3.58400	585
3.58767	583
3.59133	583
3.59500	581
3.59867	579
3.60233	578
3.60600	577
3.60967	575
3.61333	569
3.61700	565
3.62067	563
3.62433	560
3.62800	557
3.63167	556
3.63533	554
3.63900	553
3.64267	549
3.64633	547
3.65000	546
3.65367	544
3.65733	542
3.66100	543
3.66467	542
3.66833	539
3.67200	538
3.67567	535
3.67933	531
3.68300	529
3.68667	527
3.69033	524
3.69400	521
3.69767	522
3.70133	523
3.70500	522
3.70867	520
3.71233	517
3.71600	515
3.71967	515
3.72333	515
3.72700	516
3.73067	512
3.73433	508
3.73800	506
3.74167	505
3.74533	504
3.74900	504
3.75267	505
3.75633	505
3.76000	504
3.76367	503
3.76733	503
3.77100	502
3.77467	501
3.77833	499
3.78200	498
3.78567	498
3.78933	497
3.79300	495
3.79667	491
3.80033	491
3.80400	490
3.80767	488
3.81133	487
3.81500	486
3.81867	484
3.82233	484
3.82600	485
3.82967	484
3.83333	483
3.83700	482
3.84067	480
3.84433	479
3.84800	477
3.85167	475
3.85533	474
3.85900	474
3.86267	478
3.86633	479
3.87000	477
3.87367	474
3.87733	474
3.88100	474
3.88467	475
3.88833	474
3.89200	475
3.89567	476
3.89933	473
3.90300	471
3.90667	471
3.91033	471
3.91400	471
3.91767	469
3.92133	468
3.92500	466
3.92867	464
3.93233	463
3.93600	463
3.93967	462
3.94333	461
3.94700	459
3.95067	458
3.95433	460
3.95800	459
3.96167	458
3.96533	456
3.96900	455
3.97267	454
3.97633	452
3.98000	451
3.98367	451
3.98733	451
3.99100	449
3.99467	445
3.99833	440

[Status Trace (Column Oven Temperature)]
Interval(msec)	1000
# of Points	240
Start Time(min)	0.001
End Time(min)	3.984
Intensity Units	
Intensity Multiplier	1
R.Time (min)	Intensity
0.00067	35.04
0.01733	35.07
0.03400	35.08
0.05067	35.09
0.06733	35.10
0.08400	35.11
0.10067	35.10
0.11733	35.09
0.13400	35.08
0.15067	35.07
0.16733	35.07
0.18400	35.06
0.20067	35.05
0.21733	35.05
0.23400	35.03
0.25067	35.02
0.26733	35.00
0.28400	34.99
0.30067	34.97
0.31733	34.97
0.33400	34.97
0.35067	34.97
0.36733	34.97
0.38400	34.98
0.40067	34.98
0.41733	34.98
0.43400	34.98
0.45067	34.98
0.46733	35.00
0.48400	35.00
0.50067	34.99
0.51733	34.99
0.53400	34.99
0.55067	35.00
0.56733	35.02
0.58400	35.03
0.60067	35.02
0.61733	35.02
0.63400	35.01
0.65067	35.00
0.66733	35.00
0.68400	35.00
0.70067	35.00
0.71733	34.99
0.73400	35.00
0.75067	35.00
0.76733	35.00
0.78400	34.99
0.80067	34.98
0.81733	34.96
0.83400	34.95
0.85067	34.96
0.86733	34.98
0.88400	34.98
0.90067	34.98
0.91733	34.98
0.93400	34.98
0.95067	34.98
0.96733	34.98
0.98400	34.97
1.00067	34.97
1.01733	34.97
1.03400	34.97
1.05067	34.97
1.06733	34.96
1.08400	34.95
1.10067	34.95
1.11733	34.96
1.13400	34.97
1.15067	34.98
1.16733	34.99
1.18400	34.99
1.20067	35.00
1.21733	35.00
1.23400	35.02
1.25067	35.03
1.26733	35.03
1.28400	35.01
1.30067	35.00
1.31733	35.00
1.33400	34.98
1.35067	34.99
1.36733	34.99
1.38400	35.00
1.40067	35.00
1.41733	35.01
1.43400	35.00
1.45067	34.99
1.46733	34.97
1.48400	34.96
1.50067	34.95
1.51733	34.96
1.53400	34.98
1.55067	34.99
1.56733	34.98
1.58400	34.99
1.60067	35.02
1.61733	35.12
1.63400	35.29
1.65067	35.52
1.66733	35.82
1.68400	36.18
1.70067	36.54
1.71733	36.88
1.73400	37.18
1.75067	37.53
1.76733	37.88
1.78400	38.19
1.80067	38.51
1.81733	38.84
1.83400	39.18
1.85067	39.50
1.86733	39.85
1.88400	40.18
1.90067	40.51
1.91733	40.84
1.93400	41.16
1.95067	41.50
1.96733	41.83
1.98400	42.15
2.00067	42.47
2.01733	42.80
2.03400	43.13
2.05067	43.46
2.06733	43.77
2.08400	44.08
2.10067	44.42
2.11733	44.73
2.13400	45.09
2.15067	45.40
2.16733	45.72
2.18400	46.06
2.20067	46.39
2.21733	46.69
2.23400	47.04
2.25067	47.34
2.26733	47.68
2.28400	48.02
2.30067	48.36
2.31733	48.66
2.33400	49.07
2.35067	49.39
2.36733	49.60
2.38400	49.66
2.40067	49.66
2.41733	49.67
2.43400	49.66
2.45067	49.68
2.46733	49.69
2.48400	49.72
2.50067	49.72
2.51733	49.74
2.53400	49.75
2.55067	49.77
2.56733	49.80
2.58400	49.79
2.60067	49.80
2.61733	49.83
2.63400	49.83
2.65067	49.83
2.66733	49.85
2.68400	49.86
2.70067	49.84
2.71733	49.84
2.73400	49.87
2.75067	49.88
2.76733	49.87
2.78400	49.87
2.80067	49.87
2.81733	49.86
2.83400	49.86
2.85067	49.87
2.86733	49.87
2.88400	49.87
2.90067	49.89
2.91733	49.91
2.93400	49.94
2.95067	49.96
2.96733	49.99
2.98400	50.00
3.00067	50.01
3.01733	50.02
3.03400	50.03
3.05067	50.04
3.06733	50.05
3.08400	50.05
3.10067	50.05
3.11733	50.05
3.13400	50.06
3.15067	50.07
3.16733	50.09
3.18400	50.10
3.20067	50.09
3.21733	50.09
3.23400	50.10
3.25067	50.11
3.26733	50.11
3.28400	50.10
3.30067	50.07
3.31733	50.06
3.33400	50.06
3.35067	50.06
3.36733	50.06
3.38400	50.05
3.40067	50.05
3.41733	50.05
3.43400	50.05
3.45067	50.05
3.46733	50.05
3.48400	50.04
3.50067	50.04
3.51733	50.05
3.53400	50.05
3.55067	50.06
3.56733	50.07
3.58400	50.07
3.60067	50.07
3.61733	50.07
3.63400	50.07
3.65067	50.06
3.66733	50.06
3.68400	50.07
3.70067	50.07
3.71733	50.06
3.73400	50.07
3.75067	50.06
3.76733	50.05
3.78400	50.04
3.80067	50.03
3.81733	50.04
3.83400	50.05
3.85067	50.06
3.86733	50.07
3.88400	50.07
3.90067	50.07
3.91733	50.06
3.93400	50.05
3.95067	50.05
3.96733	50.04
3.98400	50.03

[Status Trace (Injection Unit Temperature)]
Interval(msec)	1000
# of Points	240
Start Time(min)	0.001
End Time(min)	3.984
Intensity Units	
Intensity Multiplier	1
R.Time (min)	Intensity
0.00067	99.98
0.01733	99.98
0.03400	99.98
0.05067	99.98
0.06733	99.98
0.08400	99.98
0.10067	99.98
0.11733	99.98
0.13400	99.98
0.15067	99.99
0.16733	99.98
0.18400	99.98
0.20067	99.98
0.21733	99.98
0.23400	99.98
0.25067	99.98
0.26733	99.98
0.28400	99.98
0.30067	99.99
0.31733	99.98
0.33400	99.98
0.35067	99.98
0.36733	99.98
0.38400	99.98
0.40067	99.99
0.41733	99.99
0.43400	99.99
0.45067	99.99
0.46733	99.98
0.48400	99.98
0.50067	99.98
0.51733	99.98
0.53400	99.98
0.55067	99.98
0.56733	99.98
0.58400	99.98
0.60067	99.98
0.61733	99.98
0.63400	99.98
0.65067	99.99
0.66733	99.99
0.68400	99.98
0.70067	99.98
0.71733	99.98
0.73400	99.98
0.75067	99.98
0.76733	99.98
0.78400	99.98
0.80067	99.98
0.81733	99.98
0.83400	99.98
0.85067	99.98
0.86733	99.98
0.88400	99.98
0.90067	99.98
0.91733	99.98
0.93400	99.98
0.95067	99.98
0.96733	99.98
0.98400	99.98
1.00067	99.98
1.01733	99.98
1.03400	99.98
1.05067	99.98
1.06733	99.97
1.08400	99.97
1.10067	99.98
1.11733	99.97
1.13400	99.98
1.15067	99.97
1.16733	99.98
1.18400	99.98
1.20067	99.98
1.21733	99.98
1.23400	99.98
1.25067	99.98
1.26733	99.98
1.28400	99.98
1.30067	99.98
1.31733	99.97
1.33400	99.98
1.35067	99.98
1.36733	99.98
1.38400	99.98
1.40067	99.98
1.41733	99.98
1.43400	99.98
1.45067	99.98
1.46733	99.99
1.48400	99.98
1.50067	99.98
1.51733	99.98
1.53400	99.98
1.55067	99.99
1.56733	99.99
1.58400	99.99
1.60067	99.99
1.61733	99.99
1.63400	99.99
1.65067	99.99
1.66733	99.99
1.68400	99.99
1.70067	99.99
1.71733	99.99
1.73400	99.99
1.75067	99.99
1.76733	99.99
1.78400	99.99
1.80067	99.99
1.81733	99.99
1.83400	99.99
1.85067	99.99
1.86733	99.99
1.88400	99.99
1.90067	99.99
1.91733	99.99
1.93400	99.98
1.95067	99.98
1.96733	99.99
1.98400	99.98
2.00067	99.98
2.01733	99.98
2.03400	99.98
2.05067	99.97
2.06733	99.97
2.08400	99.98
2.10067	99.97
2.11733	99.98
2.13400	99.97
2.15067	99.97
2.16733	99.97
2.18400	99.97
2.20067	99.96
2.21733	99.96
2.23400	99.97
2.25067	99.96
2.26733	99.97
2.28400	99.96
2.30067	99.96
2.31733	99.96
2.33400	99.96
2.35067	99.96
2.36733	99.96
2.38400	99.96
2.40067	99.96
2.41733	99.96
2.43400	99.96
2.45067	99.96
2.46733	99.95
2.48400	99.96
2.50067	99.96
2.51733	99.95
2.53400	99.96
2.55067	99.96
2.56733	99.96
2.58400	99.97
2.60067	99.96
2.61733	99.97
2.63400	99.97
2.65067	99.97
2.66733	99.96
2.68400	99.97
2.70067	99.98
2.71733	99.98
2.73400	99.97
2.75067	99.98
2.76733	99.98
2.78400	99.99
2.80067	99.99
2.81733	99.99
2.83400	99.99
2.85067	99.99
2.86733	99.99
2.88400	99.99
2.90067	100.00
2.91733	100.00
2.93400	100.00
2.95067	100.00
2.96733	100.01
2.98400	100.01
3.00067	100.01
3.01733	100.01
3.03400	100.01
3.05067	100.01
3.06733	100.01
3.08400	100.02
3.10067	100.02
3.11733	100.02
3.13400	100.02
3.15067	100.02
3.16733	100.02
3.18400	100.02
3.20067	100.02
3.21733	100.03
3.23400	100.03
3.25067	100.03
3.26733	100.03
3.28400	100.03
3.30067	100.03
3.31733	100.04
3.33400	100.03
3.35067	100.04
3.36733	100.03
3.38400	100.04
3.40067	100.04
3.41733	100.03
3.43400	100.04
3.45067	100.04
3.46733	100.04
3.48400	100.04
3.50067	100.04
3.51733	100.04
3.53400	100.04
3.55067	100.04
3.56733	100.04
3.58400	100.04
3.60067	100.04
3.61733	100.05
3.63400	100.04
3.65067	100.04
3.66733	100.04
3.68400	100.04
3.70067	100.04
3.71733	100.04
3.73400	100.04
3.75067	100.04
3.76733	100.04
3.78400	100.04
3.80067	100.05
3.81733	100.05
3.83400	100.05
3.85067	100.05
3.86733	100.04
3.88400	100.05
3.90067	100.05
3.91733	100.05
3.93400	100.04
3.95067	100.05
3.96733	100.05
3.98400	100.05

[Status Trace (Carrier Gas Pressure)]
Interval(msec)	1000
# of Points	240
Start Time(min)	0.001
End Time(min)	3.984
Intensity Units	
Intensity Multiplier	1
R.Time (min)	Intensity
0.00067	58.00
0.01733	56.70
0.03400	56.07
0.05067	58.41
0.06733	59.90
0.08400	58.40
0.10067	57.97
0.11733	58.00
0.13400	58.01
0.15067	58.01
0.16733	58.00
0.18400	58.00
0.20067	58.00
0.21733	58.00
0.23400	58.00
0.25067	58.00
0.26733	58.00
0.28400	58.00
0.30067	58.00
0.31733	58.00
0.33400	58.00
0.35067	58.00
0.36733	58.00
0.38400	58.00
0.40067	58.00
0.41733	58.00
0.43400	58.00
0.45067	58.00
0.46733	58.00
0.48400	58.00
0.50067	58.00
0.51733	58.00
0.53400	58.00
0.55067	58.00
0.56733	58.00
0.58400	58.00
0.60067	58.00
0.61733	58.00
0.63400	58.00
0.65067	58.00
0.66733	58.00
0.68400	58.00
0.70067	58.00
0.71733	58.00
0.73400	58.00
0.75067	58.00
0.76733	58.00
0.78400	58.00
0.80067	58.00
0.81733	58.00
0.83400	58.00
0.85067	58.00
0.86733	58.00
0.88400	58.00
0.90067	58.00
0.91733	58.00
0.93400	58.00
0.95067	58.00
0.96733	58.00
0.98400	58.00
1.00067	58.00
1.01733	58.00
1.03400	58.00
1.05067	58.00
1.06733	58.00
1.08400	58.00
1.10067	58.00
1.11733	58.00
1.13400	58.00
1.15067	58.00
1.16733	58.00
1.18400	58.00
1.20067	58.00
1.21733	58.00
1.23400	58.00
1.25067	58.00
1.26733	58.00
1.28400	58.00
1.30067	58.00
1.31733	58.00
1.33400	58.00
1.35067	58.00
1.36733	58.00
1.38400	58.00
1.40067	58.00
1.41733	58.00
1.43400	58.00
1.45067	58.00
1.46733	58.00
1.48400	58.00
1.50067	58.00
1.51733	58.00
1.53400	58.00
1.55067	58.00
1.56733	58.00
1.58400	58.00
1.60067	58.00
1.61733	58.00
1.63400	58.00
1.65067	58.00
1.66733	58.01
1.68400	58.01
1.70067	58.00
1.71733	58.00
1.73400	58.00
1.75067	58.00
1.76733	58.00
1.78400	58.00
1.80067	58.00
1.81733	58.00
1.83400	58.00
1.85067	58.00
1.86733	58.00
1.88400	58.00
1.90067	58.00
1.91733	58.00
1.93400	58.00
1.95067	58.00
1.96733	58.00
1.98400	58.00
2.00067	58.00
2.01733	58.00
2.03400	58.00
2.05067	58.00
2.06733	58.00
2.08400	58.00
2.10067	58.00
2.11733	58.00
2.13400	58.00
2.15067	58.00
2.16733	58.00
2.18400	58.00
2.20067	58.00
2.21733	58.00
2.23400	58.00
2.25067	58.00
2.26733	58.00
2.28400	58.00
2.30067	58.00
2.31733	58.00
2.33400	58.00
2.35067	58.00
2.36733	57.99
2.38400	57.99
2.40067	57.99
2.41733	58.00
2.43400	58.00
2.45067	58.00
2.46733	58.00
2.48400	58.00
2.50067	58.00
2.51733	57.98
2.53400	57.99
2.55067	58.00
2.56733	58.00
2.58400	58.00
2.60067	58.00
2.61733	58.00
2.63400	58.00
2.65067	58.00
2.66733	58.00
2.68400	58.00
2.70067	58.00
2.71733	58.00
2.73400	58.00
2.75067	58.00
2.76733	58.00
2.78400	58.00
2.80067	58.00
2.81733	58.00
2.83400	58.00
2.85067	58.00
2.86733	58.00
2.88400	58.00
2.90067	58.00
2.91733	58.00
2.93400	58.00
2.95067	58.00
2.96733	58.00
2.98400	58.00
3.00067	58.00
3.01733	58.00
3.03400	58.00
3.05067	58.00
3.06733	58.00
3.08400	58.00
3.10067	58.00
3.11733	58.00
3.13400	58.00
3.15067	58.00
3.16733	58.00
3.18400	58.00
3.20067	58.00
3.21733	58.00
3.23400	58.00
3.25067	58.00
3.26733	58.00
3.28400	58.00
3.30067	58.00
3.31733	58.00
3.33400	58.00
3.35067	58.00
3.36733	58.00
3.38400	58.00
3.40067	58.00
3.41733	58.00
3.43400	58.00
3.45067	58.00
3.46733	58.00
3.48400	58.00
3.50067	58.00
3.51733	58.00
3.53400	58.00
3.55067	58.00
3.56733	58.00
3.58400	58.00
3.60067	58.00
3.61733	58.00
3.63400	58.00
3.65067	58.00
3.66733	58.00
3.68400	58.00
3.70067	58.00
3.71733	58.00
3.73400	58.00
3.75067	58.00
3.76733	58.00
3.78400	58.00
3.80067	58.00
3.81733	58.00
3.83400	58.00
3.85067	58.00
3.86733	58.00
3.88400	58.00
3.90067	58.00
3.91733	58.00
3.93400	58.00
3.95067	58.00
3.96733	58.00
3.98400	58.00

[Status Trace (Carrier Gas Flow)]
Interval(msec)	1000
# of Points	240
Start Time(min)	0.001
End Time(min)	3.984
Intensity Units	
Intensity Multiplier	1
R.Time (min)	Intensity
0.00067	34.51
0.01733	33.71
0.03400	34.54
0.05067	34.55
0.06733	34.50
0.08400	34.51
0.10067	34.51
0.11733	34.52
0.13400	34.52
0.15067	34.52
0.16733	34.52
0.18400	34.52
0.20067	34.52
0.21733	34.52
0.23400	34.52
0.25067	34.52
0.26733	34.52
0.28400	34.52
0.30067	34.52
0.31733	34.52
0.33400	34.52
0.35067	34.52
0.36733	34.52
0.38400	34.51
0.40067	34.52
0.41733	34.52
0.43400	34.51
0.45067	34.52
0.46733	34.52
0.48400	34.53
0.50067	34.53
0.51733	34.51
0.53400	34.52
0.55067	34.52
0.56733	34.52
0.58400	34.52
0.60067	34.52
0.61733	34.52
0.63400	34.52
0.65067	34.52
0.66733	34.52
0.68400	34.52
0.70067	34.52
0.71733	34.52
0.73400	34.51
0.75067	34.52
0.76733	34.52
0.78400	34.52
0.80067	34.52
0.81733	34.52
0.83400	34.52
0.85067	34.52
0.86733	34.52
0.88400	34.52
0.90067	34.52
0.91733	34.52
0.93400	34.52
0.95067	34.52
0.96733	34.52
0.98400	34.52
1.00067	34.52
1.01733	34.51
1.03400	34.52
1.05067	34.52
1.06733	34.52
1.08400	34.52
1.10067	34.52
1.11733	34.51
1.13400	34.52
1.15067	34.52
1.16733	34.52
1.18400	34.51
1.20067	34.52
1.21733	34.52
1.23400	34.52
1.25067	34.52
1.26733	34.52
1.28400	34.52
1.30067	34.52
1.31733	34.52
1.33400	34.52
1.35067	34.52
1.36733	34.52
1.38400	34.52
1.40067	34.52
1.41733	34.52
1.43400	34.52
1.45067	34.52
1.46733	34.52
1.48400	34.52
1.50067	34.52
1.51733	34.51
1.53400	34.52
1.55067	34.52
1.56733	34.52
1.58400	34.52
1.60067	34.52
1.61733	34.51
1.63400	34.53
1.65067	34.52
1.66733	34.52
1.68400	34.52
1.70067	34.52
1.71733	34.52
1.73400	34.52
1.75067	34.52
1.76733	34.52
1.78400	34.52
1.80067	34.52
1.81733	34.52
1.83400	34.52
1.85067	34.52
1.86733	34.52
1.88400	34.51
1.90067	34.52
1.91733	34.52
1.93400	34.52
1.95067	34.52
1.96733	34.52
1.98400	34.51
2.00067	34.52
2.01733	34.52
2.03400	34.53
2.05067	34.51
2.06733	34.52
2.08400	34.52
2.10067	34.51
2.11733	34.53
2.13400	34.53
2.15067	34.52
2.16733	34.52
2.18400	34.52
2.20067	34.52
2.21733	34.51
2.23400	34.52
2.25067	34.52
2.26733	34.53
2.28400	34.53
2.30067	34.51
2.31733	34.51
2.33400	34.52
2.35067	34.52
2.36733	34.52
2.38400	34.53
2.40067	34.52
2.41733	34.53
2.43400	34.52
2.45067	34.52
2.46733	34.52
2.48400	34.52
2.50067	34.52
2.51733	34.51
2.53400	34.52
2.55067	34.52
2.56733	34.52
2.58400	34.52
2.60067	34.51
2.61733	34.52
2.63400	34.52
2.65067	34.52
2.66733	34.51
2.68400	34.52
2.70067	34.52
2.71733	34.52
2.73400	34.52
2.75067	34.52
2.76733	34.52
2.78400	34.52
2.80067	34.52
2.81733	34.52
2.83400	34.52
2.85067	34.52
2.86733	34.51
2.88400	34.52
2.90067	34.52
2.91733	34.52
2.93400	34.52
2.95067	34.52
2.96733	34.52
2.98400	34.52
3.00067	34.52
3.01733	34.52
3.03400	34.52
3.05067	34.53
3.06733	34.52
3.08400	34.52
3.10067	34.52
3.11733	34.52
3.13400	34.52
3.15067	34.52
3.16733	34.51
3.18400	34.52
3.20067	34.52
3.21733	34.52
3.23400	34.52
3.25067	34.52
3.26733	34.51
3.28400	34.52
3.30067	34.52
3.31733	34.52
3.33400	34.52
3.35067	34.52
3.36733	34.53
3.38400	34.52
3.40067	34.52
3.41733	34.52
3.43400	34.52
3.45067	34.52
3.46733	34.51
3.48400	34.51
3.50067	34.51
3.51733	34.51
3.53400	34.51
3.55067	34.52
3.56733	34.52
3.58400	34.53
3.60067	34.51
3.61733	34.52
3.63400	34.52
3.65067	34.52
3.66733	34.52
3.68400	34.52
3.70067	34.52
3.71733	34.52
3.73400	34.52
3.75067	34.51
3.76733	34.52
3.78400	34.52
3.80067	34.52
3.81733	34.52
3.83400	34.52
3.85067	34.52
3.86733	34.52
3.88400	34.52
3.90067	34.52
3.91733	34.52
3.93400	34.52
3.95067	34.52
3.96733	34.52
3.98400	34.52

[Status Trace (Column Flow)]
Interval(msec)	1000
# of Points	240
Start Time(min)	0.001
End Time(min)	3.984
Intensity Units	
Intensity Multiplier	1
R.Time (min)	Intensity
0.00067	5.57
0.01733	5.42
0.03400	5.34
0.05067	5.62
0.06733	5.79
0.08400	5.62
0.10067	5.57
0.11733	5.57
0.13400	5.57
0.15067	5.57
0.16733	5.57
0.18400	5.57
0.20067	5.57
0.21733	5.57
0.23400	5.57
0.25067	5.57
0.26733	5.57
0.28400	5.57
0.30067	5.57
0.31733	5.57
0.33400	5.57
0.35067	5.57
0.36733	5.57
0.38400	5.57
0.40067	5.57
0.41733	5.57
0.43400	5.57
0.45067	5.57
0.46733	5.57
0.48400	5.57
0.50067	5.57
0.51733	5.57
0.53400	5.57
0.55067	5.57
0.56733	5.57
0.58400	5.57
0.60067	5.57
0.61733	5.57
0.63400	5.57
0.65067	5.57
0.66733	5.57
0.68400	5.57
0.70067	5.57
0.71733	5.57
0.73400	5.57
0.75067	5.57
0.76733	5.57
0.78400	5.57
0.80067	5.57
0.81733	5.57
0.83400	5.57
0.85067	5.57
0.86733	5.57
0.88400	5.57
0.90067	5.57
0.91733	5.57
0.93400	5.57
0.95067	5.57
0.96733	5.57
0.98400	5.57
1.00067	5.57
1.01733	5.57
1.03400	5.57
1.05067	5.57
1.06733	5.57
1.08400	5.57
1.10067	5.57
1.11733	5.57
1.13400	5.57
1.15067	5.57
1.16733	5.57
1.18400	5.57
1.20067	5.57
1.21733	5.57
1.23400	5.57
1.25067	5.57
1.26733	5.57
1.28400	5.57
1.30067	5.57
1.31733	5.57
1.33400	5.57
1.35067	5.57
1.36733	5.57
1.38400	5.57
1.40067	5.57
1.41733	5.57
1.43400	5.57
1.45067	5.57
1.46733	5.57
1.48400	5.57
1.50067	5.57
1.51733	5.57
1.53400	5.57
1.55067	5.57
1.56733	5.57
1.58400	5.57
1.60067	5.57
1.61733	5.57
1.63400	5.56
1.65067	5.56
1.66733	5.55
1.68400	5.54
1.70067	5.52
1.71733	5.51
1.73400	5.50
1.75067	5.49
1.76733	5.48
1.78400	5.47
1.80067	5.46
1.81733	5.45
1.83400	5.44
1.85067	5.43
1.86733	5.42
1.88400	5.41
1.90067	5.40
1.91733	5.39
1.93400	5.38
1.95067	5.37
1.96733	5.36
1.98400	5.35
2.00067	5.34
2.01733	5.33
2.03400	5.32
2.05067	5.31
2.06733	5.31
2.08400	5.30
2.10067	5.29
2.11733	5.28
2.13400	5.27
2.15067	5.26
2.16733	5.25
2.18400	5.24
2.20067	5.23
2.21733	5.22
2.23400	5.21
2.25067	5.20
2.26733	5.19
2.28400	5.18
2.30067	5.17
2.31733	5.16
2.33400	5.15
2.35067	5.14
2.36733	5.14
2.38400	5.13
2.40067	5.13
2.41733	5.13
2.43400	5.13
2.45067	5.13
2.46733	5.13
2.48400	5.13
2.50067	5.13
2.51733	5.13
2.53400	5.13
2.55067	5.13
2.56733	5.13
2.58400	5.13
2.60067	5.13
2.61733	5.13
2.63400	5.13
2.65067	5.13
2.66733	5.13
2.68400	5.13
2.70067	5.13
2.71733	5.13
2.73400	5.13
2.75067	5.13
2.76733	5.13
2.78400	5.13
2.80067	5.13
2.81733	5.13
2.83400	5.13
2.85067	5.13
2.86733	5.13
2.88400	5.13
2.90067	5.13
2.91733	5.13
2.93400	5.13
2.95067	5.13
2.96733	5.13
2.98400	5.13
3.00067	5.13
3.01733	5.13
3.03400	5.12
3.05067	5.12
3.06733	5.12
3.08400	5.12
3.10067	5.12
3.11733	5.12
3.13400	5.12
3.15067	5.12
3.16733	5.12
3.18400	5.12
3.20067	5.12
3.21733	5.12
3.23400	5.12
3.25067	5.12
3.26733	5.12
3.28400	5.12
3.30067	5.12
3.31733	5.12
3.33400	5.12
3.35067	5.12
3.36733	5.12
3.38400	5.12
3.40067	5.12
3.41733	5.12
3.43400	5.12
3.45067	5.12
3.46733	5.12
3.48400	5.12
3.50067	5.12
3.51733	5.12
3.53400	5.12
3.55067	5.12
3.56733	5.12
3.58400	5.12
3.60067	5.12
3.61733	5.12
3.63400	5.12
3.65067	5.12
3.66733	5.12
3.68400	5.12
3.70067	5.12
3.71733	5.12
3.73400	5.12
3.75067	5.12
3.76733	5.12
3.78400	5.12
3.80067	5.12
3.81733	5.12
3.83400	5.12
3.85067	5.12
3.86733	5.12
3.88400	5.12
3.90067	5.12
3.91733	5.12
3.93400	5.12
3.95067	5.12
3.96733	5.12
3.98400	5.12

[Status Trace (Linear Velocity)]
Interval(msec)	1000
# of Points	240
Start Time(min)	0.001
End Time(min)	3.984
Intensity Units	
Intensity Multiplier	1
R.Time (min)	Intensity
0.00067	39.02
0.01733	38.17
0.03400	37.75
0.05067	39.29
0.06733	40.26
0.08400	39.28
0.10067	39.00
0.11733	39.02
0.13400	39.03
0.15067	39.03
0.16733	39.02
0.18400	39.02
0.20067	39.03
0.21733	39.03
0.23400	39.03
0.25067	39.03
0.26733	39.03
0.28400	39.03
0.30067	39.03
0.31733	39.03
0.33400	39.03
0.35067	39.03
0.36733	39.03
0.38400	39.03
0.40067	39.03
0.41733	39.03
0.43400	39.03
0.45067	39.03
0.46733	39.03
0.48400	39.03
0.50067	39.03
0.51733	39.03
0.53400	39.03
0.55067	39.03
0.56733	39.03
0.58400	39.03
0.60067	39.03
0.61733	39.03
0.63400	39.03
0.65067	39.03
0.66733	39.03
0.68400	39.03
0.70067	39.03
0.71733	39.03
0.73400	39.03
0.75067	39.03
0.76733	39.03
0.78400	39.03
0.80067	39.03
0.81733	39.03
0.83400	39.03
0.85067	39.03
0.86733	39.03
0.88400	39.03
0.90067	39.03
0.91733	39.03
0.93400	39.03
0.95067	39.03
0.96733	39.03
0.98400	39.03
1.00067	39.03
1.01733	39.03
1.03400	39.03
1.05067	39.03
1.06733	39.03
1.08400	39.03
1.10067	39.03
1.11733	39.03
1.13400	39.03
1.15067	39.03
1.16733	39.03
1.18400	39.03
1.20067	39.03
1.21733	39.03
1.23400	39.03
1.25067	39.03
1.26733	39.03
1.28400	39.03
1.30067	39.03
1.31733	39.03
1.33400	39.03
1.35067	39.03
1.36733	39.03
1.38400	39.03
1.40067	39.03
1.41733	39.03
1.43400	39.03
1.45067	39.03
1.46733	39.03
1.48400	39.03
1.50067	39.03
1.51733	39.03
1.53400	39.03
1.55067	39.03
1.56733	39.03
1.58400	39.03
1.60067	39.03
1.61733	39.02
1.63400	39.00
1.65067	38.98
1.66733	38.96
1.68400	38.92
1.70067	38.88
1.71733	38.85
1.73400	38.82
1.75067	38.79
1.76733	38.76
1.78400	38.72
1.80067	38.69
1.81733	38.67
1.83400	38.63
1.85067	38.60
1.86733	38.57
1.88400	38.54
1.90067	38.51
1.91733	38.48
1.93400	38.45
1.95067	38.41
1.96733	38.39
1.98400	38.35
2.00067	38.32
2.01733	38.30
2.03400	38.26
2.05067	38.23
2.06733	38.21
2.08400	38.18
2.10067	38.15
2.11733	38.12
2.13400	38.08
2.15067	38.06
2.16733	38.03
2.18400	38.00
2.20067	37.97
2.21733	37.94
2.23400	37.91
2.25067	37.88
2.26733	37.85
2.28400	37.82
2.30067	37.79
2.31733	37.77
2.33400	37.73
2.35067	37.70
2.36733	37.68
2.38400	37.67
2.40067	37.67
2.41733	37.67
2.43400	37.67
2.45067	37.67
2.46733	37.67
2.48400	37.67
2.50067	37.67
2.51733	37.66
2.53400	37.66
2.55067	37.67
2.56733	37.66
2.58400	37.66
2.60067	37.66
2.61733	37.66
2.63400	37.66
2.65067	37.66
2.66733	37.66
2.68400	37.66
2.70067	37.66
2.71733	37.66
2.73400	37.66
2.75067	37.65
2.76733	37.65
2.78400	37.66
2.80067	37.66
2.81733	37.66
2.83400	37.66
2.85067	37.66
2.86733	37.66
2.88400	37.66
2.90067	37.65
2.91733	37.65
2.93400	37.65
2.95067	37.65
2.96733	37.65
2.98400	37.64
3.00067	37.64
3.01733	37.64
3.03400	37.64
3.05067	37.64
3.06733	37.64
3.08400	37.64
3.10067	37.64
3.11733	37.64
3.13400	37.64
3.15067	37.64
3.16733	37.64
3.18400	37.64
3.20067	37.64
3.21733	37.64
3.23400	37.64
3.25067	37.63
3.26733	37.63
3.28400	37.63
3.30067	37.64
3.31733	37.64
3.33400	37.64
3.35067	37.64
3.36733	37.64
3.38400	37.64
3.40067	37.64
3.41733	37.64
3.43400	37.64
3.45067	37.64
3.46733	37.64
3.48400	37.64
3.50067	37.64
3.51733	37.64
3.53400	37.64
3.55067	37.64
3.56733	37.64
3.58400	37.64
3.60067	37.64
3.61733	37.64
3.63400	37.64
3.65067	37.64
3.66733	37.64
3.68400	37.64
3.70067	37.64
3.71733	37.64
3.73400	37.64
3.75067	37.64
3.76733	37.64
3.78400	37.64
3.80067	37.64
3.81733	37.64
3.83400	37.64
3.85067	37.64
3.86733	37.64
3.88400	37.64
3.90067	37.64
3.91733	37.64
3.93400	37.64
3.95067	37.64
3.96733	37.64
3.98400	37.64

