[Header]
Application Name	LabSolutions
Version	5.110
Data File Name	C:\Users\User\Desktop\GC Analyses\Jack\Nachusa Grasslands Sampling\T0 Timepoint July 12th\T0_07122022_032.gcd
Output Date	3/14/2023
Output Time	3:40:35 PM

[File Information]
Type	Data File
Generated	3/7/2023 5:16:01 PM
Generated by	System Administrator
Modified	3/7/2023 5:22:40 PM
Modified by	System Administrator

[Sample Information]
Operator Name	System Administrator
Acquired	3/7/2023 5:18:39 PM
Sample Type	0:Unknown
Level	0
Sample Name	032
Sample ID	032
ISTD Amount1	1
ISTD Amount2	1
ISTD Amount3	1
ISTD Amount4	1
ISTD Amount5	1
ISTD Amount6	1
ISTD Amount7	1
ISTD Amount8	1
ISTD Amount9	1
ISTD Amount10	1
ISTD Amount11	1
ISTD Amount12	1
ISTD Amount13	1
ISTD Amount14	1
ISTD Amount15	1
ISTD Amount16	1
ISTD Amount17	1
ISTD Amount18	1
ISTD Amount19	1
ISTD Amount20	1
ISTD Amount21	1
ISTD Amount22	1
ISTD Amount23	1
ISTD Amount24	1
ISTD Amount25	1
ISTD Amount26	1
ISTD Amount27	1
ISTD Amount28	1
ISTD Amount29	1
ISTD Amount30	1
ISTD Amount31	1
ISTD Amount32	1
Sample Amount	1
Dilution Factor	1
Vial#	31
Injection Volume	1
Injection Count	1
Bar Code	

[Original Files]
Data File	C:\Users\User\Desktop\GC Analyses\Jack\Nachusa Grasslands Sampling\T0 Timepoint July 12th\T0_07122022_032.gcd
Method File	C:\LabSolutions\Data\GHG_4min_2022\ghg3_togas_w_acet_4 min_new_int.gcm
Batch File	C:\LabSolutions\Data\AutoSamplerTesting\T0_07122022.gcb
Report Format File	c:\LabSolutions\System\DEFAULT.lsr

[File Description]


[Configuration]
Instrument Name	C0B7VH3-Instrument1
Instrument #	1
Line #	1
# of Detectors	3
Detector ID	DET#1	DET#2	DET#3
Detector Name	FID	PTCD	ECD
# of Channels	1	1	1

[Peak Table(Ch1)]
# of Peaks	3
Peak#	R.Time	I.Time	F.Time	Area	Height	A/H	Conc.	Mark	ID#	Name	k'	Plate #	Plate Ht.	Tailing	Resolution	Sep.Factor	Area Ratio	Height Ratio	Conc. %	Norm Conc.
1	1.476	1.439	1.538	26750	12570	2.128	188.853	   	1	CO	0.000	9069	16.540	1.343	0.000	0.000	0	0	32.276	32.276
2	1.567	1.538	1.644	4990	2353	2.121	96.492	 V 	2	CH4	0.062	10252	14.631	0.000	1.480	0.000	0	0	16.491	16.491
3	1.996	1.952	2.590	1194455	561446	2.127	299.776	   	3	CO2	0.353	17316	8.663	1.322	6.998	5.680	0	0	51.233	51.233

[Peak Table(Ch2)]
# of Peaks	0

[Peak Table(Ch3)]
# of Peaks	5
Peak#	R.Time	I.Time	F.Time	Area	Height	A/H	Conc.	Mark	ID#	Name	k'	Plate #	Plate Ht.	Tailing	Resolution	Sep.Factor	Area Ratio	Height Ratio	Conc. %	Norm Conc.
1	2.462	2.337	2.521	1263	333	3.799	0.000	   			0.000	6319	23.737	0.000	0.000	0.000	0	0	0.000	0.000
2	2.550	2.521	2.638	940	197	4.783	0.000	 V 			0.036	2749	54.561	0.000	0.553	0.000	0	0	0.000	0.000
3	2.708	2.660	2.755	188	51	3.673	0.000	   			0.100	11061	13.562	1.001	1.060	2.792	0	0	0.000	0.000
4	2.873	2.810	3.023	16586	4559	3.638	0.424	   	1	N2O	0.167	13804	10.866	1.589	1.644	1.672	0	0	100.000	100.000
5	3.346	3.184	3.962	13286	600	22.133	0.000	   	2	SF6	0.359	548	273.519	2.271	1.413	2.152	0	0	0.000	0.000

[Compound Results(Ch1)]
# of IDs	6
ID#	Name	R.Time	Area	Height	Conc.	Curve	3rd	2nd	1st	Constant	Area Ratio	Height Ratio	Conc. %	Norm Conc.
1	CO	1.476	26750	12570	188.853	Linear	0.000000e+00	0.000000e+00	1.416423e+002	0.000000e+00	0	0	32.276	32.276
2	CH4	1.567	4990	2353	96.492	Linear	0.000000e+00	0.000000e+00	5.171738e+001	0.000000e+00	0	0	16.491	16.491
3	CO2	1.996	1194455	561446	299.776	Linear	0.000000e+00	0.000000e+00	3.984494e+003	0.000000e+00	0	0	51.233	51.233
4	Ethylene	0.000	0	0	0.000	Linear	0.000000e+00	0.000000e+00	0.000000e+00	0.000000e+00	0	0	0.000	0.000
5	Acetylene	0.000	0	0	0.000	Linear	0.000000e+00	0.000000e+00	0.000000e+00	0.000000e+00	0	0	0.000	0.000
6	Ethane	0.000	0	0	0.000	Linear	0.000000e+00	0.000000e+00	0.000000e+00	0.000000e+00	0	0	0.000	0.000

[Compound Results(Ch2)]
# of IDs	5
ID#	Name	R.Time	Area	Height	Conc.	Curve	3rd	2nd	1st	Constant	Area Ratio	Height Ratio	Conc. %	Norm Conc.
1	Hydrogen	0.000	0	0	0.000	Linear	0.000000e+00	0.000000e+00	0.000000e+00	0.000000e+00	0	0	0.000	0.000
2	Oxygen	0.000	0	0	0.000	Linear	0.000000e+00	0.000000e+00	0.000000e+00	0.000000e+00	0	0	0.000	0.000
3	Nitrogen	0.000	0	0	0.000	Linear	0.000000e+00	0.000000e+00	0.000000e+00	0.000000e+00	0	0	0.000	0.000
4	Methane	0.000	0	0	0.000	Linear	0.000000e+00	0.000000e+00	0.000000e+00	0.000000e+00	0	0	0.000	0.000
5	Carbon Monoxide	0.000	0	0	0.000	Linear	0.000000e+00	0.000000e+00	0.000000e+00	0.000000e+00	0	0	0.000	0.000

[Compound Results(Ch3)]
# of IDs	2
ID#	Name	R.Time	Area	Height	Conc.	Curve	3rd	2nd	1st	Constant	Area Ratio	Height Ratio	Conc. %	Norm Conc.
1	N2O	2.873	16586	4559	0.424	Linear	0.000000e+00	0.000000e+00	3.915173e+004	0.000000e+00	0	0	100.000	100.000
2	SF6	3.346	13286	600	0.000	Linear	0.000000e+00	0.000000e+00	0.000000e+00	0.000000e+00	0	0	0.000	0.000

[Group Results(Ch1)]
# of Groups	0

[Group Results(Ch2)]
# of Groups	0

[Group Results(Ch3)]
# of Groups	0

[Chromatogram (Ch1)]
Interval(msec)	220
# of Points	1091
Start Time(min)	0.002
End Time(min)	3.998
R.Time (min)	Intensity
0.00167	-40
0.00533	-35
0.00900	-27
0.01267	-20
0.01633	-15
0.02000	-6
0.02367	5
0.02733	12
0.03100	12
0.03467	6
0.03833	-1
0.04200	-7
0.04567	-13
0.04933	-18
0.05300	-19
0.05667	-18
0.06033	-14
0.06400	-8
0.06767	-4
0.07133	-3
0.07500	-4
0.07867	-5
0.08233	-4
0.08600	-0
0.08967	5
0.09333	11
0.09700	17
0.10067	20
0.10433	16
0.10800	13
0.11167	14
0.11533	18
0.11900	20
0.12267	18
0.12633	12
0.13000	5
0.13367	0
0.13733	-4
0.14100	-6
0.14467	-8
0.14833	-11
0.15200	-12
0.15567	-12
0.15933	-11
0.16300	-10
0.16667	-8
0.17033	-4
0.17400	1
0.17767	4
0.18133	4
0.18500	3
0.18867	2
0.19233	4
0.19600	8
0.19967	11
0.20333	15
0.20700	18
0.21067	19
0.21433	20
0.21800	23
0.22167	31
0.22533	39
0.22900	45
0.23267	48
0.23633	49
0.24000	50
0.24367	50
0.24733	50
0.25100	52
0.25467	60
0.25833	72
0.26200	82
0.26567	87
0.26933	90
0.27300	92
0.27667	94
0.28033	94
0.28400	94
0.28767	95
0.29133	94
0.29500	95
0.29867	97
0.30233	102
0.30600	109
0.30967	117
0.31333	129
0.31700	140
0.32067	144
0.32433	139
0.32800	131
0.33167	128
0.33533	128
0.33900	128
0.34267	125
0.34633	126
0.35000	126
0.35367	124
0.35733	121
0.36100	117
0.36467	109
0.36833	103
0.37200	100
0.37567	100
0.37933	98
0.38300	92
0.38667	85
0.39033	81
0.39400	79
0.39767	77
0.40133	72
0.40500	63
0.40867	54
0.41233	48
0.41600	45
0.41967	45
0.42333	45
0.42700	47
0.43067	50
0.43433	52
0.43800	50
0.44167	47
0.44533	40
0.44900	28
0.45267	18
0.45633	12
0.46000	9
0.46367	8
0.46733	11
0.47100	12
0.47467	12
0.47833	11
0.48200	9
0.48567	4
0.48933	1
0.49300	2
0.49667	6
0.50033	13
0.50400	20
0.50767	25
0.51133	27
0.51500	27
0.51867	28
0.52233	34
0.52600	40
0.52967	42
0.53333	38
0.53700	33
0.54067	26
0.54433	21
0.54800	21
0.55167	19
0.55533	15
0.55900	13
0.56267	11
0.56633	10
0.57000	9
0.57367	7
0.57733	8
0.58100	9
0.58467	13
0.58833	16
0.59200	19
0.59567	22
0.59933	24
0.60300	26
0.60667	32
0.61033	41
0.61400	49
0.61767	48
0.62133	37
0.62500	26
0.62867	18
0.63233	9
0.63600	0
0.63967	-5
0.64333	-6
0.64700	-3
0.65067	-1
0.65433	3
0.65800	7
0.66167	10
0.66533	9
0.66900	3
0.67267	-2
0.67633	-3
0.68000	2
0.68367	12
0.68733	25
0.69100	36
0.69467	42
0.69833	42
0.70200	36
0.70567	27
0.70933	21
0.71300	15
0.71667	8
0.72033	3
0.72400	0
0.72767	-1
0.73133	-2
0.73500	-1
0.73867	-1
0.74233	-0
0.74600	-1
0.74967	-2
0.75333	-0
0.75700	1
0.76067	1
0.76433	0
0.76800	-2
0.77167	-2
0.77533	1
0.77900	6
0.78267	9
0.78633	13
0.79000	19
0.79367	24
0.79733	26
0.80100	24
0.80467	17
0.80833	8
0.81200	-1
0.81567	-6
0.81933	-5
0.82300	-2
0.82667	1
0.83033	4
0.83400	2
0.83767	-6
0.84133	-12
0.84500	-14
0.84867	-12
0.85233	-8
0.85600	-1
0.85967	7
0.86333	13
0.86700	12
0.87067	8
0.87433	7
0.87800	10
0.88167	10
0.88533	4
0.88900	-6
0.89267	-13
0.89633	-17
0.90000	-20
0.90367	-24
0.90733	-26
0.91100	-27
0.91467	-26
0.91833	-24
0.92200	-23
0.92567	-21
0.92933	-20
0.93300	-16
0.93667	-12
0.94033	-13
0.94400	-17
0.94767	-20
0.95133	-21
0.95500	-20
0.95867	-17
0.96233	-13
0.96600	-9
0.96967	-4
0.97333	-3
0.97700	-6
0.98067	-10
0.98433	-10
0.98800	-9
0.99167	-7
0.99533	-4
0.99900	-1
1.00267	0
1.00633	-2
1.01000	-6
1.01367	-7
1.01733	-4
1.02100	0
1.02467	4
1.02833	6
1.03200	5
1.03567	2
1.03933	-4
1.04300	-12
1.04667	-18
1.05033	-22
1.05400	-24
1.05767	-22
1.06133	-17
1.06500	-13
1.06867	-12
1.07233	-13
1.07600	-16
1.07967	-19
1.08333	-20
1.08700	-21
1.09067	-20
1.09433	-21
1.09800	-23
1.10167	-27
1.10533	-29
1.10900	-25
1.11267	-21
1.11633	-17
1.12000	-13
1.12367	-8
1.12733	-5
1.13100	-5
1.13467	-9
1.13833	-17
1.14200	-22
1.14567	-25
1.14933	-28
1.15300	-29
1.15667	-28
1.16033	-30
1.16400	-35
1.16767	-38
1.17133	-41
1.17500	-40
1.17867	-36
1.18233	-31
1.18600	-25
1.18967	-19
1.19333	-14
1.19700	-10
1.20067	-8
1.20433	-13
1.20800	-25
1.21167	-39
1.21533	-52
1.21900	-60
1.22267	-65
1.22633	-69
1.23000	-71
1.23367	-68
1.23733	-62
1.24100	-57
1.24467	-52
1.24833	-46
1.25200	-40
1.25567	-34
1.25933	-31
1.26300	-25
1.26667	-22
1.27033	-22
1.27400	-27
1.27767	-36
1.28133	-46
1.28500	-48
1.28867	-50
1.29233	-52
1.29600	-52
1.29967	-48
1.30333	-39
1.30700	-29
1.31067	-22
1.31433	-18
1.31800	-19
1.32167	-23
1.32533	-26
1.32900	-28
1.33267	-27
1.33633	-26
1.34000	-22
1.34367	-18
1.34733	-20
1.35100	-28
1.35467	-38
1.35833	-52
1.36200	-63
1.36567	-69
1.36933	-72
1.37300	-70
1.37667	-66
1.38033	-59
1.38400	-48
1.38767	-36
1.39133	-25
1.39500	-16
1.39867	-6
1.40233	4
1.40600	13
1.40967	20
1.41333	19
1.41700	9
1.42067	-2
1.42433	-11
1.42800	-17
1.43167	-21
1.43533	-18
1.43900	3
1.44267	83
1.44633	288
1.45000	789
1.45367	1960
1.45733	3943
1.46100	6360
1.46467	8686
1.46833	10589
1.47200	11922
1.47567	12576
1.47933	12436
1.48300	11484
1.48667	9895
1.49033	8005
1.49400	6158
1.49767	4571
1.50133	3321
1.50500	2389
1.50867	1718
1.51233	1247
1.51600	919
1.51967	692
1.52333	534
1.52700	425
1.53067	351
1.53433	302
1.53800	277
1.54167	309
1.54533	463
1.54900	770
1.55267	1181
1.55633	1604
1.56000	1963
1.56367	2225
1.56733	2367
1.57100	2354
1.57467	2174
1.57833	1857
1.58200	1481
1.58567	1120
1.58933	818
1.59300	587
1.59667	422
1.60033	304
1.60400	219
1.60767	160
1.61133	120
1.61500	94
1.61867	81
1.62233	74
1.62600	68
1.62967	61
1.63333	51
1.63700	40
1.64067	29
1.64433	21
1.64800	17
1.65167	14
1.65533	12
1.65900	8
1.66267	5
1.66633	7
1.67000	13
1.67367	22
1.67733	30
1.68100	31
1.68467	27
1.68833	17
1.69200	3
1.69567	-7
1.69933	-10
1.70300	-7
1.70667	0
1.71033	10
1.71400	21
1.71767	27
1.72133	25
1.72500	17
1.72867	7
1.73233	-0
1.73600	-3
1.73967	1
1.74333	9
1.74700	12
1.75067	13
1.75433	13
1.75800	9
1.76167	7
1.76533	7
1.76900	6
1.77267	5
1.77633	7
1.78000	9
1.78367	10
1.78733	9
1.79100	8
1.79467	9
1.79833	11
1.80200	14
1.80567	14
1.80933	14
1.81300	10
1.81667	4
1.82033	-2
1.82400	-3
1.82767	-2
1.83133	0
1.83500	3
1.83867	5
1.84233	8
1.84600	13
1.84967	17
1.85333	19
1.85700	21
1.86067	22
1.86433	20
1.86800	16
1.87167	16
1.87533	19
1.87900	21
1.88267	22
1.88633	21
1.89000	19
1.89367	15
1.89733	15
1.90100	17
1.90467	18
1.90833	19
1.91200	20
1.91567	20
1.91933	17
1.92300	14
1.92667	13
1.93033	15
1.93400	20
1.93767	27
1.94133	34
1.94500	37
1.94867	38
1.95233	47
1.95600	133
1.95967	653
1.96333	3014
1.96700	11200
1.97067	33026
1.97433	78246
1.97800	152175
1.98167	249591
1.98533	355670
1.98900	452400
1.99267	524512
1.99633	561512
2.00000	558576
2.00367	517790
2.00733	448635
2.01100	365401
2.01467	282231
2.01833	209045
2.02200	150277
2.02567	106081
2.02933	74334
2.03300	52221
2.03667	37104
2.04033	26863
2.04400	19939
2.04767	15238
2.05133	12005
2.05500	9741
2.05867	8116
2.06233	6917
2.06600	6009
2.06967	5308
2.07333	4752
2.07700	4300
2.08067	3931
2.08433	3622
2.08800	3361
2.09167	3138
2.09533	2945
2.09900	2773
2.10267	2622
2.10633	2489
2.11000	2371
2.11367	2262
2.11733	2160
2.12100	2062
2.12467	1969
2.12833	1884
2.13200	1806
2.13567	1736
2.13933	1674
2.14300	1616
2.14667	1562
2.15033	1511
2.15400	1467
2.15767	1420
2.16133	1366
2.16500	1309
2.16867	1254
2.17233	1207
2.17600	1167
2.17967	1135
2.18333	1110
2.18700	1089
2.19067	1073
2.19433	1059
2.19800	1043
2.20167	1024
2.20533	998
2.20900	968
2.21267	939
2.21633	915
2.22000	895
2.22367	876
2.22733	857
2.23100	838
2.23467	823
2.23833	808
2.24200	792
2.24567	778
2.24933	763
2.25300	747
2.25667	733
2.26033	722
2.26400	710
2.26767	694
2.27133	683
2.27500	676
2.27867	667
2.28233	654
2.28600	643
2.28967	635
2.29333	631
2.29700	627
2.30067	621
2.30433	613
2.30800	606
2.31167	600
2.31533	593
2.31900	588
2.32267	583
2.32633	576
2.33000	567
2.33367	555
2.33733	542
2.34100	532
2.34467	526
2.34833	521
2.35200	515
2.35567	512
2.35933	511
2.36300	513
2.36667	513
2.37033	509
2.37400	501
2.37767	489
2.38133	477
2.38500	468
2.38867	462
2.39233	461
2.39600	464
2.39967	466
2.40333	466
2.40700	465
2.41067	460
2.41433	454
2.41800	447
2.42167	440
2.42533	434
2.42900	430
2.43267	430
2.43633	431
2.44000	430
2.44367	424
2.44733	414
2.45100	405
2.45467	400
2.45833	400
2.46200	397
2.46567	389
2.46933	383
2.47300	385
2.47667	390
2.48033	390
2.48400	386
2.48767	380
2.49133	373
2.49500	368
2.49867	366
2.50233	366
2.50600	369
2.50967	372
2.51333	369
2.51700	366
2.52067	364
2.52433	361
2.52800	359
2.53167	360
2.53533	364
2.53900	371
2.54267	373
2.54633	369
2.55000	359
2.55367	347
2.55733	336
2.56100	328
2.56467	326
2.56833	327
2.57200	327
2.57567	328
2.57933	330
2.58300	331
2.58667	330
2.59033	328
2.59400	325
2.59767	324
2.60133	322
2.60500	319
2.60867	316
2.61233	317
2.61600	317
2.61967	317
2.62333	316
2.62700	317
2.63067	318
2.63433	317
2.63800	316
2.64167	314
2.64533	310
2.64900	307
2.65267	304
2.65633	302
2.66000	303
2.66367	305
2.66733	307
2.67100	306
2.67467	304
2.67833	304
2.68200	307
2.68567	312
2.68933	317
2.69300	319
2.69667	317
2.70033	315
2.70400	314
2.70767	312
2.71133	310
2.71500	309
2.71867	310
2.72233	311
2.72600	309
2.72967	305
2.73333	302
2.73700	302
2.74067	305
2.74433	307
2.74800	306
2.75167	299
2.75533	291
2.75900	285
2.76267	280
2.76633	277
2.77000	273
2.77367	271
2.77733	275
2.78100	284
2.78467	293
2.78833	300
2.79200	303
2.79567	304
2.79933	304
2.80300	303
2.80667	301
2.81033	300
2.81400	300
2.81767	300
2.82133	299
2.82500	295
2.82867	294
2.83233	296
2.83600	297
2.83967	294
2.84333	287
2.84700	279
2.85067	276
2.85433	279
2.85800	282
2.86167	282
2.86533	284
2.86900	289
2.87267	294
2.87633	296
2.88000	293
2.88367	287
2.88733	283
2.89100	280
2.89467	276
2.89833	273
2.90200	277
2.90567	282
2.90933	287
2.91300	289
2.91667	290
2.92033	291
2.92400	291
2.92767	290
2.93133	284
2.93500	279
2.93867	279
2.94233	279
2.94600	279
2.94967	277
2.95333	275
2.95700	278
2.96067	285
2.96433	294
2.96800	299
2.97167	300
2.97533	299
2.97900	301
2.98267	305
2.98633	306
2.99000	307
2.99367	309
2.99733	312
3.00100	312
3.00467	307
3.00833	297
3.01200	285
3.01567	269
3.01933	252
3.02300	237
3.02667	226
3.03033	219
3.03400	216
3.03767	217
3.04133	222
3.04500	229
3.04867	238
3.05233	247
3.05600	258
3.05967	268
3.06333	274
3.06700	274
3.07067	272
3.07433	269
3.07800	269
3.08167	269
3.08533	267
3.08900	265
3.09267	263
3.09633	258
3.10000	251
3.10367	248
3.10733	248
3.11100	247
3.11467	252
3.11833	262
3.12200	272
3.12567	275
3.12933	273
3.13300	268
3.13667	262
3.14033	255
3.14400	251
3.14767	249
3.15133	248
3.15500	248
3.15867	250
3.16233	254
3.16600	258
3.16967	260
3.17333	262
3.17700	266
3.18067	270
3.18433	268
3.18800	261
3.19167	255
3.19533	249
3.19900	245
3.20267	240
3.20633	234
3.21000	231
3.21367	233
3.21733	241
3.22100	254
3.22467	268
3.22833	279
3.23200	284
3.23567	285
3.23933	276
3.24300	260
3.24667	240
3.25033	226
3.25400	219
3.25767	218
3.26133	221
3.26500	231
3.26867	243
3.27233	253
3.27600	259
3.27967	262
3.28333	261
3.28700	254
3.29067	244
3.29433	237
3.29800	231
3.30167	228
3.30533	229
3.30900	234
3.31267	239
3.31633	242
3.32000	243
3.32367	245
3.32733	245
3.33100	243
3.33467	237
3.33833	232
3.34200	229
3.34567	226
3.34933	224
3.35300	224
3.35667	222
3.36033	223
3.36400	227
3.36767	229
3.37133	232
3.37500	236
3.37867	240
3.38233	243
3.38600	244
3.38967	244
3.39333	243
3.39700	239
3.40067	233
3.40433	231
3.40800	232
3.41167	233
3.41533	233
3.41900	236
3.42267	243
3.42633	245
3.43000	244
3.43367	243
3.43733	240
3.44100	232
3.44467	222
3.44833	214
3.45200	208
3.45567	202
3.45933	199
3.46300	198
3.46667	201
3.47033	204
3.47400	207
3.47767	208
3.48133	208
3.48500	210
3.48867	214
3.49233	218
3.49600	221
3.49967	218
3.50333	212
3.50700	207
3.51067	205
3.51433	207
3.51800	211
3.52167	214
3.52533	219
3.52900	222
3.53267	221
3.53633	217
3.54000	215
3.54367	216
3.54733	213
3.55100	207
3.55467	204
3.55833	206
3.56200	208
3.56567	204
3.56933	197
3.57300	189
3.57667	186
3.58033	184
3.58400	180
3.58767	179
3.59133	181
3.59500	181
3.59867	181
3.60233	183
3.60600	189
3.60967	194
3.61333	198
3.61700	197
3.62067	192
3.62433	184
3.62800	179
3.63167	179
3.63533	181
3.63900	183
3.64267	184
3.64633	183
3.65000	181
3.65367	183
3.65733	184
3.66100	183
3.66467	181
3.66833	182
3.67200	179
3.67567	174
3.67933	168
3.68300	164
3.68667	161
3.69033	157
3.69400	154
3.69767	154
3.70133	157
3.70500	158
3.70867	161
3.71233	168
3.71600	173
3.71967	174
3.72333	173
3.72700	169
3.73067	169
3.73433	169
3.73800	164
3.74167	156
3.74533	153
3.74900	155
3.75267	156
3.75633	157
3.76000	158
3.76367	161
3.76733	163
3.77100	165
3.77467	162
3.77833	155
3.78200	150
3.78567	148
3.78933	148
3.79300	148
3.79667	149
3.80033	150
3.80400	148
3.80767	147
3.81133	143
3.81500	138
3.81867	135
3.82233	136
3.82600	141
3.82967	149
3.83333	158
3.83700	162
3.84067	159
3.84433	154
3.84800	146
3.85167	137
3.85533	129
3.85900	125
3.86267	123
3.86633	124
3.87000	125
3.87367	129
3.87733	135
3.88100	143
3.88467	145
3.88833	137
3.89200	126
3.89567	117
3.89933	109
3.90300	102
3.90667	98
3.91033	100
3.91400	106
3.91767	115
3.92133	126
3.92500	136
3.92867	143
3.93233	143
3.93600	137
3.93967	126
3.94333	114
3.94700	105
3.95067	103
3.95433	104
3.95800	104
3.96167	103
3.96533	105
3.96900	113
3.97267	124
3.97633	131
3.98000	130
3.98367	125
3.98733	119
3.99100	113
3.99467	108
3.99833	106

[Chromatogram (Ch2)]
Interval(msec)	220
# of Points	1091
Start Time(min)	0.002
End Time(min)	3.998
R.Time (min)	Intensity
0.00167	0
0.00533	-0
0.00900	-0
0.01267	-1
0.01633	-1
0.02000	-1
0.02367	-2
0.02733	-2
0.03100	-2
0.03467	-2
0.03833	-2
0.04200	-2
0.04567	-2
0.04933	-2
0.05300	-2
0.05667	-2
0.06033	-2
0.06400	-2
0.06767	-2
0.07133	-1
0.07500	-1
0.07867	-1
0.08233	-1
0.08600	-1
0.08967	-1
0.09333	-1
0.09700	-1
0.10067	-1
0.10433	-1
0.10800	-2
0.11167	-2
0.11533	-2
0.11900	-2
0.12267	-2
0.12633	-1
0.13000	-1
0.13367	-1
0.13733	-1
0.14100	-1
0.14467	-2
0.14833	-2
0.15200	-2
0.15567	-2
0.15933	-2
0.16300	-2
0.16667	-3
0.17033	-3
0.17400	-3
0.17767	-3
0.18133	-3
0.18500	-3
0.18867	-2
0.19233	-2
0.19600	-2
0.19967	-1
0.20333	-1
0.20700	-1
0.21067	-1
0.21433	-1
0.21800	-0
0.22167	-0
0.22533	-0
0.22900	-0
0.23267	-0
0.23633	-0
0.24000	-1
0.24367	-1
0.24733	-1
0.25100	-1
0.25467	-2
0.25833	-2
0.26200	-2
0.26567	-3
0.26933	-4
0.27300	-4
0.27667	-5
0.28033	-5
0.28400	-5
0.28767	-5
0.29133	-5
0.29500	-5
0.29867	-5
0.30233	-5
0.30600	-5
0.30967	-4
0.31333	-4
0.31700	-4
0.32067	-4
0.32433	-4
0.32800	-4
0.33167	-4
0.33533	-4
0.33900	-4
0.34267	-4
0.34633	-4
0.35000	-4
0.35367	-5
0.35733	-5
0.36100	-5
0.36467	-5
0.36833	-5
0.37200	-5
0.37567	-5
0.37933	-5
0.38300	-5
0.38667	-5
0.39033	-4
0.39400	-4
0.39767	-3
0.40133	-3
0.40500	-2
0.40867	-2
0.41233	-2
0.41600	-2
0.41967	-1
0.42333	-1
0.42700	-1
0.43067	-1
0.43433	-1
0.43800	-0
0.44167	0
0.44533	0
0.44900	1
0.45267	1
0.45633	1
0.46000	1
0.46367	2
0.46733	2
0.47100	2
0.47467	2
0.47833	2
0.48200	1
0.48567	1
0.48933	1
0.49300	1
0.49667	0
0.50033	-0
0.50400	-1
0.50767	-2
0.51133	-2
0.51500	-3
0.51867	-3
0.52233	-4
0.52600	-4
0.52967	-4
0.53333	-4
0.53700	-4
0.54067	-4
0.54433	-4
0.54800	-4
0.55167	-3
0.55533	-3
0.55900	-3
0.56267	-3
0.56633	-2
0.57000	-2
0.57367	-1
0.57733	-1
0.58100	-1
0.58467	-1
0.58833	-1
0.59200	-1
0.59567	-1
0.59933	-2
0.60300	-2
0.60667	-2
0.61033	-1
0.61400	-1
0.61767	-1
0.62133	-1
0.62500	-1
0.62867	-1
0.63233	-1
0.63600	-1
0.63967	-1
0.64333	-1
0.64700	-1
0.65067	-1
0.65433	-1
0.65800	-2
0.66167	-2
0.66533	-2
0.66900	-2
0.67267	-2
0.67633	-2
0.68000	-3
0.68367	-2
0.68733	-2
0.69100	-2
0.69467	-2
0.69833	-2
0.70200	-3
0.70567	-3
0.70933	-3
0.71300	-3
0.71667	-4
0.72033	-4
0.72400	-4
0.72767	-4
0.73133	-4
0.73500	-4
0.73867	-3
0.74233	-3
0.74600	-2
0.74967	-2
0.75333	-2
0.75700	-1
0.76067	-1
0.76433	-1
0.76800	-0
0.77167	-0
0.77533	0
0.77900	0
0.78267	0
0.78633	0
0.79000	0
0.79367	0
0.79733	-0
0.80100	-0
0.80467	-0
0.80833	-1
0.81200	-1
0.81567	-1
0.81933	-1
0.82300	-1
0.82667	-1
0.83033	-1
0.83400	-1
0.83767	-2
0.84133	-2
0.84500	-2
0.84867	-2
0.85233	-3
0.85600	-3
0.85967	-3
0.86333	-3
0.86700	-3
0.87067	-4
0.87433	-4
0.87800	-4
0.88167	-4
0.88533	-4
0.88900	-4
0.89267	-4
0.89633	-4
0.90000	-4
0.90367	-3
0.90733	-3
0.91100	-3
0.91467	-3
0.91833	-3
0.92200	-3
0.92567	-3
0.92933	-3
0.93300	-4
0.93667	-4
0.94033	-4
0.94400	-4
0.94767	-5
0.95133	-5
0.95500	-5
0.95867	-5
0.96233	-5
0.96600	-5
0.96967	-5
0.97333	-5
0.97700	-5
0.98067	-4
0.98433	-4
0.98800	-4
0.99167	-3
0.99533	-3
0.99900	-3
1.00267	-3
1.00633	-4
1.01000	-3
1.01367	-3
1.01733	-3
1.02100	-3
1.02467	-4
1.02833	-4
1.03200	-4
1.03567	-5
1.03933	-5
1.04300	-6
1.04667	-6
1.05033	-6
1.05400	-6
1.05767	-6
1.06133	-6
1.06500	-6
1.06867	-6
1.07233	-6
1.07600	-6
1.07967	-5
1.08333	-5
1.08700	-4
1.09067	-3
1.09433	-3
1.09800	-2
1.10167	-2
1.10533	-2
1.10900	-2
1.11267	-2
1.11633	-2
1.12000	-2
1.12367	-2
1.12733	-2
1.13100	-2
1.13467	-2
1.13833	-2
1.14200	-2
1.14567	-2
1.14933	-2
1.15300	-2
1.15667	-2
1.16033	-2
1.16400	-3
1.16767	-3
1.17133	-3
1.17500	-3
1.17867	-3
1.18233	-4
1.18600	-4
1.18967	-4
1.19333	-4
1.19700	-5
1.20067	-5
1.20433	-5
1.20800	-5
1.21167	-5
1.21533	-5
1.21900	-5
1.22267	-5
1.22633	-4
1.23000	-4
1.23367	-4
1.23733	-4
1.24100	-4
1.24467	-4
1.24833	-4
1.25200	-4
1.25567	-4
1.25933	-3
1.26300	-3
1.26667	-3
1.27033	-2
1.27400	-2
1.27767	-2
1.28133	-3
1.28500	-3
1.28867	-3
1.29233	-3
1.29600	-3
1.29967	-3
1.30333	-3
1.30700	-3
1.31067	-3
1.31433	-3
1.31800	-3
1.32167	-2
1.32533	-3
1.32900	-3
1.33267	-3
1.33633	-3
1.34000	-3
1.34367	-4
1.34733	-4
1.35100	-4
1.35467	-4
1.35833	-4
1.36200	-4
1.36567	-4
1.36933	-4
1.37300	-4
1.37667	-4
1.38033	-3
1.38400	-3
1.38767	-3
1.39133	-2
1.39500	-2
1.39867	-2
1.40233	-2
1.40600	-2
1.40967	-2
1.41333	-2
1.41700	-2
1.42067	-2
1.42433	-2
1.42800	-3
1.43167	-3
1.43533	-3
1.43900	-3
1.44267	-3
1.44633	-3
1.45000	-3
1.45367	-3
1.45733	-4
1.46100	-4
1.46467	-5
1.46833	-6
1.47200	-6
1.47567	-6
1.47933	-7
1.48300	-7
1.48667	-7
1.49033	-7
1.49400	-7
1.49767	-7
1.50133	-7
1.50500	-7
1.50867	-7
1.51233	-7
1.51600	-7
1.51967	-7
1.52333	-7
1.52700	-7
1.53067	-7
1.53433	-7
1.53800	-6
1.54167	-6
1.54533	-6
1.54900	-6
1.55267	-6
1.55633	-5
1.56000	-5
1.56367	-5
1.56733	-5
1.57100	-5
1.57467	-5
1.57833	-5
1.58200	-4
1.58567	-4
1.58933	-4
1.59300	-4
1.59667	-3
1.60033	-4
1.60400	-4
1.60767	-5
1.61133	-6
1.61500	-8
1.61867	-10
1.62233	-13
1.62600	-15
1.62967	-18
1.63333	-22
1.63700	-25
1.64067	-29
1.64433	-33
1.64800	-38
1.65167	-42
1.65533	-46
1.65900	-50
1.66267	-55
1.66633	-60
1.67000	-66
1.67367	-71
1.67733	-77
1.68100	-83
1.68467	-88
1.68833	-92
1.69200	-96
1.69567	-100
1.69933	-103
1.70300	-105
1.70667	-107
1.71033	-108
1.71400	-110
1.71767	-111
1.72133	-112
1.72500	-113
1.72867	-114
1.73233	-115
1.73600	-115
1.73967	-115
1.74333	-115
1.74700	-115
1.75067	-115
1.75433	-114
1.75800	-114
1.76167	-114
1.76533	-113
1.76900	-114
1.77267	-114
1.77633	-115
1.78000	-116
1.78367	-117
1.78733	-118
1.79100	-119
1.79467	-120
1.79833	-120
1.80200	-120
1.80567	-120
1.80933	-120
1.81300	-120
1.81667	-120
1.82033	-120
1.82400	-120
1.82767	-120
1.83133	-121
1.83500	-121
1.83867	-122
1.84233	-122
1.84600	-122
1.84967	-123
1.85333	-123
1.85700	-123
1.86067	-122
1.86433	-122
1.86800	-121
1.87167	-120
1.87533	-119
1.87900	-119
1.88267	-119
1.88633	-118
1.89000	-118
1.89367	-118
1.89733	-118
1.90100	-118
1.90467	-118
1.90833	-118
1.91200	-118
1.91567	-119
1.91933	-119
1.92300	-119
1.92667	-119
1.93033	-119
1.93400	-118
1.93767	-117
1.94133	-117
1.94500	-116
1.94867	-116
1.95233	-116
1.95600	-115
1.95967	-115
1.96333	-115
1.96700	-114
1.97067	-114
1.97433	-114
1.97800	-114
1.98167	-114
1.98533	-115
1.98900	-115
1.99267	-115
1.99633	-115
2.00000	-114
2.00367	-113
2.00733	-113
2.01100	-112
2.01467	-112
2.01833	-111
2.02200	-111
2.02567	-111
2.02933	-111
2.03300	-111
2.03667	-111
2.04033	-111
2.04400	-111
2.04767	-111
2.05133	-111
2.05500	-110
2.05867	-110
2.06233	-110
2.06600	-109
2.06967	-109
2.07333	-109
2.07700	-109
2.08067	-109
2.08433	-108
2.08800	-108
2.09167	-107
2.09533	-106
2.09900	-105
2.10267	-105
2.10633	-105
2.11000	-105
2.11367	-104
2.11733	-104
2.12100	-104
2.12467	-104
2.12833	-104
2.13200	-103
2.13567	-103
2.13933	-102
2.14300	-101
2.14667	-100
2.15033	-100
2.15400	-99
2.15767	-99
2.16133	-98
2.16500	-98
2.16867	-98
2.17233	-98
2.17600	-98
2.17967	-97
2.18333	-97
2.18700	-96
2.19067	-96
2.19433	-95
2.19800	-95
2.20167	-94
2.20533	-94
2.20900	-95
2.21267	-95
2.21633	-95
2.22000	-95
2.22367	-95
2.22733	-95
2.23100	-95
2.23467	-94
2.23833	-93
2.24200	-92
2.24567	-92
2.24933	-91
2.25300	-92
2.25667	-92
2.26033	-93
2.26400	-93
2.26767	-93
2.27133	-93
2.27500	-92
2.27867	-92
2.28233	-91
2.28600	-91
2.28967	-90
2.29333	-90
2.29700	-90
2.30067	-90
2.30433	-90
2.30800	-90
2.31167	-90
2.31533	-90
2.31900	-90
2.32267	-89
2.32633	-89
2.33000	-88
2.33367	-88
2.33733	-87
2.34100	-86
2.34467	-85
2.34833	-84
2.35200	-83
2.35567	-81
2.35933	-79
2.36300	-78
2.36667	-76
2.37033	-74
2.37400	-72
2.37767	-69
2.38133	-66
2.38500	-62
2.38867	-59
2.39233	-55
2.39600	-51
2.39967	-47
2.40333	-43
2.40700	-40
2.41067	-37
2.41433	-34
2.41800	-32
2.42167	-29
2.42533	-27
2.42900	-25
2.43267	-22
2.43633	-19
2.44000	-17
2.44367	-15
2.44733	-14
2.45100	-12
2.45467	-11
2.45833	-10
2.46200	-8
2.46567	-7
2.46933	-5
2.47300	-4
2.47667	-3
2.48033	-2
2.48400	-1
2.48767	-0
2.49133	1
2.49500	2
2.49867	3
2.50233	4
2.50600	5
2.50967	5
2.51333	6
2.51700	7
2.52067	7
2.52433	7
2.52800	8
2.53167	9
2.53533	10
2.53900	11
2.54267	11
2.54633	11
2.55000	11
2.55367	11
2.55733	10
2.56100	10
2.56467	10
2.56833	10
2.57200	10
2.57567	11
2.57933	11
2.58300	12
2.58667	12
2.59033	13
2.59400	13
2.59767	13
2.60133	13
2.60500	13
2.60867	13
2.61233	13
2.61600	14
2.61967	14
2.62333	14
2.62700	14
2.63067	14
2.63433	14
2.63800	14
2.64167	14
2.64533	15
2.64900	15
2.65267	16
2.65633	16
2.66000	17
2.66367	18
2.66733	18
2.67100	19
2.67467	19
2.67833	19
2.68200	19
2.68567	19
2.68933	19
2.69300	19
2.69667	19
2.70033	19
2.70400	18
2.70767	18
2.71133	18
2.71500	19
2.71867	19
2.72233	19
2.72600	19
2.72967	20
2.73333	20
2.73700	20
2.74067	20
2.74433	20
2.74800	20
2.75167	20
2.75533	21
2.75900	21
2.76267	21
2.76633	22
2.77000	22
2.77367	22
2.77733	22
2.78100	22
2.78467	22
2.78833	22
2.79200	22
2.79567	22
2.79933	23
2.80300	23
2.80667	23
2.81033	24
2.81400	24
2.81767	24
2.82133	24
2.82500	23
2.82867	23
2.83233	23
2.83600	23
2.83967	21
2.84333	19
2.84700	14
2.85067	7
2.85433	-3
2.85800	-17
2.86167	-34
2.86533	-55
2.86900	-81
2.87267	-111
2.87633	-144
2.88000	-182
2.88367	-223
2.88733	-267
2.89100	-313
2.89467	-362
2.89833	-413
2.90200	-465
2.90567	-519
2.90933	-572
2.91300	-626
2.91667	-679
2.92033	-732
2.92400	-784
2.92767	-835
2.93133	-889
2.93500	-946
2.93867	-1007
2.94233	-1061
2.94600	-1099
2.94967	-1112
2.95333	-1100
2.95700	-1062
2.96067	-1006
2.96433	-936
2.96800	-859
2.97167	-778
2.97533	-697
2.97900	-619
2.98267	-545
2.98633	-478
2.99000	-416
2.99367	-360
2.99733	-311
3.00100	-267
3.00467	-229
3.00833	-195
3.01200	-166
3.01567	-141
3.01933	-120
3.02300	-101
3.02667	-85
3.03033	-71
3.03400	-59
3.03767	-49
3.04133	-40
3.04500	-33
3.04867	-26
3.05233	-21
3.05600	-16
3.05967	-12
3.06333	-8
3.06700	-5
3.07067	-3
3.07433	-1
3.07800	0
3.08167	2
3.08533	3
3.08900	4
3.09267	5
3.09633	6
3.10000	6
3.10367	7
3.10733	8
3.11100	8
3.11467	9
3.11833	9
3.12200	10
3.12567	10
3.12933	11
3.13300	11
3.13667	11
3.14033	12
3.14400	12
3.14767	12
3.15133	12
3.15500	13
3.15867	13
3.16233	13
3.16600	14
3.16967	14
3.17333	15
3.17700	15
3.18067	16
3.18433	16
3.18800	17
3.19167	17
3.19533	18
3.19900	18
3.20267	19
3.20633	19
3.21000	20
3.21367	20
3.21733	20
3.22100	21
3.22467	21
3.22833	21
3.23200	21
3.23567	21
3.23933	22
3.24300	22
3.24667	22
3.25033	22
3.25400	22
3.25767	22
3.26133	22
3.26500	22
3.26867	23
3.27233	23
3.27600	23
3.27967	23
3.28333	23
3.28700	23
3.29067	23
3.29433	23
3.29800	23
3.30167	23
3.30533	23
3.30900	23
3.31267	23
3.31633	23
3.32000	24
3.32367	24
3.32733	24
3.33100	24
3.33467	24
3.33833	24
3.34200	23
3.34567	23
3.34933	23
3.35300	23
3.35667	23
3.36033	23
3.36400	23
3.36767	23
3.37133	23
3.37500	23
3.37867	24
3.38233	24
3.38600	24
3.38967	23
3.39333	23
3.39700	23
3.40067	23
3.40433	23
3.40800	24
3.41167	24
3.41533	24
3.41900	24
3.42267	24
3.42633	24
3.43000	24
3.43367	24
3.43733	24
3.44100	24
3.44467	23
3.44833	23
3.45200	23
3.45567	23
3.45933	23
3.46300	23
3.46667	22
3.47033	22
3.47400	22
3.47767	22
3.48133	22
3.48500	22
3.48867	22
3.49233	22
3.49600	22
3.49967	22
3.50333	23
3.50700	23
3.51067	23
3.51433	23
3.51800	23
3.52167	23
3.52533	23
3.52900	23
3.53267	23
3.53633	23
3.54000	23
3.54367	23
3.54733	23
3.55100	23
3.55467	23
3.55833	23
3.56200	23
3.56567	23
3.56933	23
3.57300	23
3.57667	24
3.58033	24
3.58400	24
3.58767	24
3.59133	24
3.59500	24
3.59867	24
3.60233	24
3.60600	24
3.60967	24
3.61333	24
3.61700	24
3.62067	24
3.62433	24
3.62800	24
3.63167	24
3.63533	24
3.63900	24
3.64267	24
3.64633	24
3.65000	23
3.65367	23
3.65733	23
3.66100	23
3.66467	23
3.66833	24
3.67200	24
3.67567	23
3.67933	24
3.68300	24
3.68667	24
3.69033	24
3.69400	24
3.69767	24
3.70133	25
3.70500	25
3.70867	25
3.71233	25
3.71600	25
3.71967	25
3.72333	25
3.72700	25
3.73067	25
3.73433	24
3.73800	24
3.74167	24
3.74533	24
3.74900	24
3.75267	24
3.75633	23
3.76000	23
3.76367	23
3.76733	23
3.77100	23
3.77467	23
3.77833	23
3.78200	23
3.78567	23
3.78933	24
3.79300	24
3.79667	24
3.80033	24
3.80400	24
3.80767	24
3.81133	25
3.81500	25
3.81867	25
3.82233	25
3.82600	25
3.82967	25
3.83333	26
3.83700	26
3.84067	26
3.84433	26
3.84800	26
3.85167	26
3.85533	25
3.85900	25
3.86267	25
3.86633	25
3.87000	26
3.87367	26
3.87733	26
3.88100	26
3.88467	26
3.88833	26
3.89200	26
3.89567	26
3.89933	26
3.90300	26
3.90667	26
3.91033	26
3.91400	26
3.91767	26
3.92133	26
3.92500	26
3.92867	27
3.93233	27
3.93600	27
3.93967	26
3.94333	27
3.94700	27
3.95067	27
3.95433	26
3.95800	26
3.96167	26
3.96533	26
3.96900	26
3.97267	25
3.97633	25
3.98000	24
3.98367	24
3.98733	24
3.99100	24
3.99467	24
3.99833	24

[Chromatogram (Ch3)]
Interval(msec)	220
# of Points	1091
Start Time(min)	0.002
End Time(min)	3.998
R.Time (min)	Intensity
0.00167	0
0.00533	-0
0.00900	-0
0.01267	-0
0.01633	1
0.02000	0
0.02367	-1
0.02733	-1
0.03100	-0
0.03467	-0
0.03833	1
0.04200	3
0.04567	5
0.04933	7
0.05300	6
0.05667	4
0.06033	-1
0.06400	-2
0.06767	-1
0.07133	-3
0.07500	-7
0.07867	-8
0.08233	-8
0.08600	-7
0.08967	-3
0.09333	2
0.09700	3
0.10067	2
0.10433	2
0.10800	2
0.11167	2
0.11533	1
0.11900	-2
0.12267	-3
0.12633	-3
0.13000	-2
0.13367	-0
0.13733	1
0.14100	2
0.14467	3
0.14833	4
0.15200	3
0.15567	1
0.15933	1
0.16300	0
0.16667	1
0.17033	1
0.17400	3
0.17767	5
0.18133	6
0.18500	5
0.18867	3
0.19233	1
0.19600	0
0.19967	0
0.20333	2
0.20700	3
0.21067	1
0.21433	1
0.21800	2
0.22167	0
0.22533	-1
0.22900	-1
0.23267	-2
0.23633	-2
0.24000	-1
0.24367	-1
0.24733	-0
0.25100	2
0.25467	6
0.25833	5
0.26200	4
0.26567	2
0.26933	2
0.27300	1
0.27667	3
0.28033	4
0.28400	2
0.28767	2
0.29133	2
0.29500	1
0.29867	-2
0.30233	-4
0.30600	-3
0.30967	-1
0.31333	1
0.31700	2
0.32067	2
0.32433	2
0.32800	2
0.33167	3
0.33533	2
0.33900	2
0.34267	3
0.34633	6
0.35000	7
0.35367	6
0.35733	6
0.36100	5
0.36467	1
0.36833	-1
0.37200	-1
0.37567	0
0.37933	1
0.38300	2
0.38667	3
0.39033	3
0.39400	4
0.39767	7
0.40133	6
0.40500	6
0.40867	6
0.41233	5
0.41600	2
0.41967	-0
0.42333	1
0.42700	1
0.43067	1
0.43433	1
0.43800	0
0.44167	-1
0.44533	-3
0.44900	-2
0.45267	-1
0.45633	0
0.46000	0
0.46367	2
0.46733	2
0.47100	2
0.47467	2
0.47833	0
0.48200	1
0.48567	3
0.48933	4
0.49300	4
0.49667	4
0.50033	4
0.50400	5
0.50767	6
0.51133	6
0.51500	7
0.51867	8
0.52233	8
0.52600	5
0.52967	4
0.53333	4
0.53700	2
0.54067	-0
0.54433	-1
0.54800	-1
0.55167	1
0.55533	1
0.55900	2
0.56267	3
0.56633	5
0.57000	7
0.57367	8
0.57733	6
0.58100	3
0.58467	4
0.58833	5
0.59200	8
0.59567	9
0.59933	9
0.60300	7
0.60667	7
0.61033	7
0.61400	6
0.61767	5
0.62133	5
0.62500	6
0.62867	6
0.63233	8
0.63600	11
0.63967	12
0.64333	13
0.64700	15
0.65067	16
0.65433	15
0.65800	12
0.66167	11
0.66533	10
0.66900	11
0.67267	13
0.67633	15
0.68000	17
0.68367	18
0.68733	19
0.69100	18
0.69467	16
0.69833	17
0.70200	15
0.70567	16
0.70933	17
0.71300	19
0.71667	20
0.72033	18
0.72400	17
0.72767	17
0.73133	17
0.73500	17
0.73867	17
0.74233	17
0.74600	18
0.74967	18
0.75333	16
0.75700	16
0.76067	17
0.76433	16
0.76800	15
0.77167	17
0.77533	18
0.77900	20
0.78267	22
0.78633	22
0.79000	21
0.79367	23
0.79733	25
0.80100	26
0.80467	26
0.80833	26
0.81200	25
0.81567	24
0.81933	24
0.82300	25
0.82667	24
0.83033	23
0.83400	25
0.83767	27
0.84133	27
0.84500	26
0.84867	24
0.85233	23
0.85600	23
0.85967	23
0.86333	26
0.86700	28
0.87067	25
0.87433	21
0.87800	19
0.88167	22
0.88533	22
0.88900	23
0.89267	24
0.89633	23
0.90000	24
0.90367	24
0.90733	25
0.91100	24
0.91467	23
0.91833	24
0.92200	26
0.92567	26
0.92933	26
0.93300	25
0.93667	26
0.94033	27
0.94400	25
0.94767	24
0.95133	25
0.95500	26
0.95867	27
0.96233	29
0.96600	31
0.96967	32
0.97333	32
0.97700	29
0.98067	27
0.98433	26
0.98800	24
0.99167	22
0.99533	22
0.99900	23
1.00267	21
1.00633	22
1.01000	23
1.01367	25
1.01733	28
1.02100	28
1.02467	28
1.02833	30
1.03200	30
1.03567	29
1.03933	27
1.04300	26
1.04667	25
1.05033	28
1.05400	28
1.05767	29
1.06133	31
1.06500	31
1.06867	30
1.07233	29
1.07600	30
1.07967	29
1.08333	27
1.08700	28
1.09067	30
1.09433	33
1.09800	34
1.10167	35
1.10533	35
1.10900	33
1.11267	33
1.11633	32
1.12000	32
1.12367	31
1.12733	31
1.13100	29
1.13467	28
1.13833	30
1.14200	31
1.14567	32
1.14933	33
1.15300	33
1.15667	33
1.16033	33
1.16400	35
1.16767	35
1.17133	32
1.17500	30
1.17867	29
1.18233	30
1.18600	34
1.18967	36
1.19333	38
1.19700	38
1.20067	37
1.20433	40
1.20800	39
1.21167	40
1.21533	40
1.21900	39
1.22267	38
1.22633	38
1.23000	37
1.23367	36
1.23733	38
1.24100	40
1.24467	41
1.24833	40
1.25200	40
1.25567	42
1.25933	44
1.26300	45
1.26667	44
1.27033	42
1.27400	40
1.27767	38
1.28133	38
1.28500	38
1.28867	39
1.29233	39
1.29600	36
1.29967	36
1.30333	37
1.30700	37
1.31067	39
1.31433	40
1.31800	39
1.32167	39
1.32533	40
1.32900	41
1.33267	40
1.33633	38
1.34000	38
1.34367	40
1.34733	41
1.35100	42
1.35467	41
1.35833	40
1.36200	40
1.36567	43
1.36933	45
1.37300	43
1.37667	39
1.38033	39
1.38400	41
1.38767	42
1.39133	42
1.39500	42
1.39867	42
1.40233	40
1.40600	39
1.40967	39
1.41333	41
1.41700	39
1.42067	39
1.42433	42
1.42800	44
1.43167	46
1.43533	44
1.43900	41
1.44267	41
1.44633	41
1.45000	41
1.45367	44
1.45733	47
1.46100	46
1.46467	44
1.46833	46
1.47200	47
1.47567	47
1.47933	47
1.48300	49
1.48667	50
1.49033	49
1.49400	48
1.49767	47
1.50133	47
1.50500	48
1.50867	50
1.51233	50
1.51600	48
1.51967	50
1.52333	50
1.52700	50
1.53067	49
1.53433	49
1.53800	48
1.54167	47
1.54533	48
1.54900	48
1.55267	47
1.55633	48
1.56000	46
1.56367	44
1.56733	45
1.57100	48
1.57467	50
1.57833	50
1.58200	49
1.58567	51
1.58933	54
1.59300	54
1.59667	54
1.60033	54
1.60400	55
1.60767	55
1.61133	54
1.61500	53
1.61867	54
1.62233	57
1.62600	60
1.62967	62
1.63333	60
1.63700	60
1.64067	60
1.64433	61
1.64800	59
1.65167	58
1.65533	59
1.65900	61
1.66267	63
1.66633	64
1.67000	66
1.67367	67
1.67733	66
1.68100	66
1.68467	65
1.68833	64
1.69200	66
1.69567	69
1.69933	69
1.70300	68
1.70667	65
1.71033	64
1.71400	65
1.71767	66
1.72133	68
1.72500	70
1.72867	70
1.73233	69
1.73600	71
1.73967	73
1.74333	73
1.74700	73
1.75067	71
1.75433	69
1.75800	68
1.76167	68
1.76533	69
1.76900	70
1.77267	69
1.77633	66
1.78000	64
1.78367	62
1.78733	62
1.79100	64
1.79467	66
1.79833	68
1.80200	70
1.80567	69
1.80933	67
1.81300	69
1.81667	70
1.82033	71
1.82400	71
1.82767	72
1.83133	73
1.83500	75
1.83867	77
1.84233	79
1.84600	80
1.84967	79
1.85333	76
1.85700	74
1.86067	73
1.86433	76
1.86800	78
1.87167	80
1.87533	80
1.87900	81
1.88267	80
1.88633	78
1.89000	79
1.89367	80
1.89733	80
1.90100	79
1.90467	80
1.90833	82
1.91200	83
1.91567	82
1.91933	83
1.92300	84
1.92667	85
1.93033	85
1.93400	86
1.93767	86
1.94133	88
1.94500	91
1.94867	93
1.95233	95
1.95600	96
1.95967	98
1.96333	102
1.96700	106
1.97067	106
1.97433	105
1.97800	104
1.98167	104
1.98533	105
1.98900	106
1.99267	106
1.99633	105
2.00000	103
2.00367	102
2.00733	105
2.01100	108
2.01467	111
2.01833	112
2.02200	113
2.02567	115
2.02933	115
2.03300	117
2.03667	117
2.04033	118
2.04400	117
2.04767	116
2.05133	117
2.05500	116
2.05867	117
2.06233	119
2.06600	121
2.06967	125
2.07333	128
2.07700	130
2.08067	131
2.08433	129
2.08800	128
2.09167	127
2.09533	126
2.09900	127
2.10267	129
2.10633	130
2.11000	130
2.11367	130
2.11733	128
2.12100	128
2.12467	130
2.12833	131
2.13200	131
2.13567	133
2.13933	137
2.14300	140
2.14667	140
2.15033	140
2.15400	142
2.15767	144
2.16133	145
2.16500	144
2.16867	143
2.17233	144
2.17600	143
2.17967	141
2.18333	143
2.18700	146
2.19067	150
2.19433	152
2.19800	154
2.20167	156
2.20533	158
2.20900	158
2.21267	158
2.21633	161
2.22000	161
2.22367	162
2.22733	164
2.23100	166
2.23467	168
2.23833	168
2.24200	171
2.24567	175
2.24933	178
2.25300	180
2.25667	181
2.26033	183
2.26400	183
2.26767	185
2.27133	187
2.27500	185
2.27867	184
2.28233	186
2.28600	189
2.28967	187
2.29333	186
2.29700	187
2.30067	189
2.30433	192
2.30800	194
2.31167	197
2.31533	199
2.31900	201
2.32267	203
2.32633	202
2.33000	201
2.33367	202
2.33733	203
2.34100	202
2.34467	201
2.34833	203
2.35200	203
2.35567	204
2.35933	204
2.36300	205
2.36667	206
2.37033	209
2.37400	212
2.37767	215
2.38133	216
2.38500	213
2.38867	212
2.39233	212
2.39600	213
2.39967	217
2.40333	220
2.40700	223
2.41067	228
2.41433	229
2.41800	228
2.42167	230
2.42533	232
2.42900	235
2.43267	237
2.43633	238
2.44000	242
2.44367	269
2.44733	336
2.45100	405
2.45467	458
2.45833	493
2.46200	502
2.46567	487
2.46933	465
2.47300	446
2.47667	431
2.48033	423
2.48400	417
2.48767	408
2.49133	393
2.49500	375
2.49867	359
2.50233	346
2.50600	332
2.50967	321
2.51333	315
2.51700	311
2.52067	309
2.52433	309
2.52800	312
2.53167	318
2.53533	325
2.53900	334
2.54267	339
2.54633	342
2.55000	342
2.55367	339
2.55733	331
2.56100	324
2.56467	316
2.56833	308
2.57200	303
2.57567	300
2.57933	294
2.58300	289
2.58667	284
2.59033	280
2.59400	277
2.59767	272
2.60133	262
2.60500	250
2.60867	235
2.61233	218
2.61600	198
2.61967	179
2.62333	162
2.62700	147
2.63067	136
2.63433	127
2.63800	121
2.64167	119
2.64533	119
2.64900	120
2.65267	124
2.65633	128
2.66000	135
2.66367	145
2.66733	155
2.67100	166
2.67467	176
2.67833	186
2.68200	194
2.68567	202
2.68933	210
2.69300	216
2.69667	221
2.70033	225
2.70400	230
2.70767	234
2.71133	238
2.71500	240
2.71867	240
2.72233	241
2.72600	242
2.72967	242
2.73333	241
2.73700	239
2.74067	239
2.74433	241
2.74800	239
2.75167	235
2.75533	232
2.75900	230
2.76267	230
2.76633	231
2.77000	232
2.77367	232
2.77733	234
2.78100	235
2.78467	234
2.78833	232
2.79200	233
2.79567	234
2.79933	234
2.80300	234
2.80667	234
2.81033	235
2.81400	238
2.81767	245
2.82133	260
2.82500	294
2.82867	365
2.83233	492
2.83600	695
2.83967	991
2.84333	1387
2.84700	1875
2.85067	2425
2.85433	3002
2.85800	3557
2.86167	4045
2.86533	4430
2.86900	4685
2.87267	4799
2.87633	4778
2.88000	4639
2.88367	4412
2.88733	4123
2.89100	3800
2.89467	3464
2.89833	3128
2.90200	2804
2.90567	2501
2.90933	2222
2.91300	1967
2.91667	1739
2.92033	1539
2.92400	1363
2.92767	1212
2.93133	1080
2.93500	964
2.93867	864
2.94233	776
2.94600	701
2.94967	634
2.95333	580
2.95700	533
2.96067	490
2.96433	455
2.96800	423
2.97167	395
2.97533	372
2.97900	352
2.98267	337
2.98633	321
2.99000	309
2.99367	300
2.99733	290
3.00100	282
3.00467	275
3.00833	271
3.01200	267
3.01567	260
3.01933	255
3.02300	252
3.02667	248
3.03033	243
3.03400	237
3.03767	233
3.04133	231
3.04500	231
3.04867	230
3.05233	227
3.05600	225
3.05967	223
3.06333	223
3.06700	221
3.07067	219
3.07433	217
3.07800	216
3.08167	214
3.08533	211
3.08900	209
3.09267	208
3.09633	208
3.10000	209
3.10367	208
3.10733	208
3.11100	207
3.11467	206
3.11833	202
3.12200	199
3.12567	199
3.12933	200
3.13300	199
3.13667	197
3.14033	196
3.14400	195
3.14767	194
3.15133	190
3.15500	187
3.15867	187
3.16233	187
3.16600	187
3.16967	180
3.17333	161
3.17700	135
3.18067	127
3.18433	143
3.18800	177
3.19167	219
3.19533	263
3.19900	307
3.20267	350
3.20633	390
3.21000	425
3.21367	460
3.21733	494
3.22100	525
3.22467	553
3.22833	578
3.23200	602
3.23567	620
3.23933	635
3.24300	648
3.24667	660
3.25033	666
3.25400	671
3.25767	676
3.26133	682
3.26500	692
3.26867	702
3.27233	711
3.27600	719
3.27967	725
3.28333	730
3.28700	733
3.29067	736
3.29433	740
3.29800	747
3.30167	757
3.30533	762
3.30900	766
3.31267	770
3.31633	773
3.32000	778
3.32367	783
3.32733	791
3.33100	798
3.33467	804
3.33833	808
3.34200	811
3.34567	813
3.34933	814
3.35300	815
3.35667	813
3.36033	808
3.36400	806
3.36767	805
3.37133	805
3.37500	805
3.37867	804
3.38233	801
3.38600	796
3.38967	792
3.39333	786
3.39700	780
3.40067	774
3.40433	769
3.40800	762
3.41167	758
3.41533	753
3.41900	747
3.42267	741
3.42633	734
3.43000	727
3.43367	718
3.43733	711
3.44100	704
3.44467	701
3.44833	697
3.45200	692
3.45567	686
3.45933	678
3.46300	671
3.46667	668
3.47033	666
3.47400	662
3.47767	657
3.48133	654
3.48500	652
3.48867	648
3.49233	645
3.49600	640
3.49967	637
3.50333	636
3.50700	636
3.51067	635
3.51433	633
3.51800	630
3.52167	628
3.52533	624
3.52900	622
3.53267	622
3.53633	620
3.54000	618
3.54367	617
3.54733	616
3.55100	616
3.55467	613
3.55833	609
3.56200	608
3.56567	607
3.56933	606
3.57300	606
3.57667	607
3.58033	605
3.58400	601
3.58767	596
3.59133	595
3.59500	593
3.59867	590
3.60233	587
3.60600	586
3.60967	583
3.61333	580
3.61700	579
3.62067	577
3.62433	577
3.62800	577
3.63167	576
3.63533	574
3.63900	570
3.64267	568
3.64633	566
3.65000	564
3.65367	561
3.65733	559
3.66100	559
3.66467	559
3.66833	558
3.67200	556
3.67567	553
3.67933	551
3.68300	547
3.68667	543
3.69033	538
3.69400	535
3.69767	534
3.70133	533
3.70500	532
3.70867	530
3.71233	528
3.71600	529
3.71967	528
3.72333	524
3.72700	521
3.73067	517
3.73433	517
3.73800	519
3.74167	519
3.74533	518
3.74900	516
3.75267	515
3.75633	514
3.76000	514
3.76367	513
3.76733	512
3.77100	512
3.77467	510
3.77833	507
3.78200	507
3.78567	508
3.78933	507
3.79300	506
3.79667	504
3.80033	502
3.80400	501
3.80767	499
3.81133	498
3.81500	499
3.81867	500
3.82233	501
3.82600	499
3.82967	497
3.83333	495
3.83700	495
3.84067	495
3.84433	494
3.84800	493
3.85167	493
3.85533	493
3.85900	493
3.86267	492
3.86633	489
3.87000	487
3.87367	487
3.87733	486
3.88100	488
3.88467	490
3.88833	489
3.89200	487
3.89567	487
3.89933	486
3.90300	487
3.90667	484
3.91033	483
3.91400	484
3.91767	484
3.92133	485
3.92500	485
3.92867	484
3.93233	483
3.93600	481
3.93967	479
3.94333	476
3.94700	476
3.95067	477
3.95433	479
3.95800	479
3.96167	480
3.96533	482
3.96900	482
3.97267	478
3.97633	475
3.98000	474
3.98367	474
3.98733	476
3.99100	476
3.99467	473
3.99833	470

[Status Trace (Column Oven Temperature)]
Interval(msec)	1000
# of Points	240
Start Time(min)	0.009
End Time(min)	3.992
Intensity Units	
Intensity Multiplier	1
R.Time (min)	Intensity
0.00878	35.04
0.02545	35.03
0.04212	35.03
0.05878	35.03
0.07545	35.03
0.09212	35.03
0.10878	35.03
0.12545	35.03
0.14212	35.03
0.15878	35.02
0.17545	35.03
0.19212	35.03
0.20878	35.01
0.22545	35.01
0.24212	35.01
0.25878	35.01
0.27545	35.02
0.29212	35.02
0.30878	35.02
0.32545	35.03
0.34212	35.04
0.35878	35.05
0.37545	35.05
0.39212	35.05
0.40878	35.03
0.42545	35.03
0.44212	35.01
0.45878	35.00
0.47545	34.98
0.49212	34.99
0.50878	34.99
0.52545	35.00
0.54212	35.01
0.55878	35.01
0.57545	35.00
0.59212	35.00
0.60878	35.01
0.62545	35.00
0.64212	35.02
0.65878	35.01
0.67545	35.01
0.69212	35.01
0.70878	35.00
0.72545	35.00
0.74212	34.99
0.75878	34.98
0.77545	34.98
0.79212	34.96
0.80878	34.96
0.82545	34.96
0.84212	34.97
0.85878	34.98
0.87545	34.99
0.89212	34.99
0.90878	34.99
0.92545	34.99
0.94212	34.99
0.95878	35.00
0.97545	34.99
0.99212	34.99
1.00878	34.99
1.02545	35.01
1.04212	35.03
1.05878	35.03
1.07545	35.03
1.09212	35.02
1.10878	35.02
1.12545	35.00
1.14212	34.99
1.15878	35.00
1.17545	34.99
1.19212	35.00
1.20878	35.00
1.22545	35.00
1.24212	35.01
1.25878	35.00
1.27545	35.00
1.29212	34.99
1.30878	34.98
1.32545	34.98
1.34212	34.98
1.35878	34.99
1.37545	34.99
1.39212	34.98
1.40878	34.97
1.42545	34.96
1.44212	34.97
1.45878	34.97
1.47545	34.98
1.49212	34.99
1.50878	34.99
1.52545	35.00
1.54212	35.01
1.55878	35.01
1.57545	35.01
1.59212	35.02
1.60878	35.06
1.62545	35.17
1.64212	35.35
1.65878	35.62
1.67545	35.98
1.69212	36.35
1.70878	36.70
1.72545	37.05
1.74212	37.38
1.75878	37.68
1.77545	38.02
1.79212	38.36
1.80878	38.69
1.82545	39.02
1.84212	39.35
1.85878	39.68
1.87545	40.00
1.89212	40.32
1.90878	40.66
1.92545	41.00
1.94212	41.31
1.95878	41.63
1.97545	41.96
1.99212	42.28
2.00878	42.61
2.02545	42.94
2.04212	43.26
2.05878	43.58
2.07545	43.92
2.09212	44.24
2.10878	44.56
2.12545	44.90
2.14212	45.21
2.15878	45.54
2.17545	45.85
2.19212	46.17
2.20878	46.50
2.22545	46.84
2.24212	47.15
2.25878	47.53
2.27545	47.84
2.29212	48.18
2.30878	48.52
2.32545	48.85
2.34212	49.17
2.35878	49.43
2.37545	49.63
2.39212	49.68
2.40878	49.68
2.42545	49.69
2.44212	49.70
2.45878	49.72
2.47545	49.73
2.49212	49.74
2.50878	49.76
2.52545	49.78
2.54212	49.80
2.55878	49.83
2.57545	49.82
2.59212	49.83
2.60878	49.84
2.62545	49.84
2.64212	49.86
2.65878	49.85
2.67545	49.85
2.69212	49.86
2.70878	49.85
2.72545	49.86
2.74212	49.88
2.75878	49.88
2.77545	49.88
2.79212	49.89
2.80878	49.89
2.82545	49.89
2.84212	49.89
2.85878	49.90
2.87545	49.90
2.89212	49.91
2.90878	49.92
2.92545	49.94
2.94212	49.95
2.95878	49.97
2.97545	49.98
2.99212	49.99
3.00878	50.00
3.02545	50.01
3.04212	50.02
3.05878	50.02
3.07545	50.04
3.09212	50.05
3.10878	50.07
3.12545	50.08
3.14212	50.10
3.15878	50.12
3.17545	50.11
3.19212	50.11
3.20878	50.09
3.22545	50.08
3.24212	50.08
3.25878	50.08
3.27545	50.06
3.29212	50.06
3.30878	50.05
3.32545	50.04
3.34212	50.05
3.35878	50.05
3.37545	50.05
3.39212	50.05
3.40878	50.04
3.42545	50.04
3.44212	50.05
3.45878	50.07
3.47545	50.07
3.49212	50.07
3.50878	50.08
3.52545	50.08
3.54212	50.08
3.55878	50.08
3.57545	50.08
3.59212	50.09
3.60878	50.09
3.62545	50.09
3.64212	50.09
3.65878	50.09
3.67545	50.09
3.69212	50.09
3.70878	50.08
3.72545	50.09
3.74212	50.09
3.75878	50.10
3.77545	50.10
3.79212	50.10
3.80878	50.09
3.82545	50.08
3.84212	50.07
3.85878	50.05
3.87545	50.03
3.89212	50.03
3.90878	50.03
3.92545	50.02
3.94212	50.01
3.95878	50.00
3.97545	50.01
3.99212	50.02

[Status Trace (Injection Unit Temperature)]
Interval(msec)	1000
# of Points	240
Start Time(min)	0.009
End Time(min)	3.992
Intensity Units	
Intensity Multiplier	1
R.Time (min)	Intensity
0.00878	99.98
0.02545	99.98
0.04212	99.98
0.05878	99.97
0.07545	99.98
0.09212	99.98
0.10878	99.98
0.12545	99.98
0.14212	99.98
0.15878	99.98
0.17545	99.98
0.19212	99.98
0.20878	99.98
0.22545	99.98
0.24212	99.98
0.25878	99.98
0.27545	99.98
0.29212	99.99
0.30878	99.99
0.32545	99.98
0.34212	99.99
0.35878	99.99
0.37545	99.99
0.39212	99.98
0.40878	99.99
0.42545	99.98
0.44212	99.99
0.45878	99.99
0.47545	99.99
0.49212	99.98
0.50878	99.99
0.52545	99.99
0.54212	99.98
0.55878	99.99
0.57545	99.99
0.59212	99.99
0.60878	99.99
0.62545	99.98
0.64212	99.98
0.65878	99.98
0.67545	99.98
0.69212	99.99
0.70878	99.99
0.72545	99.99
0.74212	99.99
0.75878	99.98
0.77545	99.98
0.79212	99.98
0.80878	99.99
0.82545	99.98
0.84212	99.98
0.85878	99.98
0.87545	99.98
0.89212	99.98
0.90878	99.98
0.92545	99.98
0.94212	99.98
0.95878	99.98
0.97545	99.98
0.99212	99.98
1.00878	99.98
1.02545	99.98
1.04212	99.98
1.05878	99.98
1.07545	99.98
1.09212	99.98
1.10878	99.98
1.12545	99.98
1.14212	99.98
1.15878	99.98
1.17545	99.98
1.19212	99.98
1.20878	99.98
1.22545	99.98
1.24212	99.98
1.25878	99.98
1.27545	99.98
1.29212	99.98
1.30878	99.98
1.32545	99.98
1.34212	99.98
1.35878	99.98
1.37545	99.98
1.39212	99.98
1.40878	99.98
1.42545	99.98
1.44212	99.98
1.45878	99.99
1.47545	99.99
1.49212	99.98
1.50878	99.99
1.52545	99.98
1.54212	99.99
1.55878	99.98
1.57545	99.99
1.59212	99.98
1.60878	99.99
1.62545	99.99
1.64212	99.99
1.65878	99.98
1.67545	99.98
1.69212	99.98
1.70878	99.98
1.72545	99.98
1.74212	99.98
1.75878	99.98
1.77545	99.98
1.79212	99.98
1.80878	99.98
1.82545	99.98
1.84212	99.98
1.85878	99.98
1.87545	99.98
1.89212	99.98
1.90878	99.98
1.92545	99.98
1.94212	99.98
1.95878	99.98
1.97545	99.97
1.99212	99.98
2.00878	99.97
2.02545	99.98
2.04212	99.97
2.05878	99.97
2.07545	99.97
2.09212	99.97
2.10878	99.97
2.12545	99.97
2.14212	99.97
2.15878	99.97
2.17545	99.97
2.19212	99.97
2.20878	99.97
2.22545	99.97
2.24212	99.97
2.25878	99.96
2.27545	99.96
2.29212	99.96
2.30878	99.96
2.32545	99.96
2.34212	99.96
2.35878	99.96
2.37545	99.96
2.39212	99.96
2.40878	99.96
2.42545	99.96
2.44212	99.96
2.45878	99.96
2.47545	99.96
2.49212	99.96
2.50878	99.96
2.52545	99.97
2.54212	99.97
2.55878	99.97
2.57545	99.97
2.59212	99.97
2.60878	99.97
2.62545	99.97
2.64212	99.97
2.65878	99.98
2.67545	99.98
2.69212	99.98
2.70878	99.98
2.72545	99.99
2.74212	99.99
2.75878	99.99
2.77545	99.99
2.79212	100.00
2.80878	100.00
2.82545	99.99
2.84212	100.00
2.85878	100.00
2.87545	100.00
2.89212	100.00
2.90878	100.01
2.92545	100.01
2.94212	100.01
2.95878	100.01
2.97545	100.01
2.99212	100.01
3.00878	100.01
3.02545	100.01
3.04212	100.02
3.05878	100.02
3.07545	100.02
3.09212	100.02
3.10878	100.02
3.12545	100.02
3.14212	100.02
3.15878	100.03
3.17545	100.03
3.19212	100.03
3.20878	100.03
3.22545	100.03
3.24212	100.03
3.25878	100.03
3.27545	100.03
3.29212	100.04
3.30878	100.03
3.32545	100.03
3.34212	100.03
3.35878	100.04
3.37545	100.03
3.39212	100.04
3.40878	100.04
3.42545	100.04
3.44212	100.03
3.45878	100.04
3.47545	100.04
3.49212	100.04
3.50878	100.04
3.52545	100.05
3.54212	100.04
3.55878	100.04
3.57545	100.04
3.59212	100.05
3.60878	100.05
3.62545	100.05
3.64212	100.05
3.65878	100.04
3.67545	100.05
3.69212	100.05
3.70878	100.05
3.72545	100.05
3.74212	100.05
3.75878	100.05
3.77545	100.05
3.79212	100.05
3.80878	100.05
3.82545	100.05
3.84212	100.05
3.85878	100.05
3.87545	100.05
3.89212	100.05
3.90878	100.05
3.92545	100.05
3.94212	100.05
3.95878	100.05
3.97545	100.05
3.99212	100.05

[Status Trace (Carrier Gas Pressure)]
Interval(msec)	1000
# of Points	240
Start Time(min)	0.009
End Time(min)	3.992
Intensity Units	
Intensity Multiplier	1
R.Time (min)	Intensity
0.00878	58.00
0.02545	55.28
0.04212	57.30
0.05878	59.33
0.07545	59.30
0.09212	58.03
0.10878	57.98
0.12545	58.01
0.14212	58.01
0.15878	58.00
0.17545	58.00
0.19212	58.00
0.20878	58.00
0.22545	58.00
0.24212	58.00
0.25878	58.00
0.27545	58.00
0.29212	58.00
0.30878	58.00
0.32545	58.00
0.34212	58.00
0.35878	58.00
0.37545	58.00
0.39212	58.00
0.40878	58.00
0.42545	58.00
0.44212	58.00
0.45878	58.00
0.47545	58.00
0.49212	58.00
0.50878	58.00
0.52545	58.00
0.54212	58.00
0.55878	58.00
0.57545	58.00
0.59212	58.00
0.60878	58.00
0.62545	58.00
0.64212	58.00
0.65878	58.00
0.67545	58.00
0.69212	58.00
0.70878	58.00
0.72545	58.00
0.74212	58.00
0.75878	58.00
0.77545	58.00
0.79212	58.00
0.80878	58.00
0.82545	58.00
0.84212	58.00
0.85878	58.00
0.87545	58.00
0.89212	58.00
0.90878	58.00
0.92545	58.00
0.94212	58.00
0.95878	58.00
0.97545	58.00
0.99212	58.00
1.00878	58.00
1.02545	58.00
1.04212	58.00
1.05878	58.00
1.07545	58.00
1.09212	58.00
1.10878	58.00
1.12545	58.00
1.14212	58.00
1.15878	58.00
1.17545	58.00
1.19212	58.00
1.20878	58.00
1.22545	58.00
1.24212	58.00
1.25878	58.00
1.27545	58.00
1.29212	58.00
1.30878	58.00
1.32545	58.00
1.34212	58.00
1.35878	58.00
1.37545	58.00
1.39212	58.00
1.40878	58.00
1.42545	58.00
1.44212	58.00
1.45878	58.00
1.47545	58.00
1.49212	58.00
1.50878	58.00
1.52545	58.00
1.54212	58.00
1.55878	58.00
1.57545	58.00
1.59212	58.00
1.60878	58.00
1.62545	58.00
1.64212	58.01
1.65878	58.01
1.67545	58.01
1.69212	58.00
1.70878	58.00
1.72545	58.00
1.74212	58.00
1.75878	58.00
1.77545	58.00
1.79212	58.00
1.80878	58.00
1.82545	58.00
1.84212	58.00
1.85878	58.00
1.87545	58.00
1.89212	58.00
1.90878	58.00
1.92545	58.00
1.94212	58.00
1.95878	58.00
1.97545	58.00
1.99212	58.00
2.00878	58.00
2.02545	58.00
2.04212	58.00
2.05878	58.00
2.07545	58.00
2.09212	58.00
2.10878	58.00
2.12545	58.00
2.14212	58.00
2.15878	58.00
2.17545	58.00
2.19212	58.00
2.20878	58.00
2.22545	58.00
2.24212	58.00
2.25878	58.00
2.27545	58.00
2.29212	58.00
2.30878	58.00
2.32545	58.00
2.34212	58.00
2.35878	58.00
2.37545	58.00
2.39212	57.99
2.40878	57.99
2.42545	58.00
2.44212	58.00
2.45878	58.00
2.47545	58.00
2.49212	58.00
2.50878	58.00
2.52545	57.98
2.54212	58.00
2.55878	58.00
2.57545	58.00
2.59212	58.00
2.60878	58.00
2.62545	58.00
2.64212	58.00
2.65878	58.00
2.67545	58.00
2.69212	58.00
2.70878	58.00
2.72545	58.00
2.74212	58.00
2.75878	58.00
2.77545	58.00
2.79212	58.00
2.80878	58.00
2.82545	58.00
2.84212	58.00
2.85878	58.00
2.87545	58.00
2.89212	58.00
2.90878	58.00
2.92545	58.00
2.94212	58.00
2.95878	58.00
2.97545	58.00
2.99212	58.00
3.00878	58.00
3.02545	58.00
3.04212	58.00
3.05878	58.00
3.07545	58.00
3.09212	58.00
3.10878	58.00
3.12545	58.00
3.14212	58.00
3.15878	58.00
3.17545	58.00
3.19212	58.00
3.20878	58.00
3.22545	58.00
3.24212	58.00
3.25878	58.00
3.27545	58.00
3.29212	58.00
3.30878	58.00
3.32545	58.00
3.34212	58.00
3.35878	58.00
3.37545	58.00
3.39212	58.00
3.40878	58.00
3.42545	58.00
3.44212	58.00
3.45878	58.00
3.47545	58.00
3.49212	58.00
3.50878	58.00
3.52545	58.00
3.54212	58.00
3.55878	58.00
3.57545	58.00
3.59212	58.00
3.60878	58.00
3.62545	58.00
3.64212	58.00
3.65878	58.00
3.67545	58.00
3.69212	58.00
3.70878	58.00
3.72545	58.00
3.74212	58.00
3.75878	58.00
3.77545	58.00
3.79212	58.00
3.80878	58.00
3.82545	58.00
3.84212	58.00
3.85878	58.00
3.87545	58.00
3.89212	58.00
3.90878	58.00
3.92545	58.00
3.94212	58.00
3.95878	58.00
3.97545	58.00
3.99212	58.00

[Status Trace (Carrier Gas Flow)]
Interval(msec)	1000
# of Points	240
Start Time(min)	0.009
End Time(min)	3.992
Intensity Units	
Intensity Multiplier	1
R.Time (min)	Intensity
0.00878	34.52
0.02545	34.54
0.04212	34.54
0.05878	34.55
0.07545	34.50
0.09212	34.52
0.10878	34.52
0.12545	34.52
0.14212	34.52
0.15878	34.52
0.17545	34.52
0.19212	34.52
0.20878	34.52
0.22545	34.52
0.24212	34.52
0.25878	34.52
0.27545	34.52
0.29212	34.52
0.30878	34.52
0.32545	34.52
0.34212	34.52
0.35878	34.52
0.37545	34.52
0.39212	34.52
0.40878	34.52
0.42545	34.52
0.44212	34.52
0.45878	34.52
0.47545	34.52
0.49212	34.52
0.50878	34.52
0.52545	34.52
0.54212	34.52
0.55878	34.52
0.57545	34.52
0.59212	34.52
0.60878	34.52
0.62545	34.51
0.64212	34.52
0.65878	34.52
0.67545	34.52
0.69212	34.52
0.70878	34.52
0.72545	34.52
0.74212	34.52
0.75878	34.52
0.77545	34.52
0.79212	34.52
0.80878	34.52
0.82545	34.52
0.84212	34.52
0.85878	34.52
0.87545	34.52
0.89212	34.52
0.90878	34.51
0.92545	34.52
0.94212	34.52
0.95878	34.52
0.97545	34.52
0.99212	34.52
1.00878	34.52
1.02545	34.52
1.04212	34.52
1.05878	34.52
1.07545	34.51
1.09212	34.52
1.10878	34.52
1.12545	34.52
1.14212	34.52
1.15878	34.52
1.17545	34.52
1.19212	34.52
1.20878	34.52
1.22545	34.52
1.24212	34.52
1.25878	34.52
1.27545	34.52
1.29212	34.52
1.30878	34.52
1.32545	34.52
1.34212	34.52
1.35878	34.52
1.37545	34.52
1.39212	34.52
1.40878	34.52
1.42545	34.52
1.44212	34.52
1.45878	34.52
1.47545	34.52
1.49212	34.52
1.50878	34.52
1.52545	34.52
1.54212	34.52
1.55878	34.52
1.57545	34.52
1.59212	34.52
1.60878	34.52
1.62545	34.52
1.64212	34.52
1.65878	34.52
1.67545	34.52
1.69212	34.52
1.70878	34.53
1.72545	34.51
1.74212	34.52
1.75878	34.52
1.77545	34.51
1.79212	34.52
1.80878	34.52
1.82545	34.51
1.84212	34.51
1.85878	34.52
1.87545	34.52
1.89212	34.51
1.90878	34.52
1.92545	34.52
1.94212	34.51
1.95878	34.52
1.97545	34.52
1.99212	34.51
2.00878	34.52
2.02545	34.52
2.04212	34.51
2.05878	34.51
2.07545	34.52
2.09212	34.52
2.10878	34.53
2.12545	34.52
2.14212	34.51
2.15878	34.52
2.17545	34.52
2.19212	34.52
2.20878	34.52
2.22545	34.52
2.24212	34.51
2.25878	34.51
2.27545	34.52
2.29212	34.51
2.30878	34.51
2.32545	34.51
2.34212	34.51
2.35878	34.52
2.37545	34.51
2.39212	34.52
2.40878	34.52
2.42545	34.52
2.44212	34.52
2.45878	34.52
2.47545	34.52
2.49212	34.52
2.50878	34.45
2.52545	34.53
2.54212	34.52
2.55878	34.52
2.57545	34.52
2.59212	34.52
2.60878	34.52
2.62545	34.51
2.64212	34.52
2.65878	34.52
2.67545	34.52
2.69212	34.53
2.70878	34.51
2.72545	34.52
2.74212	34.51
2.75878	34.52
2.77545	34.52
2.79212	34.51
2.80878	34.52
2.82545	34.52
2.84212	34.52
2.85878	34.52
2.87545	34.52
2.89212	34.52
2.90878	34.52
2.92545	34.52
2.94212	34.52
2.95878	34.52
2.97545	34.52
2.99212	34.51
3.00878	34.52
3.02545	34.52
3.04212	34.52
3.05878	34.52
3.07545	34.52
3.09212	34.52
3.10878	34.52
3.12545	34.51
3.14212	34.52
3.15878	34.52
3.17545	34.52
3.19212	34.52
3.20878	34.52
3.22545	34.52
3.24212	34.52
3.25878	34.52
3.27545	34.52
3.29212	34.52
3.30878	34.53
3.32545	34.52
3.34212	34.52
3.35878	34.52
3.37545	34.52
3.39212	34.52
3.40878	34.52
3.42545	34.52
3.44212	34.52
3.45878	34.52
3.47545	34.52
3.49212	34.52
3.50878	34.52
3.52545	34.52
3.54212	34.52
3.55878	34.52
3.57545	34.52
3.59212	34.52
3.60878	34.52
3.62545	34.52
3.64212	34.52
3.65878	34.52
3.67545	34.52
3.69212	34.52
3.70878	34.52
3.72545	34.52
3.74212	34.52
3.75878	34.52
3.77545	34.52
3.79212	34.52
3.80878	34.52
3.82545	34.52
3.84212	34.52
3.85878	34.52
3.87545	34.51
3.89212	34.52
3.90878	34.52
3.92545	34.52
3.94212	34.52
3.95878	34.52
3.97545	34.52
3.99212	34.52

[Status Trace (Column Flow)]
Interval(msec)	1000
# of Points	240
Start Time(min)	0.009
End Time(min)	3.992
Intensity Units	
Intensity Multiplier	1
R.Time (min)	Intensity
0.00878	5.57
0.02545	5.26
0.04212	5.49
0.05878	5.73
0.07545	5.73
0.09212	5.58
0.10878	5.57
0.12545	5.57
0.14212	5.57
0.15878	5.57
0.17545	5.57
0.19212	5.57
0.20878	5.57
0.22545	5.57
0.24212	5.57
0.25878	5.57
0.27545	5.57
0.29212	5.57
0.30878	5.57
0.32545	5.57
0.34212	5.57
0.35878	5.57
0.37545	5.57
0.39212	5.57
0.40878	5.57
0.42545	5.57
0.44212	5.57
0.45878	5.57
0.47545	5.57
0.49212	5.57
0.50878	5.57
0.52545	5.57
0.54212	5.57
0.55878	5.57
0.57545	5.57
0.59212	5.57
0.60878	5.57
0.62545	5.57
0.64212	5.57
0.65878	5.57
0.67545	5.57
0.69212	5.57
0.70878	5.57
0.72545	5.57
0.74212	5.57
0.75878	5.57
0.77545	5.57
0.79212	5.57
0.80878	5.57
0.82545	5.57
0.84212	5.57
0.85878	5.57
0.87545	5.57
0.89212	5.57
0.90878	5.57
0.92545	5.57
0.94212	5.57
0.95878	5.57
0.97545	5.57
0.99212	5.57
1.00878	5.57
1.02545	5.57
1.04212	5.57
1.05878	5.57
1.07545	5.57
1.09212	5.57
1.10878	5.57
1.12545	5.57
1.14212	5.57
1.15878	5.57
1.17545	5.57
1.19212	5.57
1.20878	5.57
1.22545	5.57
1.24212	5.57
1.25878	5.57
1.27545	5.57
1.29212	5.57
1.30878	5.57
1.32545	5.57
1.34212	5.57
1.35878	5.57
1.37545	5.57
1.39212	5.57
1.40878	5.57
1.42545	5.57
1.44212	5.57
1.45878	5.57
1.47545	5.57
1.49212	5.57
1.50878	5.57
1.52545	5.57
1.54212	5.57
1.55878	5.57
1.57545	5.57
1.59212	5.57
1.60878	5.57
1.62545	5.57
1.64212	5.56
1.65878	5.56
1.67545	5.54
1.69212	5.53
1.70878	5.52
1.72545	5.51
1.74212	5.50
1.75878	5.49
1.77545	5.48
1.79212	5.47
1.80878	5.46
1.82545	5.45
1.84212	5.44
1.85878	5.43
1.87545	5.42
1.89212	5.41
1.90878	5.40
1.92545	5.39
1.94212	5.38
1.95878	5.37
1.97545	5.36
1.99212	5.35
2.00878	5.34
2.02545	5.33
2.04212	5.32
2.05878	5.31
2.07545	5.30
2.09212	5.29
2.10878	5.28
2.12545	5.27
2.14212	5.26
2.15878	5.25
2.17545	5.24
2.19212	5.24
2.20878	5.23
2.22545	5.22
2.24212	5.21
2.25878	5.20
2.27545	5.19
2.29212	5.18
2.30878	5.17
2.32545	5.16
2.34212	5.15
2.35878	5.14
2.37545	5.14
2.39212	5.13
2.40878	5.13
2.42545	5.13
2.44212	5.13
2.45878	5.13
2.47545	5.13
2.49212	5.13
2.50878	5.13
2.52545	5.13
2.54212	5.13
2.55878	5.13
2.57545	5.13
2.59212	5.13
2.60878	5.13
2.62545	5.13
2.64212	5.13
2.65878	5.13
2.67545	5.13
2.69212	5.13
2.70878	5.13
2.72545	5.13
2.74212	5.13
2.75878	5.13
2.77545	5.13
2.79212	5.13
2.80878	5.13
2.82545	5.13
2.84212	5.13
2.85878	5.13
2.87545	5.13
2.89212	5.13
2.90878	5.13
2.92545	5.13
2.94212	5.13
2.95878	5.13
2.97545	5.13
2.99212	5.13
3.00878	5.13
3.02545	5.13
3.04212	5.13
3.05878	5.13
3.07545	5.13
3.09212	5.12
3.10878	5.12
3.12545	5.12
3.14212	5.12
3.15878	5.12
3.17545	5.12
3.19212	5.12
3.20878	5.12
3.22545	5.12
3.24212	5.12
3.25878	5.12
3.27545	5.12
3.29212	5.12
3.30878	5.12
3.32545	5.13
3.34212	5.13
3.35878	5.12
3.37545	5.12
3.39212	5.13
3.40878	5.13
3.42545	5.13
3.44212	5.12
3.45878	5.12
3.47545	5.12
3.49212	5.12
3.50878	5.12
3.52545	5.12
3.54212	5.12
3.55878	5.12
3.57545	5.12
3.59212	5.12
3.60878	5.12
3.62545	5.12
3.64212	5.12
3.65878	5.12
3.67545	5.12
3.69212	5.12
3.70878	5.12
3.72545	5.12
3.74212	5.12
3.75878	5.12
3.77545	5.12
3.79212	5.12
3.80878	5.12
3.82545	5.12
3.84212	5.12
3.85878	5.12
3.87545	5.13
3.89212	5.13
3.90878	5.13
3.92545	5.13
3.94212	5.13
3.95878	5.13
3.97545	5.13
3.99212	5.13

[Status Trace (Linear Velocity)]
Interval(msec)	1000
# of Points	240
Start Time(min)	0.009
End Time(min)	3.992
Intensity Units	
Intensity Multiplier	1
R.Time (min)	Intensity
0.00878	39.03
0.02545	37.24
0.04212	38.57
0.05878	39.90
0.07545	39.88
0.09212	39.05
0.10878	39.02
0.12545	39.03
0.14212	39.03
0.15878	39.03
0.17545	39.03
0.19212	39.03
0.20878	39.03
0.22545	39.03
0.24212	39.03
0.25878	39.03
0.27545	39.03
0.29212	39.03
0.30878	39.03
0.32545	39.03
0.34212	39.03
0.35878	39.02
0.37545	39.02
0.39212	39.02
0.40878	39.03
0.42545	39.03
0.44212	39.03
0.45878	39.03
0.47545	39.03
0.49212	39.03
0.50878	39.03
0.52545	39.03
0.54212	39.03
0.55878	39.03
0.57545	39.03
0.59212	39.03
0.60878	39.03
0.62545	39.03
0.64212	39.03
0.65878	39.03
0.67545	39.03
0.69212	39.03
0.70878	39.03
0.72545	39.03
0.74212	39.03
0.75878	39.03
0.77545	39.03
0.79212	39.03
0.80878	39.03
0.82545	39.03
0.84212	39.03
0.85878	39.03
0.87545	39.03
0.89212	39.03
0.90878	39.03
0.92545	39.03
0.94212	39.03
0.95878	39.03
0.97545	39.03
0.99212	39.03
1.00878	39.03
1.02545	39.03
1.04212	39.03
1.05878	39.03
1.07545	39.03
1.09212	39.03
1.10878	39.03
1.12545	39.03
1.14212	39.03
1.15878	39.03
1.17545	39.03
1.19212	39.03
1.20878	39.03
1.22545	39.03
1.24212	39.03
1.25878	39.03
1.27545	39.03
1.29212	39.03
1.30878	39.03
1.32545	39.03
1.34212	39.03
1.35878	39.03
1.37545	39.03
1.39212	39.03
1.40878	39.03
1.42545	39.03
1.44212	39.03
1.45878	39.03
1.47545	39.03
1.49212	39.03
1.50878	39.03
1.52545	39.03
1.54212	39.03
1.55878	39.03
1.57545	39.03
1.59212	39.03
1.60878	39.03
1.62545	39.02
1.64212	39.00
1.65878	38.98
1.67545	38.94
1.69212	38.90
1.70878	38.87
1.72545	38.83
1.74212	38.80
1.75878	38.78
1.77545	38.74
1.79212	38.71
1.80878	38.68
1.82545	38.65
1.84212	38.62
1.85878	38.59
1.87545	38.55
1.89212	38.52
1.90878	38.50
1.92545	38.46
1.94212	38.43
1.95878	38.40
1.97545	38.37
1.99212	38.34
2.00878	38.32
2.02545	38.28
2.04212	38.25
2.05878	38.23
2.07545	38.19
2.09212	38.16
2.10878	38.14
2.12545	38.10
2.14212	38.07
2.15878	38.05
2.17545	38.02
2.19212	37.99
2.20878	37.96
2.22545	37.93
2.24212	37.90
2.25878	37.87
2.27545	37.83
2.29212	37.81
2.30878	37.78
2.32545	37.75
2.34212	37.72
2.35878	37.69
2.37545	37.67
2.39212	37.67
2.40878	37.67
2.42545	37.67
2.44212	37.67
2.45878	37.67
2.47545	37.67
2.49212	37.67
2.50878	37.66
2.52545	37.65
2.54212	37.66
2.55878	37.66
2.57545	37.66
2.59212	37.66
2.60878	37.66
2.62545	37.66
2.64212	37.66
2.65878	37.66
2.67545	37.66
2.69212	37.66
2.70878	37.66
2.72545	37.66
2.74212	37.66
2.75878	37.65
2.77545	37.65
2.79212	37.65
2.80878	37.65
2.82545	37.65
2.84212	37.65
2.85878	37.65
2.87545	37.65
2.89212	37.65
2.90878	37.65
2.92545	37.65
2.94212	37.65
2.95878	37.65
2.97545	37.65
2.99212	37.64
3.00878	37.64
3.02545	37.64
3.04212	37.64
3.05878	37.64
3.07545	37.64
3.09212	37.64
3.10878	37.64
3.12545	37.64
3.14212	37.64
3.15878	37.63
3.17545	37.63
3.19212	37.63
3.20878	37.64
3.22545	37.64
3.24212	37.64
3.25878	37.64
3.27545	37.64
3.29212	37.64
3.30878	37.64
3.32545	37.64
3.34212	37.64
3.35878	37.64
3.37545	37.64
3.39212	37.64
3.40878	37.64
3.42545	37.64
3.44212	37.64
3.45878	37.64
3.47545	37.64
3.49212	37.64
3.50878	37.64
3.52545	37.64
3.54212	37.64
3.55878	37.64
3.57545	37.64
3.59212	37.64
3.60878	37.64
3.62545	37.64
3.64212	37.64
3.65878	37.64
3.67545	37.64
3.69212	37.64
3.70878	37.64
3.72545	37.64
3.74212	37.64
3.75878	37.64
3.77545	37.64
3.79212	37.64
3.80878	37.64
3.82545	37.64
3.84212	37.64
3.85878	37.64
3.87545	37.64
3.89212	37.64
3.90878	37.64
3.92545	37.64
3.94212	37.64
3.95878	37.64
3.97545	37.64
3.99212	37.64

