[Header]
Application Name	LabSolutions
Version	5.110
Data File Name	C:\Users\User\Desktop\GC Analyses\Jack\Nachusa Grasslands Sampling\T0 Timepoint July 12th\T0_07122022_045.gcd
Output Date	3/14/2023
Output Time	3:40:36 PM

[File Information]
Type	Data File
Generated	3/7/2023 6:44:48 PM
Generated by	System Administrator
Modified	3/7/2023 6:51:33 PM
Modified by	System Administrator

[Sample Information]
Operator Name	System Administrator
Acquired	3/7/2023 6:47:31 PM
Sample Type	0:Unknown
Level	0
Sample Name	045
Sample ID	045
ISTD Amount1	1
ISTD Amount2	1
ISTD Amount3	1
ISTD Amount4	1
ISTD Amount5	1
ISTD Amount6	1
ISTD Amount7	1
ISTD Amount8	1
ISTD Amount9	1
ISTD Amount10	1
ISTD Amount11	1
ISTD Amount12	1
ISTD Amount13	1
ISTD Amount14	1
ISTD Amount15	1
ISTD Amount16	1
ISTD Amount17	1
ISTD Amount18	1
ISTD Amount19	1
ISTD Amount20	1
ISTD Amount21	1
ISTD Amount22	1
ISTD Amount23	1
ISTD Amount24	1
ISTD Amount25	1
ISTD Amount26	1
ISTD Amount27	1
ISTD Amount28	1
ISTD Amount29	1
ISTD Amount30	1
ISTD Amount31	1
ISTD Amount32	1
Sample Amount	1
Dilution Factor	1
Vial#	44
Injection Volume	1
Injection Count	1
Bar Code	

[Original Files]
Data File	C:\Users\User\Desktop\GC Analyses\Jack\Nachusa Grasslands Sampling\T0 Timepoint July 12th\T0_07122022_045.gcd
Method File	C:\LabSolutions\Data\GHG_4min_2022\ghg3_togas_w_acet_4 min_new_int.gcm
Batch File	C:\LabSolutions\Data\AutoSamplerTesting\T0_07122022.gcb
Report Format File	c:\LabSolutions\System\DEFAULT.lsr

[File Description]


[Configuration]
Instrument Name	C0B7VH3-Instrument1
Instrument #	1
Line #	1
# of Detectors	3
Detector ID	DET#1	DET#2	DET#3
Detector Name	FID	PTCD	ECD
# of Channels	1	1	1

[Peak Table(Ch1)]
# of Peaks	3
Peak#	R.Time	I.Time	F.Time	Area	Height	A/H	Conc.	Mark	ID#	Name	k'	Plate #	Plate Ht.	Tailing	Resolution	Sep.Factor	Area Ratio	Height Ratio	Conc. %	Norm Conc.
1	1.476	1.439	1.538	26955	12718	2.120	190.304	   	1	CO	0.000	9132	16.425	1.346	0.000	0.000	0	0	34.063	34.063
2	1.567	1.538	1.633	4902	2352	2.084	94.789	 V 	2	CH4	0.062	10437	14.372	0.000	1.489	0.000	0	0	16.967	16.967
3	1.996	1.949	2.510	1090108	513496	2.123	273.587	   	3	CO2	0.353	17335	8.653	1.320	7.032	5.680	0	0	48.970	48.970

[Peak Table(Ch2)]
# of Peaks	0

[Peak Table(Ch3)]
# of Peaks	5
Peak#	R.Time	I.Time	F.Time	Area	Height	A/H	Conc.	Mark	ID#	Name	k'	Plate #	Plate Ht.	Tailing	Resolution	Sep.Factor	Area Ratio	Height Ratio	Conc. %	Norm Conc.
1	2.462	2.312	2.521	1405	359	3.917	0.000	   			0.000	6893	21.761	0.000	0.000	0.000	0	0	0.000	0.000
2	2.546	2.521	2.634	925	195	4.750	0.000	 V 			0.034	2261	66.341	0.000	0.507	0.000	0	0	0.000	0.000
3	2.730	2.649	2.774	630	111	5.655	0.016	   	1	N2O	0.109	281	534.322	0.000	0.423	3.174	0	0	3.082	3.082
4	2.873	2.774	3.089	19809	4916	4.030	0.506	 V 	1	N2O	0.167	13138	11.417	1.707	0.380	1.534	0	0	96.918	96.918
5	3.291	3.093	3.991	16466	606	27.191	0.000	   	2	SF6	0.337	261	574.832	2.200	0.914	2.018	0	0	0.000	0.000

[Compound Results(Ch1)]
# of IDs	6
ID#	Name	R.Time	Area	Height	Conc.	Curve	3rd	2nd	1st	Constant	Area Ratio	Height Ratio	Conc. %	Norm Conc.
1	CO	1.476	26955	12718	190.304	Linear	0.000000e+00	0.000000e+00	1.416423e+002	0.000000e+00	0	0	34.063	34.063
2	CH4	1.567	4902	2352	94.789	Linear	0.000000e+00	0.000000e+00	5.171738e+001	0.000000e+00	0	0	16.967	16.967
3	CO2	1.996	1090108	513496	273.587	Linear	0.000000e+00	0.000000e+00	3.984494e+003	0.000000e+00	0	0	48.970	48.970
4	Ethylene	0.000	0	0	0.000	Linear	0.000000e+00	0.000000e+00	0.000000e+00	0.000000e+00	0	0	0.000	0.000
5	Acetylene	0.000	0	0	0.000	Linear	0.000000e+00	0.000000e+00	0.000000e+00	0.000000e+00	0	0	0.000	0.000
6	Ethane	0.000	0	0	0.000	Linear	0.000000e+00	0.000000e+00	0.000000e+00	0.000000e+00	0	0	0.000	0.000

[Compound Results(Ch2)]
# of IDs	5
ID#	Name	R.Time	Area	Height	Conc.	Curve	3rd	2nd	1st	Constant	Area Ratio	Height Ratio	Conc. %	Norm Conc.
1	Hydrogen	0.000	0	0	0.000	Linear	0.000000e+00	0.000000e+00	0.000000e+00	0.000000e+00	0	0	0.000	0.000
2	Oxygen	0.000	0	0	0.000	Linear	0.000000e+00	0.000000e+00	0.000000e+00	0.000000e+00	0	0	0.000	0.000
3	Nitrogen	0.000	0	0	0.000	Linear	0.000000e+00	0.000000e+00	0.000000e+00	0.000000e+00	0	0	0.000	0.000
4	Methane	0.000	0	0	0.000	Linear	0.000000e+00	0.000000e+00	0.000000e+00	0.000000e+00	0	0	0.000	0.000
5	Carbon Monoxide	0.000	0	0	0.000	Linear	0.000000e+00	0.000000e+00	0.000000e+00	0.000000e+00	0	0	0.000	0.000

[Compound Results(Ch3)]
# of IDs	2
ID#	Name	R.Time	Area	Height	Conc.	Curve	3rd	2nd	1st	Constant	Area Ratio	Height Ratio	Conc. %	Norm Conc.
1	N2O	2.873	20439	5027	0.522	Linear	0.000000e+00	0.000000e+00	3.915173e+004	0.000000e+00	0	0	100.000	100.000
2	SF6	3.291	16466	606	0.000	Linear	0.000000e+00	0.000000e+00	0.000000e+00	0.000000e+00	0	0	0.000	0.000

[Group Results(Ch1)]
# of Groups	0

[Group Results(Ch2)]
# of Groups	0

[Group Results(Ch3)]
# of Groups	0

[Chromatogram (Ch1)]
Interval(msec)	220
# of Points	1091
Start Time(min)	0.002
End Time(min)	3.998
R.Time (min)	Intensity
0.00167	30
0.00533	23
0.00900	15
0.01267	3
0.01633	-10
0.02000	-22
0.02367	-27
0.02733	-25
0.03100	-21
0.03467	-19
0.03833	-19
0.04200	-21
0.04567	-21
0.04933	-19
0.05300	-20
0.05667	-19
0.06033	-13
0.06400	-5
0.06767	1
0.07133	6
0.07500	9
0.07867	12
0.08233	12
0.08600	8
0.08967	3
0.09333	-2
0.09700	-6
0.10067	-5
0.10433	2
0.10800	10
0.11167	13
0.11533	13
0.11900	13
0.12267	17
0.12633	27
0.13000	42
0.13367	52
0.13733	53
0.14100	51
0.14467	49
0.14833	49
0.15200	51
0.15567	58
0.15933	65
0.16300	69
0.16667	71
0.17033	71
0.17400	73
0.17767	76
0.18133	78
0.18500	81
0.18867	87
0.19233	94
0.19600	100
0.19967	104
0.20333	111
0.20700	117
0.21067	116
0.21433	111
0.21800	106
0.22167	103
0.22533	106
0.22900	111
0.23267	114
0.23633	113
0.24000	110
0.24367	105
0.24733	102
0.25100	100
0.25467	102
0.25833	105
0.26200	105
0.26567	102
0.26933	95
0.27300	86
0.27667	79
0.28033	72
0.28400	64
0.28767	55
0.29133	48
0.29500	42
0.29867	35
0.30233	30
0.30600	29
0.30967	29
0.31333	30
0.31700	30
0.32067	28
0.32433	28
0.32800	28
0.33167	28
0.33533	26
0.33900	23
0.34267	17
0.34633	11
0.35000	9
0.35367	10
0.35733	13
0.36100	13
0.36467	14
0.36833	16
0.37200	20
0.37567	24
0.37933	25
0.38300	21
0.38667	16
0.39033	14
0.39400	14
0.39767	11
0.40133	8
0.40500	8
0.40867	5
0.41233	2
0.41600	-1
0.41967	-2
0.42333	-1
0.42700	2
0.43067	3
0.43433	4
0.43800	5
0.44167	8
0.44533	16
0.44900	22
0.45267	22
0.45633	19
0.46000	18
0.46367	18
0.46733	15
0.47100	10
0.47467	4
0.47833	1
0.48200	-0
0.48567	-2
0.48933	-8
0.49300	-16
0.49667	-21
0.50033	-21
0.50400	-15
0.50767	-5
0.51133	-3
0.51500	-6
0.51867	-10
0.52233	-11
0.52600	-8
0.52967	-5
0.53333	-4
0.53700	-3
0.54067	1
0.54433	4
0.54800	2
0.55167	-2
0.55533	-6
0.55900	-9
0.56267	-11
0.56633	-11
0.57000	-7
0.57367	-2
0.57733	1
0.58100	-1
0.58467	-6
0.58833	-11
0.59200	-13
0.59567	-11
0.59933	-6
0.60300	-2
0.60667	-1
0.61033	-3
0.61400	-5
0.61767	-7
0.62133	-9
0.62500	-14
0.62867	-18
0.63233	-22
0.63600	-27
0.63967	-32
0.64333	-34
0.64700	-30
0.65067	-20
0.65433	-11
0.65800	-9
0.66167	-11
0.66533	-14
0.66900	-20
0.67267	-29
0.67633	-36
0.68000	-39
0.68367	-38
0.68733	-36
0.69100	-34
0.69467	-30
0.69833	-24
0.70200	-17
0.70567	-14
0.70933	-17
0.71300	-20
0.71667	-22
0.72033	-24
0.72400	-24
0.72767	-22
0.73133	-23
0.73500	-23
0.73867	-21
0.74233	-18
0.74600	-14
0.74967	-15
0.75333	-20
0.75700	-26
0.76067	-28
0.76433	-25
0.76800	-19
0.77167	-13
0.77533	-9
0.77900	-3
0.78267	2
0.78633	8
0.79000	12
0.79367	15
0.79733	14
0.80100	6
0.80467	-5
0.80833	-19
0.81200	-28
0.81567	-31
0.81933	-35
0.82300	-38
0.82667	-36
0.83033	-33
0.83400	-34
0.83767	-39
0.84133	-44
0.84500	-47
0.84867	-45
0.85233	-41
0.85600	-37
0.85967	-35
0.86333	-34
0.86700	-35
0.87067	-39
0.87433	-44
0.87800	-50
0.88167	-53
0.88533	-52
0.88900	-48
0.89267	-44
0.89633	-42
0.90000	-41
0.90367	-39
0.90733	-37
0.91100	-34
0.91467	-32
0.91833	-30
0.92200	-25
0.92567	-19
0.92933	-16
0.93300	-16
0.93667	-18
0.94033	-21
0.94400	-21
0.94767	-24
0.95133	-29
0.95500	-36
0.95867	-41
0.96233	-44
0.96600	-46
0.96967	-47
0.97333	-44
0.97700	-38
0.98067	-32
0.98433	-29
0.98800	-35
0.99167	-44
0.99533	-49
0.99900	-49
1.00267	-45
1.00633	-41
1.01000	-39
1.01367	-37
1.01733	-37
1.02100	-39
1.02467	-41
1.02833	-43
1.03200	-42
1.03567	-40
1.03933	-37
1.04300	-36
1.04667	-39
1.05033	-48
1.05400	-61
1.05767	-71
1.06133	-79
1.06500	-81
1.06867	-80
1.07233	-77
1.07600	-72
1.07967	-65
1.08333	-56
1.08700	-48
1.09067	-42
1.09433	-36
1.09800	-32
1.10167	-29
1.10533	-29
1.10900	-32
1.11267	-40
1.11633	-49
1.12000	-56
1.12367	-63
1.12733	-69
1.13100	-71
1.13467	-68
1.13833	-62
1.14200	-54
1.14567	-45
1.14933	-36
1.15300	-32
1.15667	-33
1.16033	-38
1.16400	-46
1.16767	-53
1.17133	-57
1.17500	-57
1.17867	-56
1.18233	-53
1.18600	-50
1.18967	-48
1.19333	-48
1.19700	-51
1.20067	-55
1.20433	-57
1.20800	-57
1.21167	-58
1.21533	-62
1.21900	-65
1.22267	-66
1.22633	-67
1.23000	-69
1.23367	-68
1.23733	-66
1.24100	-64
1.24467	-63
1.24833	-57
1.25200	-50
1.25567	-44
1.25933	-45
1.26300	-55
1.26667	-69
1.27033	-81
1.27400	-89
1.27767	-92
1.28133	-92
1.28500	-88
1.28867	-79
1.29233	-72
1.29600	-67
1.29967	-64
1.30333	-63
1.30700	-65
1.31067	-68
1.31433	-72
1.31800	-77
1.32167	-78
1.32533	-72
1.32900	-67
1.33267	-67
1.33633	-70
1.34000	-72
1.34367	-73
1.34733	-72
1.35100	-70
1.35467	-68
1.35833	-65
1.36200	-65
1.36567	-68
1.36933	-75
1.37300	-78
1.37667	-78
1.38033	-76
1.38400	-73
1.38767	-68
1.39133	-66
1.39500	-69
1.39867	-75
1.40233	-78
1.40600	-79
1.40967	-80
1.41333	-80
1.41700	-72
1.42067	-60
1.42433	-50
1.42800	-41
1.43167	-37
1.43533	-38
1.43900	-30
1.44267	36
1.44633	232
1.45000	720
1.45367	1878
1.45733	3863
1.46100	6306
1.46467	8678
1.46833	10632
1.47200	12009
1.47567	12693
1.47933	12567
1.48300	11609
1.48667	10005
1.49033	8095
1.49400	6222
1.49767	4611
1.50133	3339
1.50500	2388
1.50867	1703
1.51233	1221
1.51600	887
1.51967	657
1.52333	498
1.52700	389
1.53067	314
1.53433	266
1.53800	242
1.54167	275
1.54533	430
1.54900	739
1.55267	1156
1.55633	1582
1.56000	1942
1.56367	2202
1.56733	2343
1.57100	2333
1.57467	2154
1.57833	1837
1.58200	1455
1.58567	1085
1.58933	776
1.59300	538
1.59667	366
1.60033	246
1.60400	168
1.60767	119
1.61133	86
1.61500	62
1.61867	44
1.62233	30
1.62600	17
1.62967	7
1.63333	1
1.63700	-3
1.64067	-6
1.64433	-7
1.64800	-5
1.65167	-4
1.65533	-7
1.65900	-14
1.66267	-20
1.66633	-24
1.67000	-25
1.67367	-24
1.67733	-26
1.68100	-28
1.68467	-27
1.68833	-22
1.69200	-19
1.69567	-20
1.69933	-22
1.70300	-23
1.70667	-22
1.71033	-22
1.71400	-20
1.71767	-18
1.72133	-16
1.72500	-14
1.72867	-15
1.73233	-18
1.73600	-18
1.73967	-15
1.74333	-12
1.74700	-11
1.75067	-13
1.75433	-17
1.75800	-23
1.76167	-27
1.76533	-27
1.76900	-24
1.77267	-19
1.77633	-17
1.78000	-15
1.78367	-16
1.78733	-19
1.79100	-20
1.79467	-18
1.79833	-18
1.80200	-16
1.80567	-12
1.80933	-9
1.81300	-10
1.81667	-13
1.82033	-17
1.82400	-21
1.82767	-23
1.83133	-23
1.83500	-19
1.83867	-12
1.84233	-6
1.84600	-5
1.84967	-6
1.85333	-10
1.85700	-14
1.86067	-17
1.86433	-19
1.86800	-21
1.87167	-18
1.87533	-13
1.87900	-9
1.88267	-6
1.88633	-5
1.89000	-4
1.89367	-4
1.89733	-8
1.90100	-12
1.90467	-12
1.90833	-12
1.91200	-11
1.91567	-8
1.91933	-7
1.92300	-10
1.92667	-12
1.93033	-7
1.93400	-1
1.93767	3
1.94133	6
1.94500	10
1.94867	15
1.95233	30
1.95600	118
1.95967	601
1.96333	2774
1.96700	10284
1.97067	30232
1.97433	71527
1.97800	139156
1.98167	228416
1.98533	325566
1.98900	414132
1.99267	479957
1.99633	513536
2.00000	510571
2.00367	472962
2.00733	409504
2.01100	333339
2.01467	257378
2.01833	190596
2.02200	136993
2.02567	96688
2.02933	67732
2.03300	47558
2.03667	33770
2.04033	24437
2.04400	18123
2.04767	13828
2.05133	10875
2.05500	8810
2.05867	7333
2.06233	6255
2.06600	5446
2.06967	4824
2.07333	4335
2.07700	3941
2.08067	3612
2.08433	3331
2.08800	3087
2.09167	2871
2.09533	2680
2.09900	2516
2.10267	2376
2.10633	2254
2.11000	2139
2.11367	2033
2.11733	1937
2.12100	1852
2.12467	1774
2.12833	1698
2.13200	1630
2.13567	1568
2.13933	1507
2.14300	1447
2.14667	1390
2.15033	1338
2.15400	1287
2.15767	1239
2.16133	1200
2.16500	1164
2.16867	1132
2.17233	1104
2.17600	1079
2.17967	1053
2.18333	1025
2.18700	997
2.19067	973
2.19433	950
2.19800	925
2.20167	897
2.20533	871
2.20900	845
2.21267	819
2.21633	794
2.22000	775
2.22367	760
2.22733	746
2.23100	730
2.23467	716
2.23833	704
2.24200	693
2.24567	684
2.24933	674
2.25300	658
2.25667	638
2.26033	620
2.26400	604
2.26767	591
2.27133	581
2.27500	574
2.27867	569
2.28233	564
2.28600	557
2.28967	549
2.29333	543
2.29700	537
2.30067	527
2.30433	515
2.30800	501
2.31167	492
2.31533	489
2.31900	487
2.32267	483
2.32633	474
2.33000	464
2.33367	454
2.33733	447
2.34100	444
2.34467	443
2.34833	445
2.35200	444
2.35567	441
2.35933	436
2.36300	432
2.36667	433
2.37033	436
2.37400	437
2.37767	433
2.38133	427
2.38500	417
2.38867	409
2.39233	402
2.39600	396
2.39967	392
2.40333	387
2.40700	379
2.41067	371
2.41433	368
2.41800	366
2.42167	363
2.42533	354
2.42900	344
2.43267	336
2.43633	333
2.44000	336
2.44367	343
2.44733	352
2.45100	358
2.45467	356
2.45833	351
2.46200	347
2.46567	343
2.46933	336
2.47300	325
2.47667	316
2.48033	313
2.48400	312
2.48767	311
2.49133	308
2.49500	305
2.49867	304
2.50233	305
2.50600	308
2.50967	307
2.51333	301
2.51700	294
2.52067	288
2.52433	286
2.52800	288
2.53167	292
2.53533	292
2.53900	289
2.54267	285
2.54633	282
2.55000	282
2.55367	285
2.55733	288
2.56100	290
2.56467	290
2.56833	287
2.57200	280
2.57567	269
2.57933	257
2.58300	245
2.58667	237
2.59033	234
2.59400	237
2.59767	247
2.60133	258
2.60500	265
2.60867	268
2.61233	270
2.61600	267
2.61967	258
2.62333	249
2.62700	245
2.63067	245
2.63433	248
2.63800	250
2.64167	252
2.64533	257
2.64900	263
2.65267	266
2.65633	267
2.66000	270
2.66367	271
2.66733	269
2.67100	264
2.67467	258
2.67833	252
2.68200	251
2.68567	252
2.68933	255
2.69300	258
2.69667	256
2.70033	249
2.70400	242
2.70767	239
2.71133	239
2.71500	237
2.71867	234
2.72233	229
2.72600	227
2.72967	230
2.73333	235
2.73700	238
2.74067	239
2.74433	243
2.74800	246
2.75167	248
2.75533	250
2.75900	252
2.76267	255
2.76633	253
2.77000	247
2.77367	239
2.77733	232
2.78100	226
2.78467	221
2.78833	222
2.79200	225
2.79567	226
2.79933	222
2.80300	218
2.80667	215
2.81033	214
2.81400	215
2.81767	216
2.82133	221
2.82500	228
2.82867	237
2.83233	246
2.83600	251
2.83967	251
2.84333	247
2.84700	245
2.85067	241
2.85433	234
2.85800	228
2.86167	226
2.86533	227
2.86900	228
2.87267	227
2.87633	223
2.88000	222
2.88367	224
2.88733	230
2.89100	238
2.89467	246
2.89833	250
2.90200	249
2.90567	242
2.90933	233
2.91300	226
2.91667	219
2.92033	214
2.92400	212
2.92767	213
2.93133	214
2.93500	215
2.93867	216
2.94233	215
2.94600	211
2.94967	210
2.95333	211
2.95700	215
2.96067	216
2.96433	216
2.96800	216
2.97167	215
2.97533	214
2.97900	216
2.98267	222
2.98633	228
2.99000	231
2.99367	232
2.99733	228
3.00100	223
3.00467	222
3.00833	225
3.01200	230
3.01567	235
3.01933	238
3.02300	238
3.02667	235
3.03033	228
3.03400	218
3.03767	210
3.04133	206
3.04500	208
3.04867	214
3.05233	217
3.05600	220
3.05967	220
3.06333	216
3.06700	212
3.07067	213
3.07433	216
3.07800	219
3.08167	222
3.08533	223
3.08900	220
3.09267	218
3.09633	217
3.10000	222
3.10367	231
3.10733	242
3.11100	249
3.11467	251
3.11833	247
3.12200	235
3.12567	218
3.12933	200
3.13300	189
3.13667	182
3.14033	180
3.14400	181
3.14767	182
3.15133	183
3.15500	185
3.15867	186
3.16233	189
3.16600	193
3.16967	197
3.17333	198
3.17700	197
3.18067	198
3.18433	204
3.18800	211
3.19167	215
3.19533	218
3.19900	222
3.20267	227
3.20633	230
3.21000	226
3.21367	217
3.21733	208
3.22100	197
3.22467	187
3.22833	181
3.23200	179
3.23567	181
3.23933	183
3.24300	184
3.24667	185
3.25033	185
3.25400	184
3.25767	182
3.26133	181
3.26500	182
3.26867	182
3.27233	178
3.27600	174
3.27967	174
3.28333	176
3.28700	173
3.29067	165
3.29433	158
3.29800	156
3.30167	160
3.30533	167
3.30900	172
3.31267	175
3.31633	176
3.32000	174
3.32367	171
3.32733	168
3.33100	168
3.33467	171
3.33833	176
3.34200	181
3.34567	185
3.34933	189
3.35300	194
3.35667	196
3.36033	194
3.36400	190
3.36767	187
3.37133	184
3.37500	186
3.37867	191
3.38233	194
3.38600	190
3.38967	184
3.39333	181
3.39700	181
3.40067	180
3.40433	174
3.40800	168
3.41167	165
3.41533	165
3.41900	164
3.42267	165
3.42633	165
3.43000	162
3.43367	157
3.43733	155
3.44100	157
3.44467	162
3.44833	170
3.45200	175
3.45567	176
3.45933	173
3.46300	170
3.46667	172
3.47033	178
3.47400	179
3.47767	177
3.48133	170
3.48500	164
3.48867	158
3.49233	151
3.49600	144
3.49967	140
3.50333	137
3.50700	137
3.51067	137
3.51433	131
3.51800	127
3.52167	129
3.52533	133
3.52900	137
3.53267	142
3.53633	145
3.54000	146
3.54367	148
3.54733	152
3.55100	156
3.55467	157
3.55833	155
3.56200	150
3.56567	146
3.56933	144
3.57300	140
3.57667	137
3.58033	134
3.58400	133
3.58767	138
3.59133	145
3.59500	146
3.59867	144
3.60233	141
3.60600	139
3.60967	135
3.61333	130
3.61700	125
3.62067	118
3.62433	114
3.62800	115
3.63167	120
3.63533	127
3.63900	133
3.64267	135
3.64633	133
3.65000	130
3.65367	128
3.65733	126
3.66100	124
3.66467	125
3.66833	128
3.67200	130
3.67567	127
3.67933	125
3.68300	125
3.68667	126
3.69033	124
3.69400	122
3.69767	121
3.70133	123
3.70500	125
3.70867	124
3.71233	121
3.71600	118
3.71967	117
3.72333	116
3.72700	114
3.73067	112
3.73433	112
3.73800	112
3.74167	113
3.74533	115
3.74900	118
3.75267	122
3.75633	125
3.76000	128
3.76367	130
3.76733	131
3.77100	132
3.77467	127
3.77833	119
3.78200	112
3.78567	109
3.78933	110
3.79300	113
3.79667	117
3.80033	116
3.80400	113
3.80767	109
3.81133	101
3.81500	94
3.81867	92
3.82233	91
3.82600	91
3.82967	90
3.83333	93
3.83700	96
3.84067	97
3.84433	100
3.84800	102
3.85167	103
3.85533	104
3.85900	108
3.86267	109
3.86633	112
3.87000	118
3.87367	127
3.87733	130
3.88100	124
3.88467	113
3.88833	100
3.89200	89
3.89567	82
3.89933	79
3.90300	80
3.90667	83
3.91033	87
3.91400	90
3.91767	92
3.92133	89
3.92500	83
3.92867	78
3.93233	75
3.93600	71
3.93967	69
3.94333	72
3.94700	81
3.95067	95
3.95433	110
3.95800	121
3.96167	125
3.96533	120
3.96900	108
3.97267	93
3.97633	77
3.98000	64
3.98367	55
3.98733	52
3.99100	56
3.99467	64
3.99833	74

[Chromatogram (Ch2)]
Interval(msec)	220
# of Points	1091
Start Time(min)	0.002
End Time(min)	3.998
R.Time (min)	Intensity
0.00167	0
0.00533	0
0.00900	1
0.01267	1
0.01633	1
0.02000	1
0.02367	1
0.02733	1
0.03100	1
0.03467	1
0.03833	1
0.04200	1
0.04567	1
0.04933	1
0.05300	1
0.05667	1
0.06033	1
0.06400	0
0.06767	0
0.07133	0
0.07500	0
0.07867	-0
0.08233	-0
0.08600	-0
0.08967	-0
0.09333	-1
0.09700	-1
0.10067	-2
0.10433	-2
0.10800	-2
0.11167	-3
0.11533	-3
0.11900	-4
0.12267	-4
0.12633	-5
0.13000	-5
0.13367	-6
0.13733	-6
0.14100	-6
0.14467	-7
0.14833	-7
0.15200	-7
0.15567	-7
0.15933	-6
0.16300	-6
0.16667	-5
0.17033	-5
0.17400	-4
0.17767	-4
0.18133	-4
0.18500	-4
0.18867	-4
0.19233	-4
0.19600	-4
0.19967	-4
0.20333	-3
0.20700	-3
0.21067	-3
0.21433	-3
0.21800	-4
0.22167	-4
0.22533	-4
0.22900	-4
0.23267	-4
0.23633	-3
0.24000	-3
0.24367	-3
0.24733	-3
0.25100	-3
0.25467	-3
0.25833	-3
0.26200	-2
0.26567	-2
0.26933	-2
0.27300	-2
0.27667	-2
0.28033	-2
0.28400	-1
0.28767	-1
0.29133	-1
0.29500	-1
0.29867	-1
0.30233	-1
0.30600	-1
0.30967	-1
0.31333	-1
0.31700	-1
0.32067	-1
0.32433	-1
0.32800	-1
0.33167	-1
0.33533	-1
0.33900	-2
0.34267	-2
0.34633	-2
0.35000	-3
0.35367	-3
0.35733	-4
0.36100	-4
0.36467	-4
0.36833	-4
0.37200	-5
0.37567	-5
0.37933	-5
0.38300	-4
0.38667	-4
0.39033	-4
0.39400	-4
0.39767	-4
0.40133	-3
0.40500	-3
0.40867	-3
0.41233	-3
0.41600	-3
0.41967	-3
0.42333	-3
0.42700	-3
0.43067	-2
0.43433	-2
0.43800	-2
0.44167	-2
0.44533	-1
0.44900	-1
0.45267	-1
0.45633	-0
0.46000	0
0.46367	0
0.46733	0
0.47100	-0
0.47467	-0
0.47833	-1
0.48200	-1
0.48567	-2
0.48933	-2
0.49300	-3
0.49667	-4
0.50033	-4
0.50400	-5
0.50767	-5
0.51133	-6
0.51500	-6
0.51867	-6
0.52233	-6
0.52600	-6
0.52967	-6
0.53333	-5
0.53700	-4
0.54067	-4
0.54433	-3
0.54800	-3
0.55167	-3
0.55533	-2
0.55900	-2
0.56267	-2
0.56633	-2
0.57000	-2
0.57367	-2
0.57733	-2
0.58100	-3
0.58467	-3
0.58833	-3
0.59200	-3
0.59567	-3
0.59933	-3
0.60300	-3
0.60667	-3
0.61033	-4
0.61400	-4
0.61767	-4
0.62133	-4
0.62500	-4
0.62867	-4
0.63233	-4
0.63600	-4
0.63967	-4
0.64333	-5
0.64700	-5
0.65067	-5
0.65433	-5
0.65800	-5
0.66167	-5
0.66533	-5
0.66900	-4
0.67267	-4
0.67633	-3
0.68000	-3
0.68367	-2
0.68733	-2
0.69100	-1
0.69467	-1
0.69833	-1
0.70200	-0
0.70567	0
0.70933	1
0.71300	1
0.71667	1
0.72033	1
0.72400	1
0.72767	1
0.73133	1
0.73500	1
0.73867	2
0.74233	2
0.74600	2
0.74967	1
0.75333	1
0.75700	1
0.76067	1
0.76433	0
0.76800	0
0.77167	-0
0.77533	-0
0.77900	-1
0.78267	-1
0.78633	-1
0.79000	-1
0.79367	-2
0.79733	-2
0.80100	-2
0.80467	-2
0.80833	-3
0.81200	-3
0.81567	-3
0.81933	-3
0.82300	-3
0.82667	-4
0.83033	-4
0.83400	-4
0.83767	-4
0.84133	-5
0.84500	-5
0.84867	-5
0.85233	-5
0.85600	-5
0.85967	-6
0.86333	-6
0.86700	-6
0.87067	-6
0.87433	-5
0.87800	-5
0.88167	-5
0.88533	-5
0.88900	-4
0.89267	-4
0.89633	-4
0.90000	-3
0.90367	-3
0.90733	-3
0.91100	-3
0.91467	-2
0.91833	-2
0.92200	-2
0.92567	-2
0.92933	-2
0.93300	-2
0.93667	-2
0.94033	-2
0.94400	-2
0.94767	-2
0.95133	-2
0.95500	-2
0.95867	-2
0.96233	-1
0.96600	-1
0.96967	-1
0.97333	-1
0.97700	-1
0.98067	-1
0.98433	-1
0.98800	-1
0.99167	-1
0.99533	-1
0.99900	-2
1.00267	-2
1.00633	-2
1.01000	-2
1.01367	-2
1.01733	-3
1.02100	-3
1.02467	-4
1.02833	-4
1.03200	-5
1.03567	-5
1.03933	-5
1.04300	-5
1.04667	-5
1.05033	-5
1.05400	-5
1.05767	-6
1.06133	-6
1.06500	-7
1.06867	-7
1.07233	-7
1.07600	-7
1.07967	-7
1.08333	-7
1.08700	-7
1.09067	-7
1.09433	-7
1.09800	-7
1.10167	-7
1.10533	-6
1.10900	-6
1.11267	-5
1.11633	-5
1.12000	-4
1.12367	-3
1.12733	-3
1.13100	-2
1.13467	-2
1.13833	-2
1.14200	-2
1.14567	-2
1.14933	-2
1.15300	-2
1.15667	-2
1.16033	-2
1.16400	-2
1.16767	-2
1.17133	-2
1.17500	-2
1.17867	-1
1.18233	-1
1.18600	-1
1.18967	-1
1.19333	-1
1.19700	-2
1.20067	-2
1.20433	-3
1.20800	-3
1.21167	-4
1.21533	-4
1.21900	-5
1.22267	-5
1.22633	-5
1.23000	-5
1.23367	-5
1.23733	-5
1.24100	-5
1.24467	-4
1.24833	-4
1.25200	-4
1.25567	-4
1.25933	-4
1.26300	-3
1.26667	-3
1.27033	-3
1.27400	-2
1.27767	-2
1.28133	-2
1.28500	-2
1.28867	-1
1.29233	-1
1.29600	-1
1.29967	-1
1.30333	-1
1.30700	-1
1.31067	-1
1.31433	-1
1.31800	-1
1.32167	-2
1.32533	-2
1.32900	-2
1.33267	-3
1.33633	-3
1.34000	-4
1.34367	-4
1.34733	-5
1.35100	-5
1.35467	-5
1.35833	-5
1.36200	-5
1.36567	-5
1.36933	-5
1.37300	-5
1.37667	-5
1.38033	-5
1.38400	-5
1.38767	-5
1.39133	-5
1.39500	-4
1.39867	-4
1.40233	-4
1.40600	-4
1.40967	-4
1.41333	-4
1.41700	-4
1.42067	-4
1.42433	-4
1.42800	-4
1.43167	-4
1.43533	-4
1.43900	-4
1.44267	-4
1.44633	-4
1.45000	-4
1.45367	-4
1.45733	-4
1.46100	-4
1.46467	-4
1.46833	-4
1.47200	-4
1.47567	-4
1.47933	-5
1.48300	-5
1.48667	-4
1.49033	-4
1.49400	-4
1.49767	-4
1.50133	-3
1.50500	-3
1.50867	-3
1.51233	-4
1.51600	-4
1.51967	-4
1.52333	-4
1.52700	-4
1.53067	-3
1.53433	-3
1.53800	-3
1.54167	-3
1.54533	-3
1.54900	-3
1.55267	-3
1.55633	-3
1.56000	-3
1.56367	-3
1.56733	-3
1.57100	-2
1.57467	-2
1.57833	-2
1.58200	-2
1.58567	-2
1.58933	-3
1.59300	-3
1.59667	-4
1.60033	-4
1.60400	-5
1.60767	-6
1.61133	-8
1.61500	-10
1.61867	-12
1.62233	-14
1.62600	-17
1.62967	-20
1.63333	-23
1.63700	-26
1.64067	-30
1.64433	-34
1.64800	-39
1.65167	-43
1.65533	-47
1.65900	-52
1.66267	-57
1.66633	-62
1.67000	-68
1.67367	-74
1.67733	-80
1.68100	-85
1.68467	-90
1.68833	-95
1.69200	-98
1.69567	-102
1.69933	-104
1.70300	-107
1.70667	-109
1.71033	-110
1.71400	-111
1.71767	-112
1.72133	-112
1.72500	-112
1.72867	-112
1.73233	-112
1.73600	-111
1.73967	-111
1.74333	-111
1.74700	-111
1.75067	-112
1.75433	-113
1.75800	-114
1.76167	-115
1.76533	-117
1.76900	-118
1.77267	-118
1.77633	-119
1.78000	-119
1.78367	-120
1.78733	-120
1.79100	-120
1.79467	-120
1.79833	-120
1.80200	-121
1.80567	-121
1.80933	-121
1.81300	-122
1.81667	-122
1.82033	-122
1.82400	-121
1.82767	-120
1.83133	-120
1.83500	-119
1.83867	-118
1.84233	-117
1.84600	-117
1.84967	-117
1.85333	-117
1.85700	-117
1.86067	-118
1.86433	-118
1.86800	-119
1.87167	-120
1.87533	-120
1.87900	-120
1.88267	-121
1.88633	-121
1.89000	-121
1.89367	-121
1.89733	-121
1.90100	-120
1.90467	-120
1.90833	-119
1.91200	-119
1.91567	-118
1.91933	-118
1.92300	-118
1.92667	-117
1.93033	-117
1.93400	-117
1.93767	-117
1.94133	-117
1.94500	-117
1.94867	-117
1.95233	-117
1.95600	-117
1.95967	-116
1.96333	-116
1.96700	-115
1.97067	-114
1.97433	-114
1.97800	-114
1.98167	-114
1.98533	-114
1.98900	-114
1.99267	-114
1.99633	-113
2.00000	-112
2.00367	-112
2.00733	-111
2.01100	-111
2.01467	-111
2.01833	-111
2.02200	-111
2.02567	-110
2.02933	-110
2.03300	-110
2.03667	-110
2.04033	-110
2.04400	-110
2.04767	-110
2.05133	-110
2.05500	-110
2.05867	-109
2.06233	-109
2.06600	-108
2.06967	-107
2.07333	-107
2.07700	-106
2.08067	-105
2.08433	-104
2.08800	-104
2.09167	-103
2.09533	-103
2.09900	-103
2.10267	-104
2.10633	-105
2.11000	-105
2.11367	-106
2.11733	-106
2.12100	-105
2.12467	-105
2.12833	-105
2.13200	-104
2.13567	-104
2.13933	-104
2.14300	-104
2.14667	-104
2.15033	-104
2.15400	-103
2.15767	-103
2.16133	-103
2.16500	-102
2.16867	-101
2.17233	-101
2.17600	-101
2.17967	-101
2.18333	-100
2.18700	-100
2.19067	-100
2.19433	-100
2.19800	-99
2.20167	-98
2.20533	-97
2.20900	-97
2.21267	-96
2.21633	-96
2.22000	-96
2.22367	-96
2.22733	-96
2.23100	-96
2.23467	-95
2.23833	-94
2.24200	-93
2.24567	-93
2.24933	-92
2.25300	-92
2.25667	-92
2.26033	-92
2.26400	-92
2.26767	-92
2.27133	-92
2.27500	-91
2.27867	-91
2.28233	-90
2.28600	-89
2.28967	-88
2.29333	-88
2.29700	-87
2.30067	-87
2.30433	-86
2.30800	-86
2.31167	-86
2.31533	-86
2.31900	-86
2.32267	-86
2.32633	-86
2.33000	-86
2.33367	-87
2.33733	-87
2.34100	-88
2.34467	-88
2.34833	-87
2.35200	-86
2.35567	-84
2.35933	-82
2.36300	-79
2.36667	-76
2.37033	-72
2.37400	-69
2.37767	-65
2.38133	-61
2.38500	-56
2.38867	-52
2.39233	-47
2.39600	-43
2.39967	-39
2.40333	-36
2.40700	-32
2.41067	-29
2.41433	-27
2.41800	-25
2.42167	-24
2.42533	-22
2.42900	-21
2.43267	-19
2.43633	-18
2.44000	-16
2.44367	-14
2.44733	-13
2.45100	-11
2.45467	-9
2.45833	-8
2.46200	-7
2.46567	-6
2.46933	-4
2.47300	-2
2.47667	-1
2.48033	-0
2.48400	1
2.48767	2
2.49133	2
2.49500	3
2.49867	4
2.50233	5
2.50600	6
2.50967	6
2.51333	7
2.51700	7
2.52067	8
2.52433	9
2.52800	10
2.53167	11
2.53533	11
2.53900	12
2.54267	12
2.54633	13
2.55000	13
2.55367	13
2.55733	13
2.56100	13
2.56467	13
2.56833	13
2.57200	13
2.57567	13
2.57933	12
2.58300	12
2.58667	11
2.59033	11
2.59400	10
2.59767	10
2.60133	10
2.60500	10
2.60867	11
2.61233	11
2.61600	11
2.61967	11
2.62333	12
2.62700	12
2.63067	12
2.63433	12
2.63800	13
2.64167	14
2.64533	14
2.64900	15
2.65267	16
2.65633	16
2.66000	17
2.66367	17
2.66733	18
2.67100	18
2.67467	18
2.67833	18
2.68200	19
2.68567	19
2.68933	19
2.69300	19
2.69667	19
2.70033	19
2.70400	19
2.70767	19
2.71133	19
2.71500	19
2.71867	19
2.72233	19
2.72600	19
2.72967	20
2.73333	20
2.73700	20
2.74067	21
2.74433	21
2.74800	21
2.75167	22
2.75533	22
2.75900	23
2.76267	23
2.76633	23
2.77000	23
2.77367	23
2.77733	23
2.78100	23
2.78467	23
2.78833	23
2.79200	23
2.79567	23
2.79933	23
2.80300	23
2.80667	24
2.81033	24
2.81400	24
2.81767	24
2.82133	25
2.82500	25
2.82867	25
2.83233	25
2.83600	24
2.83967	23
2.84333	20
2.84700	15
2.85067	7
2.85433	-3
2.85800	-17
2.86167	-35
2.86533	-57
2.86900	-84
2.87267	-114
2.87633	-149
2.88000	-187
2.88367	-229
2.88733	-274
2.89100	-321
2.89467	-371
2.89833	-423
2.90200	-476
2.90567	-529
2.90933	-583
2.91300	-637
2.91667	-690
2.92033	-743
2.92400	-795
2.92767	-846
2.93133	-899
2.93500	-956
2.93867	-1015
2.94233	-1068
2.94600	-1105
2.94967	-1116
2.95333	-1102
2.95700	-1063
2.96067	-1006
2.96433	-935
2.96800	-857
2.97167	-776
2.97533	-695
2.97900	-617
2.98267	-544
2.98633	-476
2.99000	-414
2.99367	-359
2.99733	-309
3.00100	-266
3.00467	-227
3.00833	-194
3.01200	-164
3.01567	-139
3.01933	-118
3.02300	-99
3.02667	-83
3.03033	-69
3.03400	-57
3.03767	-47
3.04133	-38
3.04500	-30
3.04867	-24
3.05233	-18
3.05600	-13
3.05967	-9
3.06333	-6
3.06700	-3
3.07067	-1
3.07433	1
3.07800	3
3.08167	5
3.08533	6
3.08900	7
3.09267	7
3.09633	8
3.10000	9
3.10367	10
3.10733	10
3.11100	11
3.11467	11
3.11833	12
3.12200	12
3.12567	13
3.12933	14
3.13300	14
3.13667	15
3.14033	15
3.14400	16
3.14767	16
3.15133	17
3.15500	17
3.15867	17
3.16233	17
3.16600	18
3.16967	18
3.17333	18
3.17700	18
3.18067	18
3.18433	18
3.18800	18
3.19167	18
3.19533	18
3.19900	18
3.20267	18
3.20633	18
3.21000	19
3.21367	19
3.21733	19
3.22100	19
3.22467	19
3.22833	19
3.23200	19
3.23567	19
3.23933	19
3.24300	19
3.24667	19
3.25033	19
3.25400	19
3.25767	19
3.26133	19
3.26500	19
3.26867	19
3.27233	19
3.27600	20
3.27967	20
3.28333	20
3.28700	20
3.29067	21
3.29433	21
3.29800	21
3.30167	21
3.30533	22
3.30900	22
3.31267	22
3.31633	22
3.32000	22
3.32367	22
3.32733	22
3.33100	22
3.33467	22
3.33833	22
3.34200	22
3.34567	22
3.34933	22
3.35300	22
3.35667	22
3.36033	22
3.36400	23
3.36767	23
3.37133	23
3.37500	23
3.37867	23
3.38233	23
3.38600	23
3.38967	23
3.39333	23
3.39700	23
3.40067	23
3.40433	23
3.40800	24
3.41167	24
3.41533	24
3.41900	24
3.42267	24
3.42633	24
3.43000	24
3.43367	24
3.43733	25
3.44100	25
3.44467	25
3.44833	25
3.45200	25
3.45567	25
3.45933	25
3.46300	25
3.46667	25
3.47033	25
3.47400	24
3.47767	24
3.48133	24
3.48500	23
3.48867	23
3.49233	23
3.49600	23
3.49967	23
3.50333	23
3.50700	24
3.51067	24
3.51433	24
3.51800	24
3.52167	24
3.52533	24
3.52900	24
3.53267	24
3.53633	24
3.54000	24
3.54367	24
3.54733	24
3.55100	24
3.55467	24
3.55833	24
3.56200	24
3.56567	24
3.56933	23
3.57300	23
3.57667	23
3.58033	23
3.58400	23
3.58767	23
3.59133	23
3.59500	24
3.59867	24
3.60233	24
3.60600	24
3.60967	24
3.61333	25
3.61700	25
3.62067	24
3.62433	24
3.62800	24
3.63167	25
3.63533	25
3.63900	25
3.64267	25
3.64633	25
3.65000	25
3.65367	25
3.65733	25
3.66100	25
3.66467	25
3.66833	25
3.67200	25
3.67567	25
3.67933	25
3.68300	25
3.68667	25
3.69033	25
3.69400	25
3.69767	25
3.70133	25
3.70500	25
3.70867	25
3.71233	25
3.71600	24
3.71967	24
3.72333	24
3.72700	24
3.73067	24
3.73433	25
3.73800	25
3.74167	25
3.74533	25
3.74900	26
3.75267	26
3.75633	26
3.76000	26
3.76367	25
3.76733	25
3.77100	26
3.77467	26
3.77833	26
3.78200	25
3.78567	25
3.78933	25
3.79300	25
3.79667	25
3.80033	25
3.80400	25
3.80767	25
3.81133	25
3.81500	25
3.81867	25
3.82233	25
3.82600	25
3.82967	25
3.83333	25
3.83700	25
3.84067	25
3.84433	24
3.84800	24
3.85167	24
3.85533	24
3.85900	23
3.86267	23
3.86633	23
3.87000	24
3.87367	24
3.87733	24
3.88100	24
3.88467	24
3.88833	24
3.89200	24
3.89567	24
3.89933	24
3.90300	24
3.90667	24
3.91033	24
3.91400	24
3.91767	24
3.92133	24
3.92500	24
3.92867	24
3.93233	24
3.93600	25
3.93967	25
3.94333	25
3.94700	26
3.95067	26
3.95433	26
3.95800	26
3.96167	27
3.96533	27
3.96900	27
3.97267	27
3.97633	27
3.98000	27
3.98367	27
3.98733	27
3.99100	26
3.99467	26
3.99833	26

[Chromatogram (Ch3)]
Interval(msec)	220
# of Points	1091
Start Time(min)	0.002
End Time(min)	3.998
R.Time (min)	Intensity
0.00167	-0
0.00533	-1
0.00900	-0
0.01267	1
0.01633	1
0.02000	3
0.02367	5
0.02733	7
0.03100	6
0.03467	6
0.03833	8
0.04200	8
0.04567	7
0.04933	6
0.05300	7
0.05667	5
0.06033	6
0.06400	7
0.06767	5
0.07133	6
0.07500	6
0.07867	6
0.08233	4
0.08600	3
0.08967	2
0.09333	3
0.09700	3
0.10067	3
0.10433	5
0.10800	6
0.11167	6
0.11533	5
0.11900	3
0.12267	4
0.12633	5
0.13000	7
0.13367	6
0.13733	5
0.14100	7
0.14467	9
0.14833	9
0.15200	10
0.15567	10
0.15933	9
0.16300	6
0.16667	5
0.17033	5
0.17400	5
0.17767	6
0.18133	8
0.18500	11
0.18867	12
0.19233	11
0.19600	10
0.19967	9
0.20333	7
0.20700	7
0.21067	7
0.21433	6
0.21800	6
0.22167	5
0.22533	7
0.22900	7
0.23267	7
0.23633	8
0.24000	12
0.24367	14
0.24733	14
0.25100	14
0.25467	13
0.25833	11
0.26200	11
0.26567	12
0.26933	15
0.27300	15
0.27667	14
0.28033	12
0.28400	11
0.28767	13
0.29133	13
0.29500	13
0.29867	15
0.30233	14
0.30600	11
0.30967	12
0.31333	15
0.31700	16
0.32067	17
0.32433	17
0.32800	16
0.33167	14
0.33533	13
0.33900	13
0.34267	13
0.34633	14
0.35000	16
0.35367	15
0.35733	15
0.36100	17
0.36467	16
0.36833	14
0.37200	14
0.37567	14
0.37933	14
0.38300	14
0.38667	13
0.39033	13
0.39400	13
0.39767	14
0.40133	14
0.40500	13
0.40867	13
0.41233	15
0.41600	17
0.41967	17
0.42333	16
0.42700	17
0.43067	17
0.43433	21
0.43800	23
0.44167	23
0.44533	26
0.44900	26
0.45267	24
0.45633	22
0.46000	21
0.46367	19
0.46733	18
0.47100	19
0.47467	21
0.47833	20
0.48200	21
0.48567	22
0.48933	20
0.49300	18
0.49667	17
0.50033	16
0.50400	18
0.50767	19
0.51133	22
0.51500	22
0.51867	19
0.52233	19
0.52600	20
0.52967	23
0.53333	23
0.53700	22
0.54067	20
0.54433	19
0.54800	17
0.55167	17
0.55533	17
0.55900	19
0.56267	21
0.56633	20
0.57000	19
0.57367	21
0.57733	23
0.58100	23
0.58467	22
0.58833	24
0.59200	26
0.59567	27
0.59933	29
0.60300	27
0.60667	25
0.61033	24
0.61400	24
0.61767	23
0.62133	22
0.62500	22
0.62867	22
0.63233	21
0.63600	23
0.63967	23
0.64333	22
0.64700	22
0.65067	22
0.65433	24
0.65800	24
0.66167	25
0.66533	25
0.66900	24
0.67267	25
0.67633	27
0.68000	28
0.68367	28
0.68733	27
0.69100	27
0.69467	28
0.69833	29
0.70200	29
0.70567	28
0.70933	26
0.71300	24
0.71667	24
0.72033	24
0.72400	25
0.72767	28
0.73133	29
0.73500	29
0.73867	30
0.74233	29
0.74600	27
0.74967	26
0.75333	25
0.75700	26
0.76067	25
0.76433	26
0.76800	27
0.77167	27
0.77533	29
0.77900	29
0.78267	29
0.78633	29
0.79000	28
0.79367	28
0.79733	27
0.80100	26
0.80467	28
0.80833	29
0.81200	28
0.81567	28
0.81933	28
0.82300	30
0.82667	32
0.83033	32
0.83400	31
0.83767	32
0.84133	33
0.84500	30
0.84867	29
0.85233	30
0.85600	30
0.85967	33
0.86333	35
0.86700	35
0.87067	35
0.87433	34
0.87800	34
0.88167	33
0.88533	33
0.88900	33
0.89267	31
0.89633	31
0.90000	32
0.90367	32
0.90733	30
0.91100	30
0.91467	29
0.91833	29
0.92200	30
0.92567	31
0.92933	33
0.93300	34
0.93667	36
0.94033	36
0.94400	36
0.94767	36
0.95133	37
0.95500	35
0.95867	34
0.96233	35
0.96600	36
0.96967	36
0.97333	36
0.97700	37
0.98067	37
0.98433	38
0.98800	38
0.99167	38
0.99533	37
0.99900	35
1.00267	32
1.00633	31
1.01000	31
1.01367	29
1.01733	28
1.02100	28
1.02467	31
1.02833	33
1.03200	35
1.03567	36
1.03933	36
1.04300	33
1.04667	30
1.05033	29
1.05400	32
1.05767	33
1.06133	34
1.06500	35
1.06867	35
1.07233	35
1.07600	36
1.07967	36
1.08333	34
1.08700	34
1.09067	35
1.09433	34
1.09800	36
1.10167	37
1.10533	36
1.10900	35
1.11267	35
1.11633	38
1.12000	41
1.12367	41
1.12733	42
1.13100	41
1.13467	41
1.13833	40
1.14200	39
1.14567	38
1.14933	37
1.15300	38
1.15667	39
1.16033	40
1.16400	41
1.16767	42
1.17133	41
1.17500	39
1.17867	39
1.18233	40
1.18600	41
1.18967	41
1.19333	40
1.19700	39
1.20067	37
1.20433	36
1.20800	37
1.21167	39
1.21533	41
1.21900	41
1.22267	42
1.22633	43
1.23000	44
1.23367	42
1.23733	41
1.24100	39
1.24467	38
1.24833	39
1.25200	39
1.25567	41
1.25933	41
1.26300	40
1.26667	38
1.27033	38
1.27400	39
1.27767	37
1.28133	35
1.28500	36
1.28867	38
1.29233	39
1.29600	40
1.29967	41
1.30333	43
1.30700	44
1.31067	44
1.31433	44
1.31800	44
1.32167	44
1.32533	43
1.32900	41
1.33267	40
1.33633	41
1.34000	41
1.34367	40
1.34733	41
1.35100	39
1.35467	38
1.35833	39
1.36200	40
1.36567	41
1.36933	39
1.37300	38
1.37667	40
1.38033	43
1.38400	45
1.38767	45
1.39133	44
1.39500	43
1.39867	45
1.40233	45
1.40600	45
1.40967	45
1.41333	45
1.41700	44
1.42067	44
1.42433	45
1.42800	46
1.43167	44
1.43533	43
1.43900	42
1.44267	43
1.44633	43
1.45000	43
1.45367	43
1.45733	43
1.46100	44
1.46467	45
1.46833	46
1.47200	46
1.47567	44
1.47933	44
1.48300	43
1.48667	42
1.49033	41
1.49400	40
1.49767	41
1.50133	41
1.50500	42
1.50867	42
1.51233	43
1.51600	44
1.51967	44
1.52333	45
1.52700	47
1.53067	46
1.53433	45
1.53800	45
1.54167	44
1.54533	45
1.54900	46
1.55267	45
1.55633	45
1.56000	43
1.56367	43
1.56733	43
1.57100	43
1.57467	43
1.57833	44
1.58200	45
1.58567	44
1.58933	43
1.59300	43
1.59667	43
1.60033	43
1.60400	44
1.60767	46
1.61133	47
1.61500	47
1.61867	47
1.62233	48
1.62600	49
1.62967	49
1.63333	47
1.63700	45
1.64067	42
1.64433	41
1.64800	42
1.65167	43
1.65533	45
1.65900	47
1.66267	47
1.66633	48
1.67000	50
1.67367	52
1.67733	53
1.68100	55
1.68467	54
1.68833	54
1.69200	52
1.69567	51
1.69933	50
1.70300	51
1.70667	54
1.71033	58
1.71400	60
1.71767	58
1.72133	59
1.72500	59
1.72867	59
1.73233	59
1.73600	56
1.73967	54
1.74333	53
1.74700	53
1.75067	55
1.75433	58
1.75800	59
1.76167	59
1.76533	58
1.76900	57
1.77267	58
1.77633	61
1.78000	63
1.78367	66
1.78733	67
1.79100	68
1.79467	69
1.79833	68
1.80200	67
1.80567	66
1.80933	67
1.81300	68
1.81667	69
1.82033	71
1.82400	71
1.82767	69
1.83133	67
1.83500	68
1.83867	68
1.84233	68
1.84600	71
1.84967	71
1.85333	69
1.85700	68
1.86067	68
1.86433	68
1.86800	68
1.87167	68
1.87533	67
1.87900	69
1.88267	71
1.88633	73
1.89000	73
1.89367	73
1.89733	75
1.90100	77
1.90467	75
1.90833	74
1.91200	73
1.91567	72
1.91933	71
1.92300	73
1.92667	75
1.93033	78
1.93400	79
1.93767	79
1.94133	81
1.94500	82
1.94867	83
1.95233	82
1.95600	82
1.95967	82
1.96333	81
1.96700	80
1.97067	76
1.97433	75
1.97800	76
1.98167	78
1.98533	80
1.98900	81
1.99267	83
1.99633	85
2.00000	85
2.00367	86
2.00733	88
2.01100	91
2.01467	91
2.01833	92
2.02200	94
2.02567	95
2.02933	95
2.03300	96
2.03667	97
2.04033	95
2.04400	93
2.04767	92
2.05133	93
2.05500	94
2.05867	94
2.06233	96
2.06600	99
2.06967	102
2.07333	101
2.07700	102
2.08067	102
2.08433	102
2.08800	102
2.09167	104
2.09533	105
2.09900	103
2.10267	103
2.10633	104
2.11000	106
2.11367	108
2.11733	111
2.12100	112
2.12467	111
2.12833	113
2.13200	116
2.13567	117
2.13933	117
2.14300	116
2.14667	115
2.15033	117
2.15400	118
2.15767	117
2.16133	118
2.16500	121
2.16867	124
2.17233	125
2.17600	125
2.17967	125
2.18333	126
2.18700	127
2.19067	128
2.19433	132
2.19800	135
2.20167	138
2.20533	139
2.20900	141
2.21267	142
2.21633	143
2.22000	145
2.22367	146
2.22733	147
2.23100	147
2.23467	149
2.23833	150
2.24200	152
2.24567	154
2.24933	154
2.25300	154
2.25667	154
2.26033	153
2.26400	154
2.26767	157
2.27133	160
2.27500	162
2.27867	164
2.28233	168
2.28600	169
2.28967	168
2.29333	169
2.29700	169
2.30067	171
2.30433	173
2.30800	175
2.31167	178
2.31533	179
2.31900	178
2.32267	178
2.32633	177
2.33000	180
2.33367	182
2.33733	185
2.34100	187
2.34467	188
2.34833	188
2.35200	189
2.35567	190
2.35933	192
2.36300	192
2.36667	192
2.37033	190
2.37400	191
2.37767	193
2.38133	194
2.38500	195
2.38867	195
2.39233	194
2.39600	199
2.39967	203
2.40333	206
2.40700	209
2.41067	209
2.41433	210
2.41800	212
2.42167	216
2.42533	223
2.42900	226
2.43267	228
2.43633	230
2.44000	233
2.44367	259
2.44733	326
2.45100	402
2.45467	461
2.45833	502
2.46200	512
2.46567	499
2.46933	479
2.47300	459
2.47667	444
2.48033	433
2.48400	424
2.48767	416
2.49133	402
2.49500	383
2.49867	364
2.50233	345
2.50600	328
2.50967	317
2.51333	310
2.51700	307
2.52067	305
2.52433	306
2.52800	309
2.53167	315
2.53533	323
2.53900	327
2.54267	332
2.54633	334
2.55000	333
2.55367	329
2.55733	324
2.56100	317
2.56467	310
2.56833	304
2.57200	297
2.57567	288
2.57933	283
2.58300	278
2.58667	276
2.59033	274
2.59400	270
2.59767	263
2.60133	254
2.60500	242
2.60867	229
2.61233	216
2.61600	199
2.61967	180
2.62333	160
2.62700	145
2.63067	134
2.63433	125
2.63800	117
2.64167	115
2.64533	118
2.64900	122
2.65267	128
2.65633	135
2.66000	142
2.66367	151
2.66733	159
2.67100	169
2.67467	179
2.67833	188
2.68200	197
2.68567	205
2.68933	211
2.69300	213
2.69667	214
2.70033	215
2.70400	219
2.70767	223
2.71133	228
2.71500	231
2.71867	234
2.72233	236
2.72600	236
2.72967	236
2.73333	234
2.73700	232
2.74067	233
2.74433	234
2.74800	236
2.75167	235
2.75533	232
2.75900	231
2.76267	231
2.76633	231
2.77000	231
2.77367	231
2.77733	231
2.78100	231
2.78467	231
2.78833	233
2.79200	235
2.79567	236
2.79933	236
2.80300	237
2.80667	238
2.81033	238
2.81400	239
2.81767	244
2.82133	262
2.82500	301
2.82867	379
2.83233	519
2.83600	742
2.83967	1062
2.84333	1485
2.84700	2001
2.85067	2584
2.85433	3188
2.85800	3770
2.86167	4281
2.86533	4677
2.86900	4933
2.87267	5044
2.87633	5020
2.88000	4874
2.88367	4637
2.88733	4335
2.89100	3996
2.89467	3640
2.89833	3285
2.90200	2944
2.90567	2625
2.90933	2334
2.91300	2073
2.91667	1840
2.92033	1632
2.92400	1448
2.92767	1288
2.93133	1147
2.93500	1023
2.93867	915
2.94233	822
2.94600	741
2.94967	673
2.95333	614
2.95700	562
2.96067	516
2.96433	480
2.96800	448
2.97167	421
2.97533	398
2.97900	380
2.98267	364
2.98633	349
2.99000	335
2.99367	324
2.99733	314
3.00100	306
3.00467	298
3.00833	294
3.01200	289
3.01567	285
3.01933	280
3.02300	278
3.02667	275
3.03033	273
3.03400	270
3.03767	266
3.04133	263
3.04500	263
3.04867	261
3.05233	259
3.05600	257
3.05967	253
3.06333	248
3.06700	245
3.07067	241
3.07433	237
3.07800	229
3.08167	206
3.08533	164
3.08900	135
3.09267	137
3.09633	165
3.10000	209
3.10367	258
3.10733	307
3.11100	356
3.11467	404
3.11833	448
3.12200	485
3.12567	519
3.12933	554
3.13300	584
3.13667	609
3.14033	632
3.14400	651
3.14767	667
3.15133	679
3.15500	689
3.15867	695
3.16233	705
3.16600	714
3.16967	721
3.17333	726
3.17700	729
3.18067	732
3.18433	736
3.18800	739
3.19167	743
3.19533	748
3.19900	753
3.20267	758
3.20633	760
3.21000	760
3.21367	762
3.21733	764
3.22100	768
3.22467	768
3.22833	768
3.23200	771
3.23567	774
3.23933	776
3.24300	778
3.24667	783
3.25033	789
3.25400	793
3.25767	797
3.26133	800
3.26500	802
3.26867	803
3.27233	803
3.27600	804
3.27967	806
3.28333	807
3.28700	808
3.29067	811
3.29433	812
3.29800	808
3.30167	805
3.30533	805
3.30900	805
3.31267	803
3.31633	798
3.32000	793
3.32367	790
3.32733	785
3.33100	778
3.33467	774
3.33833	770
3.34200	765
3.34567	761
3.34933	755
3.35300	747
3.35667	739
3.36033	734
3.36400	728
3.36767	723
3.37133	719
3.37500	714
3.37867	710
3.38233	706
3.38600	701
3.38967	697
3.39333	692
3.39700	688
3.40067	685
3.40433	682
3.40800	677
3.41167	674
3.41533	672
3.41900	671
3.42267	671
3.42633	670
3.43000	669
3.43367	667
3.43733	666
3.44100	664
3.44467	662
3.44833	658
3.45200	655
3.45567	653
3.45933	653
3.46300	653
3.46667	652
3.47033	649
3.47400	646
3.47767	642
3.48133	642
3.48500	641
3.48867	640
3.49233	638
3.49600	635
3.49967	631
3.50333	629
3.50700	625
3.51067	623
3.51433	620
3.51800	616
3.52167	614
3.52533	610
3.52900	607
3.53267	604
3.53633	601
3.54000	598
3.54367	597
3.54733	598
3.55100	600
3.55467	602
3.55833	602
3.56200	601
3.56567	599
3.56933	592
3.57300	586
3.57667	585
3.58033	585
3.58400	584
3.58767	583
3.59133	580
3.59500	577
3.59867	574
3.60233	574
3.60600	572
3.60967	571
3.61333	569
3.61700	567
3.62067	564
3.62433	560
3.62800	556
3.63167	551
3.63533	549
3.63900	547
3.64267	543
3.64633	541
3.65000	539
3.65367	537
3.65733	535
3.66100	535
3.66467	535
3.66833	534
3.67200	533
3.67567	530
3.67933	529
3.68300	528
3.68667	526
3.69033	525
3.69400	524
3.69767	523
3.70133	521
3.70500	519
3.70867	516
3.71233	515
3.71600	514
3.71967	512
3.72333	511
3.72700	510
3.73067	512
3.73433	510
3.73800	510
3.74167	510
3.74533	508
3.74900	508
3.75267	507
3.75633	505
3.76000	504
3.76367	502
3.76733	499
3.77100	496
3.77467	496
3.77833	497
3.78200	495
3.78567	493
3.78933	492
3.79300	492
3.79667	492
3.80033	491
3.80400	490
3.80767	491
3.81133	491
3.81500	491
3.81867	489
3.82233	488
3.82600	487
3.82967	488
3.83333	490
3.83700	490
3.84067	491
3.84433	491
3.84800	489
3.85167	486
3.85533	485
3.85900	486
3.86267	486
3.86633	488
3.87000	488
3.87367	488
3.87733	487
3.88100	485
3.88467	485
3.88833	480
3.89200	477
3.89567	474
3.89933	472
3.90300	470
3.90667	471
3.91033	471
3.91400	471
3.91767	473
3.92133	472
3.92500	469
3.92867	467
3.93233	468
3.93600	469
3.93967	469
3.94333	467
3.94700	466
3.95067	464
3.95433	459
3.95800	457
3.96167	459
3.96533	459
3.96900	457
3.97267	456
3.97633	454
3.98000	451
3.98367	449
3.98733	447
3.99100	448
3.99467	450
3.99833	448

[Status Trace (Column Oven Temperature)]
Interval(msec)	1000
# of Points	240
Start Time(min)	0.011
End Time(min)	3.994
Intensity Units	
Intensity Multiplier	1
R.Time (min)	Intensity
0.01067	35.02
0.02733	35.01
0.04400	35.01
0.06067	34.99
0.07733	34.99
0.09400	34.99
0.11067	35.01
0.12733	35.03
0.14400	35.05
0.16067	35.05
0.17733	35.05
0.19400	35.05
0.21067	35.05
0.22733	35.04
0.24400	35.04
0.26067	35.03
0.27733	35.03
0.29400	35.03
0.31067	35.02
0.32733	35.02
0.34400	35.01
0.36067	35.02
0.37733	35.03
0.39400	35.03
0.41067	35.03
0.42733	35.02
0.44400	35.01
0.46067	35.00
0.47733	35.00
0.49400	35.01
0.51067	35.02
0.52733	35.02
0.54400	35.02
0.56067	35.01
0.57733	35.01
0.59400	35.01
0.61067	35.02
0.62733	35.02
0.64400	35.03
0.66067	35.03
0.67733	35.02
0.69400	35.01
0.71067	34.98
0.72733	34.97
0.74400	34.96
0.76067	34.96
0.77733	34.96
0.79400	34.97
0.81067	34.98
0.82733	34.99
0.84400	35.00
0.86067	35.00
0.87733	34.99
0.89400	34.99
0.91067	34.99
0.92733	34.98
0.94400	34.98
0.96067	34.96
0.97733	34.96
0.99400	34.96
1.01067	34.96
1.02733	34.98
1.04400	34.98
1.06067	35.00
1.07733	35.01
1.09400	35.02
1.11067	35.02
1.12733	35.02
1.14400	35.02
1.16067	35.01
1.17733	35.00
1.19400	35.00
1.21067	35.01
1.22733	35.01
1.24400	35.00
1.26067	35.00
1.27733	34.99
1.29400	34.99
1.31067	34.98
1.32733	34.98
1.34400	35.00
1.36067	35.00
1.37733	35.00
1.39400	35.00
1.41067	35.00
1.42733	35.00
1.44400	34.99
1.46067	34.99
1.47733	35.00
1.49400	34.98
1.51067	34.99
1.52733	34.99
1.54400	34.99
1.56067	34.98
1.57733	34.98
1.59400	34.99
1.61067	35.04
1.62733	35.17
1.64400	35.36
1.66067	35.65
1.67733	36.03
1.69400	36.40
1.71067	36.75
1.72733	37.07
1.74400	37.39
1.76067	37.74
1.77733	38.07
1.79400	38.40
1.81067	38.75
1.82733	39.05
1.84400	39.36
1.86067	39.69
1.87733	40.02
1.89400	40.36
1.91067	40.69
1.92733	41.01
1.94400	41.35
1.96067	41.67
1.97733	42.00
1.99400	42.31
2.01067	42.64
2.02733	42.96
2.04400	43.29
2.06067	43.62
2.07733	43.93
2.09400	44.26
2.11067	44.59
2.12733	44.92
2.14400	45.25
2.16067	45.59
2.17733	45.93
2.19400	46.25
2.21067	46.58
2.22733	46.92
2.24400	47.23
2.26067	47.56
2.27733	47.90
2.29400	48.21
2.31067	48.54
2.32733	48.89
2.34400	49.24
2.36067	49.48
2.37733	49.59
2.39400	49.61
2.41067	49.62
2.42733	49.64
2.44400	49.64
2.46067	49.65
2.47733	49.66
2.49400	49.67
2.51067	49.69
2.52733	49.69
2.54400	49.70
2.56067	49.71
2.57733	49.74
2.59400	49.76
2.61067	49.78
2.62733	49.80
2.64400	49.80
2.66067	49.81
2.67733	49.81
2.69400	49.83
2.71067	49.85
2.72733	49.85
2.74400	49.85
2.76067	49.85
2.77733	49.87
2.79400	49.87
2.81067	49.85
2.82733	49.84
2.84400	49.87
2.86067	49.90
2.87733	49.92
2.89400	49.93
2.91067	49.94
2.92733	49.94
2.94400	49.95
2.96067	49.95
2.97733	49.96
2.99400	49.96
3.01067	49.96
3.02733	49.96
3.04400	49.96
3.06067	49.96
3.07733	49.97
3.09400	49.99
3.11067	50.00
3.12733	50.00
3.14400	50.01
3.16067	50.01
3.17733	50.03
3.19400	50.02
3.21067	50.03
3.22733	50.04
3.24400	50.06
3.26067	50.07
3.27733	50.08
3.29400	50.08
3.31067	50.08
3.32733	50.09
3.34400	50.10
3.36067	50.10
3.37733	50.10
3.39400	50.09
3.41067	50.08
3.42733	50.08
3.44400	50.07
3.46067	50.07
3.47733	50.08
3.49400	50.08
3.51067	50.08
3.52733	50.08
3.54400	50.09
3.56067	50.09
3.57733	50.09
3.59400	50.09
3.61067	50.09
3.62733	50.09
3.64400	50.09
3.66067	50.09
3.67733	50.08
3.69400	50.07
3.71067	50.08
3.72733	50.07
3.74400	50.06
3.76067	50.06
3.77733	50.07
3.79400	50.06
3.81067	50.06
3.82733	50.07
3.84400	50.08
3.86067	50.09
3.87733	50.09
3.89400	50.10
3.91067	50.10
3.92733	50.09
3.94400	50.09
3.96067	50.07
3.97733	50.06
3.99400	50.06

[Status Trace (Injection Unit Temperature)]
Interval(msec)	1000
# of Points	240
Start Time(min)	0.011
End Time(min)	3.994
Intensity Units	
Intensity Multiplier	1
R.Time (min)	Intensity
0.01067	99.98
0.02733	99.98
0.04400	99.98
0.06067	99.98
0.07733	99.98
0.09400	99.98
0.11067	99.98
0.12733	99.98
0.14400	99.98
0.16067	99.99
0.17733	99.98
0.19400	99.98
0.21067	99.98
0.22733	99.98
0.24400	99.99
0.26067	99.98
0.27733	99.98
0.29400	99.98
0.31067	99.99
0.32733	99.99
0.34400	99.99
0.36067	99.99
0.37733	99.99
0.39400	99.98
0.41067	99.98
0.42733	99.99
0.44400	99.98
0.46067	99.99
0.47733	99.99
0.49400	99.99
0.51067	99.99
0.52733	99.99
0.54400	99.99
0.56067	99.99
0.57733	99.99
0.59400	99.99
0.61067	99.98
0.62733	99.98
0.64400	99.98
0.66067	99.98
0.67733	99.98
0.69400	99.98
0.71067	99.98
0.72733	99.98
0.74400	99.98
0.76067	99.98
0.77733	99.98
0.79400	99.98
0.81067	99.98
0.82733	99.98
0.84400	99.98
0.86067	99.98
0.87733	99.98
0.89400	99.98
0.91067	99.98
0.92733	99.98
0.94400	99.98
0.96067	99.98
0.97733	99.98
0.99400	99.98
1.01067	99.97
1.02733	99.98
1.04400	99.98
1.06067	99.98
1.07733	99.98
1.09400	99.98
1.11067	99.98
1.12733	99.98
1.14400	99.98
1.16067	99.98
1.17733	99.98
1.19400	99.98
1.21067	99.98
1.22733	99.98
1.24400	99.97
1.26067	99.98
1.27733	99.98
1.29400	99.98
1.31067	99.98
1.32733	99.97
1.34400	99.98
1.36067	99.98
1.37733	99.98
1.39400	99.97
1.41067	99.98
1.42733	99.98
1.44400	99.98
1.46067	99.98
1.47733	99.98
1.49400	99.98
1.51067	99.98
1.52733	99.98
1.54400	99.98
1.56067	99.98
1.57733	99.98
1.59400	99.98
1.61067	99.98
1.62733	99.98
1.64400	99.98
1.66067	99.98
1.67733	99.98
1.69400	99.98
1.71067	99.98
1.72733	99.98
1.74400	99.98
1.76067	99.98
1.77733	99.98
1.79400	99.98
1.81067	99.98
1.82733	99.98
1.84400	99.98
1.86067	99.98
1.87733	99.98
1.89400	99.98
1.91067	99.98
1.92733	99.98
1.94400	99.98
1.96067	99.98
1.97733	99.98
1.99400	99.98
2.01067	99.98
2.02733	99.98
2.04400	99.97
2.06067	99.98
2.07733	99.98
2.09400	99.97
2.11067	99.98
2.12733	99.97
2.14400	99.97
2.16067	99.97
2.17733	99.97
2.19400	99.97
2.21067	99.97
2.22733	99.97
2.24400	99.97
2.26067	99.97
2.27733	99.97
2.29400	99.97
2.31067	99.97
2.32733	99.97
2.34400	99.97
2.36067	99.97
2.37733	99.97
2.39400	99.97
2.41067	99.97
2.42733	99.97
2.44400	99.96
2.46067	99.97
2.47733	99.97
2.49400	99.97
2.51067	99.97
2.52733	99.97
2.54400	99.97
2.56067	99.97
2.57733	99.97
2.59400	99.97
2.61067	99.97
2.62733	99.97
2.64400	99.98
2.66067	99.97
2.67733	99.98
2.69400	99.98
2.71067	99.98
2.72733	99.98
2.74400	99.99
2.76067	99.98
2.77733	99.98
2.79400	99.99
2.81067	99.98
2.82733	99.98
2.84400	99.99
2.86067	99.99
2.87733	99.99
2.89400	99.99
2.91067	100.00
2.92733	100.00
2.94400	100.00
2.96067	100.00
2.97733	100.00
2.99400	100.00
3.01067	100.00
3.02733	100.01
3.04400	100.00
3.06067	100.00
3.07733	100.00
3.09400	100.01
3.11067	100.01
3.12733	100.01
3.14400	100.01
3.16067	100.02
3.17733	100.02
3.19400	100.02
3.21067	100.01
3.22733	100.02
3.24400	100.02
3.26067	100.02
3.27733	100.02
3.29400	100.02
3.31067	100.02
3.32733	100.02
3.34400	100.02
3.36067	100.02
3.37733	100.02
3.39400	100.02
3.41067	100.03
3.42733	100.02
3.44400	100.03
3.46067	100.02
3.47733	100.03
3.49400	100.03
3.51067	100.03
3.52733	100.03
3.54400	100.03
3.56067	100.03
3.57733	100.03
3.59400	100.03
3.61067	100.03
3.62733	100.04
3.64400	100.03
3.66067	100.03
3.67733	100.03
3.69400	100.03
3.71067	100.03
3.72733	100.03
3.74400	100.04
3.76067	100.03
3.77733	100.04
3.79400	100.04
3.81067	100.04
3.82733	100.04
3.84400	100.04
3.86067	100.04
3.87733	100.04
3.89400	100.04
3.91067	100.04
3.92733	100.04
3.94400	100.04
3.96067	100.04
3.97733	100.04
3.99400	100.04

[Status Trace (Carrier Gas Pressure)]
Interval(msec)	1000
# of Points	240
Start Time(min)	0.011
End Time(min)	3.994
Intensity Units	
Intensity Multiplier	1
R.Time (min)	Intensity
0.01067	58.00
0.02733	55.09
0.04400	57.49
0.06067	59.58
0.07733	59.15
0.09400	58.01
0.11067	57.99
0.12733	58.01
0.14400	58.01
0.16067	58.00
0.17733	58.00
0.19400	58.00
0.21067	58.00
0.22733	58.00
0.24400	58.00
0.26067	58.00
0.27733	58.00
0.29400	58.00
0.31067	58.00
0.32733	58.00
0.34400	58.00
0.36067	58.00
0.37733	58.00
0.39400	58.00
0.41067	58.00
0.42733	58.00
0.44400	58.00
0.46067	58.00
0.47733	58.00
0.49400	58.00
0.51067	58.00
0.52733	58.00
0.54400	58.00
0.56067	58.00
0.57733	58.00
0.59400	58.00
0.61067	58.00
0.62733	58.00
0.64400	58.00
0.66067	58.00
0.67733	58.00
0.69400	58.00
0.71067	58.00
0.72733	58.00
0.74400	58.00
0.76067	58.00
0.77733	58.00
0.79400	58.00
0.81067	58.00
0.82733	58.00
0.84400	58.00
0.86067	58.00
0.87733	58.00
0.89400	58.00
0.91067	58.00
0.92733	58.00
0.94400	58.00
0.96067	58.00
0.97733	58.00
0.99400	58.00
1.01067	58.00
1.02733	58.00
1.04400	58.00
1.06067	58.00
1.07733	58.00
1.09400	58.00
1.11067	58.00
1.12733	58.00
1.14400	58.00
1.16067	58.00
1.17733	58.00
1.19400	58.00
1.21067	58.00
1.22733	58.00
1.24400	58.00
1.26067	58.00
1.27733	58.00
1.29400	58.00
1.31067	58.00
1.32733	58.00
1.34400	58.00
1.36067	58.00
1.37733	58.00
1.39400	58.00
1.41067	58.00
1.42733	58.00
1.44400	58.00
1.46067	58.00
1.47733	58.00
1.49400	58.00
1.51067	58.00
1.52733	58.00
1.54400	58.00
1.56067	58.00
1.57733	58.00
1.59400	58.00
1.61067	58.00
1.62733	58.00
1.64400	58.01
1.66067	58.01
1.67733	58.01
1.69400	58.00
1.71067	58.00
1.72733	58.00
1.74400	58.00
1.76067	58.00
1.77733	58.00
1.79400	58.00
1.81067	58.00
1.82733	58.00
1.84400	58.00
1.86067	58.00
1.87733	58.00
1.89400	58.00
1.91067	58.00
1.92733	58.00
1.94400	58.00
1.96067	58.00
1.97733	58.00
1.99400	58.00
2.01067	58.00
2.02733	58.00
2.04400	58.00
2.06067	58.00
2.07733	58.00
2.09400	58.00
2.11067	58.00
2.12733	58.00
2.14400	58.00
2.16067	58.00
2.17733	58.00
2.19400	58.00
2.21067	58.00
2.22733	58.00
2.24400	58.00
2.26067	58.00
2.27733	58.00
2.29400	58.00
2.31067	58.00
2.32733	58.00
2.34400	58.00
2.36067	58.00
2.37733	57.99
2.39400	57.99
2.41067	58.00
2.42733	58.00
2.44400	58.00
2.46067	58.00
2.47733	58.00
2.49400	58.00
2.51067	57.99
2.52733	57.98
2.54400	58.00
2.56067	58.00
2.57733	58.00
2.59400	58.00
2.61067	58.00
2.62733	58.00
2.64400	58.00
2.66067	58.00
2.67733	58.00
2.69400	58.00
2.71067	58.00
2.72733	58.00
2.74400	58.00
2.76067	58.00
2.77733	58.00
2.79400	58.00
2.81067	58.00
2.82733	58.00
2.84400	58.00
2.86067	58.00
2.87733	58.00
2.89400	58.00
2.91067	58.00
2.92733	58.00
2.94400	58.00
2.96067	58.00
2.97733	58.00
2.99400	58.00
3.01067	58.00
3.02733	58.00
3.04400	58.00
3.06067	58.00
3.07733	58.00
3.09400	58.00
3.11067	58.00
3.12733	58.00
3.14400	58.00
3.16067	58.00
3.17733	58.00
3.19400	58.00
3.21067	58.00
3.22733	58.00
3.24400	58.00
3.26067	58.00
3.27733	58.00
3.29400	58.00
3.31067	58.00
3.32733	58.00
3.34400	58.00
3.36067	58.00
3.37733	58.00
3.39400	58.00
3.41067	58.00
3.42733	58.00
3.44400	58.00
3.46067	58.00
3.47733	58.00
3.49400	58.00
3.51067	58.00
3.52733	58.00
3.54400	58.00
3.56067	58.00
3.57733	58.00
3.59400	58.00
3.61067	58.00
3.62733	58.00
3.64400	58.00
3.66067	58.00
3.67733	58.00
3.69400	58.00
3.71067	58.00
3.72733	58.00
3.74400	58.00
3.76067	58.00
3.77733	58.00
3.79400	58.00
3.81067	58.00
3.82733	58.00
3.84400	58.00
3.86067	58.00
3.87733	58.00
3.89400	58.00
3.91067	58.00
3.92733	58.00
3.94400	58.00
3.96067	58.00
3.97733	58.00
3.99400	58.00

[Status Trace (Carrier Gas Flow)]
Interval(msec)	1000
# of Points	240
Start Time(min)	0.011
End Time(min)	3.994
Intensity Units	
Intensity Multiplier	1
R.Time (min)	Intensity
0.01067	34.52
0.02733	34.54
0.04400	34.54
0.06067	34.54
0.07733	34.50
0.09400	34.52
0.11067	34.52
0.12733	34.52
0.14400	34.51
0.16067	34.52
0.17733	34.52
0.19400	34.51
0.21067	34.52
0.22733	34.52
0.24400	34.52
0.26067	34.52
0.27733	34.52
0.29400	34.52
0.31067	34.52
0.32733	34.52
0.34400	34.52
0.36067	34.52
0.37733	34.52
0.39400	34.52
0.41067	34.52
0.42733	34.52
0.44400	34.52
0.46067	34.52
0.47733	34.52
0.49400	34.52
0.51067	34.52
0.52733	34.52
0.54400	34.52
0.56067	34.52
0.57733	34.52
0.59400	34.52
0.61067	34.52
0.62733	34.52
0.64400	34.52
0.66067	34.52
0.67733	34.52
0.69400	34.52
0.71067	34.52
0.72733	34.52
0.74400	34.52
0.76067	34.52
0.77733	34.52
0.79400	34.52
0.81067	34.52
0.82733	34.52
0.84400	34.52
0.86067	34.52
0.87733	34.52
0.89400	34.52
0.91067	34.52
0.92733	34.52
0.94400	34.52
0.96067	34.52
0.97733	34.52
0.99400	34.52
1.01067	34.52
1.02733	34.52
1.04400	34.52
1.06067	34.52
1.07733	34.52
1.09400	34.52
1.11067	34.52
1.12733	34.52
1.14400	34.52
1.16067	34.52
1.17733	34.52
1.19400	34.52
1.21067	34.52
1.22733	34.52
1.24400	34.52
1.26067	34.52
1.27733	34.52
1.29400	34.52
1.31067	34.52
1.32733	34.52
1.34400	34.52
1.36067	34.52
1.37733	34.52
1.39400	34.52
1.41067	34.52
1.42733	34.52
1.44400	34.52
1.46067	34.52
1.47733	34.52
1.49400	34.52
1.51067	34.52
1.52733	34.52
1.54400	34.52
1.56067	34.52
1.57733	34.52
1.59400	34.52
1.61067	34.52
1.62733	34.52
1.64400	34.52
1.66067	34.52
1.67733	34.52
1.69400	34.52
1.71067	34.52
1.72733	34.52
1.74400	34.52
1.76067	34.51
1.77733	34.52
1.79400	34.52
1.81067	34.52
1.82733	34.52
1.84400	34.52
1.86067	34.52
1.87733	34.52
1.89400	34.52
1.91067	34.52
1.92733	34.52
1.94400	34.52
1.96067	34.52
1.97733	34.52
1.99400	34.52
2.01067	34.52
2.02733	34.52
2.04400	34.52
2.06067	34.52
2.07733	34.52
2.09400	34.52
2.11067	34.52
2.12733	34.52
2.14400	34.52
2.16067	34.52
2.17733	34.52
2.19400	34.52
2.21067	34.52
2.22733	34.52
2.24400	34.52
2.26067	34.52
2.27733	34.52
2.29400	34.52
2.31067	34.52
2.32733	34.52
2.34400	34.52
2.36067	34.53
2.37733	34.52
2.39400	34.52
2.41067	34.52
2.42733	34.52
2.44400	34.52
2.46067	34.52
2.47733	34.52
2.49400	34.52
2.51067	34.52
2.52733	34.52
2.54400	34.52
2.56067	34.52
2.57733	34.52
2.59400	34.52
2.61067	34.52
2.62733	34.51
2.64400	34.52
2.66067	34.52
2.67733	34.52
2.69400	34.52
2.71067	34.52
2.72733	34.52
2.74400	34.52
2.76067	34.52
2.77733	34.52
2.79400	34.52
2.81067	34.52
2.82733	34.52
2.84400	34.52
2.86067	34.52
2.87733	34.52
2.89400	34.52
2.91067	34.52
2.92733	34.52
2.94400	34.52
2.96067	34.52
2.97733	34.52
2.99400	34.52
3.01067	34.52
3.02733	34.52
3.04400	34.52
3.06067	34.52
3.07733	34.52
3.09400	34.52
3.11067	34.52
3.12733	34.52
3.14400	34.52
3.16067	34.52
3.17733	34.52
3.19400	34.52
3.21067	34.52
3.22733	34.52
3.24400	34.52
3.26067	34.52
3.27733	34.52
3.29400	34.52
3.31067	34.52
3.32733	34.52
3.34400	34.52
3.36067	34.52
3.37733	34.52
3.39400	34.52
3.41067	34.52
3.42733	34.52
3.44400	34.52
3.46067	34.52
3.47733	34.52
3.49400	34.52
3.51067	34.52
3.52733	34.52
3.54400	34.52
3.56067	34.51
3.57733	34.52
3.59400	34.52
3.61067	34.51
3.62733	34.52
3.64400	34.52
3.66067	34.52
3.67733	34.52
3.69400	34.52
3.71067	34.52
3.72733	34.52
3.74400	34.52
3.76067	34.52
3.77733	34.51
3.79400	34.52
3.81067	34.52
3.82733	34.52
3.84400	34.53
3.86067	34.51
3.87733	34.52
3.89400	34.52
3.91067	34.51
3.92733	34.52
3.94400	34.52
3.96067	34.52
3.97733	34.52
3.99400	34.53

[Status Trace (Column Flow)]
Interval(msec)	1000
# of Points	240
Start Time(min)	0.011
End Time(min)	3.994
Intensity Units	
Intensity Multiplier	1
R.Time (min)	Intensity
0.01067	5.57
0.02733	5.23
0.04400	5.51
0.06067	5.76
0.07733	5.71
0.09400	5.58
0.11067	5.57
0.12733	5.57
0.14400	5.57
0.16067	5.57
0.17733	5.57
0.19400	5.57
0.21067	5.57
0.22733	5.57
0.24400	5.57
0.26067	5.57
0.27733	5.57
0.29400	5.57
0.31067	5.57
0.32733	5.57
0.34400	5.57
0.36067	5.57
0.37733	5.57
0.39400	5.57
0.41067	5.57
0.42733	5.57
0.44400	5.57
0.46067	5.57
0.47733	5.57
0.49400	5.57
0.51067	5.57
0.52733	5.57
0.54400	5.57
0.56067	5.57
0.57733	5.57
0.59400	5.57
0.61067	5.57
0.62733	5.57
0.64400	5.57
0.66067	5.57
0.67733	5.57
0.69400	5.57
0.71067	5.57
0.72733	5.57
0.74400	5.57
0.76067	5.57
0.77733	5.58
0.79400	5.57
0.81067	5.57
0.82733	5.57
0.84400	5.57
0.86067	5.57
0.87733	5.57
0.89400	5.57
0.91067	5.57
0.92733	5.57
0.94400	5.57
0.96067	5.57
0.97733	5.57
0.99400	5.57
1.01067	5.58
1.02733	5.57
1.04400	5.57
1.06067	5.57
1.07733	5.57
1.09400	5.57
1.11067	5.57
1.12733	5.57
1.14400	5.57
1.16067	5.57
1.17733	5.57
1.19400	5.57
1.21067	5.57
1.22733	5.57
1.24400	5.57
1.26067	5.57
1.27733	5.57
1.29400	5.57
1.31067	5.57
1.32733	5.57
1.34400	5.57
1.36067	5.57
1.37733	5.57
1.39400	5.57
1.41067	5.57
1.42733	5.57
1.44400	5.57
1.46067	5.57
1.47733	5.57
1.49400	5.57
1.51067	5.57
1.52733	5.57
1.54400	5.57
1.56067	5.57
1.57733	5.57
1.59400	5.57
1.61067	5.57
1.62733	5.57
1.64400	5.56
1.66067	5.55
1.67733	5.54
1.69400	5.53
1.71067	5.52
1.72733	5.51
1.74400	5.50
1.76067	5.49
1.77733	5.48
1.79400	5.47
1.81067	5.46
1.82733	5.45
1.84400	5.44
1.86067	5.43
1.87733	5.42
1.89400	5.41
1.91067	5.40
1.92733	5.39
1.94400	5.38
1.96067	5.37
1.97733	5.36
1.99400	5.35
2.01067	5.34
2.02733	5.33
2.04400	5.32
2.06067	5.31
2.07733	5.30
2.09400	5.29
2.11067	5.28
2.12733	5.27
2.14400	5.26
2.16067	5.25
2.17733	5.24
2.19400	5.23
2.21067	5.22
2.22733	5.21
2.24400	5.20
2.26067	5.20
2.27733	5.19
2.29400	5.18
2.31067	5.17
2.32733	5.16
2.34400	5.15
2.36067	5.14
2.37733	5.14
2.39400	5.14
2.41067	5.14
2.42733	5.14
2.44400	5.14
2.46067	5.14
2.47733	5.14
2.49400	5.14
2.51067	5.13
2.52733	5.13
2.54400	5.13
2.56067	5.13
2.57733	5.13
2.59400	5.13
2.61067	5.13
2.62733	5.13
2.64400	5.13
2.66067	5.13
2.67733	5.13
2.69400	5.13
2.71067	5.13
2.72733	5.13
2.74400	5.13
2.76067	5.13
2.77733	5.13
2.79400	5.13
2.81067	5.13
2.82733	5.13
2.84400	5.13
2.86067	5.13
2.87733	5.13
2.89400	5.13
2.91067	5.13
2.92733	5.13
2.94400	5.13
2.96067	5.13
2.97733	5.13
2.99400	5.13
3.01067	5.13
3.02733	5.13
3.04400	5.13
3.06067	5.13
3.07733	5.13
3.09400	5.13
3.11067	5.13
3.12733	5.13
3.14400	5.13
3.16067	5.13
3.17733	5.13
3.19400	5.13
3.21067	5.13
3.22733	5.13
3.24400	5.12
3.26067	5.12
3.27733	5.12
3.29400	5.12
3.31067	5.12
3.32733	5.12
3.34400	5.12
3.36067	5.12
3.37733	5.12
3.39400	5.12
3.41067	5.12
3.42733	5.12
3.44400	5.12
3.46067	5.12
3.47733	5.12
3.49400	5.12
3.51067	5.12
3.52733	5.12
3.54400	5.12
3.56067	5.12
3.57733	5.12
3.59400	5.12
3.61067	5.12
3.62733	5.12
3.64400	5.12
3.66067	5.12
3.67733	5.12
3.69400	5.12
3.71067	5.12
3.72733	5.12
3.74400	5.12
3.76067	5.12
3.77733	5.12
3.79400	5.12
3.81067	5.12
3.82733	5.12
3.84400	5.12
3.86067	5.12
3.87733	5.12
3.89400	5.12
3.91067	5.12
3.92733	5.12
3.94400	5.12
3.96067	5.12
3.97733	5.12
3.99400	5.12

[Status Trace (Linear Velocity)]
Interval(msec)	1000
# of Points	240
Start Time(min)	0.011
End Time(min)	3.994
Intensity Units	
Intensity Multiplier	1
R.Time (min)	Intensity
0.01067	39.03
0.02733	37.12
0.04400	38.69
0.06067	40.07
0.07733	39.78
0.09400	39.04
0.11067	39.02
0.12733	39.03
0.14400	39.03
0.16067	39.03
0.17733	39.03
0.19400	39.03
0.21067	39.03
0.22733	39.03
0.24400	39.03
0.26067	39.03
0.27733	39.03
0.29400	39.03
0.31067	39.03
0.32733	39.03
0.34400	39.03
0.36067	39.03
0.37733	39.03
0.39400	39.03
0.41067	39.03
0.42733	39.03
0.44400	39.03
0.46067	39.03
0.47733	39.03
0.49400	39.03
0.51067	39.03
0.52733	39.03
0.54400	39.03
0.56067	39.03
0.57733	39.03
0.59400	39.03
0.61067	39.03
0.62733	39.03
0.64400	39.03
0.66067	39.03
0.67733	39.03
0.69400	39.03
0.71067	39.03
0.72733	39.03
0.74400	39.03
0.76067	39.03
0.77733	39.03
0.79400	39.03
0.81067	39.03
0.82733	39.03
0.84400	39.03
0.86067	39.03
0.87733	39.03
0.89400	39.03
0.91067	39.03
0.92733	39.03
0.94400	39.03
0.96067	39.03
0.97733	39.03
0.99400	39.03
1.01067	39.03
1.02733	39.03
1.04400	39.03
1.06067	39.03
1.07733	39.03
1.09400	39.03
1.11067	39.03
1.12733	39.03
1.14400	39.03
1.16067	39.03
1.17733	39.03
1.19400	39.03
1.21067	39.03
1.22733	39.03
1.24400	39.03
1.26067	39.03
1.27733	39.03
1.29400	39.03
1.31067	39.03
1.32733	39.03
1.34400	39.03
1.36067	39.03
1.37733	39.03
1.39400	39.03
1.41067	39.03
1.42733	39.03
1.44400	39.03
1.46067	39.03
1.47733	39.03
1.49400	39.03
1.51067	39.03
1.52733	39.03
1.54400	39.03
1.56067	39.03
1.57733	39.03
1.59400	39.03
1.61067	39.03
1.62733	39.02
1.64400	39.00
1.66067	38.97
1.67733	38.94
1.69400	38.90
1.71067	38.86
1.72733	38.83
1.74400	38.80
1.76067	38.77
1.77733	38.74
1.79400	38.70
1.81067	38.67
1.82733	38.64
1.84400	38.61
1.86067	38.58
1.87733	38.56
1.89400	38.52
1.91067	38.49
1.92733	38.46
1.94400	38.43
1.96067	38.40
1.97733	38.37
1.99400	38.34
2.01067	38.31
2.02733	38.28
2.04400	38.25
2.06067	38.22
2.07733	38.19
2.09400	38.16
2.11067	38.13
2.12733	38.10
2.14400	38.07
2.16067	38.04
2.17733	38.01
2.19400	37.98
2.21067	37.95
2.22733	37.92
2.24400	37.89
2.26067	37.86
2.27733	37.83
2.29400	37.80
2.31067	37.77
2.32733	37.75
2.34400	37.71
2.36067	37.69
2.37733	37.68
2.39400	37.67
2.41067	37.68
2.42733	37.68
2.44400	37.67
2.46067	37.67
2.47733	37.67
2.49400	37.67
2.51067	37.67
2.52733	37.66
2.54400	37.67
2.56067	37.67
2.57733	37.67
2.59400	37.67
2.61067	37.66
2.62733	37.66
2.64400	37.66
2.66067	37.66
2.67733	37.66
2.69400	37.66
2.71067	37.66
2.72733	37.66
2.74400	37.66
2.76067	37.66
2.77733	37.66
2.79400	37.66
2.81067	37.66
2.82733	37.66
2.84400	37.66
2.86067	37.65
2.87733	37.65
2.89400	37.65
2.91067	37.65
2.92733	37.65
2.94400	37.65
2.96067	37.65
2.97733	37.65
2.99400	37.65
3.01067	37.65
3.02733	37.65
3.04400	37.65
3.06067	37.65
3.07733	37.65
3.09400	37.65
3.11067	37.64
3.12733	37.64
3.14400	37.64
3.16067	37.64
3.17733	37.64
3.19400	37.64
3.21067	37.64
3.22733	37.64
3.24400	37.64
3.26067	37.64
3.27733	37.64
3.29400	37.64
3.31067	37.64
3.32733	37.64
3.34400	37.64
3.36067	37.64
3.37733	37.64
3.39400	37.64
3.41067	37.64
3.42733	37.64
3.44400	37.64
3.46067	37.64
3.47733	37.64
3.49400	37.64
3.51067	37.64
3.52733	37.64
3.54400	37.64
3.56067	37.64
3.57733	37.64
3.59400	37.64
3.61067	37.64
3.62733	37.64
3.64400	37.64
3.66067	37.64
3.67733	37.64
3.69400	37.64
3.71067	37.64
3.72733	37.64
3.74400	37.64
3.76067	37.64
3.77733	37.64
3.79400	37.64
3.81067	37.64
3.82733	37.64
3.84400	37.64
3.86067	37.64
3.87733	37.64
3.89400	37.64
3.91067	37.64
3.92733	37.64
3.94400	37.64
3.96067	37.64
3.97733	37.64
3.99400	37.64

