[Header]
Application Name	LabSolutions
Version	5.110
Data File Name	C:\Users\User\Desktop\GC Analyses\Jack\Nachusa Grasslands Sampling\T0 Timepoint July 12th\T0_07122022_030.gcd
Output Date	3/14/2023
Output Time	3:40:35 PM

[File Information]
Type	Data File
Generated	3/7/2023 5:02:39 PM
Generated by	System Administrator
Modified	3/7/2023 5:09:16 PM
Modified by	System Administrator

[Sample Information]
Operator Name	System Administrator
Acquired	3/7/2023 5:05:16 PM
Sample Type	0:Unknown
Level	0
Sample Name	030
Sample ID	030
ISTD Amount1	1
ISTD Amount2	1
ISTD Amount3	1
ISTD Amount4	1
ISTD Amount5	1
ISTD Amount6	1
ISTD Amount7	1
ISTD Amount8	1
ISTD Amount9	1
ISTD Amount10	1
ISTD Amount11	1
ISTD Amount12	1
ISTD Amount13	1
ISTD Amount14	1
ISTD Amount15	1
ISTD Amount16	1
ISTD Amount17	1
ISTD Amount18	1
ISTD Amount19	1
ISTD Amount20	1
ISTD Amount21	1
ISTD Amount22	1
ISTD Amount23	1
ISTD Amount24	1
ISTD Amount25	1
ISTD Amount26	1
ISTD Amount27	1
ISTD Amount28	1
ISTD Amount29	1
ISTD Amount30	1
ISTD Amount31	1
ISTD Amount32	1
Sample Amount	1
Dilution Factor	1
Vial#	29
Injection Volume	1
Injection Count	1
Bar Code	

[Original Files]
Data File	C:\Users\User\Desktop\GC Analyses\Jack\Nachusa Grasslands Sampling\T0 Timepoint July 12th\T0_07122022_030.gcd
Method File	C:\LabSolutions\Data\GHG_4min_2022\ghg3_togas_w_acet_4 min_new_int.gcm
Batch File	C:\LabSolutions\Data\AutoSamplerTesting\T0_07122022.gcb
Report Format File	c:\LabSolutions\System\DEFAULT.lsr

[File Description]


[Configuration]
Instrument Name	C0B7VH3-Instrument1
Instrument #	1
Line #	1
# of Detectors	3
Detector ID	DET#1	DET#2	DET#3
Detector Name	FID	PTCD	ECD
# of Channels	1	1	1

[Peak Table(Ch1)]
# of Peaks	3
Peak#	R.Time	I.Time	F.Time	Area	Height	A/H	Conc.	Mark	ID#	Name	k'	Plate #	Plate Ht.	Tailing	Resolution	Sep.Factor	Area Ratio	Height Ratio	Conc. %	Norm Conc.
1	1.476	1.424	1.538	29578	13901	2.128	208.819	   	1	CO	0.000	9103	16.478	1.356	0.000	0.000	0	0	34.003	34.003
2	1.571	1.538	1.630	4899	2352	2.083	94.720	 V 	2	CH4	0.065	10514	14.266	0.000	1.548	0.000	0	0	15.424	15.424
3	2.000	1.945	2.484	1237497	580934	2.130	310.578	   	3	CO2	0.355	17351	8.645	1.179	7.032	5.500	0	0	50.573	50.573

[Peak Table(Ch2)]
# of Peaks	0

[Peak Table(Ch3)]
# of Peaks	4
Peak#	R.Time	I.Time	F.Time	Area	Height	A/H	Conc.	Mark	ID#	Name	k'	Plate #	Plate Ht.	Tailing	Resolution	Sep.Factor	Area Ratio	Height Ratio	Conc. %	Norm Conc.
1	2.462	2.301	2.524	1516	350	4.330	0.000	   			0.000	4912	30.539	0.000	0.000	0.000	0	0	0.000	0.000
2	2.550	2.524	2.638	1027	216	4.745	0.000	 V 			0.036	2108	71.173	0.000	0.485	0.000	0	0	0.000	0.000
3	2.726	2.649	2.807	814	109	7.503	0.021	   	1	N2O	0.107	501	299.375	0.000	0.496	3.000	0	0	4.153	4.153
4	2.873	2.807	3.170	18791	4836	3.886	0.480	 V 	1	N2O	0.167	13270	11.304	1.632	0.500	1.556	0	0	95.847	95.847

[Compound Results(Ch1)]
# of IDs	6
ID#	Name	R.Time	Area	Height	Conc.	Curve	3rd	2nd	1st	Constant	Area Ratio	Height Ratio	Conc. %	Norm Conc.
1	CO	1.476	29578	13901	208.819	Linear	0.000000e+00	0.000000e+00	1.416423e+002	0.000000e+00	0	0	34.003	34.003
2	CH4	1.571	4899	2352	94.720	Linear	0.000000e+00	0.000000e+00	5.171738e+001	0.000000e+00	0	0	15.424	15.424
3	CO2	2.000	1237497	580934	310.578	Linear	0.000000e+00	0.000000e+00	3.984494e+003	0.000000e+00	0	0	50.573	50.573
4	Ethylene	0.000	0	0	0.000	Linear	0.000000e+00	0.000000e+00	0.000000e+00	0.000000e+00	0	0	0.000	0.000
5	Acetylene	0.000	0	0	0.000	Linear	0.000000e+00	0.000000e+00	0.000000e+00	0.000000e+00	0	0	0.000	0.000
6	Ethane	0.000	0	0	0.000	Linear	0.000000e+00	0.000000e+00	0.000000e+00	0.000000e+00	0	0	0.000	0.000

[Compound Results(Ch2)]
# of IDs	5
ID#	Name	R.Time	Area	Height	Conc.	Curve	3rd	2nd	1st	Constant	Area Ratio	Height Ratio	Conc. %	Norm Conc.
1	Hydrogen	0.000	0	0	0.000	Linear	0.000000e+00	0.000000e+00	0.000000e+00	0.000000e+00	0	0	0.000	0.000
2	Oxygen	0.000	0	0	0.000	Linear	0.000000e+00	0.000000e+00	0.000000e+00	0.000000e+00	0	0	0.000	0.000
3	Nitrogen	0.000	0	0	0.000	Linear	0.000000e+00	0.000000e+00	0.000000e+00	0.000000e+00	0	0	0.000	0.000
4	Methane	0.000	0	0	0.000	Linear	0.000000e+00	0.000000e+00	0.000000e+00	0.000000e+00	0	0	0.000	0.000
5	Carbon Monoxide	0.000	0	0	0.000	Linear	0.000000e+00	0.000000e+00	0.000000e+00	0.000000e+00	0	0	0.000	0.000

[Compound Results(Ch3)]
# of IDs	2
ID#	Name	R.Time	Area	Height	Conc.	Curve	3rd	2nd	1st	Constant	Area Ratio	Height Ratio	Conc. %	Norm Conc.
1	N2O	2.873	19605	4944	0.501	Linear	0.000000e+00	0.000000e+00	3.915173e+004	0.000000e+00	0	0	100.000	100.000
2	SF6	0.000	0	0	0.000	Linear	0.000000e+00	0.000000e+00	0.000000e+00	0.000000e+00	0	0	0.000	0.000

[Group Results(Ch1)]
# of Groups	0

[Group Results(Ch2)]
# of Groups	0

[Group Results(Ch3)]
# of Groups	0

[Chromatogram (Ch1)]
Interval(msec)	220
# of Points	1091
Start Time(min)	0.002
End Time(min)	3.998
R.Time (min)	Intensity
0.00167	26
0.00533	28
0.00900	30
0.01267	35
0.01633	43
0.02000	50
0.02367	50
0.02733	43
0.03100	32
0.03467	19
0.03833	5
0.04200	-6
0.04567	-9
0.04933	-4
0.05300	6
0.05667	13
0.06033	16
0.06400	16
0.06767	14
0.07133	10
0.07500	11
0.07867	14
0.08233	11
0.08600	6
0.08967	0
0.09333	-2
0.09700	-2
0.10067	-1
0.10433	0
0.10800	2
0.11167	5
0.11533	8
0.11900	13
0.12267	14
0.12633	14
0.13000	13
0.13367	11
0.13733	10
0.14100	8
0.14467	7
0.14833	7
0.15200	9
0.15567	11
0.15933	15
0.16300	18
0.16667	21
0.17033	23
0.17400	23
0.17767	23
0.18133	25
0.18500	29
0.18867	32
0.19233	35
0.19600	40
0.19967	43
0.20333	41
0.20700	35
0.21067	29
0.21433	23
0.21800	19
0.22167	14
0.22533	11
0.22900	8
0.23267	4
0.23633	5
0.24000	9
0.24367	13
0.24733	16
0.25100	11
0.25467	1
0.25833	-9
0.26200	-16
0.26567	-16
0.26933	-13
0.27300	-9
0.27667	-5
0.28033	1
0.28400	6
0.28767	13
0.29133	25
0.29500	34
0.29867	40
0.30233	42
0.30600	38
0.30967	33
0.31333	29
0.31700	24
0.32067	18
0.32433	14
0.32800	9
0.33167	3
0.33533	-2
0.33900	-2
0.34267	4
0.34633	9
0.35000	13
0.35367	15
0.35733	15
0.36100	17
0.36467	17
0.36833	17
0.37200	14
0.37567	10
0.37933	8
0.38300	10
0.38667	12
0.39033	14
0.39400	16
0.39767	18
0.40133	20
0.40500	21
0.40867	24
0.41233	28
0.41600	30
0.41967	27
0.42333	21
0.42700	15
0.43067	9
0.43433	6
0.43800	6
0.44167	9
0.44533	14
0.44900	21
0.45267	27
0.45633	31
0.46000	33
0.46367	30
0.46733	22
0.47100	15
0.47467	7
0.47833	-2
0.48200	-9
0.48567	-12
0.48933	-12
0.49300	-9
0.49667	-5
0.50033	1
0.50400	6
0.50767	8
0.51133	7
0.51500	7
0.51867	12
0.52233	20
0.52600	25
0.52967	24
0.53333	18
0.53700	11
0.54067	6
0.54433	5
0.54800	6
0.55167	5
0.55533	1
0.55900	-5
0.56267	-11
0.56633	-13
0.57000	-11
0.57367	-4
0.57733	2
0.58100	5
0.58467	3
0.58833	-5
0.59200	-12
0.59567	-16
0.59933	-19
0.60300	-19
0.60667	-17
0.61033	-14
0.61400	-10
0.61767	-0
0.62133	10
0.62500	18
0.62867	23
0.63233	22
0.63600	13
0.63967	6
0.64333	1
0.64700	-2
0.65067	-5
0.65433	-9
0.65800	-13
0.66167	-17
0.66533	-18
0.66900	-17
0.67267	-14
0.67633	-12
0.68000	-12
0.68367	-12
0.68733	-8
0.69100	-2
0.69467	-1
0.69833	-0
0.70200	4
0.70567	8
0.70933	8
0.71300	1
0.71667	-7
0.72033	-13
0.72400	-15
0.72767	-16
0.73133	-15
0.73500	-14
0.73867	-11
0.74233	-9
0.74600	-5
0.74967	-4
0.75333	-9
0.75700	-18
0.76067	-25
0.76433	-29
0.76800	-34
0.77167	-40
0.77533	-43
0.77900	-40
0.78267	-29
0.78633	-17
0.79000	-7
0.79367	-3
0.79733	-6
0.80100	-9
0.80467	-11
0.80833	-10
0.81200	-8
0.81567	-8
0.81933	-10
0.82300	-13
0.82667	-16
0.83033	-18
0.83400	-21
0.83767	-21
0.84133	-19
0.84500	-15
0.84867	-11
0.85233	-9
0.85600	-6
0.85967	-2
0.86333	5
0.86700	15
0.87067	19
0.87433	11
0.87800	-3
0.88167	-16
0.88533	-26
0.88900	-31
0.89267	-30
0.89633	-29
0.90000	-30
0.90367	-32
0.90733	-34
0.91100	-36
0.91467	-34
0.91833	-34
0.92200	-37
0.92567	-40
0.92933	-41
0.93300	-41
0.93667	-41
0.94033	-36
0.94400	-24
0.94767	-12
0.95133	-6
0.95500	-8
0.95867	-14
0.96233	-22
0.96600	-29
0.96967	-30
0.97333	-26
0.97700	-21
0.98067	-16
0.98433	-13
0.98800	-11
0.99167	-12
0.99533	-18
0.99900	-26
1.00267	-32
1.00633	-34
1.01000	-33
1.01367	-30
1.01733	-25
1.02100	-20
1.02467	-18
1.02833	-21
1.03200	-27
1.03567	-30
1.03933	-30
1.04300	-28
1.04667	-27
1.05033	-30
1.05400	-31
1.05767	-29
1.06133	-24
1.06500	-18
1.06867	-13
1.07233	-10
1.07600	-12
1.07967	-17
1.08333	-18
1.08700	-16
1.09067	-15
1.09433	-17
1.09800	-20
1.10167	-25
1.10533	-32
1.10900	-37
1.11267	-39
1.11633	-39
1.12000	-42
1.12367	-49
1.12733	-59
1.13100	-63
1.13467	-65
1.13833	-67
1.14200	-66
1.14567	-64
1.14933	-62
1.15300	-57
1.15667	-48
1.16033	-39
1.16400	-32
1.16767	-28
1.17133	-28
1.17500	-31
1.17867	-34
1.18233	-38
1.18600	-38
1.18967	-36
1.19333	-36
1.19700	-34
1.20067	-29
1.20433	-25
1.20800	-24
1.21167	-24
1.21533	-26
1.21900	-29
1.22267	-35
1.22633	-43
1.23000	-50
1.23367	-55
1.23733	-59
1.24100	-58
1.24467	-56
1.24833	-52
1.25200	-47
1.25567	-39
1.25933	-29
1.26300	-20
1.26667	-15
1.27033	-14
1.27400	-17
1.27767	-23
1.28133	-29
1.28500	-33
1.28867	-35
1.29233	-36
1.29600	-36
1.29967	-35
1.30333	-36
1.30700	-33
1.31067	-28
1.31433	-21
1.31800	-15
1.32167	-9
1.32533	-4
1.32900	-1
1.33267	1
1.33633	-0
1.34000	-2
1.34367	-3
1.34733	-4
1.35100	-8
1.35467	-13
1.35833	-20
1.36200	-30
1.36567	-38
1.36933	-40
1.37300	-38
1.37667	-32
1.38033	-25
1.38400	-19
1.38767	-14
1.39133	-10
1.39500	-11
1.39867	-15
1.40233	-18
1.40600	-18
1.40967	-19
1.41333	-19
1.41700	-19
1.42067	-16
1.42433	-9
1.42800	-2
1.43167	3
1.43533	7
1.43900	22
1.44267	94
1.44633	296
1.45000	813
1.45367	2066
1.45733	4231
1.46100	6903
1.46467	9498
1.46833	11636
1.47200	13145
1.47567	13905
1.47933	13790
1.48300	12771
1.48667	11034
1.49033	8949
1.49400	6894
1.49767	5123
1.50133	3726
1.50500	2683
1.50867	1933
1.51233	1407
1.51600	1040
1.51967	781
1.52333	598
1.52700	467
1.53067	372
1.53433	307
1.53800	275
1.54167	304
1.54533	455
1.54900	762
1.55267	1179
1.55633	1610
1.56000	1973
1.56367	2234
1.56733	2380
1.57100	2382
1.57467	2215
1.57833	1903
1.58200	1519
1.58567	1144
1.58933	824
1.59300	579
1.59667	406
1.60033	288
1.60400	210
1.60767	158
1.61133	123
1.61500	97
1.61867	76
1.62233	61
1.62600	52
1.62967	45
1.63333	41
1.63700	40
1.64067	40
1.64433	40
1.64800	38
1.65167	31
1.65533	23
1.65900	19
1.66267	17
1.66633	18
1.67000	21
1.67367	24
1.67733	25
1.68100	23
1.68467	18
1.68833	15
1.69200	13
1.69567	12
1.69933	12
1.70300	14
1.70667	20
1.71033	30
1.71400	35
1.71767	35
1.72133	31
1.72500	27
1.72867	26
1.73233	26
1.73600	23
1.73967	20
1.74333	13
1.74700	3
1.75067	-7
1.75433	-11
1.75800	-9
1.76167	-6
1.76533	-4
1.76900	1
1.77267	5
1.77633	12
1.78000	18
1.78367	20
1.78733	19
1.79100	13
1.79467	6
1.79833	0
1.80200	-0
1.80567	3
1.80933	11
1.81300	17
1.81667	23
1.82033	26
1.82400	27
1.82767	29
1.83133	33
1.83500	35
1.83867	31
1.84233	23
1.84600	15
1.84967	9
1.85333	7
1.85700	9
1.86067	14
1.86433	21
1.86800	28
1.87167	34
1.87533	37
1.87900	34
1.88267	29
1.88633	25
1.89000	22
1.89367	22
1.89733	21
1.90100	15
1.90467	12
1.90833	14
1.91200	19
1.91567	25
1.91933	27
1.92300	24
1.92667	21
1.93033	21
1.93400	23
1.93767	25
1.94133	25
1.94500	34
1.94867	47
1.95233	66
1.95600	148
1.95967	600
1.96333	2705
1.96700	10249
1.97067	30919
1.97433	74822
1.97800	148295
1.98167	247147
1.98533	356717
1.98900	458598
1.99267	536602
1.99633	579331
2.00000	581004
2.00367	542950
2.00733	474204
2.01100	389115
2.01467	302492
2.01833	225205
2.02200	162485
2.02567	114940
2.02933	80590
2.03300	56568
2.03667	40110
2.04033	28956
2.04400	21416
2.04767	16295
2.05133	12777
2.05500	10322
2.05867	8574
2.06233	7299
2.06600	6344
2.06967	5610
2.07333	5029
2.07700	4556
2.08067	4162
2.08433	3825
2.08800	3534
2.09167	3283
2.09533	3069
2.09900	2888
2.10267	2723
2.10633	2578
2.11000	2448
2.11367	2334
2.11733	2232
2.12100	2136
2.12467	2047
2.12833	1962
2.13200	1882
2.13567	1803
2.13933	1728
2.14300	1659
2.14667	1598
2.15033	1545
2.15400	1499
2.15767	1456
2.16133	1412
2.16500	1370
2.16867	1332
2.17233	1296
2.17600	1261
2.17967	1227
2.18333	1196
2.18700	1168
2.19067	1139
2.19433	1110
2.19800	1079
2.20167	1050
2.20533	1021
2.20900	993
2.21267	967
2.21633	945
2.22000	924
2.22367	905
2.22733	887
2.23100	867
2.23467	846
2.23833	825
2.24200	809
2.24567	796
2.24933	785
2.25300	777
2.25667	768
2.26033	755
2.26400	743
2.26767	732
2.27133	723
2.27500	714
2.27867	705
2.28233	699
2.28600	690
2.28967	679
2.29333	665
2.29700	653
2.30067	644
2.30433	638
2.30800	635
2.31167	630
2.31533	618
2.31900	597
2.32267	575
2.32633	557
2.33000	546
2.33367	543
2.33733	545
2.34100	547
2.34467	547
2.34833	544
2.35200	539
2.35567	534
2.35933	526
2.36300	516
2.36667	507
2.37033	498
2.37400	493
2.37767	491
2.38133	493
2.38500	494
2.38867	494
2.39233	495
2.39600	491
2.39967	484
2.40333	472
2.40700	459
2.41067	451
2.41433	447
2.41800	447
2.42167	448
2.42533	450
2.42900	449
2.43267	448
2.43633	447
2.44000	444
2.44367	441
2.44733	438
2.45100	435
2.45467	437
2.45833	434
2.46200	426
2.46567	418
2.46933	408
2.47300	400
2.47667	394
2.48033	389
2.48400	388
2.48767	387
2.49133	388
2.49500	396
2.49867	406
2.50233	410
2.50600	408
2.50967	403
2.51333	397
2.51700	393
2.52067	390
2.52433	386
2.52800	378
2.53167	372
2.53533	368
2.53900	367
2.54267	367
2.54633	369
2.55000	373
2.55367	375
2.55733	378
2.56100	383
2.56467	386
2.56833	387
2.57200	385
2.57567	380
2.57933	370
2.58300	358
2.58667	350
2.59033	343
2.59400	340
2.59767	339
2.60133	340
2.60500	339
2.60867	337
2.61233	335
2.61600	334
2.61967	335
2.62333	338
2.62700	341
2.63067	344
2.63433	343
2.63800	342
2.64167	342
2.64533	341
2.64900	339
2.65267	336
2.65633	335
2.66000	339
2.66367	343
2.66733	344
2.67100	340
2.67467	334
2.67833	329
2.68200	326
2.68567	325
2.68933	328
2.69300	332
2.69667	331
2.70033	325
2.70400	319
2.70767	316
2.71133	314
2.71500	310
2.71867	307
2.72233	305
2.72600	304
2.72967	303
2.73333	303
2.73700	302
2.74067	300
2.74433	300
2.74800	307
2.75167	319
2.75533	327
2.75900	326
2.76267	319
2.76633	309
2.77000	303
2.77367	300
2.77733	298
2.78100	301
2.78467	306
2.78833	309
2.79200	308
2.79567	306
2.79933	307
2.80300	311
2.80667	317
2.81033	320
2.81400	321
2.81767	320
2.82133	319
2.82500	321
2.82867	323
2.83233	322
2.83600	320
2.83967	318
2.84333	317
2.84700	315
2.85067	310
2.85433	302
2.85800	295
2.86167	294
2.86533	299
2.86900	308
2.87267	315
2.87633	321
2.88000	326
2.88367	330
2.88733	331
2.89100	329
2.89467	325
2.89833	319
2.90200	311
2.90567	302
2.90933	295
2.91300	289
2.91667	287
2.92033	288
2.92400	293
2.92767	299
2.93133	306
2.93500	313
2.93867	318
2.94233	321
2.94600	321
2.94967	319
2.95333	316
2.95700	315
2.96067	318
2.96433	316
2.96800	311
2.97167	303
2.97533	292
2.97900	283
2.98267	279
2.98633	280
2.99000	286
2.99367	294
2.99733	304
3.00100	311
3.00467	315
3.00833	314
3.01200	313
3.01567	312
3.01933	310
3.02300	308
3.02667	306
3.03033	303
3.03400	300
3.03767	299
3.04133	301
3.04500	305
3.04867	305
3.05233	300
3.05600	293
3.05967	288
3.06333	286
3.06700	285
3.07067	284
3.07433	284
3.07800	285
3.08167	285
3.08533	285
3.08900	287
3.09267	289
3.09633	288
3.10000	283
3.10367	279
3.10733	279
3.11100	279
3.11467	278
3.11833	274
3.12200	270
3.12567	268
3.12933	268
3.13300	271
3.13667	277
3.14033	284
3.14400	288
3.14767	289
3.15133	290
3.15500	288
3.15867	283
3.16233	276
3.16600	270
3.16967	267
3.17333	266
3.17700	268
3.18067	274
3.18433	281
3.18800	285
3.19167	285
3.19533	280
3.19900	276
3.20267	272
3.20633	267
3.21000	265
3.21367	263
3.21733	263
3.22100	265
3.22467	268
3.22833	273
3.23200	274
3.23567	270
3.23933	263
3.24300	258
3.24667	259
3.25033	263
3.25400	261
3.25767	253
3.26133	245
3.26500	244
3.26867	250
3.27233	257
3.27600	258
3.27967	256
3.28333	257
3.28700	261
3.29067	267
3.29433	271
3.29800	275
3.30167	279
3.30533	281
3.30900	280
3.31267	279
3.31633	280
3.32000	282
3.32367	282
3.32733	277
3.33100	269
3.33467	258
3.33833	247
3.34200	238
3.34567	235
3.34933	234
3.35300	234
3.35667	238
3.36033	245
3.36400	251
3.36767	256
3.37133	260
3.37500	261
3.37867	257
3.38233	251
3.38600	247
3.38967	249
3.39333	253
3.39700	258
3.40067	260
3.40433	262
3.40800	265
3.41167	264
3.41533	259
3.41900	253
3.42267	244
3.42633	234
3.43000	226
3.43367	219
3.43733	213
3.44100	211
3.44467	213
3.44833	216
3.45200	222
3.45567	229
3.45933	234
3.46300	240
3.46667	243
3.47033	246
3.47400	248
3.47767	247
3.48133	245
3.48500	244
3.48867	245
3.49233	248
3.49600	251
3.49967	254
3.50333	255
3.50700	255
3.51067	252
3.51433	248
3.51800	242
3.52167	235
3.52533	226
3.52900	218
3.53267	215
3.53633	213
3.54000	212
3.54367	209
3.54733	210
3.55100	213
3.55467	216
3.55833	218
3.56200	219
3.56567	219
3.56933	218
3.57300	217
3.57667	217
3.58033	214
3.58400	212
3.58767	216
3.59133	221
3.59500	225
3.59867	229
3.60233	233
3.60600	234
3.60967	233
3.61333	230
3.61700	226
3.62067	223
3.62433	225
3.62800	228
3.63167	228
3.63533	224
3.63900	218
3.64267	214
3.64633	211
3.65000	207
3.65367	202
3.65733	197
3.66100	196
3.66467	195
3.66833	194
3.67200	196
3.67567	197
3.67933	195
3.68300	195
3.68667	197
3.69033	198
3.69400	200
3.69767	201
3.70133	202
3.70500	205
3.70867	209
3.71233	215
3.71600	217
3.71967	216
3.72333	213
3.72700	208
3.73067	200
3.73433	197
3.73800	198
3.74167	198
3.74533	196
3.74900	194
3.75267	187
3.75633	179
3.76000	170
3.76367	164
3.76733	160
3.77100	159
3.77467	164
3.77833	170
3.78200	173
3.78567	176
3.78933	181
3.79300	185
3.79667	191
3.80033	195
3.80400	196
3.80767	193
3.81133	187
3.81500	182
3.81867	178
3.82233	177
3.82600	177
3.82967	175
3.83333	169
3.83700	164
3.84067	164
3.84433	169
3.84800	175
3.85167	177
3.85533	176
3.85900	172
3.86267	166
3.86633	162
3.87000	165
3.87367	173
3.87733	183
3.88100	186
3.88467	186
3.88833	186
3.89200	183
3.89567	171
3.89933	154
3.90300	142
3.90667	139
3.91033	143
3.91400	149
3.91767	152
3.92133	150
3.92500	146
3.92867	142
3.93233	138
3.93600	137
3.93967	141
3.94333	147
3.94700	151
3.95067	154
3.95433	156
3.95800	155
3.96167	152
3.96533	152
3.96900	151
3.97267	150
3.97633	153
3.98000	156
3.98367	158
3.98733	156
3.99100	150
3.99467	142
3.99833	137

[Chromatogram (Ch2)]
Interval(msec)	220
# of Points	1091
Start Time(min)	0.002
End Time(min)	3.998
R.Time (min)	Intensity
0.00167	0
0.00533	0
0.00900	0
0.01267	0
0.01633	-0
0.02000	-0
0.02367	-0
0.02733	-1
0.03100	-1
0.03467	-1
0.03833	-1
0.04200	-1
0.04567	-1
0.04933	-1
0.05300	-1
0.05667	-1
0.06033	-1
0.06400	-0
0.06767	0
0.07133	0
0.07500	1
0.07867	1
0.08233	1
0.08600	1
0.08967	2
0.09333	2
0.09700	2
0.10067	2
0.10433	3
0.10800	3
0.11167	3
0.11533	3
0.11900	3
0.12267	2
0.12633	2
0.13000	2
0.13367	1
0.13733	1
0.14100	1
0.14467	0
0.14833	-0
0.15200	-0
0.15567	-0
0.15933	-0
0.16300	-0
0.16667	0
0.17033	0
0.17400	1
0.17767	1
0.18133	1
0.18500	1
0.18867	1
0.19233	1
0.19600	1
0.19967	1
0.20333	2
0.20700	2
0.21067	2
0.21433	1
0.21800	1
0.22167	1
0.22533	0
0.22900	-0
0.23267	-1
0.23633	-1
0.24000	-1
0.24367	-1
0.24733	-1
0.25100	-1
0.25467	-0
0.25833	-0
0.26200	-0
0.26567	-0
0.26933	-0
0.27300	0
0.27667	0
0.28033	0
0.28400	0
0.28767	0
0.29133	-0
0.29500	-0
0.29867	-1
0.30233	-1
0.30600	-1
0.30967	-2
0.31333	-2
0.31700	-2
0.32067	-2
0.32433	-2
0.32800	-1
0.33167	-1
0.33533	-1
0.33900	-1
0.34267	-1
0.34633	-2
0.35000	-2
0.35367	-2
0.35733	-1
0.36100	-1
0.36467	-2
0.36833	-2
0.37200	-1
0.37567	-1
0.37933	-1
0.38300	-1
0.38667	-1
0.39033	-1
0.39400	-1
0.39767	-1
0.40133	-1
0.40500	-1
0.40867	-1
0.41233	-1
0.41600	-2
0.41967	-2
0.42333	-3
0.42700	-3
0.43067	-4
0.43433	-4
0.43800	-4
0.44167	-4
0.44533	-4
0.44900	-3
0.45267	-3
0.45633	-3
0.46000	-3
0.46367	-3
0.46733	-3
0.47100	-3
0.47467	-3
0.47833	-3
0.48200	-3
0.48567	-3
0.48933	-3
0.49300	-3
0.49667	-3
0.50033	-2
0.50400	-2
0.50767	-2
0.51133	-2
0.51500	-2
0.51867	-2
0.52233	-2
0.52600	-2
0.52967	-2
0.53333	-2
0.53700	-2
0.54067	-2
0.54433	-2
0.54800	-2
0.55167	-2
0.55533	-2
0.55900	-2
0.56267	-2
0.56633	-2
0.57000	-2
0.57367	-1
0.57733	-1
0.58100	-1
0.58467	-1
0.58833	-0
0.59200	-0
0.59567	-0
0.59933	-0
0.60300	-0
0.60667	-0
0.61033	-0
0.61400	-0
0.61767	-1
0.62133	-1
0.62500	-1
0.62867	-1
0.63233	-1
0.63600	-1
0.63967	-1
0.64333	-1
0.64700	-1
0.65067	-1
0.65433	-1
0.65800	-1
0.66167	-1
0.66533	-1
0.66900	-1
0.67267	-0
0.67633	-0
0.68000	-0
0.68367	-0
0.68733	-0
0.69100	-0
0.69467	-0
0.69833	-0
0.70200	-0
0.70567	-0
0.70933	-0
0.71300	-0
0.71667	0
0.72033	-0
0.72400	-1
0.72767	-1
0.73133	-1
0.73500	-1
0.73867	-2
0.74233	-2
0.74600	-2
0.74967	-2
0.75333	-2
0.75700	-3
0.76067	-3
0.76433	-3
0.76800	-3
0.77167	-3
0.77533	-3
0.77900	-2
0.78267	-2
0.78633	-2
0.79000	-2
0.79367	-1
0.79733	-1
0.80100	-0
0.80467	0
0.80833	1
0.81200	1
0.81567	1
0.81933	1
0.82300	1
0.82667	1
0.83033	0
0.83400	-0
0.83767	-1
0.84133	-1
0.84500	-1
0.84867	-2
0.85233	-2
0.85600	-2
0.85967	-3
0.86333	-4
0.86700	-4
0.87067	-4
0.87433	-4
0.87800	-4
0.88167	-5
0.88533	-5
0.88900	-5
0.89267	-5
0.89633	-5
0.90000	-5
0.90367	-5
0.90733	-5
0.91100	-5
0.91467	-5
0.91833	-5
0.92200	-5
0.92567	-5
0.92933	-5
0.93300	-5
0.93667	-5
0.94033	-5
0.94400	-4
0.94767	-4
0.95133	-4
0.95500	-4
0.95867	-4
0.96233	-4
0.96600	-4
0.96967	-3
0.97333	-3
0.97700	-3
0.98067	-3
0.98433	-3
0.98800	-2
0.99167	-2
0.99533	-2
0.99900	-2
1.00267	-2
1.00633	-2
1.01000	-2
1.01367	-2
1.01733	-2
1.02100	-2
1.02467	-2
1.02833	-2
1.03200	-2
1.03567	-2
1.03933	-2
1.04300	-2
1.04667	-2
1.05033	-3
1.05400	-3
1.05767	-3
1.06133	-3
1.06500	-3
1.06867	-3
1.07233	-3
1.07600	-3
1.07967	-3
1.08333	-2
1.08700	-2
1.09067	-2
1.09433	-1
1.09800	-1
1.10167	-1
1.10533	-1
1.10900	-1
1.11267	-1
1.11633	-1
1.12000	-2
1.12367	-2
1.12733	-2
1.13100	-3
1.13467	-3
1.13833	-4
1.14200	-4
1.14567	-4
1.14933	-4
1.15300	-4
1.15667	-4
1.16033	-3
1.16400	-3
1.16767	-3
1.17133	-3
1.17500	-2
1.17867	-2
1.18233	-2
1.18600	-2
1.18967	-2
1.19333	-2
1.19700	-2
1.20067	-1
1.20433	-1
1.20800	-1
1.21167	-1
1.21533	-0
1.21900	0
1.22267	0
1.22633	0
1.23000	0
1.23367	0
1.23733	0
1.24100	0
1.24467	0
1.24833	0
1.25200	1
1.25567	1
1.25933	1
1.26300	1
1.26667	0
1.27033	0
1.27400	-0
1.27767	-0
1.28133	-1
1.28500	-1
1.28867	-2
1.29233	-2
1.29600	-2
1.29967	-2
1.30333	-2
1.30700	-2
1.31067	-2
1.31433	-2
1.31800	-2
1.32167	-2
1.32533	-2
1.32900	-2
1.33267	-2
1.33633	-2
1.34000	-2
1.34367	-2
1.34733	-3
1.35100	-3
1.35467	-4
1.35833	-5
1.36200	-5
1.36567	-5
1.36933	-6
1.37300	-6
1.37667	-6
1.38033	-6
1.38400	-6
1.38767	-5
1.39133	-5
1.39500	-4
1.39867	-4
1.40233	-3
1.40600	-3
1.40967	-2
1.41333	-2
1.41700	-1
1.42067	-1
1.42433	-1
1.42800	-1
1.43167	-1
1.43533	-1
1.43900	-1
1.44267	-1
1.44633	-1
1.45000	-1
1.45367	-2
1.45733	-2
1.46100	-2
1.46467	-2
1.46833	-2
1.47200	-2
1.47567	-2
1.47933	-3
1.48300	-3
1.48667	-3
1.49033	-3
1.49400	-3
1.49767	-4
1.50133	-4
1.50500	-4
1.50867	-4
1.51233	-4
1.51600	-3
1.51967	-3
1.52333	-2
1.52700	-2
1.53067	-2
1.53433	-2
1.53800	-2
1.54167	-3
1.54533	-3
1.54900	-3
1.55267	-3
1.55633	-3
1.56000	-4
1.56367	-4
1.56733	-4
1.57100	-4
1.57467	-4
1.57833	-4
1.58200	-4
1.58567	-4
1.58933	-5
1.59300	-5
1.59667	-5
1.60033	-6
1.60400	-7
1.60767	-8
1.61133	-9
1.61500	-11
1.61867	-13
1.62233	-15
1.62600	-18
1.62967	-20
1.63333	-23
1.63700	-26
1.64067	-29
1.64433	-32
1.64800	-35
1.65167	-38
1.65533	-42
1.65900	-46
1.66267	-50
1.66633	-55
1.67000	-60
1.67367	-65
1.67733	-71
1.68100	-77
1.68467	-82
1.68833	-87
1.69200	-92
1.69567	-96
1.69933	-99
1.70300	-102
1.70667	-105
1.71033	-107
1.71400	-108
1.71767	-109
1.72133	-110
1.72500	-111
1.72867	-111
1.73233	-111
1.73600	-112
1.73967	-112
1.74333	-111
1.74700	-111
1.75067	-112
1.75433	-112
1.75800	-112
1.76167	-113
1.76533	-114
1.76900	-115
1.77267	-115
1.77633	-116
1.78000	-116
1.78367	-117
1.78733	-117
1.79100	-117
1.79467	-118
1.79833	-119
1.80200	-120
1.80567	-120
1.80933	-121
1.81300	-121
1.81667	-121
1.82033	-120
1.82400	-120
1.82767	-119
1.83133	-118
1.83500	-117
1.83867	-117
1.84233	-117
1.84600	-117
1.84967	-117
1.85333	-117
1.85700	-118
1.86067	-118
1.86433	-118
1.86800	-119
1.87167	-118
1.87533	-118
1.87900	-118
1.88267	-118
1.88633	-118
1.89000	-118
1.89367	-118
1.89733	-118
1.90100	-117
1.90467	-117
1.90833	-117
1.91200	-118
1.91567	-118
1.91933	-118
1.92300	-117
1.92667	-117
1.93033	-115
1.93400	-114
1.93767	-113
1.94133	-113
1.94500	-112
1.94867	-112
1.95233	-112
1.95600	-112
1.95967	-112
1.96333	-112
1.96700	-112
1.97067	-113
1.97433	-113
1.97800	-113
1.98167	-113
1.98533	-113
1.98900	-113
1.99267	-112
1.99633	-111
2.00000	-111
2.00367	-110
2.00733	-110
2.01100	-109
2.01467	-109
2.01833	-109
2.02200	-109
2.02567	-109
2.02933	-109
2.03300	-109
2.03667	-109
2.04033	-109
2.04400	-109
2.04767	-108
2.05133	-108
2.05500	-108
2.05867	-107
2.06233	-107
2.06600	-106
2.06967	-105
2.07333	-104
2.07700	-104
2.08067	-104
2.08433	-104
2.08800	-104
2.09167	-104
2.09533	-104
2.09900	-104
2.10267	-103
2.10633	-102
2.11000	-102
2.11367	-101
2.11733	-100
2.12100	-100
2.12467	-99
2.12833	-99
2.13200	-99
2.13567	-98
2.13933	-97
2.14300	-97
2.14667	-96
2.15033	-96
2.15400	-96
2.15767	-97
2.16133	-97
2.16500	-97
2.16867	-97
2.17233	-97
2.17600	-96
2.17967	-96
2.18333	-96
2.18700	-96
2.19067	-96
2.19433	-96
2.19800	-96
2.20167	-96
2.20533	-95
2.20900	-95
2.21267	-94
2.21633	-94
2.22000	-94
2.22367	-95
2.22733	-96
2.23100	-97
2.23467	-97
2.23833	-97
2.24200	-96
2.24567	-96
2.24933	-94
2.25300	-93
2.25667	-92
2.26033	-91
2.26400	-91
2.26767	-90
2.27133	-89
2.27500	-89
2.27867	-88
2.28233	-87
2.28600	-86
2.28967	-86
2.29333	-86
2.29700	-87
2.30067	-89
2.30433	-91
2.30800	-92
2.31167	-93
2.31533	-93
2.31900	-92
2.32267	-91
2.32633	-90
2.33000	-88
2.33367	-86
2.33733	-85
2.34100	-83
2.34467	-82
2.34833	-81
2.35200	-80
2.35567	-79
2.35933	-78
2.36300	-77
2.36667	-75
2.37033	-73
2.37400	-70
2.37767	-67
2.38133	-64
2.38500	-60
2.38867	-56
2.39233	-52
2.39600	-48
2.39967	-43
2.40333	-39
2.40700	-36
2.41067	-33
2.41433	-30
2.41800	-28
2.42167	-25
2.42533	-23
2.42900	-21
2.43267	-19
2.43633	-17
2.44000	-16
2.44367	-14
2.44733	-13
2.45100	-12
2.45467	-10
2.45833	-9
2.46200	-7
2.46567	-6
2.46933	-4
2.47300	-2
2.47667	-1
2.48033	-0
2.48400	1
2.48767	2
2.49133	3
2.49500	4
2.49867	5
2.50233	6
2.50600	7
2.50967	8
2.51333	8
2.51700	9
2.52067	9
2.52433	10
2.52800	11
2.53167	11
2.53533	12
2.53900	12
2.54267	13
2.54633	13
2.55000	13
2.55367	13
2.55733	14
2.56100	14
2.56467	14
2.56833	14
2.57200	14
2.57567	14
2.57933	14
2.58300	15
2.58667	15
2.59033	15
2.59400	16
2.59767	16
2.60133	17
2.60500	18
2.60867	18
2.61233	18
2.61600	18
2.61967	18
2.62333	18
2.62700	17
2.63067	17
2.63433	17
2.63800	17
2.64167	17
2.64533	17
2.64900	17
2.65267	18
2.65633	18
2.66000	18
2.66367	18
2.66733	19
2.67100	19
2.67467	19
2.67833	19
2.68200	20
2.68567	20
2.68933	20
2.69300	20
2.69667	21
2.70033	21
2.70400	21
2.70767	22
2.71133	22
2.71500	23
2.71867	24
2.72233	24
2.72600	24
2.72967	25
2.73333	24
2.73700	24
2.74067	24
2.74433	23
2.74800	23
2.75167	23
2.75533	23
2.75900	24
2.76267	24
2.76633	24
2.77000	25
2.77367	25
2.77733	25
2.78100	25
2.78467	26
2.78833	26
2.79200	26
2.79567	26
2.79933	26
2.80300	26
2.80667	26
2.81033	26
2.81400	26
2.81767	26
2.82133	25
2.82500	25
2.82867	25
2.83233	24
2.83600	23
2.83967	22
2.84333	19
2.84700	14
2.85067	8
2.85433	-3
2.85800	-16
2.86167	-34
2.86533	-55
2.86900	-81
2.87267	-111
2.87633	-145
2.88000	-183
2.88367	-225
2.88733	-270
2.89100	-318
2.89467	-367
2.89833	-419
2.90200	-472
2.90567	-525
2.90933	-579
2.91300	-633
2.91667	-686
2.92033	-739
2.92400	-791
2.92767	-842
2.93133	-895
2.93500	-952
2.93867	-1011
2.94233	-1065
2.94600	-1102
2.94967	-1114
2.95333	-1100
2.95700	-1061
2.96067	-1004
2.96433	-934
2.96800	-856
2.97167	-774
2.97533	-694
2.97900	-616
2.98267	-542
2.98633	-474
2.99000	-412
2.99367	-357
2.99733	-307
3.00100	-264
3.00467	-226
3.00833	-192
3.01200	-164
3.01567	-139
3.01933	-117
3.02300	-99
3.02667	-83
3.03033	-69
3.03400	-58
3.03767	-47
3.04133	-39
3.04500	-31
3.04867	-24
3.05233	-19
3.05600	-14
3.05967	-10
3.06333	-6
3.06700	-3
3.07067	-1
3.07433	1
3.07800	4
3.08167	5
3.08533	7
3.08900	8
3.09267	9
3.09633	10
3.10000	11
3.10367	12
3.10733	13
3.11100	13
3.11467	14
3.11833	15
3.12200	15
3.12567	15
3.12933	15
3.13300	16
3.13667	16
3.14033	16
3.14400	16
3.14767	15
3.15133	15
3.15500	15
3.15867	15
3.16233	15
3.16600	16
3.16967	16
3.17333	16
3.17700	16
3.18067	16
3.18433	17
3.18800	17
3.19167	17
3.19533	17
3.19900	17
3.20267	17
3.20633	18
3.21000	18
3.21367	18
3.21733	19
3.22100	19
3.22467	19
3.22833	19
3.23200	19
3.23567	20
3.23933	20
3.24300	21
3.24667	21
3.25033	22
3.25400	23
3.25767	23
3.26133	24
3.26500	24
3.26867	25
3.27233	25
3.27600	25
3.27967	25
3.28333	25
3.28700	25
3.29067	25
3.29433	25
3.29800	25
3.30167	25
3.30533	25
3.30900	26
3.31267	26
3.31633	26
3.32000	26
3.32367	26
3.32733	26
3.33100	26
3.33467	26
3.33833	26
3.34200	26
3.34567	26
3.34933	26
3.35300	25
3.35667	25
3.36033	25
3.36400	25
3.36767	25
3.37133	25
3.37500	24
3.37867	25
3.38233	25
3.38600	25
3.38967	25
3.39333	25
3.39700	25
3.40067	25
3.40433	25
3.40800	26
3.41167	26
3.41533	26
3.41900	26
3.42267	27
3.42633	27
3.43000	27
3.43367	27
3.43733	27
3.44100	27
3.44467	27
3.44833	27
3.45200	27
3.45567	27
3.45933	27
3.46300	27
3.46667	27
3.47033	27
3.47400	26
3.47767	26
3.48133	26
3.48500	26
3.48867	26
3.49233	26
3.49600	26
3.49967	26
3.50333	26
3.50700	26
3.51067	26
3.51433	26
3.51800	26
3.52167	25
3.52533	25
3.52900	25
3.53267	25
3.53633	25
3.54000	25
3.54367	25
3.54733	25
3.55100	25
3.55467	25
3.55833	26
3.56200	26
3.56567	26
3.56933	25
3.57300	25
3.57667	25
3.58033	25
3.58400	26
3.58767	26
3.59133	26
3.59500	26
3.59867	26
3.60233	26
3.60600	26
3.60967	26
3.61333	26
3.61700	25
3.62067	25
3.62433	25
3.62800	25
3.63167	25
3.63533	25
3.63900	25
3.64267	25
3.64633	25
3.65000	25
3.65367	25
3.65733	25
3.66100	25
3.66467	25
3.66833	25
3.67200	25
3.67567	25
3.67933	25
3.68300	25
3.68667	25
3.69033	25
3.69400	24
3.69767	24
3.70133	24
3.70500	24
3.70867	24
3.71233	24
3.71600	24
3.71967	25
3.72333	25
3.72700	25
3.73067	25
3.73433	25
3.73800	25
3.74167	25
3.74533	25
3.74900	25
3.75267	25
3.75633	25
3.76000	25
3.76367	25
3.76733	25
3.77100	25
3.77467	25
3.77833	25
3.78200	25
3.78567	25
3.78933	25
3.79300	25
3.79667	25
3.80033	25
3.80400	25
3.80767	25
3.81133	25
3.81500	25
3.81867	25
3.82233	24
3.82600	24
3.82967	24
3.83333	24
3.83700	24
3.84067	24
3.84433	24
3.84800	24
3.85167	24
3.85533	24
3.85900	24
3.86267	24
3.86633	24
3.87000	24
3.87367	25
3.87733	25
3.88100	24
3.88467	24
3.88833	24
3.89200	24
3.89567	24
3.89933	24
3.90300	24
3.90667	25
3.91033	25
3.91400	25
3.91767	25
3.92133	25
3.92500	25
3.92867	25
3.93233	26
3.93600	26
3.93967	26
3.94333	27
3.94700	27
3.95067	27
3.95433	27
3.95800	27
3.96167	27
3.96533	27
3.96900	28
3.97267	27
3.97633	27
3.98000	27
3.98367	27
3.98733	27
3.99100	27
3.99467	26
3.99833	26

[Chromatogram (Ch3)]
Interval(msec)	220
# of Points	1091
Start Time(min)	0.002
End Time(min)	3.998
R.Time (min)	Intensity
0.00167	0
0.00533	1
0.00900	2
0.01267	1
0.01633	1
0.02000	2
0.02367	3
0.02733	3
0.03100	2
0.03467	2
0.03833	2
0.04200	0
0.04567	-1
0.04933	-2
0.05300	-3
0.05667	-3
0.06033	-3
0.06400	-5
0.06767	-7
0.07133	-9
0.07500	-8
0.07867	-7
0.08233	-9
0.08600	-8
0.08967	-5
0.09333	-3
0.09700	-3
0.10067	-3
0.10433	-4
0.10800	-4
0.11167	-6
0.11533	-7
0.11900	-6
0.12267	-4
0.12633	-1
0.13000	-0
0.13367	-1
0.13733	-4
0.14100	-6
0.14467	-8
0.14833	-9
0.15200	-10
0.15567	-8
0.15933	-6
0.16300	-4
0.16667	-1
0.17033	-1
0.17400	-1
0.17767	-3
0.18133	-5
0.18500	-6
0.18867	-7
0.19233	-6
0.19600	-6
0.19967	-5
0.20333	-4
0.20700	-4
0.21067	-3
0.21433	-1
0.21800	-1
0.22167	-3
0.22533	-5
0.22900	-3
0.23267	-2
0.23633	-3
0.24000	-7
0.24367	-8
0.24733	-8
0.25100	-8
0.25467	-9
0.25833	-10
0.26200	-10
0.26567	-9
0.26933	-7
0.27300	-6
0.27667	-4
0.28033	-3
0.28400	-0
0.28767	1
0.29133	0
0.29500	-0
0.29867	-2
0.30233	-5
0.30600	-5
0.30967	-7
0.31333	-9
0.31700	-9
0.32067	-6
0.32433	-3
0.32800	-4
0.33167	-6
0.33533	-5
0.33900	-4
0.34267	-4
0.34633	-3
0.35000	-3
0.35367	-3
0.35733	-5
0.36100	-6
0.36467	-5
0.36833	-4
0.37200	-2
0.37567	-3
0.37933	-3
0.38300	-2
0.38667	0
0.39033	0
0.39400	-1
0.39767	-1
0.40133	-2
0.40500	-2
0.40867	-2
0.41233	-2
0.41600	-4
0.41967	-5
0.42333	-5
0.42700	-5
0.43067	-5
0.43433	-5
0.43800	-3
0.44167	-1
0.44533	1
0.44900	2
0.45267	1
0.45633	-1
0.46000	-3
0.46367	-5
0.46733	-5
0.47100	-5
0.47467	-4
0.47833	-3
0.48200	-3
0.48567	-3
0.48933	-3
0.49300	-3
0.49667	-4
0.50033	-5
0.50400	-5
0.50767	-2
0.51133	2
0.51500	4
0.51867	1
0.52233	-0
0.52600	-1
0.52967	-2
0.53333	-3
0.53700	-2
0.54067	-1
0.54433	0
0.54800	3
0.55167	4
0.55533	4
0.55900	3
0.56267	5
0.56633	6
0.57000	3
0.57367	2
0.57733	4
0.58100	6
0.58467	6
0.58833	6
0.59200	4
0.59567	2
0.59933	2
0.60300	2
0.60667	1
0.61033	-0
0.61400	-1
0.61767	1
0.62133	1
0.62500	2
0.62867	5
0.63233	6
0.63600	7
0.63967	6
0.64333	4
0.64700	3
0.65067	4
0.65433	6
0.65800	10
0.66167	12
0.66533	11
0.66900	7
0.67267	5
0.67633	2
0.68000	1
0.68367	3
0.68733	5
0.69100	7
0.69467	8
0.69833	7
0.70200	5
0.70567	5
0.70933	6
0.71300	6
0.71667	6
0.72033	6
0.72400	6
0.72767	5
0.73133	4
0.73500	2
0.73867	2
0.74233	2
0.74600	2
0.74967	2
0.75333	4
0.75700	3
0.76067	3
0.76433	4
0.76800	4
0.77167	8
0.77533	8
0.77900	8
0.78267	5
0.78633	3
0.79000	3
0.79367	3
0.79733	4
0.80100	4
0.80467	5
0.80833	7
0.81200	10
0.81567	10
0.81933	10
0.82300	9
0.82667	12
0.83033	12
0.83400	10
0.83767	9
0.84133	10
0.84500	9
0.84867	11
0.85233	12
0.85600	11
0.85967	10
0.86333	13
0.86700	14
0.87067	13
0.87433	10
0.87800	10
0.88167	11
0.88533	12
0.88900	13
0.89267	14
0.89633	10
0.90000	7
0.90367	6
0.90733	6
0.91100	6
0.91467	6
0.91833	7
0.92200	7
0.92567	8
0.92933	8
0.93300	8
0.93667	9
0.94033	11
0.94400	12
0.94767	13
0.95133	16
0.95500	15
0.95867	15
0.96233	13
0.96600	12
0.96967	13
0.97333	15
0.97700	17
0.98067	16
0.98433	17
0.98800	17
0.99167	16
0.99533	13
0.99900	13
1.00267	12
1.00633	12
1.01000	13
1.01367	13
1.01733	13
1.02100	13
1.02467	13
1.02833	12
1.03200	11
1.03567	11
1.03933	10
1.04300	8
1.04667	9
1.05033	12
1.05400	11
1.05767	10
1.06133	11
1.06500	13
1.06867	15
1.07233	16
1.07600	16
1.07967	15
1.08333	14
1.08700	14
1.09067	15
1.09433	16
1.09800	16
1.10167	16
1.10533	14
1.10900	13
1.11267	12
1.11633	13
1.12000	14
1.12367	16
1.12733	16
1.13100	15
1.13467	16
1.13833	16
1.14200	13
1.14567	13
1.14933	14
1.15300	15
1.15667	15
1.16033	16
1.16400	18
1.16767	21
1.17133	24
1.17500	24
1.17867	22
1.18233	19
1.18600	18
1.18967	18
1.19333	20
1.19700	22
1.20067	21
1.20433	19
1.20800	17
1.21167	13
1.21533	12
1.21900	9
1.22267	10
1.22633	14
1.23000	17
1.23367	20
1.23733	20
1.24100	19
1.24467	17
1.24833	17
1.25200	17
1.25567	18
1.25933	20
1.26300	21
1.26667	20
1.27033	20
1.27400	20
1.27767	22
1.28133	22
1.28500	19
1.28867	15
1.29233	14
1.29600	14
1.29967	14
1.30333	13
1.30700	13
1.31067	13
1.31433	13
1.31800	14
1.32167	15
1.32533	17
1.32900	19
1.33267	21
1.33633	19
1.34000	16
1.34367	16
1.34733	16
1.35100	17
1.35467	16
1.35833	14
1.36200	13
1.36567	15
1.36933	18
1.37300	19
1.37667	19
1.38033	18
1.38400	16
1.38767	16
1.39133	16
1.39500	16
1.39867	15
1.40233	13
1.40600	13
1.40967	15
1.41333	16
1.41700	16
1.42067	17
1.42433	15
1.42800	13
1.43167	13
1.43533	16
1.43900	17
1.44267	15
1.44633	12
1.45000	12
1.45367	14
1.45733	15
1.46100	16
1.46467	14
1.46833	13
1.47200	14
1.47567	15
1.47933	14
1.48300	15
1.48667	15
1.49033	15
1.49400	16
1.49767	17
1.50133	17
1.50500	17
1.50867	16
1.51233	16
1.51600	16
1.51967	17
1.52333	18
1.52700	18
1.53067	16
1.53433	16
1.53800	15
1.54167	16
1.54533	16
1.54900	16
1.55267	15
1.55633	14
1.56000	14
1.56367	17
1.56733	20
1.57100	23
1.57467	24
1.57833	24
1.58200	23
1.58567	22
1.58933	22
1.59300	21
1.59667	20
1.60033	18
1.60400	19
1.60767	20
1.61133	20
1.61500	20
1.61867	19
1.62233	18
1.62600	20
1.62967	20
1.63333	18
1.63700	17
1.64067	17
1.64433	17
1.64800	18
1.65167	19
1.65533	22
1.65900	24
1.66267	26
1.66633	25
1.67000	24
1.67367	22
1.67733	23
1.68100	24
1.68467	26
1.68833	29
1.69200	30
1.69567	29
1.69933	31
1.70300	32
1.70667	31
1.71033	31
1.71400	32
1.71767	31
1.72133	29
1.72500	30
1.72867	31
1.73233	30
1.73600	30
1.73967	30
1.74333	30
1.74700	30
1.75067	30
1.75433	30
1.75800	31
1.76167	33
1.76533	34
1.76900	33
1.77267	33
1.77633	34
1.78000	35
1.78367	37
1.78733	39
1.79100	41
1.79467	41
1.79833	42
1.80200	44
1.80567	47
1.80933	47
1.81300	45
1.81667	43
1.82033	40
1.82400	39
1.82767	39
1.83133	39
1.83500	41
1.83867	43
1.84233	44
1.84600	45
1.84967	46
1.85333	47
1.85700	48
1.86067	50
1.86433	51
1.86800	51
1.87167	51
1.87533	51
1.87900	51
1.88267	51
1.88633	51
1.89000	52
1.89367	53
1.89733	54
1.90100	54
1.90467	55
1.90833	56
1.91200	58
1.91567	59
1.91933	58
1.92300	58
1.92667	61
1.93033	63
1.93400	64
1.93767	63
1.94133	62
1.94500	61
1.94867	61
1.95233	62
1.95600	63
1.95967	61
1.96333	61
1.96700	61
1.97067	61
1.97433	60
1.97800	60
1.98167	60
1.98533	61
1.98900	61
1.99267	59
1.99633	62
2.00000	66
2.00367	68
2.00733	70
2.01100	69
2.01467	67
2.01833	65
2.02200	66
2.02567	66
2.02933	68
2.03300	70
2.03667	73
2.04033	74
2.04400	73
2.04767	73
2.05133	74
2.05500	73
2.05867	73
2.06233	74
2.06600	75
2.06967	76
2.07333	75
2.07700	76
2.08067	77
2.08433	78
2.08800	78
2.09167	78
2.09533	77
2.09900	76
2.10267	79
2.10633	82
2.11000	83
2.11367	82
2.11733	82
2.12100	85
2.12467	89
2.12833	91
2.13200	91
2.13567	90
2.13933	91
2.14300	93
2.14667	93
2.15033	93
2.15400	93
2.15767	93
2.16133	94
2.16500	95
2.16867	95
2.17233	95
2.17600	97
2.17967	98
2.18333	98
2.18700	101
2.19067	102
2.19433	103
2.19800	105
2.20167	107
2.20533	109
2.20900	112
2.21267	114
2.21633	115
2.22000	115
2.22367	115
2.22733	115
2.23100	118
2.23467	120
2.23833	122
2.24200	125
2.24567	128
2.24933	127
2.25300	125
2.25667	125
2.26033	124
2.26400	123
2.26767	125
2.27133	127
2.27500	131
2.27867	135
2.28233	136
2.28600	138
2.28967	139
2.29333	140
2.29700	142
2.30067	142
2.30433	145
2.30800	146
2.31167	147
2.31533	147
2.31900	148
2.32267	148
2.32633	146
2.33000	144
2.33367	143
2.33733	145
2.34100	147
2.34467	149
2.34833	151
2.35200	153
2.35567	155
2.35933	157
2.36300	160
2.36667	163
2.37033	166
2.37400	168
2.37767	166
2.38133	167
2.38500	168
2.38867	167
2.39233	167
2.39600	170
2.39967	175
2.40333	179
2.40700	181
2.41067	182
2.41433	184
2.41800	183
2.42167	182
2.42533	181
2.42900	183
2.43267	186
2.43633	188
2.44000	190
2.44367	214
2.44733	281
2.45100	353
2.45467	412
2.45833	452
2.46200	463
2.46567	452
2.46933	433
2.47300	416
2.47667	401
2.48033	390
2.48400	384
2.48767	377
2.49133	365
2.49500	352
2.49867	337
2.50233	322
2.50600	311
2.50967	302
2.51333	297
2.51700	293
2.52067	289
2.52433	286
2.52800	287
2.53167	292
2.53533	299
2.53900	305
2.54267	311
2.54633	314
2.55000	314
2.55367	310
2.55733	306
2.56100	301
2.56467	296
2.56833	290
2.57200	283
2.57567	276
2.57933	272
2.58300	268
2.58667	263
2.59033	259
2.59400	254
2.59767	247
2.60133	237
2.60500	223
2.60867	207
2.61233	188
2.61600	167
2.61967	147
2.62333	129
2.62700	112
2.63067	98
2.63433	88
2.63800	82
2.64167	79
2.64533	80
2.64900	83
2.65267	88
2.65633	95
2.66000	103
2.66367	113
2.66733	123
2.67100	132
2.67467	143
2.67833	152
2.68200	161
2.68567	168
2.68933	175
2.69300	182
2.69667	187
2.70033	191
2.70400	194
2.70767	195
2.71133	197
2.71500	198
2.71867	199
2.72233	201
2.72600	202
2.72967	200
2.73333	198
2.73700	197
2.74067	199
2.74433	200
2.74800	201
2.75167	201
2.75533	199
2.75900	198
2.76267	197
2.76633	198
2.77000	200
2.77367	200
2.77733	202
2.78100	202
2.78467	201
2.78833	201
2.79200	202
2.79567	202
2.79933	200
2.80300	200
2.80667	200
2.81033	202
2.81400	208
2.81767	216
2.82133	234
2.82500	271
2.82867	342
2.83233	469
2.83600	678
2.83967	984
2.84333	1392
2.84700	1895
2.85067	2467
2.85433	3068
2.85800	3647
2.86167	4156
2.86533	4559
2.86900	4827
2.87267	4950
2.87633	4932
2.88000	4793
2.88367	4560
2.88733	4264
2.89100	3928
2.89467	3577
2.89833	3230
2.90200	2894
2.90567	2579
2.90933	2291
2.91300	2030
2.91667	1795
2.92033	1584
2.92400	1398
2.92767	1236
2.93133	1095
2.93500	974
2.93867	868
2.94233	776
2.94600	696
2.94967	629
2.95333	569
2.95700	518
2.96067	474
2.96433	434
2.96800	400
2.97167	370
2.97533	344
2.97900	325
2.98267	308
2.98633	293
2.99000	279
2.99367	267
2.99733	260
3.00100	254
3.00467	249
3.00833	243
3.01200	238
3.01567	232
3.01933	227
3.02300	223
3.02667	218
3.03033	212
3.03400	210
3.03767	208
3.04133	205
3.04500	203
3.04867	200
3.05233	196
3.05600	193
3.05967	192
3.06333	191
3.06700	189
3.07067	186
3.07433	184
3.07800	184
3.08167	182
3.08533	179
3.08900	177
3.09267	175
3.09633	172
3.10000	169
3.10367	166
3.10733	163
3.11100	162
3.11467	164
3.11833	164
3.12200	164
3.12567	160
3.12933	157
3.13300	156
3.13667	155
3.14033	155
3.14400	158
3.14767	161
3.15133	158
3.15500	156
3.15867	155
3.16233	156
3.16600	156
3.16967	155
3.17333	157
3.17700	157
3.18067	156
3.18433	154
3.18800	153
3.19167	150
3.19533	148
3.19900	148
3.20267	149
3.20633	151
3.21000	153
3.21367	156
3.21733	156
3.22100	155
3.22467	156
3.22833	156
3.23200	157
3.23567	158
3.23933	159
3.24300	160
3.24667	159
3.25033	157
3.25400	156
3.25767	154
3.26133	151
3.26500	149
3.26867	148
3.27233	148
3.27600	148
3.27967	146
3.28333	144
3.28700	144
3.29067	145
3.29433	146
3.29800	146
3.30167	142
3.30533	143
3.30900	144
3.31267	145
3.31633	145
3.32000	144
3.32367	143
3.32733	143
3.33100	142
3.33467	143
3.33833	142
3.34200	141
3.34567	144
3.34933	146
3.35300	145
3.35667	145
3.36033	143
3.36400	141
3.36767	140
3.37133	140
3.37500	140
3.37867	139
3.38233	137
3.38600	136
3.38967	136
3.39333	138
3.39700	137
3.40067	136
3.40433	135
3.40800	133
3.41167	132
3.41533	130
3.41900	129
3.42267	129
3.42633	129
3.43000	130
3.43367	129
3.43733	126
3.44100	124
3.44467	122
3.44833	119
3.45200	117
3.45567	116
3.45933	117
3.46300	120
3.46667	120
3.47033	123
3.47400	122
3.47767	121
3.48133	121
3.48500	124
3.48867	127
3.49233	127
3.49600	124
3.49967	120
3.50333	119
3.50700	121
3.51067	123
3.51433	125
3.51800	125
3.52167	125
3.52533	125
3.52900	124
3.53267	124
3.53633	123
3.54000	123
3.54367	125
3.54733	126
3.55100	126
3.55467	125
3.55833	125
3.56200	123
3.56567	121
3.56933	120
3.57300	119
3.57667	119
3.58033	119
3.58400	120
3.58767	119
3.59133	120
3.59500	122
3.59867	124
3.60233	122
3.60600	122
3.60967	122
3.61333	120
3.61700	120
3.62067	120
3.62433	119
3.62800	119
3.63167	122
3.63533	126
3.63900	127
3.64267	127
3.64633	126
3.65000	126
3.65367	129
3.65733	132
3.66100	132
3.66467	130
3.66833	129
3.67200	129
3.67567	130
3.67933	128
3.68300	123
3.68667	114
3.69033	104
3.69400	93
3.69767	88
3.70133	85
3.70500	86
3.70867	93
3.71233	103
3.71600	116
3.71967	127
3.72333	140
3.72700	154
3.73067	168
3.73433	183
3.73800	198
3.74167	210
3.74533	221
3.74900	232
3.75267	246
3.75633	259
3.76000	271
3.76367	281
3.76733	291
3.77100	299
3.77467	305
3.77833	313
3.78200	322
3.78567	330
3.78933	338
3.79300	344
3.79667	349
3.80033	354
3.80400	358
3.80767	359
3.81133	364
3.81500	368
3.81867	370
3.82233	372
3.82600	374
3.82967	374
3.83333	375
3.83700	378
3.84067	379
3.84433	381
3.84800	381
3.85167	378
3.85533	374
3.85900	370
3.86267	367
3.86633	366
3.87000	364
3.87367	364
3.87733	365
3.88100	363
3.88467	361
3.88833	360
3.89200	359
3.89567	359
3.89933	358
3.90300	357
3.90667	355
3.91033	356
3.91400	357
3.91767	355
3.92133	352
3.92500	350
3.92867	350
3.93233	349
3.93600	348
3.93967	347
3.94333	345
3.94700	346
3.95067	345
3.95433	343
3.95800	342
3.96167	341
3.96533	344
3.96900	347
3.97267	347
3.97633	347
3.98000	346
3.98367	346
3.98733	347
3.99100	346
3.99467	343
3.99833	339

[Status Trace (Column Oven Temperature)]
Interval(msec)	1000
# of Points	240
Start Time(min)	0.010
End Time(min)	3.994
Intensity Units	
Intensity Multiplier	1
R.Time (min)	Intensity
0.01045	35.06
0.02712	35.05
0.04378	35.05
0.06045	35.04
0.07712	35.03
0.09378	35.01
0.11045	35.01
0.12712	35.01
0.14378	35.02
0.16045	35.00
0.17712	34.99
0.19378	34.98
0.21045	34.99
0.22712	35.00
0.24378	35.00
0.26045	34.99
0.27712	34.98
0.29378	34.98
0.31045	34.99
0.32712	34.99
0.34378	34.98
0.36045	34.98
0.37712	34.98
0.39378	34.98
0.41045	34.99
0.42712	35.00
0.44378	35.01
0.46045	35.00
0.47712	35.00
0.49378	35.01
0.51045	35.01
0.52712	35.01
0.54378	35.00
0.56045	35.00
0.57712	35.00
0.59378	34.99
0.61045	34.98
0.62712	34.98
0.64378	34.98
0.66045	34.97
0.67712	34.97
0.69378	34.96
0.71045	34.96
0.72712	34.96
0.74378	34.99
0.76045	34.98
0.77712	34.98
0.79378	34.97
0.81045	34.97
0.82712	34.96
0.84378	34.98
0.86045	34.99
0.87712	35.00
0.89378	35.01
0.91045	35.02
0.92712	35.02
0.94378	35.02
0.96045	35.02
0.97712	35.02
0.99378	35.02
1.01045	35.01
1.02712	35.02
1.04378	35.03
1.06045	35.02
1.07712	35.03
1.09378	35.02
1.11045	35.01
1.12712	35.02
1.14378	35.03
1.16045	35.03
1.17712	35.02
1.19378	35.01
1.21045	34.99
1.22712	34.99
1.24378	34.98
1.26045	34.98
1.27712	34.98
1.29378	34.99
1.31045	34.97
1.32712	34.98
1.34378	34.99
1.36045	35.01
1.37712	35.01
1.39378	35.01
1.41045	34.99
1.42712	34.98
1.44378	34.99
1.46045	34.99
1.47712	34.99
1.49378	35.00
1.51045	35.00
1.52712	35.00
1.54378	35.00
1.56045	35.01
1.57712	35.01
1.59378	35.03
1.61045	35.09
1.62712	35.21
1.64378	35.38
1.66045	35.64
1.67712	36.00
1.69378	36.37
1.71045	36.73
1.72712	37.07
1.74378	37.39
1.76045	37.72
1.77712	38.05
1.79378	38.40
1.81045	38.74
1.82712	39.04
1.84378	39.37
1.86045	39.71
1.87712	40.04
1.89378	40.37
1.91045	40.71
1.92712	41.02
1.94378	41.35
1.96045	41.67
1.97712	41.99
1.99378	42.32
2.01045	42.63
2.02712	42.96
2.04378	43.29
2.06045	43.60
2.07712	43.91
2.09378	44.26
2.11045	44.55
2.12712	44.89
2.14378	45.20
2.16045	45.54
2.17712	45.87
2.19378	46.21
2.21045	46.52
2.22712	46.90
2.24378	47.21
2.26045	47.54
2.27712	47.85
2.29378	48.22
2.31045	48.60
2.32712	48.92
2.34378	49.23
2.36045	49.50
2.37712	49.67
2.39378	49.71
2.41045	49.71
2.42712	49.71
2.44378	49.73
2.46045	49.74
2.47712	49.75
2.49378	49.76
2.51045	49.79
2.52712	49.80
2.54378	49.81
2.56045	49.81
2.57712	49.82
2.59378	49.80
2.61045	49.81
2.62712	49.84
2.64378	49.84
2.66045	49.85
2.67712	49.86
2.69378	49.86
2.71045	49.84
2.72712	49.85
2.74378	49.86
2.76045	49.86
2.77712	49.86
2.79378	49.85
2.81045	49.86
2.82712	49.89
2.84378	49.91
2.86045	49.93
2.87712	49.95
2.89378	49.96
2.91045	49.97
2.92712	49.98
2.94378	49.97
2.96045	49.96
2.97712	49.96
2.99378	49.97
3.01045	49.98
3.02712	50.01
3.04378	50.01
3.06045	50.00
3.07712	49.99
3.09378	50.01
3.11045	50.01
3.12712	50.02
3.14378	50.03
3.16045	50.05
3.17712	50.07
3.19378	50.09
3.21045	50.10
3.22712	50.11
3.24378	50.10
3.26045	50.09
3.27712	50.09
3.29378	50.08
3.31045	50.07
3.32712	50.07
3.34378	50.07
3.36045	50.08
3.37712	50.08
3.39378	50.07
3.41045	50.07
3.42712	50.06
3.44378	50.05
3.46045	50.05
3.47712	50.04
3.49378	50.04
3.51045	50.04
3.52712	50.04
3.54378	50.04
3.56045	50.04
3.57712	50.04
3.59378	50.04
3.61045	50.04
3.62712	50.04
3.64378	50.04
3.66045	50.05
3.67712	50.05
3.69378	50.06
3.71045	50.07
3.72712	50.07
3.74378	50.07
3.76045	50.08
3.77712	50.08
3.79378	50.08
3.81045	50.08
3.82712	50.08
3.84378	50.09
3.86045	50.09
3.87712	50.10
3.89378	50.10
3.91045	50.10
3.92712	50.09
3.94378	50.08
3.96045	50.07
3.97712	50.07
3.99378	50.07

[Status Trace (Injection Unit Temperature)]
Interval(msec)	1000
# of Points	240
Start Time(min)	0.010
End Time(min)	3.994
Intensity Units	
Intensity Multiplier	1
R.Time (min)	Intensity
0.01045	99.98
0.02712	99.97
0.04378	99.98
0.06045	99.98
0.07712	99.97
0.09378	99.98
0.11045	99.98
0.12712	99.98
0.14378	99.98
0.16045	99.98
0.17712	99.98
0.19378	99.98
0.21045	99.98
0.22712	99.98
0.24378	99.98
0.26045	99.98
0.27712	99.98
0.29378	99.98
0.31045	99.98
0.32712	99.98
0.34378	99.98
0.36045	99.98
0.37712	99.98
0.39378	99.98
0.41045	99.98
0.42712	99.98
0.44378	99.98
0.46045	99.98
0.47712	99.98
0.49378	99.98
0.51045	99.98
0.52712	99.98
0.54378	99.98
0.56045	99.98
0.57712	99.99
0.59378	99.98
0.61045	99.98
0.62712	99.98
0.64378	99.98
0.66045	99.98
0.67712	99.98
0.69378	99.98
0.71045	99.98
0.72712	99.98
0.74378	99.98
0.76045	99.98
0.77712	99.98
0.79378	99.98
0.81045	99.98
0.82712	99.98
0.84378	99.98
0.86045	99.98
0.87712	99.98
0.89378	99.98
0.91045	99.98
0.92712	99.98
0.94378	99.98
0.96045	99.98
0.97712	99.98
0.99378	99.98
1.01045	99.98
1.02712	99.98
1.04378	99.98
1.06045	99.98
1.07712	99.98
1.09378	99.98
1.11045	99.98
1.12712	99.98
1.14378	99.98
1.16045	99.98
1.17712	99.98
1.19378	99.98
1.21045	99.98
1.22712	99.98
1.24378	99.98
1.26045	99.98
1.27712	99.98
1.29378	99.98
1.31045	99.98
1.32712	99.98
1.34378	99.98
1.36045	99.98
1.37712	99.98
1.39378	99.98
1.41045	99.98
1.42712	99.98
1.44378	99.98
1.46045	99.99
1.47712	99.98
1.49378	99.98
1.51045	99.98
1.52712	99.98
1.54378	99.98
1.56045	99.99
1.57712	99.99
1.59378	99.98
1.61045	99.99
1.62712	99.99
1.64378	99.98
1.66045	99.98
1.67712	99.98
1.69378	99.99
1.71045	99.99
1.72712	99.98
1.74378	99.99
1.76045	99.98
1.77712	99.98
1.79378	99.99
1.81045	99.99
1.82712	99.98
1.84378	99.99
1.86045	99.98
1.87712	99.98
1.89378	99.98
1.91045	99.98
1.92712	99.98
1.94378	99.98
1.96045	99.98
1.97712	99.98
1.99378	99.98
2.01045	99.97
2.02712	99.97
2.04378	99.98
2.06045	99.97
2.07712	99.97
2.09378	99.97
2.11045	99.97
2.12712	99.97
2.14378	99.97
2.16045	99.97
2.17712	99.97
2.19378	99.97
2.21045	99.96
2.22712	99.96
2.24378	99.96
2.26045	99.96
2.27712	99.96
2.29378	99.96
2.31045	99.96
2.32712	99.96
2.34378	99.96
2.36045	99.97
2.37712	99.96
2.39378	99.96
2.41045	99.97
2.42712	99.96
2.44378	99.96
2.46045	99.97
2.47712	99.96
2.49378	99.96
2.51045	99.97
2.52712	99.97
2.54378	99.97
2.56045	99.96
2.57712	99.97
2.59378	99.96
2.61045	99.97
2.62712	99.97
2.64378	99.97
2.66045	99.98
2.67712	99.97
2.69378	99.98
2.71045	99.98
2.72712	99.98
2.74378	99.98
2.76045	99.99
2.77712	99.99
2.79378	99.99
2.81045	99.99
2.82712	100.00
2.84378	99.99
2.86045	99.99
2.87712	100.00
2.89378	100.00
2.91045	100.00
2.92712	100.00
2.94378	100.01
2.96045	100.01
2.97712	100.01
2.99378	100.00
3.01045	100.01
3.02712	100.02
3.04378	100.02
3.06045	100.02
3.07712	100.02
3.09378	100.02
3.11045	100.02
3.12712	100.02
3.14378	100.02
3.16045	100.02
3.17712	100.02
3.19378	100.03
3.21045	100.02
3.22712	100.03
3.24378	100.03
3.26045	100.02
3.27712	100.02
3.29378	100.03
3.31045	100.03
3.32712	100.03
3.34378	100.03
3.36045	100.02
3.37712	100.03
3.39378	100.03
3.41045	100.03
3.42712	100.03
3.44378	100.03
3.46045	100.03
3.47712	100.03
3.49378	100.04
3.51045	100.03
3.52712	100.03
3.54378	100.04
3.56045	100.04
3.57712	100.03
3.59378	100.04
3.61045	100.04
3.62712	100.04
3.64378	100.04
3.66045	100.03
3.67712	100.04
3.69378	100.04
3.71045	100.04
3.72712	100.04
3.74378	100.04
3.76045	100.03
3.77712	100.04
3.79378	100.04
3.81045	100.04
3.82712	100.04
3.84378	100.04
3.86045	100.04
3.87712	100.04
3.89378	100.04
3.91045	100.04
3.92712	100.04
3.94378	100.04
3.96045	100.05
3.97712	100.04
3.99378	100.04

[Status Trace (Carrier Gas Pressure)]
Interval(msec)	1000
# of Points	240
Start Time(min)	0.010
End Time(min)	3.994
Intensity Units	
Intensity Multiplier	1
R.Time (min)	Intensity
0.01045	58.00
0.02712	55.05
0.04378	57.41
0.06045	59.53
0.07712	59.09
0.09378	58.02
0.11045	57.99
0.12712	58.01
0.14378	58.01
0.16045	58.00
0.17712	58.00
0.19378	58.00
0.21045	58.00
0.22712	58.00
0.24378	58.00
0.26045	58.00
0.27712	58.00
0.29378	58.00
0.31045	58.00
0.32712	58.00
0.34378	58.00
0.36045	58.00
0.37712	58.00
0.39378	58.00
0.41045	58.00
0.42712	58.00
0.44378	58.00
0.46045	58.00
0.47712	58.00
0.49378	58.00
0.51045	58.00
0.52712	58.00
0.54378	58.00
0.56045	58.00
0.57712	58.00
0.59378	58.00
0.61045	58.00
0.62712	58.00
0.64378	58.00
0.66045	58.00
0.67712	58.00
0.69378	58.00
0.71045	58.00
0.72712	58.00
0.74378	58.00
0.76045	58.00
0.77712	58.00
0.79378	58.00
0.81045	58.00
0.82712	58.00
0.84378	58.00
0.86045	58.00
0.87712	58.00
0.89378	58.00
0.91045	58.00
0.92712	58.00
0.94378	58.00
0.96045	58.00
0.97712	58.00
0.99378	58.00
1.01045	58.00
1.02712	58.00
1.04378	58.00
1.06045	58.00
1.07712	58.00
1.09378	58.00
1.11045	58.00
1.12712	58.00
1.14378	58.00
1.16045	58.00
1.17712	58.00
1.19378	58.00
1.21045	58.00
1.22712	58.00
1.24378	58.00
1.26045	58.00
1.27712	58.00
1.29378	58.00
1.31045	58.00
1.32712	58.00
1.34378	58.00
1.36045	58.00
1.37712	58.00
1.39378	58.00
1.41045	58.00
1.42712	58.00
1.44378	58.00
1.46045	58.00
1.47712	58.00
1.49378	58.00
1.51045	58.00
1.52712	58.00
1.54378	58.00
1.56045	58.00
1.57712	58.00
1.59378	58.00
1.61045	58.00
1.62712	58.00
1.64378	58.00
1.66045	58.01
1.67712	58.01
1.69378	58.00
1.71045	58.00
1.72712	58.00
1.74378	58.00
1.76045	58.00
1.77712	58.00
1.79378	58.00
1.81045	58.00
1.82712	58.00
1.84378	58.00
1.86045	58.00
1.87712	58.00
1.89378	58.00
1.91045	58.00
1.92712	58.00
1.94378	58.00
1.96045	58.00
1.97712	58.00
1.99378	58.00
2.01045	58.00
2.02712	58.00
2.04378	58.00
2.06045	58.00
2.07712	58.00
2.09378	58.00
2.11045	58.00
2.12712	58.00
2.14378	58.00
2.16045	58.00
2.17712	58.00
2.19378	58.00
2.21045	58.00
2.22712	58.00
2.24378	58.00
2.26045	58.00
2.27712	58.00
2.29378	58.00
2.31045	58.00
2.32712	58.00
2.34378	58.00
2.36045	58.00
2.37712	57.99
2.39378	57.99
2.41045	57.99
2.42712	58.00
2.44378	58.00
2.46045	58.00
2.47712	58.00
2.49378	58.00
2.51045	58.00
2.52712	57.98
2.54378	58.00
2.56045	58.00
2.57712	58.00
2.59378	58.00
2.61045	58.00
2.62712	58.00
2.64378	58.00
2.66045	58.00
2.67712	58.00
2.69378	58.00
2.71045	58.00
2.72712	58.00
2.74378	58.00
2.76045	58.00
2.77712	58.00
2.79378	58.00
2.81045	58.00
2.82712	58.00
2.84378	58.00
2.86045	58.00
2.87712	58.00
2.89378	58.00
2.91045	58.00
2.92712	58.00
2.94378	58.00
2.96045	58.00
2.97712	58.00
2.99378	58.00
3.01045	58.00
3.02712	58.00
3.04378	58.00
3.06045	58.00
3.07712	58.00
3.09378	58.00
3.11045	58.00
3.12712	58.00
3.14378	58.00
3.16045	58.00
3.17712	58.00
3.19378	58.00
3.21045	58.00
3.22712	58.00
3.24378	58.00
3.26045	58.00
3.27712	58.00
3.29378	58.00
3.31045	58.00
3.32712	58.00
3.34378	58.00
3.36045	58.00
3.37712	58.00
3.39378	58.00
3.41045	58.00
3.42712	58.00
3.44378	58.00
3.46045	58.00
3.47712	58.00
3.49378	58.00
3.51045	58.00
3.52712	58.00
3.54378	58.00
3.56045	58.00
3.57712	58.00
3.59378	58.00
3.61045	58.00
3.62712	58.00
3.64378	58.00
3.66045	58.00
3.67712	58.00
3.69378	58.00
3.71045	58.00
3.72712	58.00
3.74378	58.00
3.76045	58.00
3.77712	58.00
3.79378	58.00
3.81045	58.00
3.82712	58.00
3.84378	58.00
3.86045	58.00
3.87712	58.00
3.89378	58.00
3.91045	58.00
3.92712	58.00
3.94378	58.00
3.96045	58.00
3.97712	58.00
3.99378	58.00

[Status Trace (Carrier Gas Flow)]
Interval(msec)	1000
# of Points	240
Start Time(min)	0.010
End Time(min)	3.994
Intensity Units	
Intensity Multiplier	1
R.Time (min)	Intensity
0.01045	34.52
0.02712	34.54
0.04378	34.55
0.06045	34.54
0.07712	34.51
0.09378	34.52
0.11045	34.52
0.12712	34.52
0.14378	34.52
0.16045	34.52
0.17712	34.52
0.19378	34.52
0.21045	34.52
0.22712	34.52
0.24378	34.52
0.26045	34.52
0.27712	34.52
0.29378	34.52
0.31045	34.52
0.32712	34.52
0.34378	34.52
0.36045	34.52
0.37712	34.52
0.39378	34.52
0.41045	34.52
0.42712	34.52
0.44378	34.52
0.46045	34.52
0.47712	34.52
0.49378	34.52
0.51045	34.52
0.52712	34.52
0.54378	34.52
0.56045	34.52
0.57712	34.52
0.59378	34.52
0.61045	34.52
0.62712	34.52
0.64378	34.52
0.66045	34.52
0.67712	34.52
0.69378	34.52
0.71045	34.52
0.72712	34.52
0.74378	34.52
0.76045	34.52
0.77712	34.52
0.79378	34.52
0.81045	34.52
0.82712	34.52
0.84378	34.52
0.86045	34.52
0.87712	34.52
0.89378	34.52
0.91045	34.52
0.92712	34.52
0.94378	34.52
0.96045	34.52
0.97712	34.52
0.99378	34.52
1.01045	34.52
1.02712	34.52
1.04378	34.52
1.06045	34.52
1.07712	34.52
1.09378	34.52
1.11045	34.52
1.12712	34.52
1.14378	34.52
1.16045	34.52
1.17712	34.52
1.19378	34.52
1.21045	34.52
1.22712	34.52
1.24378	34.52
1.26045	34.52
1.27712	34.52
1.29378	34.52
1.31045	34.52
1.32712	34.52
1.34378	34.52
1.36045	34.52
1.37712	34.52
1.39378	34.53
1.41045	34.52
1.42712	34.50
1.44378	34.52
1.46045	34.51
1.47712	34.52
1.49378	34.52
1.51045	34.52
1.52712	34.52
1.54378	34.52
1.56045	34.52
1.57712	34.52
1.59378	34.52
1.61045	34.52
1.62712	34.52
1.64378	34.52
1.66045	34.52
1.67712	34.52
1.69378	34.52
1.71045	34.51
1.72712	34.51
1.74378	34.52
1.76045	34.52
1.77712	34.52
1.79378	34.52
1.81045	34.52
1.82712	34.52
1.84378	34.52
1.86045	34.52
1.87712	34.52
1.89378	34.52
1.91045	34.52
1.92712	34.52
1.94378	34.52
1.96045	34.52
1.97712	34.52
1.99378	34.52
2.01045	34.52
2.02712	34.52
2.04378	34.52
2.06045	34.52
2.07712	34.52
2.09378	34.52
2.11045	34.52
2.12712	34.52
2.14378	34.52
2.16045	34.51
2.17712	34.52
2.19378	34.52
2.21045	34.52
2.22712	34.52
2.24378	34.52
2.26045	34.52
2.27712	34.52
2.29378	34.52
2.31045	34.52
2.32712	34.52
2.34378	34.52
2.36045	34.52
2.37712	34.52
2.39378	34.52
2.41045	34.52
2.42712	34.52
2.44378	34.52
2.46045	34.51
2.47712	34.51
2.49378	34.52
2.51045	34.52
2.52712	34.52
2.54378	34.52
2.56045	34.52
2.57712	34.52
2.59378	34.52
2.61045	34.52
2.62712	34.52
2.64378	34.52
2.66045	34.51
2.67712	34.52
2.69378	34.52
2.71045	34.52
2.72712	34.52
2.74378	34.52
2.76045	34.52
2.77712	34.52
2.79378	34.52
2.81045	34.52
2.82712	34.52
2.84378	34.52
2.86045	34.52
2.87712	34.52
2.89378	34.52
2.91045	34.52
2.92712	34.52
2.94378	34.52
2.96045	34.52
2.97712	34.52
2.99378	34.52
3.01045	34.52
3.02712	34.52
3.04378	34.52
3.06045	34.52
3.07712	34.52
3.09378	34.52
3.11045	34.52
3.12712	34.51
3.14378	34.52
3.16045	34.52
3.17712	34.52
3.19378	34.51
3.21045	34.52
3.22712	34.52
3.24378	34.52
3.26045	34.52
3.27712	34.52
3.29378	34.52
3.31045	34.52
3.32712	34.52
3.34378	34.52
3.36045	34.52
3.37712	34.52
3.39378	34.52
3.41045	34.52
3.42712	34.52
3.44378	34.52
3.46045	34.52
3.47712	34.52
3.49378	34.52
3.51045	34.52
3.52712	34.52
3.54378	34.52
3.56045	34.52
3.57712	34.52
3.59378	34.52
3.61045	34.52
3.62712	34.52
3.64378	34.52
3.66045	34.52
3.67712	34.52
3.69378	34.52
3.71045	34.52
3.72712	34.52
3.74378	34.52
3.76045	34.52
3.77712	34.52
3.79378	34.52
3.81045	34.52
3.82712	34.52
3.84378	34.52
3.86045	34.52
3.87712	34.52
3.89378	34.52
3.91045	34.51
3.92712	34.52
3.94378	34.52
3.96045	34.51
3.97712	34.52
3.99378	34.53

[Status Trace (Column Flow)]
Interval(msec)	1000
# of Points	240
Start Time(min)	0.010
End Time(min)	3.994
Intensity Units	
Intensity Multiplier	1
R.Time (min)	Intensity
0.01045	5.57
0.02712	5.23
0.04378	5.50
0.06045	5.75
0.07712	5.70
0.09378	5.58
0.11045	5.57
0.12712	5.57
0.14378	5.57
0.16045	5.57
0.17712	5.57
0.19378	5.57
0.21045	5.57
0.22712	5.57
0.24378	5.57
0.26045	5.57
0.27712	5.57
0.29378	5.57
0.31045	5.57
0.32712	5.57
0.34378	5.57
0.36045	5.57
0.37712	5.57
0.39378	5.57
0.41045	5.57
0.42712	5.57
0.44378	5.57
0.46045	5.57
0.47712	5.57
0.49378	5.57
0.51045	5.57
0.52712	5.57
0.54378	5.57
0.56045	5.57
0.57712	5.57
0.59378	5.57
0.61045	5.57
0.62712	5.57
0.64378	5.57
0.66045	5.57
0.67712	5.57
0.69378	5.57
0.71045	5.57
0.72712	5.57
0.74378	5.57
0.76045	5.57
0.77712	5.57
0.79378	5.57
0.81045	5.57
0.82712	5.57
0.84378	5.57
0.86045	5.57
0.87712	5.57
0.89378	5.57
0.91045	5.57
0.92712	5.57
0.94378	5.57
0.96045	5.57
0.97712	5.57
0.99378	5.57
1.01045	5.57
1.02712	5.57
1.04378	5.57
1.06045	5.57
1.07712	5.57
1.09378	5.57
1.11045	5.57
1.12712	5.57
1.14378	5.57
1.16045	5.57
1.17712	5.57
1.19378	5.57
1.21045	5.57
1.22712	5.57
1.24378	5.57
1.26045	5.57
1.27712	5.57
1.29378	5.57
1.31045	5.57
1.32712	5.57
1.34378	5.57
1.36045	5.57
1.37712	5.57
1.39378	5.57
1.41045	5.57
1.42712	5.57
1.44378	5.57
1.46045	5.57
1.47712	5.57
1.49378	5.57
1.51045	5.57
1.52712	5.57
1.54378	5.57
1.56045	5.57
1.57712	5.57
1.59378	5.57
1.61045	5.57
1.62712	5.57
1.64378	5.56
1.66045	5.55
1.67712	5.54
1.69378	5.53
1.71045	5.52
1.72712	5.51
1.74378	5.50
1.76045	5.49
1.77712	5.48
1.79378	5.47
1.81045	5.46
1.82712	5.45
1.84378	5.44
1.86045	5.43
1.87712	5.42
1.89378	5.41
1.91045	5.40
1.92712	5.39
1.94378	5.38
1.96045	5.37
1.97712	5.36
1.99378	5.35
2.01045	5.34
2.02712	5.33
2.04378	5.32
2.06045	5.31
2.07712	5.30
2.09378	5.29
2.11045	5.28
2.12712	5.27
2.14378	5.26
2.16045	5.25
2.17712	5.24
2.19378	5.23
2.21045	5.22
2.22712	5.21
2.24378	5.21
2.26045	5.20
2.27712	5.19
2.29378	5.18
2.31045	5.17
2.32712	5.16
2.34378	5.15
2.36045	5.14
2.37712	5.13
2.39378	5.13
2.41045	5.13
2.42712	5.13
2.44378	5.13
2.46045	5.13
2.47712	5.13
2.49378	5.13
2.51045	5.13
2.52712	5.13
2.54378	5.13
2.56045	5.13
2.57712	5.13
2.59378	5.13
2.61045	5.13
2.62712	5.13
2.64378	5.13
2.66045	5.13
2.67712	5.13
2.69378	5.13
2.71045	5.13
2.72712	5.13
2.74378	5.13
2.76045	5.13
2.77712	5.13
2.79378	5.13
2.81045	5.13
2.82712	5.13
2.84378	5.13
2.86045	5.13
2.87712	5.13
2.89378	5.13
2.91045	5.13
2.92712	5.13
2.94378	5.13
2.96045	5.13
2.97712	5.13
2.99378	5.13
3.01045	5.13
3.02712	5.13
3.04378	5.13
3.06045	5.13
3.07712	5.13
3.09378	5.13
3.11045	5.13
3.12712	5.13
3.14378	5.13
3.16045	5.12
3.17712	5.12
3.19378	5.12
3.21045	5.12
3.22712	5.12
3.24378	5.12
3.26045	5.12
3.27712	5.12
3.29378	5.12
3.31045	5.12
3.32712	5.12
3.34378	5.12
3.36045	5.12
3.37712	5.12
3.39378	5.12
3.41045	5.12
3.42712	5.12
3.44378	5.12
3.46045	5.12
3.47712	5.13
3.49378	5.13
3.51045	5.13
3.52712	5.13
3.54378	5.13
3.56045	5.13
3.57712	5.13
3.59378	5.13
3.61045	5.13
3.62712	5.13
3.64378	5.13
3.66045	5.12
3.67712	5.12
3.69378	5.12
3.71045	5.12
3.72712	5.12
3.74378	5.12
3.76045	5.12
3.77712	5.12
3.79378	5.12
3.81045	5.12
3.82712	5.12
3.84378	5.12
3.86045	5.12
3.87712	5.12
3.89378	5.12
3.91045	5.12
3.92712	5.12
3.94378	5.12
3.96045	5.12
3.97712	5.12
3.99378	5.12

[Status Trace (Linear Velocity)]
Interval(msec)	1000
# of Points	240
Start Time(min)	0.010
End Time(min)	3.994
Intensity Units	
Intensity Multiplier	1
R.Time (min)	Intensity
0.01045	39.02
0.02712	37.08
0.04378	38.64
0.06045	40.03
0.07712	39.74
0.09378	39.04
0.11045	39.02
0.12712	39.04
0.14378	39.03
0.16045	39.03
0.17712	39.03
0.19378	39.03
0.21045	39.03
0.22712	39.03
0.24378	39.03
0.26045	39.03
0.27712	39.03
0.29378	39.03
0.31045	39.03
0.32712	39.03
0.34378	39.03
0.36045	39.03
0.37712	39.03
0.39378	39.03
0.41045	39.03
0.42712	39.03
0.44378	39.03
0.46045	39.03
0.47712	39.03
0.49378	39.03
0.51045	39.03
0.52712	39.03
0.54378	39.03
0.56045	39.03
0.57712	39.03
0.59378	39.03
0.61045	39.03
0.62712	39.03
0.64378	39.03
0.66045	39.03
0.67712	39.03
0.69378	39.03
0.71045	39.03
0.72712	39.03
0.74378	39.03
0.76045	39.03
0.77712	39.03
0.79378	39.03
0.81045	39.03
0.82712	39.03
0.84378	39.03
0.86045	39.03
0.87712	39.03
0.89378	39.03
0.91045	39.03
0.92712	39.03
0.94378	39.03
0.96045	39.03
0.97712	39.03
0.99378	39.03
1.01045	39.03
1.02712	39.03
1.04378	39.03
1.06045	39.03
1.07712	39.03
1.09378	39.03
1.11045	39.03
1.12712	39.03
1.14378	39.03
1.16045	39.03
1.17712	39.03
1.19378	39.03
1.21045	39.03
1.22712	39.03
1.24378	39.03
1.26045	39.03
1.27712	39.03
1.29378	39.03
1.31045	39.03
1.32712	39.03
1.34378	39.03
1.36045	39.03
1.37712	39.03
1.39378	39.03
1.41045	39.03
1.42712	39.03
1.44378	39.03
1.46045	39.03
1.47712	39.03
1.49378	39.03
1.51045	39.03
1.52712	39.03
1.54378	39.03
1.56045	39.03
1.57712	39.03
1.59378	39.03
1.61045	39.02
1.62712	39.01
1.64378	39.00
1.66045	38.97
1.67712	38.94
1.69378	38.90
1.71045	38.86
1.72712	38.83
1.74378	38.80
1.76045	38.77
1.77712	38.74
1.79378	38.71
1.81045	38.67
1.82712	38.64
1.84378	38.62
1.86045	38.58
1.87712	38.55
1.89378	38.52
1.91045	38.49
1.92712	38.46
1.94378	38.43
1.96045	38.40
1.97712	38.37
1.99378	38.34
2.01045	38.31
2.02712	38.28
2.04378	38.25
2.06045	38.22
2.07712	38.19
2.09378	38.16
2.11045	38.13
2.12712	38.10
2.14378	38.08
2.16045	38.04
2.17712	38.01
2.19378	37.99
2.21045	37.95
2.22712	37.92
2.24378	37.89
2.26045	37.86
2.27712	37.84
2.29378	37.81
2.31045	37.77
2.32712	37.74
2.34378	37.71
2.36045	37.69
2.37712	37.67
2.39378	37.67
2.41045	37.67
2.42712	37.67
2.44378	37.67
2.46045	37.67
2.47712	37.66
2.49378	37.66
2.51045	37.66
2.52712	37.65
2.54378	37.66
2.56045	37.66
2.57712	37.66
2.59378	37.66
2.61045	37.66
2.62712	37.66
2.64378	37.66
2.66045	37.66
2.67712	37.66
2.69378	37.66
2.71045	37.66
2.72712	37.66
2.74378	37.66
2.76045	37.66
2.77712	37.66
2.79378	37.66
2.81045	37.66
2.82712	37.65
2.84378	37.65
2.86045	37.65
2.87712	37.65
2.89378	37.65
2.91045	37.65
2.92712	37.65
2.94378	37.65
2.96045	37.65
2.97712	37.65
2.99378	37.65
3.01045	37.65
3.02712	37.64
3.04378	37.64
3.06045	37.64
3.07712	37.65
3.09378	37.64
3.11045	37.64
3.12712	37.64
3.14378	37.64
3.16045	37.64
3.17712	37.64
3.19378	37.64
3.21045	37.64
3.22712	37.63
3.24378	37.63
3.26045	37.64
3.27712	37.64
3.29378	37.64
3.31045	37.64
3.32712	37.64
3.34378	37.64
3.36045	37.64
3.37712	37.64
3.39378	37.64
3.41045	37.64
3.42712	37.64
3.44378	37.64
3.46045	37.64
3.47712	37.64
3.49378	37.64
3.51045	37.64
3.52712	37.64
3.54378	37.64
3.56045	37.64
3.57712	37.64
3.59378	37.64
3.61045	37.64
3.62712	37.64
3.64378	37.64
3.66045	37.64
3.67712	37.64
3.69378	37.64
3.71045	37.64
3.72712	37.64
3.74378	37.64
3.76045	37.64
3.77712	37.64
3.79378	37.64
3.81045	37.64
3.82712	37.64
3.84378	37.64
3.86045	37.64
3.87712	37.64
3.89378	37.63
3.91045	37.64
3.92712	37.64
3.94378	37.64
3.96045	37.64
3.97712	37.64
3.99378	37.64

