[Header]
Application Name	LabSolutions
Version	5.110
Data File Name	C:\Users\User\Desktop\GC Analyses\Jack\Nachusa Grasslands Sampling\T0 Timepoint July 12th\T0_07122022_026.gcd
Output Date	3/14/2023
Output Time	3:40:35 PM

[File Information]
Type	Data File
Generated	3/7/2023 4:35:06 PM
Generated by	System Administrator
Modified	3/7/2023 4:41:54 PM
Modified by	System Administrator

[Sample Information]
Operator Name	System Administrator
Acquired	3/7/2023 4:37:53 PM
Sample Type	0:Unknown
Level	0
Sample Name	026
Sample ID	026
ISTD Amount1	1
ISTD Amount2	1
ISTD Amount3	1
ISTD Amount4	1
ISTD Amount5	1
ISTD Amount6	1
ISTD Amount7	1
ISTD Amount8	1
ISTD Amount9	1
ISTD Amount10	1
ISTD Amount11	1
ISTD Amount12	1
ISTD Amount13	1
ISTD Amount14	1
ISTD Amount15	1
ISTD Amount16	1
ISTD Amount17	1
ISTD Amount18	1
ISTD Amount19	1
ISTD Amount20	1
ISTD Amount21	1
ISTD Amount22	1
ISTD Amount23	1
ISTD Amount24	1
ISTD Amount25	1
ISTD Amount26	1
ISTD Amount27	1
ISTD Amount28	1
ISTD Amount29	1
ISTD Amount30	1
ISTD Amount31	1
ISTD Amount32	1
Sample Amount	1
Dilution Factor	1
Vial#	25
Injection Volume	1
Injection Count	1
Bar Code	

[Original Files]
Data File	C:\Users\User\Desktop\GC Analyses\Jack\Nachusa Grasslands Sampling\T0 Timepoint July 12th\T0_07122022_026.gcd
Method File	C:\LabSolutions\Data\GHG_4min_2022\ghg3_togas_w_acet_4 min_new_int.gcm
Batch File	C:\LabSolutions\Data\AutoSamplerTesting\T0_07122022.gcb
Report Format File	c:\LabSolutions\System\DEFAULT.lsr

[File Description]


[Configuration]
Instrument Name	C0B7VH3-Instrument1
Instrument #	1
Line #	1
# of Detectors	3
Detector ID	DET#1	DET#2	DET#3
Detector Name	FID	PTCD	ECD
# of Channels	1	1	1

[Peak Table(Ch1)]
# of Peaks	3
Peak#	R.Time	I.Time	F.Time	Area	Height	A/H	Conc.	Mark	ID#	Name	k'	Plate #	Plate Ht.	Tailing	Resolution	Sep.Factor	Area Ratio	Height Ratio	Conc. %	Norm Conc.
1	1.476	1.435	1.538	30075	14232	2.113	212.333	   	1	CO	0.000	9098	16.487	1.314	0.000	0.000	0	0	35.828	35.828
2	1.567	1.538	1.626	4748	2307	2.058	91.814	 V 	2	CH4	0.062	10528	14.247	0.000	1.491	0.000	0	0	15.492	15.492
3	1.996	1.952	2.484	1149520	541286	2.124	288.498	   	3	CO2	0.353	17269	8.686	1.314	7.040	5.680	0	0	48.680	48.680

[Peak Table(Ch2)]
# of Peaks	0

[Peak Table(Ch3)]
# of Peaks	5
Peak#	R.Time	I.Time	F.Time	Area	Height	A/H	Conc.	Mark	ID#	Name	k'	Plate #	Plate Ht.	Tailing	Resolution	Sep.Factor	Area Ratio	Height Ratio	Conc. %	Norm Conc.
1	2.462	2.260	2.524	1648	353	4.674	0.000	   			0.000	5331	28.139	0.000	0.000	0.000	0	0	0.000	0.000
2	2.554	2.524	2.638	1022	213	4.799	0.000	 V 			0.037	1986	75.544	0.000	0.504	0.000	0	0	0.000	0.000
3	2.697	2.660	2.781	190	47	4.038	0.000	   			0.095	10217	14.682	1.704	0.851	2.560	0	0	0.000	0.000
4	2.873	2.810	3.023	16723	4581	3.650	0.427	   	1	N2O	0.167	13729	10.926	1.575	1.719	1.750	0	0	100.000	100.000
5	3.236	3.107	3.965	13894	567	24.485	0.000	   	2	SF6	0.314	341	439.379	3.211	0.909	1.884	0	0	0.000	0.000

[Compound Results(Ch1)]
# of IDs	6
ID#	Name	R.Time	Area	Height	Conc.	Curve	3rd	2nd	1st	Constant	Area Ratio	Height Ratio	Conc. %	Norm Conc.
1	CO	1.476	30075	14232	212.333	Linear	0.000000e+00	0.000000e+00	1.416423e+002	0.000000e+00	0	0	35.828	35.828
2	CH4	1.567	4748	2307	91.814	Linear	0.000000e+00	0.000000e+00	5.171738e+001	0.000000e+00	0	0	15.492	15.492
3	CO2	1.996	1149520	541286	288.498	Linear	0.000000e+00	0.000000e+00	3.984494e+003	0.000000e+00	0	0	48.680	48.680
4	Ethylene	0.000	0	0	0.000	Linear	0.000000e+00	0.000000e+00	0.000000e+00	0.000000e+00	0	0	0.000	0.000
5	Acetylene	0.000	0	0	0.000	Linear	0.000000e+00	0.000000e+00	0.000000e+00	0.000000e+00	0	0	0.000	0.000
6	Ethane	0.000	0	0	0.000	Linear	0.000000e+00	0.000000e+00	0.000000e+00	0.000000e+00	0	0	0.000	0.000

[Compound Results(Ch2)]
# of IDs	5
ID#	Name	R.Time	Area	Height	Conc.	Curve	3rd	2nd	1st	Constant	Area Ratio	Height Ratio	Conc. %	Norm Conc.
1	Hydrogen	0.000	0	0	0.000	Linear	0.000000e+00	0.000000e+00	0.000000e+00	0.000000e+00	0	0	0.000	0.000
2	Oxygen	0.000	0	0	0.000	Linear	0.000000e+00	0.000000e+00	0.000000e+00	0.000000e+00	0	0	0.000	0.000
3	Nitrogen	0.000	0	0	0.000	Linear	0.000000e+00	0.000000e+00	0.000000e+00	0.000000e+00	0	0	0.000	0.000
4	Methane	0.000	0	0	0.000	Linear	0.000000e+00	0.000000e+00	0.000000e+00	0.000000e+00	0	0	0.000	0.000
5	Carbon Monoxide	0.000	0	0	0.000	Linear	0.000000e+00	0.000000e+00	0.000000e+00	0.000000e+00	0	0	0.000	0.000

[Compound Results(Ch3)]
# of IDs	2
ID#	Name	R.Time	Area	Height	Conc.	Curve	3rd	2nd	1st	Constant	Area Ratio	Height Ratio	Conc. %	Norm Conc.
1	N2O	2.873	16723	4581	0.427	Linear	0.000000e+00	0.000000e+00	3.915173e+004	0.000000e+00	0	0	100.000	100.000
2	SF6	3.236	13894	567	0.000	Linear	0.000000e+00	0.000000e+00	0.000000e+00	0.000000e+00	0	0	0.000	0.000

[Group Results(Ch1)]
# of Groups	0

[Group Results(Ch2)]
# of Groups	0

[Group Results(Ch3)]
# of Groups	0

[Chromatogram (Ch1)]
Interval(msec)	220
# of Points	1091
Start Time(min)	0.002
End Time(min)	3.998
R.Time (min)	Intensity
0.00167	-23
0.00533	-17
0.00900	-9
0.01267	3
0.01633	17
0.02000	29
0.02367	40
0.02733	48
0.03100	52
0.03467	53
0.03833	56
0.04200	60
0.04567	62
0.04933	61
0.05300	59
0.05667	59
0.06033	59
0.06400	59
0.06767	57
0.07133	54
0.07500	53
0.07867	54
0.08233	56
0.08600	59
0.08967	61
0.09333	62
0.09700	65
0.10067	68
0.10433	70
0.10800	74
0.11167	79
0.11533	81
0.11900	78
0.12267	73
0.12633	71
0.13000	72
0.13367	73
0.13733	75
0.14100	76
0.14467	75
0.14833	75
0.15200	75
0.15567	78
0.15933	81
0.16300	87
0.16667	92
0.17033	97
0.17400	100
0.17767	102
0.18133	104
0.18500	105
0.18867	104
0.19233	101
0.19600	98
0.19967	94
0.20333	88
0.20700	85
0.21067	85
0.21433	87
0.21800	86
0.22167	84
0.22533	80
0.22900	77
0.23267	75
0.23633	76
0.24000	75
0.24367	72
0.24733	68
0.25100	68
0.25467	72
0.25833	75
0.26200	75
0.26567	74
0.26933	72
0.27300	68
0.27667	64
0.28033	58
0.28400	55
0.28767	55
0.29133	52
0.29500	45
0.29867	40
0.30233	40
0.30600	41
0.30967	42
0.31333	42
0.31700	43
0.32067	40
0.32433	35
0.32800	30
0.33167	28
0.33533	28
0.33900	29
0.34267	29
0.34633	34
0.35000	40
0.35367	47
0.35733	53
0.36100	57
0.36467	59
0.36833	59
0.37200	56
0.37567	49
0.37933	38
0.38300	27
0.38667	20
0.39033	16
0.39400	15
0.39767	14
0.40133	16
0.40500	20
0.40867	25
0.41233	31
0.41600	35
0.41967	38
0.42333	41
0.42700	44
0.43067	49
0.43433	52
0.43800	50
0.44167	46
0.44533	45
0.44900	48
0.45267	53
0.45633	59
0.46000	64
0.46367	63
0.46733	58
0.47100	50
0.47467	42
0.47833	38
0.48200	37
0.48567	35
0.48933	34
0.49300	39
0.49667	46
0.50033	53
0.50400	57
0.50767	57
0.51133	56
0.51500	54
0.51867	49
0.52233	44
0.52600	43
0.52967	43
0.53333	41
0.53700	40
0.54067	38
0.54433	36
0.54800	32
0.55167	30
0.55533	32
0.55900	35
0.56267	38
0.56633	39
0.57000	42
0.57367	46
0.57733	46
0.58100	45
0.58467	47
0.58833	50
0.59200	53
0.59567	55
0.59933	58
0.60300	63
0.60667	70
0.61033	73
0.61400	72
0.61767	70
0.62133	71
0.62500	73
0.62867	73
0.63233	74
0.63600	76
0.63967	77
0.64333	72
0.64700	66
0.65067	60
0.65433	48
0.65800	33
0.66167	22
0.66533	18
0.66900	19
0.67267	25
0.67633	31
0.68000	32
0.68367	33
0.68733	31
0.69100	28
0.69467	31
0.69833	38
0.70200	43
0.70567	45
0.70933	48
0.71300	49
0.71667	47
0.72033	44
0.72400	43
0.72767	46
0.73133	50
0.73500	53
0.73867	54
0.74233	52
0.74600	51
0.74967	51
0.75333	53
0.75700	55
0.76067	57
0.76433	57
0.76800	52
0.77167	46
0.77533	40
0.77900	38
0.78267	38
0.78633	38
0.79000	37
0.79367	34
0.79733	31
0.80100	31
0.80467	32
0.80833	33
0.81200	38
0.81567	47
0.81933	58
0.82300	66
0.82667	66
0.83033	60
0.83400	52
0.83767	47
0.84133	45
0.84500	46
0.84867	49
0.85233	52
0.85600	53
0.85967	52
0.86333	52
0.86700	54
0.87067	55
0.87433	52
0.87800	47
0.88167	41
0.88533	34
0.88900	26
0.89267	20
0.89633	21
0.90000	28
0.90367	39
0.90733	50
0.91100	50
0.91467	40
0.91833	26
0.92200	15
0.92567	13
0.92933	19
0.93300	29
0.93667	36
0.94033	36
0.94400	34
0.94767	34
0.95133	37
0.95500	41
0.95867	42
0.96233	37
0.96600	29
0.96967	25
0.97333	24
0.97700	23
0.98067	22
0.98433	22
0.98800	23
0.99167	22
0.99533	21
0.99900	26
1.00267	34
1.00633	39
1.01000	40
1.01367	42
1.01733	46
1.02100	50
1.02467	53
1.02833	60
1.03200	71
1.03567	78
1.03933	78
1.04300	79
1.04667	84
1.05033	93
1.05400	99
1.05767	99
1.06133	95
1.06500	86
1.06867	72
1.07233	59
1.07600	51
1.07967	49
1.08333	48
1.08700	46
1.09067	44
1.09433	44
1.09800	46
1.10167	48
1.10533	53
1.10900	59
1.11267	62
1.11633	61
1.12000	60
1.12367	62
1.12733	66
1.13100	72
1.13467	75
1.13833	75
1.14200	73
1.14567	71
1.14933	68
1.15300	64
1.15667	63
1.16033	66
1.16400	71
1.16767	76
1.17133	79
1.17500	81
1.17867	81
1.18233	78
1.18600	76
1.18967	76
1.19333	77
1.19700	75
1.20067	71
1.20433	73
1.20800	78
1.21167	82
1.21533	81
1.21900	74
1.22267	68
1.22633	66
1.23000	64
1.23367	62
1.23733	64
1.24100	69
1.24467	73
1.24833	78
1.25200	81
1.25567	83
1.25933	82
1.26300	72
1.26667	60
1.27033	52
1.27400	49
1.27767	51
1.28133	57
1.28500	61
1.28867	59
1.29233	51
1.29600	45
1.29967	45
1.30333	49
1.30700	55
1.31067	61
1.31433	67
1.31800	69
1.32167	71
1.32533	69
1.32900	60
1.33267	49
1.33633	39
1.34000	32
1.34367	30
1.34733	34
1.35100	39
1.35467	43
1.35833	45
1.36200	46
1.36567	45
1.36933	45
1.37300	47
1.37667	51
1.38033	54
1.38400	56
1.38767	58
1.39133	59
1.39500	59
1.39867	60
1.40233	65
1.40600	70
1.40967	72
1.41333	71
1.41700	64
1.42067	55
1.42433	50
1.42800	49
1.43167	52
1.43533	57
1.43900	80
1.44267	169
1.44633	392
1.45000	964
1.45367	2325
1.45733	4603
1.46100	7344
1.46467	9964
1.46833	12105
1.47200	13592
1.47567	14296
1.47933	14088
1.48300	12960
1.48667	11129
1.49033	8983
1.49400	6905
1.49767	5133
1.50133	3741
1.50500	2702
1.50867	1949
1.51233	1415
1.51600	1037
1.51967	769
1.52333	584
1.52700	458
1.53067	369
1.53433	310
1.53800	288
1.54167	334
1.54533	504
1.54900	822
1.55267	1235
1.55633	1653
1.56000	2004
1.56367	2256
1.56733	2386
1.57100	2372
1.57467	2197
1.57833	1884
1.58200	1506
1.58567	1143
1.58933	839
1.59300	603
1.59667	430
1.60033	310
1.60400	228
1.60767	174
1.61133	140
1.61500	117
1.61867	102
1.62233	93
1.62600	88
1.62967	84
1.63333	80
1.63700	70
1.64067	58
1.64433	58
1.64800	65
1.65167	68
1.65533	74
1.65900	82
1.66267	84
1.66633	79
1.67000	70
1.67367	65
1.67733	62
1.68100	57
1.68467	51
1.68833	46
1.69200	46
1.69567	47
1.69933	48
1.70300	50
1.70667	49
1.71033	48
1.71400	46
1.71767	43
1.72133	42
1.72500	41
1.72867	37
1.73233	33
1.73600	31
1.73967	32
1.74333	35
1.74700	38
1.75067	43
1.75433	47
1.75800	48
1.76167	49
1.76533	53
1.76900	55
1.77267	55
1.77633	51
1.78000	45
1.78367	37
1.78733	32
1.79100	29
1.79467	29
1.79833	34
1.80200	42
1.80567	46
1.80933	44
1.81300	39
1.81667	35
1.82033	36
1.82400	40
1.82767	46
1.83133	56
1.83500	67
1.83867	74
1.84233	74
1.84600	71
1.84967	65
1.85333	55
1.85700	42
1.86067	32
1.86433	27
1.86800	22
1.87167	21
1.87533	23
1.87900	27
1.88267	29
1.88633	33
1.89000	40
1.89367	47
1.89733	49
1.90100	45
1.90467	38
1.90833	31
1.91200	27
1.91567	26
1.91933	28
1.92300	34
1.92667	43
1.93033	52
1.93400	57
1.93767	58
1.94133	54
1.94500	49
1.94867	47
1.95233	64
1.95600	170
1.95967	722
1.96333	3150
1.96700	11440
1.97067	33196
1.97433	77770
1.97800	150103
1.98167	244774
1.98533	346869
1.98900	439286
1.99267	507447
1.99633	541375
2.00000	536864
2.00367	496345
2.00733	429089
2.01100	348865
2.01467	269146
2.01833	199226
2.02200	143184
2.02567	101077
2.02933	70845
2.03300	49788
2.03667	35397
2.04033	25653
2.04400	19062
2.04767	14582
2.05133	11499
2.05500	9338
2.05867	7792
2.06233	6654
2.06600	5799
2.06967	5139
2.07333	4618
2.07700	4197
2.08067	3850
2.08433	3554
2.08800	3295
2.09167	3069
2.09533	2873
2.09900	2699
2.10267	2549
2.10633	2418
2.11000	2301
2.11367	2197
2.11733	2104
2.12100	2017
2.12467	1934
2.12833	1855
2.13200	1779
2.13567	1702
2.13933	1627
2.14300	1559
2.14667	1500
2.15033	1451
2.15400	1407
2.15767	1362
2.16133	1317
2.16500	1275
2.16867	1237
2.17233	1204
2.17600	1177
2.17967	1151
2.18333	1122
2.18700	1088
2.19067	1053
2.19433	1018
2.19800	987
2.20167	962
2.20533	943
2.20900	930
2.21267	918
2.21633	898
2.22000	867
2.22367	836
2.22733	811
2.23100	791
2.23467	777
2.23833	764
2.24200	750
2.24567	733
2.24933	716
2.25300	702
2.25667	691
2.26033	682
2.26400	677
2.26767	672
2.27133	666
2.27500	661
2.27867	655
2.28233	649
2.28600	643
2.28967	638
2.29333	631
2.29700	621
2.30067	609
2.30433	602
2.30800	598
2.31167	593
2.31533	586
2.31900	579
2.32267	570
2.32633	560
2.33000	550
2.33367	540
2.33733	528
2.34100	517
2.34467	508
2.34833	503
2.35200	500
2.35567	497
2.35933	492
2.36300	486
2.36667	480
2.37033	472
2.37400	464
2.37767	457
2.38133	450
2.38500	445
2.38867	443
2.39233	446
2.39600	452
2.39967	456
2.40333	456
2.40700	452
2.41067	444
2.41433	437
2.41800	432
2.42167	430
2.42533	430
2.42900	435
2.43267	439
2.43633	438
2.44000	431
2.44367	419
2.44733	410
2.45100	405
2.45467	402
2.45833	399
2.46200	393
2.46567	389
2.46933	388
2.47300	387
2.47667	382
2.48033	373
2.48400	366
2.48767	361
2.49133	360
2.49500	360
2.49867	361
2.50233	360
2.50600	358
2.50967	358
2.51333	360
2.51700	364
2.52067	368
2.52433	369
2.52800	372
2.53167	376
2.53533	375
2.53900	366
2.54267	357
2.54633	354
2.55000	354
2.55367	353
2.55733	355
2.56100	357
2.56467	356
2.56833	353
2.57200	348
2.57567	342
2.57933	335
2.58300	329
2.58667	322
2.59033	316
2.59400	307
2.59767	295
2.60133	285
2.60500	278
2.60867	276
2.61233	277
2.61600	281
2.61967	286
2.62333	291
2.62700	296
2.63067	302
2.63433	307
2.63800	308
2.64167	308
2.64533	310
2.64900	315
2.65267	318
2.65633	317
2.66000	317
2.66367	314
2.66733	307
2.67100	302
2.67467	301
2.67833	305
2.68200	311
2.68567	311
2.68933	306
2.69300	298
2.69667	293
2.70033	293
2.70400	296
2.70767	297
2.71133	292
2.71500	283
2.71867	275
2.72233	272
2.72600	275
2.72967	282
2.73333	286
2.73700	290
2.74067	295
2.74433	299
2.74800	300
2.75167	297
2.75533	296
2.75900	298
2.76267	302
2.76633	303
2.77000	299
2.77367	292
2.77733	286
2.78100	283
2.78467	280
2.78833	276
2.79200	275
2.79567	278
2.79933	283
2.80300	285
2.80667	284
2.81033	279
2.81400	274
2.81767	270
2.82133	269
2.82500	268
2.82867	268
2.83233	272
2.83600	279
2.83967	288
2.84333	297
2.84700	299
2.85067	295
2.85433	289
2.85800	283
2.86167	278
2.86533	275
2.86900	274
2.87267	272
2.87633	272
2.88000	274
2.88367	281
2.88733	287
2.89100	292
2.89467	294
2.89833	294
2.90200	288
2.90567	278
2.90933	273
2.91300	272
2.91667	271
2.92033	270
2.92400	268
2.92767	266
2.93133	262
2.93500	261
2.93867	264
2.94233	271
2.94600	276
2.94967	276
2.95333	276
2.95700	279
2.96067	285
2.96433	291
2.96800	295
2.97167	294
2.97533	287
2.97900	279
2.98267	271
2.98633	268
2.99000	266
2.99367	268
2.99733	271
3.00100	274
3.00467	276
3.00833	275
3.01200	273
3.01567	271
3.01933	265
3.02300	261
3.02667	259
3.03033	260
3.03400	262
3.03767	264
3.04133	265
3.04500	270
3.04867	278
3.05233	283
3.05600	280
3.05967	273
3.06333	268
3.06700	270
3.07067	274
3.07433	274
3.07800	272
3.08167	269
3.08533	265
3.08900	260
3.09267	254
3.09633	250
3.10000	251
3.10367	250
3.10733	248
3.11100	248
3.11467	253
3.11833	259
3.12200	262
3.12567	261
3.12933	260
3.13300	262
3.13667	268
3.14033	272
3.14400	273
3.14767	272
3.15133	268
3.15500	266
3.15867	265
3.16233	264
3.16600	263
3.16967	264
3.17333	267
3.17700	268
3.18067	265
3.18433	258
3.18800	252
3.19167	248
3.19533	246
3.19900	245
3.20267	248
3.20633	252
3.21000	256
3.21367	258
3.21733	257
3.22100	253
3.22467	250
3.22833	247
3.23200	243
3.23567	239
3.23933	238
3.24300	237
3.24667	235
3.25033	233
3.25400	234
3.25767	236
3.26133	240
3.26500	245
3.26867	247
3.27233	243
3.27600	237
3.27967	233
3.28333	234
3.28700	241
3.29067	246
3.29433	247
3.29800	244
3.30167	240
3.30533	235
3.30900	230
3.31267	224
3.31633	222
3.32000	224
3.32367	228
3.32733	231
3.33100	233
3.33467	235
3.33833	235
3.34200	236
3.34567	238
3.34933	240
3.35300	239
3.35667	239
3.36033	242
3.36400	245
3.36767	243
3.37133	237
3.37500	230
3.37867	228
3.38233	229
3.38600	232
3.38967	235
3.39333	234
3.39700	228
3.40067	225
3.40433	225
3.40800	228
3.41167	231
3.41533	230
3.41900	230
3.42267	228
3.42633	226
3.43000	221
3.43367	215
3.43733	207
3.44100	203
3.44467	204
3.44833	208
3.45200	211
3.45567	212
3.45933	212
3.46300	209
3.46667	204
3.47033	204
3.47400	205
3.47767	207
3.48133	211
3.48500	215
3.48867	219
3.49233	220
3.49600	218
3.49967	213
3.50333	207
3.50700	203
3.51067	198
3.51433	193
3.51800	190
3.52167	189
3.52533	191
3.52900	195
3.53267	199
3.53633	202
3.54000	204
3.54367	206
3.54733	203
3.55100	198
3.55467	193
3.55833	194
3.56200	198
3.56567	202
3.56933	207
3.57300	211
3.57667	211
3.58033	209
3.58400	205
3.58767	202
3.59133	202
3.59500	200
3.59867	193
3.60233	185
3.60600	177
3.60967	171
3.61333	169
3.61700	169
3.62067	169
3.62433	169
3.62800	172
3.63167	174
3.63533	173
3.63900	173
3.64267	175
3.64633	182
3.65000	191
3.65367	195
3.65733	191
3.66100	186
3.66467	181
3.66833	172
3.67200	162
3.67567	158
3.67933	160
3.68300	162
3.68667	163
3.69033	165
3.69400	167
3.69767	169
3.70133	171
3.70500	173
3.70867	173
3.71233	171
3.71600	167
3.71967	162
3.72333	161
3.72700	160
3.73067	157
3.73433	154
3.73800	152
3.74167	150
3.74533	153
3.74900	158
3.75267	162
3.75633	163
3.76000	161
3.76367	158
3.76733	153
3.77100	150
3.77467	151
3.77833	156
3.78200	162
3.78567	172
3.78933	179
3.79300	178
3.79667	170
3.80033	158
3.80400	148
3.80767	141
3.81133	139
3.81500	139
3.81867	143
3.82233	150
3.82600	157
3.82967	161
3.83333	159
3.83700	152
3.84067	143
3.84433	135
3.84800	129
3.85167	125
3.85533	121
3.85900	119
3.86267	121
3.86633	127
3.87000	132
3.87367	133
3.87733	132
3.88100	130
3.88467	126
3.88833	123
3.89200	122
3.89567	124
3.89933	129
3.90300	134
3.90667	138
3.91033	142
3.91400	145
3.91767	141
3.92133	137
3.92500	132
3.92867	129
3.93233	128
3.93600	128
3.93967	128
3.94333	129
3.94700	129
3.95067	127
3.95433	122
3.95800	118
3.96167	117
3.96533	119
3.96900	125
3.97267	132
3.97633	136
3.98000	136
3.98367	134
3.98733	131
3.99100	131
3.99467	132
3.99833	136

[Chromatogram (Ch2)]
Interval(msec)	220
# of Points	1091
Start Time(min)	0.002
End Time(min)	3.998
R.Time (min)	Intensity
0.00167	-1
0.00533	-1
0.00900	-2
0.01267	-2
0.01633	-2
0.02000	-1
0.02367	-1
0.02733	-1
0.03100	-1
0.03467	-1
0.03833	-1
0.04200	-1
0.04567	-0
0.04933	0
0.05300	1
0.05667	1
0.06033	2
0.06400	2
0.06767	2
0.07133	3
0.07500	3
0.07867	3
0.08233	3
0.08600	3
0.08967	4
0.09333	4
0.09700	4
0.10067	4
0.10433	5
0.10800	5
0.11167	5
0.11533	5
0.11900	5
0.12267	5
0.12633	5
0.13000	4
0.13367	4
0.13733	4
0.14100	3
0.14467	3
0.14833	3
0.15200	2
0.15567	2
0.15933	1
0.16300	0
0.16667	-0
0.17033	-0
0.17400	-1
0.17767	-1
0.18133	-1
0.18500	-1
0.18867	-1
0.19233	-1
0.19600	-1
0.19967	-1
0.20333	-1
0.20700	-1
0.21067	-1
0.21433	-1
0.21800	-0
0.22167	-0
0.22533	-0
0.22900	-0
0.23267	0
0.23633	0
0.24000	0
0.24367	0
0.24733	0
0.25100	1
0.25467	1
0.25833	1
0.26200	1
0.26567	1
0.26933	1
0.27300	0
0.27667	0
0.28033	0
0.28400	-0
0.28767	-0
0.29133	-1
0.29500	-1
0.29867	-1
0.30233	-1
0.30600	-1
0.30967	-1
0.31333	-1
0.31700	-1
0.32067	-2
0.32433	-2
0.32800	-1
0.33167	-1
0.33533	-2
0.33900	-2
0.34267	-2
0.34633	-2
0.35000	-2
0.35367	-3
0.35733	-3
0.36100	-3
0.36467	-3
0.36833	-3
0.37200	-3
0.37567	-3
0.37933	-3
0.38300	-3
0.38667	-3
0.39033	-2
0.39400	-2
0.39767	-2
0.40133	-3
0.40500	-3
0.40867	-2
0.41233	-2
0.41600	-2
0.41967	-2
0.42333	-1
0.42700	-1
0.43067	-1
0.43433	-1
0.43800	-1
0.44167	-0
0.44533	0
0.44900	0
0.45267	0
0.45633	0
0.46000	0
0.46367	0
0.46733	-0
0.47100	-0
0.47467	-0
0.47833	-0
0.48200	-0
0.48567	-0
0.48933	0
0.49300	0
0.49667	0
0.50033	1
0.50400	0
0.50767	0
0.51133	-0
0.51500	-0
0.51867	-0
0.52233	-1
0.52600	-1
0.52967	-1
0.53333	-2
0.53700	-2
0.54067	-2
0.54433	-2
0.54800	-2
0.55167	-2
0.55533	-1
0.55900	-1
0.56267	-1
0.56633	-0
0.57000	-0
0.57367	-0
0.57733	0
0.58100	0
0.58467	0
0.58833	0
0.59200	0
0.59567	0
0.59933	0
0.60300	-0
0.60667	0
0.61033	0
0.61400	0
0.61767	1
0.62133	1
0.62500	2
0.62867	2
0.63233	3
0.63600	3
0.63967	3
0.64333	2
0.64700	2
0.65067	2
0.65433	1
0.65800	1
0.66167	1
0.66533	1
0.66900	0
0.67267	0
0.67633	0
0.68000	0
0.68367	0
0.68733	0
0.69100	1
0.69467	1
0.69833	1
0.70200	1
0.70567	1
0.70933	1
0.71300	0
0.71667	-0
0.72033	-1
0.72400	-1
0.72767	-2
0.73133	-2
0.73500	-2
0.73867	-2
0.74233	-2
0.74600	-2
0.74967	-2
0.75333	-2
0.75700	-2
0.76067	-2
0.76433	-2
0.76800	-2
0.77167	-2
0.77533	-2
0.77900	-2
0.78267	-2
0.78633	-2
0.79000	-2
0.79367	-2
0.79733	-2
0.80100	-2
0.80467	-2
0.80833	-2
0.81200	-2
0.81567	-1
0.81933	-1
0.82300	-1
0.82667	-1
0.83033	-1
0.83400	-1
0.83767	-1
0.84133	-1
0.84500	-1
0.84867	-1
0.85233	-1
0.85600	-1
0.85967	-1
0.86333	-2
0.86700	-2
0.87067	-2
0.87433	-1
0.87800	-1
0.88167	-1
0.88533	-1
0.88900	-0
0.89267	-0
0.89633	0
0.90000	1
0.90367	1
0.90733	1
0.91100	1
0.91467	2
0.91833	1
0.92200	1
0.92567	1
0.92933	1
0.93300	0
0.93667	-0
0.94033	-1
0.94400	-1
0.94767	-2
0.95133	-2
0.95500	-2
0.95867	-2
0.96233	-3
0.96600	-2
0.96967	-2
0.97333	-2
0.97700	-2
0.98067	-2
0.98433	-2
0.98800	-2
0.99167	-1
0.99533	-1
0.99900	-0
1.00267	0
1.00633	1
1.01000	1
1.01367	1
1.01733	2
1.02100	2
1.02467	2
1.02833	2
1.03200	2
1.03567	1
1.03933	1
1.04300	0
1.04667	-0
1.05033	-0
1.05400	-0
1.05767	-0
1.06133	-0
1.06500	-1
1.06867	-1
1.07233	-1
1.07600	-1
1.07967	-1
1.08333	-2
1.08700	-2
1.09067	-2
1.09433	-2
1.09800	-2
1.10167	-2
1.10533	-2
1.10900	-2
1.11267	-2
1.11633	-2
1.12000	-2
1.12367	-2
1.12733	-2
1.13100	-2
1.13467	-2
1.13833	-2
1.14200	-2
1.14567	-2
1.14933	-2
1.15300	-2
1.15667	-3
1.16033	-3
1.16400	-3
1.16767	-2
1.17133	-2
1.17500	-2
1.17867	-2
1.18233	-2
1.18600	-2
1.18967	-1
1.19333	-1
1.19700	-1
1.20067	-1
1.20433	-1
1.20800	-2
1.21167	-2
1.21533	-2
1.21900	-2
1.22267	-2
1.22633	-1
1.23000	-1
1.23367	-1
1.23733	-1
1.24100	-1
1.24467	-1
1.24833	-1
1.25200	-2
1.25567	-2
1.25933	-2
1.26300	-2
1.26667	-2
1.27033	-2
1.27400	-2
1.27767	-2
1.28133	-1
1.28500	-1
1.28867	-1
1.29233	-0
1.29600	-0
1.29967	0
1.30333	0
1.30700	0
1.31067	0
1.31433	0
1.31800	0
1.32167	-0
1.32533	-0
1.32900	-1
1.33267	-1
1.33633	-1
1.34000	-2
1.34367	-2
1.34733	-2
1.35100	-2
1.35467	-2
1.35833	-2
1.36200	-2
1.36567	-2
1.36933	-2
1.37300	-2
1.37667	-3
1.38033	-3
1.38400	-3
1.38767	-3
1.39133	-4
1.39500	-4
1.39867	-4
1.40233	-4
1.40600	-5
1.40967	-5
1.41333	-5
1.41700	-5
1.42067	-5
1.42433	-5
1.42800	-4
1.43167	-4
1.43533	-4
1.43900	-4
1.44267	-5
1.44633	-5
1.45000	-5
1.45367	-5
1.45733	-5
1.46100	-5
1.46467	-5
1.46833	-4
1.47200	-4
1.47567	-4
1.47933	-4
1.48300	-3
1.48667	-3
1.49033	-3
1.49400	-3
1.49767	-3
1.50133	-2
1.50500	-2
1.50867	-2
1.51233	-2
1.51600	-2
1.51967	-2
1.52333	-3
1.52700	-3
1.53067	-3
1.53433	-3
1.53800	-3
1.54167	-3
1.54533	-3
1.54900	-3
1.55267	-3
1.55633	-3
1.56000	-3
1.56367	-3
1.56733	-3
1.57100	-3
1.57467	-3
1.57833	-3
1.58200	-3
1.58567	-3
1.58933	-3
1.59300	-4
1.59667	-4
1.60033	-5
1.60400	-6
1.60767	-7
1.61133	-9
1.61500	-11
1.61867	-14
1.62233	-16
1.62600	-19
1.62967	-22
1.63333	-25
1.63700	-29
1.64067	-32
1.64433	-36
1.64800	-40
1.65167	-44
1.65533	-47
1.65900	-51
1.66267	-55
1.66633	-60
1.67000	-65
1.67367	-70
1.67733	-75
1.68100	-81
1.68467	-86
1.68833	-90
1.69200	-94
1.69567	-97
1.69933	-100
1.70300	-103
1.70667	-105
1.71033	-107
1.71400	-108
1.71767	-109
1.72133	-110
1.72500	-111
1.72867	-112
1.73233	-112
1.73600	-113
1.73967	-114
1.74333	-114
1.74700	-114
1.75067	-114
1.75433	-114
1.75800	-114
1.76167	-113
1.76533	-113
1.76900	-113
1.77267	-114
1.77633	-114
1.78000	-115
1.78367	-116
1.78733	-117
1.79100	-117
1.79467	-117
1.79833	-118
1.80200	-118
1.80567	-119
1.80933	-119
1.81300	-119
1.81667	-119
1.82033	-119
1.82400	-118
1.82767	-118
1.83133	-118
1.83500	-118
1.83867	-118
1.84233	-118
1.84600	-119
1.84967	-119
1.85333	-119
1.85700	-118
1.86067	-118
1.86433	-118
1.86800	-118
1.87167	-117
1.87533	-118
1.87900	-118
1.88267	-117
1.88633	-117
1.89000	-117
1.89367	-117
1.89733	-117
1.90100	-116
1.90467	-116
1.90833	-115
1.91200	-115
1.91567	-115
1.91933	-115
1.92300	-115
1.92667	-115
1.93033	-115
1.93400	-115
1.93767	-115
1.94133	-115
1.94500	-115
1.94867	-115
1.95233	-115
1.95600	-114
1.95967	-114
1.96333	-113
1.96700	-113
1.97067	-112
1.97433	-111
1.97800	-109
1.98167	-108
1.98533	-108
1.98900	-108
1.99267	-108
1.99633	-108
2.00000	-109
2.00367	-110
2.00733	-110
2.01100	-110
2.01467	-110
2.01833	-110
2.02200	-110
2.02567	-110
2.02933	-110
2.03300	-110
2.03667	-110
2.04033	-109
2.04400	-109
2.04767	-108
2.05133	-108
2.05500	-107
2.05867	-107
2.06233	-106
2.06600	-106
2.06967	-105
2.07333	-105
2.07700	-104
2.08067	-104
2.08433	-103
2.08800	-103
2.09167	-103
2.09533	-103
2.09900	-103
2.10267	-103
2.10633	-103
2.11000	-103
2.11367	-103
2.11733	-103
2.12100	-103
2.12467	-102
2.12833	-102
2.13200	-102
2.13567	-101
2.13933	-101
2.14300	-101
2.14667	-101
2.15033	-101
2.15400	-101
2.15767	-101
2.16133	-100
2.16500	-100
2.16867	-100
2.17233	-99
2.17600	-98
2.17967	-98
2.18333	-97
2.18700	-97
2.19067	-96
2.19433	-97
2.19800	-97
2.20167	-97
2.20533	-98
2.20900	-98
2.21267	-98
2.21633	-98
2.22000	-98
2.22367	-97
2.22733	-96
2.23100	-95
2.23467	-94
2.23833	-93
2.24200	-93
2.24567	-92
2.24933	-92
2.25300	-92
2.25667	-92
2.26033	-91
2.26400	-91
2.26767	-90
2.27133	-89
2.27500	-88
2.27867	-88
2.28233	-89
2.28600	-89
2.28967	-90
2.29333	-90
2.29700	-90
2.30067	-90
2.30433	-89
2.30800	-88
2.31167	-86
2.31533	-85
2.31900	-84
2.32267	-84
2.32633	-84
2.33000	-84
2.33367	-85
2.33733	-86
2.34100	-87
2.34467	-87
2.34833	-87
2.35200	-86
2.35567	-85
2.35933	-84
2.36300	-81
2.36667	-79
2.37033	-76
2.37400	-72
2.37767	-69
2.38133	-65
2.38500	-61
2.38867	-57
2.39233	-53
2.39600	-49
2.39967	-45
2.40333	-41
2.40700	-38
2.41067	-34
2.41433	-31
2.41800	-28
2.42167	-26
2.42533	-24
2.42900	-22
2.43267	-20
2.43633	-18
2.44000	-16
2.44367	-14
2.44733	-12
2.45100	-10
2.45467	-8
2.45833	-7
2.46200	-5
2.46567	-4
2.46933	-3
2.47300	-1
2.47667	0
2.48033	2
2.48400	3
2.48767	4
2.49133	5
2.49500	5
2.49867	6
2.50233	6
2.50600	6
2.50967	6
2.51333	7
2.51700	8
2.52067	9
2.52433	10
2.52800	11
2.53167	11
2.53533	11
2.53900	11
2.54267	11
2.54633	11
2.55000	11
2.55367	11
2.55733	11
2.56100	11
2.56467	11
2.56833	11
2.57200	11
2.57567	11
2.57933	11
2.58300	11
2.58667	12
2.59033	12
2.59400	12
2.59767	12
2.60133	13
2.60500	14
2.60867	15
2.61233	15
2.61600	16
2.61967	16
2.62333	16
2.62700	16
2.63067	16
2.63433	16
2.63800	16
2.64167	16
2.64533	16
2.64900	16
2.65267	17
2.65633	17
2.66000	17
2.66367	18
2.66733	18
2.67100	19
2.67467	19
2.67833	20
2.68200	20
2.68567	20
2.68933	20
2.69300	20
2.69667	21
2.70033	21
2.70400	21
2.70767	22
2.71133	22
2.71500	22
2.71867	22
2.72233	22
2.72600	23
2.72967	23
2.73333	24
2.73700	24
2.74067	25
2.74433	25
2.74800	25
2.75167	24
2.75533	24
2.75900	24
2.76267	23
2.76633	23
2.77000	23
2.77367	23
2.77733	23
2.78100	23
2.78467	23
2.78833	23
2.79200	24
2.79567	24
2.79933	25
2.80300	25
2.80667	25
2.81033	26
2.81400	26
2.81767	26
2.82133	26
2.82500	26
2.82867	26
2.83233	25
2.83600	24
2.83967	23
2.84333	20
2.84700	15
2.85067	8
2.85433	-1
2.85800	-15
2.86167	-32
2.86533	-53
2.86900	-78
2.87267	-108
2.87633	-142
2.88000	-180
2.88367	-221
2.88733	-266
2.89100	-313
2.89467	-363
2.89833	-414
2.90200	-467
2.90567	-521
2.90933	-575
2.91300	-629
2.91667	-683
2.92033	-736
2.92400	-788
2.92767	-840
2.93133	-893
2.93500	-951
2.93867	-1011
2.94233	-1065
2.94600	-1103
2.94967	-1115
2.95333	-1102
2.95700	-1064
2.96067	-1007
2.96433	-937
2.96800	-859
2.97167	-778
2.97533	-697
2.97900	-619
2.98267	-545
2.98633	-477
2.99000	-415
2.99367	-359
2.99733	-310
3.00100	-266
3.00467	-228
3.00833	-194
3.01200	-165
3.01567	-139
3.01933	-117
3.02300	-98
3.02667	-82
3.03033	-68
3.03400	-56
3.03767	-46
3.04133	-38
3.04500	-31
3.04867	-24
3.05233	-19
3.05600	-15
3.05967	-11
3.06333	-8
3.06700	-5
3.07067	-3
3.07433	-1
3.07800	1
3.08167	3
3.08533	5
3.08900	6
3.09267	8
3.09633	9
3.10000	10
3.10367	11
3.10733	11
3.11100	12
3.11467	13
3.11833	13
3.12200	14
3.12567	14
3.12933	14
3.13300	15
3.13667	15
3.14033	15
3.14400	15
3.14767	15
3.15133	15
3.15500	15
3.15867	15
3.16233	15
3.16600	15
3.16967	16
3.17333	16
3.17700	16
3.18067	17
3.18433	17
3.18800	17
3.19167	18
3.19533	18
3.19900	18
3.20267	19
3.20633	19
3.21000	18
3.21367	18
3.21733	18
3.22100	18
3.22467	18
3.22833	18
3.23200	19
3.23567	19
3.23933	19
3.24300	19
3.24667	19
3.25033	19
3.25400	20
3.25767	20
3.26133	20
3.26500	20
3.26867	21
3.27233	21
3.27600	21
3.27967	21
3.28333	22
3.28700	22
3.29067	22
3.29433	22
3.29800	22
3.30167	22
3.30533	22
3.30900	22
3.31267	22
3.31633	22
3.32000	22
3.32367	22
3.32733	22
3.33100	22
3.33467	23
3.33833	23
3.34200	23
3.34567	23
3.34933	24
3.35300	24
3.35667	24
3.36033	24
3.36400	24
3.36767	24
3.37133	24
3.37500	24
3.37867	24
3.38233	24
3.38600	24
3.38967	24
3.39333	25
3.39700	25
3.40067	25
3.40433	25
3.40800	26
3.41167	26
3.41533	26
3.41900	27
3.42267	27
3.42633	27
3.43000	27
3.43367	28
3.43733	28
3.44100	28
3.44467	28
3.44833	28
3.45200	28
3.45567	29
3.45933	29
3.46300	29
3.46667	29
3.47033	29
3.47400	28
3.47767	28
3.48133	28
3.48500	28
3.48867	27
3.49233	27
3.49600	27
3.49967	26
3.50333	26
3.50700	26
3.51067	25
3.51433	25
3.51800	25
3.52167	25
3.52533	25
3.52900	24
3.53267	24
3.53633	24
3.54000	24
3.54367	24
3.54733	24
3.55100	24
3.55467	25
3.55833	25
3.56200	25
3.56567	25
3.56933	25
3.57300	25
3.57667	25
3.58033	25
3.58400	24
3.58767	24
3.59133	25
3.59500	25
3.59867	25
3.60233	25
3.60600	25
3.60967	25
3.61333	25
3.61700	25
3.62067	25
3.62433	25
3.62800	25
3.63167	25
3.63533	25
3.63900	25
3.64267	25
3.64633	25
3.65000	25
3.65367	25
3.65733	26
3.66100	26
3.66467	26
3.66833	26
3.67200	26
3.67567	26
3.67933	26
3.68300	25
3.68667	25
3.69033	25
3.69400	25
3.69767	25
3.70133	25
3.70500	25
3.70867	25
3.71233	25
3.71600	25
3.71967	25
3.72333	25
3.72700	24
3.73067	24
3.73433	24
3.73800	23
3.74167	23
3.74533	23
3.74900	23
3.75267	23
3.75633	23
3.76000	23
3.76367	23
3.76733	23
3.77100	23
3.77467	23
3.77833	23
3.78200	24
3.78567	24
3.78933	24
3.79300	24
3.79667	24
3.80033	24
3.80400	24
3.80767	24
3.81133	24
3.81500	24
3.81867	24
3.82233	24
3.82600	23
3.82967	24
3.83333	24
3.83700	24
3.84067	24
3.84433	24
3.84800	24
3.85167	24
3.85533	24
3.85900	23
3.86267	23
3.86633	23
3.87000	23
3.87367	23
3.87733	22
3.88100	22
3.88467	22
3.88833	22
3.89200	22
3.89567	22
3.89933	23
3.90300	23
3.90667	23
3.91033	23
3.91400	24
3.91767	24
3.92133	24
3.92500	24
3.92867	24
3.93233	24
3.93600	24
3.93967	24
3.94333	24
3.94700	24
3.95067	25
3.95433	25
3.95800	25
3.96167	25
3.96533	25
3.96900	25
3.97267	25
3.97633	25
3.98000	25
3.98367	25
3.98733	25
3.99100	26
3.99467	26
3.99833	26

[Chromatogram (Ch3)]
Interval(msec)	220
# of Points	1091
Start Time(min)	0.002
End Time(min)	3.998
R.Time (min)	Intensity
0.00167	-0
0.00533	-0
0.00900	-0
0.01267	-0
0.01633	-1
0.02000	-2
0.02367	-2
0.02733	-0
0.03100	-2
0.03467	-3
0.03833	-3
0.04200	-4
0.04567	-6
0.04933	-7
0.05300	-7
0.05667	-6
0.06033	-5
0.06400	-5
0.06767	-4
0.07133	-6
0.07500	-8
0.07867	-8
0.08233	-8
0.08600	-6
0.08967	-4
0.09333	-2
0.09700	-1
0.10067	1
0.10433	-1
0.10800	-1
0.11167	-2
0.11533	-5
0.11900	-5
0.12267	-6
0.12633	-7
0.13000	-8
0.13367	-8
0.13733	-7
0.14100	-9
0.14467	-10
0.14833	-10
0.15200	-9
0.15567	-7
0.15933	-9
0.16300	-10
0.16667	-9
0.17033	-8
0.17400	-9
0.17767	-9
0.18133	-8
0.18500	-6
0.18867	-5
0.19233	-6
0.19600	-7
0.19967	-7
0.20333	-7
0.20700	-7
0.21067	-5
0.21433	-4
0.21800	-5
0.22167	-5
0.22533	-6
0.22900	-8
0.23267	-10
0.23633	-12
0.24000	-12
0.24367	-12
0.24733	-12
0.25100	-12
0.25467	-11
0.25833	-11
0.26200	-10
0.26567	-9
0.26933	-8
0.27300	-7
0.27667	-9
0.28033	-10
0.28400	-10
0.28767	-12
0.29133	-15
0.29500	-17
0.29867	-17
0.30233	-14
0.30600	-14
0.30967	-13
0.31333	-12
0.31700	-13
0.32067	-13
0.32433	-12
0.32800	-11
0.33167	-10
0.33533	-11
0.33900	-11
0.34267	-8
0.34633	-6
0.35000	-5
0.35367	-5
0.35733	-6
0.36100	-7
0.36467	-7
0.36833	-7
0.37200	-6
0.37567	-6
0.37933	-6
0.38300	-7
0.38667	-8
0.39033	-7
0.39400	-8
0.39767	-8
0.40133	-8
0.40500	-8
0.40867	-7
0.41233	-8
0.41600	-6
0.41967	-3
0.42333	-2
0.42700	-4
0.43067	-6
0.43433	-8
0.43800	-8
0.44167	-7
0.44533	-3
0.44900	-1
0.45267	-1
0.45633	0
0.46000	2
0.46367	2
0.46733	0
0.47100	-2
0.47467	-3
0.47833	-6
0.48200	-6
0.48567	-5
0.48933	-3
0.49300	-1
0.49667	-0
0.50033	-1
0.50400	-1
0.50767	-1
0.51133	-2
0.51500	-2
0.51867	-2
0.52233	0
0.52600	1
0.52967	-0
0.53333	-2
0.53700	-3
0.54067	-2
0.54433	-3
0.54800	-5
0.55167	-6
0.55533	-6
0.55900	-7
0.56267	-8
0.56633	-7
0.57000	-4
0.57367	-2
0.57733	-1
0.58100	-2
0.58467	-2
0.58833	-2
0.59200	-1
0.59567	-2
0.59933	-2
0.60300	0
0.60667	1
0.61033	0
0.61400	1
0.61767	4
0.62133	6
0.62500	6
0.62867	4
0.63233	2
0.63600	2
0.63967	3
0.64333	6
0.64700	5
0.65067	3
0.65433	4
0.65800	5
0.66167	4
0.66533	5
0.66900	6
0.67267	5
0.67633	4
0.68000	4
0.68367	2
0.68733	1
0.69100	3
0.69467	5
0.69833	4
0.70200	4
0.70567	5
0.70933	5
0.71300	6
0.71667	8
0.72033	12
0.72400	13
0.72767	12
0.73133	10
0.73500	8
0.73867	7
0.74233	9
0.74600	10
0.74967	10
0.75333	12
0.75700	11
0.76067	11
0.76433	12
0.76800	10
0.77167	9
0.77533	9
0.77900	7
0.78267	7
0.78633	9
0.79000	10
0.79367	9
0.79733	8
0.80100	8
0.80467	8
0.80833	7
0.81200	8
0.81567	12
0.81933	13
0.82300	11
0.82667	8
0.83033	8
0.83400	11
0.83767	15
0.84133	16
0.84500	17
0.84867	17
0.85233	17
0.85600	16
0.85967	16
0.86333	15
0.86700	13
0.87067	14
0.87433	17
0.87800	17
0.88167	18
0.88533	19
0.88900	18
0.89267	16
0.89633	14
0.90000	12
0.90367	13
0.90733	14
0.91100	14
0.91467	13
0.91833	12
0.92200	12
0.92567	14
0.92933	16
0.93300	18
0.93667	18
0.94033	19
0.94400	19
0.94767	17
0.95133	16
0.95500	15
0.95867	17
0.96233	19
0.96600	20
0.96967	22
0.97333	21
0.97700	18
0.98067	19
0.98433	22
0.98800	21
0.99167	21
0.99533	20
0.99900	18
1.00267	19
1.00633	21
1.01000	23
1.01367	23
1.01733	23
1.02100	22
1.02467	21
1.02833	23
1.03200	24
1.03567	21
1.03933	22
1.04300	24
1.04667	24
1.05033	24
1.05400	25
1.05767	28
1.06133	30
1.06500	32
1.06867	31
1.07233	30
1.07600	26
1.07967	23
1.08333	24
1.08700	26
1.09067	28
1.09433	30
1.09800	28
1.10167	26
1.10533	26
1.10900	26
1.11267	26
1.11633	28
1.12000	29
1.12367	28
1.12733	28
1.13100	28
1.13467	30
1.13833	30
1.14200	30
1.14567	29
1.14933	31
1.15300	32
1.15667	33
1.16033	32
1.16400	33
1.16767	35
1.17133	35
1.17500	35
1.17867	34
1.18233	33
1.18600	32
1.18967	34
1.19333	35
1.19700	38
1.20067	38
1.20433	38
1.20800	40
1.21167	40
1.21533	38
1.21900	35
1.22267	33
1.22633	34
1.23000	34
1.23367	36
1.23733	37
1.24100	36
1.24467	36
1.24833	37
1.25200	39
1.25567	40
1.25933	40
1.26300	39
1.26667	38
1.27033	39
1.27400	39
1.27767	38
1.28133	39
1.28500	40
1.28867	44
1.29233	48
1.29600	47
1.29967	47
1.30333	47
1.30700	46
1.31067	47
1.31433	48
1.31800	46
1.32167	46
1.32533	48
1.32900	49
1.33267	49
1.33633	48
1.34000	47
1.34367	46
1.34733	48
1.35100	50
1.35467	52
1.35833	53
1.36200	53
1.36567	53
1.36933	52
1.37300	53
1.37667	52
1.38033	51
1.38400	50
1.38767	48
1.39133	49
1.39500	51
1.39867	51
1.40233	50
1.40600	50
1.40967	48
1.41333	47
1.41700	48
1.42067	49
1.42433	48
1.42800	48
1.43167	51
1.43533	51
1.43900	51
1.44267	53
1.44633	53
1.45000	53
1.45367	53
1.45733	55
1.46100	57
1.46467	58
1.46833	58
1.47200	58
1.47567	56
1.47933	57
1.48300	58
1.48667	58
1.49033	57
1.49400	57
1.49767	57
1.50133	56
1.50500	54
1.50867	55
1.51233	56
1.51600	57
1.51967	58
1.52333	59
1.52700	59
1.53067	58
1.53433	56
1.53800	57
1.54167	60
1.54533	62
1.54900	63
1.55267	62
1.55633	59
1.56000	57
1.56367	57
1.56733	59
1.57100	60
1.57467	59
1.57833	59
1.58200	62
1.58567	62
1.58933	60
1.59300	57
1.59667	52
1.60033	50
1.60400	49
1.60767	50
1.61133	53
1.61500	55
1.61867	54
1.62233	53
1.62600	51
1.62967	52
1.63333	55
1.63700	58
1.64067	58
1.64433	57
1.64800	56
1.65167	56
1.65533	56
1.65900	56
1.66267	56
1.66633	57
1.67000	58
1.67367	57
1.67733	56
1.68100	55
1.68467	57
1.68833	57
1.69200	57
1.69567	57
1.69933	56
1.70300	57
1.70667	56
1.71033	57
1.71400	58
1.71767	60
1.72133	62
1.72500	64
1.72867	66
1.73233	68
1.73600	69
1.73967	69
1.74333	65
1.74700	62
1.75067	61
1.75433	62
1.75800	65
1.76167	67
1.76533	68
1.76900	69
1.77267	71
1.77633	71
1.78000	71
1.78367	72
1.78733	72
1.79100	72
1.79467	73
1.79833	75
1.80200	78
1.80567	78
1.80933	75
1.81300	75
1.81667	75
1.82033	74
1.82400	73
1.82767	73
1.83133	74
1.83500	76
1.83867	76
1.84233	80
1.84600	83
1.84967	86
1.85333	86
1.85700	83
1.86067	83
1.86433	84
1.86800	85
1.87167	86
1.87533	86
1.87900	84
1.88267	82
1.88633	81
1.89000	81
1.89367	80
1.89733	81
1.90100	84
1.90467	87
1.90833	89
1.91200	89
1.91567	87
1.91933	85
1.92300	86
1.92667	87
1.93033	89
1.93400	93
1.93767	93
1.94133	92
1.94500	90
1.94867	89
1.95233	90
1.95600	93
1.95967	94
1.96333	95
1.96700	95
1.97067	96
1.97433	95
1.97800	96
1.98167	97
1.98533	98
1.98900	98
1.99267	98
1.99633	97
2.00000	98
2.00367	98
2.00733	99
2.01100	101
2.01467	104
2.01833	104
2.02200	106
2.02567	107
2.02933	108
2.03300	107
2.03667	105
2.04033	103
2.04400	103
2.04767	104
2.05133	106
2.05500	107
2.05867	106
2.06233	106
2.06600	108
2.06967	109
2.07333	110
2.07700	109
2.08067	107
2.08433	107
2.08800	109
2.09167	113
2.09533	115
2.09900	116
2.10267	116
2.10633	115
2.11000	115
2.11367	117
2.11733	118
2.12100	117
2.12467	114
2.12833	112
2.13200	112
2.13567	115
2.13933	116
2.14300	117
2.14667	118
2.15033	118
2.15400	118
2.15767	118
2.16133	120
2.16500	120
2.16867	120
2.17233	120
2.17600	121
2.17967	122
2.18333	123
2.18700	123
2.19067	122
2.19433	123
2.19800	123
2.20167	123
2.20533	124
2.20900	124
2.21267	125
2.21633	128
2.22000	131
2.22367	135
2.22733	138
2.23100	139
2.23467	141
2.23833	144
2.24200	144
2.24567	146
2.24933	145
2.25300	143
2.25667	141
2.26033	141
2.26400	142
2.26767	143
2.27133	145
2.27500	148
2.27867	149
2.28233	149
2.28600	150
2.28967	152
2.29333	154
2.29700	154
2.30067	151
2.30433	150
2.30800	151
2.31167	152
2.31533	154
2.31900	158
2.32267	162
2.32633	165
2.33000	167
2.33367	168
2.33733	169
2.34100	172
2.34467	177
2.34833	180
2.35200	182
2.35567	181
2.35933	182
2.36300	182
2.36667	181
2.37033	181
2.37400	182
2.37767	182
2.38133	183
2.38500	183
2.38867	184
2.39233	184
2.39600	186
2.39967	189
2.40333	188
2.40700	187
2.41067	190
2.41433	194
2.41800	197
2.42167	199
2.42533	200
2.42900	201
2.43267	203
2.43633	204
2.44000	206
2.44367	230
2.44733	295
2.45100	366
2.45467	424
2.45833	466
2.46200	479
2.46567	467
2.46933	449
2.47300	431
2.47667	416
2.48033	408
2.48400	404
2.48767	396
2.49133	385
2.49500	369
2.49867	353
2.50233	339
2.50600	326
2.50967	318
2.51333	313
2.51700	309
2.52067	306
2.52433	304
2.52800	306
2.53167	312
2.53533	319
2.53900	325
2.54267	330
2.54633	333
2.55000	334
2.55367	333
2.55733	330
2.56100	325
2.56467	319
2.56833	313
2.57200	307
2.57567	300
2.57933	293
2.58300	290
2.58667	290
2.59033	287
2.59400	283
2.59767	279
2.60133	269
2.60500	253
2.60867	236
2.61233	215
2.61600	194
2.61967	177
2.62333	161
2.62700	146
2.63067	133
2.63433	122
2.63800	115
2.64167	112
2.64533	112
2.64900	114
2.65267	119
2.65633	124
2.66000	130
2.66367	136
2.66733	145
2.67100	156
2.67467	166
2.67833	177
2.68200	186
2.68567	194
2.68933	198
2.69300	205
2.69667	210
2.70033	211
2.70400	214
2.70767	219
2.71133	223
2.71500	225
2.71867	224
2.72233	224
2.72600	223
2.72967	223
2.73333	226
2.73700	227
2.74067	226
2.74433	227
2.74800	228
2.75167	229
2.75533	230
2.75900	231
2.76267	232
2.76633	233
2.77000	235
2.77367	238
2.77733	239
2.78100	239
2.78467	238
2.78833	236
2.79200	234
2.79567	234
2.79933	235
2.80300	234
2.80667	232
2.81033	233
2.81400	238
2.81767	244
2.82133	260
2.82500	297
2.82867	373
2.83233	506
2.83600	722
2.83967	1031
2.84333	1439
2.84700	1934
2.85067	2489
2.85433	3066
2.85800	3619
2.86167	4099
2.86533	4475
2.86900	4717
2.87267	4816
2.87633	4783
2.88000	4637
2.88367	4404
2.88733	4112
2.89100	3785
2.89467	3446
2.89833	3110
2.90200	2786
2.90567	2483
2.90933	2207
2.91300	1957
2.91667	1735
2.92033	1540
2.92400	1366
2.92767	1212
2.93133	1075
2.93500	958
2.93867	856
2.94233	767
2.94600	691
2.94967	624
2.95333	567
2.95700	518
2.96067	478
2.96433	445
2.96800	416
2.97167	391
2.97533	368
2.97900	348
2.98267	331
2.98633	317
2.99000	303
2.99367	290
2.99733	279
3.00100	272
3.00467	268
3.00833	262
3.01200	254
3.01567	247
3.01933	242
3.02300	239
3.02667	236
3.03033	233
3.03400	231
3.03767	229
3.04133	227
3.04500	225
3.04867	222
3.05233	219
3.05600	217
3.05967	216
3.06333	214
3.06700	212
3.07067	210
3.07433	209
3.07800	208
3.08167	206
3.08533	205
3.08900	201
3.09267	193
3.09633	175
3.10000	146
3.10367	133
3.10733	144
3.11100	172
3.11467	210
3.11833	253
3.12200	295
3.12567	336
3.12933	376
3.13300	413
3.13667	448
3.14033	480
3.14400	511
3.14767	541
3.15133	567
3.15500	589
3.15867	608
3.16233	626
3.16600	642
3.16967	657
3.17333	672
3.17700	685
3.18067	693
3.18433	698
3.18800	702
3.19167	707
3.19533	713
3.19900	718
3.20267	720
3.20633	726
3.21000	733
3.21367	737
3.21733	740
3.22100	743
3.22467	746
3.22833	748
3.23200	750
3.23567	752
3.23933	752
3.24300	751
3.24667	751
3.25033	752
3.25400	753
3.25767	754
3.26133	757
3.26500	757
3.26867	752
3.27233	749
3.27600	748
3.27967	744
3.28333	739
3.28700	735
3.29067	731
3.29433	727
3.29800	723
3.30167	718
3.30533	714
3.30900	708
3.31267	701
3.31633	696
3.32000	695
3.32367	691
3.32733	687
3.33100	682
3.33467	677
3.33833	673
3.34200	668
3.34567	662
3.34933	655
3.35300	651
3.35667	649
3.36033	647
3.36400	641
3.36767	636
3.37133	633
3.37500	632
3.37867	633
3.38233	632
3.38600	631
3.38967	628
3.39333	624
3.39700	623
3.40067	620
3.40433	618
3.40800	618
3.41167	617
3.41533	615
3.41900	613
3.42267	614
3.42633	613
3.43000	611
3.43367	609
3.43733	606
3.44100	604
3.44467	602
3.44833	602
3.45200	603
3.45567	602
3.45933	599
3.46300	595
3.46667	592
3.47033	589
3.47400	587
3.47767	587
3.48133	585
3.48500	582
3.48867	578
3.49233	576
3.49600	576
3.49967	577
3.50333	576
3.50700	574
3.51067	571
3.51433	568
3.51800	565
3.52167	563
3.52533	561
3.52900	558
3.53267	555
3.53633	554
3.54000	556
3.54367	556
3.54733	558
3.55100	557
3.55467	555
3.55833	552
3.56200	548
3.56567	545
3.56933	541
3.57300	535
3.57667	533
3.58033	533
3.58400	531
3.58767	529
3.59133	526
3.59500	524
3.59867	524
3.60233	523
3.60600	523
3.60967	522
3.61333	518
3.61700	515
3.62067	513
3.62433	511
3.62800	510
3.63167	508
3.63533	505
3.63900	501
3.64267	499
3.64633	499
3.65000	497
3.65367	493
3.65733	489
3.66100	488
3.66467	489
3.66833	488
3.67200	485
3.67567	485
3.67933	487
3.68300	488
3.68667	485
3.69033	483
3.69400	480
3.69767	474
3.70133	471
3.70500	472
3.70867	471
3.71233	470
3.71600	469
3.71967	465
3.72333	461
3.72700	460
3.73067	462
3.73433	462
3.73800	460
3.74167	457
3.74533	456
3.74900	459
3.75267	460
3.75633	460
3.76000	458
3.76367	455
3.76733	452
3.77100	449
3.77467	448
3.77833	448
3.78200	447
3.78567	447
3.78933	447
3.79300	447
3.79667	447
3.80033	450
3.80400	450
3.80767	447
3.81133	443
3.81500	440
3.81867	439
3.82233	439
3.82600	440
3.82967	439
3.83333	438
3.83700	439
3.84067	438
3.84433	438
3.84800	439
3.85167	440
3.85533	438
3.85900	437
3.86267	434
3.86633	433
3.87000	432
3.87367	431
3.87733	431
3.88100	430
3.88467	430
3.88833	428
3.89200	427
3.89567	425
3.89933	427
3.90300	427
3.90667	426
3.91033	425
3.91400	424
3.91767	422
3.92133	421
3.92500	421
3.92867	422
3.93233	423
3.93600	424
3.93967	424
3.94333	424
3.94700	423
3.95067	421
3.95433	421
3.95800	420
3.96167	418
3.96533	414
3.96900	411
3.97267	412
3.97633	411
3.98000	410
3.98367	411
3.98733	411
3.99100	412
3.99467	412
3.99833	409

[Status Trace (Column Oven Temperature)]
Interval(msec)	1000
# of Points	240
Start Time(min)	0.009
End Time(min)	3.992
Intensity Units	
Intensity Multiplier	1
R.Time (min)	Intensity
0.00885	35.08
0.02552	35.09
0.04218	35.08
0.05885	35.06
0.07552	35.05
0.09218	35.03
0.10885	35.02
0.12552	35.01
0.14218	35.02
0.15885	35.03
0.17552	35.03
0.19218	35.03
0.20885	35.03
0.22552	35.03
0.24218	35.02
0.25885	35.01
0.27552	35.01
0.29218	35.01
0.30885	35.02
0.32552	35.01
0.34218	35.02
0.35885	35.03
0.37552	35.04
0.39218	35.03
0.40885	35.03
0.42552	35.02
0.44218	35.02
0.45885	35.02
0.47552	35.02
0.49218	35.01
0.50885	35.02
0.52552	35.02
0.54218	35.03
0.55885	35.02
0.57552	35.02
0.59218	35.02
0.60885	35.00
0.62552	34.98
0.64218	34.99
0.65885	34.99
0.67552	34.98
0.69218	34.98
0.70885	34.98
0.72552	34.99
0.74218	35.00
0.75885	35.00
0.77552	34.99
0.79218	35.00
0.80885	35.00
0.82552	35.00
0.84218	35.01
0.85885	35.02
0.87552	35.01
0.89218	35.01
0.90885	35.01
0.92552	35.00
0.94218	35.01
0.95885	35.01
0.97552	35.01
0.99218	35.00
1.00885	34.99
1.02552	34.98
1.04218	34.98
1.05885	34.98
1.07552	34.99
1.09218	34.99
1.10885	34.98
1.12552	34.99
1.14218	35.00
1.15885	34.99
1.17552	34.99
1.19218	34.99
1.20885	35.00
1.22552	35.00
1.24218	35.00
1.25885	35.01
1.27552	34.99
1.29218	34.99
1.30885	34.99
1.32552	34.99
1.34218	34.99
1.35885	34.98
1.37552	34.98
1.39218	34.99
1.40885	35.00
1.42552	35.00
1.44218	35.00
1.45885	35.01
1.47552	35.00
1.49218	35.00
1.50885	35.00
1.52552	35.00
1.54218	34.99
1.55885	35.00
1.57552	35.00
1.59218	35.01
1.60885	35.07
1.62552	35.19
1.64218	35.37
1.65885	35.63
1.67552	35.98
1.69218	36.34
1.70885	36.69
1.72552	37.04
1.74218	37.37
1.75885	37.68
1.77552	38.01
1.79218	38.35
1.80885	38.69
1.82552	39.00
1.84218	39.34
1.85885	39.66
1.87552	39.99
1.89218	40.32
1.90885	40.64
1.92552	40.96
1.94218	41.29
1.95885	41.62
1.97552	41.92
1.99218	42.25
2.00885	42.57
2.02552	42.91
2.04218	43.22
2.05885	43.55
2.07552	43.87
2.09218	44.20
2.10885	44.54
2.12552	44.85
2.14218	45.17
2.15885	45.52
2.17552	45.83
2.19218	46.17
2.20885	46.53
2.22552	46.85
2.24218	47.18
2.25885	47.50
2.27552	47.84
2.29218	48.20
2.30885	48.51
2.32552	48.84
2.34218	49.20
2.35885	49.46
2.37552	49.63
2.39218	49.68
2.40885	49.67
2.42552	49.69
2.44218	49.68
2.45885	49.71
2.47552	49.70
2.49218	49.72
2.50885	49.74
2.52552	49.73
2.54218	49.77
2.55885	49.78
2.57552	49.79
2.59218	49.82
2.60885	49.81
2.62552	49.82
2.64218	49.83
2.65885	49.84
2.67552	49.85
2.69218	49.85
2.70885	49.86
2.72552	49.85
2.74218	49.86
2.75885	49.87
2.77552	49.89
2.79218	49.88
2.80885	49.87
2.82552	49.87
2.84218	49.88
2.85885	49.88
2.87552	49.89
2.89218	49.92
2.90885	49.94
2.92552	49.95
2.94218	49.97
2.95885	49.98
2.97552	49.98
2.99218	49.99
3.00885	49.99
3.02552	49.99
3.04218	50.00
3.05885	50.01
3.07552	50.01
3.09218	50.02
3.10885	50.02
3.12552	50.03
3.14218	50.04
3.15885	50.05
3.17552	50.05
3.19218	50.07
3.20885	50.08
3.22552	50.08
3.24218	50.09
3.25885	50.09
3.27552	50.09
3.29218	50.09
3.30885	50.10
3.32552	50.11
3.34218	50.11
3.35885	50.11
3.37552	50.10
3.39218	50.08
3.40885	50.07
3.42552	50.05
3.44218	50.04
3.45885	50.02
3.47552	50.02
3.49218	50.02
3.50885	50.02
3.52552	50.03
3.54218	50.02
3.55885	50.02
3.57552	50.01
3.59218	50.02
3.60885	50.01
3.62552	50.01
3.64218	50.02
3.65885	50.00
3.67552	50.00
3.69218	50.00
3.70885	50.00
3.72552	50.01
3.74218	50.02
3.75885	50.02
3.77552	50.02
3.79218	50.03
3.80885	50.03
3.82552	50.03
3.84218	50.04
3.85885	50.05
3.87552	50.06
3.89218	50.05
3.90885	50.05
3.92552	50.05
3.94218	50.05
3.95885	50.05
3.97552	50.04
3.99218	50.04

[Status Trace (Injection Unit Temperature)]
Interval(msec)	1000
# of Points	240
Start Time(min)	0.009
End Time(min)	3.992
Intensity Units	
Intensity Multiplier	1
R.Time (min)	Intensity
0.00885	99.98
0.02552	99.97
0.04218	99.98
0.05885	99.98
0.07552	99.98
0.09218	99.98
0.10885	99.98
0.12552	99.98
0.14218	99.98
0.15885	99.98
0.17552	99.98
0.19218	99.98
0.20885	99.98
0.22552	99.98
0.24218	99.98
0.25885	99.98
0.27552	99.98
0.29218	99.98
0.30885	99.98
0.32552	99.98
0.34218	99.98
0.35885	99.98
0.37552	99.98
0.39218	99.98
0.40885	99.98
0.42552	99.98
0.44218	99.97
0.45885	99.98
0.47552	99.98
0.49218	99.99
0.50885	99.98
0.52552	99.99
0.54218	99.99
0.55885	99.98
0.57552	99.98
0.59218	99.99
0.60885	99.99
0.62552	99.99
0.64218	99.98
0.65885	99.98
0.67552	99.99
0.69218	99.99
0.70885	99.99
0.72552	99.99
0.74218	99.99
0.75885	99.99
0.77552	99.99
0.79218	99.98
0.80885	99.98
0.82552	99.99
0.84218	99.98
0.85885	99.99
0.87552	99.99
0.89218	99.98
0.90885	99.99
0.92552	99.98
0.94218	99.98
0.95885	99.99
0.97552	99.99
0.99218	99.99
1.00885	99.99
1.02552	99.99
1.04218	99.98
1.05885	99.98
1.07552	99.98
1.09218	99.99
1.10885	99.98
1.12552	99.98
1.14218	99.98
1.15885	99.97
1.17552	99.98
1.19218	99.98
1.20885	99.98
1.22552	99.98
1.24218	99.98
1.25885	99.98
1.27552	99.98
1.29218	99.98
1.30885	99.98
1.32552	99.98
1.34218	99.98
1.35885	99.98
1.37552	99.98
1.39218	99.97
1.40885	99.98
1.42552	99.98
1.44218	99.98
1.45885	99.98
1.47552	99.98
1.49218	99.98
1.50885	99.98
1.52552	99.98
1.54218	99.98
1.55885	99.98
1.57552	99.98
1.59218	99.98
1.60885	99.98
1.62552	99.97
1.64218	99.98
1.65885	99.98
1.67552	99.98
1.69218	99.98
1.70885	99.98
1.72552	99.98
1.74218	99.98
1.75885	99.98
1.77552	99.98
1.79218	99.98
1.80885	99.98
1.82552	99.98
1.84218	99.98
1.85885	99.98
1.87552	99.98
1.89218	99.98
1.90885	99.98
1.92552	99.98
1.94218	99.98
1.95885	99.98
1.97552	99.98
1.99218	99.98
2.00885	99.98
2.02552	99.97
2.04218	99.97
2.05885	99.97
2.07552	99.97
2.09218	99.97
2.10885	99.97
2.12552	99.97
2.14218	99.97
2.15885	99.97
2.17552	99.97
2.19218	99.97
2.20885	99.97
2.22552	99.97
2.24218	99.97
2.25885	99.97
2.27552	99.97
2.29218	99.97
2.30885	99.97
2.32552	99.96
2.34218	99.97
2.35885	99.97
2.37552	99.97
2.39218	99.97
2.40885	99.97
2.42552	99.97
2.44218	99.96
2.45885	99.97
2.47552	99.97
2.49218	99.97
2.50885	99.97
2.52552	99.97
2.54218	99.97
2.55885	99.97
2.57552	99.97
2.59218	99.97
2.60885	99.97
2.62552	99.98
2.64218	99.97
2.65885	99.98
2.67552	99.98
2.69218	99.98
2.70885	99.98
2.72552	99.98
2.74218	99.98
2.75885	99.98
2.77552	99.99
2.79218	99.98
2.80885	99.99
2.82552	99.99
2.84218	99.99
2.85885	99.99
2.87552	99.99
2.89218	99.99
2.90885	100.00
2.92552	100.00
2.94218	100.00
2.95885	100.00
2.97552	100.00
2.99218	100.01
3.00885	100.01
3.02552	100.00
3.04218	100.01
3.05885	100.01
3.07552	100.00
3.09218	100.01
3.10885	100.01
3.12552	100.01
3.14218	100.01
3.15885	100.02
3.17552	100.02
3.19218	100.01
3.20885	100.02
3.22552	100.02
3.24218	100.02
3.25885	100.02
3.27552	100.02
3.29218	100.02
3.30885	100.03
3.32552	100.02
3.34218	100.02
3.35885	100.02
3.37552	100.03
3.39218	100.03
3.40885	100.03
3.42552	100.03
3.44218	100.03
3.45885	100.03
3.47552	100.03
3.49218	100.03
3.50885	100.03
3.52552	100.03
3.54218	100.03
3.55885	100.03
3.57552	100.04
3.59218	100.04
3.60885	100.04
3.62552	100.04
3.64218	100.04
3.65885	100.04
3.67552	100.04
3.69218	100.04
3.70885	100.04
3.72552	100.04
3.74218	100.04
3.75885	100.04
3.77552	100.04
3.79218	100.04
3.80885	100.05
3.82552	100.04
3.84218	100.05
3.85885	100.04
3.87552	100.04
3.89218	100.04
3.90885	100.04
3.92552	100.05
3.94218	100.05
3.95885	100.04
3.97552	100.05
3.99218	100.05

[Status Trace (Carrier Gas Pressure)]
Interval(msec)	1000
# of Points	240
Start Time(min)	0.009
End Time(min)	3.992
Intensity Units	
Intensity Multiplier	1
R.Time (min)	Intensity
0.00885	58.00
0.02552	55.32
0.04218	57.24
0.05885	59.40
0.07552	59.35
0.09218	58.04
0.10885	57.98
0.12552	58.01
0.14218	58.01
0.15885	58.01
0.17552	58.00
0.19218	58.00
0.20885	58.00
0.22552	58.00
0.24218	58.00
0.25885	58.00
0.27552	58.00
0.29218	58.00
0.30885	58.00
0.32552	58.00
0.34218	58.00
0.35885	58.00
0.37552	58.00
0.39218	58.00
0.40885	58.00
0.42552	58.00
0.44218	58.00
0.45885	58.00
0.47552	58.00
0.49218	58.00
0.50885	58.00
0.52552	58.00
0.54218	58.00
0.55885	58.00
0.57552	58.00
0.59218	58.00
0.60885	58.00
0.62552	58.00
0.64218	58.00
0.65885	58.00
0.67552	58.00
0.69218	58.00
0.70885	58.00
0.72552	58.00
0.74218	58.00
0.75885	58.00
0.77552	58.00
0.79218	58.00
0.80885	58.00
0.82552	58.00
0.84218	58.00
0.85885	58.00
0.87552	58.00
0.89218	58.00
0.90885	58.00
0.92552	58.00
0.94218	58.00
0.95885	58.00
0.97552	58.00
0.99218	58.00
1.00885	58.00
1.02552	58.00
1.04218	58.00
1.05885	58.00
1.07552	58.00
1.09218	58.00
1.10885	58.00
1.12552	58.00
1.14218	58.00
1.15885	58.00
1.17552	58.00
1.19218	58.00
1.20885	58.00
1.22552	58.00
1.24218	58.00
1.25885	58.00
1.27552	58.00
1.29218	58.00
1.30885	58.00
1.32552	58.00
1.34218	58.00
1.35885	58.00
1.37552	58.00
1.39218	58.00
1.40885	58.00
1.42552	58.00
1.44218	58.00
1.45885	58.00
1.47552	58.00
1.49218	58.00
1.50885	58.00
1.52552	58.00
1.54218	58.00
1.55885	58.00
1.57552	58.00
1.59218	58.00
1.60885	58.00
1.62552	58.00
1.64218	58.00
1.65885	58.01
1.67552	58.01
1.69218	58.00
1.70885	58.00
1.72552	58.00
1.74218	58.00
1.75885	58.00
1.77552	58.00
1.79218	58.00
1.80885	58.00
1.82552	58.00
1.84218	58.00
1.85885	58.00
1.87552	58.00
1.89218	58.00
1.90885	58.00
1.92552	58.00
1.94218	58.00
1.95885	58.00
1.97552	58.00
1.99218	58.00
2.00885	58.00
2.02552	58.00
2.04218	58.00
2.05885	58.00
2.07552	58.00
2.09218	58.00
2.10885	58.00
2.12552	58.00
2.14218	58.00
2.15885	58.00
2.17552	58.00
2.19218	58.00
2.20885	58.00
2.22552	58.00
2.24218	58.00
2.25885	58.00
2.27552	58.00
2.29218	58.00
2.30885	58.00
2.32552	58.00
2.34218	58.00
2.35885	58.00
2.37552	57.99
2.39218	57.99
2.40885	57.99
2.42552	58.00
2.44218	58.00
2.45885	58.00
2.47552	58.00
2.49218	58.00
2.50885	58.00
2.52552	57.98
2.54218	58.00
2.55885	58.00
2.57552	58.00
2.59218	58.00
2.60885	58.00
2.62552	58.00
2.64218	58.00
2.65885	58.00
2.67552	58.00
2.69218	58.00
2.70885	58.00
2.72552	58.00
2.74218	58.00
2.75885	58.00
2.77552	58.00
2.79218	58.00
2.80885	58.00
2.82552	58.00
2.84218	58.00
2.85885	58.00
2.87552	58.00
2.89218	58.00
2.90885	58.00
2.92552	58.00
2.94218	58.00
2.95885	58.00
2.97552	58.00
2.99218	58.00
3.00885	58.00
3.02552	58.00
3.04218	58.00
3.05885	58.00
3.07552	58.00
3.09218	58.00
3.10885	58.00
3.12552	58.00
3.14218	58.00
3.15885	58.00
3.17552	58.00
3.19218	58.00
3.20885	58.00
3.22552	58.00
3.24218	58.00
3.25885	58.00
3.27552	58.00
3.29218	58.00
3.30885	58.00
3.32552	58.00
3.34218	58.00
3.35885	58.00
3.37552	58.00
3.39218	58.00
3.40885	58.00
3.42552	58.00
3.44218	58.00
3.45885	58.00
3.47552	58.00
3.49218	58.00
3.50885	58.00
3.52552	58.00
3.54218	58.00
3.55885	58.00
3.57552	58.00
3.59218	58.00
3.60885	58.00
3.62552	58.00
3.64218	58.00
3.65885	58.00
3.67552	58.00
3.69218	58.00
3.70885	58.00
3.72552	58.00
3.74218	58.00
3.75885	58.00
3.77552	58.00
3.79218	58.00
3.80885	58.00
3.82552	58.00
3.84218	58.00
3.85885	58.00
3.87552	58.00
3.89218	58.00
3.90885	58.00
3.92552	58.00
3.94218	58.00
3.95885	58.00
3.97552	58.00
3.99218	58.00

[Status Trace (Carrier Gas Flow)]
Interval(msec)	1000
# of Points	240
Start Time(min)	0.009
End Time(min)	3.992
Intensity Units	
Intensity Multiplier	1
R.Time (min)	Intensity
0.00885	34.52
0.02552	34.53
0.04218	34.55
0.05885	34.55
0.07552	34.50
0.09218	34.52
0.10885	34.52
0.12552	34.52
0.14218	34.52
0.15885	34.52
0.17552	34.52
0.19218	34.52
0.20885	34.52
0.22552	34.52
0.24218	34.51
0.25885	34.52
0.27552	34.52
0.29218	34.52
0.30885	34.52
0.32552	34.52
0.34218	34.52
0.35885	34.52
0.37552	34.52
0.39218	34.52
0.40885	34.52
0.42552	34.52
0.44218	34.52
0.45885	34.52
0.47552	34.52
0.49218	34.52
0.50885	34.52
0.52552	34.52
0.54218	34.52
0.55885	34.52
0.57552	34.52
0.59218	34.52
0.60885	34.52
0.62552	34.52
0.64218	34.52
0.65885	34.52
0.67552	34.52
0.69218	34.52
0.70885	34.52
0.72552	34.52
0.74218	34.52
0.75885	34.52
0.77552	34.52
0.79218	34.52
0.80885	34.52
0.82552	34.52
0.84218	34.52
0.85885	34.52
0.87552	34.52
0.89218	34.52
0.90885	34.52
0.92552	34.52
0.94218	34.52
0.95885	34.52
0.97552	34.52
0.99218	34.52
1.00885	34.52
1.02552	34.52
1.04218	34.52
1.05885	34.52
1.07552	34.52
1.09218	34.52
1.10885	34.52
1.12552	34.52
1.14218	34.52
1.15885	34.52
1.17552	34.52
1.19218	34.52
1.20885	34.52
1.22552	34.52
1.24218	34.52
1.25885	34.52
1.27552	34.52
1.29218	34.52
1.30885	34.52
1.32552	34.52
1.34218	34.52
1.35885	34.52
1.37552	34.52
1.39218	34.52
1.40885	34.52
1.42552	34.52
1.44218	34.52
1.45885	34.52
1.47552	34.52
1.49218	34.52
1.50885	34.52
1.52552	34.52
1.54218	34.52
1.55885	34.52
1.57552	34.52
1.59218	34.52
1.60885	34.52
1.62552	34.52
1.64218	34.52
1.65885	34.52
1.67552	34.52
1.69218	34.52
1.70885	34.52
1.72552	34.52
1.74218	34.52
1.75885	34.52
1.77552	34.52
1.79218	34.52
1.80885	34.52
1.82552	34.52
1.84218	34.52
1.85885	34.52
1.87552	34.52
1.89218	34.51
1.90885	34.52
1.92552	34.52
1.94218	34.52
1.95885	34.52
1.97552	34.52
1.99218	34.52
2.00885	34.52
2.02552	34.53
2.04218	34.52
2.05885	34.52
2.07552	34.52
2.09218	34.52
2.10885	34.52
2.12552	34.52
2.14218	34.52
2.15885	34.52
2.17552	34.51
2.19218	34.52
2.20885	34.52
2.22552	34.52
2.24218	34.52
2.25885	34.52
2.27552	34.52
2.29218	34.52
2.30885	34.52
2.32552	34.52
2.34218	34.52
2.35885	34.52
2.37552	34.52
2.39218	34.51
2.40885	34.52
2.42552	34.52
2.44218	34.52
2.45885	34.52
2.47552	34.52
2.49218	34.52
2.50885	34.50
2.52552	34.52
2.54218	34.52
2.55885	34.52
2.57552	34.52
2.59218	34.52
2.60885	34.52
2.62552	34.52
2.64218	34.52
2.65885	34.52
2.67552	34.52
2.69218	34.52
2.70885	34.52
2.72552	34.52
2.74218	34.52
2.75885	34.52
2.77552	34.52
2.79218	34.52
2.80885	34.52
2.82552	34.52
2.84218	34.52
2.85885	34.52
2.87552	34.52
2.89218	34.52
2.90885	34.52
2.92552	34.52
2.94218	34.52
2.95885	34.52
2.97552	34.52
2.99218	34.52
3.00885	34.52
3.02552	34.52
3.04218	34.52
3.05885	34.52
3.07552	34.52
3.09218	34.52
3.10885	34.52
3.12552	34.52
3.14218	34.52
3.15885	34.52
3.17552	34.52
3.19218	34.52
3.20885	34.52
3.22552	34.52
3.24218	34.52
3.25885	34.52
3.27552	34.52
3.29218	34.52
3.30885	34.52
3.32552	34.52
3.34218	34.52
3.35885	34.52
3.37552	34.52
3.39218	34.52
3.40885	34.52
3.42552	34.52
3.44218	34.52
3.45885	34.52
3.47552	34.52
3.49218	34.52
3.50885	34.52
3.52552	34.52
3.54218	34.52
3.55885	34.52
3.57552	34.52
3.59218	34.52
3.60885	34.52
3.62552	34.52
3.64218	34.52
3.65885	34.52
3.67552	34.52
3.69218	34.52
3.70885	34.52
3.72552	34.52
3.74218	34.52
3.75885	34.52
3.77552	34.52
3.79218	34.52
3.80885	34.52
3.82552	34.52
3.84218	34.52
3.85885	34.52
3.87552	34.52
3.89218	34.52
3.90885	34.52
3.92552	34.52
3.94218	34.52
3.95885	34.52
3.97552	34.52
3.99218	34.52

[Status Trace (Column Flow)]
Interval(msec)	1000
# of Points	240
Start Time(min)	0.009
End Time(min)	3.992
Intensity Units	
Intensity Multiplier	1
R.Time (min)	Intensity
0.00885	5.57
0.02552	5.26
0.04218	5.48
0.05885	5.74
0.07552	5.73
0.09218	5.58
0.10885	5.57
0.12552	5.57
0.14218	5.57
0.15885	5.57
0.17552	5.57
0.19218	5.57
0.20885	5.57
0.22552	5.57
0.24218	5.57
0.25885	5.57
0.27552	5.57
0.29218	5.57
0.30885	5.57
0.32552	5.57
0.34218	5.57
0.35885	5.57
0.37552	5.57
0.39218	5.57
0.40885	5.57
0.42552	5.57
0.44218	5.57
0.45885	5.57
0.47552	5.57
0.49218	5.57
0.50885	5.57
0.52552	5.57
0.54218	5.57
0.55885	5.57
0.57552	5.57
0.59218	5.57
0.60885	5.57
0.62552	5.57
0.64218	5.57
0.65885	5.57
0.67552	5.57
0.69218	5.57
0.70885	5.57
0.72552	5.57
0.74218	5.57
0.75885	5.57
0.77552	5.57
0.79218	5.57
0.80885	5.57
0.82552	5.57
0.84218	5.57
0.85885	5.57
0.87552	5.57
0.89218	5.57
0.90885	5.57
0.92552	5.57
0.94218	5.57
0.95885	5.57
0.97552	5.57
0.99218	5.57
1.00885	5.57
1.02552	5.57
1.04218	5.57
1.05885	5.57
1.07552	5.57
1.09218	5.57
1.10885	5.57
1.12552	5.57
1.14218	5.57
1.15885	5.57
1.17552	5.57
1.19218	5.57
1.20885	5.57
1.22552	5.57
1.24218	5.57
1.25885	5.57
1.27552	5.57
1.29218	5.57
1.30885	5.57
1.32552	5.57
1.34218	5.57
1.35885	5.57
1.37552	5.57
1.39218	5.57
1.40885	5.57
1.42552	5.57
1.44218	5.57
1.45885	5.57
1.47552	5.57
1.49218	5.57
1.50885	5.57
1.52552	5.57
1.54218	5.57
1.55885	5.57
1.57552	5.57
1.59218	5.57
1.60885	5.57
1.62552	5.57
1.64218	5.56
1.65885	5.55
1.67552	5.54
1.69218	5.53
1.70885	5.52
1.72552	5.51
1.74218	5.50
1.75885	5.49
1.77552	5.48
1.79218	5.47
1.80885	5.46
1.82552	5.45
1.84218	5.44
1.85885	5.43
1.87552	5.42
1.89218	5.41
1.90885	5.40
1.92552	5.39
1.94218	5.38
1.95885	5.37
1.97552	5.36
1.99218	5.35
2.00885	5.34
2.02552	5.33
2.04218	5.32
2.05885	5.31
2.07552	5.30
2.09218	5.29
2.10885	5.28
2.12552	5.27
2.14218	5.26
2.15885	5.25
2.17552	5.24
2.19218	5.23
2.20885	5.22
2.22552	5.22
2.24218	5.20
2.25885	5.20
2.27552	5.19
2.29218	5.18
2.30885	5.17
2.32552	5.16
2.34218	5.15
2.35885	5.14
2.37552	5.14
2.39218	5.13
2.40885	5.13
2.42552	5.13
2.44218	5.13
2.45885	5.13
2.47552	5.13
2.49218	5.13
2.50885	5.13
2.52552	5.13
2.54218	5.13
2.55885	5.13
2.57552	5.13
2.59218	5.13
2.60885	5.13
2.62552	5.13
2.64218	5.13
2.65885	5.13
2.67552	5.13
2.69218	5.13
2.70885	5.13
2.72552	5.13
2.74218	5.13
2.75885	5.13
2.77552	5.13
2.79218	5.13
2.80885	5.13
2.82552	5.13
2.84218	5.13
2.85885	5.13
2.87552	5.13
2.89218	5.13
2.90885	5.13
2.92552	5.13
2.94218	5.13
2.95885	5.13
2.97552	5.13
2.99218	5.13
3.00885	5.13
3.02552	5.13
3.04218	5.13
3.05885	5.13
3.07552	5.13
3.09218	5.12
3.10885	5.12
3.12552	5.12
3.14218	5.12
3.15885	5.12
3.17552	5.12
3.19218	5.12
3.20885	5.12
3.22552	5.12
3.24218	5.12
3.25885	5.12
3.27552	5.12
3.29218	5.12
3.30885	5.12
3.32552	5.12
3.34218	5.12
3.35885	5.12
3.37552	5.12
3.39218	5.12
3.40885	5.12
3.42552	5.12
3.44218	5.12
3.45885	5.12
3.47552	5.12
3.49218	5.12
3.50885	5.12
3.52552	5.12
3.54218	5.12
3.55885	5.13
3.57552	5.12
3.59218	5.13
3.60885	5.13
3.62552	5.13
3.64218	5.12
3.65885	5.13
3.67552	5.13
3.69218	5.13
3.70885	5.13
3.72552	5.13
3.74218	5.12
3.75885	5.12
3.77552	5.12
3.79218	5.12
3.80885	5.12
3.82552	5.12
3.84218	5.12
3.85885	5.12
3.87552	5.12
3.89218	5.12
3.90885	5.12
3.92552	5.12
3.94218	5.12
3.95885	5.12
3.97552	5.12
3.99218	5.12

[Status Trace (Linear Velocity)]
Interval(msec)	1000
# of Points	240
Start Time(min)	0.009
End Time(min)	3.992
Intensity Units	
Intensity Multiplier	1
R.Time (min)	Intensity
0.00885	39.02
0.02552	37.26
0.04218	38.52
0.05885	39.94
0.07552	39.91
0.09218	39.05
0.10885	39.02
0.12552	39.03
0.14218	39.03
0.15885	39.03
0.17552	39.03
0.19218	39.03
0.20885	39.03
0.22552	39.03
0.24218	39.03
0.25885	39.03
0.27552	39.03
0.29218	39.03
0.30885	39.03
0.32552	39.03
0.34218	39.03
0.35885	39.02
0.37552	39.03
0.39218	39.02
0.40885	39.03
0.42552	39.03
0.44218	39.03
0.45885	39.03
0.47552	39.03
0.49218	39.03
0.50885	39.03
0.52552	39.03
0.54218	39.03
0.55885	39.03
0.57552	39.03
0.59218	39.03
0.60885	39.03
0.62552	39.03
0.64218	39.03
0.65885	39.03
0.67552	39.03
0.69218	39.03
0.70885	39.03
0.72552	39.03
0.74218	39.03
0.75885	39.03
0.77552	39.03
0.79218	39.03
0.80885	39.03
0.82552	39.03
0.84218	39.03
0.85885	39.03
0.87552	39.03
0.89218	39.03
0.90885	39.03
0.92552	39.03
0.94218	39.03
0.95885	39.03
0.97552	39.03
0.99218	39.03
1.00885	39.03
1.02552	39.03
1.04218	39.03
1.05885	39.03
1.07552	39.03
1.09218	39.03
1.10885	39.03
1.12552	39.03
1.14218	39.03
1.15885	39.03
1.17552	39.03
1.19218	39.03
1.20885	39.03
1.22552	39.03
1.24218	39.03
1.25885	39.03
1.27552	39.03
1.29218	39.03
1.30885	39.03
1.32552	39.03
1.34218	39.03
1.35885	39.03
1.37552	39.03
1.39218	39.03
1.40885	39.03
1.42552	39.03
1.44218	39.03
1.45885	39.03
1.47552	39.03
1.49218	39.03
1.50885	39.03
1.52552	39.03
1.54218	39.03
1.55885	39.03
1.57552	39.03
1.59218	39.03
1.60885	39.02
1.62552	39.01
1.64218	39.00
1.65885	38.97
1.67552	38.94
1.69218	38.90
1.70885	38.87
1.72552	38.84
1.74218	38.80
1.75885	38.77
1.77552	38.74
1.79218	38.71
1.80885	38.68
1.82552	38.65
1.84218	38.62
1.85885	38.59
1.87552	38.56
1.89218	38.52
1.90885	38.49
1.92552	38.47
1.94218	38.43
1.95885	38.40
1.97552	38.38
1.99218	38.34
2.00885	38.32
2.02552	38.29
2.04218	38.25
2.05885	38.22
2.07552	38.20
2.09218	38.17
2.10885	38.13
2.12552	38.11
2.14218	38.08
2.15885	38.05
2.17552	38.02
2.19218	37.99
2.20885	37.95
2.22552	37.93
2.24218	37.90
2.25885	37.87
2.27552	37.84
2.29218	37.80
2.30885	37.77
2.32552	37.75
2.34218	37.72
2.35885	37.69
2.37552	37.67
2.39218	37.67
2.40885	37.67
2.42552	37.67
2.44218	37.67
2.45885	37.67
2.47552	37.67
2.49218	37.67
2.50885	37.66
2.52552	37.66
2.54218	37.66
2.55885	37.66
2.57552	37.66
2.59218	37.66
2.60885	37.66
2.62552	37.66
2.64218	37.66
2.65885	37.66
2.67552	37.66
2.69218	37.66
2.70885	37.66
2.72552	37.66
2.74218	37.66
2.75885	37.66
2.77552	37.65
2.79218	37.65
2.80885	37.66
2.82552	37.66
2.84218	37.66
2.85885	37.65
2.87552	37.65
2.89218	37.65
2.90885	37.65
2.92552	37.65
2.94218	37.65
2.95885	37.65
2.97552	37.65
2.99218	37.65
3.00885	37.64
3.02552	37.64
3.04218	37.64
3.05885	37.64
3.07552	37.64
3.09218	37.64
3.10885	37.64
3.12552	37.64
3.14218	37.64
3.15885	37.64
3.17552	37.64
3.19218	37.64
3.20885	37.64
3.22552	37.64
3.24218	37.64
3.25885	37.64
3.27552	37.64
3.29218	37.64
3.30885	37.63
3.32552	37.63
3.34218	37.63
3.35885	37.63
3.37552	37.63
3.39218	37.64
3.40885	37.64
3.42552	37.64
3.44218	37.64
3.45885	37.64
3.47552	37.64
3.49218	37.64
3.50885	37.64
3.52552	37.64
3.54218	37.64
3.55885	37.64
3.57552	37.64
3.59218	37.64
3.60885	37.64
3.62552	37.64
3.64218	37.64
3.65885	37.64
3.67552	37.64
3.69218	37.64
3.70885	37.64
3.72552	37.64
3.74218	37.64
3.75885	37.64
3.77552	37.64
3.79218	37.64
3.80885	37.64
3.82552	37.64
3.84218	37.64
3.85885	37.64
3.87552	37.64
3.89218	37.64
3.90885	37.64
3.92552	37.64
3.94218	37.64
3.95885	37.64
3.97552	37.64
3.99218	37.64

