[Header]
Application Name	LabSolutions
Version	5.110
Data File Name	C:\Users\User\Desktop\GC Analyses\Jack\Nachusa Grasslands Sampling\T0 Timepoint July 12th\T0_07122022_036.gcd
Output Date	3/14/2023
Output Time	3:40:36 PM

[File Information]
Type	Data File
Generated	3/7/2023 5:43:22 PM
Generated by	System Administrator
Modified	3/7/2023 5:50:12 PM
Modified by	System Administrator

[Sample Information]
Operator Name	System Administrator
Acquired	3/7/2023 5:46:11 PM
Sample Type	0:Unknown
Level	0
Sample Name	036
Sample ID	036
ISTD Amount1	1
ISTD Amount2	1
ISTD Amount3	1
ISTD Amount4	1
ISTD Amount5	1
ISTD Amount6	1
ISTD Amount7	1
ISTD Amount8	1
ISTD Amount9	1
ISTD Amount10	1
ISTD Amount11	1
ISTD Amount12	1
ISTD Amount13	1
ISTD Amount14	1
ISTD Amount15	1
ISTD Amount16	1
ISTD Amount17	1
ISTD Amount18	1
ISTD Amount19	1
ISTD Amount20	1
ISTD Amount21	1
ISTD Amount22	1
ISTD Amount23	1
ISTD Amount24	1
ISTD Amount25	1
ISTD Amount26	1
ISTD Amount27	1
ISTD Amount28	1
ISTD Amount29	1
ISTD Amount30	1
ISTD Amount31	1
ISTD Amount32	1
Sample Amount	1
Dilution Factor	1
Vial#	35
Injection Volume	1
Injection Count	1
Bar Code	

[Original Files]
Data File	C:\Users\User\Desktop\GC Analyses\Jack\Nachusa Grasslands Sampling\T0 Timepoint July 12th\T0_07122022_036.gcd
Method File	C:\LabSolutions\Data\GHG_4min_2022\ghg3_togas_w_acet_4 min_new_int.gcm
Batch File	C:\LabSolutions\Data\AutoSamplerTesting\T0_07122022.gcb
Report Format File	c:\LabSolutions\System\DEFAULT.lsr

[File Description]


[Configuration]
Instrument Name	C0B7VH3-Instrument1
Instrument #	1
Line #	1
# of Detectors	3
Detector ID	DET#1	DET#2	DET#3
Detector Name	FID	PTCD	ECD
# of Channels	1	1	1

[Peak Table(Ch1)]
# of Peaks	3
Peak#	R.Time	I.Time	F.Time	Area	Height	A/H	Conc.	Mark	ID#	Name	k'	Plate #	Plate Ht.	Tailing	Resolution	Sep.Factor	Area Ratio	Height Ratio	Conc. %	Norm Conc.
1	1.476	1.435	1.538	27169	12791	2.124	191.812	   	1	CO	0.000	9040	16.594	1.314	0.000	0.000	0	0	34.586	34.586
2	1.567	1.538	1.626	4820	2348	2.053	93.198	 V 	2	CH4	0.062	10523	14.255	0.000	1.488	0.000	0	0	16.805	16.805
3	1.996	1.952	2.480	1074177	506136	2.122	269.589	   	3	CO2	0.353	17269	8.686	1.307	7.040	5.680	0	0	48.610	48.610

[Peak Table(Ch2)]
# of Peaks	0

[Peak Table(Ch3)]
# of Peaks	7
Peak#	R.Time	I.Time	F.Time	Area	Height	A/H	Conc.	Mark	ID#	Name	k'	Plate #	Plate Ht.	Tailing	Resolution	Sep.Factor	Area Ratio	Height Ratio	Conc. %	Norm Conc.
1	2.462	2.326	2.521	1382	346	3.991	0.000	   			0.000	5913	25.367	0.000	0.000	0.000	0	0	0.000	0.000
2	2.550	2.521	2.634	956	202	4.719	0.000	 V 			0.036	2559	58.606	0.000	0.534	0.000	0	0	0.000	0.000
3	2.693	2.653	2.748	176	50	3.524	0.000	   			0.094	13007	11.532	1.182	0.966	2.625	0	0	0.000	0.000
4	2.873	2.810	3.111	17545	4722	3.716	0.448	   	1	N2O	0.167	13627	11.007	1.588	1.863	1.778	0	0	100.000	100.000
5	3.250	3.184	3.408	151	18	8.217	0.000	   	2	SF6	0.320	7560	19.842	0.000	3.046	1.920	0	0	0.000	0.000
6	3.566	3.408	3.584	246	39	6.252	0.000	 V 			0.448	7568	19.820	0.000	2.012	1.400	0	0	0.000	0.000
7	3.705	3.599	3.995	2779	209	13.281	0.000	   			0.505	1403	106.892	1.847	0.498	1.126	0	0	0.000	0.000

[Compound Results(Ch1)]
# of IDs	6
ID#	Name	R.Time	Area	Height	Conc.	Curve	3rd	2nd	1st	Constant	Area Ratio	Height Ratio	Conc. %	Norm Conc.
1	CO	1.476	27169	12791	191.812	Linear	0.000000e+00	0.000000e+00	1.416423e+002	0.000000e+00	0	0	34.586	34.586
2	CH4	1.567	4820	2348	93.198	Linear	0.000000e+00	0.000000e+00	5.171738e+001	0.000000e+00	0	0	16.805	16.805
3	CO2	1.996	1074177	506136	269.589	Linear	0.000000e+00	0.000000e+00	3.984494e+003	0.000000e+00	0	0	48.610	48.610
4	Ethylene	0.000	0	0	0.000	Linear	0.000000e+00	0.000000e+00	0.000000e+00	0.000000e+00	0	0	0.000	0.000
5	Acetylene	0.000	0	0	0.000	Linear	0.000000e+00	0.000000e+00	0.000000e+00	0.000000e+00	0	0	0.000	0.000
6	Ethane	0.000	0	0	0.000	Linear	0.000000e+00	0.000000e+00	0.000000e+00	0.000000e+00	0	0	0.000	0.000

[Compound Results(Ch2)]
# of IDs	5
ID#	Name	R.Time	Area	Height	Conc.	Curve	3rd	2nd	1st	Constant	Area Ratio	Height Ratio	Conc. %	Norm Conc.
1	Hydrogen	0.000	0	0	0.000	Linear	0.000000e+00	0.000000e+00	0.000000e+00	0.000000e+00	0	0	0.000	0.000
2	Oxygen	0.000	0	0	0.000	Linear	0.000000e+00	0.000000e+00	0.000000e+00	0.000000e+00	0	0	0.000	0.000
3	Nitrogen	0.000	0	0	0.000	Linear	0.000000e+00	0.000000e+00	0.000000e+00	0.000000e+00	0	0	0.000	0.000
4	Methane	0.000	0	0	0.000	Linear	0.000000e+00	0.000000e+00	0.000000e+00	0.000000e+00	0	0	0.000	0.000
5	Carbon Monoxide	0.000	0	0	0.000	Linear	0.000000e+00	0.000000e+00	0.000000e+00	0.000000e+00	0	0	0.000	0.000

[Compound Results(Ch3)]
# of IDs	2
ID#	Name	R.Time	Area	Height	Conc.	Curve	3rd	2nd	1st	Constant	Area Ratio	Height Ratio	Conc. %	Norm Conc.
1	N2O	2.873	17545	4722	0.448	Linear	0.000000e+00	0.000000e+00	3.915173e+004	0.000000e+00	0	0	100.000	100.000
2	SF6	3.250	151	18	0.000	Linear	0.000000e+00	0.000000e+00	0.000000e+00	0.000000e+00	0	0	0.000	0.000

[Group Results(Ch1)]
# of Groups	0

[Group Results(Ch2)]
# of Groups	0

[Group Results(Ch3)]
# of Groups	0

[Chromatogram (Ch1)]
Interval(msec)	220
# of Points	1091
Start Time(min)	0.002
End Time(min)	3.998
R.Time (min)	Intensity
0.00167	4
0.00533	-4
0.00900	-11
0.01267	-13
0.01633	-13
0.02000	-13
0.02367	-12
0.02733	-8
0.03100	-3
0.03467	5
0.03833	12
0.04200	15
0.04567	14
0.04933	8
0.05300	1
0.05667	1
0.06033	7
0.06400	13
0.06767	17
0.07133	17
0.07500	15
0.07867	14
0.08233	13
0.08600	13
0.08967	10
0.09333	8
0.09700	8
0.10067	10
0.10433	9
0.10800	5
0.11167	2
0.11533	-1
0.11900	-5
0.12267	-7
0.12633	-6
0.13000	-2
0.13367	3
0.13733	5
0.14100	-1
0.14467	-6
0.14833	-10
0.15200	-10
0.15567	-8
0.15933	-7
0.16300	-6
0.16667	-6
0.17033	-5
0.17400	-0
0.17767	3
0.18133	6
0.18500	7
0.18867	8
0.19233	12
0.19600	17
0.19967	19
0.20333	17
0.20700	14
0.21067	11
0.21433	8
0.21800	5
0.22167	2
0.22533	1
0.22900	3
0.23267	3
0.23633	0
0.24000	-1
0.24367	-1
0.24733	6
0.25100	17
0.25467	27
0.25833	31
0.26200	30
0.26567	29
0.26933	25
0.27300	21
0.27667	18
0.28033	14
0.28400	10
0.28767	5
0.29133	1
0.29500	-1
0.29867	-2
0.30233	1
0.30600	8
0.30967	16
0.31333	21
0.31700	22
0.32067	19
0.32433	15
0.32800	11
0.33167	7
0.33533	7
0.33900	11
0.34267	17
0.34633	25
0.35000	29
0.35367	29
0.35733	25
0.36100	19
0.36467	13
0.36833	8
0.37200	6
0.37567	7
0.37933	7
0.38300	3
0.38667	-3
0.39033	-9
0.39400	-10
0.39767	-11
0.40133	-11
0.40500	-10
0.40867	-12
0.41233	-14
0.41600	-12
0.41967	-8
0.42333	-4
0.42700	-1
0.43067	2
0.43433	5
0.43800	11
0.44167	16
0.44533	17
0.44900	12
0.45267	4
0.45633	0
0.46000	-1
0.46367	-2
0.46733	-3
0.47100	-2
0.47467	-0
0.47833	1
0.48200	3
0.48567	1
0.48933	-3
0.49300	-5
0.49667	-3
0.50033	2
0.50400	5
0.50767	7
0.51133	9
0.51500	8
0.51867	5
0.52233	5
0.52600	7
0.52967	9
0.53333	13
0.53700	18
0.54067	20
0.54433	19
0.54800	17
0.55167	15
0.55533	15
0.55900	16
0.56267	13
0.56633	9
0.57000	3
0.57367	-4
0.57733	-9
0.58100	-9
0.58467	-6
0.58833	-0
0.59200	7
0.59567	12
0.59933	14
0.60300	14
0.60667	14
0.61033	14
0.61400	11
0.61767	4
0.62133	3
0.62500	7
0.62867	10
0.63233	10
0.63600	10
0.63967	11
0.64333	13
0.64700	17
0.65067	17
0.65433	11
0.65800	6
0.66167	2
0.66533	-2
0.66900	-4
0.67267	-6
0.67633	-7
0.68000	-7
0.68367	-4
0.68733	-4
0.69100	-5
0.69467	1
0.69833	10
0.70200	17
0.70567	15
0.70933	12
0.71300	14
0.71667	17
0.72033	17
0.72400	15
0.72767	13
0.73133	16
0.73500	24
0.73867	34
0.74233	39
0.74600	40
0.74967	38
0.75333	35
0.75700	32
0.76067	28
0.76433	28
0.76800	28
0.77167	25
0.77533	24
0.77900	27
0.78267	33
0.78633	39
0.79000	45
0.79367	50
0.79733	52
0.80100	51
0.80467	50
0.80833	50
0.81200	53
0.81567	53
0.81933	52
0.82300	51
0.82667	47
0.83033	46
0.83400	49
0.83767	54
0.84133	54
0.84500	47
0.84867	41
0.85233	37
0.85600	34
0.85967	31
0.86333	28
0.86700	29
0.87067	34
0.87433	38
0.87800	38
0.88167	36
0.88533	29
0.88900	23
0.89267	22
0.89633	22
0.90000	25
0.90367	29
0.90733	31
0.91100	32
0.91467	32
0.91833	33
0.92200	35
0.92567	38
0.92933	39
0.93300	36
0.93667	34
0.94033	32
0.94400	30
0.94767	30
0.95133	32
0.95500	32
0.95867	32
0.96233	31
0.96600	32
0.96967	34
0.97333	38
0.97700	41
0.98067	44
0.98433	43
0.98800	41
0.99167	40
0.99533	38
0.99900	32
1.00267	23
1.00633	16
1.01000	13
1.01367	14
1.01733	15
1.02100	15
1.02467	17
1.02833	18
1.03200	19
1.03567	23
1.03933	28
1.04300	34
1.04667	37
1.05033	35
1.05400	27
1.05767	17
1.06133	12
1.06500	9
1.06867	7
1.07233	6
1.07600	4
1.07967	3
1.08333	4
1.08700	8
1.09067	13
1.09433	18
1.09800	18
1.10167	17
1.10533	17
1.10900	18
1.11267	17
1.11633	11
1.12000	5
1.12367	-2
1.12733	-7
1.13100	-7
1.13467	-3
1.13833	3
1.14200	8
1.14567	13
1.14933	13
1.15300	9
1.15667	5
1.16033	2
1.16400	-0
1.16767	-3
1.17133	-6
1.17500	-10
1.17867	-13
1.18233	-14
1.18600	-13
1.18967	-10
1.19333	-4
1.19700	-1
1.20067	1
1.20433	4
1.20800	3
1.21167	-1
1.21533	-5
1.21900	-9
1.22267	-12
1.22633	-13
1.23000	-12
1.23367	-7
1.23733	1
1.24100	9
1.24467	14
1.24833	7
1.25200	-6
1.25567	-15
1.25933	-15
1.26300	-11
1.26667	-7
1.27033	-6
1.27400	-14
1.27767	-26
1.28133	-37
1.28500	-43
1.28867	-43
1.29233	-42
1.29600	-39
1.29967	-37
1.30333	-32
1.30700	-20
1.31067	-10
1.31433	-1
1.31800	4
1.32167	0
1.32533	-11
1.32900	-26
1.33267	-40
1.33633	-50
1.34000	-53
1.34367	-50
1.34733	-40
1.35100	-30
1.35467	-22
1.35833	-19
1.36200	-19
1.36567	-22
1.36933	-26
1.37300	-31
1.37667	-35
1.38033	-37
1.38400	-39
1.38767	-38
1.39133	-33
1.39500	-24
1.39867	-17
1.40233	-15
1.40600	-12
1.40967	-9
1.41333	-10
1.41700	-17
1.42067	-27
1.42433	-31
1.42800	-31
1.43167	-28
1.43533	-20
1.43900	10
1.44267	109
1.44633	334
1.45000	868
1.45367	2096
1.45733	4137
1.46100	6594
1.46467	8938
1.46833	10847
1.47200	12167
1.47567	12779
1.47933	12575
1.48300	11553
1.48667	9905
1.49033	7982
1.49400	6122
1.49767	4535
1.50133	3290
1.50500	2364
1.50867	1697
1.51233	1225
1.51600	894
1.51967	661
1.52333	497
1.52700	386
1.53067	310
1.53433	258
1.53800	233
1.54167	271
1.54533	434
1.54900	749
1.55267	1166
1.55633	1590
1.56000	1949
1.56367	2213
1.56733	2356
1.57100	2341
1.57467	2151
1.57833	1828
1.58200	1449
1.58567	1088
1.58933	790
1.59300	559
1.59667	384
1.60033	258
1.60400	171
1.60767	111
1.61133	73
1.61500	52
1.61867	38
1.62233	28
1.62600	21
1.62967	19
1.63333	21
1.63700	22
1.64067	23
1.64433	22
1.64800	20
1.65167	15
1.65533	9
1.65900	2
1.66267	-7
1.66633	-16
1.67000	-21
1.67367	-22
1.67733	-16
1.68100	-3
1.68467	8
1.68833	12
1.69200	9
1.69567	1
1.69933	-8
1.70300	-15
1.70667	-22
1.71033	-29
1.71400	-32
1.71767	-32
1.72133	-24
1.72500	-15
1.72867	-10
1.73233	-10
1.73600	-15
1.73967	-24
1.74333	-32
1.74700	-36
1.75067	-36
1.75433	-31
1.75800	-27
1.76167	-25
1.76533	-20
1.76900	-13
1.77267	-9
1.77633	-10
1.78000	-16
1.78367	-22
1.78733	-27
1.79100	-26
1.79467	-24
1.79833	-25
1.80200	-29
1.80567	-33
1.80933	-35
1.81300	-37
1.81667	-38
1.82033	-38
1.82400	-36
1.82767	-34
1.83133	-32
1.83500	-30
1.83867	-31
1.84233	-31
1.84600	-29
1.84967	-26
1.85333	-20
1.85700	-15
1.86067	-12
1.86433	-11
1.86800	-11
1.87167	-13
1.87533	-16
1.87900	-16
1.88267	-14
1.88633	-11
1.89000	-10
1.89367	-9
1.89733	-7
1.90100	-4
1.90467	3
1.90833	9
1.91200	12
1.91567	12
1.91933	10
1.92300	8
1.92667	8
1.93033	13
1.93400	16
1.93767	12
1.94133	7
1.94500	4
1.94867	4
1.95233	14
1.95600	100
1.95967	622
1.96333	2979
1.96700	11011
1.97067	31952
1.97433	74459
1.97800	142798
1.98167	231553
1.98533	326850
1.98900	412402
1.99267	475145
1.99633	506176
2.00000	501335
2.00367	462715
2.00733	399194
2.01100	323852
2.01467	249334
2.01833	184238
2.02200	132230
2.02567	93261
2.02933	65344
2.03300	45935
2.03667	32683
2.04033	23709
2.04400	17634
2.04767	13491
2.05133	10628
2.05500	8616
2.05867	7178
2.06233	6129
2.06600	5341
2.06967	4730
2.07333	4243
2.07700	3852
2.08067	3529
2.08433	3257
2.08800	3025
2.09167	2825
2.09533	2648
2.09900	2492
2.10267	2354
2.10633	2231
2.11000	2119
2.11367	2015
2.11733	1916
2.12100	1823
2.12467	1740
2.12833	1666
2.13200	1599
2.13567	1537
2.13933	1478
2.14300	1424
2.14667	1375
2.15033	1331
2.15400	1286
2.15767	1241
2.16133	1199
2.16500	1162
2.16867	1126
2.17233	1091
2.17600	1058
2.17967	1025
2.18333	992
2.18700	964
2.19067	942
2.19433	925
2.19800	911
2.20167	895
2.20533	880
2.20900	866
2.21267	850
2.21633	826
2.22000	796
2.22367	765
2.22733	734
2.23100	709
2.23467	690
2.23833	675
2.24200	661
2.24567	649
2.24933	639
2.25300	631
2.25667	627
2.26033	623
2.26400	616
2.26767	608
2.27133	599
2.27500	589
2.27867	580
2.28233	569
2.28600	556
2.28967	544
2.29333	535
2.29700	527
2.30067	520
2.30433	515
2.30800	513
2.31167	510
2.31533	503
2.31900	496
2.32267	489
2.32633	484
2.33000	481
2.33367	477
2.33733	468
2.34100	453
2.34467	441
2.34833	433
2.35200	428
2.35567	426
2.35933	426
2.36300	424
2.36667	422
2.37033	417
2.37400	413
2.37767	409
2.38133	408
2.38500	409
2.38867	408
2.39233	401
2.39600	390
2.39967	381
2.40333	377
2.40700	376
2.41067	377
2.41433	384
2.41800	394
2.42167	399
2.42533	396
2.42900	393
2.43267	390
2.43633	385
2.44000	378
2.44367	369
2.44733	359
2.45100	351
2.45467	347
2.45833	344
2.46200	342
2.46567	340
2.46933	337
2.47300	334
2.47667	328
2.48033	320
2.48400	315
2.48767	313
2.49133	315
2.49500	319
2.49867	326
2.50233	331
2.50600	334
2.50967	335
2.51333	332
2.51700	325
2.52067	318
2.52433	312
2.52800	309
2.53167	307
2.53533	302
2.53900	296
2.54267	295
2.54633	298
2.55000	301
2.55367	301
2.55733	295
2.56100	292
2.56467	299
2.56833	306
2.57200	309
2.57567	309
2.57933	306
2.58300	302
2.58667	297
2.59033	289
2.59400	281
2.59767	272
2.60133	267
2.60500	265
2.60867	265
2.61233	266
2.61600	266
2.61967	263
2.62333	261
2.62700	259
2.63067	257
2.63433	256
2.63800	260
2.64167	263
2.64533	261
2.64900	260
2.65267	261
2.65633	263
2.66000	265
2.66367	267
2.66733	267
2.67100	269
2.67467	274
2.67833	274
2.68200	269
2.68567	265
2.68933	262
2.69300	262
2.69667	260
2.70033	257
2.70400	261
2.70767	267
2.71133	273
2.71500	274
2.71867	270
2.72233	263
2.72600	254
2.72967	247
2.73333	242
2.73700	240
2.74067	242
2.74433	247
2.74800	252
2.75167	257
2.75533	263
2.75900	268
2.76267	271
2.76633	271
2.77000	273
2.77367	277
2.77733	277
2.78100	273
2.78467	268
2.78833	262
2.79200	257
2.79567	255
2.79933	255
2.80300	257
2.80667	262
2.81033	266
2.81400	266
2.81767	260
2.82133	252
2.82500	248
2.82867	249
2.83233	250
2.83600	247
2.83967	241
2.84333	238
2.84700	239
2.85067	239
2.85433	236
2.85800	235
2.86167	238
2.86533	241
2.86900	246
2.87267	257
2.87633	269
2.88000	274
2.88367	268
2.88733	257
2.89100	249
2.89467	247
2.89833	247
2.90200	246
2.90567	246
2.90933	245
2.91300	243
2.91667	247
2.92033	254
2.92400	259
2.92767	259
2.93133	257
2.93500	254
2.93867	250
2.94233	245
2.94600	241
2.94967	237
2.95333	234
2.95700	233
2.96067	233
2.96433	234
2.96800	235
2.97167	234
2.97533	231
2.97900	230
2.98267	233
2.98633	242
2.99000	252
2.99367	259
2.99733	260
3.00100	258
3.00467	259
3.00833	262
3.01200	266
3.01567	267
3.01933	262
3.02300	257
3.02667	255
3.03033	253
3.03400	251
3.03767	252
3.04133	253
3.04500	255
3.04867	256
3.05233	257
3.05600	255
3.05967	252
3.06333	252
3.06700	257
3.07067	262
3.07433	264
3.07800	260
3.08167	250
3.08533	238
3.08900	230
3.09267	229
3.09633	229
3.10000	229
3.10367	225
3.10733	218
3.11100	214
3.11467	217
3.11833	223
3.12200	227
3.12567	225
3.12933	221
3.13300	219
3.13667	220
3.14033	223
3.14400	227
3.14767	227
3.15133	225
3.15500	225
3.15867	227
3.16233	231
3.16600	234
3.16967	234
3.17333	233
3.17700	235
3.18067	240
3.18433	244
3.18800	244
3.19167	244
3.19533	247
3.19900	252
3.20267	255
3.20633	250
3.21000	241
3.21367	231
3.21733	224
3.22100	220
3.22467	218
3.22833	217
3.23200	213
3.23567	210
3.23933	210
3.24300	211
3.24667	212
3.25033	212
3.25400	213
3.25767	215
3.26133	217
3.26500	217
3.26867	216
3.27233	214
3.27600	214
3.27967	218
3.28333	222
3.28700	227
3.29067	230
3.29433	231
3.29800	227
3.30167	226
3.30533	232
3.30900	242
3.31267	247
3.31633	246
3.32000	242
3.32367	237
3.32733	232
3.33100	226
3.33467	222
3.33833	217
3.34200	215
3.34567	213
3.34933	211
3.35300	208
3.35667	207
3.36033	207
3.36400	206
3.36767	206
3.37133	210
3.37500	218
3.37867	221
3.38233	219
3.38600	217
3.38967	219
3.39333	222
3.39700	218
3.40067	211
3.40433	206
3.40800	205
3.41167	206
3.41533	205
3.41900	205
3.42267	203
3.42633	198
3.43000	190
3.43367	183
3.43733	178
3.44100	177
3.44467	179
3.44833	184
3.45200	190
3.45567	196
3.45933	206
3.46300	216
3.46667	217
3.47033	212
3.47400	209
3.47767	213
3.48133	216
3.48500	209
3.48867	199
3.49233	191
3.49600	189
3.49967	194
3.50333	205
3.50700	213
3.51067	215
3.51433	212
3.51800	208
3.52167	205
3.52533	204
3.52900	204
3.53267	204
3.53633	200
3.54000	193
3.54367	189
3.54733	188
3.55100	191
3.55467	193
3.55833	196
3.56200	199
3.56567	200
3.56933	201
3.57300	202
3.57667	202
3.58033	202
3.58400	202
3.58767	199
3.59133	195
3.59500	191
3.59867	185
3.60233	179
3.60600	178
3.60967	180
3.61333	181
3.61700	177
3.62067	174
3.62433	175
3.62800	178
3.63167	181
3.63533	186
3.63900	196
3.64267	204
3.64633	208
3.65000	208
3.65367	201
3.65733	193
3.66100	187
3.66467	182
3.66833	179
3.67200	181
3.67567	185
3.67933	188
3.68300	191
3.68667	192
3.69033	191
3.69400	190
3.69767	191
3.70133	191
3.70500	188
3.70867	187
3.71233	189
3.71600	190
3.71967	192
3.72333	193
3.72700	193
3.73067	190
3.73433	186
3.73800	180
3.74167	177
3.74533	177
3.74900	176
3.75267	175
3.75633	177
3.76000	180
3.76367	185
3.76733	189
3.77100	185
3.77467	178
3.77833	172
3.78200	168
3.78567	165
3.78933	164
3.79300	160
3.79667	156
3.80033	153
3.80400	158
3.80767	169
3.81133	177
3.81500	179
3.81867	178
3.82233	176
3.82600	167
3.82967	154
3.83333	144
3.83700	136
3.84067	134
3.84433	139
3.84800	149
3.85167	160
3.85533	167
3.85900	170
3.86267	169
3.86633	165
3.87000	161
3.87367	159
3.87733	159
3.88100	161
3.88467	164
3.88833	166
3.89200	167
3.89567	164
3.89933	157
3.90300	151
3.90667	145
3.91033	139
3.91400	137
3.91767	138
3.92133	141
3.92500	146
3.92867	155
3.93233	169
3.93600	180
3.93967	179
3.94333	170
3.94700	157
3.95067	147
3.95433	141
3.95800	142
3.96167	149
3.96533	157
3.96900	162
3.97267	165
3.97633	161
3.98000	151
3.98367	139
3.98733	131
3.99100	127
3.99467	128
3.99833	130

[Chromatogram (Ch2)]
Interval(msec)	220
# of Points	1091
Start Time(min)	0.002
End Time(min)	3.998
R.Time (min)	Intensity
0.00167	0
0.00533	1
0.00900	1
0.01267	1
0.01633	1
0.02000	1
0.02367	1
0.02733	2
0.03100	2
0.03467	2
0.03833	2
0.04200	2
0.04567	2
0.04933	2
0.05300	2
0.05667	2
0.06033	2
0.06400	2
0.06767	2
0.07133	3
0.07500	3
0.07867	3
0.08233	3
0.08600	3
0.08967	3
0.09333	3
0.09700	4
0.10067	4
0.10433	4
0.10800	4
0.11167	4
0.11533	4
0.11900	4
0.12267	4
0.12633	4
0.13000	3
0.13367	3
0.13733	3
0.14100	2
0.14467	2
0.14833	2
0.15200	2
0.15567	2
0.15933	1
0.16300	1
0.16667	1
0.17033	1
0.17400	1
0.17767	1
0.18133	1
0.18500	1
0.18867	1
0.19233	1
0.19600	1
0.19967	1
0.20333	1
0.20700	1
0.21067	1
0.21433	0
0.21800	0
0.22167	-0
0.22533	-0
0.22900	-0
0.23267	-0
0.23633	-0
0.24000	-0
0.24367	0
0.24733	0
0.25100	0
0.25467	0
0.25833	0
0.26200	0
0.26567	0
0.26933	0
0.27300	0
0.27667	1
0.28033	1
0.28400	1
0.28767	1
0.29133	1
0.29500	1
0.29867	2
0.30233	2
0.30600	2
0.30967	2
0.31333	2
0.31700	2
0.32067	2
0.32433	2
0.32800	2
0.33167	2
0.33533	2
0.33900	2
0.34267	2
0.34633	1
0.35000	1
0.35367	1
0.35733	2
0.36100	2
0.36467	2
0.36833	2
0.37200	2
0.37567	2
0.37933	2
0.38300	3
0.38667	3
0.39033	3
0.39400	3
0.39767	2
0.40133	2
0.40500	2
0.40867	2
0.41233	1
0.41600	2
0.41967	2
0.42333	2
0.42700	2
0.43067	3
0.43433	3
0.43800	4
0.44167	4
0.44533	5
0.44900	5
0.45267	5
0.45633	6
0.46000	5
0.46367	5
0.46733	5
0.47100	5
0.47467	5
0.47833	4
0.48200	4
0.48567	4
0.48933	4
0.49300	4
0.49667	4
0.50033	4
0.50400	4
0.50767	4
0.51133	4
0.51500	4
0.51867	4
0.52233	4
0.52600	4
0.52967	4
0.53333	3
0.53700	3
0.54067	3
0.54433	2
0.54800	2
0.55167	1
0.55533	1
0.55900	1
0.56267	0
0.56633	0
0.57000	0
0.57367	-0
0.57733	-0
0.58100	-0
0.58467	-0
0.58833	-1
0.59200	-1
0.59567	-1
0.59933	-1
0.60300	-1
0.60667	-1
0.61033	-1
0.61400	-2
0.61767	-2
0.62133	-2
0.62500	-2
0.62867	-2
0.63233	-2
0.63600	-2
0.63967	-1
0.64333	-1
0.64700	-1
0.65067	-1
0.65433	-0
0.65800	0
0.66167	1
0.66533	1
0.66900	1
0.67267	2
0.67633	2
0.68000	2
0.68367	2
0.68733	3
0.69100	3
0.69467	3
0.69833	4
0.70200	4
0.70567	4
0.70933	4
0.71300	3
0.71667	3
0.72033	3
0.72400	3
0.72767	3
0.73133	3
0.73500	3
0.73867	3
0.74233	3
0.74600	3
0.74967	3
0.75333	3
0.75700	2
0.76067	2
0.76433	3
0.76800	3
0.77167	3
0.77533	3
0.77900	3
0.78267	3
0.78633	3
0.79000	3
0.79367	3
0.79733	2
0.80100	2
0.80467	2
0.80833	2
0.81200	2
0.81567	1
0.81933	1
0.82300	1
0.82667	1
0.83033	1
0.83400	0
0.83767	-0
0.84133	-1
0.84500	-1
0.84867	-1
0.85233	-1
0.85600	-1
0.85967	-1
0.86333	-1
0.86700	-1
0.87067	-1
0.87433	-1
0.87800	-2
0.88167	-2
0.88533	-2
0.88900	-2
0.89267	-2
0.89633	-1
0.90000	-1
0.90367	-1
0.90733	-1
0.91100	-1
0.91467	-1
0.91833	-0
0.92200	0
0.92567	0
0.92933	1
0.93300	1
0.93667	2
0.94033	2
0.94400	3
0.94767	3
0.95133	4
0.95500	4
0.95867	4
0.96233	4
0.96600	3
0.96967	3
0.97333	3
0.97700	4
0.98067	4
0.98433	3
0.98800	3
0.99167	3
0.99533	3
0.99900	3
1.00267	3
1.00633	2
1.01000	2
1.01367	2
1.01733	2
1.02100	2
1.02467	2
1.02833	2
1.03200	2
1.03567	2
1.03933	2
1.04300	2
1.04667	2
1.05033	2
1.05400	2
1.05767	2
1.06133	2
1.06500	1
1.06867	1
1.07233	1
1.07600	1
1.07967	1
1.08333	1
1.08700	1
1.09067	0
1.09433	0
1.09800	-0
1.10167	-0
1.10533	-1
1.10900	-1
1.11267	-1
1.11633	-1
1.12000	-1
1.12367	-2
1.12733	-2
1.13100	-2
1.13467	-3
1.13833	-3
1.14200	-3
1.14567	-3
1.14933	-3
1.15300	-3
1.15667	-2
1.16033	-2
1.16400	-2
1.16767	-1
1.17133	-1
1.17500	-1
1.17867	-0
1.18233	0
1.18600	0
1.18967	0
1.19333	0
1.19700	-0
1.20067	-0
1.20433	-0
1.20800	-0
1.21167	-0
1.21533	-0
1.21900	-0
1.22267	-0
1.22633	0
1.23000	-0
1.23367	-0
1.23733	-0
1.24100	-1
1.24467	-1
1.24833	-1
1.25200	-1
1.25567	-1
1.25933	-1
1.26300	-1
1.26667	-0
1.27033	0
1.27400	0
1.27767	0
1.28133	0
1.28500	0
1.28867	0
1.29233	0
1.29600	0
1.29967	-0
1.30333	-0
1.30700	-0
1.31067	-0
1.31433	-0
1.31800	-0
1.32167	-0
1.32533	-0
1.32900	-0
1.33267	-0
1.33633	0
1.34000	0
1.34367	0
1.34733	0
1.35100	0
1.35467	-0
1.35833	-0
1.36200	-0
1.36567	-0
1.36933	-1
1.37300	-1
1.37667	-1
1.38033	-1
1.38400	-1
1.38767	-1
1.39133	-1
1.39500	-1
1.39867	-0
1.40233	-0
1.40600	-0
1.40967	-0
1.41333	-0
1.41700	-0
1.42067	-0
1.42433	-1
1.42800	-1
1.43167	-1
1.43533	-1
1.43900	-1
1.44267	-0
1.44633	-0
1.45000	-0
1.45367	0
1.45733	0
1.46100	0
1.46467	1
1.46833	1
1.47200	1
1.47567	1
1.47933	1
1.48300	1
1.48667	1
1.49033	1
1.49400	2
1.49767	2
1.50133	2
1.50500	1
1.50867	1
1.51233	1
1.51600	1
1.51967	0
1.52333	-0
1.52700	-0
1.53067	-1
1.53433	-1
1.53800	-1
1.54167	-2
1.54533	-2
1.54900	-2
1.55267	-2
1.55633	-3
1.56000	-3
1.56367	-3
1.56733	-3
1.57100	-3
1.57467	-3
1.57833	-3
1.58200	-3
1.58567	-3
1.58933	-2
1.59300	-3
1.59667	-3
1.60033	-3
1.60400	-4
1.60767	-5
1.61133	-7
1.61500	-9
1.61867	-11
1.62233	-13
1.62600	-16
1.62967	-19
1.63333	-22
1.63700	-26
1.64067	-29
1.64433	-33
1.64800	-37
1.65167	-40
1.65533	-44
1.65900	-48
1.66267	-52
1.66633	-56
1.67000	-61
1.67367	-66
1.67733	-71
1.68100	-76
1.68467	-81
1.68833	-85
1.69200	-89
1.69567	-92
1.69933	-95
1.70300	-98
1.70667	-100
1.71033	-101
1.71400	-103
1.71767	-104
1.72133	-106
1.72500	-107
1.72867	-108
1.73233	-108
1.73600	-109
1.73967	-109
1.74333	-110
1.74700	-110
1.75067	-111
1.75433	-111
1.75800	-112
1.76167	-113
1.76533	-114
1.76900	-115
1.77267	-116
1.77633	-116
1.78000	-117
1.78367	-117
1.78733	-117
1.79100	-117
1.79467	-116
1.79833	-116
1.80200	-117
1.80567	-117
1.80933	-117
1.81300	-117
1.81667	-117
1.82033	-118
1.82400	-118
1.82767	-118
1.83133	-117
1.83500	-117
1.83867	-117
1.84233	-117
1.84600	-117
1.84967	-117
1.85333	-117
1.85700	-117
1.86067	-117
1.86433	-117
1.86800	-116
1.87167	-116
1.87533	-116
1.87900	-116
1.88267	-116
1.88633	-116
1.89000	-116
1.89367	-116
1.89733	-116
1.90100	-116
1.90467	-115
1.90833	-115
1.91200	-115
1.91567	-115
1.91933	-115
1.92300	-115
1.92667	-115
1.93033	-116
1.93400	-116
1.93767	-115
1.94133	-115
1.94500	-114
1.94867	-114
1.95233	-114
1.95600	-113
1.95967	-113
1.96333	-112
1.96700	-112
1.97067	-112
1.97433	-112
1.97800	-112
1.98167	-112
1.98533	-112
1.98900	-111
1.99267	-111
1.99633	-110
2.00000	-110
2.00367	-110
2.00733	-109
2.01100	-109
2.01467	-109
2.01833	-108
2.02200	-107
2.02567	-106
2.02933	-106
2.03300	-106
2.03667	-105
2.04033	-105
2.04400	-104
2.04767	-104
2.05133	-104
2.05500	-104
2.05867	-105
2.06233	-105
2.06600	-105
2.06967	-105
2.07333	-105
2.07700	-105
2.08067	-105
2.08433	-105
2.08800	-105
2.09167	-105
2.09533	-105
2.09900	-104
2.10267	-103
2.10633	-103
2.11000	-102
2.11367	-102
2.11733	-101
2.12100	-100
2.12467	-99
2.12833	-99
2.13200	-99
2.13567	-98
2.13933	-98
2.14300	-98
2.14667	-97
2.15033	-97
2.15400	-97
2.15767	-97
2.16133	-97
2.16500	-97
2.16867	-96
2.17233	-95
2.17600	-95
2.17967	-94
2.18333	-94
2.18700	-93
2.19067	-92
2.19433	-92
2.19800	-91
2.20167	-91
2.20533	-91
2.20900	-92
2.21267	-92
2.21633	-93
2.22000	-94
2.22367	-94
2.22733	-94
2.23100	-93
2.23467	-93
2.23833	-91
2.24200	-90
2.24567	-89
2.24933	-89
2.25300	-88
2.25667	-88
2.26033	-88
2.26400	-88
2.26767	-88
2.27133	-89
2.27500	-89
2.27867	-90
2.28233	-90
2.28600	-89
2.28967	-89
2.29333	-88
2.29700	-88
2.30067	-87
2.30433	-86
2.30800	-85
2.31167	-85
2.31533	-84
2.31900	-83
2.32267	-83
2.32633	-83
2.33000	-83
2.33367	-83
2.33733	-82
2.34100	-82
2.34467	-81
2.34833	-80
2.35200	-79
2.35567	-78
2.35933	-77
2.36300	-75
2.36667	-74
2.37033	-72
2.37400	-70
2.37767	-67
2.38133	-63
2.38500	-60
2.38867	-56
2.39233	-52
2.39600	-47
2.39967	-43
2.40333	-39
2.40700	-35
2.41067	-32
2.41433	-29
2.41800	-26
2.42167	-24
2.42533	-22
2.42900	-20
2.43267	-18
2.43633	-16
2.44000	-14
2.44367	-12
2.44733	-11
2.45100	-9
2.45467	-7
2.45833	-6
2.46200	-4
2.46567	-3
2.46933	-1
2.47300	-0
2.47667	1
2.48033	2
2.48400	3
2.48767	4
2.49133	5
2.49500	6
2.49867	7
2.50233	8
2.50600	8
2.50967	9
2.51333	9
2.51700	10
2.52067	10
2.52433	11
2.52800	12
2.53167	12
2.53533	13
2.53900	14
2.54267	14
2.54633	15
2.55000	15
2.55367	15
2.55733	15
2.56100	15
2.56467	15
2.56833	14
2.57200	14
2.57567	14
2.57933	14
2.58300	14
2.58667	14
2.59033	14
2.59400	14
2.59767	14
2.60133	14
2.60500	14
2.60867	15
2.61233	15
2.61600	15
2.61967	15
2.62333	16
2.62700	16
2.63067	17
2.63433	17
2.63800	17
2.64167	17
2.64533	17
2.64900	17
2.65267	17
2.65633	18
2.66000	18
2.66367	18
2.66733	19
2.67100	19
2.67467	19
2.67833	20
2.68200	20
2.68567	20
2.68933	20
2.69300	21
2.69667	21
2.70033	22
2.70400	22
2.70767	23
2.71133	23
2.71500	24
2.71867	24
2.72233	25
2.72600	25
2.72967	24
2.73333	24
2.73700	24
2.74067	24
2.74433	25
2.74800	25
2.75167	25
2.75533	25
2.75900	25
2.76267	26
2.76633	26
2.77000	27
2.77367	27
2.77733	27
2.78100	27
2.78467	26
2.78833	26
2.79200	25
2.79567	25
2.79933	24
2.80300	24
2.80667	23
2.81033	23
2.81400	23
2.81767	23
2.82133	23
2.82500	23
2.82867	23
2.83233	23
2.83600	22
2.83967	21
2.84333	19
2.84700	15
2.85067	8
2.85433	-2
2.85800	-16
2.86167	-33
2.86533	-55
2.86900	-80
2.87267	-110
2.87633	-144
2.88000	-181
2.88367	-222
2.88733	-266
2.89100	-312
2.89467	-361
2.89833	-411
2.90200	-463
2.90567	-516
2.90933	-569
2.91300	-622
2.91667	-675
2.92033	-728
2.92400	-779
2.92767	-830
2.93133	-882
2.93500	-938
2.93867	-998
2.94233	-1052
2.94600	-1092
2.94967	-1107
2.95333	-1097
2.95700	-1062
2.96067	-1007
2.96433	-938
2.96800	-862
2.97167	-781
2.97533	-701
2.97900	-623
2.98267	-549
2.98633	-481
2.99000	-420
2.99367	-364
2.99733	-314
3.00100	-270
3.00467	-231
3.00833	-197
3.01200	-168
3.01567	-142
3.01933	-120
3.02300	-101
3.02667	-85
3.03033	-71
3.03400	-59
3.03767	-49
3.04133	-40
3.04500	-33
3.04867	-26
3.05233	-21
3.05600	-16
3.05967	-12
3.06333	-8
3.06700	-5
3.07067	-2
3.07433	1
3.07800	3
3.08167	5
3.08533	6
3.08900	8
3.09267	9
3.09633	10
3.10000	11
3.10367	12
3.10733	13
3.11100	14
3.11467	15
3.11833	16
3.12200	16
3.12567	16
3.12933	17
3.13300	17
3.13667	17
3.14033	18
3.14400	18
3.14767	18
3.15133	18
3.15500	18
3.15867	19
3.16233	19
3.16600	19
3.16967	20
3.17333	20
3.17700	20
3.18067	20
3.18433	21
3.18800	21
3.19167	21
3.19533	21
3.19900	21
3.20267	22
3.20633	22
3.21000	22
3.21367	22
3.21733	22
3.22100	22
3.22467	22
3.22833	22
3.23200	22
3.23567	22
3.23933	23
3.24300	23
3.24667	23
3.25033	24
3.25400	24
3.25767	24
3.26133	24
3.26500	24
3.26867	24
3.27233	25
3.27600	25
3.27967	25
3.28333	25
3.28700	25
3.29067	25
3.29433	25
3.29800	25
3.30167	25
3.30533	25
3.30900	25
3.31267	26
3.31633	26
3.32000	26
3.32367	25
3.32733	25
3.33100	25
3.33467	25
3.33833	26
3.34200	26
3.34567	26
3.34933	26
3.35300	26
3.35667	26
3.36033	25
3.36400	25
3.36767	25
3.37133	25
3.37500	26
3.37867	26
3.38233	26
3.38600	26
3.38967	26
3.39333	26
3.39700	26
3.40067	26
3.40433	27
3.40800	27
3.41167	27
3.41533	27
3.41900	27
3.42267	27
3.42633	28
3.43000	28
3.43367	28
3.43733	28
3.44100	28
3.44467	28
3.44833	28
3.45200	28
3.45567	28
3.45933	28
3.46300	28
3.46667	28
3.47033	28
3.47400	28
3.47767	28
3.48133	27
3.48500	27
3.48867	27
3.49233	27
3.49600	27
3.49967	26
3.50333	26
3.50700	26
3.51067	26
3.51433	26
3.51800	26
3.52167	26
3.52533	26
3.52900	27
3.53267	27
3.53633	27
3.54000	27
3.54367	28
3.54733	28
3.55100	28
3.55467	28
3.55833	28
3.56200	28
3.56567	28
3.56933	28
3.57300	28
3.57667	28
3.58033	28
3.58400	28
3.58767	28
3.59133	28
3.59500	28
3.59867	28
3.60233	28
3.60600	28
3.60967	27
3.61333	27
3.61700	27
3.62067	27
3.62433	27
3.62800	27
3.63167	27
3.63533	27
3.63900	27
3.64267	27
3.64633	27
3.65000	26
3.65367	26
3.65733	26
3.66100	26
3.66467	26
3.66833	26
3.67200	27
3.67567	27
3.67933	27
3.68300	28
3.68667	28
3.69033	28
3.69400	28
3.69767	28
3.70133	28
3.70500	28
3.70867	27
3.71233	27
3.71600	27
3.71967	27
3.72333	27
3.72700	27
3.73067	27
3.73433	27
3.73800	28
3.74167	28
3.74533	28
3.74900	28
3.75267	28
3.75633	28
3.76000	27
3.76367	27
3.76733	27
3.77100	27
3.77467	27
3.77833	27
3.78200	27
3.78567	27
3.78933	27
3.79300	27
3.79667	27
3.80033	27
3.80400	27
3.80767	28
3.81133	28
3.81500	27
3.81867	27
3.82233	27
3.82600	27
3.82967	26
3.83333	26
3.83700	26
3.84067	25
3.84433	25
3.84800	25
3.85167	25
3.85533	25
3.85900	25
3.86267	25
3.86633	25
3.87000	25
3.87367	25
3.87733	25
3.88100	25
3.88467	26
3.88833	26
3.89200	26
3.89567	26
3.89933	26
3.90300	26
3.90667	27
3.91033	27
3.91400	27
3.91767	26
3.92133	26
3.92500	27
3.92867	27
3.93233	27
3.93600	27
3.93967	27
3.94333	27
3.94700	26
3.95067	26
3.95433	26
3.95800	26
3.96167	26
3.96533	26
3.96900	26
3.97267	26
3.97633	26
3.98000	26
3.98367	26
3.98733	26
3.99100	26
3.99467	26
3.99833	26

[Chromatogram (Ch3)]
Interval(msec)	220
# of Points	1091
Start Time(min)	0.002
End Time(min)	3.998
R.Time (min)	Intensity
0.00167	1
0.00533	2
0.00900	3
0.01267	6
0.01633	7
0.02000	8
0.02367	9
0.02733	9
0.03100	8
0.03467	9
0.03833	11
0.04200	10
0.04567	9
0.04933	7
0.05300	3
0.05667	3
0.06033	4
0.06400	5
0.06767	6
0.07133	7
0.07500	8
0.07867	9
0.08233	9
0.08600	8
0.08967	6
0.09333	7
0.09700	10
0.10067	12
0.10433	11
0.10800	12
0.11167	12
0.11533	11
0.11900	10
0.12267	9
0.12633	9
0.13000	9
0.13367	8
0.13733	7
0.14100	8
0.14467	9
0.14833	12
0.15200	14
0.15567	16
0.15933	17
0.16300	16
0.16667	16
0.17033	17
0.17400	17
0.17767	19
0.18133	18
0.18500	17
0.18867	16
0.19233	14
0.19600	13
0.19967	11
0.20333	11
0.20700	11
0.21067	12
0.21433	12
0.21800	12
0.22167	12
0.22533	12
0.22900	13
0.23267	13
0.23633	15
0.24000	17
0.24367	17
0.24733	14
0.25100	12
0.25467	9
0.25833	8
0.26200	9
0.26567	11
0.26933	13
0.27300	15
0.27667	14
0.28033	13
0.28400	11
0.28767	10
0.29133	10
0.29500	11
0.29867	12
0.30233	15
0.30600	17
0.30967	16
0.31333	14
0.31700	13
0.32067	13
0.32433	13
0.32800	12
0.33167	10
0.33533	11
0.33900	13
0.34267	14
0.34633	14
0.35000	13
0.35367	14
0.35733	15
0.36100	14
0.36467	12
0.36833	13
0.37200	15
0.37567	16
0.37933	16
0.38300	17
0.38667	17
0.39033	20
0.39400	21
0.39767	21
0.40133	20
0.40500	19
0.40867	19
0.41233	21
0.41600	19
0.41967	17
0.42333	18
0.42700	20
0.43067	21
0.43433	20
0.43800	17
0.44167	16
0.44533	17
0.44900	19
0.45267	20
0.45633	21
0.46000	23
0.46367	26
0.46733	24
0.47100	22
0.47467	19
0.47833	17
0.48200	16
0.48567	16
0.48933	18
0.49300	21
0.49667	22
0.50033	21
0.50400	22
0.50767	21
0.51133	20
0.51500	21
0.51867	21
0.52233	20
0.52600	21
0.52967	21
0.53333	21
0.53700	20
0.54067	20
0.54433	25
0.54800	28
0.55167	28
0.55533	27
0.55900	29
0.56267	29
0.56633	29
0.57000	29
0.57367	30
0.57733	29
0.58100	28
0.58467	27
0.58833	29
0.59200	30
0.59567	30
0.59933	31
0.60300	30
0.60667	29
0.61033	28
0.61400	26
0.61767	27
0.62133	30
0.62500	29
0.62867	28
0.63233	30
0.63600	31
0.63967	31
0.64333	29
0.64700	28
0.65067	28
0.65433	28
0.65800	29
0.66167	31
0.66533	33
0.66900	32
0.67267	29
0.67633	27
0.68000	27
0.68367	26
0.68733	25
0.69100	26
0.69467	28
0.69833	27
0.70200	26
0.70567	27
0.70933	30
0.71300	32
0.71667	33
0.72033	31
0.72400	29
0.72767	31
0.73133	33
0.73500	35
0.73867	34
0.74233	32
0.74600	30
0.74967	30
0.75333	30
0.75700	30
0.76067	28
0.76433	27
0.76800	24
0.77167	24
0.77533	25
0.77900	27
0.78267	27
0.78633	27
0.79000	28
0.79367	27
0.79733	26
0.80100	25
0.80467	29
0.80833	32
0.81200	31
0.81567	31
0.81933	30
0.82300	31
0.82667	31
0.83033	30
0.83400	30
0.83767	33
0.84133	36
0.84500	35
0.84867	33
0.85233	34
0.85600	36
0.85967	36
0.86333	35
0.86700	37
0.87067	39
0.87433	41
0.87800	40
0.88167	41
0.88533	40
0.88900	40
0.89267	42
0.89633	43
0.90000	41
0.90367	40
0.90733	42
0.91100	43
0.91467	43
0.91833	45
0.92200	46
0.92567	46
0.92933	47
0.93300	49
0.93667	49
0.94033	48
0.94400	47
0.94767	45
0.95133	43
0.95500	43
0.95867	42
0.96233	42
0.96600	45
0.96967	47
0.97333	47
0.97700	48
0.98067	48
0.98433	46
0.98800	43
0.99167	41
0.99533	40
0.99900	40
1.00267	40
1.00633	42
1.01000	43
1.01367	43
1.01733	44
1.02100	45
1.02467	46
1.02833	46
1.03200	46
1.03567	45
1.03933	44
1.04300	45
1.04667	48
1.05033	50
1.05400	48
1.05767	48
1.06133	49
1.06500	49
1.06867	49
1.07233	49
1.07600	50
1.07967	50
1.08333	47
1.08700	47
1.09067	45
1.09433	46
1.09800	48
1.10167	47
1.10533	48
1.10900	48
1.11267	47
1.11633	46
1.12000	45
1.12367	45
1.12733	43
1.13100	45
1.13467	46
1.13833	47
1.14200	49
1.14567	48
1.14933	47
1.15300	47
1.15667	47
1.16033	46
1.16400	45
1.16767	45
1.17133	46
1.17500	46
1.17867	48
1.18233	50
1.18600	50
1.18967	49
1.19333	47
1.19700	49
1.20067	50
1.20433	50
1.20800	48
1.21167	47
1.21533	46
1.21900	44
1.22267	45
1.22633	46
1.23000	46
1.23367	47
1.23733	46
1.24100	46
1.24467	46
1.24833	49
1.25200	50
1.25567	49
1.25933	49
1.26300	47
1.26667	47
1.27033	47
1.27400	48
1.27767	47
1.28133	48
1.28500	48
1.28867	47
1.29233	46
1.29600	47
1.29967	49
1.30333	49
1.30700	49
1.31067	49
1.31433	50
1.31800	52
1.32167	54
1.32533	54
1.32900	52
1.33267	50
1.33633	49
1.34000	49
1.34367	51
1.34733	53
1.35100	55
1.35467	55
1.35833	56
1.36200	55
1.36567	55
1.36933	55
1.37300	55
1.37667	53
1.38033	53
1.38400	56
1.38767	57
1.39133	56
1.39500	57
1.39867	56
1.40233	57
1.40600	60
1.40967	61
1.41333	62
1.41700	63
1.42067	64
1.42433	65
1.42800	66
1.43167	64
1.43533	61
1.43900	59
1.44267	60
1.44633	62
1.45000	65
1.45367	66
1.45733	66
1.46100	67
1.46467	67
1.46833	67
1.47200	64
1.47567	63
1.47933	61
1.48300	59
1.48667	58
1.49033	59
1.49400	58
1.49767	59
1.50133	61
1.50500	63
1.50867	66
1.51233	68
1.51600	68
1.51967	68
1.52333	67
1.52700	66
1.53067	64
1.53433	63
1.53800	61
1.54167	61
1.54533	63
1.54900	67
1.55267	70
1.55633	69
1.56000	68
1.56367	68
1.56733	68
1.57100	68
1.57467	68
1.57833	69
1.58200	71
1.58567	74
1.58933	74
1.59300	74
1.59667	73
1.60033	72
1.60400	69
1.60767	68
1.61133	70
1.61500	71
1.61867	72
1.62233	73
1.62600	73
1.62967	73
1.63333	73
1.63700	71
1.64067	70
1.64433	71
1.64800	71
1.65167	72
1.65533	72
1.65900	72
1.66267	72
1.66633	72
1.67000	74
1.67367	76
1.67733	75
1.68100	76
1.68467	78
1.68833	81
1.69200	81
1.69567	81
1.69933	82
1.70300	81
1.70667	79
1.71033	80
1.71400	81
1.71767	81
1.72133	79
1.72500	76
1.72867	74
1.73233	75
1.73600	76
1.73967	79
1.74333	83
1.74700	85
1.75067	87
1.75433	87
1.75800	85
1.76167	83
1.76533	82
1.76900	83
1.77267	84
1.77633	85
1.78000	89
1.78367	92
1.78733	93
1.79100	93
1.79467	92
1.79833	92
1.80200	92
1.80567	92
1.80933	93
1.81300	96
1.81667	99
1.82033	103
1.82400	104
1.82767	105
1.83133	106
1.83500	107
1.83867	107
1.84233	108
1.84600	108
1.84967	110
1.85333	111
1.85700	111
1.86067	110
1.86433	110
1.86800	108
1.87167	108
1.87533	109
1.87900	110
1.88267	111
1.88633	113
1.89000	115
1.89367	117
1.89733	116
1.90100	116
1.90467	118
1.90833	119
1.91200	118
1.91567	118
1.91933	119
1.92300	120
1.92667	120
1.93033	120
1.93400	122
1.93767	123
1.94133	126
1.94500	130
1.94867	131
1.95233	132
1.95600	130
1.95967	129
1.96333	129
1.96700	129
1.97067	130
1.97433	131
1.97800	133
1.98167	134
1.98533	133
1.98900	135
1.99267	138
1.99633	139
2.00000	140
2.00367	140
2.00733	140
2.01100	141
2.01467	140
2.01833	139
2.02200	139
2.02567	141
2.02933	144
2.03300	147
2.03667	147
2.04033	145
2.04400	143
2.04767	144
2.05133	145
2.05500	145
2.05867	146
2.06233	146
2.06600	147
2.06967	148
2.07333	149
2.07700	151
2.08067	153
2.08433	154
2.08800	155
2.09167	157
2.09533	161
2.09900	164
2.10267	167
2.10633	168
2.11000	169
2.11367	170
2.11733	172
2.12100	173
2.12467	172
2.12833	172
2.13200	172
2.13567	172
2.13933	173
2.14300	173
2.14667	174
2.15033	175
2.15400	176
2.15767	178
2.16133	178
2.16500	177
2.16867	176
2.17233	178
2.17600	177
2.17967	176
2.18333	179
2.18700	182
2.19067	184
2.19433	183
2.19800	184
2.20167	183
2.20533	184
2.20900	186
2.21267	186
2.21633	187
2.22000	188
2.22367	190
2.22733	190
2.23100	190
2.23467	191
2.23833	190
2.24200	190
2.24567	190
2.24933	193
2.25300	195
2.25667	197
2.26033	198
2.26400	199
2.26767	199
2.27133	201
2.27500	202
2.27867	202
2.28233	205
2.28600	207
2.28967	209
2.29333	210
2.29700	211
2.30067	212
2.30433	216
2.30800	217
2.31167	217
2.31533	217
2.31900	216
2.32267	217
2.32633	216
2.33000	215
2.33367	218
2.33733	222
2.34100	224
2.34467	224
2.34833	224
2.35200	224
2.35567	223
2.35933	224
2.36300	225
2.36667	226
2.37033	229
2.37400	231
2.37767	233
2.38133	235
2.38500	233
2.38867	229
2.39233	226
2.39600	226
2.39967	228
2.40333	233
2.40700	238
2.41067	240
2.41433	241
2.41800	243
2.42167	244
2.42533	247
2.42900	248
2.43267	248
2.43633	248
2.44000	254
2.44367	281
2.44733	346
2.45100	415
2.45467	471
2.45833	506
2.46200	511
2.46567	494
2.46933	470
2.47300	448
2.47667	431
2.48033	421
2.48400	412
2.48767	401
2.49133	387
2.49500	371
2.49867	357
2.50233	341
2.50600	327
2.50967	315
2.51333	308
2.51700	305
2.52067	301
2.52433	301
2.52800	304
2.53167	307
2.53533	313
2.53900	320
2.54267	327
2.54633	333
2.55000	334
2.55367	332
2.55733	326
2.56100	319
2.56467	309
2.56833	300
2.57200	294
2.57567	288
2.57933	281
2.58300	275
2.58667	271
2.59033	265
2.59400	257
2.59767	249
2.60133	242
2.60500	231
2.60867	215
2.61233	198
2.61600	181
2.61967	163
2.62333	145
2.62700	126
2.63067	111
2.63433	100
2.63800	94
2.64167	92
2.64533	92
2.64900	95
2.65267	101
2.65633	109
2.66000	119
2.66367	128
2.66733	136
2.67100	146
2.67467	154
2.67833	163
2.68200	171
2.68567	175
2.68933	182
2.69300	187
2.69667	189
2.70033	190
2.70400	194
2.70767	198
2.71133	199
2.71500	199
2.71867	200
2.72233	199
2.72600	198
2.72967	197
2.73333	197
2.73700	196
2.74067	191
2.74433	188
2.74800	187
2.75167	188
2.75533	188
2.75900	189
2.76267	190
2.76633	193
2.77000	195
2.77367	193
2.77733	192
2.78100	191
2.78467	189
2.78833	188
2.79200	190
2.79567	193
2.79933	193
2.80300	191
2.80667	189
2.81033	189
2.81400	193
2.81767	202
2.82133	222
2.82500	265
2.82867	350
2.83233	496
2.83600	725
2.83967	1052
2.84333	1480
2.84700	1998
2.85067	2576
2.85433	3172
2.85800	3735
2.86167	4219
2.86533	4588
2.86900	4818
2.87267	4903
2.87633	4859
2.88000	4702
2.88367	4457
2.88733	4153
2.89100	3813
2.89467	3462
2.89833	3116
2.90200	2788
2.90567	2480
2.90933	2196
2.91300	1943
2.91667	1717
2.92033	1514
2.92400	1335
2.92767	1179
2.93133	1044
2.93500	923
2.93867	817
2.94233	726
2.94600	654
2.94967	591
2.95333	536
2.95700	487
2.96067	443
2.96433	407
2.96800	378
2.97167	353
2.97533	329
2.97900	308
2.98267	291
2.98633	274
2.99000	261
2.99367	250
2.99733	243
3.00100	237
3.00467	229
3.00833	221
3.01200	216
3.01567	214
3.01933	210
3.02300	207
3.02667	204
3.03033	199
3.03400	195
3.03767	191
3.04133	190
3.04500	185
3.04867	181
3.05233	179
3.05600	174
3.05967	171
3.06333	170
3.06700	169
3.07067	167
3.07433	166
3.07800	164
3.08167	165
3.08533	164
3.08900	162
3.09267	159
3.09633	158
3.10000	157
3.10367	155
3.10733	154
3.11100	152
3.11467	150
3.11833	150
3.12200	150
3.12567	150
3.12933	147
3.13300	147
3.13667	147
3.14033	148
3.14400	149
3.14767	150
3.15133	152
3.15500	153
3.15867	150
3.16233	148
3.16600	146
3.16967	144
3.17333	142
3.17700	143
3.18067	147
3.18433	147
3.18800	147
3.19167	147
3.19533	149
3.19900	151
3.20267	148
3.20633	145
3.21000	145
3.21367	147
3.21733	147
3.22100	148
3.22467	151
3.22833	151
3.23200	150
3.23567	148
3.23933	148
3.24300	151
3.24667	155
3.25033	157
3.25400	154
3.25767	153
3.26133	154
3.26500	153
3.26867	151
3.27233	150
3.27600	147
3.27967	147
3.28333	148
3.28700	148
3.29067	148
3.29433	148
3.29800	147
3.30167	149
3.30533	149
3.30900	149
3.31267	148
3.31633	148
3.32000	145
3.32367	144
3.32733	142
3.33100	141
3.33467	138
3.33833	137
3.34200	136
3.34567	136
3.34933	137
3.35300	138
3.35667	137
3.36033	136
3.36400	135
3.36767	133
3.37133	133
3.37500	133
3.37867	133
3.38233	133
3.38600	130
3.38967	129
3.39333	128
3.39700	127
3.40067	125
3.40433	125
3.40800	126
3.41167	127
3.41533	125
3.41900	125
3.42267	125
3.42633	124
3.43000	122
3.43367	122
3.43733	124
3.44100	125
3.44467	124
3.44833	123
3.45200	123
3.45567	125
3.45933	128
3.46300	130
3.46667	132
3.47033	133
3.47400	133
3.47767	131
3.48133	130
3.48500	132
3.48867	131
3.49233	130
3.49600	129
3.49967	127
3.50333	128
3.50700	129
3.51067	133
3.51433	135
3.51800	134
3.52167	130
3.52533	129
3.52900	129
3.53267	130
3.53633	131
3.54000	133
3.54367	135
3.54733	136
3.55100	134
3.55467	130
3.55833	131
3.56200	134
3.56567	134
3.56933	132
3.57300	124
3.57667	114
3.58033	104
3.58400	92
3.58767	84
3.59133	84
3.59500	87
3.59867	95
3.60233	106
3.60600	120
3.60967	137
3.61333	152
3.61700	167
3.62067	182
3.62433	195
3.62800	208
3.63167	220
3.63533	232
3.63900	244
3.64267	255
3.64633	268
3.65000	281
3.65367	288
3.65733	293
3.66100	301
3.66467	310
3.66833	318
3.67200	325
3.67567	332
3.67933	340
3.68300	345
3.68667	349
3.69033	355
3.69400	359
3.69767	362
3.70133	364
3.70500	368
3.70867	369
3.71233	369
3.71600	370
3.71967	374
3.72333	376
3.72700	378
3.73067	381
3.73433	381
3.73800	381
3.74167	383
3.74533	383
3.74900	383
3.75267	384
3.75633	385
3.76000	384
3.76367	383
3.76733	381
3.77100	379
3.77467	378
3.77833	375
3.78200	373
3.78567	368
3.78933	365
3.79300	364
3.79667	362
3.80033	362
3.80400	362
3.80767	360
3.81133	358
3.81500	357
3.81867	355
3.82233	353
3.82600	350
3.82967	349
3.83333	349
3.83700	351
3.84067	351
3.84433	350
3.84800	350
3.85167	350
3.85533	349
3.85900	349
3.86267	349
3.86633	349
3.87000	350
3.87367	350
3.87733	349
3.88100	347
3.88467	345
3.88833	345
3.89200	345
3.89567	347
3.89933	347
3.90300	350
3.90667	351
3.91033	350
3.91400	348
3.91767	348
3.92133	346
3.92500	343
3.92867	342
3.93233	341
3.93600	343
3.93967	345
3.94333	345
3.94700	343
3.95067	342
3.95433	341
3.95800	339
3.96167	339
3.96533	339
3.96900	339
3.97267	338
3.97633	337
3.98000	335
3.98367	335
3.98733	334
3.99100	334
3.99467	333
3.99833	332

[Status Trace (Column Oven Temperature)]
Interval(msec)	1000
# of Points	240
Start Time(min)	0.002
End Time(min)	3.986
Intensity Units	
Intensity Multiplier	1
R.Time (min)	Intensity
0.00237	35.07
0.01903	35.06
0.03570	35.06
0.05237	35.05
0.06903	35.05
0.08570	35.04
0.10237	35.03
0.11903	35.04
0.13570	35.04
0.15237	35.05
0.16903	35.05
0.18570	35.06
0.20237	35.06
0.21903	35.07
0.23570	35.07
0.25237	35.07
0.26903	35.06
0.28570	35.06
0.30237	35.05
0.31903	35.06
0.33570	35.06
0.35237	35.05
0.36903	35.05
0.38570	35.05
0.40237	35.05
0.41903	35.05
0.43570	35.03
0.45237	35.02
0.46903	35.00
0.48570	35.00
0.50237	34.99
0.51903	34.99
0.53570	34.99
0.55237	35.00
0.56903	35.01
0.58570	35.03
0.60237	35.04
0.61903	35.06
0.63570	35.05
0.65237	35.04
0.66903	35.03
0.68570	35.02
0.70237	35.01
0.71903	35.01
0.73570	35.00
0.75237	34.99
0.76903	34.98
0.78570	34.97
0.80237	34.97
0.81903	34.98
0.83570	34.99
0.85237	34.99
0.86903	34.99
0.88570	35.00
0.90237	35.00
0.91903	35.01
0.93570	34.99
0.95237	34.98
0.96903	34.98
0.98570	34.98
1.00237	34.99
1.01903	34.99
1.03570	34.98
1.05237	34.97
1.06903	34.97
1.08570	34.98
1.10237	34.99
1.11903	34.99
1.13570	35.01
1.15237	35.02
1.16903	35.02
1.18570	35.03
1.20237	35.02
1.21903	35.03
1.23570	35.03
1.25237	35.03
1.26903	35.03
1.28570	35.03
1.30237	35.03
1.31903	35.03
1.33570	35.02
1.35237	35.02
1.36903	35.02
1.38570	35.03
1.40237	35.02
1.41903	35.01
1.43570	35.01
1.45237	35.00
1.46903	34.99
1.48570	34.98
1.50237	34.98
1.51903	34.99
1.53570	34.99
1.55237	35.00
1.56903	35.01
1.58570	35.00
1.60237	35.04
1.61903	35.14
1.63570	35.30
1.65237	35.52
1.66903	35.82
1.68570	36.19
1.70237	36.54
1.71903	36.89
1.73570	37.22
1.75237	37.56
1.76903	37.91
1.78570	38.23
1.80237	38.56
1.81903	38.90
1.83570	39.21
1.85237	39.55
1.86903	39.87
1.88570	40.21
1.90237	40.53
1.91903	40.87
1.93570	41.19
1.95237	41.51
1.96903	41.83
1.98570	42.16
2.00237	42.49
2.01903	42.80
2.03570	43.13
2.05237	43.46
2.06903	43.78
2.08570	44.11
2.10237	44.43
2.11903	44.75
2.13570	45.07
2.15237	45.41
2.16903	45.73
2.18570	46.05
2.20237	46.38
2.21903	46.73
2.23570	47.05
2.25237	47.37
2.26903	47.73
2.28570	48.06
2.30237	48.40
2.31903	48.72
2.33570	49.04
2.35237	49.33
2.36903	49.59
2.38570	49.69
2.40237	49.69
2.41903	49.68
2.43570	49.69
2.45237	49.70
2.46903	49.70
2.48570	49.70
2.50237	49.71
2.51903	49.73
2.53570	49.73
2.55237	49.75
2.56903	49.77
2.58570	49.79
2.60237	49.80
2.61903	49.80
2.63570	49.81
2.65237	49.83
2.66903	49.83
2.68570	49.85
2.70237	49.85
2.71903	49.84
2.73570	49.85
2.75237	49.86
2.76903	49.85
2.78570	49.85
2.80237	49.88
2.81903	49.90
2.83570	49.91
2.85237	49.91
2.86903	49.91
2.88570	49.91
2.90237	49.91
2.91903	49.91
2.93570	49.92
2.95237	49.93
2.96903	49.94
2.98570	49.96
3.00237	49.97
3.01903	50.00
3.03570	50.02
3.05237	50.03
3.06903	50.04
3.08570	50.04
3.10237	50.04
3.11903	50.04
3.13570	50.04
3.15237	50.05
3.16903	50.05
3.18570	50.07
3.20237	50.07
3.21903	50.07
3.23570	50.07
3.25237	50.08
3.26903	50.09
3.28570	50.09
3.30237	50.09
3.31903	50.09
3.33570	50.09
3.35237	50.11
3.36903	50.10
3.38570	50.09
3.40237	50.09
3.41903	50.09
3.43570	50.08
3.45237	50.08
3.46903	50.08
3.48570	50.08
3.50237	50.08
3.51903	50.08
3.53570	50.08
3.55237	50.07
3.56903	50.06
3.58570	50.07
3.60237	50.07
3.61903	50.08
3.63570	50.08
3.65237	50.08
3.66903	50.07
3.68570	50.07
3.70237	50.06
3.71903	50.06
3.73570	50.06
3.75237	50.06
3.76903	50.05
3.78570	50.05
3.80237	50.05
3.81903	50.06
3.83570	50.06
3.85237	50.07
3.86903	50.07
3.88570	50.08
3.90237	50.07
3.91903	50.08
3.93570	50.08
3.95237	50.09
3.96903	50.10
3.98570	50.11

[Status Trace (Injection Unit Temperature)]
Interval(msec)	1000
# of Points	240
Start Time(min)	0.002
End Time(min)	3.986
Intensity Units	
Intensity Multiplier	1
R.Time (min)	Intensity
0.00237	99.97
0.01903	99.98
0.03570	99.98
0.05237	99.98
0.06903	99.98
0.08570	99.98
0.10237	99.98
0.11903	99.98
0.13570	99.98
0.15237	99.98
0.16903	99.98
0.18570	99.98
0.20237	99.98
0.21903	99.98
0.23570	99.98
0.25237	99.98
0.26903	99.98
0.28570	99.97
0.30237	99.97
0.31903	99.97
0.33570	99.97
0.35237	99.97
0.36903	99.98
0.38570	99.97
0.40237	99.98
0.41903	99.98
0.43570	99.98
0.45237	99.98
0.46903	99.98
0.48570	99.98
0.50237	99.98
0.51903	99.97
0.53570	99.98
0.55237	99.98
0.56903	99.98
0.58570	99.98
0.60237	99.98
0.61903	99.98
0.63570	99.98
0.65237	99.98
0.66903	99.98
0.68570	99.98
0.70237	99.98
0.71903	99.98
0.73570	99.98
0.75237	99.98
0.76903	99.98
0.78570	99.98
0.80237	99.98
0.81903	99.98
0.83570	99.98
0.85237	99.98
0.86903	99.98
0.88570	99.99
0.90237	99.98
0.91903	99.99
0.93570	99.99
0.95237	99.98
0.96903	99.99
0.98570	99.98
1.00237	99.99
1.01903	99.98
1.03570	99.98
1.05237	99.98
1.06903	99.99
1.08570	99.98
1.10237	99.98
1.11903	99.98
1.13570	99.98
1.15237	99.98
1.16903	99.98
1.18570	99.98
1.20237	99.98
1.21903	99.98
1.23570	99.98
1.25237	99.98
1.26903	99.98
1.28570	99.98
1.30237	99.98
1.31903	99.98
1.33570	99.98
1.35237	99.99
1.36903	99.99
1.38570	99.98
1.40237	99.99
1.41903	99.98
1.43570	99.98
1.45237	99.98
1.46903	99.99
1.48570	99.98
1.50237	99.99
1.51903	99.99
1.53570	99.98
1.55237	99.98
1.56903	99.98
1.58570	99.99
1.60237	99.99
1.61903	99.98
1.63570	99.98
1.65237	99.98
1.66903	99.99
1.68570	99.99
1.70237	99.99
1.71903	99.99
1.73570	99.99
1.75237	99.99
1.76903	99.99
1.78570	99.99
1.80237	99.98
1.81903	99.98
1.83570	99.98
1.85237	99.98
1.86903	99.98
1.88570	99.98
1.90237	99.98
1.91903	99.98
1.93570	99.98
1.95237	99.97
1.96903	99.98
1.98570	99.97
2.00237	99.97
2.01903	99.97
2.03570	99.97
2.05237	99.97
2.06903	99.97
2.08570	99.97
2.10237	99.97
2.11903	99.97
2.13570	99.97
2.15237	99.97
2.16903	99.97
2.18570	99.96
2.20237	99.96
2.21903	99.96
2.23570	99.96
2.25237	99.96
2.26903	99.96
2.28570	99.96
2.30237	99.96
2.31903	99.96
2.33570	99.95
2.35237	99.96
2.36903	99.96
2.38570	99.96
2.40237	99.95
2.41903	99.95
2.43570	99.96
2.45237	99.96
2.46903	99.96
2.48570	99.96
2.50237	99.96
2.51903	99.96
2.53570	99.96
2.55237	99.96
2.56903	99.96
2.58570	99.96
2.60237	99.96
2.61903	99.96
2.63570	99.97
2.65237	99.96
2.66903	99.97
2.68570	99.97
2.70237	99.97
2.71903	99.97
2.73570	99.98
2.75237	99.98
2.76903	99.98
2.78570	99.98
2.80237	99.98
2.81903	99.98
2.83570	99.99
2.85237	99.99
2.86903	99.99
2.88570	99.99
2.90237	100.00
2.91903	100.00
2.93570	100.00
2.95237	100.00
2.96903	100.00
2.98570	100.01
3.00237	100.01
3.01903	100.01
3.03570	100.01
3.05237	100.02
3.06903	100.02
3.08570	100.02
3.10237	100.02
3.11903	100.02
3.13570	100.02
3.15237	100.02
3.16903	100.02
3.18570	100.02
3.20237	100.03
3.21903	100.03
3.23570	100.03
3.25237	100.03
3.26903	100.03
3.28570	100.03
3.30237	100.03
3.31903	100.03
3.33570	100.03
3.35237	100.04
3.36903	100.04
3.38570	100.03
3.40237	100.04
3.41903	100.04
3.43570	100.04
3.45237	100.04
3.46903	100.04
3.48570	100.04
3.50237	100.03
3.51903	100.04
3.53570	100.04
3.55237	100.04
3.56903	100.04
3.58570	100.04
3.60237	100.04
3.61903	100.04
3.63570	100.04
3.65237	100.04
3.66903	100.04
3.68570	100.04
3.70237	100.04
3.71903	100.04
3.73570	100.04
3.75237	100.04
3.76903	100.04
3.78570	100.04
3.80237	100.04
3.81903	100.04
3.83570	100.04
3.85237	100.04
3.86903	100.04
3.88570	100.04
3.90237	100.04
3.91903	100.03
3.93570	100.04
3.95237	100.04
3.96903	100.04
3.98570	100.04

[Status Trace (Carrier Gas Pressure)]
Interval(msec)	1000
# of Points	240
Start Time(min)	0.002
End Time(min)	3.986
Intensity Units	
Intensity Multiplier	1
R.Time (min)	Intensity
0.00237	58.00
0.01903	56.35
0.03570	56.32
0.05237	58.61
0.06903	59.87
0.08570	58.29
0.10237	57.97
0.11903	58.00
0.13570	58.01
0.15237	58.01
0.16903	58.00
0.18570	58.00
0.20237	58.00
0.21903	58.00
0.23570	58.00
0.25237	58.00
0.26903	58.00
0.28570	58.00
0.30237	58.00
0.31903	58.00
0.33570	58.00
0.35237	58.00
0.36903	58.00
0.38570	58.00
0.40237	58.00
0.41903	58.00
0.43570	58.00
0.45237	58.00
0.46903	58.00
0.48570	58.00
0.50237	58.00
0.51903	58.00
0.53570	58.00
0.55237	58.00
0.56903	58.00
0.58570	58.00
0.60237	58.00
0.61903	58.00
0.63570	58.00
0.65237	58.00
0.66903	58.00
0.68570	58.00
0.70237	58.00
0.71903	58.00
0.73570	58.00
0.75237	58.00
0.76903	58.00
0.78570	58.00
0.80237	58.00
0.81903	58.00
0.83570	58.00
0.85237	58.00
0.86903	58.00
0.88570	58.00
0.90237	58.00
0.91903	58.00
0.93570	58.00
0.95237	58.00
0.96903	58.00
0.98570	58.00
1.00237	58.00
1.01903	58.00
1.03570	58.00
1.05237	58.00
1.06903	58.00
1.08570	58.00
1.10237	58.00
1.11903	58.00
1.13570	58.00
1.15237	58.00
1.16903	58.00
1.18570	58.00
1.20237	58.00
1.21903	58.00
1.23570	58.00
1.25237	58.00
1.26903	58.00
1.28570	58.00
1.30237	58.00
1.31903	58.00
1.33570	58.00
1.35237	58.00
1.36903	58.00
1.38570	58.00
1.40237	58.00
1.41903	58.00
1.43570	58.00
1.45237	58.00
1.46903	58.00
1.48570	58.00
1.50237	58.00
1.51903	58.00
1.53570	58.00
1.55237	58.00
1.56903	58.00
1.58570	58.00
1.60237	58.00
1.61903	58.00
1.63570	58.00
1.65237	58.00
1.66903	58.01
1.68570	58.01
1.70237	58.00
1.71903	58.00
1.73570	58.00
1.75237	58.00
1.76903	58.00
1.78570	58.00
1.80237	58.00
1.81903	58.00
1.83570	58.00
1.85237	58.00
1.86903	58.00
1.88570	58.00
1.90237	58.00
1.91903	58.00
1.93570	58.00
1.95237	58.00
1.96903	58.00
1.98570	58.00
2.00237	58.00
2.01903	58.00
2.03570	58.00
2.05237	58.00
2.06903	58.00
2.08570	58.00
2.10237	58.00
2.11903	58.00
2.13570	58.00
2.15237	58.00
2.16903	58.00
2.18570	58.00
2.20237	58.00
2.21903	58.00
2.23570	58.00
2.25237	58.00
2.26903	58.00
2.28570	58.00
2.30237	58.00
2.31903	58.00
2.33570	58.00
2.35237	58.00
2.36903	58.00
2.38570	57.99
2.40237	57.99
2.41903	58.00
2.43570	58.00
2.45237	58.00
2.46903	58.00
2.48570	58.00
2.50237	57.97
2.51903	58.01
2.53570	57.99
2.55237	58.00
2.56903	58.00
2.58570	58.00
2.60237	58.00
2.61903	58.00
2.63570	58.00
2.65237	58.00
2.66903	58.00
2.68570	58.00
2.70237	58.00
2.71903	58.00
2.73570	58.00
2.75237	58.00
2.76903	58.00
2.78570	58.00
2.80237	58.00
2.81903	58.00
2.83570	58.00
2.85237	58.00
2.86903	58.00
2.88570	58.00
2.90237	58.00
2.91903	58.00
2.93570	58.00
2.95237	58.00
2.96903	58.00
2.98570	58.00
3.00237	58.00
3.01903	58.00
3.03570	58.00
3.05237	58.00
3.06903	58.00
3.08570	58.00
3.10237	58.00
3.11903	58.00
3.13570	58.00
3.15237	58.00
3.16903	58.00
3.18570	58.00
3.20237	58.00
3.21903	58.00
3.23570	58.00
3.25237	58.00
3.26903	58.00
3.28570	58.00
3.30237	58.00
3.31903	58.00
3.33570	58.00
3.35237	58.00
3.36903	58.00
3.38570	58.00
3.40237	58.00
3.41903	58.00
3.43570	58.00
3.45237	58.00
3.46903	58.00
3.48570	58.00
3.50237	58.00
3.51903	58.00
3.53570	58.00
3.55237	58.00
3.56903	58.00
3.58570	58.00
3.60237	58.00
3.61903	58.00
3.63570	58.00
3.65237	58.00
3.66903	58.00
3.68570	58.00
3.70237	58.00
3.71903	58.00
3.73570	58.00
3.75237	58.00
3.76903	58.00
3.78570	58.00
3.80237	58.00
3.81903	58.00
3.83570	58.00
3.85237	58.00
3.86903	58.00
3.88570	58.00
3.90237	58.00
3.91903	58.00
3.93570	58.00
3.95237	58.00
3.96903	58.00
3.98570	58.00

[Status Trace (Carrier Gas Flow)]
Interval(msec)	1000
# of Points	240
Start Time(min)	0.002
End Time(min)	3.986
Intensity Units	
Intensity Multiplier	1
R.Time (min)	Intensity
0.00237	34.52
0.01903	34.48
0.03570	34.54
0.05237	34.55
0.06903	34.49
0.08570	34.52
0.10237	34.52
0.11903	34.52
0.13570	34.52
0.15237	34.52
0.16903	34.52
0.18570	34.52
0.20237	34.52
0.21903	34.52
0.23570	34.52
0.25237	34.52
0.26903	34.52
0.28570	34.52
0.30237	34.52
0.31903	34.52
0.33570	34.52
0.35237	34.52
0.36903	34.52
0.38570	34.52
0.40237	34.52
0.41903	34.52
0.43570	34.52
0.45237	34.52
0.46903	34.52
0.48570	34.52
0.50237	34.52
0.51903	34.52
0.53570	34.51
0.55237	34.52
0.56903	34.52
0.58570	34.52
0.60237	34.52
0.61903	34.51
0.63570	34.52
0.65237	34.52
0.66903	34.52
0.68570	34.53
0.70237	34.51
0.71903	34.51
0.73570	34.53
0.75237	34.51
0.76903	34.52
0.78570	34.52
0.80237	34.51
0.81903	34.52
0.83570	34.53
0.85237	34.52
0.86903	34.52
0.88570	34.53
0.90237	34.52
0.91903	34.52
0.93570	34.52
0.95237	34.52
0.96903	34.52
0.98570	34.52
1.00237	34.52
1.01903	34.52
1.03570	34.52
1.05237	34.52
1.06903	34.52
1.08570	34.52
1.10237	34.52
1.11903	34.52
1.13570	34.52
1.15237	34.52
1.16903	34.52
1.18570	34.52
1.20237	34.52
1.21903	34.52
1.23570	34.52
1.25237	34.52
1.26903	34.52
1.28570	34.52
1.30237	34.52
1.31903	34.52
1.33570	34.52
1.35237	34.52
1.36903	34.52
1.38570	34.52
1.40237	34.52
1.41903	34.52
1.43570	34.52
1.45237	34.52
1.46903	34.52
1.48570	34.52
1.50237	34.52
1.51903	34.52
1.53570	34.51
1.55237	34.52
1.56903	34.52
1.58570	34.52
1.60237	34.52
1.61903	34.51
1.63570	34.52
1.65237	34.52
1.66903	34.52
1.68570	34.52
1.70237	34.52
1.71903	34.52
1.73570	34.52
1.75237	34.52
1.76903	34.52
1.78570	34.52
1.80237	34.52
1.81903	34.52
1.83570	34.52
1.85237	34.52
1.86903	34.52
1.88570	34.52
1.90237	34.52
1.91903	34.52
1.93570	34.52
1.95237	34.52
1.96903	34.52
1.98570	34.52
2.00237	34.52
2.01903	34.52
2.03570	34.52
2.05237	34.52
2.06903	34.51
2.08570	34.52
2.10237	34.52
2.11903	34.51
2.13570	34.52
2.15237	34.51
2.16903	34.52
2.18570	34.52
2.20237	34.52
2.21903	34.52
2.23570	34.52
2.25237	34.52
2.26903	34.52
2.28570	34.52
2.30237	34.52
2.31903	34.52
2.33570	34.52
2.35237	34.52
2.36903	34.52
2.38570	34.52
2.40237	34.52
2.41903	34.52
2.43570	34.53
2.45237	34.52
2.46903	34.52
2.48570	34.52
2.50237	34.63
2.51903	34.52
2.53570	34.52
2.55237	34.52
2.56903	34.51
2.58570	34.52
2.60237	34.52
2.61903	34.52
2.63570	34.52
2.65237	34.51
2.66903	34.52
2.68570	34.52
2.70237	34.52
2.71903	34.52
2.73570	34.52
2.75237	34.52
2.76903	34.51
2.78570	34.52
2.80237	34.52
2.81903	34.52
2.83570	34.52
2.85237	34.52
2.86903	34.51
2.88570	34.52
2.90237	34.52
2.91903	34.52
2.93570	34.52
2.95237	34.52
2.96903	34.52
2.98570	34.52
3.00237	34.52
3.01903	34.52
3.03570	34.52
3.05237	34.52
3.06903	34.52
3.08570	34.52
3.10237	34.52
3.11903	34.51
3.13570	34.52
3.15237	34.52
3.16903	34.52
3.18570	34.52
3.20237	34.52
3.21903	34.52
3.23570	34.52
3.25237	34.52
3.26903	34.52
3.28570	34.52
3.30237	34.52
3.31903	34.52
3.33570	34.52
3.35237	34.51
3.36903	34.52
3.38570	34.52
3.40237	34.52
3.41903	34.52
3.43570	34.52
3.45237	34.52
3.46903	34.52
3.48570	34.52
3.50237	34.52
3.51903	34.52
3.53570	34.52
3.55237	34.51
3.56903	34.52
3.58570	34.52
3.60237	34.52
3.61903	34.52
3.63570	34.52
3.65237	34.52
3.66903	34.52
3.68570	34.52
3.70237	34.52
3.71903	34.52
3.73570	34.52
3.75237	34.52
3.76903	34.52
3.78570	34.52
3.80237	34.52
3.81903	34.52
3.83570	34.52
3.85237	34.52
3.86903	34.52
3.88570	34.52
3.90237	34.52
3.91903	34.52
3.93570	34.52
3.95237	34.52
3.96903	34.52
3.98570	34.52

[Status Trace (Column Flow)]
Interval(msec)	1000
# of Points	240
Start Time(min)	0.002
End Time(min)	3.986
Intensity Units	
Intensity Multiplier	1
R.Time (min)	Intensity
0.00237	5.57
0.01903	5.38
0.03570	5.38
0.05237	5.64
0.06903	5.79
0.08570	5.61
0.10237	5.57
0.11903	5.57
0.13570	5.57
0.15237	5.57
0.16903	5.57
0.18570	5.57
0.20237	5.57
0.21903	5.57
0.23570	5.57
0.25237	5.57
0.26903	5.57
0.28570	5.57
0.30237	5.57
0.31903	5.57
0.33570	5.57
0.35237	5.57
0.36903	5.57
0.38570	5.57
0.40237	5.57
0.41903	5.57
0.43570	5.57
0.45237	5.57
0.46903	5.57
0.48570	5.57
0.50237	5.57
0.51903	5.57
0.53570	5.57
0.55237	5.57
0.56903	5.57
0.58570	5.57
0.60237	5.57
0.61903	5.57
0.63570	5.57
0.65237	5.57
0.66903	5.57
0.68570	5.57
0.70237	5.57
0.71903	5.57
0.73570	5.57
0.75237	5.57
0.76903	5.57
0.78570	5.57
0.80237	5.58
0.81903	5.57
0.83570	5.57
0.85237	5.57
0.86903	5.57
0.88570	5.57
0.90237	5.57
0.91903	5.57
0.93570	5.57
0.95237	5.57
0.96903	5.57
0.98570	5.57
1.00237	5.57
1.01903	5.57
1.03570	5.57
1.05237	5.57
1.06903	5.57
1.08570	5.57
1.10237	5.57
1.11903	5.57
1.13570	5.57
1.15237	5.57
1.16903	5.57
1.18570	5.57
1.20237	5.57
1.21903	5.57
1.23570	5.57
1.25237	5.57
1.26903	5.57
1.28570	5.57
1.30237	5.57
1.31903	5.57
1.33570	5.57
1.35237	5.57
1.36903	5.57
1.38570	5.57
1.40237	5.57
1.41903	5.57
1.43570	5.57
1.45237	5.57
1.46903	5.57
1.48570	5.57
1.50237	5.57
1.51903	5.57
1.53570	5.57
1.55237	5.57
1.56903	5.57
1.58570	5.57
1.60237	5.57
1.61903	5.57
1.63570	5.57
1.65237	5.56
1.66903	5.55
1.68570	5.54
1.70237	5.53
1.71903	5.52
1.73570	5.50
1.75237	5.49
1.76903	5.48
1.78570	5.47
1.80237	5.46
1.81903	5.45
1.83570	5.44
1.85237	5.43
1.86903	5.42
1.88570	5.41
1.90237	5.40
1.91903	5.39
1.93570	5.38
1.95237	5.37
1.96903	5.36
1.98570	5.35
2.00237	5.34
2.01903	5.33
2.03570	5.32
2.05237	5.31
2.06903	5.31
2.08570	5.30
2.10237	5.29
2.11903	5.28
2.13570	5.27
2.15237	5.26
2.16903	5.25
2.18570	5.24
2.20237	5.23
2.21903	5.22
2.23570	5.21
2.25237	5.20
2.26903	5.19
2.28570	5.18
2.30237	5.17
2.31903	5.16
2.33570	5.15
2.35237	5.15
2.36903	5.14
2.38570	5.13
2.40237	5.13
2.41903	5.14
2.43570	5.14
2.45237	5.13
2.46903	5.14
2.48570	5.13
2.50237	5.13
2.51903	5.14
2.53570	5.13
2.55237	5.13
2.56903	5.13
2.58570	5.13
2.60237	5.13
2.61903	5.13
2.63570	5.13
2.65237	5.13
2.66903	5.13
2.68570	5.13
2.70237	5.13
2.71903	5.13
2.73570	5.13
2.75237	5.13
2.76903	5.13
2.78570	5.13
2.80237	5.13
2.81903	5.13
2.83570	5.13
2.85237	5.13
2.86903	5.13
2.88570	5.13
2.90237	5.13
2.91903	5.13
2.93570	5.13
2.95237	5.13
2.96903	5.13
2.98570	5.13
3.00237	5.13
3.01903	5.13
3.03570	5.13
3.05237	5.13
3.06903	5.13
3.08570	5.13
3.10237	5.13
3.11903	5.13
3.13570	5.13
3.15237	5.13
3.16903	5.13
3.18570	5.12
3.20237	5.12
3.21903	5.12
3.23570	5.12
3.25237	5.12
3.26903	5.12
3.28570	5.12
3.30237	5.12
3.31903	5.12
3.33570	5.12
3.35237	5.12
3.36903	5.12
3.38570	5.12
3.40237	5.12
3.41903	5.12
3.43570	5.12
3.45237	5.12
3.46903	5.12
3.48570	5.12
3.50237	5.12
3.51903	5.12
3.53570	5.12
3.55237	5.12
3.56903	5.13
3.58570	5.12
3.60237	5.12
3.61903	5.12
3.63570	5.12
3.65237	5.12
3.66903	5.12
3.68570	5.12
3.70237	5.13
3.71903	5.13
3.73570	5.13
3.75237	5.13
3.76903	5.13
3.78570	5.13
3.80237	5.13
3.81903	5.13
3.83570	5.13
3.85237	5.12
3.86903	5.12
3.88570	5.12
3.90237	5.12
3.91903	5.12
3.93570	5.12
3.95237	5.12
3.96903	5.12
3.98570	5.12

[Status Trace (Linear Velocity)]
Interval(msec)	1000
# of Points	240
Start Time(min)	0.002
End Time(min)	3.986
Intensity Units	
Intensity Multiplier	1
R.Time (min)	Intensity
0.00237	39.02
0.01903	37.94
0.03570	37.92
0.05237	39.43
0.06903	40.25
0.08570	39.22
0.10237	39.01
0.11903	39.03
0.13570	39.03
0.15237	39.03
0.16903	39.03
0.18570	39.02
0.20237	39.02
0.21903	39.02
0.23570	39.02
0.25237	39.02
0.26903	39.02
0.28570	39.02
0.30237	39.02
0.31903	39.02
0.33570	39.02
0.35237	39.02
0.36903	39.02
0.38570	39.02
0.40237	39.02
0.41903	39.02
0.43570	39.03
0.45237	39.03
0.46903	39.03
0.48570	39.03
0.50237	39.03
0.51903	39.03
0.53570	39.03
0.55237	39.03
0.56903	39.03
0.58570	39.03
0.60237	39.03
0.61903	39.02
0.63570	39.02
0.65237	39.02
0.66903	39.03
0.68570	39.03
0.70237	39.03
0.71903	39.03
0.73570	39.03
0.75237	39.03
0.76903	39.03
0.78570	39.03
0.80237	39.03
0.81903	39.03
0.83570	39.03
0.85237	39.03
0.86903	39.03
0.88570	39.03
0.90237	39.03
0.91903	39.03
0.93570	39.03
0.95237	39.03
0.96903	39.03
0.98570	39.03
1.00237	39.03
1.01903	39.03
1.03570	39.03
1.05237	39.03
1.06903	39.03
1.08570	39.03
1.10237	39.03
1.11903	39.03
1.13570	39.03
1.15237	39.03
1.16903	39.03
1.18570	39.03
1.20237	39.03
1.21903	39.03
1.23570	39.03
1.25237	39.03
1.26903	39.03
1.28570	39.03
1.30237	39.03
1.31903	39.03
1.33570	39.03
1.35237	39.03
1.36903	39.03
1.38570	39.03
1.40237	39.03
1.41903	39.03
1.43570	39.03
1.45237	39.03
1.46903	39.03
1.48570	39.03
1.50237	39.03
1.51903	39.03
1.53570	39.03
1.55237	39.03
1.56903	39.03
1.58570	39.03
1.60237	39.03
1.61903	39.02
1.63570	39.00
1.65237	38.98
1.66903	38.96
1.68570	38.92
1.70237	38.88
1.71903	38.85
1.73570	38.82
1.75237	38.78
1.76903	38.76
1.78570	38.72
1.80237	38.69
1.81903	38.66
1.83570	38.63
1.85237	38.60
1.86903	38.57
1.88570	38.53
1.90237	38.50
1.91903	38.48
1.93570	38.44
1.95237	38.41
1.96903	38.39
1.98570	38.35
2.00237	38.32
2.01903	38.30
2.03570	38.26
2.05237	38.23
2.06903	38.21
2.08570	38.17
2.10237	38.14
2.11903	38.12
2.13570	38.09
2.15237	38.06
2.16903	38.03
2.18570	38.00
2.20237	37.97
2.21903	37.94
2.23570	37.91
2.25237	37.88
2.26903	37.85
2.28570	37.82
2.30237	37.79
2.31903	37.76
2.33570	37.73
2.35237	37.70
2.36903	37.68
2.38570	37.67
2.40237	37.67
2.41903	37.67
2.43570	37.67
2.45237	37.67
2.46903	37.67
2.48570	37.67
2.50237	37.65
2.51903	37.68
2.53570	37.66
2.55237	37.67
2.56903	37.66
2.58570	37.66
2.60237	37.66
2.61903	37.66
2.63570	37.66
2.65237	37.66
2.66903	37.66
2.68570	37.66
2.70237	37.66
2.71903	37.66
2.73570	37.66
2.75237	37.66
2.76903	37.66
2.78570	37.66
2.80237	37.66
2.81903	37.65
2.83570	37.65
2.85237	37.65
2.86903	37.65
2.88570	37.65
2.90237	37.65
2.91903	37.65
2.93570	37.65
2.95237	37.65
2.96903	37.65
2.98570	37.65
3.00237	37.65
3.01903	37.64
3.03570	37.64
3.05237	37.64
3.06903	37.64
3.08570	37.64
3.10237	37.64
3.11903	37.64
3.13570	37.64
3.15237	37.64
3.16903	37.64
3.18570	37.64
3.20237	37.64
3.21903	37.64
3.23570	37.64
3.25237	37.64
3.26903	37.64
3.28570	37.64
3.30237	37.64
3.31903	37.64
3.33570	37.64
3.35237	37.64
3.36903	37.64
3.38570	37.64
3.40237	37.64
3.41903	37.64
3.43570	37.64
3.45237	37.64
3.46903	37.64
3.48570	37.64
3.50237	37.64
3.51903	37.64
3.53570	37.64
3.55237	37.64
3.56903	37.64
3.58570	37.64
3.60237	37.64
3.61903	37.64
3.63570	37.64
3.65237	37.64
3.66903	37.64
3.68570	37.64
3.70237	37.64
3.71903	37.64
3.73570	37.64
3.75237	37.64
3.76903	37.64
3.78570	37.64
3.80237	37.64
3.81903	37.64
3.83570	37.64
3.85237	37.64
3.86903	37.64
3.88570	37.64
3.90237	37.64
3.91903	37.64
3.93570	37.64
3.95237	37.64
3.96903	37.64
3.98570	37.63

