[Header]
Application Name	LabSolutions
Version	5.110
Data File Name	C:\Users\User\Desktop\GC Analyses\Jack\Nachusa Grasslands Sampling\T2 Timepoint July 12th\T2_07122022_035.gcd
Output Date	3/14/2023
Output Time	3:42:32 PM

[File Information]
Type	Data File
Generated	3/10/2023 4:15:08 PM
Generated by	System Administrator
Modified	3/10/2023 4:21:59 PM
Modified by	System Administrator

[Sample Information]
Operator Name	System Administrator
Acquired	3/10/2023 4:17:58 PM
Sample Type	0:Unknown
Level	0
Sample Name	035
Sample ID	035
ISTD Amount1	1
ISTD Amount2	1
ISTD Amount3	1
ISTD Amount4	1
ISTD Amount5	1
ISTD Amount6	1
ISTD Amount7	1
ISTD Amount8	1
ISTD Amount9	1
ISTD Amount10	1
ISTD Amount11	1
ISTD Amount12	1
ISTD Amount13	1
ISTD Amount14	1
ISTD Amount15	1
ISTD Amount16	1
ISTD Amount17	1
ISTD Amount18	1
ISTD Amount19	1
ISTD Amount20	1
ISTD Amount21	1
ISTD Amount22	1
ISTD Amount23	1
ISTD Amount24	1
ISTD Amount25	1
ISTD Amount26	1
ISTD Amount27	1
ISTD Amount28	1
ISTD Amount29	1
ISTD Amount30	1
ISTD Amount31	1
ISTD Amount32	1
Sample Amount	1
Dilution Factor	1
Vial#	34
Injection Volume	1
Injection Count	1
Bar Code	

[Original Files]
Data File	C:\Users\User\Desktop\GC Analyses\Jack\Nachusa Grasslands Sampling\T1 Timepoint July 12th\T2_07122022_035.gcd
Method File	C:\LabSolutions\Data\GHG_4min_2022\ghg3_togas_w_acet_4 min_new_int.gcm
Batch File	C:\LabSolutions\Data\AutoSamplerTesting\T2_07122022.gcb
Report Format File	c:\LabSolutions\System\DEFAULT.lsr

[File Description]


[Configuration]
Instrument Name	C0B7VH3-Instrument1
Instrument #	1
Line #	1
# of Detectors	3
Detector ID	DET#1	DET#2	DET#3
Detector Name	FID	PTCD	ECD
# of Channels	1	1	1

[Peak Table(Ch1)]
# of Peaks	3
Peak#	R.Time	I.Time	F.Time	Area	Height	A/H	Conc.	Mark	ID#	Name	k'	Plate #	Plate Ht.	Tailing	Resolution	Sep.Factor	Area Ratio	Height Ratio	Conc. %	Norm Conc.
1	1.483	1.439	1.531	2406	717	3.356	16.988	   	1	CO	0.000	5045	29.733	0.000	0.000	0.000	0	0	1.828	1.828
2	1.567	1.531	1.659	20389	10300	1.980	394.230	 V 	2	CH4	0.057	11452	13.098	1.209	1.187	0.000	0	0	42.426	42.426
3	1.996	1.949	2.554	2063963	983588	2.098	517.999	   	3	CO2	0.346	17383	8.629	1.241	7.201	6.087	0	0	55.746	55.746

[Peak Table(Ch2)]
# of Peaks	0

[Peak Table(Ch3)]
# of Peaks	5
Peak#	R.Time	I.Time	F.Time	Area	Height	A/H	Conc.	Mark	ID#	Name	k'	Plate #	Plate Ht.	Tailing	Resolution	Sep.Factor	Area Ratio	Height Ratio	Conc. %	Norm Conc.
1	2.462	2.271	2.513	2259	611	3.696	0.000	   			0.000	9346	16.049	0.000	0.000	0.000	0	0	0.000	0.000
2	2.535	2.513	2.638	1362	334	4.071	0.000	 V 			0.030	5022	29.866	0.000	0.599	0.000	0	0	0.000	0.000
3	2.656	2.638	2.708	168	66	2.540	0.000	 V 			0.079	10959	13.688	0.000	0.989	2.650	0	0	0.000	0.000
4	2.876	2.785	3.078	60498	15645	3.867	1.545	   	1	N2O	0.168	12636	11.870	1.608	2.158	2.132	0	0	100.000	100.000
5	3.283	3.082	3.995	15040	443	33.948	0.000	   	2	SF6	0.334	179	836.797	2.237	0.751	1.982	0	0	0.000	0.000

[Compound Results(Ch1)]
# of IDs	6
ID#	Name	R.Time	Area	Height	Conc.	Curve	3rd	2nd	1st	Constant	Area Ratio	Height Ratio	Conc. %	Norm Conc.
1	CO	1.483	2406	717	16.988	Linear	0.000000e+00	0.000000e+00	1.416423e+002	0.000000e+00	0	0	1.828	1.828
2	CH4	1.567	20389	10300	394.230	Linear	0.000000e+00	0.000000e+00	5.171738e+001	0.000000e+00	0	0	42.426	42.426
3	CO2	1.996	2063963	983588	517.999	Linear	0.000000e+00	0.000000e+00	3.984494e+003	0.000000e+00	0	0	55.746	55.746
4	Ethylene	0.000	0	0	0.000	Linear	0.000000e+00	0.000000e+00	0.000000e+00	0.000000e+00	0	0	0.000	0.000
5	Acetylene	0.000	0	0	0.000	Linear	0.000000e+00	0.000000e+00	0.000000e+00	0.000000e+00	0	0	0.000	0.000
6	Ethane	0.000	0	0	0.000	Linear	0.000000e+00	0.000000e+00	0.000000e+00	0.000000e+00	0	0	0.000	0.000

[Compound Results(Ch2)]
# of IDs	5
ID#	Name	R.Time	Area	Height	Conc.	Curve	3rd	2nd	1st	Constant	Area Ratio	Height Ratio	Conc. %	Norm Conc.
1	Hydrogen	0.000	0	0	0.000	Linear	0.000000e+00	0.000000e+00	0.000000e+00	0.000000e+00	0	0	0.000	0.000
2	Oxygen	0.000	0	0	0.000	Linear	0.000000e+00	0.000000e+00	0.000000e+00	0.000000e+00	0	0	0.000	0.000
3	Nitrogen	0.000	0	0	0.000	Linear	0.000000e+00	0.000000e+00	0.000000e+00	0.000000e+00	0	0	0.000	0.000
4	Methane	0.000	0	0	0.000	Linear	0.000000e+00	0.000000e+00	0.000000e+00	0.000000e+00	0	0	0.000	0.000
5	Carbon Monoxide	0.000	0	0	0.000	Linear	0.000000e+00	0.000000e+00	0.000000e+00	0.000000e+00	0	0	0.000	0.000

[Compound Results(Ch3)]
# of IDs	2
ID#	Name	R.Time	Area	Height	Conc.	Curve	3rd	2nd	1st	Constant	Area Ratio	Height Ratio	Conc. %	Norm Conc.
1	N2O	2.876	60498	15645	1.545	Linear	0.000000e+00	0.000000e+00	3.915173e+004	0.000000e+00	0	0	100.000	100.000
2	SF6	3.283	15040	443	0.000	Linear	0.000000e+00	0.000000e+00	0.000000e+00	0.000000e+00	0	0	0.000	0.000

[Group Results(Ch1)]
# of Groups	0

[Group Results(Ch2)]
# of Groups	0

[Group Results(Ch3)]
# of Groups	0

[Chromatogram (Ch1)]
Interval(msec)	220
# of Points	1091
Start Time(min)	0.002
End Time(min)	3.998
R.Time (min)	Intensity
0.00167	37
0.00533	31
0.00900	24
0.01267	18
0.01633	16
0.02000	14
0.02367	12
0.02733	11
0.03100	17
0.03467	28
0.03833	36
0.04200	40
0.04567	40
0.04933	40
0.05300	40
0.05667	44
0.06033	49
0.06400	52
0.06767	53
0.07133	52
0.07500	51
0.07867	55
0.08233	61
0.08600	67
0.08967	69
0.09333	70
0.09700	77
0.10067	86
0.10433	91
0.10800	94
0.11167	94
0.11533	89
0.11900	87
0.12267	86
0.12633	86
0.13000	84
0.13367	81
0.13733	78
0.14100	75
0.14467	74
0.14833	73
0.15200	71
0.15567	67
0.15933	64
0.16300	66
0.16667	73
0.17033	77
0.17400	76
0.17767	71
0.18133	65
0.18500	57
0.18867	49
0.19233	45
0.19600	44
0.19967	43
0.20333	40
0.20700	37
0.21067	35
0.21433	34
0.21800	37
0.22167	44
0.22533	48
0.22900	48
0.23267	42
0.23633	33
0.24000	25
0.24367	21
0.24733	19
0.25100	21
0.25467	25
0.25833	31
0.26200	32
0.26567	29
0.26933	26
0.27300	19
0.27667	16
0.28033	20
0.28400	25
0.28767	28
0.29133	29
0.29500	31
0.29867	34
0.30233	33
0.30600	28
0.30967	21
0.31333	13
0.31700	6
0.32067	5
0.32433	10
0.32800	16
0.33167	21
0.33533	29
0.33900	37
0.34267	39
0.34633	34
0.35000	29
0.35367	25
0.35733	22
0.36100	23
0.36467	25
0.36833	27
0.37200	27
0.37567	28
0.37933	27
0.38300	28
0.38667	35
0.39033	42
0.39400	46
0.39767	46
0.40133	49
0.40500	53
0.40867	53
0.41233	46
0.41600	36
0.41967	28
0.42333	26
0.42700	23
0.43067	19
0.43433	17
0.43800	15
0.44167	15
0.44533	21
0.44900	31
0.45267	38
0.45633	39
0.46000	34
0.46367	30
0.46733	30
0.47100	30
0.47467	31
0.47833	36
0.48200	43
0.48567	48
0.48933	44
0.49300	32
0.49667	20
0.50033	13
0.50400	8
0.50767	5
0.51133	5
0.51500	4
0.51867	3
0.52233	1
0.52600	6
0.52967	16
0.53333	27
0.53700	36
0.54067	42
0.54433	45
0.54800	45
0.55167	46
0.55533	44
0.55900	37
0.56267	29
0.56633	24
0.57000	20
0.57367	20
0.57733	24
0.58100	27
0.58467	27
0.58833	24
0.59200	22
0.59567	20
0.59933	18
0.60300	9
0.60667	5
0.61033	5
0.61400	2
0.61767	-1
0.62133	5
0.62500	14
0.62867	21
0.63233	25
0.63600	31
0.63967	37
0.64333	38
0.64700	33
0.65067	29
0.65433	28
0.65800	24
0.66167	16
0.66533	7
0.66900	-1
0.67267	-4
0.67633	-2
0.68000	4
0.68367	13
0.68733	20
0.69100	27
0.69467	31
0.69833	35
0.70200	36
0.70567	37
0.70933	37
0.71300	34
0.71667	28
0.72033	21
0.72400	14
0.72767	8
0.73133	5
0.73500	6
0.73867	11
0.74233	18
0.74600	25
0.74967	30
0.75333	31
0.75700	26
0.76067	24
0.76433	25
0.76800	27
0.77167	24
0.77533	21
0.77900	21
0.78267	25
0.78633	31
0.79000	34
0.79367	36
0.79733	37
0.80100	44
0.80467	49
0.80833	49
0.81200	43
0.81567	34
0.81933	25
0.82300	15
0.82667	5
0.83033	-2
0.83400	-4
0.83767	-5
0.84133	-2
0.84500	6
0.84867	13
0.85233	16
0.85600	19
0.85967	22
0.86333	25
0.86700	32
0.87067	43
0.87433	52
0.87800	54
0.88167	56
0.88533	59
0.88900	60
0.89267	55
0.89633	51
0.90000	54
0.90367	61
0.90733	71
0.91100	80
0.91467	79
0.91833	72
0.92200	61
0.92567	52
0.92933	47
0.93300	45
0.93667	46
0.94033	49
0.94400	53
0.94767	56
0.95133	57
0.95500	59
0.95867	66
0.96233	70
0.96600	69
0.96967	71
0.97333	80
0.97700	87
0.98067	87
0.98433	87
0.98800	86
0.99167	81
0.99533	75
0.99900	70
1.00267	69
1.00633	69
1.01000	67
1.01367	65
1.01733	67
1.02100	69
1.02467	73
1.02833	78
1.03200	78
1.03567	78
1.03933	80
1.04300	80
1.04667	78
1.05033	75
1.05400	71
1.05767	66
1.06133	61
1.06500	58
1.06867	56
1.07233	56
1.07600	53
1.07967	52
1.08333	58
1.08700	66
1.09067	69
1.09433	67
1.09800	65
1.10167	58
1.10533	49
1.10900	41
1.11267	40
1.11633	45
1.12000	54
1.12367	59
1.12733	59
1.13100	56
1.13467	50
1.13833	44
1.14200	43
1.14567	45
1.14933	50
1.15300	55
1.15667	58
1.16033	56
1.16400	53
1.16767	53
1.17133	56
1.17500	63
1.17867	68
1.18233	66
1.18600	58
1.18967	54
1.19333	55
1.19700	57
1.20067	56
1.20433	53
1.20800	51
1.21167	52
1.21533	54
1.21900	53
1.22267	51
1.22633	48
1.23000	42
1.23367	38
1.23733	38
1.24100	42
1.24467	44
1.24833	43
1.25200	43
1.25567	46
1.25933	48
1.26300	50
1.26667	55
1.27033	59
1.27400	59
1.27767	57
1.28133	58
1.28500	57
1.28867	51
1.29233	43
1.29600	40
1.29967	42
1.30333	48
1.30700	51
1.31067	51
1.31433	46
1.31800	42
1.32167	39
1.32533	39
1.32900	43
1.33267	47
1.33633	46
1.34000	46
1.34367	44
1.34733	40
1.35100	38
1.35467	41
1.35833	42
1.36200	39
1.36567	33
1.36933	26
1.37300	23
1.37667	23
1.38033	27
1.38400	34
1.38767	38
1.39133	43
1.39500	45
1.39867	44
1.40233	43
1.40600	41
1.40967	38
1.41333	44
1.41700	57
1.42067	67
1.42433	70
1.42800	63
1.43167	48
1.43533	41
1.43900	65
1.44267	164
1.44633	328
1.45000	488
1.45367	609
1.45733	681
1.46100	710
1.46467	715
1.46833	715
1.47200	725
1.47567	748
1.47933	772
1.48300	776
1.48667	750
1.49033	692
1.49400	614
1.49767	530
1.50133	447
1.50500	376
1.50867	321
1.51233	279
1.51600	247
1.51967	222
1.52333	200
1.52700	182
1.53067	170
1.53433	174
1.53800	271
1.54167	686
1.54533	1707
1.54900	3378
1.55267	5382
1.55633	7299
1.56000	8853
1.56367	9909
1.56733	10347
1.57100	10031
1.57467	8974
1.57833	7419
1.58200	5726
1.58567	4190
1.58933	2949
1.59300	2022
1.59667	1366
1.60033	917
1.60400	622
1.60767	430
1.61133	303
1.61500	223
1.61867	174
1.62233	141
1.62600	115
1.62967	96
1.63333	81
1.63700	71
1.64067	61
1.64433	53
1.64800	46
1.65167	42
1.65533	38
1.65900	34
1.66267	34
1.66633	38
1.67000	43
1.67367	44
1.67733	44
1.68100	44
1.68467	48
1.68833	62
1.69200	74
1.69567	72
1.69933	61
1.70300	55
1.70667	52
1.71033	49
1.71400	49
1.71767	45
1.72133	42
1.72500	38
1.72867	33
1.73233	31
1.73600	29
1.73967	23
1.74333	19
1.74700	17
1.75067	17
1.75433	20
1.75800	23
1.76167	26
1.76533	30
1.76900	32
1.77267	31
1.77633	29
1.78000	31
1.78367	37
1.78733	43
1.79100	48
1.79467	54
1.79833	59
1.80200	60
1.80567	56
1.80933	46
1.81300	35
1.81667	28
1.82033	22
1.82400	16
1.82767	11
1.83133	9
1.83500	8
1.83867	8
1.84233	9
1.84600	12
1.84967	20
1.85333	29
1.85700	37
1.86067	40
1.86433	40
1.86800	43
1.87167	51
1.87533	59
1.87900	63
1.88267	62
1.88633	58
1.89000	52
1.89367	48
1.89733	44
1.90100	38
1.90467	35
1.90833	38
1.91200	43
1.91567	41
1.91933	38
1.92300	38
1.92667	37
1.93033	38
1.93400	40
1.93767	43
1.94133	47
1.94500	51
1.94867	60
1.95233	101
1.95600	380
1.95967	1943
1.96333	8563
1.96700	29798
1.97067	82279
1.97433	183065
1.97800	335266
1.98167	519902
1.98533	704557
1.98900	857340
1.99267	954696
1.99633	983681
2.00000	943258
2.00367	844967
2.00733	710313
2.01100	564022
2.01467	426931
2.01833	311440
2.02200	221447
2.02567	155169
2.02933	108243
2.03300	75871
2.03667	53880
2.04033	39046
2.04400	29039
2.04767	22245
2.05133	17574
2.05500	14306
2.05867	11971
2.06233	10262
2.06600	8973
2.06967	7968
2.07333	7163
2.07700	6506
2.08067	5961
2.08433	5501
2.08800	5111
2.09167	4776
2.09533	4484
2.09900	4222
2.10267	3986
2.10633	3774
2.11000	3586
2.11367	3418
2.11733	3265
2.12100	3126
2.12467	2997
2.12833	2872
2.13200	2758
2.13567	2652
2.13933	2554
2.14300	2463
2.14667	2379
2.15033	2300
2.15400	2228
2.15767	2161
2.16133	2099
2.16500	2041
2.16867	1983
2.17233	1926
2.17600	1871
2.17967	1818
2.18333	1761
2.18700	1710
2.19067	1665
2.19433	1623
2.19800	1578
2.20167	1535
2.20533	1496
2.20900	1460
2.21267	1425
2.21633	1392
2.22000	1364
2.22367	1337
2.22733	1310
2.23100	1282
2.23467	1258
2.23833	1234
2.24200	1212
2.24567	1194
2.24933	1180
2.25300	1171
2.25667	1159
2.26033	1140
2.26400	1114
2.26767	1081
2.27133	1049
2.27500	1025
2.27867	1005
2.28233	985
2.28600	970
2.28967	959
2.29333	949
2.29700	942
2.30067	935
2.30433	928
2.30800	917
2.31167	902
2.31533	887
2.31900	872
2.32267	852
2.32633	834
2.33000	825
2.33367	820
2.33733	821
2.34100	824
2.34467	822
2.34833	813
2.35200	797
2.35567	779
2.35933	762
2.36300	743
2.36667	728
2.37033	719
2.37400	711
2.37767	702
2.38133	695
2.38500	688
2.38867	680
2.39233	675
2.39600	675
2.39967	676
2.40333	670
2.40700	662
2.41067	656
2.41433	654
2.41800	652
2.42167	650
2.42533	649
2.42900	650
2.43267	649
2.43633	641
2.44000	630
2.44367	622
2.44733	617
2.45100	610
2.45467	603
2.45833	597
2.46200	593
2.46567	592
2.46933	591
2.47300	588
2.47667	584
2.48033	580
2.48400	575
2.48767	569
2.49133	561
2.49500	553
2.49867	545
2.50233	542
2.50600	541
2.50967	540
2.51333	537
2.51700	530
2.52067	523
2.52433	523
2.52800	524
2.53167	523
2.53533	519
2.53900	517
2.54267	512
2.54633	506
2.55000	499
2.55367	493
2.55733	492
2.56100	492
2.56467	494
2.56833	501
2.57200	505
2.57567	506
2.57933	505
2.58300	502
2.58667	495
2.59033	482
2.59400	473
2.59767	469
2.60133	468
2.60500	471
2.60867	480
2.61233	490
2.61600	493
2.61967	491
2.62333	491
2.62700	490
2.63067	487
2.63433	482
2.63800	476
2.64167	471
2.64533	468
2.64900	466
2.65267	464
2.65633	461
2.66000	459
2.66367	456
2.66733	448
2.67100	439
2.67467	436
2.67833	440
2.68200	447
2.68567	454
2.68933	462
2.69300	468
2.69667	465
2.70033	456
2.70400	448
2.70767	450
2.71133	461
2.71500	471
2.71867	475
2.72233	471
2.72600	460
2.72967	445
2.73333	432
2.73700	423
2.74067	418
2.74433	419
2.74800	422
2.75167	425
2.75533	427
2.75900	425
2.76267	422
2.76633	420
2.77000	424
2.77367	431
2.77733	439
2.78100	440
2.78467	438
2.78833	435
2.79200	431
2.79567	430
2.79933	435
2.80300	441
2.80667	448
2.81033	449
2.81400	450
2.81767	452
2.82133	449
2.82500	444
2.82867	438
2.83233	431
2.83600	423
2.83967	424
2.84333	430
2.84700	435
2.85067	435
2.85433	435
2.85800	438
2.86167	441
2.86533	449
2.86900	459
2.87267	466
2.87633	468
2.88000	465
2.88367	458
2.88733	450
2.89100	445
2.89467	443
2.89833	441
2.90200	437
2.90567	435
2.90933	441
2.91300	451
2.91667	455
2.92033	452
2.92400	446
2.92767	441
2.93133	441
2.93500	446
2.93867	456
2.94233	466
2.94600	470
2.94967	470
2.95333	470
2.95700	469
2.96067	467
2.96433	462
2.96800	449
2.97167	436
2.97533	426
2.97900	423
2.98267	429
2.98633	441
2.99000	455
2.99367	464
2.99733	465
3.00100	459
3.00467	450
3.00833	447
3.01200	450
3.01567	451
3.01933	442
3.02300	426
3.02667	413
3.03033	402
3.03400	397
3.03767	401
3.04133	410
3.04500	417
3.04867	419
3.05233	421
3.05600	424
3.05967	425
3.06333	421
3.06700	420
3.07067	423
3.07433	429
3.07800	437
3.08167	441
3.08533	440
3.08900	436
3.09267	430
3.09633	424
3.10000	424
3.10367	431
3.10733	441
3.11100	449
3.11467	451
3.11833	448
3.12200	442
3.12567	435
3.12933	432
3.13300	433
3.13667	438
3.14033	437
3.14400	430
3.14767	422
3.15133	414
3.15500	407
3.15867	405
3.16233	406
3.16600	409
3.16967	414
3.17333	424
3.17700	435
3.18067	440
3.18433	441
3.18800	442
3.19167	441
3.19533	436
3.19900	430
3.20267	425
3.20633	421
3.21000	413
3.21367	405
3.21733	399
3.22100	395
3.22467	391
3.22833	389
3.23200	391
3.23567	395
3.23933	400
3.24300	406
3.24667	414
3.25033	422
3.25400	426
3.25767	425
3.26133	420
3.26500	413
3.26867	406
3.27233	401
3.27600	400
3.27967	402
3.28333	404
3.28700	405
3.29067	404
3.29433	402
3.29800	400
3.30167	402
3.30533	408
3.30900	415
3.31267	420
3.31633	429
3.32000	436
3.32367	441
3.32733	440
3.33100	433
3.33467	425
3.33833	418
3.34200	411
3.34567	404
3.34933	399
3.35300	400
3.35667	400
3.36033	395
3.36400	387
3.36767	381
3.37133	378
3.37500	375
3.37867	372
3.38233	370
3.38600	371
3.38967	375
3.39333	382
3.39700	392
3.40067	401
3.40433	405
3.40800	409
3.41167	414
3.41533	419
3.41900	421
3.42267	417
3.42633	407
3.43000	397
3.43367	393
3.43733	390
3.44100	385
3.44467	376
3.44833	363
3.45200	350
3.45567	342
3.45933	339
3.46300	338
3.46667	338
3.47033	342
3.47400	353
3.47767	367
3.48133	374
3.48500	374
3.48867	375
3.49233	373
3.49600	367
3.49967	361
3.50333	356
3.50700	353
3.51067	356
3.51433	363
3.51800	367
3.52167	362
3.52533	356
3.52900	353
3.53267	348
3.53633	342
3.54000	339
3.54367	336
3.54733	338
3.55100	343
3.55467	347
3.55833	349
3.56200	350
3.56567	349
3.56933	351
3.57300	356
3.57667	358
3.58033	358
3.58400	355
3.58767	351
3.59133	348
3.59500	346
3.59867	344
3.60233	344
3.60600	351
3.60967	362
3.61333	368
3.61700	369
3.62067	369
3.62433	368
3.62800	365
3.63167	360
3.63533	354
3.63900	348
3.64267	343
3.64633	345
3.65000	349
3.65367	352
3.65733	354
3.66100	353
3.66467	348
3.66833	339
3.67200	331
3.67567	327
3.67933	325
3.68300	324
3.68667	322
3.69033	323
3.69400	329
3.69767	335
3.70133	332
3.70500	323
3.70867	314
3.71233	307
3.71600	301
3.71967	298
3.72333	306
3.72700	316
3.73067	322
3.73433	321
3.73800	321
3.74167	318
3.74533	315
3.74900	313
3.75267	315
3.75633	316
3.76000	316
3.76367	320
3.76733	328
3.77100	335
3.77467	337
3.77833	334
3.78200	325
3.78567	314
3.78933	307
3.79300	303
3.79667	303
3.80033	305
3.80400	308
3.80767	312
3.81133	312
3.81500	307
3.81867	298
3.82233	290
3.82600	287
3.82967	288
3.83333	290
3.83700	292
3.84067	290
3.84433	287
3.84800	283
3.85167	282
3.85533	284
3.85900	288
3.86267	293
3.86633	298
3.87000	303
3.87367	305
3.87733	304
3.88100	299
3.88467	297
3.88833	297
3.89200	294
3.89567	291
3.89933	289
3.90300	286
3.90667	280
3.91033	276
3.91400	275
3.91767	273
3.92133	273
3.92500	273
3.92867	272
3.93233	275
3.93600	280
3.93967	283
3.94333	284
3.94700	283
3.95067	279
3.95433	275
3.95800	273
3.96167	274
3.96533	279
3.96900	283
3.97267	284
3.97633	280
3.98000	278
3.98367	278
3.98733	278
3.99100	275
3.99467	269
3.99833	262

[Chromatogram (Ch2)]
Interval(msec)	220
# of Points	1091
Start Time(min)	0.002
End Time(min)	3.998
R.Time (min)	Intensity
0.00167	-0
0.00533	0
0.00900	0
0.01267	0
0.01633	0
0.02000	1
0.02367	1
0.02733	1
0.03100	1
0.03467	1
0.03833	1
0.04200	1
0.04567	1
0.04933	1
0.05300	1
0.05667	1
0.06033	1
0.06400	1
0.06767	1
0.07133	1
0.07500	1
0.07867	2
0.08233	2
0.08600	3
0.08967	3
0.09333	3
0.09700	4
0.10067	4
0.10433	4
0.10800	4
0.11167	4
0.11533	4
0.11900	4
0.12267	4
0.12633	3
0.13000	3
0.13367	3
0.13733	3
0.14100	2
0.14467	2
0.14833	2
0.15200	2
0.15567	1
0.15933	1
0.16300	1
0.16667	0
0.17033	0
0.17400	0
0.17767	0
0.18133	0
0.18500	0
0.18867	1
0.19233	1
0.19600	1
0.19967	2
0.20333	2
0.20700	2
0.21067	2
0.21433	2
0.21800	2
0.22167	2
0.22533	2
0.22900	1
0.23267	1
0.23633	1
0.24000	1
0.24367	0
0.24733	0
0.25100	0
0.25467	0
0.25833	-0
0.26200	-0
0.26567	-0
0.26933	-0
0.27300	-0
0.27667	-0
0.28033	-0
0.28400	-0
0.28767	-0
0.29133	-1
0.29500	-1
0.29867	-1
0.30233	-1
0.30600	-1
0.30967	-2
0.31333	-2
0.31700	-1
0.32067	-1
0.32433	-1
0.32800	-1
0.33167	-1
0.33533	-1
0.33900	-0
0.34267	-0
0.34633	-0
0.35000	0
0.35367	0
0.35733	0
0.36100	1
0.36467	1
0.36833	1
0.37200	1
0.37567	1
0.37933	1
0.38300	1
0.38667	1
0.39033	1
0.39400	2
0.39767	2
0.40133	2
0.40500	2
0.40867	2
0.41233	2
0.41600	2
0.41967	2
0.42333	2
0.42700	1
0.43067	1
0.43433	1
0.43800	1
0.44167	1
0.44533	1
0.44900	1
0.45267	1
0.45633	1
0.46000	2
0.46367	2
0.46733	2
0.47100	2
0.47467	2
0.47833	2
0.48200	2
0.48567	2
0.48933	2
0.49300	2
0.49667	2
0.50033	2
0.50400	2
0.50767	2
0.51133	3
0.51500	3
0.51867	3
0.52233	3
0.52600	3
0.52967	3
0.53333	3
0.53700	3
0.54067	3
0.54433	3
0.54800	3
0.55167	2
0.55533	2
0.55900	2
0.56267	2
0.56633	1
0.57000	1
0.57367	1
0.57733	0
0.58100	0
0.58467	-0
0.58833	-1
0.59200	-1
0.59567	-1
0.59933	-2
0.60300	-2
0.60667	-2
0.61033	-2
0.61400	-2
0.61767	-2
0.62133	-2
0.62500	-2
0.62867	-2
0.63233	-2
0.63600	-1
0.63967	-1
0.64333	-1
0.64700	-0
0.65067	-0
0.65433	-0
0.65800	-0
0.66167	-0
0.66533	-0
0.66900	-0
0.67267	-0
0.67633	-0
0.68000	-0
0.68367	-0
0.68733	-0
0.69100	-0
0.69467	-1
0.69833	-1
0.70200	-0
0.70567	-0
0.70933	-0
0.71300	-0
0.71667	-0
0.72033	-0
0.72400	0
0.72767	0
0.73133	0
0.73500	0
0.73867	0
0.74233	0
0.74600	1
0.74967	1
0.75333	1
0.75700	1
0.76067	1
0.76433	1
0.76800	1
0.77167	1
0.77533	1
0.77900	1
0.78267	1
0.78633	1
0.79000	1
0.79367	1
0.79733	1
0.80100	1
0.80467	0
0.80833	0
0.81200	-0
0.81567	-0
0.81933	-0
0.82300	-0
0.82667	-0
0.83033	-0
0.83400	0
0.83767	0
0.84133	1
0.84500	1
0.84867	1
0.85233	1
0.85600	1
0.85967	1
0.86333	1
0.86700	1
0.87067	1
0.87433	1
0.87800	1
0.88167	1
0.88533	0
0.88900	0
0.89267	0
0.89633	-0
0.90000	-0
0.90367	-1
0.90733	-1
0.91100	-1
0.91467	-1
0.91833	-1
0.92200	-1
0.92567	-1
0.92933	-1
0.93300	-1
0.93667	-1
0.94033	-1
0.94400	-1
0.94767	-1
0.95133	-0
0.95500	-0
0.95867	-0
0.96233	-0
0.96600	-0
0.96967	-1
0.97333	-1
0.97700	-1
0.98067	-1
0.98433	-1
0.98800	-1
0.99167	-1
0.99533	-1
0.99900	-1
1.00267	-1
1.00633	-1
1.01000	-1
1.01367	-1
1.01733	-1
1.02100	-1
1.02467	-1
1.02833	-1
1.03200	-1
1.03567	-2
1.03933	-1
1.04300	-1
1.04667	-1
1.05033	-1
1.05400	-0
1.05767	-0
1.06133	-0
1.06500	-0
1.06867	0
1.07233	0
1.07600	0
1.07967	0
1.08333	0
1.08700	-0
1.09067	-0
1.09433	-1
1.09800	-1
1.10167	-2
1.10533	-2
1.10900	-2
1.11267	-2
1.11633	-2
1.12000	-2
1.12367	-1
1.12733	-1
1.13100	-1
1.13467	-1
1.13833	-1
1.14200	-0
1.14567	-0
1.14933	-0
1.15300	-0
1.15667	-0
1.16033	-0
1.16400	-0
1.16767	-1
1.17133	-1
1.17500	-1
1.17867	-2
1.18233	-2
1.18600	-2
1.18967	-2
1.19333	-1
1.19700	-1
1.20067	-1
1.20433	-0
1.20800	0
1.21167	1
1.21533	1
1.21900	1
1.22267	1
1.22633	1
1.23000	1
1.23367	1
1.23733	1
1.24100	1
1.24467	1
1.24833	1
1.25200	0
1.25567	0
1.25933	-0
1.26300	-0
1.26667	-1
1.27033	-1
1.27400	-1
1.27767	-1
1.28133	-2
1.28500	-2
1.28867	-2
1.29233	-2
1.29600	-2
1.29967	-1
1.30333	-1
1.30700	-1
1.31067	-1
1.31433	-1
1.31800	-1
1.32167	-1
1.32533	-0
1.32900	-0
1.33267	-0
1.33633	-0
1.34000	-0
1.34367	-0
1.34733	-0
1.35100	-0
1.35467	-0
1.35833	-1
1.36200	-1
1.36567	-1
1.36933	-1
1.37300	-1
1.37667	-1
1.38033	-1
1.38400	-2
1.38767	-1
1.39133	-1
1.39500	-1
1.39867	-1
1.40233	-1
1.40600	-1
1.40967	-1
1.41333	-1
1.41700	-1
1.42067	-1
1.42433	-0
1.42800	-0
1.43167	0
1.43533	0
1.43900	1
1.44267	0
1.44633	0
1.45000	0
1.45367	0
1.45733	-0
1.46100	-0
1.46467	-0
1.46833	-1
1.47200	-1
1.47567	-1
1.47933	-1
1.48300	-1
1.48667	-1
1.49033	-1
1.49400	-1
1.49767	-1
1.50133	-1
1.50500	-0
1.50867	-0
1.51233	-0
1.51600	0
1.51967	0
1.52333	0
1.52700	1
1.53067	1
1.53433	1
1.53800	1
1.54167	1
1.54533	0
1.54900	0
1.55267	0
1.55633	0
1.56000	-0
1.56367	-0
1.56733	-1
1.57100	-1
1.57467	-1
1.57833	-1
1.58200	-2
1.58567	-2
1.58933	-2
1.59300	-3
1.59667	-3
1.60033	-4
1.60400	-4
1.60767	-5
1.61133	-7
1.61500	-8
1.61867	-10
1.62233	-13
1.62600	-15
1.62967	-18
1.63333	-21
1.63700	-25
1.64067	-28
1.64433	-32
1.64800	-36
1.65167	-40
1.65533	-44
1.65900	-48
1.66267	-52
1.66633	-56
1.67000	-61
1.67367	-66
1.67733	-71
1.68100	-75
1.68467	-80
1.68833	-84
1.69200	-87
1.69567	-90
1.69933	-93
1.70300	-95
1.70667	-97
1.71033	-98
1.71400	-100
1.71767	-101
1.72133	-102
1.72500	-103
1.72867	-104
1.73233	-105
1.73600	-105
1.73967	-105
1.74333	-106
1.74700	-106
1.75067	-107
1.75433	-107
1.75800	-108
1.76167	-109
1.76533	-110
1.76900	-110
1.77267	-111
1.77633	-112
1.78000	-113
1.78367	-113
1.78733	-114
1.79100	-114
1.79467	-114
1.79833	-114
1.80200	-114
1.80567	-113
1.80933	-113
1.81300	-113
1.81667	-113
1.82033	-113
1.82400	-113
1.82767	-113
1.83133	-113
1.83500	-113
1.83867	-113
1.84233	-113
1.84600	-113
1.84967	-112
1.85333	-112
1.85700	-112
1.86067	-112
1.86433	-112
1.86800	-112
1.87167	-112
1.87533	-112
1.87900	-112
1.88267	-111
1.88633	-111
1.89000	-110
1.89367	-109
1.89733	-109
1.90100	-108
1.90467	-108
1.90833	-108
1.91200	-109
1.91567	-109
1.91933	-109
1.92300	-110
1.92667	-110
1.93033	-110
1.93400	-110
1.93767	-110
1.94133	-110
1.94500	-109
1.94867	-109
1.95233	-108
1.95600	-108
1.95967	-107
1.96333	-107
1.96700	-107
1.97067	-106
1.97433	-106
1.97800	-106
1.98167	-106
1.98533	-106
1.98900	-105
1.99267	-105
1.99633	-105
2.00000	-105
2.00367	-105
2.00733	-105
2.01100	-105
2.01467	-105
2.01833	-105
2.02200	-105
2.02567	-104
2.02933	-104
2.03300	-104
2.03667	-104
2.04033	-103
2.04400	-103
2.04767	-103
2.05133	-102
2.05500	-102
2.05867	-101
2.06233	-101
2.06600	-100
2.06967	-100
2.07333	-100
2.07700	-100
2.08067	-100
2.08433	-99
2.08800	-99
2.09167	-98
2.09533	-98
2.09900	-98
2.10267	-98
2.10633	-98
2.11000	-98
2.11367	-98
2.11733	-98
2.12100	-97
2.12467	-96
2.12833	-96
2.13200	-95
2.13567	-94
2.13933	-93
2.14300	-93
2.14667	-92
2.15033	-92
2.15400	-92
2.15767	-92
2.16133	-91
2.16500	-91
2.16867	-91
2.17233	-91
2.17600	-91
2.17967	-91
2.18333	-91
2.18700	-91
2.19067	-92
2.19433	-92
2.19800	-92
2.20167	-92
2.20533	-92
2.20900	-91
2.21267	-90
2.21633	-89
2.22000	-88
2.22367	-87
2.22733	-86
2.23100	-85
2.23467	-84
2.23833	-84
2.24200	-84
2.24567	-84
2.24933	-85
2.25300	-86
2.25667	-87
2.26033	-87
2.26400	-87
2.26767	-87
2.27133	-86
2.27500	-85
2.27867	-85
2.28233	-84
2.28600	-83
2.28967	-83
2.29333	-83
2.29700	-83
2.30067	-83
2.30433	-82
2.30800	-82
2.31167	-81
2.31533	-81
2.31900	-80
2.32267	-80
2.32633	-79
2.33000	-79
2.33367	-79
2.33733	-79
2.34100	-78
2.34467	-78
2.34833	-78
2.35200	-77
2.35567	-76
2.35933	-75
2.36300	-73
2.36667	-72
2.37033	-70
2.37400	-67
2.37767	-64
2.38133	-61
2.38500	-57
2.38867	-53
2.39233	-48
2.39600	-43
2.39967	-39
2.40333	-34
2.40700	-29
2.41067	-25
2.41433	-21
2.41800	-18
2.42167	-16
2.42533	-14
2.42900	-12
2.43267	-12
2.43633	-11
2.44000	-10
2.44367	-10
2.44733	-10
2.45100	-9
2.45467	-8
2.45833	-7
2.46200	-5
2.46567	-4
2.46933	-2
2.47300	-1
2.47667	1
2.48033	2
2.48400	3
2.48767	5
2.49133	6
2.49500	7
2.49867	7
2.50233	8
2.50600	9
2.50967	9
2.51333	10
2.51700	11
2.52067	12
2.52433	12
2.52800	13
2.53167	14
2.53533	14
2.53900	14
2.54267	15
2.54633	15
2.55000	16
2.55367	16
2.55733	17
2.56100	17
2.56467	18
2.56833	18
2.57200	18
2.57567	17
2.57933	17
2.58300	17
2.58667	17
2.59033	18
2.59400	19
2.59767	19
2.60133	20
2.60500	21
2.60867	21
2.61233	21
2.61600	21
2.61967	21
2.62333	21
2.62700	21
2.63067	21
2.63433	21
2.63800	20
2.64167	21
2.64533	21
2.64900	21
2.65267	22
2.65633	22
2.66000	23
2.66367	23
2.66733	23
2.67100	23
2.67467	22
2.67833	22
2.68200	22
2.68567	22
2.68933	23
2.69300	23
2.69667	23
2.70033	23
2.70400	23
2.70767	24
2.71133	24
2.71500	25
2.71867	26
2.72233	26
2.72600	26
2.72967	27
2.73333	27
2.73700	28
2.74067	28
2.74433	28
2.74800	28
2.75167	28
2.75533	27
2.75900	27
2.76267	26
2.76633	26
2.77000	25
2.77367	25
2.77733	25
2.78100	25
2.78467	25
2.78833	25
2.79200	25
2.79567	26
2.79933	26
2.80300	27
2.80667	27
2.81033	27
2.81400	28
2.81767	28
2.82133	28
2.82500	29
2.82867	29
2.83233	29
2.83600	28
2.83967	27
2.84333	25
2.84700	20
2.85067	13
2.85433	3
2.85800	-11
2.86167	-29
2.86533	-53
2.86900	-81
2.87267	-116
2.87633	-156
2.88000	-201
2.88367	-252
2.88733	-308
2.89100	-369
2.89467	-434
2.89833	-503
2.90200	-576
2.90567	-652
2.90933	-730
2.91300	-812
2.91667	-897
2.92033	-984
2.92400	-1072
2.92767	-1163
2.93133	-1255
2.93500	-1348
2.93867	-1436
2.94233	-1506
2.94600	-1545
2.94967	-1549
2.95333	-1516
2.95700	-1452
2.96067	-1365
2.96433	-1263
2.96800	-1153
2.97167	-1040
2.97533	-929
2.97900	-823
2.98267	-724
2.98633	-633
2.99000	-551
2.99367	-477
2.99733	-412
3.00100	-355
3.00467	-304
3.00833	-261
3.01200	-223
3.01567	-190
3.01933	-161
3.02300	-137
3.02667	-116
3.03033	-98
3.03400	-82
3.03767	-69
3.04133	-57
3.04500	-47
3.04867	-39
3.05233	-32
3.05600	-26
3.05967	-20
3.06333	-16
3.06700	-12
3.07067	-8
3.07433	-5
3.07800	-3
3.08167	-0
3.08533	2
3.08900	3
3.09267	4
3.09633	6
3.10000	7
3.10367	8
3.10733	9
3.11100	10
3.11467	11
3.11833	12
3.12200	13
3.12567	14
3.12933	15
3.13300	15
3.13667	16
3.14033	16
3.14400	17
3.14767	17
3.15133	17
3.15500	18
3.15867	18
3.16233	18
3.16600	19
3.16967	19
3.17333	19
3.17700	19
3.18067	20
3.18433	20
3.18800	20
3.19167	20
3.19533	21
3.19900	21
3.20267	21
3.20633	21
3.21000	21
3.21367	21
3.21733	21
3.22100	22
3.22467	22
3.22833	22
3.23200	22
3.23567	22
3.23933	22
3.24300	22
3.24667	22
3.25033	22
3.25400	22
3.25767	22
3.26133	22
3.26500	22
3.26867	22
3.27233	22
3.27600	22
3.27967	23
3.28333	23
3.28700	23
3.29067	23
3.29433	23
3.29800	23
3.30167	23
3.30533	23
3.30900	23
3.31267	24
3.31633	24
3.32000	25
3.32367	25
3.32733	25
3.33100	26
3.33467	26
3.33833	27
3.34200	27
3.34567	27
3.34933	27
3.35300	27
3.35667	27
3.36033	27
3.36400	27
3.36767	27
3.37133	27
3.37500	27
3.37867	28
3.38233	28
3.38600	28
3.38967	28
3.39333	28
3.39700	28
3.40067	28
3.40433	28
3.40800	28
3.41167	28
3.41533	27
3.41900	27
3.42267	27
3.42633	27
3.43000	27
3.43367	27
3.43733	27
3.44100	27
3.44467	27
3.44833	27
3.45200	28
3.45567	28
3.45933	28
3.46300	28
3.46667	28
3.47033	27
3.47400	27
3.47767	27
3.48133	27
3.48500	27
3.48867	27
3.49233	27
3.49600	26
3.49967	26
3.50333	26
3.50700	26
3.51067	25
3.51433	25
3.51800	25
3.52167	25
3.52533	25
3.52900	25
3.53267	25
3.53633	25
3.54000	25
3.54367	25
3.54733	25
3.55100	26
3.55467	26
3.55833	26
3.56200	26
3.56567	27
3.56933	27
3.57300	27
3.57667	27
3.58033	27
3.58400	28
3.58767	28
3.59133	28
3.59500	28
3.59867	28
3.60233	28
3.60600	27
3.60967	27
3.61333	27
3.61700	27
3.62067	27
3.62433	27
3.62800	28
3.63167	28
3.63533	28
3.63900	28
3.64267	28
3.64633	28
3.65000	28
3.65367	28
3.65733	28
3.66100	28
3.66467	28
3.66833	28
3.67200	28
3.67567	28
3.67933	28
3.68300	28
3.68667	28
3.69033	28
3.69400	28
3.69767	28
3.70133	28
3.70500	28
3.70867	28
3.71233	28
3.71600	28
3.71967	28
3.72333	28
3.72700	28
3.73067	28
3.73433	28
3.73800	27
3.74167	27
3.74533	27
3.74900	27
3.75267	27
3.75633	27
3.76000	27
3.76367	27
3.76733	26
3.77100	26
3.77467	26
3.77833	26
3.78200	26
3.78567	27
3.78933	27
3.79300	26
3.79667	26
3.80033	26
3.80400	26
3.80767	25
3.81133	25
3.81500	25
3.81867	25
3.82233	25
3.82600	25
3.82967	25
3.83333	25
3.83700	25
3.84067	25
3.84433	25
3.84800	25
3.85167	25
3.85533	25
3.85900	25
3.86267	26
3.86633	26
3.87000	26
3.87367	26
3.87733	26
3.88100	27
3.88467	27
3.88833	27
3.89200	27
3.89567	27
3.89933	27
3.90300	27
3.90667	27
3.91033	27
3.91400	28
3.91767	28
3.92133	28
3.92500	28
3.92867	28
3.93233	28
3.93600	28
3.93967	28
3.94333	27
3.94700	27
3.95067	27
3.95433	27
3.95800	27
3.96167	27
3.96533	26
3.96900	26
3.97267	26
3.97633	26
3.98000	26
3.98367	26
3.98733	26
3.99100	26
3.99467	26
3.99833	26

[Chromatogram (Ch3)]
Interval(msec)	220
# of Points	1091
Start Time(min)	0.002
End Time(min)	3.998
R.Time (min)	Intensity
0.00167	-0
0.00533	0
0.00900	2
0.01267	3
0.01633	3
0.02000	3
0.02367	4
0.02733	3
0.03100	4
0.03467	5
0.03833	4
0.04200	2
0.04567	4
0.04933	7
0.05300	9
0.05667	7
0.06033	6
0.06400	5
0.06767	3
0.07133	2
0.07500	2
0.07867	5
0.08233	5
0.08600	3
0.08967	2
0.09333	2
0.09700	2
0.10067	1
0.10433	-0
0.10800	-0
0.11167	0
0.11533	2
0.11900	3
0.12267	4
0.12633	4
0.13000	3
0.13367	3
0.13733	3
0.14100	3
0.14467	5
0.14833	5
0.15200	4
0.15567	5
0.15933	4
0.16300	2
0.16667	2
0.17033	3
0.17400	2
0.17767	1
0.18133	0
0.18500	1
0.18867	2
0.19233	5
0.19600	6
0.19967	7
0.20333	6
0.20700	4
0.21067	5
0.21433	7
0.21800	6
0.22167	5
0.22533	4
0.22900	5
0.23267	6
0.23633	8
0.24000	7
0.24367	7
0.24733	7
0.25100	6
0.25467	3
0.25833	2
0.26200	3
0.26567	3
0.26933	5
0.27300	6
0.27667	7
0.28033	6
0.28400	6
0.28767	6
0.29133	8
0.29500	9
0.29867	9
0.30233	9
0.30600	9
0.30967	8
0.31333	9
0.31700	9
0.32067	9
0.32433	11
0.32800	11
0.33167	13
0.33533	14
0.33900	14
0.34267	14
0.34633	13
0.35000	13
0.35367	14
0.35733	15
0.36100	11
0.36467	7
0.36833	5
0.37200	7
0.37567	11
0.37933	14
0.38300	16
0.38667	17
0.39033	17
0.39400	18
0.39767	19
0.40133	19
0.40500	19
0.40867	19
0.41233	18
0.41600	20
0.41967	22
0.42333	21
0.42700	21
0.43067	20
0.43433	18
0.43800	15
0.44167	13
0.44533	12
0.44900	12
0.45267	13
0.45633	14
0.46000	15
0.46367	16
0.46733	16
0.47100	16
0.47467	17
0.47833	15
0.48200	13
0.48567	15
0.48933	14
0.49300	11
0.49667	9
0.50033	8
0.50400	7
0.50767	7
0.51133	9
0.51500	11
0.51867	12
0.52233	11
0.52600	11
0.52967	11
0.53333	11
0.53700	10
0.54067	11
0.54433	11
0.54800	11
0.55167	11
0.55533	13
0.55900	15
0.56267	15
0.56633	14
0.57000	13
0.57367	11
0.57733	11
0.58100	13
0.58467	13
0.58833	11
0.59200	9
0.59567	12
0.59933	13
0.60300	14
0.60667	13
0.61033	13
0.61400	13
0.61767	10
0.62133	7
0.62500	6
0.62867	7
0.63233	10
0.63600	11
0.63967	10
0.64333	8
0.64700	6
0.65067	7
0.65433	10
0.65800	12
0.66167	13
0.66533	14
0.66900	14
0.67267	13
0.67633	12
0.68000	12
0.68367	13
0.68733	12
0.69100	10
0.69467	11
0.69833	13
0.70200	16
0.70567	18
0.70933	18
0.71300	17
0.71667	17
0.72033	16
0.72400	15
0.72767	12
0.73133	12
0.73500	14
0.73867	14
0.74233	14
0.74600	14
0.74967	11
0.75333	10
0.75700	11
0.76067	12
0.76433	11
0.76800	11
0.77167	13
0.77533	15
0.77900	13
0.78267	11
0.78633	9
0.79000	9
0.79367	10
0.79733	11
0.80100	10
0.80467	11
0.80833	13
0.81200	13
0.81567	10
0.81933	7
0.82300	6
0.82667	4
0.83033	3
0.83400	3
0.83767	4
0.84133	6
0.84500	6
0.84867	5
0.85233	5
0.85600	6
0.85967	7
0.86333	5
0.86700	5
0.87067	6
0.87433	5
0.87800	5
0.88167	3
0.88533	0
0.88900	-1
0.89267	-1
0.89633	-1
0.90000	-0
0.90367	1
0.90733	1
0.91100	1
0.91467	3
0.91833	5
0.92200	4
0.92567	3
0.92933	3
0.93300	2
0.93667	2
0.94033	-0
0.94400	-1
0.94767	-1
0.95133	0
0.95500	0
0.95867	-1
0.96233	-2
0.96600	1
0.96967	3
0.97333	2
0.97700	-1
0.98067	1
0.98433	3
0.98800	3
0.99167	4
0.99533	4
0.99900	3
1.00267	3
1.00633	1
1.01000	1
1.01367	1
1.01733	2
1.02100	3
1.02467	4
1.02833	4
1.03200	3
1.03567	3
1.03933	5
1.04300	6
1.04667	6
1.05033	6
1.05400	5
1.05767	4
1.06133	3
1.06500	3
1.06867	4
1.07233	3
1.07600	3
1.07967	4
1.08333	5
1.08700	4
1.09067	3
1.09433	3
1.09800	4
1.10167	6
1.10533	2
1.10900	-2
1.11267	-5
1.11633	-7
1.12000	-6
1.12367	-4
1.12733	-2
1.13100	-0
1.13467	-1
1.13833	-2
1.14200	-2
1.14567	-2
1.14933	-2
1.15300	-1
1.15667	-0
1.16033	1
1.16400	0
1.16767	1
1.17133	0
1.17500	0
1.17867	0
1.18233	0
1.18600	-0
1.18967	-1
1.19333	-1
1.19700	-2
1.20067	-2
1.20433	-1
1.20800	2
1.21167	4
1.21533	4
1.21900	3
1.22267	0
1.22633	-2
1.23000	-1
1.23367	-1
1.23733	-0
1.24100	1
1.24467	2
1.24833	3
1.25200	3
1.25567	2
1.25933	1
1.26300	3
1.26667	2
1.27033	1
1.27400	1
1.27767	1
1.28133	1
1.28500	0
1.28867	-0
1.29233	1
1.29600	2
1.29967	2
1.30333	2
1.30700	3
1.31067	3
1.31433	3
1.31800	1
1.32167	-1
1.32533	-0
1.32900	-1
1.33267	-1
1.33633	-1
1.34000	-3
1.34367	-3
1.34733	-3
1.35100	-2
1.35467	2
1.35833	5
1.36200	5
1.36567	6
1.36933	6
1.37300	6
1.37667	5
1.38033	5
1.38400	4
1.38767	3
1.39133	1
1.39500	-1
1.39867	0
1.40233	1
1.40600	1
1.40967	1
1.41333	3
1.41700	4
1.42067	6
1.42433	5
1.42800	3
1.43167	1
1.43533	4
1.43900	5
1.44267	5
1.44633	4
1.45000	2
1.45367	1
1.45733	-0
1.46100	1
1.46467	1
1.46833	1
1.47200	-0
1.47567	0
1.47933	1
1.48300	3
1.48667	4
1.49033	5
1.49400	5
1.49767	5
1.50133	3
1.50500	2
1.50867	3
1.51233	3
1.51600	2
1.51967	2
1.52333	2
1.52700	3
1.53067	6
1.53433	5
1.53800	5
1.54167	5
1.54533	6
1.54900	4
1.55267	4
1.55633	2
1.56000	2
1.56367	4
1.56733	5
1.57100	6
1.57467	6
1.57833	5
1.58200	5
1.58567	6
1.58933	9
1.59300	10
1.59667	7
1.60033	4
1.60400	3
1.60767	3
1.61133	4
1.61500	4
1.61867	4
1.62233	6
1.62600	7
1.62967	8
1.63333	8
1.63700	10
1.64067	11
1.64433	12
1.64800	12
1.65167	13
1.65533	13
1.65900	13
1.66267	16
1.66633	19
1.67000	20
1.67367	23
1.67733	25
1.68100	27
1.68467	28
1.68833	27
1.69200	24
1.69567	24
1.69933	24
1.70300	26
1.70667	27
1.71033	28
1.71400	30
1.71767	29
1.72133	29
1.72500	29
1.72867	31
1.73233	34
1.73600	36
1.73967	38
1.74333	37
1.74700	34
1.75067	34
1.75433	35
1.75800	36
1.76167	37
1.76533	37
1.76900	36
1.77267	34
1.77633	33
1.78000	33
1.78367	34
1.78733	35
1.79100	35
1.79467	35
1.79833	36
1.80200	35
1.80567	33
1.80933	35
1.81300	39
1.81667	41
1.82033	41
1.82400	42
1.82767	43
1.83133	45
1.83500	46
1.83867	49
1.84233	49
1.84600	49
1.84967	49
1.85333	50
1.85700	49
1.86067	49
1.86433	50
1.86800	53
1.87167	56
1.87533	59
1.87900	59
1.88267	57
1.88633	57
1.89000	56
1.89367	55
1.89733	55
1.90100	58
1.90467	58
1.90833	59
1.91200	61
1.91567	62
1.91933	63
1.92300	64
1.92667	66
1.93033	67
1.93400	67
1.93767	66
1.94133	64
1.94500	63
1.94867	64
1.95233	66
1.95600	67
1.95967	69
1.96333	69
1.96700	67
1.97067	66
1.97433	67
1.97800	68
1.98167	67
1.98533	68
1.98900	69
1.99267	71
1.99633	74
2.00000	75
2.00367	75
2.00733	77
2.01100	77
2.01467	76
2.01833	75
2.02200	73
2.02567	71
2.02933	74
2.03300	77
2.03667	80
2.04033	82
2.04400	85
2.04767	84
2.05133	84
2.05500	84
2.05867	84
2.06233	86
2.06600	87
2.06967	87
2.07333	87
2.07700	87
2.08067	89
2.08433	90
2.08800	88
2.09167	89
2.09533	91
2.09900	93
2.10267	96
2.10633	99
2.11000	102
2.11367	101
2.11733	102
2.12100	101
2.12467	100
2.12833	102
2.13200	104
2.13567	106
2.13933	107
2.14300	108
2.14667	106
2.15033	105
2.15400	107
2.15767	109
2.16133	109
2.16500	111
2.16867	115
2.17233	117
2.17600	118
2.17967	121
2.18333	121
2.18700	121
2.19067	124
2.19433	128
2.19800	131
2.20167	135
2.20533	135
2.20900	136
2.21267	136
2.21633	138
2.22000	139
2.22367	139
2.22733	139
2.23100	141
2.23467	142
2.23833	145
2.24200	147
2.24567	150
2.24933	154
2.25300	159
2.25667	161
2.26033	163
2.26400	163
2.26767	161
2.27133	160
2.27500	162
2.27867	164
2.28233	165
2.28600	167
2.28967	170
2.29333	172
2.29700	175
2.30067	177
2.30433	178
2.30800	178
2.31167	182
2.31533	186
2.31900	186
2.32267	187
2.32633	189
2.33000	191
2.33367	192
2.33733	192
2.34100	193
2.34467	196
2.34833	198
2.35200	199
2.35567	201
2.35933	204
2.36300	206
2.36667	209
2.37033	212
2.37400	215
2.37767	216
2.38133	215
2.38500	214
2.38867	214
2.39233	215
2.39600	219
2.39967	225
2.40333	230
2.40700	232
2.41067	234
2.41433	237
2.41800	239
2.42167	243
2.42533	245
2.42900	247
2.43267	248
2.43633	248
2.44000	250
2.44367	303
2.44733	436
2.45100	576
2.45467	691
2.45833	759
2.46200	764
2.46567	733
2.46933	694
2.47300	663
2.47667	643
2.48033	631
2.48400	612
2.48767	581
2.49133	540
2.49500	498
2.49867	460
2.50233	432
2.50600	416
2.50967	408
2.51333	406
2.51700	413
2.52067	426
2.52433	444
2.52800	463
2.53167	478
2.53533	485
2.53900	481
2.54267	467
2.54633	442
2.55000	414
2.55367	386
2.55733	363
2.56100	342
2.56467	327
2.56833	319
2.57200	314
2.57567	308
2.57933	303
2.58300	300
2.58667	297
2.59033	295
2.59400	292
2.59767	288
2.60133	282
2.60500	271
2.60867	258
2.61233	245
2.61600	232
2.61967	216
2.62333	206
2.62700	200
2.63067	196
2.63433	194
2.63800	194
2.64167	197
2.64533	203
2.64900	209
2.65267	212
2.65633	212
2.66000	210
2.66367	209
2.66733	203
2.67100	196
2.67467	190
2.67833	185
2.68200	180
2.68567	173
2.68933	166
2.69300	160
2.69667	154
2.70033	149
2.70400	145
2.70767	144
2.71133	143
2.71500	143
2.71867	142
2.72233	140
2.72600	141
2.72967	142
2.73333	142
2.73700	143
2.74067	144
2.74433	145
2.74800	146
2.75167	149
2.75533	153
2.75900	154
2.76267	154
2.76633	155
2.77000	158
2.77367	161
2.77733	162
2.78100	164
2.78467	167
2.78833	169
2.79200	169
2.79567	169
2.79933	168
2.80300	169
2.80667	170
2.81033	174
2.81400	179
2.81767	195
2.82133	235
2.82500	329
2.82867	522
2.83233	877
2.83600	1465
2.83967	2345
2.84333	3544
2.84700	5043
2.85067	6785
2.85433	8666
2.85800	10558
2.86167	12314
2.86533	13800
2.86900	14908
2.87267	15575
2.87633	15793
2.88000	15599
2.88367	15061
2.88733	14264
2.89100	13298
2.89467	12238
2.89833	11141
2.90200	10058
2.90567	9019
2.90933	8044
2.91300	7147
2.91667	6329
2.92033	5588
2.92400	4923
2.92767	4331
2.93133	3807
2.93500	3347
2.93867	2940
2.94233	2581
2.94600	2268
2.94967	1993
2.95333	1753
2.95700	1545
2.96067	1363
2.96433	1205
2.96800	1066
2.97167	947
2.97533	843
2.97900	754
2.98267	678
2.98633	615
2.99000	557
2.99367	504
2.99733	460
3.00100	423
3.00467	389
3.00833	359
3.01200	336
3.01567	313
3.01933	293
3.02300	277
3.02667	263
3.03033	251
3.03400	241
3.03767	231
3.04133	223
3.04500	214
3.04867	203
3.05233	196
3.05600	191
3.05967	187
3.06333	182
3.06700	175
3.07067	154
3.07433	123
3.07800	107
3.08167	110
3.08533	129
3.08900	160
3.09267	197
3.09633	235
3.10000	271
3.10367	305
3.10733	338
3.11100	368
3.11467	397
3.11833	422
3.12200	442
3.12567	459
3.12933	475
3.13300	487
3.13667	498
3.14033	508
3.14400	519
3.14767	529
3.15133	537
3.15500	546
3.15867	553
3.16233	558
3.16600	562
3.16967	565
3.17333	570
3.17700	576
3.18067	580
3.18433	583
3.18800	585
3.19167	586
3.19533	587
3.19900	590
3.20267	594
3.20633	597
3.21000	598
3.21367	601
3.21733	604
3.22100	607
3.22467	609
3.22833	613
3.23200	617
3.23567	620
3.23933	623
3.24300	625
3.24667	626
3.25033	628
3.25400	628
3.25767	631
3.26133	634
3.26500	635
3.26867	637
3.27233	638
3.27600	640
3.27967	643
3.28333	646
3.28700	646
3.29067	645
3.29433	642
3.29800	641
3.30167	643
3.30533	644
3.30900	646
3.31267	651
3.31633	655
3.32000	658
3.32367	660
3.32733	662
3.33100	660
3.33467	660
3.33833	662
3.34200	664
3.34567	663
3.34933	662
3.35300	660
3.35667	660
3.36033	662
3.36400	665
3.36767	667
3.37133	669
3.37500	670
3.37867	669
3.38233	668
3.38600	667
3.38967	668
3.39333	669
3.39700	670
3.40067	671
3.40433	671
3.40800	670
3.41167	670
3.41533	671
3.41900	671
3.42267	671
3.42633	670
3.43000	668
3.43367	667
3.43733	665
3.44100	662
3.44467	661
3.44833	660
3.45200	661
3.45567	660
3.45933	658
3.46300	658
3.46667	659
3.47033	658
3.47400	654
3.47767	651
3.48133	650
3.48500	648
3.48867	645
3.49233	643
3.49600	643
3.49967	641
3.50333	638
3.50700	635
3.51067	631
3.51433	629
3.51800	628
3.52167	627
3.52533	627
3.52900	626
3.53267	626
3.53633	628
3.54000	628
3.54367	629
3.54733	627
3.55100	625
3.55467	623
3.55833	617
3.56200	616
3.56567	617
3.56933	618
3.57300	618
3.57667	617
3.58033	616
3.58400	615
3.58767	615
3.59133	617
3.59500	619
3.59867	619
3.60233	618
3.60600	616
3.60967	616
3.61333	617
3.61700	617
3.62067	616
3.62433	615
3.62800	614
3.63167	615
3.63533	615
3.63900	615
3.64267	614
3.64633	612
3.65000	612
3.65367	610
3.65733	610
3.66100	611
3.66467	610
3.66833	611
3.67200	612
3.67567	615
3.67933	616
3.68300	616
3.68667	615
3.69033	613
3.69400	611
3.69767	611
3.70133	611
3.70500	612
3.70867	613
3.71233	612
3.71600	610
3.71967	608
3.72333	609
3.72700	612
3.73067	614
3.73433	615
3.73800	613
3.74167	610
3.74533	609
3.74900	609
3.75267	609
3.75633	609
3.76000	609
3.76367	609
3.76733	608
3.77100	607
3.77467	606
3.77833	605
3.78200	604
3.78567	601
3.78933	601
3.79300	602
3.79667	601
3.80033	598
3.80400	597
3.80767	597
3.81133	597
3.81500	597
3.81867	594
3.82233	592
3.82600	591
3.82967	591
3.83333	589
3.83700	590
3.84067	590
3.84433	587
3.84800	586
3.85167	584
3.85533	582
3.85900	578
3.86267	575
3.86633	574
3.87000	572
3.87367	571
3.87733	570
3.88100	568
3.88467	564
3.88833	562
3.89200	561
3.89567	562
3.89933	563
3.90300	563
3.90667	561
3.91033	561
3.91400	559
3.91767	558
3.92133	557
3.92500	556
3.92867	553
3.93233	552
3.93600	550
3.93967	548
3.94333	550
3.94700	552
3.95067	548
3.95433	546
3.95800	545
3.96167	543
3.96533	542
3.96900	541
3.97267	539
3.97633	538
3.98000	537
3.98367	535
3.98733	533
3.99100	531
3.99467	531
3.99833	527

[Status Trace (Column Oven Temperature)]
Interval(msec)	1000
# of Points	240
Start Time(min)	0.004
End Time(min)	3.987
Intensity Units	
Intensity Multiplier	1
R.Time (min)	Intensity
0.00362	35.07
0.02028	35.06
0.03695	35.06
0.05362	35.06
0.07028	35.05
0.08695	35.03
0.10362	35.03
0.12028	35.02
0.13695	35.02
0.15362	35.03
0.17028	35.04
0.18695	35.04
0.20362	35.03
0.22028	35.04
0.23695	35.04
0.25362	35.03
0.27028	35.03
0.28695	35.03
0.30362	35.04
0.32028	35.04
0.33695	35.04
0.35362	35.04
0.37028	35.03
0.38695	35.03
0.40362	35.03
0.42028	35.03
0.43695	35.02
0.45362	35.02
0.47028	35.01
0.48695	35.00
0.50362	34.98
0.52028	34.98
0.53695	34.98
0.55362	34.99
0.57028	34.99
0.58695	35.00
0.60362	35.02
0.62028	35.03
0.63695	35.04
0.65362	35.03
0.67028	35.03
0.68695	35.03
0.70362	35.02
0.72028	35.02
0.73695	35.02
0.75362	35.01
0.77028	35.01
0.78695	35.00
0.80362	35.00
0.82028	35.00
0.83695	34.99
0.85362	34.99
0.87028	35.00
0.88695	34.99
0.90362	35.00
0.92028	35.01
0.93695	35.01
0.95362	35.00
0.97028	35.00
0.98695	35.00
1.00362	35.00
1.02028	35.00
1.03695	35.01
1.05362	35.01
1.07028	35.00
1.08695	35.01
1.10362	35.02
1.12028	35.02
1.13695	35.01
1.15362	35.01
1.17028	35.01
1.18695	35.01
1.20362	35.00
1.22028	35.00
1.23695	35.00
1.25362	35.00
1.27028	35.01
1.28695	35.02
1.30362	35.01
1.32028	35.01
1.33695	35.00
1.35362	35.01
1.37028	35.02
1.38695	35.01
1.40362	35.00
1.42028	35.00
1.43695	34.99
1.45362	35.00
1.47028	35.00
1.48695	35.00
1.50362	34.99
1.52028	34.99
1.53695	34.99
1.55362	34.98
1.57028	34.99
1.58695	34.99
1.60362	35.02
1.62028	35.13
1.63695	35.31
1.65362	35.54
1.67028	35.87
1.68695	36.23
1.70362	36.57
1.72028	36.92
1.73695	37.25
1.75362	37.59
1.77028	37.93
1.78695	38.27
1.80362	38.59
1.82028	38.93
1.83695	39.25
1.85362	39.59
1.87028	39.92
1.88695	40.23
1.90362	40.55
1.92028	40.88
1.93695	41.20
1.95362	41.53
1.97028	41.85
1.98695	42.16
2.00362	42.50
2.02028	42.82
2.03695	43.15
2.05362	43.48
2.07028	43.80
2.08695	44.11
2.10362	44.46
2.12028	44.78
2.13695	45.08
2.15362	45.42
2.17028	45.75
2.18695	46.09
2.20362	46.43
2.22028	46.74
2.23695	47.06
2.25362	47.45
2.27028	47.77
2.28695	48.10
2.30362	48.43
2.32028	48.75
2.33695	49.08
2.35362	49.37
2.37028	49.60
2.38695	49.69
2.40362	49.69
2.42028	49.68
2.43695	49.71
2.45362	49.73
2.47028	49.72
2.48695	49.73
2.50362	49.74
2.52028	49.74
2.53695	49.76
2.55362	49.77
2.57028	49.79
2.58695	49.80
2.60362	49.80
2.62028	49.82
2.63695	49.83
2.65362	49.83
2.67028	49.84
2.68695	49.85
2.70362	49.86
2.72028	49.85
2.73695	49.84
2.75362	49.87
2.77028	49.89
2.78695	49.89
2.80362	49.89
2.82028	49.89
2.83695	49.89
2.85362	49.88
2.87028	49.89
2.88695	49.90
2.90362	49.91
2.92028	49.91
2.93695	49.93
2.95362	49.94
2.97028	49.95
2.98695	49.97
3.00362	49.99
3.02028	50.00
3.03695	50.01
3.05362	50.02
3.07028	50.03
3.08695	50.03
3.10362	50.03
3.12028	50.03
3.13695	50.03
3.15362	50.03
3.17028	50.03
3.18695	50.04
3.20362	50.04
3.22028	50.05
3.23695	50.07
3.25362	50.08
3.27028	50.09
3.28695	50.10
3.30362	50.11
3.32028	50.10
3.33695	50.09
3.35362	50.09
3.37028	50.09
3.38695	50.08
3.40362	50.07
3.42028	50.07
3.43695	50.07
3.45362	50.06
3.47028	50.07
3.48695	50.07
3.50362	50.08
3.52028	50.09
3.53695	50.10
3.55362	50.09
3.57028	50.08
3.58695	50.09
3.60362	50.09
3.62028	50.08
3.63695	50.07
3.65362	50.06
3.67028	50.06
3.68695	50.05
3.70362	50.04
3.72028	50.04
3.73695	50.05
3.75362	50.05
3.77028	50.05
3.78695	50.06
3.80362	50.07
3.82028	50.07
3.83695	50.07
3.85362	50.07
3.87028	50.07
3.88695	50.07
3.90362	50.06
3.92028	50.06
3.93695	50.06
3.95362	50.07
3.97028	50.07
3.98695	50.08

[Status Trace (Injection Unit Temperature)]
Interval(msec)	1000
# of Points	240
Start Time(min)	0.004
End Time(min)	3.987
Intensity Units	
Intensity Multiplier	1
R.Time (min)	Intensity
0.00362	99.98
0.02028	99.98
0.03695	99.98
0.05362	99.98
0.07028	99.98
0.08695	99.98
0.10362	99.98
0.12028	99.98
0.13695	99.98
0.15362	99.98
0.17028	99.98
0.18695	99.98
0.20362	99.98
0.22028	99.98
0.23695	99.98
0.25362	99.98
0.27028	99.98
0.28695	99.98
0.30362	99.98
0.32028	99.98
0.33695	99.98
0.35362	99.97
0.37028	99.98
0.38695	99.98
0.40362	99.98
0.42028	99.98
0.43695	99.97
0.45362	99.98
0.47028	99.98
0.48695	99.98
0.50362	99.98
0.52028	99.97
0.53695	99.98
0.55362	99.98
0.57028	99.97
0.58695	99.98
0.60362	99.97
0.62028	99.97
0.63695	99.98
0.65362	99.98
0.67028	99.98
0.68695	99.97
0.70362	99.98
0.72028	99.98
0.73695	99.98
0.75362	99.98
0.77028	99.98
0.78695	99.98
0.80362	99.98
0.82028	99.98
0.83695	99.98
0.85362	99.98
0.87028	99.98
0.88695	99.98
0.90362	99.98
0.92028	99.98
0.93695	99.99
0.95362	99.98
0.97028	99.98
0.98695	99.99
1.00362	99.98
1.02028	99.98
1.03695	99.98
1.05362	99.98
1.07028	99.98
1.08695	99.98
1.10362	99.98
1.12028	99.99
1.13695	99.98
1.15362	99.98
1.17028	99.98
1.18695	99.99
1.20362	99.98
1.22028	99.99
1.23695	99.99
1.25362	99.99
1.27028	99.99
1.28695	99.98
1.30362	99.99
1.32028	99.99
1.33695	99.98
1.35362	99.99
1.37028	99.99
1.38695	99.99
1.40362	99.99
1.42028	99.99
1.43695	99.99
1.45362	99.99
1.47028	99.99
1.48695	99.99
1.50362	99.99
1.52028	99.99
1.53695	99.99
1.55362	99.99
1.57028	99.99
1.58695	99.99
1.60362	99.99
1.62028	99.99
1.63695	99.99
1.65362	99.99
1.67028	99.99
1.68695	99.98
1.70362	99.99
1.72028	99.99
1.73695	99.98
1.75362	99.99
1.77028	99.99
1.78695	99.99
1.80362	99.99
1.82028	99.98
1.83695	99.98
1.85362	99.98
1.87028	99.98
1.88695	99.98
1.90362	99.98
1.92028	99.98
1.93695	99.98
1.95362	99.98
1.97028	99.97
1.98695	99.97
2.00362	99.97
2.02028	99.97
2.03695	99.97
2.05362	99.96
2.07028	99.97
2.08695	99.97
2.10362	99.96
2.12028	99.96
2.13695	99.97
2.15362	99.96
2.17028	99.96
2.18695	99.96
2.20362	99.96
2.22028	99.96
2.23695	99.96
2.25362	99.96
2.27028	99.96
2.28695	99.96
2.30362	99.96
2.32028	99.96
2.33695	99.96
2.35362	99.96
2.37028	99.96
2.38695	99.96
2.40362	99.96
2.42028	99.96
2.43695	99.96
2.45362	99.97
2.47028	99.97
2.48695	99.97
2.50362	99.97
2.52028	99.97
2.53695	99.97
2.55362	99.97
2.57028	99.97
2.58695	99.98
2.60362	99.98
2.62028	99.98
2.63695	99.98
2.65362	99.98
2.67028	99.98
2.68695	99.99
2.70362	99.99
2.72028	99.99
2.73695	99.99
2.75362	99.99
2.77028	100.00
2.78695	100.00
2.80362	100.00
2.82028	100.00
2.83695	100.00
2.85362	100.00
2.87028	100.00
2.88695	100.00
2.90362	100.00
2.92028	100.01
2.93695	100.00
2.95362	100.01
2.97028	100.01
2.98695	100.01
3.00362	100.01
3.02028	100.01
3.03695	100.01
3.05362	100.02
3.07028	100.01
3.08695	100.02
3.10362	100.02
3.12028	100.02
3.13695	100.02
3.15362	100.02
3.17028	100.02
3.18695	100.02
3.20362	100.02
3.22028	100.02
3.23695	100.03
3.25362	100.03
3.27028	100.03
3.28695	100.03
3.30362	100.03
3.32028	100.03
3.33695	100.03
3.35362	100.03
3.37028	100.03
3.38695	100.03
3.40362	100.04
3.42028	100.03
3.43695	100.04
3.45362	100.04
3.47028	100.04
3.48695	100.04
3.50362	100.04
3.52028	100.04
3.53695	100.04
3.55362	100.04
3.57028	100.04
3.58695	100.04
3.60362	100.05
3.62028	100.04
3.63695	100.05
3.65362	100.04
3.67028	100.05
3.68695	100.04
3.70362	100.04
3.72028	100.04
3.73695	100.04
3.75362	100.05
3.77028	100.05
3.78695	100.05
3.80362	100.05
3.82028	100.05
3.83695	100.05
3.85362	100.04
3.87028	100.05
3.88695	100.05
3.90362	100.05
3.92028	100.05
3.93695	100.05
3.95362	100.04
3.97028	100.05
3.98695	100.04

[Status Trace (Carrier Gas Pressure)]
Interval(msec)	1000
# of Points	240
Start Time(min)	0.004
End Time(min)	3.987
Intensity Units	
Intensity Multiplier	1
R.Time (min)	Intensity
0.00362	58.00
0.02028	56.05
0.03695	56.55
0.05362	58.70
0.07028	59.79
0.08695	58.20
0.10362	57.97
0.12028	58.01
0.13695	58.01
0.15362	58.01
0.17028	58.00
0.18695	58.00
0.20362	58.00
0.22028	58.00
0.23695	58.00
0.25362	58.00
0.27028	58.00
0.28695	58.00
0.30362	58.00
0.32028	58.00
0.33695	58.00
0.35362	58.00
0.37028	58.00
0.38695	58.00
0.40362	58.00
0.42028	58.00
0.43695	58.00
0.45362	58.00
0.47028	58.00
0.48695	58.00
0.50362	58.00
0.52028	58.00
0.53695	58.00
0.55362	58.00
0.57028	58.00
0.58695	58.00
0.60362	58.00
0.62028	58.00
0.63695	58.00
0.65362	58.00
0.67028	58.00
0.68695	58.00
0.70362	58.00
0.72028	58.00
0.73695	58.00
0.75362	58.00
0.77028	58.00
0.78695	58.00
0.80362	58.00
0.82028	58.00
0.83695	58.00
0.85362	58.00
0.87028	58.00
0.88695	58.00
0.90362	58.00
0.92028	58.00
0.93695	58.00
0.95362	58.00
0.97028	58.00
0.98695	58.00
1.00362	58.00
1.02028	58.00
1.03695	58.00
1.05362	58.00
1.07028	58.00
1.08695	58.00
1.10362	58.00
1.12028	58.00
1.13695	58.00
1.15362	58.00
1.17028	58.00
1.18695	58.00
1.20362	58.00
1.22028	58.00
1.23695	58.00
1.25362	58.00
1.27028	58.00
1.28695	58.00
1.30362	58.00
1.32028	58.00
1.33695	58.00
1.35362	58.00
1.37028	58.00
1.38695	58.00
1.40362	58.00
1.42028	58.00
1.43695	58.00
1.45362	58.00
1.47028	58.00
1.48695	58.00
1.50362	58.00
1.52028	58.00
1.53695	58.00
1.55362	58.00
1.57028	58.00
1.58695	58.00
1.60362	58.00
1.62028	58.00
1.63695	58.00
1.65362	58.00
1.67028	58.01
1.68695	58.01
1.70362	58.00
1.72028	58.00
1.73695	58.00
1.75362	58.00
1.77028	58.00
1.78695	58.00
1.80362	58.00
1.82028	58.00
1.83695	58.00
1.85362	58.00
1.87028	58.00
1.88695	58.00
1.90362	58.00
1.92028	58.00
1.93695	58.00
1.95362	58.00
1.97028	58.00
1.98695	58.00
2.00362	58.00
2.02028	58.00
2.03695	58.00
2.05362	58.00
2.07028	58.00
2.08695	58.00
2.10362	58.00
2.12028	58.00
2.13695	58.00
2.15362	58.00
2.17028	58.00
2.18695	58.00
2.20362	58.00
2.22028	58.00
2.23695	58.00
2.25362	58.00
2.27028	58.00
2.28695	58.00
2.30362	58.00
2.32028	58.00
2.33695	58.00
2.35362	58.00
2.37028	58.00
2.38695	57.99
2.40362	57.99
2.42028	58.00
2.43695	58.00
2.45362	58.00
2.47028	58.00
2.48695	58.00
2.50362	57.97
2.52028	58.00
2.53695	57.99
2.55362	58.00
2.57028	58.00
2.58695	58.00
2.60362	58.00
2.62028	58.00
2.63695	58.00
2.65362	58.00
2.67028	58.00
2.68695	58.00
2.70362	58.00
2.72028	58.00
2.73695	58.00
2.75362	58.00
2.77028	58.00
2.78695	58.00
2.80362	58.00
2.82028	58.00
2.83695	58.00
2.85362	58.00
2.87028	58.00
2.88695	58.00
2.90362	58.00
2.92028	58.00
2.93695	58.00
2.95362	58.00
2.97028	58.00
2.98695	58.00
3.00362	58.00
3.02028	58.00
3.03695	58.00
3.05362	58.00
3.07028	58.00
3.08695	58.00
3.10362	58.00
3.12028	58.00
3.13695	58.00
3.15362	58.00
3.17028	58.00
3.18695	58.00
3.20362	58.00
3.22028	58.00
3.23695	58.00
3.25362	58.00
3.27028	58.00
3.28695	58.00
3.30362	58.00
3.32028	58.00
3.33695	58.00
3.35362	58.00
3.37028	58.00
3.38695	58.00
3.40362	58.00
3.42028	58.00
3.43695	58.00
3.45362	58.00
3.47028	58.00
3.48695	58.00
3.50362	58.00
3.52028	58.00
3.53695	58.00
3.55362	58.00
3.57028	58.00
3.58695	58.00
3.60362	58.00
3.62028	58.00
3.63695	58.00
3.65362	58.00
3.67028	58.00
3.68695	58.00
3.70362	58.00
3.72028	58.00
3.73695	58.00
3.75362	58.00
3.77028	58.00
3.78695	58.00
3.80362	58.00
3.82028	58.00
3.83695	58.00
3.85362	58.00
3.87028	58.00
3.88695	58.00
3.90362	58.00
3.92028	58.00
3.93695	58.00
3.95362	58.00
3.97028	58.00
3.98695	58.00

[Status Trace (Carrier Gas Flow)]
Interval(msec)	1000
# of Points	240
Start Time(min)	0.004
End Time(min)	3.987
Intensity Units	
Intensity Multiplier	1
R.Time (min)	Intensity
0.00362	34.52
0.02028	34.58
0.03695	34.55
0.05362	34.54
0.07028	34.49
0.08695	34.51
0.10362	34.52
0.12028	34.52
0.13695	34.52
0.15362	34.52
0.17028	34.52
0.18695	34.52
0.20362	34.52
0.22028	34.52
0.23695	34.52
0.25362	34.52
0.27028	34.52
0.28695	34.52
0.30362	34.52
0.32028	34.51
0.33695	34.52
0.35362	34.53
0.37028	34.52
0.38695	34.53
0.40362	34.51
0.42028	34.51
0.43695	34.52
0.45362	34.52
0.47028	34.52
0.48695	34.52
0.50362	34.52
0.52028	34.52
0.53695	34.52
0.55362	34.52
0.57028	34.52
0.58695	34.52
0.60362	34.52
0.62028	34.52
0.63695	34.52
0.65362	34.52
0.67028	34.52
0.68695	34.52
0.70362	34.52
0.72028	34.52
0.73695	34.52
0.75362	34.52
0.77028	34.52
0.78695	34.52
0.80362	34.52
0.82028	34.52
0.83695	34.52
0.85362	34.52
0.87028	34.52
0.88695	34.51
0.90362	34.52
0.92028	34.52
0.93695	34.52
0.95362	34.52
0.97028	34.52
0.98695	34.52
1.00362	34.52
1.02028	34.52
1.03695	34.52
1.05362	34.52
1.07028	34.52
1.08695	34.52
1.10362	34.52
1.12028	34.52
1.13695	34.52
1.15362	34.52
1.17028	34.52
1.18695	34.52
1.20362	34.52
1.22028	34.52
1.23695	34.52
1.25362	34.52
1.27028	34.52
1.28695	34.52
1.30362	34.52
1.32028	34.52
1.33695	34.52
1.35362	34.52
1.37028	34.51
1.38695	34.52
1.40362	34.52
1.42028	34.52
1.43695	34.52
1.45362	34.53
1.47028	34.52
1.48695	34.52
1.50362	34.51
1.52028	34.52
1.53695	34.52
1.55362	34.52
1.57028	34.52
1.58695	34.52
1.60362	34.52
1.62028	34.52
1.63695	34.52
1.65362	34.52
1.67028	34.52
1.68695	34.52
1.70362	34.52
1.72028	34.52
1.73695	34.52
1.75362	34.52
1.77028	34.52
1.78695	34.52
1.80362	34.52
1.82028	34.53
1.83695	34.52
1.85362	34.52
1.87028	34.51
1.88695	34.52
1.90362	34.52
1.92028	34.51
1.93695	34.52
1.95362	34.53
1.97028	34.53
1.98695	34.52
2.00362	34.51
2.02028	34.52
2.03695	34.52
2.05362	34.52
2.07028	34.52
2.08695	34.52
2.10362	34.52
2.12028	34.52
2.13695	34.51
2.15362	34.52
2.17028	34.52
2.18695	34.52
2.20362	34.52
2.22028	34.52
2.23695	34.52
2.25362	34.52
2.27028	34.52
2.28695	34.52
2.30362	34.52
2.32028	34.52
2.33695	34.52
2.35362	34.52
2.37028	34.52
2.38695	34.52
2.40362	34.51
2.42028	34.51
2.43695	34.52
2.45362	34.52
2.47028	34.52
2.48695	34.51
2.50362	34.69
2.52028	34.52
2.53695	34.52
2.55362	34.52
2.57028	34.52
2.58695	34.52
2.60362	34.52
2.62028	34.51
2.63695	34.52
2.65362	34.52
2.67028	34.52
2.68695	34.52
2.70362	34.52
2.72028	34.52
2.73695	34.52
2.75362	34.51
2.77028	34.52
2.78695	34.52
2.80362	34.52
2.82028	34.52
2.83695	34.52
2.85362	34.52
2.87028	34.51
2.88695	34.52
2.90362	34.52
2.92028	34.52
2.93695	34.52
2.95362	34.51
2.97028	34.51
2.98695	34.52
3.00362	34.52
3.02028	34.51
3.03695	34.52
3.05362	34.52
3.07028	34.52
3.08695	34.52
3.10362	34.52
3.12028	34.52
3.13695	34.52
3.15362	34.52
3.17028	34.51
3.18695	34.52
3.20362	34.52
3.22028	34.51
3.23695	34.52
3.25362	34.51
3.27028	34.51
3.28695	34.52
3.30362	34.52
3.32028	34.52
3.33695	34.52
3.35362	34.52
3.37028	34.51
3.38695	34.51
3.40362	34.52
3.42028	34.52
3.43695	34.52
3.45362	34.51
3.47028	34.53
3.48695	34.52
3.50362	34.51
3.52028	34.52
3.53695	34.52
3.55362	34.51
3.57028	34.52
3.58695	34.52
3.60362	34.52
3.62028	34.52
3.63695	34.52
3.65362	34.52
3.67028	34.52
3.68695	34.51
3.70362	34.52
3.72028	34.51
3.73695	34.52
3.75362	34.52
3.77028	34.52
3.78695	34.51
3.80362	34.52
3.82028	34.52
3.83695	34.52
3.85362	34.51
3.87028	34.52
3.88695	34.51
3.90362	34.52
3.92028	34.51
3.93695	34.53
3.95362	34.53
3.97028	34.52
3.98695	34.52

[Status Trace (Column Flow)]
Interval(msec)	1000
# of Points	240
Start Time(min)	0.004
End Time(min)	3.987
Intensity Units	
Intensity Multiplier	1
R.Time (min)	Intensity
0.00362	5.51
0.02028	5.29
0.03695	5.35
0.05362	5.60
0.07028	5.72
0.08695	5.54
0.10362	5.51
0.12028	5.52
0.13695	5.52
0.15362	5.52
0.17028	5.52
0.18695	5.52
0.20362	5.52
0.22028	5.52
0.23695	5.51
0.25362	5.52
0.27028	5.52
0.28695	5.52
0.30362	5.51
0.32028	5.51
0.33695	5.51
0.35362	5.51
0.37028	5.51
0.38695	5.52
0.40362	5.52
0.42028	5.52
0.43695	5.52
0.45362	5.52
0.47028	5.52
0.48695	5.52
0.50362	5.52
0.52028	5.52
0.53695	5.52
0.55362	5.52
0.57028	5.52
0.58695	5.52
0.60362	5.52
0.62028	5.52
0.63695	5.51
0.65362	5.52
0.67028	5.52
0.68695	5.52
0.70362	5.52
0.72028	5.52
0.73695	5.52
0.75362	5.52
0.77028	5.52
0.78695	5.52
0.80362	5.52
0.82028	5.52
0.83695	5.52
0.85362	5.52
0.87028	5.52
0.88695	5.52
0.90362	5.52
0.92028	5.52
0.93695	5.52
0.95362	5.52
0.97028	5.52
0.98695	5.52
1.00362	5.52
1.02028	5.52
1.03695	5.52
1.05362	5.52
1.07028	5.52
1.08695	5.52
1.10362	5.52
1.12028	5.52
1.13695	5.52
1.15362	5.52
1.17028	5.52
1.18695	5.52
1.20362	5.52
1.22028	5.52
1.23695	5.52
1.25362	5.52
1.27028	5.52
1.28695	5.52
1.30362	5.52
1.32028	5.52
1.33695	5.52
1.35362	5.52
1.37028	5.52
1.38695	5.52
1.40362	5.52
1.42028	5.52
1.43695	5.52
1.45362	5.52
1.47028	5.52
1.48695	5.52
1.50362	5.52
1.52028	5.52
1.53695	5.52
1.55362	5.52
1.57028	5.52
1.58695	5.52
1.60362	5.52
1.62028	5.51
1.63695	5.51
1.65362	5.50
1.67028	5.49
1.68695	5.48
1.70362	5.47
1.72028	5.46
1.73695	5.45
1.75362	5.44
1.77028	5.43
1.78695	5.41
1.80362	5.41
1.82028	5.39
1.83695	5.38
1.85362	5.38
1.87028	5.36
1.88695	5.36
1.90362	5.35
1.92028	5.34
1.93695	5.33
1.95362	5.32
1.97028	5.31
1.98695	5.30
2.00362	5.29
2.02028	5.28
2.03695	5.27
2.05362	5.26
2.07028	5.25
2.08695	5.24
2.10362	5.23
2.12028	5.22
2.13695	5.21
2.15362	5.20
2.17028	5.19
2.18695	5.18
2.20362	5.17
2.22028	5.16
2.23695	5.16
2.25362	5.15
2.27028	5.14
2.28695	5.13
2.30362	5.12
2.32028	5.11
2.33695	5.10
2.35362	5.09
2.37028	5.08
2.38695	5.08
2.40362	5.08
2.42028	5.08
2.43695	5.08
2.45362	5.08
2.47028	5.08
2.48695	5.08
2.50362	5.08
2.52028	5.08
2.53695	5.08
2.55362	5.08
2.57028	5.08
2.58695	5.08
2.60362	5.08
2.62028	5.08
2.63695	5.08
2.65362	5.08
2.67028	5.08
2.68695	5.08
2.70362	5.08
2.72028	5.08
2.73695	5.08
2.75362	5.08
2.77028	5.08
2.78695	5.08
2.80362	5.08
2.82028	5.08
2.83695	5.08
2.85362	5.08
2.87028	5.08
2.88695	5.08
2.90362	5.08
2.92028	5.08
2.93695	5.08
2.95362	5.07
2.97028	5.07
2.98695	5.07
3.00362	5.07
3.02028	5.07
3.03695	5.07
3.05362	5.07
3.07028	5.07
3.08695	5.07
3.10362	5.07
3.12028	5.07
3.13695	5.07
3.15362	5.07
3.17028	5.07
3.18695	5.07
3.20362	5.07
3.22028	5.07
3.23695	5.07
3.25362	5.07
3.27028	5.07
3.28695	5.07
3.30362	5.07
3.32028	5.07
3.33695	5.07
3.35362	5.07
3.37028	5.07
3.38695	5.07
3.40362	5.07
3.42028	5.07
3.43695	5.07
3.45362	5.07
3.47028	5.07
3.48695	5.07
3.50362	5.07
3.52028	5.07
3.53695	5.07
3.55362	5.07
3.57028	5.07
3.58695	5.07
3.60362	5.07
3.62028	5.07
3.63695	5.07
3.65362	5.07
3.67028	5.07
3.68695	5.07
3.70362	5.07
3.72028	5.07
3.73695	5.07
3.75362	5.07
3.77028	5.07
3.78695	5.07
3.80362	5.07
3.82028	5.07
3.83695	5.07
3.85362	5.07
3.87028	5.07
3.88695	5.07
3.90362	5.07
3.92028	5.07
3.93695	5.07
3.95362	5.07
3.97028	5.07
3.98695	5.07

[Status Trace (Linear Velocity)]
Interval(msec)	1000
# of Points	240
Start Time(min)	0.004
End Time(min)	3.987
Intensity Units	
Intensity Multiplier	1
R.Time (min)	Intensity
0.00362	39.01
0.02028	37.73
0.03695	38.06
0.05362	39.47
0.07028	40.18
0.08695	39.14
0.10362	38.99
0.12028	39.02
0.13695	39.02
0.15362	39.02
0.17028	39.01
0.18695	39.01
0.20362	39.01
0.22028	39.01
0.23695	39.01
0.25362	39.01
0.27028	39.01
0.28695	39.01
0.30362	39.01
0.32028	39.01
0.33695	39.01
0.35362	39.01
0.37028	39.01
0.38695	39.01
0.40362	39.01
0.42028	39.01
0.43695	39.01
0.45362	39.01
0.47028	39.01
0.48695	39.02
0.50362	39.02
0.52028	39.02
0.53695	39.02
0.55362	39.02
0.57028	39.02
0.58695	39.02
0.60362	39.01
0.62028	39.01
0.63695	39.01
0.65362	39.01
0.67028	39.01
0.68695	39.01
0.70362	39.01
0.72028	39.01
0.73695	39.01
0.75362	39.01
0.77028	39.01
0.78695	39.01
0.80362	39.02
0.82028	39.02
0.83695	39.02
0.85362	39.02
0.87028	39.02
0.88695	39.02
0.90362	39.02
0.92028	39.01
0.93695	39.01
0.95362	39.02
0.97028	39.02
0.98695	39.02
1.00362	39.02
1.02028	39.01
1.03695	39.01
1.05362	39.01
1.07028	39.02
1.08695	39.01
1.10362	39.01
1.12028	39.01
1.13695	39.01
1.15362	39.01
1.17028	39.01
1.18695	39.01
1.20362	39.01
1.22028	39.02
1.23695	39.02
1.25362	39.02
1.27028	39.01
1.28695	39.01
1.30362	39.01
1.32028	39.01
1.33695	39.01
1.35362	39.01
1.37028	39.01
1.38695	39.01
1.40362	39.02
1.42028	39.02
1.43695	39.02
1.45362	39.02
1.47028	39.02
1.48695	39.02
1.50362	39.02
1.52028	39.02
1.53695	39.02
1.55362	39.02
1.57028	39.02
1.58695	39.02
1.60362	39.01
1.62028	39.01
1.63695	38.99
1.65362	38.97
1.67028	38.94
1.68695	38.90
1.70362	38.87
1.72028	38.83
1.73695	38.80
1.75362	38.77
1.77028	38.74
1.78695	38.70
1.80362	38.68
1.82028	38.64
1.83695	38.61
1.85362	38.58
1.87028	38.55
1.88695	38.52
1.90362	38.49
1.92028	38.46
1.93695	38.43
1.95362	38.40
1.97028	38.37
1.98695	38.34
2.00362	38.31
2.02028	38.28
2.03695	38.25
2.05362	38.22
2.07028	38.19
2.08695	38.16
2.10362	38.13
2.12028	38.10
2.13695	38.07
2.15362	38.04
2.17028	38.01
2.18695	37.98
2.20362	37.95
2.22028	37.92
2.23695	37.89
2.25362	37.86
2.27028	37.83
2.28695	37.80
2.30362	37.77
2.32028	37.74
2.33695	37.71
2.35362	37.69
2.37028	37.66
2.38695	37.65
2.40362	37.65
2.42028	37.66
2.43695	37.66
2.45362	37.65
2.47028	37.65
2.48695	37.66
2.50362	37.63
2.52028	37.65
2.53695	37.65
2.55362	37.65
2.57028	37.65
2.58695	37.65
2.60362	37.65
2.62028	37.65
2.63695	37.65
2.65362	37.65
2.67028	37.65
2.68695	37.64
2.70362	37.64
2.72028	37.64
2.73695	37.65
2.75362	37.64
2.77028	37.64
2.78695	37.64
2.80362	37.64
2.82028	37.64
2.83695	37.64
2.85362	37.64
2.87028	37.64
2.88695	37.64
2.90362	37.64
2.92028	37.64
2.93695	37.64
2.95362	37.64
2.97028	37.64
2.98695	37.63
3.00362	37.63
3.02028	37.63
3.03695	37.63
3.05362	37.63
3.07028	37.63
3.08695	37.63
3.10362	37.63
3.12028	37.63
3.13695	37.63
3.15362	37.63
3.17028	37.63
3.18695	37.63
3.20362	37.63
3.22028	37.63
3.23695	37.63
3.25362	37.63
3.27028	37.62
3.28695	37.62
3.30362	37.62
3.32028	37.62
3.33695	37.62
3.35362	37.62
3.37028	37.62
3.38695	37.62
3.40362	37.62
3.42028	37.63
3.43695	37.63
3.45362	37.63
3.47028	37.63
3.48695	37.62
3.50362	37.62
3.52028	37.62
3.53695	37.62
3.55362	37.62
3.57028	37.62
3.58695	37.62
3.60362	37.62
3.62028	37.62
3.63695	37.62
3.65362	37.63
3.67028	37.63
3.68695	37.63
3.70362	37.63
3.72028	37.63
3.73695	37.63
3.75362	37.63
3.77028	37.63
3.78695	37.63
3.80362	37.63
3.82028	37.62
3.83695	37.62
3.85362	37.62
3.87028	37.62
3.88695	37.63
3.90362	37.63
3.92028	37.63
3.93695	37.63
3.95362	37.63
3.97028	37.62
3.98695	37.62

