[Header]
Application Name	LabSolutions
Version	5.110
Data File Name	C:\Users\User\Desktop\GC Analyses\Jack\Nachusa Grasslands Sampling\T2 Timepoint July 12th\T2_07122022_080.gcd
Output Date	3/14/2023
Output Time	3:42:35 PM

[File Information]
Type	Data File
Generated	3/10/2023 9:22:53 PM
Generated by	System Administrator
Modified	3/10/2023 9:29:40 PM
Modified by	System Administrator

[Sample Information]
Operator Name	System Administrator
Acquired	3/10/2023 9:25:40 PM
Sample Type	0:Unknown
Level	0
Sample Name	080
Sample ID	080
ISTD Amount1	1
ISTD Amount2	1
ISTD Amount3	1
ISTD Amount4	1
ISTD Amount5	1
ISTD Amount6	1
ISTD Amount7	1
ISTD Amount8	1
ISTD Amount9	1
ISTD Amount10	1
ISTD Amount11	1
ISTD Amount12	1
ISTD Amount13	1
ISTD Amount14	1
ISTD Amount15	1
ISTD Amount16	1
ISTD Amount17	1
ISTD Amount18	1
ISTD Amount19	1
ISTD Amount20	1
ISTD Amount21	1
ISTD Amount22	1
ISTD Amount23	1
ISTD Amount24	1
ISTD Amount25	1
ISTD Amount26	1
ISTD Amount27	1
ISTD Amount28	1
ISTD Amount29	1
ISTD Amount30	1
ISTD Amount31	1
ISTD Amount32	1
Sample Amount	1
Dilution Factor	1
Vial#	79
Injection Volume	1
Injection Count	1
Bar Code	

[Original Files]
Data File	C:\Users\User\Desktop\GC Analyses\Jack\Nachusa Grasslands Sampling\T1 Timepoint July 12th\T2_07122022_080.gcd
Method File	C:\LabSolutions\Data\GHG_4min_2022\ghg3_togas_w_acet_4 min_new_int.gcm
Batch File	C:\LabSolutions\Data\AutoSamplerTesting\T2_07122022.gcb
Report Format File	c:\LabSolutions\System\DEFAULT.lsr

[File Description]


[Configuration]
Instrument Name	C0B7VH3-Instrument1
Instrument #	1
Line #	1
# of Detectors	3
Detector ID	DET#1	DET#2	DET#3
Detector Name	FID	PTCD	ECD
# of Channels	1	1	1

[Peak Table(Ch1)]
# of Peaks	3
Peak#	R.Time	I.Time	F.Time	Area	Height	A/H	Conc.	Mark	ID#	Name	k'	Plate #	Plate Ht.	Tailing	Resolution	Sep.Factor	Area Ratio	Height Ratio	Conc. %	Norm Conc.
1	1.476	1.435	1.538	32842	15767	2.083	231.862	   	1	CO	0.000	9430	15.906	1.278	0.000	0.000	0	0	22.403	22.403
2	1.567	1.538	1.633	4628	2274	2.036	89.496	 V 	2	CH4	0.062	10358	14.481	0.000	1.498	0.000	0	0	8.647	8.647
3	1.996	1.945	2.521	2843316	1351571	2.104	713.595	   	3	CO2	0.353	17450	8.596	1.225	7.030	5.680	0	0	68.949	68.949

[Peak Table(Ch2)]
# of Peaks	0

[Peak Table(Ch3)]
# of Peaks	7
Peak#	R.Time	I.Time	F.Time	Area	Height	A/H	Conc.	Mark	ID#	Name	k'	Plate #	Plate Ht.	Tailing	Resolution	Sep.Factor	Area Ratio	Height Ratio	Conc. %	Norm Conc.
1	1.296	1.226	1.406	87	14	6.325	0.000	   			0.000	2540	59.062	1.330	0.000	0.000	0	0	0.000	0.000
2	2.458	2.440	2.510	1074	532	2.018	0.000	   			0.897	24440	6.137	1.906	14.024	0.000	0	0	0.000	0.000
3	2.535	2.517	2.561	148	99	1.494	0.000	   			0.956	53528	2.802	1.187	1.443	1.066	0	0	0.000	0.000
4	2.601	2.579	2.616	32	25	1.283	0.000	   			1.007	74522	2.013	0.837	1.611	1.053	0	0	0.000	0.000
5	2.876	2.722	3.001	19524	5088	3.837	0.499	   	1	N2O	1.219	13063	11.483	1.606	3.963	1.211	0	0	100.000	100.000
6	3.074	3.005	3.192	3996	423	9.457	0.000	   			1.372	98	1537.722	0.000	0.294	1.125	0	0	0.000	0.000
7	3.269	3.192	3.595	5517	394	13.995	0.000	 V 	2	SF6	1.522	113	1325.216	0.000	0.157	1.109	0	0	0.000	0.000

[Compound Results(Ch1)]
# of IDs	6
ID#	Name	R.Time	Area	Height	Conc.	Curve	3rd	2nd	1st	Constant	Area Ratio	Height Ratio	Conc. %	Norm Conc.
1	CO	1.476	32842	15767	231.862	Linear	0.000000e+00	0.000000e+00	1.416423e+002	0.000000e+00	0	0	22.403	22.403
2	CH4	1.567	4628	2274	89.496	Linear	0.000000e+00	0.000000e+00	5.171738e+001	0.000000e+00	0	0	8.647	8.647
3	CO2	1.996	2843316	1351571	713.595	Linear	0.000000e+00	0.000000e+00	3.984494e+003	0.000000e+00	0	0	68.949	68.949
4	Ethylene	0.000	0	0	0.000	Linear	0.000000e+00	0.000000e+00	0.000000e+00	0.000000e+00	0	0	0.000	0.000
5	Acetylene	0.000	0	0	0.000	Linear	0.000000e+00	0.000000e+00	0.000000e+00	0.000000e+00	0	0	0.000	0.000
6	Ethane	0.000	0	0	0.000	Linear	0.000000e+00	0.000000e+00	0.000000e+00	0.000000e+00	0	0	0.000	0.000

[Compound Results(Ch2)]
# of IDs	5
ID#	Name	R.Time	Area	Height	Conc.	Curve	3rd	2nd	1st	Constant	Area Ratio	Height Ratio	Conc. %	Norm Conc.
1	Hydrogen	0.000	0	0	0.000	Linear	0.000000e+00	0.000000e+00	0.000000e+00	0.000000e+00	0	0	0.000	0.000
2	Oxygen	0.000	0	0	0.000	Linear	0.000000e+00	0.000000e+00	0.000000e+00	0.000000e+00	0	0	0.000	0.000
3	Nitrogen	0.000	0	0	0.000	Linear	0.000000e+00	0.000000e+00	0.000000e+00	0.000000e+00	0	0	0.000	0.000
4	Methane	0.000	0	0	0.000	Linear	0.000000e+00	0.000000e+00	0.000000e+00	0.000000e+00	0	0	0.000	0.000
5	Carbon Monoxide	0.000	0	0	0.000	Linear	0.000000e+00	0.000000e+00	0.000000e+00	0.000000e+00	0	0	0.000	0.000

[Compound Results(Ch3)]
# of IDs	2
ID#	Name	R.Time	Area	Height	Conc.	Curve	3rd	2nd	1st	Constant	Area Ratio	Height Ratio	Conc. %	Norm Conc.
1	N2O	2.876	19524	5088	0.499	Linear	0.000000e+00	0.000000e+00	3.915173e+004	0.000000e+00	0	0	100.000	100.000
2	SF6	3.269	5517	394	0.000	Linear	0.000000e+00	0.000000e+00	0.000000e+00	0.000000e+00	0	0	0.000	0.000

[Group Results(Ch1)]
# of Groups	0

[Group Results(Ch2)]
# of Groups	0

[Group Results(Ch3)]
# of Groups	0

[Chromatogram (Ch1)]
Interval(msec)	220
# of Points	1091
Start Time(min)	0.002
End Time(min)	3.998
R.Time (min)	Intensity
0.00167	12
0.00533	20
0.00900	27
0.01267	33
0.01633	35
0.02000	32
0.02367	25
0.02733	15
0.03100	8
0.03467	7
0.03833	8
0.04200	8
0.04567	10
0.04933	15
0.05300	22
0.05667	24
0.06033	25
0.06400	22
0.06767	14
0.07133	5
0.07500	0
0.07867	2
0.08233	8
0.08600	17
0.08967	27
0.09333	37
0.09700	43
0.10067	46
0.10433	49
0.10800	56
0.11167	64
0.11533	70
0.11900	73
0.12267	77
0.12633	84
0.13000	94
0.13367	105
0.13733	114
0.14100	120
0.14467	120
0.14833	119
0.15200	118
0.15567	113
0.15933	102
0.16300	95
0.16667	93
0.17033	93
0.17400	96
0.17767	104
0.18133	109
0.18500	107
0.18867	103
0.19233	101
0.19600	98
0.19967	94
0.20333	88
0.20700	85
0.21067	86
0.21433	88
0.21800	86
0.22167	78
0.22533	68
0.22900	63
0.23267	66
0.23633	70
0.24000	73
0.24367	72
0.24733	67
0.25100	62
0.25467	55
0.25833	48
0.26200	47
0.26567	52
0.26933	58
0.27300	53
0.27667	44
0.28033	40
0.28400	41
0.28767	45
0.29133	48
0.29500	47
0.29867	47
0.30233	48
0.30600	48
0.30967	45
0.31333	40
0.31700	32
0.32067	29
0.32433	35
0.32800	38
0.33167	38
0.33533	37
0.33900	33
0.34267	26
0.34633	19
0.35000	13
0.35367	11
0.35733	11
0.36100	13
0.36467	16
0.36833	19
0.37200	21
0.37567	21
0.37933	22
0.38300	24
0.38667	27
0.39033	33
0.39400	40
0.39767	44
0.40133	41
0.40500	38
0.40867	36
0.41233	36
0.41600	37
0.41967	36
0.42333	32
0.42700	25
0.43067	19
0.43433	20
0.43800	24
0.44167	27
0.44533	31
0.44900	34
0.45267	38
0.45633	43
0.46000	43
0.46367	40
0.46733	38
0.47100	33
0.47467	26
0.47833	21
0.48200	18
0.48567	16
0.48933	16
0.49300	19
0.49667	24
0.50033	31
0.50400	38
0.50767	42
0.51133	45
0.51500	44
0.51867	40
0.52233	38
0.52600	38
0.52967	37
0.53333	34
0.53700	30
0.54067	28
0.54433	23
0.54800	18
0.55167	16
0.55533	16
0.55900	20
0.56267	26
0.56633	33
0.57000	38
0.57367	39
0.57733	42
0.58100	45
0.58467	45
0.58833	47
0.59200	49
0.59567	49
0.59933	42
0.60300	29
0.60667	21
0.61033	24
0.61400	31
0.61767	31
0.62133	24
0.62500	10
0.62867	-4
0.63233	-12
0.63600	-13
0.63967	-9
0.64333	-3
0.64700	-0
0.65067	-0
0.65433	-1
0.65800	-1
0.66167	1
0.66533	5
0.66900	8
0.67267	11
0.67633	11
0.68000	7
0.68367	2
0.68733	-6
0.69100	-9
0.69467	-4
0.69833	3
0.70200	10
0.70567	16
0.70933	20
0.71300	24
0.71667	25
0.72033	22
0.72400	20
0.72767	21
0.73133	20
0.73500	21
0.73867	29
0.74233	40
0.74600	46
0.74967	44
0.75333	38
0.75700	32
0.76067	27
0.76433	24
0.76800	21
0.77167	17
0.77533	16
0.77900	16
0.78267	18
0.78633	22
0.79000	30
0.79367	34
0.79733	31
0.80100	20
0.80467	13
0.80833	13
0.81200	16
0.81567	18
0.81933	25
0.82300	33
0.82667	40
0.83033	44
0.83400	47
0.83767	47
0.84133	46
0.84500	49
0.84867	54
0.85233	61
0.85600	63
0.85967	63
0.86333	63
0.86700	64
0.87067	66
0.87433	66
0.87800	63
0.88167	61
0.88533	58
0.88900	52
0.89267	48
0.89633	46
0.90000	43
0.90367	41
0.90733	43
0.91100	47
0.91467	54
0.91833	64
0.92200	69
0.92567	64
0.92933	54
0.93300	45
0.93667	37
0.94033	32
0.94400	31
0.94767	34
0.95133	38
0.95500	41
0.95867	40
0.96233	35
0.96600	32
0.96967	35
0.97333	39
0.97700	39
0.98067	37
0.98433	36
0.98800	42
0.99167	53
0.99533	61
0.99900	65
1.00267	64
1.00633	58
1.01000	52
1.01367	48
1.01733	46
1.02100	46
1.02467	47
1.02833	49
1.03200	51
1.03567	52
1.03933	53
1.04300	53
1.04667	53
1.05033	57
1.05400	63
1.05767	64
1.06133	60
1.06500	55
1.06867	51
1.07233	46
1.07600	42
1.07967	40
1.08333	42
1.08700	49
1.09067	59
1.09433	68
1.09800	76
1.10167	77
1.10533	73
1.10900	64
1.11267	61
1.11633	62
1.12000	64
1.12367	66
1.12733	68
1.13100	61
1.13467	47
1.13833	34
1.14200	28
1.14567	27
1.14933	32
1.15300	39
1.15667	46
1.16033	54
1.16400	59
1.16767	61
1.17133	62
1.17500	57
1.17867	52
1.18233	48
1.18600	42
1.18967	38
1.19333	39
1.19700	41
1.20067	43
1.20433	42
1.20800	39
1.21167	32
1.21533	30
1.21900	34
1.22267	39
1.22633	43
1.23000	47
1.23367	49
1.23733	49
1.24100	47
1.24467	49
1.24833	54
1.25200	53
1.25567	50
1.25933	43
1.26300	37
1.26667	35
1.27033	33
1.27400	32
1.27767	35
1.28133	37
1.28500	39
1.28867	39
1.29233	40
1.29600	42
1.29967	39
1.30333	38
1.30700	42
1.31067	49
1.31433	54
1.31800	52
1.32167	47
1.32533	43
1.32900	45
1.33267	50
1.33633	54
1.34000	58
1.34367	59
1.34733	58
1.35100	54
1.35467	51
1.35833	50
1.36200	46
1.36567	39
1.36933	33
1.37300	28
1.37667	24
1.38033	22
1.38400	24
1.38767	28
1.39133	29
1.39500	26
1.39867	23
1.40233	22
1.40600	26
1.40967	33
1.41333	39
1.41700	43
1.42067	45
1.42433	45
1.42800	47
1.43167	52
1.43533	58
1.43900	90
1.44267	206
1.44633	495
1.45000	1275
1.45367	3034
1.45733	5764
1.46100	8864
1.46467	11706
1.46833	13934
1.47200	15360
1.47567	15831
1.47933	15230
1.48300	13642
1.48667	11417
1.49033	9015
1.49400	6810
1.49767	4998
1.50133	3610
1.50500	2597
1.50867	1880
1.51233	1378
1.51600	1031
1.51967	797
1.52333	637
1.52700	521
1.53067	431
1.53433	366
1.53800	341
1.54167	398
1.54533	588
1.54900	920
1.55267	1326
1.55633	1722
1.56000	2047
1.56367	2268
1.56733	2351
1.57100	2270
1.57467	2031
1.57833	1688
1.58200	1316
1.58567	978
1.58933	708
1.59300	510
1.59667	373
1.60033	280
1.60400	218
1.60767	179
1.61133	157
1.61500	144
1.61867	130
1.62233	113
1.62600	102
1.62967	93
1.63333	87
1.63700	82
1.64067	81
1.64433	78
1.64800	74
1.65167	71
1.65533	71
1.65900	71
1.66267	66
1.66633	64
1.67000	66
1.67367	71
1.67733	79
1.68100	86
1.68467	92
1.68833	95
1.69200	92
1.69567	81
1.69933	68
1.70300	55
1.70667	43
1.71033	34
1.71400	29
1.71767	25
1.72133	23
1.72500	21
1.72867	19
1.73233	16
1.73600	16
1.73967	21
1.74333	27
1.74700	27
1.75067	27
1.75433	30
1.75800	32
1.76167	33
1.76533	32
1.76900	29
1.77267	27
1.77633	27
1.78000	28
1.78367	32
1.78733	39
1.79100	47
1.79467	51
1.79833	54
1.80200	54
1.80567	51
1.80933	48
1.81300	50
1.81667	53
1.82033	53
1.82400	47
1.82767	40
1.83133	40
1.83500	43
1.83867	46
1.84233	49
1.84600	54
1.84967	59
1.85333	61
1.85700	60
1.86067	58
1.86433	55
1.86800	54
1.87167	54
1.87533	51
1.87900	47
1.88267	43
1.88633	41
1.89000	39
1.89367	41
1.89733	44
1.90100	50
1.90467	59
1.90833	67
1.91200	69
1.91567	67
1.91933	64
1.92300	62
1.92667	60
1.93033	59
1.93400	58
1.93767	61
1.94133	68
1.94500	75
1.94867	83
1.95233	142
1.95600	560
1.95967	2898
1.96333	12834
1.96700	44877
1.97067	124126
1.97433	274596
1.97800	496570
1.98167	757916
1.98533	1010615
1.98900	1210803
1.99267	1329082
1.99633	1351703
2.00000	1281251
2.00367	1136647
2.00733	948126
2.01100	748510
2.01467	564302
2.01833	410643
2.02200	291689
2.02567	204441
2.02933	142802
2.03300	100320
2.03667	71468
2.04033	51988
2.04400	38818
2.04767	29850
2.05133	23665
2.05500	19325
2.05867	16213
2.06233	13923
2.06600	12190
2.06967	10838
2.07333	9758
2.07700	8883
2.08067	8159
2.08433	7548
2.08800	7023
2.09167	6566
2.09533	6163
2.09900	5803
2.10267	5486
2.10633	5206
2.11000	4954
2.11367	4725
2.11733	4514
2.12100	4322
2.12467	4147
2.12833	3981
2.13200	3819
2.13567	3661
2.13933	3514
2.14300	3386
2.14667	3272
2.15033	3162
2.15400	3059
2.15767	2965
2.16133	2878
2.16500	2791
2.16867	2705
2.17233	2623
2.17600	2546
2.17967	2473
2.18333	2405
2.18700	2342
2.19067	2284
2.19433	2232
2.19800	2177
2.20167	2119
2.20533	2066
2.20900	2017
2.21267	1976
2.21633	1941
2.22000	1899
2.22367	1854
2.22733	1814
2.23100	1781
2.23467	1755
2.23833	1725
2.24200	1686
2.24567	1649
2.24933	1616
2.25300	1583
2.25667	1552
2.26033	1525
2.26400	1499
2.26767	1476
2.27133	1452
2.27500	1427
2.27867	1405
2.28233	1383
2.28600	1359
2.28967	1335
2.29333	1315
2.29700	1298
2.30067	1278
2.30433	1257
2.30800	1235
2.31167	1212
2.31533	1193
2.31900	1181
2.32267	1177
2.32633	1173
2.33000	1161
2.33367	1142
2.33733	1117
2.34100	1093
2.34467	1074
2.34833	1061
2.35200	1052
2.35567	1041
2.35933	1026
2.36300	1014
2.36667	1005
2.37033	995
2.37400	989
2.37767	985
2.38133	982
2.38500	977
2.38867	967
2.39233	954
2.39600	942
2.39967	928
2.40333	915
2.40700	906
2.41067	903
2.41433	906
2.41800	903
2.42167	892
2.42533	878
2.42900	871
2.43267	864
2.43633	854
2.44000	839
2.44367	816
2.44733	793
2.45100	778
2.45467	768
2.45833	763
2.46200	760
2.46567	759
2.46933	752
2.47300	745
2.47667	740
2.48033	737
2.48400	732
2.48767	728
2.49133	727
2.49500	729
2.49867	731
2.50233	730
2.50600	728
2.50967	727
2.51333	722
2.51700	716
2.52067	712
2.52433	709
2.52800	705
2.53167	699
2.53533	688
2.53900	678
2.54267	673
2.54633	674
2.55000	672
2.55367	666
2.55733	661
2.56100	659
2.56467	658
2.56833	657
2.57200	650
2.57567	638
2.57933	627
2.58300	622
2.58667	623
2.59033	625
2.59400	625
2.59767	623
2.60133	625
2.60500	622
2.60867	612
2.61233	603
2.61600	598
2.61967	600
2.62333	603
2.62700	601
2.63067	598
2.63433	594
2.63800	589
2.64167	582
2.64533	574
2.64900	568
2.65267	567
2.65633	572
2.66000	578
2.66367	580
2.66733	577
2.67100	568
2.67467	560
2.67833	550
2.68200	546
2.68567	548
2.68933	553
2.69300	560
2.69667	565
2.70033	569
2.70400	569
2.70767	566
2.71133	562
2.71500	554
2.71867	545
2.72233	538
2.72600	533
2.72967	532
2.73333	535
2.73700	540
2.74067	541
2.74433	538
2.74800	531
2.75167	520
2.75533	509
2.75900	502
2.76267	498
2.76633	493
2.77000	494
2.77367	496
2.77733	494
2.78100	491
2.78467	489
2.78833	487
2.79200	489
2.79567	490
2.79933	492
2.80300	496
2.80667	497
2.81033	499
2.81400	502
2.81767	509
2.82133	516
2.82500	524
2.82867	526
2.83233	518
2.83600	507
2.83967	493
2.84333	478
2.84700	469
2.85067	464
2.85433	461
2.85800	461
2.86167	460
2.86533	460
2.86900	465
2.87267	470
2.87633	474
2.88000	475
2.88367	474
2.88733	471
2.89100	469
2.89467	469
2.89833	467
2.90200	467
2.90567	477
2.90933	482
2.91300	479
2.91667	472
2.92033	470
2.92400	470
2.92767	469
2.93133	471
2.93500	469
2.93867	463
2.94233	458
2.94600	455
2.94967	453
2.95333	451
2.95700	450
2.96067	450
2.96433	450
2.96800	448
2.97167	441
2.97533	430
2.97900	420
2.98267	415
2.98633	422
2.99000	433
2.99367	441
2.99733	442
3.00100	437
3.00467	430
3.00833	419
3.01200	413
3.01567	417
3.01933	423
3.02300	422
3.02667	415
3.03033	408
3.03400	403
3.03767	403
3.04133	404
3.04500	402
3.04867	403
3.05233	407
3.05600	408
3.05967	409
3.06333	410
3.06700	407
3.07067	402
3.07433	396
3.07800	395
3.08167	398
3.08533	398
3.08900	393
3.09267	387
3.09633	385
3.10000	387
3.10367	390
3.10733	390
3.11100	386
3.11467	382
3.11833	380
3.12200	381
3.12567	383
3.12933	387
3.13300	390
3.13667	390
3.14033	389
3.14400	388
3.14767	385
3.15133	380
3.15500	376
3.15867	374
3.16233	377
3.16600	386
3.16967	393
3.17333	399
3.17700	405
3.18067	407
3.18433	399
3.18800	386
3.19167	370
3.19533	351
3.19900	335
3.20267	329
3.20633	329
3.21000	331
3.21367	336
3.21733	338
3.22100	335
3.22467	334
3.22833	330
3.23200	322
3.23567	317
3.23933	316
3.24300	315
3.24667	317
3.25033	320
3.25400	318
3.25767	318
3.26133	322
3.26500	325
3.26867	328
3.27233	332
3.27600	336
3.27967	339
3.28333	341
3.28700	346
3.29067	348
3.29433	342
3.29800	333
3.30167	325
3.30533	315
3.30900	306
3.31267	303
3.31633	305
3.32000	309
3.32367	311
3.32733	311
3.33100	313
3.33467	316
3.33833	316
3.34200	315
3.34567	314
3.34933	314
3.35300	311
3.35667	307
3.36033	304
3.36400	305
3.36767	309
3.37133	314
3.37500	317
3.37867	318
3.38233	317
3.38600	314
3.38967	309
3.39333	300
3.39700	292
3.40067	285
3.40433	279
3.40800	275
3.41167	276
3.41533	281
3.41900	287
3.42267	293
3.42633	294
3.43000	293
3.43367	293
3.43733	289
3.44100	283
3.44467	283
3.44833	291
3.45200	298
3.45567	298
3.45933	291
3.46300	285
3.46667	286
3.47033	294
3.47400	298
3.47767	295
3.48133	288
3.48500	284
3.48867	279
3.49233	273
3.49600	266
3.49967	261
3.50333	264
3.50700	273
3.51067	280
3.51433	284
3.51800	280
3.52167	274
3.52533	265
3.52900	260
3.53267	256
3.53633	251
3.54000	250
3.54367	247
3.54733	246
3.55100	249
3.55467	251
3.55833	249
3.56200	246
3.56567	242
3.56933	241
3.57300	245
3.57667	250
3.58033	253
3.58400	253
3.58767	251
3.59133	248
3.59500	248
3.59867	252
3.60233	255
3.60600	255
3.60967	249
3.61333	239
3.61700	231
3.62067	225
3.62433	224
3.62800	226
3.63167	229
3.63533	232
3.63900	234
3.64267	234
3.64633	234
3.65000	238
3.65367	242
3.65733	241
3.66100	241
3.66467	238
3.66833	232
3.67200	225
3.67567	217
3.67933	207
3.68300	199
3.68667	194
3.69033	191
3.69400	191
3.69767	195
3.70133	201
3.70500	208
3.70867	215
3.71233	219
3.71600	222
3.71967	226
3.72333	229
3.72700	235
3.73067	243
3.73433	239
3.73800	229
3.74167	222
3.74533	217
3.74900	217
3.75267	215
3.75633	209
3.76000	207
3.76367	208
3.76733	209
3.77100	212
3.77467	218
3.77833	220
3.78200	217
3.78567	210
3.78933	206
3.79300	203
3.79667	200
3.80033	205
3.80400	214
3.80767	217
3.81133	211
3.81500	211
3.81867	212
3.82233	212
3.82600	208
3.82967	197
3.83333	189
3.83700	186
3.84067	183
3.84433	176
3.84800	175
3.85167	185
3.85533	188
3.85900	180
3.86267	176
3.86633	176
3.87000	176
3.87367	178
3.87733	179
3.88100	174
3.88467	170
3.88833	168
3.89200	172
3.89567	179
3.89933	182
3.90300	183
3.90667	182
3.91033	185
3.91400	194
3.91767	202
3.92133	201
3.92500	197
3.92867	190
3.93233	176
3.93600	163
3.93967	155
3.94333	153
3.94700	153
3.95067	154
3.95433	167
3.95800	178
3.96167	186
3.96533	198
3.96900	206
3.97267	205
3.97633	200
3.98000	194
3.98367	184
3.98733	173
3.99100	163
3.99467	159
3.99833	157

[Chromatogram (Ch2)]
Interval(msec)	220
# of Points	1091
Start Time(min)	0.002
End Time(min)	3.998
R.Time (min)	Intensity
0.00167	-1
0.00533	-1
0.00900	-1
0.01267	-1
0.01633	-1
0.02000	-0
0.02367	0
0.02733	1
0.03100	1
0.03467	2
0.03833	2
0.04200	2
0.04567	2
0.04933	2
0.05300	2
0.05667	3
0.06033	3
0.06400	3
0.06767	3
0.07133	3
0.07500	3
0.07867	3
0.08233	3
0.08600	3
0.08967	3
0.09333	3
0.09700	3
0.10067	4
0.10433	4
0.10800	4
0.11167	4
0.11533	5
0.11900	5
0.12267	5
0.12633	5
0.13000	4
0.13367	4
0.13733	3
0.14100	3
0.14467	3
0.14833	3
0.15200	2
0.15567	2
0.15933	2
0.16300	2
0.16667	2
0.17033	3
0.17400	3
0.17767	3
0.18133	3
0.18500	3
0.18867	3
0.19233	2
0.19600	2
0.19967	2
0.20333	2
0.20700	2
0.21067	2
0.21433	2
0.21800	1
0.22167	1
0.22533	1
0.22900	2
0.23267	2
0.23633	2
0.24000	2
0.24367	2
0.24733	2
0.25100	2
0.25467	2
0.25833	2
0.26200	3
0.26567	3
0.26933	3
0.27300	4
0.27667	4
0.28033	4
0.28400	4
0.28767	4
0.29133	4
0.29500	3
0.29867	3
0.30233	2
0.30600	1
0.30967	1
0.31333	0
0.31700	-0
0.32067	-0
0.32433	-0
0.32800	-1
0.33167	-1
0.33533	-1
0.33900	-1
0.34267	-2
0.34633	-2
0.35000	-2
0.35367	-2
0.35733	-1
0.36100	-1
0.36467	-1
0.36833	-1
0.37200	-0
0.37567	-0
0.37933	-0
0.38300	-0
0.38667	-0
0.39033	0
0.39400	0
0.39767	0
0.40133	0
0.40500	0
0.40867	-0
0.41233	-0
0.41600	-0
0.41967	-0
0.42333	0
0.42700	0
0.43067	0
0.43433	0
0.43800	1
0.44167	1
0.44533	1
0.44900	1
0.45267	1
0.45633	2
0.46000	2
0.46367	2
0.46733	2
0.47100	2
0.47467	2
0.47833	2
0.48200	2
0.48567	2
0.48933	1
0.49300	1
0.49667	1
0.50033	1
0.50400	1
0.50767	1
0.51133	1
0.51500	1
0.51867	1
0.52233	1
0.52600	1
0.52967	1
0.53333	0
0.53700	0
0.54067	-0
0.54433	-1
0.54800	-1
0.55167	-1
0.55533	-1
0.55900	-1
0.56267	-1
0.56633	-1
0.57000	-1
0.57367	-1
0.57733	-1
0.58100	-0
0.58467	-0
0.58833	0
0.59200	-0
0.59567	-0
0.59933	-0
0.60300	-1
0.60667	-1
0.61033	-1
0.61400	-0
0.61767	-0
0.62133	-0
0.62500	0
0.62867	0
0.63233	1
0.63600	1
0.63967	1
0.64333	2
0.64700	2
0.65067	2
0.65433	1
0.65800	1
0.66167	1
0.66533	1
0.66900	1
0.67267	1
0.67633	1
0.68000	1
0.68367	1
0.68733	1
0.69100	2
0.69467	2
0.69833	2
0.70200	2
0.70567	2
0.70933	2
0.71300	1
0.71667	1
0.72033	1
0.72400	1
0.72767	1
0.73133	0
0.73500	0
0.73867	0
0.74233	-0
0.74600	-0
0.74967	-1
0.75333	-1
0.75700	-1
0.76067	-1
0.76433	-1
0.76800	-1
0.77167	-1
0.77533	-1
0.77900	-2
0.78267	-2
0.78633	-2
0.79000	-2
0.79367	-1
0.79733	-1
0.80100	-1
0.80467	-1
0.80833	-1
0.81200	-0
0.81567	-0
0.81933	-1
0.82300	-1
0.82667	-1
0.83033	-1
0.83400	-1
0.83767	-1
0.84133	-1
0.84500	-1
0.84867	-1
0.85233	-1
0.85600	-1
0.85967	-1
0.86333	-1
0.86700	-1
0.87067	-1
0.87433	-0
0.87800	0
0.88167	0
0.88533	0
0.88900	0
0.89267	0
0.89633	1
0.90000	1
0.90367	1
0.90733	1
0.91100	1
0.91467	1
0.91833	1
0.92200	1
0.92567	1
0.92933	1
0.93300	1
0.93667	1
0.94033	0
0.94400	-0
0.94767	-0
0.95133	-1
0.95500	-1
0.95867	-1
0.96233	-1
0.96600	-2
0.96967	-2
0.97333	-2
0.97700	-2
0.98067	-2
0.98433	-1
0.98800	-1
0.99167	-1
0.99533	-1
0.99900	-1
1.00267	-1
1.00633	-1
1.01000	-1
1.01367	-1
1.01733	-1
1.02100	-1
1.02467	-1
1.02833	-1
1.03200	-0
1.03567	-0
1.03933	-0
1.04300	-0
1.04667	0
1.05033	0
1.05400	0
1.05767	0
1.06133	0
1.06500	0
1.06867	-0
1.07233	-0
1.07600	-0
1.07967	-1
1.08333	-1
1.08700	-1
1.09067	-2
1.09433	-2
1.09800	-2
1.10167	-2
1.10533	-2
1.10900	-1
1.11267	-1
1.11633	-1
1.12000	-1
1.12367	-1
1.12733	-0
1.13100	-0
1.13467	-0
1.13833	-0
1.14200	-1
1.14567	-1
1.14933	-1
1.15300	-1
1.15667	-1
1.16033	-1
1.16400	-1
1.16767	-1
1.17133	-1
1.17500	-1
1.17867	-1
1.18233	-1
1.18600	-1
1.18967	-1
1.19333	-1
1.19700	-1
1.20067	-1
1.20433	-1
1.20800	-2
1.21167	-2
1.21533	-2
1.21900	-2
1.22267	-2
1.22633	-2
1.23000	-2
1.23367	-2
1.23733	-2
1.24100	-2
1.24467	-2
1.24833	-2
1.25200	-2
1.25567	-2
1.25933	-2
1.26300	-2
1.26667	-1
1.27033	-1
1.27400	-1
1.27767	-1
1.28133	-1
1.28500	-1
1.28867	-1
1.29233	-1
1.29600	-1
1.29967	-1
1.30333	-1
1.30700	-1
1.31067	-1
1.31433	-1
1.31800	-0
1.32167	-0
1.32533	-0
1.32900	-0
1.33267	0
1.33633	0
1.34000	0
1.34367	0
1.34733	0
1.35100	0
1.35467	0
1.35833	0
1.36200	0
1.36567	0
1.36933	-0
1.37300	-0
1.37667	-0
1.38033	-0
1.38400	-0
1.38767	-0
1.39133	-0
1.39500	-1
1.39867	-1
1.40233	-0
1.40600	-0
1.40967	-0
1.41333	-0
1.41700	-0
1.42067	-0
1.42433	-1
1.42800	-1
1.43167	-2
1.43533	-2
1.43900	-2
1.44267	-3
1.44633	-3
1.45000	-3
1.45367	-3
1.45733	-3
1.46100	-3
1.46467	-3
1.46833	-2
1.47200	-2
1.47567	-2
1.47933	-2
1.48300	-2
1.48667	-2
1.49033	-2
1.49400	-2
1.49767	-2
1.50133	-1
1.50500	-1
1.50867	-1
1.51233	-1
1.51600	-2
1.51967	-2
1.52333	-2
1.52700	-2
1.53067	-2
1.53433	-2
1.53800	-3
1.54167	-3
1.54533	-3
1.54900	-3
1.55267	-3
1.55633	-3
1.56000	-3
1.56367	-3
1.56733	-4
1.57100	-3
1.57467	-3
1.57833	-3
1.58200	-3
1.58567	-3
1.58933	-3
1.59300	-3
1.59667	-4
1.60033	-5
1.60400	-6
1.60767	-7
1.61133	-9
1.61500	-11
1.61867	-13
1.62233	-16
1.62600	-18
1.62967	-21
1.63333	-24
1.63700	-27
1.64067	-31
1.64433	-34
1.64800	-38
1.65167	-41
1.65533	-45
1.65900	-48
1.66267	-52
1.66633	-56
1.67000	-60
1.67367	-65
1.67733	-70
1.68100	-75
1.68467	-80
1.68833	-85
1.69200	-89
1.69567	-93
1.69933	-95
1.70300	-98
1.70667	-99
1.71033	-101
1.71400	-102
1.71767	-103
1.72133	-104
1.72500	-105
1.72867	-106
1.73233	-107
1.73600	-108
1.73967	-109
1.74333	-109
1.74700	-110
1.75067	-110
1.75433	-110
1.75800	-109
1.76167	-109
1.76533	-108
1.76900	-108
1.77267	-107
1.77633	-107
1.78000	-106
1.78367	-106
1.78733	-106
1.79100	-106
1.79467	-107
1.79833	-108
1.80200	-109
1.80567	-110
1.80933	-112
1.81300	-113
1.81667	-114
1.82033	-115
1.82400	-115
1.82767	-115
1.83133	-115
1.83500	-116
1.83867	-116
1.84233	-116
1.84600	-117
1.84967	-117
1.85333	-116
1.85700	-116
1.86067	-115
1.86433	-114
1.86800	-113
1.87167	-113
1.87533	-113
1.87900	-113
1.88267	-113
1.88633	-112
1.89000	-113
1.89367	-113
1.89733	-113
1.90100	-112
1.90467	-112
1.90833	-112
1.91200	-111
1.91567	-111
1.91933	-111
1.92300	-111
1.92667	-111
1.93033	-110
1.93400	-110
1.93767	-109
1.94133	-108
1.94500	-107
1.94867	-107
1.95233	-106
1.95600	-106
1.95967	-105
1.96333	-105
1.96700	-105
1.97067	-106
1.97433	-106
1.97800	-107
1.98167	-108
1.98533	-108
1.98900	-109
1.99267	-109
1.99633	-109
2.00000	-109
2.00367	-108
2.00733	-108
2.01100	-107
2.01467	-107
2.01833	-106
2.02200	-106
2.02567	-106
2.02933	-106
2.03300	-106
2.03667	-105
2.04033	-105
2.04400	-104
2.04767	-104
2.05133	-104
2.05500	-104
2.05867	-104
2.06233	-104
2.06600	-104
2.06967	-104
2.07333	-104
2.07700	-104
2.08067	-104
2.08433	-103
2.08800	-102
2.09167	-101
2.09533	-100
2.09900	-99
2.10267	-98
2.10633	-97
2.11000	-96
2.11367	-96
2.11733	-96
2.12100	-96
2.12467	-96
2.12833	-97
2.13200	-97
2.13567	-97
2.13933	-97
2.14300	-96
2.14667	-95
2.15033	-95
2.15400	-94
2.15767	-93
2.16133	-92
2.16500	-92
2.16867	-92
2.17233	-92
2.17600	-92
2.17967	-93
2.18333	-93
2.18700	-92
2.19067	-92
2.19433	-92
2.19800	-92
2.20167	-92
2.20533	-92
2.20900	-93
2.21267	-92
2.21633	-91
2.22000	-90
2.22367	-89
2.22733	-89
2.23100	-88
2.23467	-87
2.23833	-86
2.24200	-85
2.24567	-85
2.24933	-85
2.25300	-85
2.25667	-85
2.26033	-85
2.26400	-85
2.26767	-85
2.27133	-84
2.27500	-83
2.27867	-83
2.28233	-82
2.28600	-82
2.28967	-82
2.29333	-82
2.29700	-83
2.30067	-83
2.30433	-83
2.30800	-83
2.31167	-83
2.31533	-82
2.31900	-81
2.32267	-81
2.32633	-79
2.33000	-78
2.33367	-77
2.33733	-77
2.34100	-77
2.34467	-77
2.34833	-77
2.35200	-76
2.35567	-75
2.35933	-74
2.36300	-73
2.36667	-72
2.37033	-70
2.37400	-67
2.37767	-64
2.38133	-60
2.38500	-56
2.38867	-52
2.39233	-48
2.39600	-43
2.39967	-39
2.40333	-34
2.40700	-30
2.41067	-26
2.41433	-22
2.41800	-19
2.42167	-16
2.42533	-14
2.42900	-12
2.43267	-11
2.43633	-11
2.44000	-11
2.44367	-10
2.44733	-10
2.45100	-9
2.45467	-8
2.45833	-7
2.46200	-6
2.46567	-5
2.46933	-4
2.47300	-3
2.47667	-2
2.48033	-1
2.48400	-0
2.48767	1
2.49133	3
2.49500	4
2.49867	5
2.50233	5
2.50600	6
2.50967	7
2.51333	8
2.51700	9
2.52067	10
2.52433	10
2.52800	11
2.53167	12
2.53533	12
2.53900	13
2.54267	14
2.54633	14
2.55000	15
2.55367	15
2.55733	14
2.56100	14
2.56467	14
2.56833	14
2.57200	14
2.57567	14
2.57933	15
2.58300	15
2.58667	15
2.59033	15
2.59400	14
2.59767	14
2.60133	14
2.60500	14
2.60867	15
2.61233	15
2.61600	15
2.61967	16
2.62333	16
2.62700	17
2.63067	17
2.63433	18
2.63800	18
2.64167	19
2.64533	19
2.64900	19
2.65267	19
2.65633	20
2.66000	20
2.66367	20
2.66733	20
2.67100	20
2.67467	20
2.67833	20
2.68200	20
2.68567	20
2.68933	20
2.69300	21
2.69667	21
2.70033	21
2.70400	22
2.70767	22
2.71133	22
2.71500	22
2.71867	23
2.72233	23
2.72600	23
2.72967	23
2.73333	24
2.73700	24
2.74067	24
2.74433	25
2.74800	25
2.75167	25
2.75533	25
2.75900	25
2.76267	25
2.76633	24
2.77000	24
2.77367	23
2.77733	23
2.78100	23
2.78467	23
2.78833	23
2.79200	24
2.79567	24
2.79933	25
2.80300	25
2.80667	25
2.81033	25
2.81400	26
2.81767	26
2.82133	26
2.82500	27
2.82867	27
2.83233	27
2.83600	27
2.83967	26
2.84333	24
2.84700	20
2.85067	14
2.85433	6
2.85800	-6
2.86167	-21
2.86533	-41
2.86900	-65
2.87267	-94
2.87633	-127
2.88000	-164
2.88367	-205
2.88733	-249
2.89100	-297
2.89467	-347
2.89833	-399
2.90200	-453
2.90567	-508
2.90933	-563
2.91300	-619
2.91667	-674
2.92033	-729
2.92400	-782
2.92767	-834
2.93133	-887
2.93500	-943
2.93867	-1002
2.94233	-1055
2.94600	-1091
2.94967	-1103
2.95333	-1088
2.95700	-1050
2.96067	-994
2.96433	-924
2.96800	-846
2.97167	-765
2.97533	-684
2.97900	-607
2.98267	-534
2.98633	-466
2.99000	-405
2.99367	-350
2.99733	-301
3.00100	-258
3.00467	-220
3.00833	-187
3.01200	-159
3.01567	-134
3.01933	-113
3.02300	-95
3.02667	-79
3.03033	-65
3.03400	-53
3.03767	-43
3.04133	-35
3.04500	-28
3.04867	-21
3.05233	-16
3.05600	-12
3.05967	-8
3.06333	-5
3.06700	-2
3.07067	1
3.07433	3
3.07800	4
3.08167	6
3.08533	7
3.08900	8
3.09267	10
3.09633	11
3.10000	12
3.10367	12
3.10733	13
3.11100	14
3.11467	14
3.11833	14
3.12200	15
3.12567	15
3.12933	15
3.13300	16
3.13667	16
3.14033	17
3.14400	17
3.14767	17
3.15133	18
3.15500	18
3.15867	18
3.16233	19
3.16600	19
3.16967	19
3.17333	19
3.17700	19
3.18067	19
3.18433	20
3.18800	20
3.19167	20
3.19533	20
3.19900	20
3.20267	20
3.20633	20
3.21000	21
3.21367	21
3.21733	21
3.22100	21
3.22467	21
3.22833	21
3.23200	21
3.23567	21
3.23933	21
3.24300	21
3.24667	21
3.25033	21
3.25400	21
3.25767	21
3.26133	22
3.26500	22
3.26867	22
3.27233	22
3.27600	22
3.27967	22
3.28333	22
3.28700	22
3.29067	22
3.29433	23
3.29800	23
3.30167	23
3.30533	23
3.30900	23
3.31267	23
3.31633	23
3.32000	23
3.32367	23
3.32733	23
3.33100	24
3.33467	24
3.33833	24
3.34200	24
3.34567	24
3.34933	24
3.35300	24
3.35667	24
3.36033	25
3.36400	25
3.36767	26
3.37133	26
3.37500	26
3.37867	27
3.38233	27
3.38600	27
3.38967	28
3.39333	28
3.39700	28
3.40067	29
3.40433	29
3.40800	29
3.41167	29
3.41533	29
3.41900	29
3.42267	29
3.42633	29
3.43000	29
3.43367	29
3.43733	29
3.44100	29
3.44467	29
3.44833	29
3.45200	28
3.45567	28
3.45933	28
3.46300	28
3.46667	27
3.47033	27
3.47400	27
3.47767	27
3.48133	27
3.48500	27
3.48867	28
3.49233	28
3.49600	28
3.49967	28
3.50333	28
3.50700	28
3.51067	28
3.51433	28
3.51800	28
3.52167	28
3.52533	28
3.52900	28
3.53267	28
3.53633	27
3.54000	27
3.54367	27
3.54733	26
3.55100	26
3.55467	26
3.55833	26
3.56200	26
3.56567	25
3.56933	25
3.57300	25
3.57667	25
3.58033	25
3.58400	25
3.58767	25
3.59133	25
3.59500	25
3.59867	25
3.60233	25
3.60600	26
3.60967	26
3.61333	26
3.61700	26
3.62067	26
3.62433	26
3.62800	26
3.63167	26
3.63533	26
3.63900	26
3.64267	26
3.64633	26
3.65000	26
3.65367	26
3.65733	26
3.66100	25
3.66467	25
3.66833	25
3.67200	25
3.67567	25
3.67933	25
3.68300	26
3.68667	26
3.69033	26
3.69400	26
3.69767	26
3.70133	26
3.70500	26
3.70867	26
3.71233	26
3.71600	26
3.71967	26
3.72333	25
3.72700	25
3.73067	25
3.73433	25
3.73800	24
3.74167	24
3.74533	24
3.74900	24
3.75267	25
3.75633	25
3.76000	25
3.76367	25
3.76733	25
3.77100	24
3.77467	24
3.77833	24
3.78200	24
3.78567	24
3.78933	24
3.79300	24
3.79667	25
3.80033	25
3.80400	25
3.80767	25
3.81133	26
3.81500	26
3.81867	26
3.82233	26
3.82600	26
3.82967	27
3.83333	27
3.83700	27
3.84067	27
3.84433	27
3.84800	26
3.85167	26
3.85533	26
3.85900	26
3.86267	26
3.86633	26
3.87000	26
3.87367	26
3.87733	26
3.88100	26
3.88467	26
3.88833	26
3.89200	25
3.89567	26
3.89933	26
3.90300	26
3.90667	26
3.91033	25
3.91400	25
3.91767	25
3.92133	25
3.92500	25
3.92867	25
3.93233	25
3.93600	25
3.93967	25
3.94333	25
3.94700	25
3.95067	24
3.95433	24
3.95800	24
3.96167	24
3.96533	25
3.96900	25
3.97267	25
3.97633	25
3.98000	25
3.98367	25
3.98733	26
3.99100	26
3.99467	26
3.99833	26

[Chromatogram (Ch3)]
Interval(msec)	220
# of Points	1091
Start Time(min)	0.002
End Time(min)	3.998
R.Time (min)	Intensity
0.00167	1
0.00533	1
0.00900	3
0.01267	5
0.01633	5
0.02000	5
0.02367	8
0.02733	9
0.03100	7
0.03467	5
0.03833	3
0.04200	0
0.04567	-1
0.04933	-0
0.05300	2
0.05667	3
0.06033	2
0.06400	2
0.06767	2
0.07133	2
0.07500	2
0.07867	1
0.08233	-1
0.08600	-2
0.08967	-3
0.09333	-1
0.09700	-1
0.10067	-0
0.10433	0
0.10800	1
0.11167	2
0.11533	2
0.11900	1
0.12267	-1
0.12633	-2
0.13000	-3
0.13367	-2
0.13733	0
0.14100	1
0.14467	3
0.14833	3
0.15200	4
0.15567	1
0.15933	-3
0.16300	-4
0.16667	-3
0.17033	-5
0.17400	-7
0.17767	-8
0.18133	-9
0.18500	-9
0.18867	-8
0.19233	-8
0.19600	-5
0.19967	-3
0.20333	-2
0.20700	-2
0.21067	-3
0.21433	-5
0.21800	-7
0.22167	-9
0.22533	-10
0.22900	-9
0.23267	-9
0.23633	-10
0.24000	-10
0.24367	-9
0.24733	-9
0.25100	-11
0.25467	-13
0.25833	-11
0.26200	-9
0.26567	-6
0.26933	-4
0.27300	-5
0.27667	-7
0.28033	-8
0.28400	-7
0.28767	-7
0.29133	-7
0.29500	-7
0.29867	-7
0.30233	-9
0.30600	-12
0.30967	-12
0.31333	-11
0.31700	-9
0.32067	-6
0.32433	-5
0.32800	-5
0.33167	-7
0.33533	-8
0.33900	-9
0.34267	-8
0.34633	-8
0.35000	-9
0.35367	-9
0.35733	-8
0.36100	-8
0.36467	-8
0.36833	-8
0.37200	-6
0.37567	-5
0.37933	-6
0.38300	-6
0.38667	-5
0.39033	-6
0.39400	-4
0.39767	-2
0.40133	-2
0.40500	-3
0.40867	-5
0.41233	-6
0.41600	-5
0.41967	-5
0.42333	-5
0.42700	-5
0.43067	-3
0.43433	-3
0.43800	-4
0.44167	-8
0.44533	-11
0.44900	-11
0.45267	-9
0.45633	-7
0.46000	-7
0.46367	-7
0.46733	-6
0.47100	-8
0.47467	-11
0.47833	-12
0.48200	-12
0.48567	-11
0.48933	-11
0.49300	-10
0.49667	-9
0.50033	-9
0.50400	-11
0.50767	-12
0.51133	-12
0.51500	-10
0.51867	-9
0.52233	-11
0.52600	-13
0.52967	-13
0.53333	-13
0.53700	-11
0.54067	-10
0.54433	-8
0.54800	-9
0.55167	-9
0.55533	-8
0.55900	-10
0.56267	-9
0.56633	-8
0.57000	-8
0.57367	-10
0.57733	-9
0.58100	-9
0.58467	-7
0.58833	-7
0.59200	-7
0.59567	-8
0.59933	-9
0.60300	-8
0.60667	-8
0.61033	-5
0.61400	-3
0.61767	-2
0.62133	-1
0.62500	-1
0.62867	-2
0.63233	-2
0.63600	-2
0.63967	-3
0.64333	-4
0.64700	-6
0.65067	-8
0.65433	-8
0.65800	-7
0.66167	-7
0.66533	-9
0.66900	-8
0.67267	-6
0.67633	-6
0.68000	-5
0.68367	-5
0.68733	-6
0.69100	-6
0.69467	-5
0.69833	-5
0.70200	-6
0.70567	-6
0.70933	-5
0.71300	-4
0.71667	-5
0.72033	-6
0.72400	-8
0.72767	-8
0.73133	-8
0.73500	-9
0.73867	-8
0.74233	-6
0.74600	-5
0.74967	-3
0.75333	-3
0.75700	-4
0.76067	-4
0.76433	-3
0.76800	-5
0.77167	-6
0.77533	-6
0.77900	-5
0.78267	-2
0.78633	-1
0.79000	1
0.79367	2
0.79733	2
0.80100	3
0.80467	2
0.80833	2
0.81200	2
0.81567	1
0.81933	-1
0.82300	-4
0.82667	-5
0.83033	-6
0.83400	-5
0.83767	-3
0.84133	-1
0.84500	-0
0.84867	1
0.85233	1
0.85600	0
0.85967	-0
0.86333	-1
0.86700	-1
0.87067	-1
0.87433	-0
0.87800	1
0.88167	-1
0.88533	-2
0.88900	-3
0.89267	-4
0.89633	-4
0.90000	-3
0.90367	-0
0.90733	1
0.91100	1
0.91467	2
0.91833	1
0.92200	0
0.92567	-2
0.92933	-2
0.93300	1
0.93667	3
0.94033	3
0.94400	1
0.94767	1
0.95133	1
0.95500	-0
0.95867	-1
0.96233	0
0.96600	-1
0.96967	-0
0.97333	2
0.97700	5
0.98067	7
0.98433	6
0.98800	4
0.99167	3
0.99533	3
0.99900	5
1.00267	4
1.00633	3
1.01000	3
1.01367	4
1.01733	4
1.02100	3
1.02467	4
1.02833	4
1.03200	5
1.03567	6
1.03933	6
1.04300	4
1.04667	5
1.05033	6
1.05400	8
1.05767	7
1.06133	7
1.06500	6
1.06867	3
1.07233	3
1.07600	4
1.07967	4
1.08333	5
1.08700	8
1.09067	9
1.09433	8
1.09800	11
1.10167	14
1.10533	15
1.10900	14
1.11267	15
1.11633	15
1.12000	14
1.12367	12
1.12733	9
1.13100	10
1.13467	10
1.13833	7
1.14200	6
1.14567	5
1.14933	6
1.15300	7
1.15667	8
1.16033	9
1.16400	10
1.16767	12
1.17133	11
1.17500	10
1.17867	10
1.18233	10
1.18600	10
1.18967	10
1.19333	10
1.19700	10
1.20067	10
1.20433	10
1.20800	12
1.21167	14
1.21533	13
1.21900	12
1.22267	11
1.22633	12
1.23000	13
1.23367	15
1.23733	17
1.24100	18
1.24467	19
1.24833	20
1.25200	21
1.25567	24
1.25933	25
1.26300	25
1.26667	25
1.27033	25
1.27400	25
1.27767	23
1.28133	24
1.28500	24
1.28867	23
1.29233	26
1.29600	28
1.29967	28
1.30333	25
1.30700	24
1.31067	23
1.31433	23
1.31800	25
1.32167	27
1.32533	28
1.32900	29
1.33267	29
1.33633	29
1.34000	25
1.34367	21
1.34733	21
1.35100	23
1.35467	26
1.35833	27
1.36200	27
1.36567	26
1.36933	25
1.37300	24
1.37667	23
1.38033	23
1.38400	23
1.38767	21
1.39133	20
1.39500	20
1.39867	21
1.40233	20
1.40600	18
1.40967	15
1.41333	15
1.41700	17
1.42067	20
1.42433	21
1.42800	21
1.43167	21
1.43533	21
1.43900	22
1.44267	20
1.44633	18
1.45000	17
1.45367	18
1.45733	20
1.46100	22
1.46467	22
1.46833	21
1.47200	20
1.47567	19
1.47933	21
1.48300	23
1.48667	23
1.49033	21
1.49400	19
1.49767	18
1.50133	18
1.50500	21
1.50867	22
1.51233	20
1.51600	20
1.51967	20
1.52333	21
1.52700	21
1.53067	22
1.53433	22
1.53800	23
1.54167	25
1.54533	25
1.54900	24
1.55267	23
1.55633	23
1.56000	24
1.56367	26
1.56733	27
1.57100	27
1.57467	27
1.57833	25
1.58200	23
1.58567	23
1.58933	23
1.59300	25
1.59667	26
1.60033	26
1.60400	26
1.60767	27
1.61133	28
1.61500	29
1.61867	30
1.62233	31
1.62600	33
1.62967	34
1.63333	33
1.63700	32
1.64067	31
1.64433	32
1.64800	33
1.65167	32
1.65533	33
1.65900	36
1.66267	38
1.66633	39
1.67000	40
1.67367	42
1.67733	42
1.68100	42
1.68467	42
1.68833	41
1.69200	40
1.69567	39
1.69933	38
1.70300	38
1.70667	35
1.71033	33
1.71400	33
1.71767	35
1.72133	36
1.72500	39
1.72867	40
1.73233	39
1.73600	39
1.73967	39
1.74333	39
1.74700	40
1.75067	39
1.75433	38
1.75800	37
1.76167	38
1.76533	39
1.76900	40
1.77267	43
1.77633	44
1.78000	44
1.78367	45
1.78733	43
1.79100	42
1.79467	41
1.79833	41
1.80200	42
1.80567	44
1.80933	44
1.81300	44
1.81667	42
1.82033	41
1.82400	40
1.82767	40
1.83133	43
1.83500	46
1.83867	46
1.84233	46
1.84600	45
1.84967	43
1.85333	42
1.85700	44
1.86067	49
1.86433	51
1.86800	51
1.87167	51
1.87533	51
1.87900	52
1.88267	52
1.88633	52
1.89000	53
1.89367	55
1.89733	56
1.90100	58
1.90467	58
1.90833	58
1.91200	58
1.91567	59
1.91933	60
1.92300	60
1.92667	60
1.93033	61
1.93400	61
1.93767	61
1.94133	63
1.94500	65
1.94867	66
1.95233	66
1.95600	67
1.95967	69
1.96333	68
1.96700	67
1.97067	69
1.97433	68
1.97800	68
1.98167	70
1.98533	70
1.98900	71
1.99267	73
1.99633	77
2.00000	78
2.00367	79
2.00733	80
2.01100	79
2.01467	78
2.01833	76
2.02200	77
2.02567	81
2.02933	84
2.03300	85
2.03667	85
2.04033	87
2.04400	91
2.04767	93
2.05133	94
2.05500	96
2.05867	99
2.06233	101
2.06600	102
2.06967	104
2.07333	104
2.07700	102
2.08067	104
2.08433	105
2.08800	106
2.09167	107
2.09533	109
2.09900	110
2.10267	111
2.10633	112
2.11000	114
2.11367	115
2.11733	114
2.12100	116
2.12467	119
2.12833	120
2.13200	121
2.13567	123
2.13933	125
2.14300	126
2.14667	127
2.15033	128
2.15400	130
2.15767	130
2.16133	130
2.16500	132
2.16867	134
2.17233	136
2.17600	139
2.17967	140
2.18333	141
2.18700	143
2.19067	142
2.19433	142
2.19800	144
2.20167	146
2.20533	149
2.20900	152
2.21267	153
2.21633	156
2.22000	155
2.22367	156
2.22733	156
2.23100	156
2.23467	159
2.23833	160
2.24200	162
2.24567	165
2.24933	171
2.25300	173
2.25667	173
2.26033	173
2.26400	173
2.26767	173
2.27133	174
2.27500	178
2.27867	182
2.28233	186
2.28600	186
2.28967	187
2.29333	191
2.29700	192
2.30067	191
2.30433	190
2.30800	192
2.31167	194
2.31533	197
2.31900	200
2.32267	202
2.32633	203
2.33000	204
2.33367	205
2.33733	206
2.34100	208
2.34467	210
2.34833	212
2.35200	215
2.35567	216
2.35933	217
2.36300	218
2.36667	221
2.37033	224
2.37400	226
2.37767	228
2.38133	230
2.38500	230
2.38867	229
2.39233	231
2.39600	233
2.39967	235
2.40333	239
2.40700	241
2.41067	244
2.41433	247
2.41800	252
2.42167	255
2.42533	256
2.42900	258
2.43267	261
2.43633	263
2.44000	270
2.44367	328
2.44733	473
2.45100	629
2.45467	757
2.45833	828
2.46200	828
2.46567	783
2.46933	723
2.47300	673
2.47667	642
2.48033	622
2.48400	594
2.48767	554
2.49133	507
2.49500	462
2.49867	425
2.50233	398
2.50600	378
2.50967	365
2.51333	364
2.51700	373
2.52067	389
2.52433	408
2.52800	424
2.53167	432
2.53533	431
2.53900	420
2.54267	399
2.54633	373
2.55000	346
2.55367	319
2.55733	295
2.56100	275
2.56467	259
2.56833	247
2.57200	240
2.57567	235
2.57933	231
2.58300	228
2.58667	227
2.59033	226
2.59400	225
2.59767	221
2.60133	216
2.60500	206
2.60867	194
2.61233	180
2.61600	164
2.61967	152
2.62333	142
2.62700	134
2.63067	129
2.63433	127
2.63800	125
2.64167	124
2.64533	122
2.64900	121
2.65267	119
2.65633	117
2.66000	114
2.66367	108
2.66733	103
2.67100	97
2.67467	92
2.67833	86
2.68200	78
2.68567	74
2.68933	69
2.69300	64
2.69667	61
2.70033	59
2.70400	59
2.70767	59
2.71133	61
2.71500	61
2.71867	62
2.72233	63
2.72600	65
2.72967	68
2.73333	70
2.73700	73
2.74067	75
2.74433	78
2.74800	81
2.75167	83
2.75533	86
2.75900	89
2.76267	93
2.76633	96
2.77000	96
2.77367	98
2.77733	101
2.78100	103
2.78467	103
2.78833	105
2.79200	108
2.79567	110
2.79933	112
2.80300	114
2.80667	117
2.81033	120
2.81400	124
2.81767	131
2.82133	145
2.82500	175
2.82867	237
2.83233	350
2.83600	538
2.83967	819
2.84333	1206
2.84700	1697
2.85067	2272
2.85433	2899
2.85800	3524
2.86167	4096
2.86533	4571
2.86900	4914
2.87267	5109
2.87633	5154
2.88000	5064
2.88367	4865
2.88733	4587
2.89100	4257
2.89467	3900
2.89833	3536
2.90200	3180
2.90567	2841
2.90933	2525
2.91300	2241
2.91667	1985
2.92033	1755
2.92400	1549
2.92767	1367
2.93133	1209
2.93500	1070
2.93867	947
2.94233	840
2.94600	744
2.94967	661
2.95333	590
2.95700	529
2.96067	477
2.96433	432
2.96800	392
2.97167	357
2.97533	326
2.97900	298
2.98267	274
2.98633	244
2.99000	194
2.99367	128
2.99733	82
3.00100	68
3.00467	78
3.00833	105
3.01200	143
3.01567	184
3.01933	230
3.02300	278
3.02667	324
3.03033	366
3.03400	403
3.03767	434
3.04133	460
3.04500	481
3.04867	497
3.05233	513
3.05600	528
3.05967	539
3.06333	547
3.06700	552
3.07067	559
3.07433	564
3.07800	567
3.08167	568
3.08533	572
3.08900	575
3.09267	577
3.09633	579
3.10000	579
3.10367	581
3.10733	585
3.11100	587
3.11467	587
3.11833	588
3.12200	590
3.12567	591
3.12933	591
3.13300	593
3.13667	595
3.14033	595
3.14400	596
3.14767	598
3.15133	600
3.15500	603
3.15867	605
3.16233	605
3.16600	607
3.16967	609
3.17333	613
3.17700	615
3.18067	618
3.18433	620
3.18800	624
3.19167	625
3.19533	627
3.19900	632
3.20267	638
3.20633	644
3.21000	648
3.21367	652
3.21733	658
3.22100	660
3.22467	661
3.22833	663
3.23200	668
3.23567	674
3.23933	681
3.24300	687
3.24667	688
3.25033	691
3.25400	695
3.25767	701
3.26133	705
3.26500	709
3.26867	712
3.27233	714
3.27600	714
3.27967	715
3.28333	717
3.28700	719
3.29067	722
3.29433	724
3.29800	723
3.30167	722
3.30533	723
3.30900	722
3.31267	720
3.31633	719
3.32000	717
3.32367	714
3.32733	711
3.33100	707
3.33467	702
3.33833	700
3.34200	701
3.34567	701
3.34933	701
3.35300	699
3.35667	694
3.36033	692
3.36400	690
3.36767	688
3.37133	683
3.37500	677
3.37867	674
3.38233	673
3.38600	671
3.38967	669
3.39333	666
3.39700	662
3.40067	660
3.40433	657
3.40800	656
3.41167	653
3.41533	651
3.41900	650
3.42267	646
3.42633	643
3.43000	640
3.43367	640
3.43733	640
3.44100	640
3.44467	639
3.44833	638
3.45200	637
3.45567	634
3.45933	631
3.46300	629
3.46667	628
3.47033	627
3.47400	627
3.47767	626
3.48133	625
3.48500	625
3.48867	626
3.49233	625
3.49600	626
3.49967	625
3.50333	624
3.50700	624
3.51067	624
3.51433	624
3.51800	622
3.52167	620
3.52533	619
3.52900	619
3.53267	619
3.53633	620
3.54000	620
3.54367	619
3.54733	616
3.55100	614
3.55467	614
3.55833	613
3.56200	613
3.56567	613
3.56933	613
3.57300	614
3.57667	616
3.58033	618
3.58400	618
3.58767	617
3.59133	616
3.59500	615
3.59867	616
3.60233	616
3.60600	615
3.60967	616
3.61333	616
3.61700	615
3.62067	614
3.62433	613
3.62800	612
3.63167	613
3.63533	616
3.63900	618
3.64267	617
3.64633	614
3.65000	612
3.65367	611
3.65733	613
3.66100	612
3.66467	610
3.66833	609
3.67200	607
3.67567	608
3.67933	608
3.68300	606
3.68667	604
3.69033	602
3.69400	602
3.69767	603
3.70133	603
3.70500	602
3.70867	601
3.71233	598
3.71600	596
3.71967	596
3.72333	596
3.72700	595
3.73067	592
3.73433	590
3.73800	592
3.74167	593
3.74533	593
3.74900	593
3.75267	591
3.75633	589
3.76000	588
3.76367	585
3.76733	582
3.77100	580
3.77467	577
3.77833	575
3.78200	576
3.78567	577
3.78933	578
3.79300	579
3.79667	578
3.80033	576
3.80400	576
3.80767	576
3.81133	576
3.81500	575
3.81867	572
3.82233	571
3.82600	572
3.82967	572
3.83333	571
3.83700	568
3.84067	564
3.84433	561
3.84800	560
3.85167	556
3.85533	554
3.85900	553
3.86267	553
3.86633	552
3.87000	550
3.87367	548
3.87733	548
3.88100	548
3.88467	548
3.88833	545
3.89200	543
3.89567	541
3.89933	537
3.90300	533
3.90667	531
3.91033	531
3.91400	532
3.91767	532
3.92133	532
3.92500	532
3.92867	529
3.93233	523
3.93600	520
3.93967	520
3.94333	520
3.94700	518
3.95067	516
3.95433	514
3.95800	515
3.96167	514
3.96533	513
3.96900	512
3.97267	514
3.97633	513
3.98000	512
3.98367	512
3.98733	511
3.99100	508
3.99467	503
3.99833	499

[Status Trace (Column Oven Temperature)]
Interval(msec)	1000
# of Points	239
Start Time(min)	0.014
End Time(min)	3.981
Intensity Units	
Intensity Multiplier	1
R.Time (min)	Intensity
0.01395	35.07
0.03062	35.06
0.04728	35.05
0.06395	35.05
0.08062	35.04
0.09728	35.03
0.11395	35.03
0.13062	35.03
0.14728	35.03
0.16395	35.03
0.18062	35.03
0.19728	35.03
0.21395	35.03
0.23062	35.03
0.24728	35.02
0.26395	35.02
0.28062	35.01
0.29728	35.01
0.31395	35.03
0.33062	35.03
0.34728	35.04
0.36395	35.04
0.38062	35.04
0.39728	35.04
0.41395	35.05
0.43062	35.04
0.44728	35.03
0.46395	35.03
0.48062	35.02
0.49728	35.02
0.51395	35.02
0.53062	35.03
0.54728	35.02
0.56395	35.02
0.58062	35.01
0.59728	35.02
0.61395	35.02
0.63062	35.01
0.64728	35.00
0.66395	35.00
0.68062	34.99
0.69728	34.98
0.71395	34.98
0.73062	34.99
0.74728	34.99
0.76395	35.00
0.78062	35.00
0.79728	35.00
0.81395	35.01
0.83062	35.02
0.84728	35.01
0.86395	35.00
0.88062	34.99
0.89728	34.99
0.91395	35.00
0.93062	34.99
0.94728	35.00
0.96395	35.00
0.98062	35.00
0.99728	35.00
1.01395	34.99
1.03062	34.99
1.04728	34.99
1.06395	34.99
1.08062	34.99
1.09728	34.99
1.11395	34.99
1.13062	34.99
1.14728	34.99
1.16395	34.99
1.18062	34.99
1.19728	34.99
1.21395	35.00
1.23062	35.00
1.24728	35.00
1.26395	35.00
1.28062	34.99
1.29728	35.00
1.31395	34.99
1.33062	34.99
1.34728	34.98
1.36395	34.97
1.38062	34.97
1.39728	34.97
1.41395	34.97
1.43062	34.97
1.44728	34.98
1.46395	34.99
1.48062	34.99
1.49728	34.98
1.51395	34.99
1.53062	34.99
1.54728	35.00
1.56395	34.99
1.58062	35.00
1.59728	35.03
1.61395	35.11
1.63062	35.26
1.64728	35.47
1.66395	35.74
1.68062	36.11
1.69728	36.47
1.71395	36.82
1.73062	37.17
1.74728	37.50
1.76395	37.81
1.78062	38.11
1.79728	38.45
1.81395	38.79
1.83062	39.13
1.84728	39.47
1.86395	39.79
1.88062	40.11
1.89728	40.44
1.91395	40.77
1.93062	41.09
1.94728	41.39
1.96395	41.71
1.98062	42.06
1.99728	42.39
2.01395	42.72
2.03062	43.06
2.04728	43.37
2.06395	43.71
2.08062	44.05
2.09728	44.37
2.11395	44.70
2.13062	45.04
2.14728	45.35
2.16395	45.67
2.18062	46.00
2.19728	46.34
2.21395	46.67
2.23062	46.98
2.24728	47.31
2.26395	47.64
2.28062	47.97
2.29728	48.31
2.31395	48.64
2.33062	48.95
2.34728	49.27
2.36395	49.53
2.38062	49.66
2.39728	49.67
2.41395	49.66
2.43062	49.68
2.44728	49.69
2.46395	49.71
2.48062	49.71
2.49728	49.74
2.51395	49.74
2.53062	49.75
2.54728	49.77
2.56395	49.79
2.58062	49.80
2.59728	49.83
2.61395	49.84
2.63062	49.83
2.64728	49.83
2.66395	49.84
2.68062	49.85
2.69728	49.84
2.71395	49.85
2.73062	49.85
2.74728	49.84
2.76395	49.88
2.78062	49.89
2.79728	49.88
2.81395	49.87
2.83062	49.87
2.84728	49.86
2.86395	49.87
2.88062	49.89
2.89728	49.90
2.91395	49.92
2.93062	49.94
2.94728	49.96
2.96395	49.97
2.98062	49.97
2.99728	49.99
3.01395	49.99
3.03062	49.99
3.04728	50.00
3.06395	49.99
3.08062	50.01
3.09728	50.01
3.11395	50.02
3.13062	50.03
3.14728	50.04
3.16395	50.05
3.18062	50.06
3.19728	50.07
3.21395	50.07
3.23062	50.07
3.24728	50.08
3.26395	50.09
3.28062	50.10
3.29728	50.10
3.31395	50.10
3.33062	50.11
3.34728	50.11
3.36395	50.10
3.38062	50.08
3.39728	50.06
3.41395	50.04
3.43062	50.02
3.44728	50.01
3.46395	50.00
3.48062	50.00
3.49728	49.99
3.51395	49.98
3.53062	49.98
3.54728	49.98
3.56395	49.99
3.58062	50.00
3.59728	50.01
3.61395	50.01
3.63062	50.01
3.64728	50.01
3.66395	50.01
3.68062	50.02
3.69728	50.01
3.71395	50.02
3.73062	50.03
3.74728	50.04
3.76395	50.05
3.78062	50.07
3.79728	50.06
3.81395	50.06
3.83062	50.05
3.84728	50.05
3.86395	50.04
3.88062	50.04
3.89728	50.04
3.91395	50.04
3.93062	50.05
3.94728	50.05
3.96395	50.06
3.98062	50.06

[Status Trace (Injection Unit Temperature)]
Interval(msec)	1000
# of Points	239
Start Time(min)	0.014
End Time(min)	3.981
Intensity Units	
Intensity Multiplier	1
R.Time (min)	Intensity
0.01395	99.98
0.03062	99.98
0.04728	99.98
0.06395	99.98
0.08062	99.98
0.09728	99.98
0.11395	99.98
0.13062	99.98
0.14728	99.98
0.16395	99.98
0.18062	99.98
0.19728	99.98
0.21395	99.98
0.23062	99.98
0.24728	99.98
0.26395	99.98
0.28062	99.98
0.29728	99.98
0.31395	99.98
0.33062	99.98
0.34728	99.99
0.36395	99.99
0.38062	99.99
0.39728	99.98
0.41395	99.99
0.43062	99.99
0.44728	99.98
0.46395	99.98
0.48062	99.98
0.49728	99.98
0.51395	99.98
0.53062	99.98
0.54728	99.98
0.56395	99.98
0.58062	99.98
0.59728	99.99
0.61395	99.98
0.63062	99.99
0.64728	99.98
0.66395	99.99
0.68062	99.98
0.69728	99.98
0.71395	99.98
0.73062	99.99
0.74728	99.98
0.76395	99.99
0.78062	99.98
0.79728	99.98
0.81395	99.98
0.83062	99.98
0.84728	99.99
0.86395	99.98
0.88062	99.98
0.89728	99.98
0.91395	99.98
0.93062	99.98
0.94728	99.98
0.96395	99.98
0.98062	99.98
0.99728	99.98
1.01395	99.99
1.03062	99.98
1.04728	99.98
1.06395	99.98
1.08062	99.99
1.09728	99.98
1.11395	99.98
1.13062	99.99
1.14728	99.98
1.16395	99.98
1.18062	99.98
1.19728	99.98
1.21395	99.99
1.23062	99.98
1.24728	99.99
1.26395	99.99
1.28062	99.98
1.29728	99.98
1.31395	99.98
1.33062	99.98
1.34728	99.98
1.36395	99.98
1.38062	99.98
1.39728	99.98
1.41395	99.98
1.43062	99.98
1.44728	99.98
1.46395	99.99
1.48062	99.99
1.49728	99.98
1.51395	99.99
1.53062	99.98
1.54728	99.99
1.56395	99.98
1.58062	99.99
1.59728	99.98
1.61395	99.98
1.63062	99.98
1.64728	99.98
1.66395	99.98
1.68062	99.99
1.69728	99.99
1.71395	99.98
1.73062	99.98
1.74728	99.98
1.76395	99.98
1.78062	99.98
1.79728	99.98
1.81395	99.98
1.83062	99.98
1.84728	99.98
1.86395	99.98
1.88062	99.98
1.89728	99.98
1.91395	99.98
1.93062	99.98
1.94728	99.97
1.96395	99.97
1.98062	99.98
1.99728	99.98
2.01395	99.97
2.03062	99.98
2.04728	99.97
2.06395	99.97
2.08062	99.98
2.09728	99.97
2.11395	99.97
2.13062	99.97
2.14728	99.97
2.16395	99.97
2.18062	99.97
2.19728	99.97
2.21395	99.96
2.23062	99.97
2.24728	99.97
2.26395	99.97
2.28062	99.97
2.29728	99.97
2.31395	99.97
2.33062	99.97
2.34728	99.97
2.36395	99.97
2.38062	99.97
2.39728	99.97
2.41395	99.97
2.43062	99.97
2.44728	99.97
2.46395	99.97
2.48062	99.98
2.49728	99.97
2.51395	99.98
2.53062	99.98
2.54728	99.98
2.56395	99.98
2.58062	99.98
2.59728	99.98
2.61395	99.98
2.63062	99.98
2.64728	99.98
2.66395	99.98
2.68062	99.99
2.69728	99.99
2.71395	99.99
2.73062	99.99
2.74728	99.99
2.76395	99.99
2.78062	99.99
2.79728	100.00
2.81395	100.00
2.83062	100.00
2.84728	100.00
2.86395	100.00
2.88062	100.01
2.89728	100.00
2.91395	100.01
2.93062	100.01
2.94728	100.01
2.96395	100.01
2.98062	100.01
2.99728	100.01
3.01395	100.02
3.03062	100.01
3.04728	100.02
3.06395	100.02
3.08062	100.02
3.09728	100.02
3.11395	100.02
3.13062	100.02
3.14728	100.02
3.16395	100.03
3.18062	100.03
3.19728	100.03
3.21395	100.02
3.23062	100.03
3.24728	100.03
3.26395	100.03
3.28062	100.03
3.29728	100.03
3.31395	100.03
3.33062	100.03
3.34728	100.03
3.36395	100.03
3.38062	100.03
3.39728	100.04
3.41395	100.03
3.43062	100.04
3.44728	100.04
3.46395	100.04
3.48062	100.04
3.49728	100.04
3.51395	100.04
3.53062	100.04
3.54728	100.04
3.56395	100.04
3.58062	100.04
3.59728	100.04
3.61395	100.04
3.63062	100.04
3.64728	100.04
3.66395	100.04
3.68062	100.04
3.69728	100.05
3.71395	100.04
3.73062	100.04
3.74728	100.04
3.76395	100.04
3.78062	100.04
3.79728	100.04
3.81395	100.04
3.83062	100.04
3.84728	100.04
3.86395	100.04
3.88062	100.04
3.89728	100.04
3.91395	100.04
3.93062	100.04
3.94728	100.04
3.96395	100.04
3.98062	100.04

[Status Trace (Carrier Gas Pressure)]
Interval(msec)	1000
# of Points	239
Start Time(min)	0.014
End Time(min)	3.981
Intensity Units	
Intensity Multiplier	1
R.Time (min)	Intensity
0.01395	57.55
0.03062	55.53
0.04728	57.89
0.06395	59.83
0.08062	58.66
0.09728	57.98
0.11395	58.00
0.13062	58.01
0.14728	58.01
0.16395	58.00
0.18062	58.00
0.19728	58.00
0.21395	58.00
0.23062	58.00
0.24728	58.00
0.26395	58.00
0.28062	58.00
0.29728	58.00
0.31395	58.00
0.33062	58.00
0.34728	58.00
0.36395	58.00
0.38062	58.00
0.39728	58.00
0.41395	58.00
0.43062	58.00
0.44728	58.00
0.46395	58.00
0.48062	58.00
0.49728	58.00
0.51395	58.00
0.53062	58.00
0.54728	58.00
0.56395	58.00
0.58062	58.00
0.59728	58.00
0.61395	58.00
0.63062	58.00
0.64728	58.00
0.66395	58.00
0.68062	58.00
0.69728	58.00
0.71395	58.00
0.73062	58.00
0.74728	58.00
0.76395	58.00
0.78062	58.00
0.79728	58.00
0.81395	58.00
0.83062	58.00
0.84728	58.00
0.86395	58.00
0.88062	58.00
0.89728	58.00
0.91395	58.00
0.93062	58.00
0.94728	58.00
0.96395	58.00
0.98062	58.00
0.99728	58.00
1.01395	58.00
1.03062	58.00
1.04728	58.00
1.06395	58.00
1.08062	58.00
1.09728	58.00
1.11395	58.00
1.13062	58.00
1.14728	58.00
1.16395	58.00
1.18062	58.00
1.19728	58.00
1.21395	58.00
1.23062	58.00
1.24728	58.00
1.26395	58.00
1.28062	58.00
1.29728	58.00
1.31395	58.00
1.33062	58.00
1.34728	58.00
1.36395	58.00
1.38062	58.00
1.39728	58.00
1.41395	58.00
1.43062	58.00
1.44728	58.00
1.46395	58.00
1.48062	58.00
1.49728	58.00
1.51395	58.00
1.53062	58.00
1.54728	58.00
1.56395	58.00
1.58062	58.00
1.59728	58.00
1.61395	58.00
1.63062	58.00
1.64728	58.00
1.66395	58.00
1.68062	58.01
1.69728	58.00
1.71395	58.00
1.73062	58.00
1.74728	58.00
1.76395	58.00
1.78062	58.00
1.79728	58.00
1.81395	58.00
1.83062	58.00
1.84728	58.00
1.86395	58.00
1.88062	58.00
1.89728	58.00
1.91395	58.00
1.93062	58.00
1.94728	58.00
1.96395	58.00
1.98062	58.00
1.99728	58.00
2.01395	58.00
2.03062	58.00
2.04728	58.00
2.06395	58.00
2.08062	58.00
2.09728	58.00
2.11395	58.00
2.13062	58.00
2.14728	58.00
2.16395	58.00
2.18062	58.00
2.19728	58.00
2.21395	58.00
2.23062	58.00
2.24728	58.00
2.26395	58.00
2.28062	58.00
2.29728	58.00
2.31395	58.00
2.33062	58.00
2.34728	58.00
2.36395	58.00
2.38062	57.99
2.39728	57.99
2.41395	57.99
2.43062	58.00
2.44728	58.00
2.46395	58.00
2.48062	58.00
2.49728	58.00
2.51395	57.99
2.53062	57.99
2.54728	58.00
2.56395	58.00
2.58062	58.00
2.59728	58.00
2.61395	58.00
2.63062	58.00
2.64728	58.00
2.66395	58.00
2.68062	58.00
2.69728	58.00
2.71395	58.00
2.73062	58.00
2.74728	58.00
2.76395	58.00
2.78062	58.00
2.79728	58.00
2.81395	58.00
2.83062	58.00
2.84728	58.00
2.86395	58.00
2.88062	58.00
2.89728	58.00
2.91395	58.00
2.93062	58.00
2.94728	58.00
2.96395	58.00
2.98062	58.00
2.99728	58.00
3.01395	58.00
3.03062	58.00
3.04728	58.00
3.06395	58.00
3.08062	58.00
3.09728	58.00
3.11395	58.00
3.13062	58.00
3.14728	58.00
3.16395	58.00
3.18062	58.00
3.19728	58.00
3.21395	58.00
3.23062	58.00
3.24728	58.00
3.26395	58.00
3.28062	58.00
3.29728	58.00
3.31395	58.00
3.33062	58.00
3.34728	58.00
3.36395	58.00
3.38062	58.00
3.39728	58.00
3.41395	58.00
3.43062	58.00
3.44728	58.00
3.46395	58.00
3.48062	58.00
3.49728	58.00
3.51395	58.00
3.53062	58.00
3.54728	58.00
3.56395	58.00
3.58062	58.00
3.59728	58.00
3.61395	58.00
3.63062	58.00
3.64728	58.00
3.66395	58.00
3.68062	58.00
3.69728	58.00
3.71395	58.00
3.73062	58.00
3.74728	58.00
3.76395	58.00
3.78062	58.00
3.79728	58.00
3.81395	58.00
3.83062	58.00
3.84728	58.00
3.86395	58.00
3.88062	58.00
3.89728	58.00
3.91395	58.00
3.93062	58.00
3.94728	58.00
3.96395	58.00
3.98062	58.00

[Status Trace (Carrier Gas Flow)]
Interval(msec)	1000
# of Points	239
Start Time(min)	0.014
End Time(min)	3.981
Intensity Units	
Intensity Multiplier	1
R.Time (min)	Intensity
0.01395	34.13
0.03062	34.54
0.04728	34.55
0.06395	34.51
0.08062	34.51
0.09728	34.52
0.11395	34.52
0.13062	34.52
0.14728	34.52
0.16395	34.52
0.18062	34.52
0.19728	34.52
0.21395	34.52
0.23062	34.52
0.24728	34.52
0.26395	34.52
0.28062	34.52
0.29728	34.52
0.31395	34.52
0.33062	34.52
0.34728	34.52
0.36395	34.52
0.38062	34.52
0.39728	34.52
0.41395	34.51
0.43062	34.52
0.44728	34.52
0.46395	34.52
0.48062	34.51
0.49728	34.52
0.51395	34.52
0.53062	34.51
0.54728	34.52
0.56395	34.52
0.58062	34.52
0.59728	34.52
0.61395	34.52
0.63062	34.51
0.64728	34.52
0.66395	34.52
0.68062	34.52
0.69728	34.52
0.71395	34.52
0.73062	34.52
0.74728	34.51
0.76395	34.52
0.78062	34.52
0.79728	34.52
0.81395	34.52
0.83062	34.52
0.84728	34.52
0.86395	34.52
0.88062	34.52
0.89728	34.52
0.91395	34.52
0.93062	34.52
0.94728	34.52
0.96395	34.52
0.98062	34.52
0.99728	34.51
1.01395	34.52
1.03062	34.52
1.04728	34.52
1.06395	34.52
1.08062	34.52
1.09728	34.52
1.11395	34.52
1.13062	34.52
1.14728	34.53
1.16395	34.51
1.18062	34.52
1.19728	34.51
1.21395	34.52
1.23062	34.52
1.24728	34.52
1.26395	34.52
1.28062	34.52
1.29728	34.52
1.31395	34.52
1.33062	34.52
1.34728	34.52
1.36395	34.52
1.38062	34.52
1.39728	34.52
1.41395	34.52
1.43062	34.52
1.44728	34.52
1.46395	34.52
1.48062	34.52
1.49728	34.52
1.51395	34.52
1.53062	34.52
1.54728	34.52
1.56395	34.52
1.58062	34.52
1.59728	34.52
1.61395	34.52
1.63062	34.52
1.64728	34.52
1.66395	34.52
1.68062	34.52
1.69728	34.52
1.71395	34.52
1.73062	34.52
1.74728	34.52
1.76395	34.52
1.78062	34.52
1.79728	34.52
1.81395	34.52
1.83062	34.52
1.84728	34.51
1.86395	34.52
1.88062	34.52
1.89728	34.51
1.91395	34.52
1.93062	34.52
1.94728	34.52
1.96395	34.52
1.98062	34.52
1.99728	34.52
2.01395	34.52
2.03062	34.52
2.04728	34.52
2.06395	34.52
2.08062	34.52
2.09728	34.52
2.11395	34.52
2.13062	34.52
2.14728	34.52
2.16395	34.52
2.18062	34.52
2.19728	34.52
2.21395	34.51
2.23062	34.52
2.24728	34.52
2.26395	34.52
2.28062	34.52
2.29728	34.51
2.31395	34.52
2.33062	34.52
2.34728	34.52
2.36395	34.52
2.38062	34.51
2.39728	34.52
2.41395	34.52
2.43062	34.52
2.44728	34.52
2.46395	34.52
2.48062	34.52
2.49728	34.53
2.51395	34.52
2.53062	34.52
2.54728	34.51
2.56395	34.52
2.58062	34.51
2.59728	34.52
2.61395	34.52
2.63062	34.51
2.64728	34.52
2.66395	34.52
2.68062	34.52
2.69728	34.52
2.71395	34.52
2.73062	34.52
2.74728	34.52
2.76395	34.52
2.78062	34.52
2.79728	34.52
2.81395	34.51
2.83062	34.52
2.84728	34.52
2.86395	34.52
2.88062	34.52
2.89728	34.52
2.91395	34.52
2.93062	34.52
2.94728	34.51
2.96395	34.52
2.98062	34.52
2.99728	34.52
3.01395	34.52
3.03062	34.52
3.04728	34.52
3.06395	34.51
3.08062	34.52
3.09728	34.52
3.11395	34.52
3.13062	34.52
3.14728	34.52
3.16395	34.52
3.18062	34.52
3.19728	34.52
3.21395	34.52
3.23062	34.52
3.24728	34.52
3.26395	34.52
3.28062	34.52
3.29728	34.52
3.31395	34.52
3.33062	34.52
3.34728	34.52
3.36395	34.52
3.38062	34.52
3.39728	34.52
3.41395	34.52
3.43062	34.52
3.44728	34.52
3.46395	34.52
3.48062	34.52
3.49728	34.52
3.51395	34.52
3.53062	34.52
3.54728	34.52
3.56395	34.52
3.58062	34.52
3.59728	34.52
3.61395	34.52
3.63062	34.52
3.64728	34.52
3.66395	34.52
3.68062	34.52
3.69728	34.52
3.71395	34.52
3.73062	34.52
3.74728	34.52
3.76395	34.52
3.78062	34.52
3.79728	34.52
3.81395	34.52
3.83062	34.52
3.84728	34.52
3.86395	34.52
3.88062	34.51
3.89728	34.52
3.91395	34.52
3.93062	34.52
3.94728	34.52
3.96395	34.52
3.98062	34.53

[Status Trace (Column Flow)]
Interval(msec)	1000
# of Points	239
Start Time(min)	0.014
End Time(min)	3.981
Intensity Units	
Intensity Multiplier	1
R.Time (min)	Intensity
0.01395	5.47
0.03062	5.24
0.04728	5.51
0.06395	5.74
0.08062	5.60
0.09728	5.52
0.11395	5.52
0.13062	5.52
0.14728	5.52
0.16395	5.52
0.18062	5.52
0.19728	5.52
0.21395	5.52
0.23062	5.52
0.24728	5.52
0.26395	5.52
0.28062	5.52
0.29728	5.52
0.31395	5.52
0.33062	5.52
0.34728	5.52
0.36395	5.52
0.38062	5.52
0.39728	5.52
0.41395	5.52
0.43062	5.52
0.44728	5.52
0.46395	5.52
0.48062	5.52
0.49728	5.52
0.51395	5.52
0.53062	5.52
0.54728	5.52
0.56395	5.52
0.58062	5.52
0.59728	5.52
0.61395	5.52
0.63062	5.52
0.64728	5.52
0.66395	5.52
0.68062	5.52
0.69728	5.52
0.71395	5.52
0.73062	5.52
0.74728	5.52
0.76395	5.52
0.78062	5.52
0.79728	5.52
0.81395	5.52
0.83062	5.52
0.84728	5.52
0.86395	5.52
0.88062	5.52
0.89728	5.52
0.91395	5.52
0.93062	5.52
0.94728	5.52
0.96395	5.52
0.98062	5.52
0.99728	5.52
1.01395	5.52
1.03062	5.52
1.04728	5.52
1.06395	5.52
1.08062	5.52
1.09728	5.52
1.11395	5.52
1.13062	5.52
1.14728	5.52
1.16395	5.52
1.18062	5.52
1.19728	5.52
1.21395	5.52
1.23062	5.52
1.24728	5.52
1.26395	5.52
1.28062	5.52
1.29728	5.52
1.31395	5.52
1.33062	5.52
1.34728	5.52
1.36395	5.52
1.38062	5.52
1.39728	5.52
1.41395	5.52
1.43062	5.52
1.44728	5.52
1.46395	5.52
1.48062	5.52
1.49728	5.52
1.51395	5.52
1.53062	5.52
1.54728	5.52
1.56395	5.52
1.58062	5.52
1.59728	5.52
1.61395	5.52
1.63062	5.52
1.64728	5.51
1.66395	5.50
1.68062	5.49
1.69728	5.48
1.71395	5.47
1.73062	5.46
1.74728	5.45
1.76395	5.44
1.78062	5.43
1.79728	5.42
1.81395	5.41
1.83062	5.40
1.84728	5.39
1.86395	5.38
1.88062	5.37
1.89728	5.36
1.91395	5.35
1.93062	5.34
1.94728	5.33
1.96395	5.32
1.98062	5.31
1.99728	5.30
2.01395	5.29
2.03062	5.28
2.04728	5.27
2.06395	5.26
2.08062	5.25
2.09728	5.24
2.11395	5.23
2.13062	5.22
2.14728	5.21
2.16395	5.20
2.18062	5.19
2.19728	5.18
2.21395	5.17
2.23062	5.16
2.24728	5.16
2.26395	5.15
2.28062	5.14
2.29728	5.13
2.31395	5.12
2.33062	5.11
2.34728	5.10
2.36395	5.09
2.38062	5.09
2.39728	5.09
2.41395	5.09
2.43062	5.09
2.44728	5.09
2.46395	5.09
2.48062	5.09
2.49728	5.09
2.51395	5.09
2.53062	5.09
2.54728	5.09
2.56395	5.09
2.58062	5.09
2.59728	5.09
2.61395	5.08
2.63062	5.09
2.64728	5.09
2.66395	5.08
2.68062	5.08
2.69728	5.08
2.71395	5.08
2.73062	5.08
2.74728	5.08
2.76395	5.08
2.78062	5.08
2.79728	5.08
2.81395	5.08
2.83062	5.08
2.84728	5.08
2.86395	5.08
2.88062	5.08
2.89728	5.08
2.91395	5.08
2.93062	5.08
2.94728	5.08
2.96395	5.08
2.98062	5.08
2.99728	5.08
3.01395	5.08
3.03062	5.08
3.04728	5.08
3.06395	5.08
3.08062	5.08
3.09728	5.08
3.11395	5.08
3.13062	5.08
3.14728	5.08
3.16395	5.08
3.18062	5.08
3.19728	5.08
3.21395	5.08
3.23062	5.08
3.24728	5.08
3.26395	5.08
3.28062	5.08
3.29728	5.08
3.31395	5.08
3.33062	5.08
3.34728	5.08
3.36395	5.08
3.38062	5.08
3.39728	5.08
3.41395	5.08
3.43062	5.08
3.44728	5.08
3.46395	5.08
3.48062	5.08
3.49728	5.08
3.51395	5.08
3.53062	5.08
3.54728	5.08
3.56395	5.08
3.58062	5.08
3.59728	5.08
3.61395	5.08
3.63062	5.08
3.64728	5.08
3.66395	5.08
3.68062	5.08
3.69728	5.08
3.71395	5.08
3.73062	5.08
3.74728	5.08
3.76395	5.08
3.78062	5.08
3.79728	5.08
3.81395	5.08
3.83062	5.08
3.84728	5.08
3.86395	5.08
3.88062	5.08
3.89728	5.08
3.91395	5.08
3.93062	5.08
3.94728	5.08
3.96395	5.08
3.98062	5.08

[Status Trace (Linear Velocity)]
Interval(msec)	1000
# of Points	239
Start Time(min)	0.014
End Time(min)	3.981
Intensity Units	
Intensity Multiplier	1
R.Time (min)	Intensity
0.01395	38.71
0.03062	37.39
0.04728	38.94
0.06395	40.21
0.08062	39.45
0.09728	39.00
0.11395	39.01
0.13062	39.02
0.14728	39.02
0.16395	39.02
0.18062	39.02
0.19728	39.02
0.21395	39.02
0.23062	39.02
0.24728	39.02
0.26395	39.02
0.28062	39.02
0.29728	39.02
0.31395	39.02
0.33062	39.01
0.34728	39.01
0.36395	39.01
0.38062	39.01
0.39728	39.01
0.41395	39.01
0.43062	39.01
0.44728	39.01
0.46395	39.01
0.48062	39.02
0.49728	39.02
0.51395	39.02
0.53062	39.01
0.54728	39.02
0.56395	39.02
0.58062	39.02
0.59728	39.02
0.61395	39.02
0.63062	39.02
0.64728	39.02
0.66395	39.02
0.68062	39.02
0.69728	39.02
0.71395	39.02
0.73062	39.02
0.74728	39.02
0.76395	39.02
0.78062	39.02
0.79728	39.02
0.81395	39.02
0.83062	39.02
0.84728	39.02
0.86395	39.02
0.88062	39.02
0.89728	39.02
0.91395	39.02
0.93062	39.02
0.94728	39.02
0.96395	39.02
0.98062	39.02
0.99728	39.02
1.01395	39.02
1.03062	39.02
1.04728	39.02
1.06395	39.02
1.08062	39.02
1.09728	39.02
1.11395	39.02
1.13062	39.02
1.14728	39.02
1.16395	39.02
1.18062	39.02
1.19728	39.02
1.21395	39.02
1.23062	39.02
1.24728	39.02
1.26395	39.02
1.28062	39.02
1.29728	39.02
1.31395	39.02
1.33062	39.02
1.34728	39.02
1.36395	39.02
1.38062	39.02
1.39728	39.02
1.41395	39.02
1.43062	39.02
1.44728	39.02
1.46395	39.02
1.48062	39.02
1.49728	39.02
1.51395	39.02
1.53062	39.02
1.54728	39.02
1.56395	39.02
1.58062	39.02
1.59728	39.02
1.61395	39.01
1.63062	39.00
1.64728	38.98
1.66395	38.95
1.68062	38.91
1.69728	38.88
1.71395	38.84
1.73062	38.81
1.74728	38.78
1.76395	38.75
1.78062	38.72
1.79728	38.69
1.81395	38.66
1.83062	38.62
1.84728	38.60
1.86395	38.56
1.88062	38.53
1.89728	38.50
1.91395	38.47
1.93062	38.44
1.94728	38.42
1.96395	38.38
1.98062	38.35
1.99728	38.32
2.01395	38.29
2.03062	38.26
2.04728	38.23
2.06395	38.20
2.08062	38.17
2.09728	38.14
2.11395	38.11
2.13062	38.08
2.14728	38.05
2.16395	38.02
2.18062	37.99
2.19728	37.96
2.21395	37.93
2.23062	37.90
2.24728	37.88
2.26395	37.84
2.28062	37.81
2.29728	37.79
2.31395	37.75
2.33062	37.73
2.34728	37.70
2.36395	37.67
2.38062	37.66
2.39728	37.66
2.41395	37.66
2.43062	37.66
2.44728	37.66
2.46395	37.66
2.48062	37.66
2.49728	37.66
2.51395	37.65
2.53062	37.65
2.54728	37.65
2.56395	37.65
2.58062	37.65
2.59728	37.65
2.61395	37.65
2.63062	37.65
2.64728	37.65
2.66395	37.65
2.68062	37.65
2.69728	37.65
2.71395	37.65
2.73062	37.65
2.74728	37.65
2.76395	37.65
2.78062	37.64
2.79728	37.64
2.81395	37.64
2.83062	37.64
2.84728	37.65
2.86395	37.64
2.88062	37.64
2.89728	37.64
2.91395	37.64
2.93062	37.64
2.94728	37.64
2.96395	37.64
2.98062	37.63
2.99728	37.63
3.01395	37.63
3.03062	37.63
3.04728	37.63
3.06395	37.63
3.08062	37.63
3.09728	37.63
3.11395	37.63
3.13062	37.63
3.14728	37.63
3.16395	37.63
3.18062	37.63
3.19728	37.63
3.21395	37.63
3.23062	37.63
3.24728	37.63
3.26395	37.63
3.28062	37.62
3.29728	37.62
3.31395	37.62
3.33062	37.62
3.34728	37.62
3.36395	37.62
3.38062	37.63
3.39728	37.63
3.41395	37.63
3.43062	37.63
3.44728	37.63
3.46395	37.63
3.48062	37.63
3.49728	37.63
3.51395	37.64
3.53062	37.64
3.54728	37.63
3.56395	37.63
3.58062	37.63
3.59728	37.63
3.61395	37.63
3.63062	37.63
3.64728	37.63
3.66395	37.63
3.68062	37.63
3.69728	37.63
3.71395	37.63
3.73062	37.63
3.74728	37.63
3.76395	37.63
3.78062	37.63
3.79728	37.63
3.81395	37.63
3.83062	37.63
3.84728	37.63
3.86395	37.63
3.88062	37.63
3.89728	37.63
3.91395	37.63
3.93062	37.63
3.94728	37.63
3.96395	37.63
3.98062	37.63

