[Header]
Application Name	LabSolutions
Version	5.110
Data File Name	C:\Users\User\Desktop\GC Analyses\Jack\Nachusa Grasslands Sampling\T2 Timepoint July 12th\T2_07122022_014.gcd
Output Date	3/14/2023
Output Time	3:42:30 PM

[File Information]
Type	Data File
Generated	3/10/2023 1:51:18 PM
Generated by	System Administrator
Modified	3/10/2023 1:58:12 PM
Modified by	System Administrator

[Sample Information]
Operator Name	System Administrator
Acquired	3/10/2023 1:54:11 PM
Sample Type	0:Unknown
Level	0
Sample Name	014
Sample ID	014
ISTD Amount1	1
ISTD Amount2	1
ISTD Amount3	1
ISTD Amount4	1
ISTD Amount5	1
ISTD Amount6	1
ISTD Amount7	1
ISTD Amount8	1
ISTD Amount9	1
ISTD Amount10	1
ISTD Amount11	1
ISTD Amount12	1
ISTD Amount13	1
ISTD Amount14	1
ISTD Amount15	1
ISTD Amount16	1
ISTD Amount17	1
ISTD Amount18	1
ISTD Amount19	1
ISTD Amount20	1
ISTD Amount21	1
ISTD Amount22	1
ISTD Amount23	1
ISTD Amount24	1
ISTD Amount25	1
ISTD Amount26	1
ISTD Amount27	1
ISTD Amount28	1
ISTD Amount29	1
ISTD Amount30	1
ISTD Amount31	1
ISTD Amount32	1
Sample Amount	1
Dilution Factor	1
Vial#	13
Injection Volume	1
Injection Count	1
Bar Code	

[Original Files]
Data File	C:\Users\User\Desktop\GC Analyses\Jack\Nachusa Grasslands Sampling\T1 Timepoint July 12th\T2_07122022_014.gcd
Method File	C:\LabSolutions\Data\GHG_4min_2022\ghg3_togas_w_acet_4 min_new_int.gcm
Batch File	C:\LabSolutions\Data\AutoSamplerTesting\T2_07122022.gcb
Report Format File	c:\LabSolutions\System\DEFAULT.lsr

[File Description]


[Configuration]
Instrument Name	C0B7VH3-Instrument1
Instrument #	1
Line #	1
# of Detectors	3
Detector ID	DET#1	DET#2	DET#3
Detector Name	FID	PTCD	ECD
# of Channels	1	1	1

[Peak Table(Ch1)]
# of Peaks	3
Peak#	R.Time	I.Time	F.Time	Area	Height	A/H	Conc.	Mark	ID#	Name	k'	Plate #	Plate Ht.	Tailing	Resolution	Sep.Factor	Area Ratio	Height Ratio	Conc. %	Norm Conc.
1	1.476	1.435	1.538	26780	12728	2.104	189.067	   	1	CO	0.000	9287	16.151	1.282	0.000	0.000	0	0	29.073	29.073
2	1.567	1.538	1.626	4511	2182	2.068	87.232	 V 	2	CH4	0.062	10019	14.971	0.000	1.480	0.000	0	0	13.414	13.414
3	1.996	1.949	2.554	1490288	714655	2.085	374.022	   	3	CO2	0.353	17517	8.563	1.244	6.978	5.680	0	0	57.513	57.513

[Peak Table(Ch2)]
# of Peaks	0

[Peak Table(Ch3)]
# of Peaks	5
Peak#	R.Time	I.Time	F.Time	Area	Height	A/H	Conc.	Mark	ID#	Name	k'	Plate #	Plate Ht.	Tailing	Resolution	Sep.Factor	Area Ratio	Height Ratio	Conc. %	Norm Conc.
1	2.462	2.436	2.513	1505	507	2.971	0.000	   			0.000	8972	16.718	0.000	0.000	0.000	0	0	0.000	0.000
2	2.539	2.513	2.638	1404	313	4.480	0.000	 V 			0.031	3979	37.696	0.000	0.581	0.000	0	0	0.000	0.000
3	2.667	2.638	2.730	423	98	4.324	0.000	 V 			0.083	3935	38.119	0.000	0.775	2.667	0	0	0.000	0.000
4	2.876	2.730	3.085	20918	5139	4.071	0.534	 V 	1	N2O	0.168	13011	11.529	1.705	1.543	2.018	0	0	100.000	100.000
5	3.199	3.089	3.698	9031	423	21.375	0.000	   	2	SF6	0.299	456	328.899	2.751	0.922	1.779	0	0	0.000	0.000

[Compound Results(Ch1)]
# of IDs	6
ID#	Name	R.Time	Area	Height	Conc.	Curve	3rd	2nd	1st	Constant	Area Ratio	Height Ratio	Conc. %	Norm Conc.
1	CO	1.476	26780	12728	189.067	Linear	0.000000e+00	0.000000e+00	1.416423e+002	0.000000e+00	0	0	29.073	29.073
2	CH4	1.567	4511	2182	87.232	Linear	0.000000e+00	0.000000e+00	5.171738e+001	0.000000e+00	0	0	13.414	13.414
3	CO2	1.996	1490288	714655	374.022	Linear	0.000000e+00	0.000000e+00	3.984494e+003	0.000000e+00	0	0	57.513	57.513
4	Ethylene	0.000	0	0	0.000	Linear	0.000000e+00	0.000000e+00	0.000000e+00	0.000000e+00	0	0	0.000	0.000
5	Acetylene	0.000	0	0	0.000	Linear	0.000000e+00	0.000000e+00	0.000000e+00	0.000000e+00	0	0	0.000	0.000
6	Ethane	0.000	0	0	0.000	Linear	0.000000e+00	0.000000e+00	0.000000e+00	0.000000e+00	0	0	0.000	0.000

[Compound Results(Ch2)]
# of IDs	5
ID#	Name	R.Time	Area	Height	Conc.	Curve	3rd	2nd	1st	Constant	Area Ratio	Height Ratio	Conc. %	Norm Conc.
1	Hydrogen	0.000	0	0	0.000	Linear	0.000000e+00	0.000000e+00	0.000000e+00	0.000000e+00	0	0	0.000	0.000
2	Oxygen	0.000	0	0	0.000	Linear	0.000000e+00	0.000000e+00	0.000000e+00	0.000000e+00	0	0	0.000	0.000
3	Nitrogen	0.000	0	0	0.000	Linear	0.000000e+00	0.000000e+00	0.000000e+00	0.000000e+00	0	0	0.000	0.000
4	Methane	0.000	0	0	0.000	Linear	0.000000e+00	0.000000e+00	0.000000e+00	0.000000e+00	0	0	0.000	0.000
5	Carbon Monoxide	0.000	0	0	0.000	Linear	0.000000e+00	0.000000e+00	0.000000e+00	0.000000e+00	0	0	0.000	0.000

[Compound Results(Ch3)]
# of IDs	2
ID#	Name	R.Time	Area	Height	Conc.	Curve	3rd	2nd	1st	Constant	Area Ratio	Height Ratio	Conc. %	Norm Conc.
1	N2O	2.876	20918	5139	0.534	Linear	0.000000e+00	0.000000e+00	3.915173e+004	0.000000e+00	0	0	100.000	100.000
2	SF6	3.199	9031	423	0.000	Linear	0.000000e+00	0.000000e+00	0.000000e+00	0.000000e+00	0	0	0.000	0.000

[Group Results(Ch1)]
# of Groups	0

[Group Results(Ch2)]
# of Groups	0

[Group Results(Ch3)]
# of Groups	0

[Chromatogram (Ch1)]
Interval(msec)	220
# of Points	1091
Start Time(min)	0.002
End Time(min)	3.998
R.Time (min)	Intensity
0.00167	-9
0.00533	-10
0.00900	-13
0.01267	-12
0.01633	-6
0.02000	3
0.02367	12
0.02733	21
0.03100	34
0.03467	44
0.03833	48
0.04200	47
0.04567	42
0.04933	39
0.05300	40
0.05667	44
0.06033	51
0.06400	53
0.06767	58
0.07133	65
0.07500	70
0.07867	74
0.08233	81
0.08600	87
0.08967	90
0.09333	89
0.09700	89
0.10067	86
0.10433	77
0.10800	67
0.11167	54
0.11533	46
0.11900	43
0.12267	46
0.12633	49
0.13000	48
0.13367	47
0.13733	51
0.14100	53
0.14467	47
0.14833	35
0.15200	24
0.15567	16
0.15933	15
0.16300	20
0.16667	32
0.17033	42
0.17400	39
0.17767	30
0.18133	24
0.18500	23
0.18867	25
0.19233	28
0.19600	29
0.19967	28
0.20333	28
0.20700	28
0.21067	26
0.21433	21
0.21800	17
0.22167	9
0.22533	0
0.22900	-4
0.23267	-7
0.23633	-7
0.24000	-5
0.24367	-4
0.24733	-3
0.25100	-2
0.25467	-4
0.25833	-12
0.26200	-21
0.26567	-26
0.26933	-31
0.27300	-34
0.27667	-35
0.28033	-29
0.28400	-19
0.28767	-10
0.29133	-4
0.29500	-0
0.29867	0
0.30233	-4
0.30600	-6
0.30967	-1
0.31333	7
0.31700	12
0.32067	10
0.32433	6
0.32800	4
0.33167	1
0.33533	-5
0.33900	-10
0.34267	-15
0.34633	-19
0.35000	-21
0.35367	-25
0.35733	-27
0.36100	-23
0.36467	-16
0.36833	-14
0.37200	-15
0.37567	-17
0.37933	-18
0.38300	-19
0.38667	-18
0.39033	-18
0.39400	-17
0.39767	-16
0.40133	-18
0.40500	-18
0.40867	-13
0.41233	-3
0.41600	7
0.41967	12
0.42333	11
0.42700	8
0.43067	5
0.43433	1
0.43800	-3
0.44167	-6
0.44533	-8
0.44900	-12
0.45267	-15
0.45633	-18
0.46000	-20
0.46367	-20
0.46733	-19
0.47100	-19
0.47467	-22
0.47833	-18
0.48200	-10
0.48567	-3
0.48933	-1
0.49300	-1
0.49667	-3
0.50033	-8
0.50400	-10
0.50767	-11
0.51133	-16
0.51500	-21
0.51867	-27
0.52233	-26
0.52600	-21
0.52967	-19
0.53333	-21
0.53700	-24
0.54067	-28
0.54433	-28
0.54800	-27
0.55167	-23
0.55533	-18
0.55900	-17
0.56267	-16
0.56633	-17
0.57000	-18
0.57367	-24
0.57733	-27
0.58100	-26
0.58467	-19
0.58833	-13
0.59200	-15
0.59567	-22
0.59933	-27
0.60300	-28
0.60667	-25
0.61033	-22
0.61400	-21
0.61767	-23
0.62133	-25
0.62500	-29
0.62867	-33
0.63233	-36
0.63600	-38
0.63967	-40
0.64333	-42
0.64700	-43
0.65067	-40
0.65433	-31
0.65800	-25
0.66167	-23
0.66533	-22
0.66900	-21
0.67267	-21
0.67633	-20
0.68000	-20
0.68367	-21
0.68733	-25
0.69100	-31
0.69467	-35
0.69833	-34
0.70200	-31
0.70567	-28
0.70933	-24
0.71300	-24
0.71667	-27
0.72033	-29
0.72400	-28
0.72767	-25
0.73133	-22
0.73500	-23
0.73867	-27
0.74233	-27
0.74600	-23
0.74967	-17
0.75333	-15
0.75700	-16
0.76067	-19
0.76433	-23
0.76800	-28
0.77167	-36
0.77533	-43
0.77900	-45
0.78267	-42
0.78633	-35
0.79000	-27
0.79367	-24
0.79733	-27
0.80100	-27
0.80467	-30
0.80833	-36
0.81200	-42
0.81567	-39
0.81933	-31
0.82300	-26
0.82667	-22
0.83033	-14
0.83400	-10
0.83767	-9
0.84133	-8
0.84500	-8
0.84867	-12
0.85233	-14
0.85600	-16
0.85967	-18
0.86333	-20
0.86700	-22
0.87067	-24
0.87433	-25
0.87800	-26
0.88167	-25
0.88533	-24
0.88900	-19
0.89267	-13
0.89633	-10
0.90000	-6
0.90367	-4
0.90733	-8
0.91100	-13
0.91467	-12
0.91833	-6
0.92200	0
0.92567	5
0.92933	13
0.93300	23
0.93667	31
0.94033	28
0.94400	14
0.94767	-4
0.95133	-21
0.95500	-30
0.95867	-31
0.96233	-32
0.96600	-37
0.96967	-40
0.97333	-43
0.97700	-45
0.98067	-43
0.98433	-40
0.98800	-36
0.99167	-27
0.99533	-20
0.99900	-20
1.00267	-19
1.00633	-18
1.01000	-17
1.01367	-21
1.01733	-27
1.02100	-32
1.02467	-34
1.02833	-32
1.03200	-30
1.03567	-29
1.03933	-27
1.04300	-21
1.04667	-13
1.05033	-6
1.05400	-3
1.05767	-7
1.06133	-15
1.06500	-23
1.06867	-26
1.07233	-26
1.07600	-24
1.07967	-22
1.08333	-17
1.08700	-15
1.09067	-17
1.09433	-20
1.09800	-21
1.10167	-22
1.10533	-22
1.10900	-22
1.11267	-27
1.11633	-30
1.12000	-27
1.12367	-24
1.12733	-25
1.13100	-29
1.13467	-33
1.13833	-36
1.14200	-38
1.14567	-38
1.14933	-34
1.15300	-30
1.15667	-24
1.16033	-19
1.16400	-23
1.16767	-33
1.17133	-47
1.17500	-57
1.17867	-56
1.18233	-53
1.18600	-50
1.18967	-46
1.19333	-43
1.19700	-40
1.20067	-35
1.20433	-33
1.20800	-31
1.21167	-30
1.21533	-34
1.21900	-37
1.22267	-37
1.22633	-38
1.23000	-37
1.23367	-32
1.23733	-28
1.24100	-30
1.24467	-35
1.24833	-39
1.25200	-40
1.25567	-38
1.25933	-34
1.26300	-29
1.26667	-27
1.27033	-29
1.27400	-31
1.27767	-37
1.28133	-45
1.28500	-48
1.28867	-46
1.29233	-46
1.29600	-50
1.29967	-52
1.30333	-50
1.30700	-46
1.31067	-44
1.31433	-44
1.31800	-45
1.32167	-45
1.32533	-43
1.32900	-41
1.33267	-43
1.33633	-45
1.34000	-45
1.34367	-46
1.34733	-52
1.35100	-55
1.35467	-57
1.35833	-60
1.36200	-62
1.36567	-61
1.36933	-54
1.37300	-48
1.37667	-41
1.38033	-36
1.38400	-37
1.38767	-41
1.39133	-46
1.39500	-53
1.39867	-57
1.40233	-57
1.40600	-55
1.40967	-50
1.41333	-46
1.41700	-45
1.42067	-50
1.42433	-57
1.42800	-61
1.43167	-64
1.43533	-59
1.43900	-29
1.44267	81
1.44633	350
1.45000	1012
1.45367	2435
1.45733	4611
1.46100	7081
1.46467	9350
1.46833	11132
1.47200	12285
1.47567	12675
1.47933	12210
1.48300	10961
1.48667	9189
1.49033	7257
1.49400	5475
1.49767	4004
1.50133	2874
1.50500	2046
1.50867	1457
1.51233	1051
1.51600	773
1.51967	585
1.52333	455
1.52700	359
1.53067	287
1.53433	237
1.53800	220
1.54167	274
1.54533	455
1.54900	772
1.55267	1166
1.55633	1549
1.56000	1856
1.56367	2061
1.56733	2143
1.57100	2071
1.57467	1851
1.57833	1531
1.58200	1183
1.58567	867
1.58933	613
1.59300	425
1.59667	289
1.60033	191
1.60400	121
1.60767	74
1.61133	41
1.61500	16
1.61867	-4
1.62233	-20
1.62600	-30
1.62967	-34
1.63333	-30
1.63700	-24
1.64067	-21
1.64433	-22
1.64800	-25
1.65167	-25
1.65533	-25
1.65900	-31
1.66267	-40
1.66633	-47
1.67000	-52
1.67367	-54
1.67733	-55
1.68100	-51
1.68467	-47
1.68833	-46
1.69200	-46
1.69567	-51
1.69933	-56
1.70300	-62
1.70667	-66
1.71033	-70
1.71400	-73
1.71767	-73
1.72133	-74
1.72500	-76
1.72867	-74
1.73233	-70
1.73600	-64
1.73967	-59
1.74333	-52
1.74700	-43
1.75067	-40
1.75433	-41
1.75800	-46
1.76167	-54
1.76533	-57
1.76900	-58
1.77267	-57
1.77633	-61
1.78000	-60
1.78367	-57
1.78733	-56
1.79100	-54
1.79467	-48
1.79833	-39
1.80200	-35
1.80567	-42
1.80933	-53
1.81300	-63
1.81667	-71
1.82033	-74
1.82400	-74
1.82767	-75
1.83133	-74
1.83500	-77
1.83867	-82
1.84233	-78
1.84600	-71
1.84967	-67
1.85333	-64
1.85700	-64
1.86067	-69
1.86433	-74
1.86800	-76
1.87167	-73
1.87533	-69
1.87900	-71
1.88267	-77
1.88633	-81
1.89000	-77
1.89367	-74
1.89733	-74
1.90100	-78
1.90467	-80
1.90833	-77
1.91200	-73
1.91567	-72
1.91933	-72
1.92300	-70
1.92667	-68
1.93033	-63
1.93400	-59
1.93767	-53
1.94133	-47
1.94500	-47
1.94867	-47
1.95233	-17
1.95600	178
1.95967	1254
1.96333	5834
1.96700	20555
1.97067	56971
1.97433	127317
1.97800	234817
1.98167	367299
1.98533	501987
1.98900	615497
1.99267	689866
1.99633	714635
2.00000	687785
2.00367	617222
2.00733	518902
2.01100	411599
2.01467	311043
2.01833	226488
2.02200	160772
2.02567	112485
2.02933	78359
2.03300	54849
2.03667	38898
2.04033	28154
2.04400	20915
2.04767	16000
2.05133	12619
2.05500	10253
2.05867	8560
2.06233	7317
2.06600	6379
2.06967	5650
2.07333	5067
2.07700	4596
2.08067	4206
2.08433	3881
2.08800	3600
2.09167	3353
2.09533	3136
2.09900	2946
2.10267	2779
2.10633	2629
2.11000	2496
2.11367	2377
2.11733	2268
2.12100	2165
2.12467	2068
2.12833	1979
2.13200	1900
2.13567	1829
2.13933	1759
2.14300	1692
2.14667	1629
2.15033	1566
2.15400	1503
2.15767	1443
2.16133	1389
2.16500	1343
2.16867	1302
2.17233	1259
2.17600	1217
2.17967	1177
2.18333	1139
2.18700	1105
2.19067	1073
2.19433	1043
2.19800	1018
2.20167	997
2.20533	977
2.20900	960
2.21267	945
2.21633	921
2.22000	891
2.22367	861
2.22733	834
2.23100	809
2.23467	788
2.23833	768
2.24200	750
2.24567	734
2.24933	716
2.25300	696
2.25667	677
2.26033	664
2.26400	654
2.26767	644
2.27133	628
2.27500	613
2.27867	602
2.28233	593
2.28600	590
2.28967	589
2.29333	585
2.29700	576
2.30067	564
2.30433	554
2.30800	547
2.31167	537
2.31533	522
2.31900	509
2.32267	502
2.32633	502
2.33000	502
2.33367	496
2.33733	488
2.34100	477
2.34467	468
2.34833	459
2.35200	449
2.35567	440
2.35933	432
2.36300	424
2.36667	418
2.37033	414
2.37400	407
2.37767	402
2.38133	402
2.38500	404
2.38867	406
2.39233	406
2.39600	403
2.39967	398
2.40333	394
2.40700	388
2.41067	384
2.41433	385
2.41800	389
2.42167	391
2.42533	386
2.42900	377
2.43267	369
2.43633	361
2.44000	355
2.44367	356
2.44733	360
2.45100	361
2.45467	358
2.45833	354
2.46200	349
2.46567	343
2.46933	339
2.47300	336
2.47667	334
2.48033	332
2.48400	334
2.48767	336
2.49133	337
2.49500	331
2.49867	322
2.50233	314
2.50600	312
2.50967	311
2.51333	310
2.51700	306
2.52067	302
2.52433	299
2.52800	297
2.53167	296
2.53533	298
2.53900	297
2.54267	294
2.54633	290
2.55000	288
2.55367	281
2.55733	274
2.56100	270
2.56467	266
2.56833	268
2.57200	274
2.57567	276
2.57933	275
2.58300	276
2.58667	276
2.59033	276
2.59400	275
2.59767	275
2.60133	274
2.60500	277
2.60867	282
2.61233	288
2.61600	290
2.61967	285
2.62333	278
2.62700	276
2.63067	272
2.63433	268
2.63800	268
2.64167	268
2.64533	268
2.64900	271
2.65267	282
2.65633	292
2.66000	296
2.66367	300
2.66733	300
2.67100	296
2.67467	289
2.67833	276
2.68200	262
2.68567	251
2.68933	245
2.69300	241
2.69667	241
2.70033	247
2.70400	255
2.70767	260
2.71133	264
2.71500	265
2.71867	266
2.72233	267
2.72600	266
2.72967	269
2.73333	273
2.73700	276
2.74067	279
2.74433	285
2.74800	286
2.75167	284
2.75533	281
2.75900	276
2.76267	272
2.76633	270
2.77000	272
2.77367	274
2.77733	272
2.78100	269
2.78467	267
2.78833	263
2.79200	257
2.79567	252
2.79933	252
2.80300	256
2.80667	263
2.81033	272
2.81400	278
2.81767	281
2.82133	283
2.82500	282
2.82867	277
2.83233	271
2.83600	267
2.83967	265
2.84333	265
2.84700	269
2.85067	275
2.85433	278
2.85800	285
2.86167	294
2.86533	304
2.86900	308
2.87267	311
2.87633	313
2.88000	315
2.88367	316
2.88733	321
2.89100	327
2.89467	324
2.89833	318
2.90200	312
2.90567	307
2.90933	297
2.91300	289
2.91667	286
2.92033	289
2.92400	295
2.92767	297
2.93133	295
2.93500	286
2.93867	276
2.94233	269
2.94600	272
2.94967	286
2.95333	297
2.95700	299
2.96067	296
2.96433	295
2.96800	292
2.97167	287
2.97533	285
2.97900	283
2.98267	283
2.98633	285
2.99000	290
2.99367	298
2.99733	303
3.00100	306
3.00467	309
3.00833	310
3.01200	310
3.01567	311
3.01933	312
3.02300	313
3.02667	315
3.03033	317
3.03400	317
3.03767	314
3.04133	308
3.04500	302
3.04867	298
3.05233	296
3.05600	293
3.05967	292
3.06333	292
3.06700	294
3.07067	296
3.07433	296
3.07800	296
3.08167	298
3.08533	300
3.08900	303
3.09267	305
3.09633	303
3.10000	300
3.10367	299
3.10733	297
3.11100	298
3.11467	302
3.11833	302
3.12200	300
3.12567	299
3.12933	298
3.13300	302
3.13667	306
3.14033	311
3.14400	316
3.14767	320
3.15133	325
3.15500	329
3.15867	326
3.16233	319
3.16600	309
3.16967	302
3.17333	297
3.17700	293
3.18067	289
3.18433	289
3.18800	296
3.19167	304
3.19533	310
3.19900	311
3.20267	309
3.20633	308
3.21000	309
3.21367	312
3.21733	316
3.22100	321
3.22467	324
3.22833	321
3.23200	318
3.23567	316
3.23933	312
3.24300	306
3.24667	300
3.25033	297
3.25400	299
3.25767	302
3.26133	308
3.26500	316
3.26867	326
3.27233	331
3.27600	328
3.27967	323
3.28333	316
3.28700	310
3.29067	305
3.29433	302
3.29800	300
3.30167	297
3.30533	294
3.30900	295
3.31267	298
3.31633	302
3.32000	306
3.32367	311
3.32733	315
3.33100	320
3.33467	322
3.33833	320
3.34200	312
3.34567	300
3.34933	287
3.35300	278
3.35667	276
3.36033	279
3.36400	282
3.36767	285
3.37133	290
3.37500	290
3.37867	289
3.38233	289
3.38600	291
3.38967	299
3.39333	306
3.39700	309
3.40067	307
3.40433	302
3.40800	295
3.41167	286
3.41533	278
3.41900	276
3.42267	278
3.42633	284
3.43000	292
3.43367	293
3.43733	290
3.44100	292
3.44467	299
3.44833	308
3.45200	313
3.45567	312
3.45933	309
3.46300	303
3.46667	297
3.47033	294
3.47400	288
3.47767	282
3.48133	278
3.48500	274
3.48867	275
3.49233	278
3.49600	282
3.49967	288
3.50333	293
3.50700	296
3.51067	297
3.51433	297
3.51800	298
3.52167	299
3.52533	296
3.52900	289
3.53267	281
3.53633	280
3.54000	284
3.54367	288
3.54733	291
3.55100	292
3.55467	293
3.55833	289
3.56200	281
3.56567	276
3.56933	275
3.57300	276
3.57667	278
3.58033	282
3.58400	283
3.58767	281
3.59133	278
3.59500	273
3.59867	268
3.60233	264
3.60600	262
3.60967	267
3.61333	277
3.61700	286
3.62067	291
3.62433	293
3.62800	294
3.63167	293
3.63533	289
3.63900	282
3.64267	272
3.64633	267
3.65000	262
3.65367	261
3.65733	259
3.66100	254
3.66467	254
3.66833	254
3.67200	251
3.67567	250
3.67933	250
3.68300	252
3.68667	256
3.69033	260
3.69400	262
3.69767	260
3.70133	259
3.70500	260
3.70867	260
3.71233	257
3.71600	255
3.71967	255
3.72333	260
3.72700	266
3.73067	272
3.73433	280
3.73800	286
3.74167	290
3.74533	290
3.74900	286
3.75267	278
3.75633	264
3.76000	253
3.76367	247
3.76733	244
3.77100	240
3.77467	235
3.77833	229
3.78200	224
3.78567	222
3.78933	222
3.79300	223
3.79667	230
3.80033	235
3.80400	230
3.80767	224
3.81133	221
3.81500	223
3.81867	227
3.82233	232
3.82600	240
3.82967	244
3.83333	242
3.83700	240
3.84067	236
3.84433	235
3.84800	234
3.85167	233
3.85533	232
3.85900	230
3.86267	233
3.86633	241
3.87000	246
3.87367	244
3.87733	236
3.88100	231
3.88467	228
3.88833	224
3.89200	220
3.89567	220
3.89933	221
3.90300	221
3.90667	222
3.91033	225
3.91400	226
3.91767	227
3.92133	228
3.92500	226
3.92867	228
3.93233	228
3.93600	226
3.93967	227
3.94333	228
3.94700	224
3.95067	221
3.95433	219
3.95800	220
3.96167	223
3.96533	227
3.96900	235
3.97267	239
3.97633	237
3.98000	235
3.98367	234
3.98733	232
3.99100	232
3.99467	234
3.99833	234

[Chromatogram (Ch2)]
Interval(msec)	220
# of Points	1091
Start Time(min)	0.002
End Time(min)	3.998
R.Time (min)	Intensity
0.00167	1
0.00533	1
0.00900	1
0.01267	2
0.01633	3
0.02000	3
0.02367	3
0.02733	3
0.03100	3
0.03467	3
0.03833	3
0.04200	3
0.04567	2
0.04933	2
0.05300	2
0.05667	2
0.06033	2
0.06400	2
0.06767	3
0.07133	3
0.07500	3
0.07867	3
0.08233	3
0.08600	3
0.08967	3
0.09333	3
0.09700	4
0.10067	4
0.10433	4
0.10800	4
0.11167	5
0.11533	5
0.11900	5
0.12267	5
0.12633	5
0.13000	5
0.13367	5
0.13733	4
0.14100	4
0.14467	3
0.14833	2
0.15200	2
0.15567	1
0.15933	-0
0.16300	-1
0.16667	-1
0.17033	-1
0.17400	-1
0.17767	-2
0.18133	-2
0.18500	-2
0.18867	-1
0.19233	-1
0.19600	-1
0.19967	-0
0.20333	-0
0.20700	0
0.21067	0
0.21433	0
0.21800	-0
0.22167	-1
0.22533	-1
0.22900	-1
0.23267	-1
0.23633	-1
0.24000	-1
0.24367	-1
0.24733	-0
0.25100	-0
0.25467	0
0.25833	1
0.26200	1
0.26567	1
0.26933	1
0.27300	1
0.27667	2
0.28033	2
0.28400	2
0.28767	2
0.29133	2
0.29500	2
0.29867	1
0.30233	1
0.30600	1
0.30967	1
0.31333	1
0.31700	1
0.32067	1
0.32433	2
0.32800	2
0.33167	2
0.33533	2
0.33900	2
0.34267	3
0.34633	3
0.35000	3
0.35367	3
0.35733	3
0.36100	3
0.36467	3
0.36833	3
0.37200	3
0.37567	3
0.37933	3
0.38300	3
0.38667	3
0.39033	2
0.39400	2
0.39767	2
0.40133	2
0.40500	2
0.40867	2
0.41233	2
0.41600	2
0.41967	1
0.42333	1
0.42700	1
0.43067	1
0.43433	2
0.43800	2
0.44167	2
0.44533	2
0.44900	2
0.45267	2
0.45633	2
0.46000	2
0.46367	2
0.46733	2
0.47100	2
0.47467	2
0.47833	2
0.48200	2
0.48567	2
0.48933	2
0.49300	2
0.49667	2
0.50033	2
0.50400	2
0.50767	1
0.51133	1
0.51500	1
0.51867	0
0.52233	0
0.52600	-0
0.52967	-0
0.53333	-1
0.53700	-0
0.54067	-0
0.54433	-0
0.54800	-0
0.55167	-0
0.55533	-0
0.55900	-1
0.56267	-1
0.56633	-1
0.57000	-1
0.57367	-1
0.57733	-1
0.58100	-1
0.58467	-1
0.58833	-1
0.59200	-1
0.59567	-1
0.59933	-1
0.60300	-1
0.60667	-0
0.61033	-0
0.61400	0
0.61767	0
0.62133	1
0.62500	1
0.62867	1
0.63233	1
0.63600	1
0.63967	1
0.64333	1
0.64700	1
0.65067	2
0.65433	2
0.65800	2
0.66167	2
0.66533	2
0.66900	2
0.67267	2
0.67633	2
0.68000	2
0.68367	2
0.68733	2
0.69100	2
0.69467	2
0.69833	2
0.70200	2
0.70567	2
0.70933	2
0.71300	3
0.71667	3
0.72033	3
0.72400	3
0.72767	3
0.73133	3
0.73500	3
0.73867	4
0.74233	4
0.74600	4
0.74967	3
0.75333	3
0.75700	3
0.76067	3
0.76433	3
0.76800	3
0.77167	3
0.77533	2
0.77900	2
0.78267	2
0.78633	1
0.79000	0
0.79367	-0
0.79733	-1
0.80100	-2
0.80467	-2
0.80833	-2
0.81200	-3
0.81567	-3
0.81933	-3
0.82300	-3
0.82667	-3
0.83033	-3
0.83400	-3
0.83767	-3
0.84133	-3
0.84500	-3
0.84867	-3
0.85233	-3
0.85600	-4
0.85967	-4
0.86333	-4
0.86700	-4
0.87067	-4
0.87433	-3
0.87800	-3
0.88167	-3
0.88533	-3
0.88900	-3
0.89267	-3
0.89633	-2
0.90000	-2
0.90367	-2
0.90733	-2
0.91100	-2
0.91467	-1
0.91833	-1
0.92200	-1
0.92567	-1
0.92933	-1
0.93300	-1
0.93667	-1
0.94033	-1
0.94400	-1
0.94767	-0
0.95133	-0
0.95500	-0
0.95867	-0
0.96233	-0
0.96600	-0
0.96967	-0
0.97333	-0
0.97700	-0
0.98067	-0
0.98433	-0
0.98800	-0
0.99167	-0
0.99533	-0
0.99900	-0
1.00267	-0
1.00633	0
1.01000	0
1.01367	0
1.01733	1
1.02100	1
1.02467	1
1.02833	1
1.03200	1
1.03567	0
1.03933	0
1.04300	0
1.04667	0
1.05033	0
1.05400	-0
1.05767	-0
1.06133	-0
1.06500	-1
1.06867	-1
1.07233	-0
1.07600	-0
1.07967	-0
1.08333	-1
1.08700	-1
1.09067	-0
1.09433	-0
1.09800	0
1.10167	0
1.10533	1
1.10900	1
1.11267	1
1.11633	1
1.12000	2
1.12367	2
1.12733	2
1.13100	2
1.13467	2
1.13833	2
1.14200	2
1.14567	1
1.14933	1
1.15300	1
1.15667	1
1.16033	0
1.16400	0
1.16767	-0
1.17133	-0
1.17500	-0
1.17867	-0
1.18233	-0
1.18600	-0
1.18967	-0
1.19333	0
1.19700	0
1.20067	0
1.20433	0
1.20800	0
1.21167	0
1.21533	0
1.21900	-0
1.22267	-0
1.22633	-1
1.23000	-1
1.23367	-1
1.23733	-1
1.24100	-0
1.24467	-0
1.24833	-0
1.25200	-0
1.25567	-0
1.25933	-0
1.26300	-0
1.26667	-0
1.27033	-0
1.27400	-0
1.27767	-0
1.28133	-0
1.28500	-1
1.28867	-1
1.29233	-2
1.29600	-3
1.29967	-3
1.30333	-4
1.30700	-4
1.31067	-5
1.31433	-5
1.31800	-5
1.32167	-5
1.32533	-5
1.32900	-4
1.33267	-4
1.33633	-3
1.34000	-3
1.34367	-2
1.34733	-2
1.35100	-2
1.35467	-2
1.35833	-2
1.36200	-2
1.36567	-2
1.36933	-1
1.37300	-1
1.37667	-1
1.38033	-1
1.38400	-1
1.38767	-1
1.39133	-1
1.39500	-1
1.39867	-1
1.40233	-1
1.40600	-1
1.40967	-1
1.41333	-1
1.41700	-1
1.42067	-1
1.42433	-1
1.42800	-0
1.43167	-0
1.43533	0
1.43900	0
1.44267	1
1.44633	1
1.45000	1
1.45367	1
1.45733	1
1.46100	1
1.46467	1
1.46833	1
1.47200	0
1.47567	-0
1.47933	-0
1.48300	-1
1.48667	-1
1.49033	-2
1.49400	-2
1.49767	-3
1.50133	-3
1.50500	-3
1.50867	-3
1.51233	-3
1.51600	-3
1.51967	-3
1.52333	-3
1.52700	-2
1.53067	-2
1.53433	-1
1.53800	-1
1.54167	-1
1.54533	-1
1.54900	-1
1.55267	-1
1.55633	-1
1.56000	-1
1.56367	-2
1.56733	-2
1.57100	-3
1.57467	-3
1.57833	-3
1.58200	-3
1.58567	-3
1.58933	-3
1.59300	-3
1.59667	-3
1.60033	-4
1.60400	-5
1.60767	-7
1.61133	-9
1.61500	-11
1.61867	-13
1.62233	-16
1.62600	-19
1.62967	-22
1.63333	-25
1.63700	-28
1.64067	-31
1.64433	-35
1.64800	-38
1.65167	-41
1.65533	-45
1.65900	-48
1.66267	-51
1.66633	-55
1.67000	-59
1.67367	-63
1.67733	-67
1.68100	-72
1.68467	-76
1.68833	-81
1.69200	-85
1.69567	-89
1.69933	-92
1.70300	-95
1.70667	-97
1.71033	-99
1.71400	-101
1.71767	-102
1.72133	-104
1.72500	-105
1.72867	-106
1.73233	-107
1.73600	-108
1.73967	-108
1.74333	-109
1.74700	-109
1.75067	-110
1.75433	-109
1.75800	-109
1.76167	-109
1.76533	-109
1.76900	-108
1.77267	-108
1.77633	-107
1.78000	-107
1.78367	-108
1.78733	-109
1.79100	-109
1.79467	-110
1.79833	-111
1.80200	-111
1.80567	-111
1.80933	-111
1.81300	-111
1.81667	-111
1.82033	-112
1.82400	-112
1.82767	-113
1.83133	-114
1.83500	-114
1.83867	-114
1.84233	-114
1.84600	-114
1.84967	-114
1.85333	-114
1.85700	-114
1.86067	-114
1.86433	-114
1.86800	-114
1.87167	-114
1.87533	-114
1.87900	-114
1.88267	-113
1.88633	-113
1.89000	-113
1.89367	-113
1.89733	-112
1.90100	-112
1.90467	-112
1.90833	-111
1.91200	-111
1.91567	-111
1.91933	-111
1.92300	-111
1.92667	-111
1.93033	-111
1.93400	-111
1.93767	-111
1.94133	-111
1.94500	-110
1.94867	-110
1.95233	-109
1.95600	-109
1.95967	-108
1.96333	-108
1.96700	-108
1.97067	-107
1.97433	-107
1.97800	-107
1.98167	-107
1.98533	-107
1.98900	-107
1.99267	-107
1.99633	-107
2.00000	-107
2.00367	-107
2.00733	-107
2.01100	-107
2.01467	-106
2.01833	-106
2.02200	-106
2.02567	-106
2.02933	-105
2.03300	-105
2.03667	-104
2.04033	-103
2.04400	-102
2.04767	-101
2.05133	-100
2.05500	-99
2.05867	-99
2.06233	-99
2.06600	-99
2.06967	-99
2.07333	-99
2.07700	-100
2.08067	-100
2.08433	-100
2.08800	-100
2.09167	-99
2.09533	-99
2.09900	-99
2.10267	-99
2.10633	-98
2.11000	-98
2.11367	-98
2.11733	-97
2.12100	-97
2.12467	-96
2.12833	-96
2.13200	-95
2.13567	-95
2.13933	-94
2.14300	-94
2.14667	-94
2.15033	-94
2.15400	-94
2.15767	-93
2.16133	-93
2.16500	-93
2.16867	-92
2.17233	-92
2.17600	-92
2.17967	-91
2.18333	-91
2.18700	-90
2.19067	-90
2.19433	-90
2.19800	-89
2.20167	-88
2.20533	-88
2.20900	-88
2.21267	-87
2.21633	-87
2.22000	-86
2.22367	-86
2.22733	-86
2.23100	-86
2.23467	-85
2.23833	-85
2.24200	-84
2.24567	-84
2.24933	-84
2.25300	-83
2.25667	-83
2.26033	-83
2.26400	-82
2.26767	-82
2.27133	-82
2.27500	-82
2.27867	-82
2.28233	-82
2.28600	-82
2.28967	-82
2.29333	-82
2.29700	-82
2.30067	-82
2.30433	-82
2.30800	-82
2.31167	-82
2.31533	-82
2.31900	-81
2.32267	-80
2.32633	-80
2.33000	-79
2.33367	-79
2.33733	-79
2.34100	-78
2.34467	-78
2.34833	-77
2.35200	-75
2.35567	-74
2.35933	-73
2.36300	-72
2.36667	-70
2.37033	-69
2.37400	-66
2.37767	-63
2.38133	-60
2.38500	-57
2.38867	-53
2.39233	-48
2.39600	-44
2.39967	-40
2.40333	-35
2.40700	-31
2.41067	-26
2.41433	-22
2.41800	-18
2.42167	-15
2.42533	-13
2.42900	-10
2.43267	-9
2.43633	-7
2.44000	-6
2.44367	-6
2.44733	-5
2.45100	-5
2.45467	-4
2.45833	-4
2.46200	-3
2.46567	-2
2.46933	-2
2.47300	-1
2.47667	-0
2.48033	1
2.48400	2
2.48767	3
2.49133	4
2.49500	5
2.49867	6
2.50233	7
2.50600	8
2.50967	9
2.51333	10
2.51700	11
2.52067	12
2.52433	12
2.52800	13
2.53167	13
2.53533	13
2.53900	13
2.54267	14
2.54633	14
2.55000	14
2.55367	14
2.55733	14
2.56100	14
2.56467	14
2.56833	15
2.57200	15
2.57567	16
2.57933	16
2.58300	16
2.58667	17
2.59033	17
2.59400	17
2.59767	17
2.60133	17
2.60500	17
2.60867	17
2.61233	17
2.61600	17
2.61967	17
2.62333	18
2.62700	18
2.63067	19
2.63433	19
2.63800	18
2.64167	18
2.64533	18
2.64900	17
2.65267	17
2.65633	18
2.66000	18
2.66367	18
2.66733	19
2.67100	19
2.67467	20
2.67833	20
2.68200	21
2.68567	22
2.68933	22
2.69300	23
2.69667	23
2.70033	23
2.70400	23
2.70767	23
2.71133	23
2.71500	23
2.71867	23
2.72233	23
2.72600	24
2.72967	24
2.73333	25
2.73700	26
2.74067	27
2.74433	27
2.74800	28
2.75167	29
2.75533	29
2.75900	29
2.76267	29
2.76633	28
2.77000	28
2.77367	27
2.77733	27
2.78100	26
2.78467	26
2.78833	26
2.79200	26
2.79567	26
2.79933	26
2.80300	26
2.80667	26
2.81033	26
2.81400	26
2.81767	26
2.82133	26
2.82500	27
2.82867	27
2.83233	27
2.83600	27
2.83967	26
2.84333	24
2.84700	21
2.85067	16
2.85433	8
2.85800	-4
2.86167	-19
2.86533	-38
2.86900	-62
2.87267	-90
2.87633	-122
2.88000	-158
2.88367	-199
2.88733	-243
2.89100	-289
2.89467	-339
2.89833	-390
2.90200	-444
2.90567	-498
2.90933	-553
2.91300	-608
2.91667	-663
2.92033	-717
2.92400	-770
2.92767	-821
2.93133	-873
2.93500	-928
2.93867	-987
2.94233	-1042
2.94600	-1083
2.94967	-1102
2.95333	-1094
2.95700	-1061
2.96067	-1009
2.96433	-941
2.96800	-865
2.97167	-785
2.97533	-704
2.97900	-625
2.98267	-551
2.98633	-483
2.99000	-420
2.99367	-364
2.99733	-314
3.00100	-270
3.00467	-231
3.00833	-197
3.01200	-167
3.01567	-141
3.01933	-119
3.02300	-100
3.02667	-84
3.03033	-69
3.03400	-57
3.03767	-47
3.04133	-38
3.04500	-31
3.04867	-24
3.05233	-19
3.05600	-14
3.05967	-10
3.06333	-6
3.06700	-3
3.07067	-1
3.07433	2
3.07800	4
3.08167	6
3.08533	7
3.08900	8
3.09267	10
3.09633	11
3.10000	12
3.10367	13
3.10733	14
3.11100	15
3.11467	15
3.11833	16
3.12200	16
3.12567	17
3.12933	17
3.13300	18
3.13667	18
3.14033	18
3.14400	19
3.14767	19
3.15133	20
3.15500	20
3.15867	20
3.16233	20
3.16600	20
3.16967	21
3.17333	21
3.17700	21
3.18067	21
3.18433	22
3.18800	22
3.19167	22
3.19533	22
3.19900	23
3.20267	23
3.20633	23
3.21000	23
3.21367	23
3.21733	23
3.22100	23
3.22467	23
3.22833	23
3.23200	23
3.23567	23
3.23933	23
3.24300	23
3.24667	23
3.25033	23
3.25400	23
3.25767	23
3.26133	23
3.26500	23
3.26867	23
3.27233	23
3.27600	24
3.27967	24
3.28333	24
3.28700	25
3.29067	25
3.29433	25
3.29800	25
3.30167	25
3.30533	26
3.30900	26
3.31267	26
3.31633	26
3.32000	26
3.32367	26
3.32733	26
3.33100	25
3.33467	25
3.33833	25
3.34200	25
3.34567	24
3.34933	24
3.35300	24
3.35667	24
3.36033	24
3.36400	25
3.36767	25
3.37133	25
3.37500	26
3.37867	26
3.38233	26
3.38600	26
3.38967	27
3.39333	27
3.39700	27
3.40067	28
3.40433	28
3.40800	28
3.41167	28
3.41533	28
3.41900	29
3.42267	29
3.42633	29
3.43000	29
3.43367	29
3.43733	29
3.44100	29
3.44467	29
3.44833	29
3.45200	29
3.45567	29
3.45933	29
3.46300	29
3.46667	29
3.47033	29
3.47400	30
3.47767	30
3.48133	30
3.48500	30
3.48867	30
3.49233	29
3.49600	29
3.49967	29
3.50333	29
3.50700	29
3.51067	29
3.51433	29
3.51800	29
3.52167	29
3.52533	29
3.52900	29
3.53267	29
3.53633	29
3.54000	29
3.54367	29
3.54733	29
3.55100	29
3.55467	29
3.55833	29
3.56200	28
3.56567	28
3.56933	28
3.57300	28
3.57667	28
3.58033	28
3.58400	28
3.58767	28
3.59133	27
3.59500	27
3.59867	27
3.60233	28
3.60600	28
3.60967	28
3.61333	28
3.61700	28
3.62067	29
3.62433	29
3.62800	29
3.63167	29
3.63533	29
3.63900	29
3.64267	29
3.64633	30
3.65000	30
3.65367	30
3.65733	30
3.66100	30
3.66467	30
3.66833	30
3.67200	30
3.67567	30
3.67933	30
3.68300	29
3.68667	29
3.69033	29
3.69400	29
3.69767	29
3.70133	29
3.70500	28
3.70867	28
3.71233	28
3.71600	29
3.71967	29
3.72333	29
3.72700	29
3.73067	29
3.73433	29
3.73800	29
3.74167	29
3.74533	29
3.74900	29
3.75267	28
3.75633	28
3.76000	28
3.76367	28
3.76733	28
3.77100	28
3.77467	28
3.77833	28
3.78200	28
3.78567	28
3.78933	28
3.79300	28
3.79667	28
3.80033	28
3.80400	28
3.80767	27
3.81133	27
3.81500	27
3.81867	27
3.82233	27
3.82600	27
3.82967	27
3.83333	27
3.83700	27
3.84067	27
3.84433	27
3.84800	27
3.85167	28
3.85533	28
3.85900	28
3.86267	28
3.86633	28
3.87000	28
3.87367	29
3.87733	29
3.88100	29
3.88467	29
3.88833	29
3.89200	29
3.89567	29
3.89933	30
3.90300	30
3.90667	30
3.91033	29
3.91400	29
3.91767	29
3.92133	29
3.92500	28
3.92867	28
3.93233	28
3.93600	28
3.93967	28
3.94333	28
3.94700	28
3.95067	28
3.95433	27
3.95800	27
3.96167	27
3.96533	27
3.96900	27
3.97267	26
3.97633	26
3.98000	26
3.98367	26
3.98733	26
3.99100	26
3.99467	27
3.99833	27

[Chromatogram (Ch3)]
Interval(msec)	220
# of Points	1091
Start Time(min)	0.002
End Time(min)	3.998
R.Time (min)	Intensity
0.00167	-0
0.00533	2
0.00900	5
0.01267	6
0.01633	5
0.02000	2
0.02367	-1
0.02733	-1
0.03100	-1
0.03467	-1
0.03833	-0
0.04200	-1
0.04567	-2
0.04933	-0
0.05300	0
0.05667	-0
0.06033	-0
0.06400	-2
0.06767	-4
0.07133	-5
0.07500	-4
0.07867	-3
0.08233	-0
0.08600	1
0.08967	1
0.09333	1
0.09700	2
0.10067	2
0.10433	3
0.10800	5
0.11167	4
0.11533	2
0.11900	-1
0.12267	-4
0.12633	-3
0.13000	-2
0.13367	-3
0.13733	-3
0.14100	-4
0.14467	-3
0.14833	-2
0.15200	-2
0.15567	-0
0.15933	-0
0.16300	0
0.16667	2
0.17033	2
0.17400	0
0.17767	1
0.18133	2
0.18500	1
0.18867	0
0.19233	-2
0.19600	-2
0.19967	-2
0.20333	-2
0.20700	-4
0.21067	-3
0.21433	-0
0.21800	3
0.22167	5
0.22533	4
0.22900	3
0.23267	-0
0.23633	-3
0.24000	-5
0.24367	-5
0.24733	-2
0.25100	-1
0.25467	-1
0.25833	-1
0.26200	-2
0.26567	-2
0.26933	-2
0.27300	-1
0.27667	-0
0.28033	1
0.28400	4
0.28767	4
0.29133	1
0.29500	-0
0.29867	-0
0.30233	0
0.30600	-0
0.30967	1
0.31333	2
0.31700	3
0.32067	1
0.32433	-1
0.32800	-3
0.33167	-3
0.33533	-2
0.33900	-1
0.34267	-2
0.34633	-1
0.35000	1
0.35367	1
0.35733	0
0.36100	0
0.36467	1
0.36833	0
0.37200	-1
0.37567	-0
0.37933	0
0.38300	-0
0.38667	-1
0.39033	-0
0.39400	1
0.39767	1
0.40133	-1
0.40500	-2
0.40867	-2
0.41233	0
0.41600	2
0.41967	3
0.42333	4
0.42700	6
0.43067	6
0.43433	3
0.43800	2
0.44167	-0
0.44533	-2
0.44900	-2
0.45267	-2
0.45633	-3
0.46000	-3
0.46367	-3
0.46733	-0
0.47100	-0
0.47467	-1
0.47833	-3
0.48200	-5
0.48567	-6
0.48933	-5
0.49300	-6
0.49667	-7
0.50033	-6
0.50400	-5
0.50767	-4
0.51133	-4
0.51500	-5
0.51867	-5
0.52233	-4
0.52600	-4
0.52967	-1
0.53333	-1
0.53700	-0
0.54067	0
0.54433	-1
0.54800	-3
0.55167	-5
0.55533	-6
0.55900	-7
0.56267	-5
0.56633	-5
0.57000	-5
0.57367	-5
0.57733	-5
0.58100	-4
0.58467	-3
0.58833	-1
0.59200	0
0.59567	1
0.59933	1
0.60300	0
0.60667	-1
0.61033	2
0.61400	4
0.61767	4
0.62133	4
0.62500	4
0.62867	4
0.63233	6
0.63600	4
0.63967	1
0.64333	1
0.64700	-1
0.65067	-1
0.65433	-0
0.65800	-0
0.66167	-1
0.66533	-2
0.66900	-2
0.67267	-3
0.67633	-3
0.68000	-1
0.68367	1
0.68733	1
0.69100	1
0.69467	3
0.69833	5
0.70200	5
0.70567	5
0.70933	5
0.71300	4
0.71667	3
0.72033	2
0.72400	1
0.72767	1
0.73133	2
0.73500	2
0.73867	2
0.74233	2
0.74600	3
0.74967	4
0.75333	3
0.75700	3
0.76067	3
0.76433	1
0.76800	0
0.77167	-1
0.77533	-2
0.77900	-3
0.78267	-5
0.78633	-7
0.79000	-5
0.79367	-3
0.79733	-3
0.80100	-3
0.80467	-4
0.80833	-5
0.81200	-5
0.81567	-6
0.81933	-6
0.82300	-3
0.82667	-0
0.83033	-0
0.83400	-1
0.83767	1
0.84133	3
0.84500	3
0.84867	5
0.85233	6
0.85600	4
0.85967	3
0.86333	1
0.86700	2
0.87067	4
0.87433	7
0.87800	8
0.88167	7
0.88533	4
0.88900	2
0.89267	3
0.89633	4
0.90000	5
0.90367	6
0.90733	6
0.91100	5
0.91467	3
0.91833	3
0.92200	2
0.92567	3
0.92933	3
0.93300	5
0.93667	6
0.94033	6
0.94400	6
0.94767	9
0.95133	11
0.95500	10
0.95867	9
0.96233	8
0.96600	8
0.96967	9
0.97333	9
0.97700	7
0.98067	4
0.98433	2
0.98800	3
0.99167	3
0.99533	2
0.99900	-1
1.00267	-1
1.00633	1
1.01000	3
1.01367	3
1.01733	5
1.02100	4
1.02467	8
1.02833	10
1.03200	10
1.03567	9
1.03933	8
1.04300	9
1.04667	10
1.05033	10
1.05400	9
1.05767	8
1.06133	8
1.06500	7
1.06867	8
1.07233	8
1.07600	7
1.07967	5
1.08333	4
1.08700	4
1.09067	5
1.09433	6
1.09800	8
1.10167	10
1.10533	10
1.10900	10
1.11267	8
1.11633	6
1.12000	5
1.12367	5
1.12733	6
1.13100	6
1.13467	5
1.13833	4
1.14200	5
1.14567	5
1.14933	5
1.15300	5
1.15667	7
1.16033	9
1.16400	9
1.16767	9
1.17133	9
1.17500	9
1.17867	8
1.18233	7
1.18600	9
1.18967	9
1.19333	9
1.19700	9
1.20067	8
1.20433	7
1.20800	6
1.21167	6
1.21533	7
1.21900	9
1.22267	10
1.22633	10
1.23000	8
1.23367	7
1.23733	9
1.24100	9
1.24467	9
1.24833	11
1.25200	12
1.25567	11
1.25933	10
1.26300	9
1.26667	7
1.27033	6
1.27400	7
1.27767	9
1.28133	9
1.28500	10
1.28867	12
1.29233	12
1.29600	13
1.29967	15
1.30333	15
1.30700	13
1.31067	11
1.31433	11
1.31800	11
1.32167	8
1.32533	7
1.32900	9
1.33267	12
1.33633	12
1.34000	11
1.34367	11
1.34733	10
1.35100	8
1.35467	11
1.35833	14
1.36200	16
1.36567	15
1.36933	13
1.37300	13
1.37667	13
1.38033	15
1.38400	17
1.38767	17
1.39133	14
1.39500	11
1.39867	12
1.40233	14
1.40600	13
1.40967	11
1.41333	11
1.41700	12
1.42067	13
1.42433	14
1.42800	15
1.43167	14
1.43533	13
1.43900	15
1.44267	15
1.44633	15
1.45000	13
1.45367	12
1.45733	13
1.46100	15
1.46467	16
1.46833	18
1.47200	18
1.47567	15
1.47933	15
1.48300	15
1.48667	14
1.49033	13
1.49400	11
1.49767	10
1.50133	10
1.50500	8
1.50867	8
1.51233	9
1.51600	11
1.51967	14
1.52333	13
1.52700	12
1.53067	12
1.53433	11
1.53800	12
1.54167	13
1.54533	12
1.54900	12
1.55267	12
1.55633	11
1.56000	11
1.56367	13
1.56733	11
1.57100	9
1.57467	8
1.57833	9
1.58200	9
1.58567	9
1.58933	9
1.59300	10
1.59667	10
1.60033	9
1.60400	8
1.60767	12
1.61133	15
1.61500	15
1.61867	14
1.62233	16
1.62600	20
1.62967	22
1.63333	24
1.63700	23
1.64067	22
1.64433	22
1.64800	22
1.65167	22
1.65533	22
1.65900	21
1.66267	20
1.66633	20
1.67000	22
1.67367	21
1.67733	23
1.68100	23
1.68467	24
1.68833	24
1.69200	22
1.69567	22
1.69933	21
1.70300	24
1.70667	25
1.71033	24
1.71400	24
1.71767	26
1.72133	27
1.72500	27
1.72867	27
1.73233	26
1.73600	25
1.73967	26
1.74333	26
1.74700	25
1.75067	25
1.75433	25
1.75800	26
1.76167	28
1.76533	30
1.76900	31
1.77267	30
1.77633	32
1.78000	32
1.78367	31
1.78733	29
1.79100	31
1.79467	33
1.79833	34
1.80200	35
1.80567	36
1.80933	36
1.81300	36
1.81667	35
1.82033	34
1.82400	35
1.82767	36
1.83133	37
1.83500	38
1.83867	39
1.84233	40
1.84600	41
1.84967	42
1.85333	42
1.85700	41
1.86067	39
1.86433	39
1.86800	37
1.87167	36
1.87533	35
1.87900	34
1.88267	37
1.88633	41
1.89000	43
1.89367	43
1.89733	44
1.90100	45
1.90467	46
1.90833	46
1.91200	47
1.91567	49
1.91933	50
1.92300	50
1.92667	51
1.93033	50
1.93400	49
1.93767	48
1.94133	48
1.94500	48
1.94867	48
1.95233	49
1.95600	51
1.95967	54
1.96333	56
1.96700	56
1.97067	56
1.97433	57
1.97800	57
1.98167	56
1.98533	57
1.98900	58
1.99267	59
1.99633	59
2.00000	61
2.00367	62
2.00733	62
2.01100	62
2.01467	63
2.01833	64
2.02200	65
2.02567	67
2.02933	69
2.03300	71
2.03667	74
2.04033	75
2.04400	77
2.04767	77
2.05133	76
2.05500	75
2.05867	76
2.06233	76
2.06600	76
2.06967	77
2.07333	80
2.07700	81
2.08067	81
2.08433	81
2.08800	80
2.09167	78
2.09533	78
2.09900	80
2.10267	84
2.10633	88
2.11000	90
2.11367	91
2.11733	90
2.12100	91
2.12467	91
2.12833	92
2.13200	92
2.13567	94
2.13933	95
2.14300	95
2.14667	97
2.15033	99
2.15400	101
2.15767	102
2.16133	102
2.16500	104
2.16867	106
2.17233	105
2.17600	105
2.17967	107
2.18333	110
2.18700	114
2.19067	116
2.19433	118
2.19800	120
2.20167	122
2.20533	120
2.20900	117
2.21267	118
2.21633	120
2.22000	122
2.22367	124
2.22733	126
2.23100	127
2.23467	128
2.23833	131
2.24200	135
2.24567	138
2.24933	138
2.25300	138
2.25667	138
2.26033	141
2.26400	144
2.26767	145
2.27133	144
2.27500	144
2.27867	145
2.28233	148
2.28600	151
2.28967	151
2.29333	152
2.29700	154
2.30067	156
2.30433	160
2.30800	163
2.31167	165
2.31533	166
2.31900	166
2.32267	167
2.32633	167
2.33000	167
2.33367	168
2.33733	171
2.34100	175
2.34467	178
2.34833	180
2.35200	181
2.35567	182
2.35933	184
2.36300	186
2.36667	187
2.37033	189
2.37400	192
2.37767	194
2.38133	193
2.38500	192
2.38867	191
2.39233	192
2.39600	197
2.39967	201
2.40333	204
2.40700	207
2.41067	211
2.41433	214
2.41800	216
2.42167	219
2.42533	223
2.42900	224
2.43267	226
2.43633	227
2.44000	232
2.44367	280
2.44733	401
2.45100	533
2.45467	644
2.45833	713
2.46200	729
2.46567	710
2.46933	680
2.47300	659
2.47667	647
2.48033	640
2.48400	625
2.48767	600
2.49133	569
2.49500	536
2.49867	507
2.50233	486
2.50600	470
2.50967	462
2.51333	458
2.51700	459
2.52067	466
2.52433	479
2.52800	495
2.53167	510
2.53533	520
2.53900	522
2.54267	512
2.54633	496
2.55000	475
2.55367	452
2.55733	430
2.56100	410
2.56467	394
2.56833	384
2.57200	377
2.57567	373
2.57933	370
2.58300	368
2.58667	366
2.59033	365
2.59400	362
2.59767	358
2.60133	351
2.60500	342
2.60867	330
2.61233	316
2.61600	301
2.61967	285
2.62333	272
2.62700	260
2.63067	251
2.63433	246
2.63800	245
2.64167	250
2.64533	257
2.64900	263
2.65267	269
2.65633	275
2.66000	280
2.66367	282
2.66733	283
2.67100	282
2.67467	281
2.67833	277
2.68200	273
2.68567	270
2.68933	265
2.69300	261
2.69667	257
2.70033	254
2.70400	249
2.70767	244
2.71133	240
2.71500	237
2.71867	234
2.72233	232
2.72600	233
2.72967	232
2.73333	230
2.73700	230
2.74067	232
2.74433	234
2.74800	237
2.75167	238
2.75533	239
2.75900	241
2.76267	243
2.76633	243
2.77000	243
2.77367	244
2.77733	244
2.78100	244
2.78467	245
2.78833	246
2.79200	248
2.79567	249
2.79933	248
2.80300	246
2.80667	247
2.81033	248
2.81400	251
2.81767	258
2.82133	269
2.82500	295
2.82867	349
2.83233	452
2.83600	629
2.83967	903
2.84333	1284
2.84700	1770
2.85067	2343
2.85433	2970
2.85800	3601
2.86167	4184
2.86533	4674
2.86900	5029
2.87267	5235
2.87633	5287
2.88000	5202
2.88367	5006
2.88733	4726
2.89100	4394
2.89467	4033
2.89833	3666
2.90200	3308
2.90567	2968
2.90933	2651
2.91300	2359
2.91667	2099
2.92033	1866
2.92400	1659
2.92767	1478
2.93133	1318
2.93500	1180
2.93867	1060
2.94233	955
2.94600	864
2.94967	785
2.95333	716
2.95700	657
2.96067	607
2.96433	563
2.96800	523
2.97167	488
2.97533	455
2.97900	426
2.98267	402
2.98633	382
2.99000	362
2.99367	346
2.99733	333
3.00100	323
3.00467	314
3.00833	304
3.01200	293
3.01567	285
3.01933	278
3.02300	270
3.02667	261
3.03033	254
3.03400	249
3.03767	249
3.04133	247
3.04500	246
3.04867	245
3.05233	243
3.05600	239
3.05967	234
3.06333	232
3.06700	232
3.07067	231
3.07433	217
3.07800	180
3.08167	133
3.08533	110
3.08900	111
3.09267	133
3.09633	168
3.10000	208
3.10367	247
3.10733	285
3.11100	320
3.11467	352
3.11833	382
3.12200	411
3.12567	438
3.12933	460
3.13300	480
3.13667	498
3.14033	513
3.14400	524
3.14767	535
3.15133	546
3.15500	555
3.15867	561
3.16233	566
3.16600	572
3.16967	579
3.17333	587
3.17700	595
3.18067	600
3.18433	603
3.18800	605
3.19167	609
3.19533	616
3.19900	621
3.20267	624
3.20633	627
3.21000	628
3.21367	629
3.21733	633
3.22100	637
3.22467	638
3.22833	639
3.23200	639
3.23567	638
3.23933	637
3.24300	638
3.24667	640
3.25033	642
3.25400	642
3.25767	640
3.26133	639
3.26500	638
3.26867	636
3.27233	634
3.27600	633
3.27967	635
3.28333	637
3.28700	639
3.29067	638
3.29433	638
3.29800	635
3.30167	635
3.30533	636
3.30900	639
3.31267	639
3.31633	639
3.32000	641
3.32367	642
3.32733	642
3.33100	643
3.33467	646
3.33833	646
3.34200	645
3.34567	645
3.34933	644
3.35300	647
3.35667	649
3.36033	648
3.36400	648
3.36767	650
3.37133	653
3.37500	655
3.37867	656
3.38233	656
3.38600	655
3.38967	656
3.39333	658
3.39700	662
3.40067	662
3.40433	661
3.40800	659
3.41167	658
3.41533	658
3.41900	658
3.42267	657
3.42633	655
3.43000	655
3.43367	653
3.43733	653
3.44100	652
3.44467	652
3.44833	653
3.45200	653
3.45567	652
3.45933	652
3.46300	651
3.46667	649
3.47033	646
3.47400	644
3.47767	642
3.48133	641
3.48500	641
3.48867	640
3.49233	636
3.49600	635
3.49967	637
3.50333	637
3.50700	638
3.51067	636
3.51433	634
3.51800	632
3.52167	630
3.52533	628
3.52900	627
3.53267	626
3.53633	623
3.54000	620
3.54367	619
3.54733	618
3.55100	619
3.55467	617
3.55833	614
3.56200	611
3.56567	609
3.56933	607
3.57300	606
3.57667	604
3.58033	604
3.58400	604
3.58767	605
3.59133	607
3.59500	606
3.59867	604
3.60233	603
3.60600	602
3.60967	601
3.61333	600
3.61700	599
3.62067	601
3.62433	601
3.62800	600
3.63167	599
3.63533	599
3.63900	599
3.64267	600
3.64633	601
3.65000	602
3.65367	603
3.65733	603
3.66100	601
3.66467	600
3.66833	600
3.67200	599
3.67567	599
3.67933	598
3.68300	595
3.68667	593
3.69033	593
3.69400	594
3.69767	595
3.70133	593
3.70500	592
3.70867	593
3.71233	593
3.71600	591
3.71967	590
3.72333	589
3.72700	589
3.73067	590
3.73433	588
3.73800	587
3.74167	588
3.74533	590
3.74900	590
3.75267	589
3.75633	586
3.76000	582
3.76367	582
3.76733	581
3.77100	580
3.77467	581
3.77833	583
3.78200	582
3.78567	580
3.78933	579
3.79300	580
3.79667	579
3.80033	579
3.80400	578
3.80767	575
3.81133	574
3.81500	575
3.81867	575
3.82233	575
3.82600	576
3.82967	576
3.83333	575
3.83700	570
3.84067	568
3.84433	568
3.84800	569
3.85167	568
3.85533	567
3.85900	565
3.86267	561
3.86633	560
3.87000	559
3.87367	559
3.87733	558
3.88100	558
3.88467	556
3.88833	554
3.89200	554
3.89567	552
3.89933	550
3.90300	550
3.90667	552
3.91033	552
3.91400	550
3.91767	548
3.92133	547
3.92500	544
3.92867	542
3.93233	541
3.93600	543
3.93967	541
3.94333	540
3.94700	539
3.95067	537
3.95433	535
3.95800	533
3.96167	533
3.96533	530
3.96900	528
3.97267	527
3.97633	527
3.98000	525
3.98367	524
3.98733	523
3.99100	524
3.99467	523
3.99833	516

[Status Trace (Column Oven Temperature)]
Interval(msec)	1000
# of Points	240
Start Time(min)	0.004
End Time(min)	3.988
Intensity Units	
Intensity Multiplier	1
R.Time (min)	Intensity
0.00428	35.08
0.02095	35.06
0.03762	35.06
0.05428	35.05
0.07095	35.05
0.08762	35.04
0.10428	35.03
0.12095	35.03
0.13762	35.02
0.15428	35.03
0.17095	35.04
0.18762	35.04
0.20428	35.04
0.22095	35.06
0.23762	35.06
0.25428	35.06
0.27095	35.07
0.28762	35.07
0.30428	35.07
0.32095	35.06
0.33762	35.05
0.35428	35.03
0.37095	35.03
0.38762	35.03
0.40428	35.03
0.42095	35.02
0.43762	35.02
0.45428	35.01
0.47095	35.00
0.48762	35.00
0.50428	35.02
0.52095	35.02
0.53762	35.02
0.55428	35.02
0.57095	35.03
0.58762	35.04
0.60428	35.04
0.62095	35.02
0.63762	35.02
0.65428	35.01
0.67095	35.01
0.68762	35.00
0.70428	34.99
0.72095	34.98
0.73762	34.98
0.75428	34.97
0.77095	34.96
0.78762	34.97
0.80428	34.99
0.82095	35.00
0.83762	35.01
0.85428	35.02
0.87095	35.02
0.88762	35.03
0.90428	35.04
0.92095	35.03
0.93762	35.02
0.95428	35.02
0.97095	35.02
0.98762	35.02
1.00428	35.02
1.02095	35.01
1.03762	35.02
1.05428	35.02
1.07095	35.02
1.08762	35.01
1.10428	34.99
1.12095	34.98
1.13762	34.97
1.15428	34.98
1.17095	34.98
1.18762	34.97
1.20428	34.97
1.22095	34.98
1.23762	34.98
1.25428	34.98
1.27095	34.98
1.28762	35.00
1.30428	35.01
1.32095	35.02
1.33762	35.01
1.35428	35.01
1.37095	35.00
1.38762	35.00
1.40428	34.99
1.42095	34.99
1.43762	34.98
1.45428	34.98
1.47095	34.97
1.48762	34.98
1.50428	34.99
1.52095	35.00
1.53762	34.99
1.55428	35.01
1.57095	35.01
1.58762	35.02
1.60428	35.06
1.62095	35.17
1.63762	35.34
1.65428	35.58
1.67095	35.88
1.68762	36.25
1.70428	36.60
1.72095	36.94
1.73762	37.29
1.75428	37.62
1.77095	37.93
1.78762	38.27
1.80428	38.59
1.82095	38.93
1.83762	39.26
1.85428	39.60
1.87095	39.93
1.88762	40.27
1.90428	40.58
1.92095	40.92
1.93762	41.25
1.95428	41.57
1.97095	41.89
1.98762	42.23
2.00428	42.55
2.02095	42.87
2.03762	43.21
2.05428	43.51
2.07095	43.85
2.08762	44.16
2.10428	44.50
2.12095	44.82
2.13762	45.15
2.15428	45.49
2.17095	45.82
2.18762	46.13
2.20428	46.45
2.22095	46.77
2.23762	47.11
2.25428	47.44
2.27095	47.76
2.28762	48.09
2.30428	48.44
2.32095	48.75
2.33762	49.09
2.35428	49.38
2.37095	49.60
2.38762	49.68
2.40428	49.69
2.42095	49.66
2.43762	49.66
2.45428	49.66
2.47095	49.67
2.48762	49.68
2.50428	49.68
2.52095	49.69
2.53762	49.71
2.55428	49.73
2.57095	49.74
2.58762	49.75
2.60428	49.78
2.62095	49.78
2.63762	49.81
2.65428	49.83
2.67095	49.84
2.68762	49.84
2.70428	49.86
2.72095	49.87
2.73762	49.85
2.75428	49.84
2.77095	49.86
2.78762	49.87
2.80428	49.87
2.82095	49.87
2.83762	49.87
2.85428	49.88
2.87095	49.87
2.88762	49.88
2.90428	49.88
2.92095	49.89
2.93762	49.92
2.95428	49.92
2.97095	49.93
2.98762	49.95
3.00428	49.97
3.02095	49.99
3.03762	50.01
3.05428	50.02
3.07095	50.04
3.08762	50.04
3.10428	50.04
3.12095	50.05
3.13762	50.05
3.15428	50.04
3.17095	50.05
3.18762	50.04
3.20428	50.06
3.22095	50.07
3.23762	50.09
3.25428	50.09
3.27095	50.09
3.28762	50.09
3.30428	50.09
3.32095	50.10
3.33762	50.11
3.35428	50.12
3.37095	50.12
3.38762	50.10
3.40428	50.09
3.42095	50.08
3.43762	50.07
3.45428	50.06
3.47095	50.05
3.48762	50.04
3.50428	50.04
3.52095	50.04
3.53762	50.04
3.55428	50.04
3.57095	50.04
3.58762	50.05
3.60428	50.05
3.62095	50.05
3.63762	50.04
3.65428	50.04
3.67095	50.04
3.68762	50.04
3.70428	50.03
3.72095	50.02
3.73762	50.03
3.75428	50.02
3.77095	50.02
3.78762	50.02
3.80428	50.03
3.82095	50.03
3.83762	50.03
3.85428	50.03
3.87095	50.02
3.88762	50.02
3.90428	50.02
3.92095	50.03
3.93762	50.05
3.95428	50.05
3.97095	50.07
3.98762	50.07

[Status Trace (Injection Unit Temperature)]
Interval(msec)	1000
# of Points	240
Start Time(min)	0.004
End Time(min)	3.988
Intensity Units	
Intensity Multiplier	1
R.Time (min)	Intensity
0.00428	99.98
0.02095	99.98
0.03762	99.97
0.05428	99.98
0.07095	99.97
0.08762	99.98
0.10428	99.98
0.12095	99.98
0.13762	99.98
0.15428	99.98
0.17095	99.98
0.18762	99.98
0.20428	99.98
0.22095	99.98
0.23762	99.98
0.25428	99.98
0.27095	99.98
0.28762	99.98
0.30428	99.98
0.32095	99.98
0.33762	99.98
0.35428	99.98
0.37095	99.98
0.38762	99.98
0.40428	99.98
0.42095	99.98
0.43762	99.98
0.45428	99.99
0.47095	99.99
0.48762	99.98
0.50428	99.99
0.52095	99.98
0.53762	99.99
0.55428	99.99
0.57095	99.98
0.58762	99.99
0.60428	99.99
0.62095	99.99
0.63762	99.99
0.65428	99.99
0.67095	99.99
0.68762	99.99
0.70428	99.99
0.72095	99.99
0.73762	99.99
0.75428	99.99
0.77095	99.99
0.78762	99.99
0.80428	99.99
0.82095	99.99
0.83762	99.99
0.85428	99.99
0.87095	99.99
0.88762	99.99
0.90428	99.99
0.92095	99.99
0.93762	99.99
0.95428	99.99
0.97095	99.99
0.98762	99.99
1.00428	99.99
1.02095	99.99
1.03762	99.98
1.05428	99.99
1.07095	99.98
1.08762	99.99
1.10428	99.98
1.12095	99.99
1.13762	99.99
1.15428	99.98
1.17095	99.98
1.18762	99.99
1.20428	99.98
1.22095	99.98
1.23762	99.98
1.25428	99.98
1.27095	99.98
1.28762	99.98
1.30428	99.98
1.32095	99.98
1.33762	99.98
1.35428	99.98
1.37095	99.98
1.38762	99.98
1.40428	99.98
1.42095	99.98
1.43762	99.98
1.45428	99.98
1.47095	99.98
1.48762	99.97
1.50428	99.98
1.52095	99.98
1.53762	99.98
1.55428	99.98
1.57095	99.98
1.58762	99.97
1.60428	99.97
1.62095	99.98
1.63762	99.97
1.65428	99.98
1.67095	99.98
1.68762	99.97
1.70428	99.97
1.72095	99.97
1.73762	99.98
1.75428	99.98
1.77095	99.97
1.78762	99.97
1.80428	99.97
1.82095	99.98
1.83762	99.97
1.85428	99.97
1.87095	99.97
1.88762	99.97
1.90428	99.97
1.92095	99.97
1.93762	99.97
1.95428	99.97
1.97095	99.97
1.98762	99.97
2.00428	99.97
2.02095	99.96
2.03762	99.97
2.05428	99.97
2.07095	99.96
2.08762	99.97
2.10428	99.97
2.12095	99.97
2.13762	99.97
2.15428	99.97
2.17095	99.97
2.18762	99.97
2.20428	99.97
2.22095	99.97
2.23762	99.97
2.25428	99.97
2.27095	99.97
2.28762	99.97
2.30428	99.97
2.32095	99.97
2.33762	99.97
2.35428	99.97
2.37095	99.97
2.38762	99.97
2.40428	99.97
2.42095	99.97
2.43762	99.97
2.45428	99.97
2.47095	99.98
2.48762	99.97
2.50428	99.97
2.52095	99.97
2.53762	99.98
2.55428	99.98
2.57095	99.98
2.58762	99.98
2.60428	99.98
2.62095	99.97
2.63762	99.98
2.65428	99.98
2.67095	99.98
2.68762	99.98
2.70428	99.98
2.72095	99.99
2.73762	99.99
2.75428	99.99
2.77095	99.99
2.78762	100.00
2.80428	100.00
2.82095	100.00
2.83762	100.00
2.85428	100.00
2.87095	100.00
2.88762	100.00
2.90428	100.00
2.92095	100.01
2.93762	100.00
2.95428	100.00
2.97095	100.00
2.98762	100.00
3.00428	100.01
3.02095	100.01
3.03762	100.01
3.05428	100.02
3.07095	100.01
3.08762	100.02
3.10428	100.01
3.12095	100.02
3.13762	100.02
3.15428	100.02
3.17095	100.02
3.18762	100.02
3.20428	100.02
3.22095	100.02
3.23762	100.03
3.25428	100.02
3.27095	100.02
3.28762	100.02
3.30428	100.03
3.32095	100.02
3.33762	100.03
3.35428	100.03
3.37095	100.03
3.38762	100.04
3.40428	100.03
3.42095	100.03
3.43762	100.04
3.45428	100.03
3.47095	100.03
3.48762	100.04
3.50428	100.03
3.52095	100.04
3.53762	100.04
3.55428	100.04
3.57095	100.04
3.58762	100.04
3.60428	100.04
3.62095	100.04
3.63762	100.04
3.65428	100.04
3.67095	100.04
3.68762	100.04
3.70428	100.05
3.72095	100.05
3.73762	100.05
3.75428	100.04
3.77095	100.05
3.78762	100.05
3.80428	100.05
3.82095	100.05
3.83762	100.05
3.85428	100.05
3.87095	100.05
3.88762	100.05
3.90428	100.05
3.92095	100.05
3.93762	100.05
3.95428	100.05
3.97095	100.05
3.98762	100.05

[Status Trace (Carrier Gas Pressure)]
Interval(msec)	1000
# of Points	240
Start Time(min)	0.004
End Time(min)	3.988
Intensity Units	
Intensity Multiplier	1
R.Time (min)	Intensity
0.00428	58.00
0.02095	55.87
0.03762	56.56
0.05428	58.82
0.07095	59.73
0.08762	58.20
0.10428	57.97
0.12095	58.01
0.13762	58.01
0.15428	58.01
0.17095	58.00
0.18762	58.00
0.20428	58.00
0.22095	58.00
0.23762	58.00
0.25428	58.00
0.27095	58.00
0.28762	58.00
0.30428	58.00
0.32095	58.00
0.33762	58.00
0.35428	58.00
0.37095	58.00
0.38762	58.00
0.40428	58.00
0.42095	58.00
0.43762	58.00
0.45428	58.00
0.47095	58.00
0.48762	58.00
0.50428	58.00
0.52095	58.00
0.53762	58.00
0.55428	58.00
0.57095	58.00
0.58762	58.00
0.60428	58.00
0.62095	58.00
0.63762	58.00
0.65428	58.00
0.67095	58.00
0.68762	58.00
0.70428	58.00
0.72095	58.00
0.73762	58.00
0.75428	58.00
0.77095	58.00
0.78762	58.00
0.80428	58.00
0.82095	58.00
0.83762	58.00
0.85428	58.00
0.87095	58.00
0.88762	58.00
0.90428	58.00
0.92095	58.00
0.93762	58.00
0.95428	58.00
0.97095	58.00
0.98762	58.00
1.00428	58.00
1.02095	58.00
1.03762	58.00
1.05428	58.00
1.07095	58.00
1.08762	58.00
1.10428	58.00
1.12095	58.00
1.13762	58.00
1.15428	58.00
1.17095	58.00
1.18762	58.00
1.20428	58.00
1.22095	58.00
1.23762	58.00
1.25428	58.00
1.27095	58.00
1.28762	58.00
1.30428	58.00
1.32095	58.00
1.33762	58.00
1.35428	58.00
1.37095	58.00
1.38762	58.00
1.40428	58.00
1.42095	58.00
1.43762	58.00
1.45428	58.00
1.47095	58.00
1.48762	58.00
1.50428	58.00
1.52095	58.00
1.53762	58.00
1.55428	58.00
1.57095	58.00
1.58762	58.00
1.60428	58.00
1.62095	58.00
1.63762	58.00
1.65428	58.00
1.67095	58.01
1.68762	58.01
1.70428	58.00
1.72095	58.00
1.73762	58.00
1.75428	58.00
1.77095	58.00
1.78762	58.00
1.80428	58.00
1.82095	58.00
1.83762	58.00
1.85428	58.00
1.87095	58.00
1.88762	58.00
1.90428	58.00
1.92095	58.00
1.93762	58.00
1.95428	58.00
1.97095	58.00
1.98762	58.00
2.00428	58.00
2.02095	58.00
2.03762	58.00
2.05428	58.00
2.07095	58.00
2.08762	58.00
2.10428	58.00
2.12095	58.00
2.13762	58.00
2.15428	58.00
2.17095	58.00
2.18762	58.00
2.20428	58.00
2.22095	58.00
2.23762	58.00
2.25428	58.00
2.27095	58.00
2.28762	58.00
2.30428	58.00
2.32095	58.00
2.33762	58.00
2.35428	58.00
2.37095	58.00
2.38762	57.99
2.40428	57.99
2.42095	58.00
2.43762	58.00
2.45428	58.00
2.47095	58.00
2.48762	58.00
2.50428	57.99
2.52095	57.99
2.53762	58.00
2.55428	58.00
2.57095	58.00
2.58762	58.00
2.60428	58.00
2.62095	58.00
2.63762	58.00
2.65428	58.00
2.67095	58.00
2.68762	58.00
2.70428	58.00
2.72095	58.00
2.73762	58.00
2.75428	58.00
2.77095	58.00
2.78762	58.00
2.80428	58.00
2.82095	58.00
2.83762	58.00
2.85428	58.00
2.87095	58.00
2.88762	58.00
2.90428	58.00
2.92095	58.00
2.93762	58.00
2.95428	58.00
2.97095	58.00
2.98762	58.00
3.00428	58.00
3.02095	58.00
3.03762	58.00
3.05428	58.00
3.07095	58.00
3.08762	58.00
3.10428	58.00
3.12095	58.00
3.13762	58.00
3.15428	58.00
3.17095	58.00
3.18762	58.00
3.20428	58.00
3.22095	58.00
3.23762	58.00
3.25428	58.00
3.27095	58.00
3.28762	58.00
3.30428	58.00
3.32095	58.00
3.33762	58.00
3.35428	58.00
3.37095	58.00
3.38762	58.00
3.40428	58.00
3.42095	58.00
3.43762	58.00
3.45428	58.00
3.47095	58.00
3.48762	58.00
3.50428	58.00
3.52095	58.00
3.53762	58.00
3.55428	58.00
3.57095	58.00
3.58762	58.00
3.60428	58.00
3.62095	58.00
3.63762	58.00
3.65428	58.00
3.67095	58.00
3.68762	58.00
3.70428	58.00
3.72095	58.00
3.73762	58.00
3.75428	58.00
3.77095	58.00
3.78762	58.00
3.80428	58.00
3.82095	58.00
3.83762	58.00
3.85428	58.00
3.87095	58.00
3.88762	58.00
3.90428	58.00
3.92095	58.00
3.93762	58.00
3.95428	58.00
3.97095	58.00
3.98762	58.00

[Status Trace (Carrier Gas Flow)]
Interval(msec)	1000
# of Points	240
Start Time(min)	0.004
End Time(min)	3.988
Intensity Units	
Intensity Multiplier	1
R.Time (min)	Intensity
0.00428	34.52
0.02095	34.55
0.03762	34.54
0.05428	34.55
0.07095	34.49
0.08762	34.52
0.10428	34.53
0.12095	34.52
0.13762	34.52
0.15428	34.51
0.17095	34.52
0.18762	34.52
0.20428	34.52
0.22095	34.51
0.23762	34.51
0.25428	34.52
0.27095	34.52
0.28762	34.51
0.30428	34.52
0.32095	34.52
0.33762	34.52
0.35428	34.51
0.37095	34.52
0.38762	34.52
0.40428	34.52
0.42095	34.52
0.43762	34.52
0.45428	34.52
0.47095	34.52
0.48762	34.51
0.50428	34.52
0.52095	34.52
0.53762	34.52
0.55428	34.52
0.57095	34.52
0.58762	34.52
0.60428	34.52
0.62095	34.51
0.63762	34.52
0.65428	34.51
0.67095	34.52
0.68762	34.53
0.70428	34.52
0.72095	34.52
0.73762	34.51
0.75428	34.51
0.77095	34.51
0.78762	34.52
0.80428	34.52
0.82095	34.51
0.83762	34.52
0.85428	34.52
0.87095	34.52
0.88762	34.52
0.90428	34.51
0.92095	34.52
0.93762	34.52
0.95428	34.51
0.97095	34.51
0.98762	34.52
1.00428	34.52
1.02095	34.51
1.03762	34.52
1.05428	34.52
1.07095	34.52
1.08762	34.52
1.10428	34.52
1.12095	34.52
1.13762	34.51
1.15428	34.52
1.17095	34.51
1.18762	34.52
1.20428	34.52
1.22095	34.51
1.23762	34.51
1.25428	34.52
1.27095	34.52
1.28762	34.52
1.30428	34.51
1.32095	34.52
1.33762	34.52
1.35428	34.52
1.37095	34.51
1.38762	34.52
1.40428	34.52
1.42095	34.52
1.43762	34.52
1.45428	34.52
1.47095	34.52
1.48762	34.52
1.50428	34.52
1.52095	34.52
1.53762	34.52
1.55428	34.53
1.57095	34.52
1.58762	34.52
1.60428	34.52
1.62095	34.52
1.63762	34.52
1.65428	34.52
1.67095	34.52
1.68762	34.52
1.70428	34.52
1.72095	34.52
1.73762	34.52
1.75428	34.52
1.77095	34.52
1.78762	34.52
1.80428	34.52
1.82095	34.52
1.83762	34.52
1.85428	34.51
1.87095	34.52
1.88762	34.53
1.90428	34.52
1.92095	34.52
1.93762	34.52
1.95428	34.52
1.97095	34.52
1.98762	34.52
2.00428	34.52
2.02095	34.52
2.03762	34.52
2.05428	34.52
2.07095	34.52
2.08762	34.52
2.10428	34.51
2.12095	34.52
2.13762	34.52
2.15428	34.52
2.17095	34.52
2.18762	34.52
2.20428	34.52
2.22095	34.51
2.23762	34.53
2.25428	34.52
2.27095	34.51
2.28762	34.51
2.30428	34.52
2.32095	34.53
2.33762	34.51
2.35428	34.52
2.37095	34.52
2.38762	34.51
2.40428	34.51
2.42095	34.52
2.43762	34.52
2.45428	34.52
2.47095	34.52
2.48762	34.51
2.50428	34.58
2.52095	34.52
2.53762	34.51
2.55428	34.52
2.57095	34.51
2.58762	34.52
2.60428	34.52
2.62095	34.52
2.63762	34.52
2.65428	34.52
2.67095	34.52
2.68762	34.52
2.70428	34.52
2.72095	34.51
2.73762	34.52
2.75428	34.52
2.77095	34.51
2.78762	34.52
2.80428	34.53
2.82095	34.52
2.83762	34.53
2.85428	34.51
2.87095	34.51
2.88762	34.51
2.90428	34.52
2.92095	34.52
2.93762	34.52
2.95428	34.53
2.97095	34.52
2.98762	34.51
3.00428	34.52
3.02095	34.52
3.03762	34.52
3.05428	34.52
3.07095	34.51
3.08762	34.52
3.10428	34.52
3.12095	34.51
3.13762	34.51
3.15428	34.52
3.17095	34.52
3.18762	34.52
3.20428	34.52
3.22095	34.52
3.23762	34.52
3.25428	34.52
3.27095	34.52
3.28762	34.52
3.30428	34.52
3.32095	34.52
3.33762	34.52
3.35428	34.52
3.37095	34.52
3.38762	34.52
3.40428	34.51
3.42095	34.52
3.43762	34.52
3.45428	34.52
3.47095	34.52
3.48762	34.52
3.50428	34.52
3.52095	34.51
3.53762	34.52
3.55428	34.52
3.57095	34.51
3.58762	34.52
3.60428	34.51
3.62095	34.52
3.63762	34.52
3.65428	34.52
3.67095	34.52
3.68762	34.52
3.70428	34.51
3.72095	34.52
3.73762	34.52
3.75428	34.52
3.77095	34.52
3.78762	34.52
3.80428	34.52
3.82095	34.52
3.83762	34.52
3.85428	34.52
3.87095	34.52
3.88762	34.52
3.90428	34.52
3.92095	34.52
3.93762	34.52
3.95428	34.52
3.97095	34.52
3.98762	34.52

[Status Trace (Column Flow)]
Interval(msec)	1000
# of Points	240
Start Time(min)	0.004
End Time(min)	3.988
Intensity Units	
Intensity Multiplier	1
R.Time (min)	Intensity
0.00428	5.51
0.02095	5.26
0.03762	5.34
0.05428	5.61
0.07095	5.71
0.08762	5.53
0.10428	5.51
0.12095	5.51
0.13762	5.51
0.15428	5.51
0.17095	5.51
0.18762	5.51
0.20428	5.51
0.22095	5.51
0.23762	5.51
0.25428	5.51
0.27095	5.51
0.28762	5.51
0.30428	5.51
0.32095	5.51
0.33762	5.51
0.35428	5.51
0.37095	5.51
0.38762	5.51
0.40428	5.51
0.42095	5.51
0.43762	5.51
0.45428	5.51
0.47095	5.51
0.48762	5.51
0.50428	5.51
0.52095	5.51
0.53762	5.51
0.55428	5.51
0.57095	5.51
0.58762	5.51
0.60428	5.51
0.62095	5.51
0.63762	5.51
0.65428	5.51
0.67095	5.51
0.68762	5.51
0.70428	5.51
0.72095	5.51
0.73762	5.51
0.75428	5.51
0.77095	5.51
0.78762	5.51
0.80428	5.51
0.82095	5.51
0.83762	5.51
0.85428	5.51
0.87095	5.51
0.88762	5.51
0.90428	5.51
0.92095	5.51
0.93762	5.51
0.95428	5.51
0.97095	5.51
0.98762	5.51
1.00428	5.51
1.02095	5.51
1.03762	5.51
1.05428	5.51
1.07095	5.51
1.08762	5.51
1.10428	5.51
1.12095	5.51
1.13762	5.51
1.15428	5.51
1.17095	5.51
1.18762	5.51
1.20428	5.51
1.22095	5.51
1.23762	5.51
1.25428	5.51
1.27095	5.51
1.28762	5.51
1.30428	5.51
1.32095	5.51
1.33762	5.51
1.35428	5.51
1.37095	5.51
1.38762	5.51
1.40428	5.51
1.42095	5.51
1.43762	5.51
1.45428	5.51
1.47095	5.51
1.48762	5.51
1.50428	5.51
1.52095	5.51
1.53762	5.51
1.55428	5.51
1.57095	5.51
1.58762	5.51
1.60428	5.51
1.62095	5.51
1.63762	5.50
1.65428	5.50
1.67095	5.49
1.68762	5.48
1.70428	5.46
1.72095	5.45
1.73762	5.44
1.75428	5.43
1.77095	5.42
1.78762	5.41
1.80428	5.40
1.82095	5.39
1.83762	5.38
1.85428	5.37
1.87095	5.36
1.88762	5.35
1.90428	5.34
1.92095	5.33
1.93762	5.32
1.95428	5.31
1.97095	5.30
1.98762	5.29
2.00428	5.28
2.02095	5.27
2.03762	5.26
2.05428	5.25
2.07095	5.25
2.08762	5.24
2.10428	5.23
2.12095	5.22
2.13762	5.21
2.15428	5.20
2.17095	5.19
2.18762	5.18
2.20428	5.17
2.22095	5.16
2.23762	5.15
2.25428	5.14
2.27095	5.13
2.28762	5.12
2.30428	5.11
2.32095	5.10
2.33762	5.10
2.35428	5.09
2.37095	5.08
2.38762	5.08
2.40428	5.08
2.42095	5.08
2.43762	5.08
2.45428	5.08
2.47095	5.08
2.48762	5.08
2.50428	5.08
2.52095	5.08
2.53762	5.08
2.55428	5.08
2.57095	5.08
2.58762	5.08
2.60428	5.08
2.62095	5.08
2.63762	5.08
2.65428	5.08
2.67095	5.07
2.68762	5.07
2.70428	5.07
2.72095	5.07
2.73762	5.07
2.75428	5.07
2.77095	5.07
2.78762	5.07
2.80428	5.07
2.82095	5.07
2.83762	5.07
2.85428	5.07
2.87095	5.07
2.88762	5.07
2.90428	5.07
2.92095	5.07
2.93762	5.07
2.95428	5.07
2.97095	5.07
2.98762	5.07
3.00428	5.07
3.02095	5.07
3.03762	5.07
3.05428	5.07
3.07095	5.07
3.08762	5.07
3.10428	5.07
3.12095	5.07
3.13762	5.07
3.15428	5.07
3.17095	5.07
3.18762	5.07
3.20428	5.07
3.22095	5.07
3.23762	5.07
3.25428	5.07
3.27095	5.07
3.28762	5.07
3.30428	5.07
3.32095	5.07
3.33762	5.07
3.35428	5.07
3.37095	5.07
3.38762	5.07
3.40428	5.07
3.42095	5.07
3.43762	5.07
3.45428	5.07
3.47095	5.07
3.48762	5.07
3.50428	5.07
3.52095	5.07
3.53762	5.07
3.55428	5.07
3.57095	5.07
3.58762	5.07
3.60428	5.07
3.62095	5.07
3.63762	5.07
3.65428	5.07
3.67095	5.07
3.68762	5.07
3.70428	5.07
3.72095	5.07
3.73762	5.07
3.75428	5.07
3.77095	5.07
3.78762	5.07
3.80428	5.07
3.82095	5.07
3.83762	5.07
3.85428	5.07
3.87095	5.07
3.88762	5.07
3.90428	5.07
3.92095	5.07
3.93762	5.07
3.95428	5.07
3.97095	5.07
3.98762	5.07

[Status Trace (Linear Velocity)]
Interval(msec)	1000
# of Points	240
Start Time(min)	0.004
End Time(min)	3.988
Intensity Units	
Intensity Multiplier	1
R.Time (min)	Intensity
0.00428	39.01
0.02095	37.61
0.03762	38.06
0.05428	39.55
0.07095	40.14
0.08762	39.14
0.10428	38.99
0.12095	39.02
0.13762	39.02
0.15428	39.02
0.17095	39.01
0.18762	39.01
0.20428	39.01
0.22095	39.01
0.23762	39.01
0.25428	39.01
0.27095	39.01
0.28762	39.01
0.30428	39.01
0.32095	39.01
0.33762	39.01
0.35428	39.01
0.37095	39.01
0.38762	39.01
0.40428	39.01
0.42095	39.01
0.43762	39.01
0.45428	39.01
0.47095	39.01
0.48762	39.01
0.50428	39.01
0.52095	39.01
0.53762	39.01
0.55428	39.01
0.57095	39.01
0.58762	39.01
0.60428	39.01
0.62095	39.01
0.63762	39.01
0.65428	39.01
0.67095	39.01
0.68762	39.01
0.70428	39.01
0.72095	39.02
0.73762	39.02
0.75428	39.02
0.77095	39.02
0.78762	39.02
0.80428	39.02
0.82095	39.01
0.83762	39.01
0.85428	39.01
0.87095	39.01
0.88762	39.01
0.90428	39.01
0.92095	39.01
0.93762	39.01
0.95428	39.01
0.97095	39.01
0.98762	39.01
1.00428	39.01
1.02095	39.01
1.03762	39.01
1.05428	39.01
1.07095	39.01
1.08762	39.01
1.10428	39.01
1.12095	39.02
1.13762	39.02
1.15428	39.02
1.17095	39.02
1.18762	39.02
1.20428	39.02
1.22095	39.02
1.23762	39.02
1.25428	39.02
1.27095	39.02
1.28762	39.02
1.30428	39.01
1.32095	39.01
1.33762	39.01
1.35428	39.01
1.37095	39.01
1.38762	39.01
1.40428	39.02
1.42095	39.02
1.43762	39.02
1.45428	39.02
1.47095	39.02
1.48762	39.02
1.50428	39.02
1.52095	39.01
1.53762	39.01
1.55428	39.01
1.57095	39.01
1.58762	39.01
1.60428	39.01
1.62095	39.00
1.63762	38.99
1.65428	38.96
1.67095	38.93
1.68762	38.90
1.70428	38.86
1.72095	38.83
1.73762	38.80
1.75428	38.76
1.77095	38.73
1.78762	38.71
1.80428	38.67
1.82095	38.64
1.83762	38.61
1.85428	38.58
1.87095	38.55
1.88762	38.52
1.90428	38.49
1.92095	38.45
1.93762	38.43
1.95428	38.39
1.97095	38.36
1.98762	38.34
2.00428	38.30
2.02095	38.27
2.03762	38.24
2.05428	38.21
2.07095	38.19
2.08762	38.16
2.10428	38.12
2.12095	38.09
2.13762	38.07
2.15428	38.03
2.17095	38.00
2.18762	37.98
2.20428	37.95
2.22095	37.92
2.23762	37.89
2.25428	37.86
2.27095	37.83
2.28762	37.80
2.30428	37.77
2.32095	37.74
2.33762	37.71
2.35428	37.68
2.37095	37.66
2.38762	37.65
2.40428	37.65
2.42095	37.66
2.43762	37.66
2.45428	37.66
2.47095	37.66
2.48762	37.66
2.50428	37.65
2.52095	37.65
2.53762	37.65
2.55428	37.66
2.57095	37.65
2.58762	37.65
2.60428	37.65
2.62095	37.65
2.63762	37.65
2.65428	37.65
2.67095	37.64
2.68762	37.64
2.70428	37.64
2.72095	37.64
2.73762	37.64
2.75428	37.65
2.77095	37.64
2.78762	37.64
2.80428	37.64
2.82095	37.64
2.83762	37.64
2.85428	37.64
2.87095	37.64
2.88762	37.64
2.90428	37.64
2.92095	37.64
2.93762	37.64
2.95428	37.64
2.97095	37.64
2.98762	37.64
3.00428	37.63
3.02095	37.63
3.03762	37.63
3.05428	37.63
3.07095	37.63
3.08762	37.63
3.10428	37.63
3.12095	37.63
3.13762	37.63
3.15428	37.63
3.17095	37.63
3.18762	37.63
3.20428	37.63
3.22095	37.62
3.23762	37.62
3.25428	37.62
3.27095	37.62
3.28762	37.62
3.30428	37.62
3.32095	37.62
3.33762	37.62
3.35428	37.62
3.37095	37.62
3.38762	37.62
3.40428	37.62
3.42095	37.62
3.43762	37.62
3.45428	37.63
3.47095	37.63
3.48762	37.63
3.50428	37.63
3.52095	37.63
3.53762	37.63
3.55428	37.63
3.57095	37.63
3.58762	37.63
3.60428	37.63
3.62095	37.63
3.63762	37.63
3.65428	37.63
3.67095	37.63
3.68762	37.63
3.70428	37.63
3.72095	37.63
3.73762	37.63
3.75428	37.63
3.77095	37.63
3.78762	37.63
3.80428	37.63
3.82095	37.63
3.83762	37.63
3.85428	37.63
3.87095	37.63
3.88762	37.63
3.90428	37.63
3.92095	37.63
3.93762	37.63
3.95428	37.63
3.97095	37.62
3.98762	37.62

