[Header]
Application Name	LabSolutions
Version	5.110
Data File Name	C:\Users\User\Desktop\GC Analyses\Jack\Nachusa Grasslands Sampling\T2 Timepoint July 12th\T2_07122022_064.gcd
Output Date	3/14/2023
Output Time	3:42:34 PM

[File Information]
Type	Data File
Generated	3/10/2023 7:33:24 PM
Generated by	System Administrator
Modified	3/10/2023 7:40:10 PM
Modified by	System Administrator

[Sample Information]
Operator Name	System Administrator
Acquired	3/10/2023 7:36:09 PM
Sample Type	0:Unknown
Level	0
Sample Name	064
Sample ID	064
ISTD Amount1	1
ISTD Amount2	1
ISTD Amount3	1
ISTD Amount4	1
ISTD Amount5	1
ISTD Amount6	1
ISTD Amount7	1
ISTD Amount8	1
ISTD Amount9	1
ISTD Amount10	1
ISTD Amount11	1
ISTD Amount12	1
ISTD Amount13	1
ISTD Amount14	1
ISTD Amount15	1
ISTD Amount16	1
ISTD Amount17	1
ISTD Amount18	1
ISTD Amount19	1
ISTD Amount20	1
ISTD Amount21	1
ISTD Amount22	1
ISTD Amount23	1
ISTD Amount24	1
ISTD Amount25	1
ISTD Amount26	1
ISTD Amount27	1
ISTD Amount28	1
ISTD Amount29	1
ISTD Amount30	1
ISTD Amount31	1
ISTD Amount32	1
Sample Amount	1
Dilution Factor	1
Vial#	63
Injection Volume	1
Injection Count	1
Bar Code	

[Original Files]
Data File	C:\Users\User\Desktop\GC Analyses\Jack\Nachusa Grasslands Sampling\T1 Timepoint July 12th\T2_07122022_064.gcd
Method File	C:\LabSolutions\Data\GHG_4min_2022\ghg3_togas_w_acet_4 min_new_int.gcm
Batch File	C:\LabSolutions\Data\AutoSamplerTesting\T2_07122022.gcb
Report Format File	c:\LabSolutions\System\DEFAULT.lsr

[File Description]


[Configuration]
Instrument Name	C0B7VH3-Instrument1
Instrument #	1
Line #	1
# of Detectors	3
Detector ID	DET#1	DET#2	DET#3
Detector Name	FID	PTCD	ECD
# of Channels	1	1	1

[Peak Table(Ch1)]
# of Peaks	3
Peak#	R.Time	I.Time	F.Time	Area	Height	A/H	Conc.	Mark	ID#	Name	k'	Plate #	Plate Ht.	Tailing	Resolution	Sep.Factor	Area Ratio	Height Ratio	Conc. %	Norm Conc.
1	1.476	1.439	1.538	25091	11906	2.107	177.141	   	1	CO	0.000	9217	16.275	1.276	0.000	0.000	0	0	24.764	24.764
2	1.567	1.538	1.626	4665	2315	2.016	90.210	 V 	2	CH4	0.062	10414	14.403	0.000	1.492	0.000	0	0	12.611	12.611
3	1.996	1.949	2.495	1784898	852241	2.094	447.961	   	3	CO2	0.353	17654	8.497	1.248	7.060	5.680	0	0	62.625	62.625

[Peak Table(Ch2)]
# of Peaks	0

[Peak Table(Ch3)]
# of Peaks	4
Peak#	R.Time	I.Time	F.Time	Area	Height	A/H	Conc.	Mark	ID#	Name	k'	Plate #	Plate Ht.	Tailing	Resolution	Sep.Factor	Area Ratio	Height Ratio	Conc. %	Norm Conc.
1	2.462	2.312	2.510	2173	656	3.313	0.000	   			0.000	8958	16.745	0.000	0.000	0.000	0	0	0.000	0.000
2	2.532	2.510	2.719	2182	389	5.603	0.000	 V 			0.028	4465	33.595	0.000	0.545	0.000	0	0	0.000	0.000
3	2.876	2.719	3.122	19848	4924	4.031	0.507	 V 	1	N2O	0.168	12964	11.571	1.668	2.729	5.947	0	0	100.000	100.000
4	3.338	3.129	3.995	15748	513	30.704	0.000	   	2	SF6	0.356	230	653.197	2.044	0.941	2.115	0	0	0.000	0.000

[Compound Results(Ch1)]
# of IDs	6
ID#	Name	R.Time	Area	Height	Conc.	Curve	3rd	2nd	1st	Constant	Area Ratio	Height Ratio	Conc. %	Norm Conc.
1	CO	1.476	25091	11906	177.141	Linear	0.000000e+00	0.000000e+00	1.416423e+002	0.000000e+00	0	0	24.764	24.764
2	CH4	1.567	4665	2315	90.210	Linear	0.000000e+00	0.000000e+00	5.171738e+001	0.000000e+00	0	0	12.611	12.611
3	CO2	1.996	1784898	852241	447.961	Linear	0.000000e+00	0.000000e+00	3.984494e+003	0.000000e+00	0	0	62.625	62.625
4	Ethylene	0.000	0	0	0.000	Linear	0.000000e+00	0.000000e+00	0.000000e+00	0.000000e+00	0	0	0.000	0.000
5	Acetylene	0.000	0	0	0.000	Linear	0.000000e+00	0.000000e+00	0.000000e+00	0.000000e+00	0	0	0.000	0.000
6	Ethane	0.000	0	0	0.000	Linear	0.000000e+00	0.000000e+00	0.000000e+00	0.000000e+00	0	0	0.000	0.000

[Compound Results(Ch2)]
# of IDs	5
ID#	Name	R.Time	Area	Height	Conc.	Curve	3rd	2nd	1st	Constant	Area Ratio	Height Ratio	Conc. %	Norm Conc.
1	Hydrogen	0.000	0	0	0.000	Linear	0.000000e+00	0.000000e+00	0.000000e+00	0.000000e+00	0	0	0.000	0.000
2	Oxygen	0.000	0	0	0.000	Linear	0.000000e+00	0.000000e+00	0.000000e+00	0.000000e+00	0	0	0.000	0.000
3	Nitrogen	0.000	0	0	0.000	Linear	0.000000e+00	0.000000e+00	0.000000e+00	0.000000e+00	0	0	0.000	0.000
4	Methane	0.000	0	0	0.000	Linear	0.000000e+00	0.000000e+00	0.000000e+00	0.000000e+00	0	0	0.000	0.000
5	Carbon Monoxide	0.000	0	0	0.000	Linear	0.000000e+00	0.000000e+00	0.000000e+00	0.000000e+00	0	0	0.000	0.000

[Compound Results(Ch3)]
# of IDs	2
ID#	Name	R.Time	Area	Height	Conc.	Curve	3rd	2nd	1st	Constant	Area Ratio	Height Ratio	Conc. %	Norm Conc.
1	N2O	2.876	19848	4924	0.507	Linear	0.000000e+00	0.000000e+00	3.915173e+004	0.000000e+00	0	0	100.000	100.000
2	SF6	3.338	15748	513	0.000	Linear	0.000000e+00	0.000000e+00	0.000000e+00	0.000000e+00	0	0	0.000	0.000

[Group Results(Ch1)]
# of Groups	0

[Group Results(Ch2)]
# of Groups	0

[Group Results(Ch3)]
# of Groups	0

[Chromatogram (Ch1)]
Interval(msec)	220
# of Points	1091
Start Time(min)	0.002
End Time(min)	3.998
R.Time (min)	Intensity
0.00167	19
0.00533	33
0.00900	42
0.01267	42
0.01633	38
0.02000	32
0.02367	25
0.02733	22
0.03100	21
0.03467	22
0.03833	22
0.04200	23
0.04567	24
0.04933	26
0.05300	26
0.05667	27
0.06033	27
0.06400	28
0.06767	31
0.07133	34
0.07500	31
0.07867	25
0.08233	20
0.08600	24
0.08967	36
0.09333	49
0.09700	64
0.10067	76
0.10433	76
0.10800	65
0.11167	48
0.11533	31
0.11900	20
0.12267	14
0.12633	8
0.13000	6
0.13367	8
0.13733	15
0.14100	23
0.14467	28
0.14833	36
0.15200	45
0.15567	52
0.15933	57
0.16300	57
0.16667	52
0.17033	47
0.17400	45
0.17767	44
0.18133	46
0.18500	46
0.18867	40
0.19233	37
0.19600	39
0.19967	44
0.20333	49
0.20700	52
0.21067	54
0.21433	58
0.21800	63
0.22167	67
0.22533	72
0.22900	80
0.23267	87
0.23633	86
0.24000	81
0.24367	76
0.24733	73
0.25100	69
0.25467	64
0.25833	56
0.26200	46
0.26567	39
0.26933	34
0.27300	32
0.27667	36
0.28033	43
0.28400	52
0.28767	62
0.29133	73
0.29500	81
0.29867	83
0.30233	78
0.30600	71
0.30967	64
0.31333	58
0.31700	51
0.32067	43
0.32433	38
0.32800	36
0.33167	35
0.33533	34
0.33900	31
0.34267	26
0.34633	21
0.35000	18
0.35367	18
0.35733	20
0.36100	22
0.36467	27
0.36833	38
0.37200	47
0.37567	51
0.37933	48
0.38300	42
0.38667	35
0.39033	29
0.39400	21
0.39767	15
0.40133	15
0.40500	20
0.40867	25
0.41233	27
0.41600	30
0.41967	34
0.42333	38
0.42700	36
0.43067	33
0.43433	33
0.43800	35
0.44167	41
0.44533	47
0.44900	47
0.45267	40
0.45633	32
0.46000	29
0.46367	28
0.46733	28
0.47100	29
0.47467	31
0.47833	33
0.48200	40
0.48567	43
0.48933	43
0.49300	40
0.49667	37
0.50033	33
0.50400	28
0.50767	26
0.51133	21
0.51500	16
0.51867	15
0.52233	14
0.52600	15
0.52967	16
0.53333	16
0.53700	16
0.54067	19
0.54433	20
0.54800	20
0.55167	15
0.55533	6
0.55900	-2
0.56267	-6
0.56633	-2
0.57000	8
0.57367	20
0.57733	29
0.58100	32
0.58467	31
0.58833	32
0.59200	31
0.59567	32
0.59933	30
0.60300	27
0.60667	21
0.61033	14
0.61400	12
0.61767	16
0.62133	20
0.62500	19
0.62867	15
0.63233	7
0.63600	5
0.63967	9
0.64333	16
0.64700	20
0.65067	20
0.65433	18
0.65800	18
0.66167	14
0.66533	12
0.66900	13
0.67267	17
0.67633	18
0.68000	17
0.68367	17
0.68733	17
0.69100	14
0.69467	8
0.69833	4
0.70200	4
0.70567	9
0.70933	16
0.71300	26
0.71667	37
0.72033	45
0.72400	44
0.72767	38
0.73133	33
0.73500	24
0.73867	14
0.74233	5
0.74600	-3
0.74967	-9
0.75333	-15
0.75700	-19
0.76067	-18
0.76433	-15
0.76800	-12
0.77167	-8
0.77533	-1
0.77900	7
0.78267	16
0.78633	23
0.79000	26
0.79367	25
0.79733	21
0.80100	14
0.80467	6
0.80833	-2
0.81200	-6
0.81567	-3
0.81933	8
0.82300	20
0.82667	27
0.83033	27
0.83400	15
0.83767	0
0.84133	-7
0.84500	-12
0.84867	-15
0.85233	-15
0.85600	-16
0.85967	-14
0.86333	-6
0.86700	4
0.87067	15
0.87433	20
0.87800	16
0.88167	7
0.88533	0
0.88900	-3
0.89267	-4
0.89633	-1
0.90000	1
0.90367	0
0.90733	-1
0.91100	-1
0.91467	1
0.91833	3
0.92200	5
0.92567	4
0.92933	2
0.93300	-2
0.93667	-3
0.94033	-4
0.94400	-3
0.94767	-3
0.95133	-7
0.95500	-10
0.95867	-7
0.96233	-1
0.96600	1
0.96967	-2
0.97333	-8
0.97700	-13
0.98067	-18
0.98433	-18
0.98800	-9
0.99167	-2
0.99533	2
0.99900	8
1.00267	17
1.00633	24
1.01000	25
1.01367	26
1.01733	24
1.02100	22
1.02467	23
1.02833	25
1.03200	29
1.03567	31
1.03933	28
1.04300	27
1.04667	26
1.05033	22
1.05400	19
1.05767	15
1.06133	9
1.06500	8
1.06867	12
1.07233	10
1.07600	10
1.07967	16
1.08333	24
1.08700	30
1.09067	30
1.09433	27
1.09800	25
1.10167	24
1.10533	20
1.10900	17
1.11267	17
1.11633	17
1.12000	13
1.12367	7
1.12733	1
1.13100	1
1.13467	5
1.13833	8
1.14200	7
1.14567	6
1.14933	6
1.15300	6
1.15667	9
1.16033	13
1.16400	17
1.16767	19
1.17133	19
1.17500	20
1.17867	17
1.18233	13
1.18600	8
1.18967	5
1.19333	6
1.19700	10
1.20067	11
1.20433	10
1.20800	9
1.21167	6
1.21533	5
1.21900	5
1.22267	2
1.22633	-3
1.23000	-6
1.23367	-10
1.23733	-12
1.24100	-11
1.24467	-10
1.24833	-1
1.25200	14
1.25567	25
1.25933	25
1.26300	19
1.26667	12
1.27033	4
1.27400	-2
1.27767	-7
1.28133	-9
1.28500	-8
1.28867	-7
1.29233	-9
1.29600	-9
1.29967	-3
1.30333	7
1.30700	14
1.31067	17
1.31433	18
1.31800	19
1.32167	21
1.32533	21
1.32900	19
1.33267	17
1.33633	14
1.34000	11
1.34367	8
1.34733	4
1.35100	0
1.35467	0
1.35833	5
1.36200	6
1.36567	-1
1.36933	-12
1.37300	-22
1.37667	-31
1.38033	-36
1.38400	-35
1.38767	-31
1.39133	-27
1.39500	-26
1.39867	-28
1.40233	-28
1.40600	-24
1.40967	-20
1.41333	-18
1.41700	-17
1.42067	-9
1.42433	-0
1.42800	0
1.43167	-7
1.43533	-10
1.43900	17
1.44267	131
1.44633	395
1.45000	1023
1.45367	2359
1.45733	4395
1.46100	6702
1.46467	8816
1.46833	10475
1.47200	11549
1.47567	11925
1.47933	11511
1.48300	10359
1.48667	8711
1.49033	6909
1.49400	5249
1.49767	3871
1.50133	2804
1.50500	2013
1.50867	1445
1.51233	1047
1.51600	776
1.51967	595
1.52333	469
1.52700	373
1.53067	300
1.53433	253
1.53800	246
1.54167	314
1.54533	514
1.54900	856
1.55267	1275
1.55633	1679
1.56000	2011
1.56367	2239
1.56733	2339
1.57100	2278
1.57467	2049
1.57833	1701
1.58200	1316
1.58567	964
1.58933	685
1.59300	478
1.59667	328
1.60033	223
1.60400	149
1.60767	100
1.61133	68
1.61500	48
1.61867	38
1.62233	33
1.62600	28
1.62967	22
1.63333	18
1.63700	15
1.64067	13
1.64433	10
1.64800	9
1.65167	8
1.65533	9
1.65900	9
1.66267	11
1.66633	13
1.67000	12
1.67367	6
1.67733	-2
1.68100	-9
1.68467	-12
1.68833	-11
1.69200	-7
1.69567	-2
1.69933	4
1.70300	5
1.70667	0
1.71033	-4
1.71400	-4
1.71767	-6
1.72133	-4
1.72500	1
1.72867	-3
1.73233	-15
1.73600	-28
1.73967	-40
1.74333	-48
1.74700	-52
1.75067	-50
1.75433	-47
1.75800	-46
1.76167	-48
1.76533	-48
1.76900	-48
1.77267	-47
1.77633	-45
1.78000	-45
1.78367	-47
1.78733	-48
1.79100	-44
1.79467	-37
1.79833	-30
1.80200	-24
1.80567	-24
1.80933	-28
1.81300	-34
1.81667	-34
1.82033	-29
1.82400	-25
1.82767	-20
1.83133	-19
1.83500	-26
1.83867	-30
1.84233	-32
1.84600	-35
1.84967	-39
1.85333	-38
1.85700	-32
1.86067	-25
1.86433	-19
1.86800	-14
1.87167	-9
1.87533	-4
1.87900	-3
1.88267	-2
1.88633	-4
1.89000	-14
1.89367	-23
1.89733	-26
1.90100	-27
1.90467	-29
1.90833	-31
1.91200	-35
1.91567	-37
1.91933	-37
1.92300	-32
1.92667	-27
1.93033	-25
1.93400	-26
1.93767	-30
1.94133	-32
1.94500	-32
1.94867	-26
1.95233	9
1.95600	243
1.95967	1551
1.96333	7087
1.96700	24853
1.97067	68803
1.97433	153348
1.97800	281842
1.98167	439486
1.98533	599382
1.98900	734180
1.99267	822665
1.99633	852256
2.00000	821002
2.00367	738016
2.00733	621731
2.01100	494280
2.01467	374383
2.01833	273214
2.02200	194339
2.02567	136237
2.02933	95096
2.03300	66715
2.03667	47435
2.04033	34427
2.04400	25646
2.04767	19675
2.05133	15562
2.05500	12679
2.05867	10612
2.06233	9085
2.06600	7926
2.06967	7027
2.07333	6316
2.07700	5741
2.08067	5267
2.08433	4867
2.08800	4525
2.09167	4228
2.09533	3962
2.09900	3725
2.10267	3515
2.10633	3331
2.11000	3163
2.11367	3009
2.11733	2865
2.12100	2736
2.12467	2620
2.12833	2514
2.13200	2417
2.13567	2329
2.13933	2245
2.14300	2164
2.14667	2087
2.15033	2014
2.15400	1945
2.15767	1878
2.16133	1818
2.16500	1766
2.16867	1718
2.17233	1668
2.17600	1617
2.17967	1566
2.18333	1520
2.18700	1479
2.19067	1436
2.19433	1396
2.19800	1360
2.20167	1326
2.20533	1293
2.20900	1259
2.21267	1223
2.21633	1188
2.22000	1154
2.22367	1126
2.22733	1100
2.23100	1077
2.23467	1054
2.23833	1029
2.24200	1005
2.24567	988
2.24933	974
2.25300	956
2.25667	935
2.26033	915
2.26400	895
2.26767	874
2.27133	855
2.27500	838
2.27867	824
2.28233	813
2.28600	801
2.28967	791
2.29333	785
2.29700	782
2.30067	777
2.30433	769
2.30800	757
2.31167	740
2.31533	723
2.31900	707
2.32267	694
2.32633	677
2.33000	668
2.33367	664
2.33733	656
2.34100	649
2.34467	644
2.34833	638
2.35200	633
2.35567	626
2.35933	616
2.36300	605
2.36667	597
2.37033	590
2.37400	578
2.37767	563
2.38133	548
2.38500	540
2.38867	539
2.39233	541
2.39600	541
2.39967	537
2.40333	530
2.40700	524
2.41067	520
2.41433	517
2.41800	513
2.42167	511
2.42533	508
2.42900	503
2.43267	499
2.43633	498
2.44000	497
2.44367	490
2.44733	475
2.45100	461
2.45467	453
2.45833	449
2.46200	449
2.46567	453
2.46933	453
2.47300	447
2.47667	441
2.48033	438
2.48400	440
2.48767	443
2.49133	443
2.49500	445
2.49867	449
2.50233	448
2.50600	443
2.50967	437
2.51333	430
2.51700	424
2.52067	413
2.52433	401
2.52800	393
2.53167	387
2.53533	384
2.53900	383
2.54267	381
2.54633	382
2.55000	387
2.55367	393
2.55733	393
2.56100	387
2.56467	384
2.56833	386
2.57200	388
2.57567	388
2.57933	387
2.58300	381
2.58667	372
2.59033	370
2.59400	372
2.59767	372
2.60133	369
2.60500	368
2.60867	371
2.61233	373
2.61600	376
2.61967	376
2.62333	366
2.62700	359
2.63067	361
2.63433	365
2.63800	366
2.64167	362
2.64533	362
2.64900	369
2.65267	382
2.65633	397
2.66000	405
2.66367	401
2.66733	394
2.67100	383
2.67467	373
2.67833	361
2.68200	347
2.68567	328
2.68933	309
2.69300	294
2.69667	285
2.70033	286
2.70400	292
2.70767	300
2.71133	307
2.71500	315
2.71867	325
2.72233	336
2.72600	347
2.72967	355
2.73333	356
2.73700	352
2.74067	351
2.74433	350
2.74800	351
2.75167	350
2.75533	345
2.75900	339
2.76267	340
2.76633	341
2.77000	342
2.77367	346
2.77733	346
2.78100	338
2.78467	334
2.78833	339
2.79200	345
2.79567	346
2.79933	345
2.80300	345
2.80667	343
2.81033	342
2.81400	343
2.81767	347
2.82133	351
2.82500	353
2.82867	351
2.83233	346
2.83600	344
2.83967	345
2.84333	346
2.84700	344
2.85067	339
2.85433	338
2.85800	340
2.86167	344
2.86533	342
2.86900	337
2.87267	333
2.87633	327
2.88000	324
2.88367	321
2.88733	319
2.89100	320
2.89467	325
2.89833	330
2.90200	333
2.90567	336
2.90933	340
2.91300	339
2.91667	335
2.92033	333
2.92400	329
2.92767	329
2.93133	329
2.93500	328
2.93867	326
2.94233	324
2.94600	325
2.94967	329
2.95333	336
2.95700	342
2.96067	344
2.96433	344
2.96800	347
2.97167	348
2.97533	347
2.97900	345
2.98267	343
2.98633	342
2.99000	340
2.99367	337
2.99733	335
3.00100	336
3.00467	341
3.00833	345
3.01200	349
3.01567	354
3.01933	354
3.02300	347
3.02667	344
3.03033	338
3.03400	334
3.03767	329
3.04133	326
3.04500	324
3.04867	328
3.05233	331
3.05600	328
3.05967	322
3.06333	314
3.06700	306
3.07067	302
3.07433	302
3.07800	302
3.08167	305
3.08533	312
3.08900	321
3.09267	327
3.09633	325
3.10000	322
3.10367	317
3.10733	315
3.11100	316
3.11467	315
3.11833	315
3.12200	317
3.12567	318
3.12933	316
3.13300	315
3.13667	316
3.14033	317
3.14400	314
3.14767	312
3.15133	313
3.15500	317
3.15867	323
3.16233	327
3.16600	330
3.16967	329
3.17333	322
3.17700	315
3.18067	311
3.18433	310
3.18800	308
3.19167	305
3.19533	302
3.19900	300
3.20267	302
3.20633	302
3.21000	303
3.21367	303
3.21733	294
3.22100	283
3.22467	275
3.22833	270
3.23200	268
3.23567	270
3.23933	275
3.24300	278
3.24667	283
3.25033	286
3.25400	283
3.25767	281
3.26133	283
3.26500	286
3.26867	284
3.27233	281
3.27600	281
3.27967	283
3.28333	283
3.28700	282
3.29067	281
3.29433	281
3.29800	279
3.30167	275
3.30533	269
3.30900	262
3.31267	256
3.31633	252
3.32000	253
3.32367	257
3.32733	265
3.33100	273
3.33467	281
3.33833	283
3.34200	283
3.34567	283
3.34933	284
3.35300	282
3.35667	280
3.36033	275
3.36400	268
3.36767	265
3.37133	266
3.37500	274
3.37867	277
3.38233	272
3.38600	266
3.38967	257
3.39333	255
3.39700	254
3.40067	251
3.40433	250
3.40800	253
3.41167	252
3.41533	250
3.41900	251
3.42267	249
3.42633	243
3.43000	238
3.43367	234
3.43733	232
3.44100	231
3.44467	237
3.44833	245
3.45200	254
3.45567	263
3.45933	264
3.46300	260
3.46667	252
3.47033	245
3.47400	238
3.47767	230
3.48133	224
3.48500	222
3.48867	224
3.49233	233
3.49600	239
3.49967	239
3.50333	242
3.50700	250
3.51067	259
3.51433	261
3.51800	262
3.52167	260
3.52533	255
3.52900	251
3.53267	251
3.53633	253
3.54000	253
3.54367	242
3.54733	228
3.55100	214
3.55467	205
3.55833	206
3.56200	211
3.56567	219
3.56933	226
3.57300	230
3.57667	230
3.58033	226
3.58400	221
3.58767	214
3.59133	216
3.59500	218
3.59867	215
3.60233	211
3.60600	207
3.60967	207
3.61333	211
3.61700	219
3.62067	226
3.62433	230
3.62800	232
3.63167	233
3.63533	233
3.63900	232
3.64267	228
3.64633	226
3.65000	232
3.65367	243
3.65733	251
3.66100	250
3.66467	242
3.66833	230
3.67200	219
3.67567	213
3.67933	210
3.68300	207
3.68667	208
3.69033	211
3.69400	212
3.69767	211
3.70133	208
3.70500	201
3.70867	196
3.71233	192
3.71600	192
3.71967	196
3.72333	201
3.72700	207
3.73067	214
3.73433	219
3.73800	222
3.74167	223
3.74533	223
3.74900	228
3.75267	234
3.75633	231
3.76000	221
3.76367	211
3.76733	205
3.77100	200
3.77467	193
3.77833	188
3.78200	184
3.78567	181
3.78933	182
3.79300	187
3.79667	194
3.80033	199
3.80400	201
3.80767	202
3.81133	205
3.81500	209
3.81867	216
3.82233	221
3.82600	217
3.82967	209
3.83333	200
3.83700	195
3.84067	192
3.84433	191
3.84800	192
3.85167	195
3.85533	198
3.85900	201
3.86267	200
3.86633	198
3.87000	196
3.87367	196
3.87733	197
3.88100	196
3.88467	194
3.88833	190
3.89200	184
3.89567	180
3.89933	182
3.90300	191
3.90667	199
3.91033	201
3.91400	199
3.91767	197
3.92133	193
3.92500	189
3.92867	184
3.93233	183
3.93600	184
3.93967	184
3.94333	187
3.94700	194
3.95067	198
3.95433	195
3.95800	186
3.96167	179
3.96533	180
3.96900	184
3.97267	184
3.97633	182
3.98000	180
3.98367	180
3.98733	183
3.99100	189
3.99467	198
3.99833	205

[Chromatogram (Ch2)]
Interval(msec)	220
# of Points	1091
Start Time(min)	0.002
End Time(min)	3.998
R.Time (min)	Intensity
0.00167	0
0.00533	-0
0.00900	-1
0.01267	-1
0.01633	-2
0.02000	-2
0.02367	-3
0.02733	-3
0.03100	-4
0.03467	-4
0.03833	-4
0.04200	-4
0.04567	-3
0.04933	-3
0.05300	-3
0.05667	-3
0.06033	-3
0.06400	-3
0.06767	-3
0.07133	-3
0.07500	-3
0.07867	-3
0.08233	-2
0.08600	-2
0.08967	-1
0.09333	-1
0.09700	-1
0.10067	-0
0.10433	0
0.10800	1
0.11167	1
0.11533	1
0.11900	2
0.12267	2
0.12633	2
0.13000	1
0.13367	1
0.13733	1
0.14100	2
0.14467	1
0.14833	1
0.15200	0
0.15567	-0
0.15933	-0
0.16300	-1
0.16667	-1
0.17033	-1
0.17400	-2
0.17767	-2
0.18133	-3
0.18500	-4
0.18867	-4
0.19233	-4
0.19600	-4
0.19967	-5
0.20333	-5
0.20700	-5
0.21067	-5
0.21433	-5
0.21800	-5
0.22167	-4
0.22533	-4
0.22900	-4
0.23267	-3
0.23633	-3
0.24000	-3
0.24367	-2
0.24733	-2
0.25100	-2
0.25467	-1
0.25833	-1
0.26200	-1
0.26567	-1
0.26933	-1
0.27300	-1
0.27667	-1
0.28033	-1
0.28400	-1
0.28767	-2
0.29133	-2
0.29500	-2
0.29867	-2
0.30233	-1
0.30600	-1
0.30967	-1
0.31333	-1
0.31700	-1
0.32067	-1
0.32433	-2
0.32800	-2
0.33167	-2
0.33533	-3
0.33900	-3
0.34267	-3
0.34633	-4
0.35000	-4
0.35367	-4
0.35733	-5
0.36100	-5
0.36467	-5
0.36833	-5
0.37200	-5
0.37567	-5
0.37933	-5
0.38300	-5
0.38667	-5
0.39033	-5
0.39400	-5
0.39767	-4
0.40133	-4
0.40500	-4
0.40867	-3
0.41233	-3
0.41600	-3
0.41967	-3
0.42333	-3
0.42700	-3
0.43067	-3
0.43433	-3
0.43800	-4
0.44167	-4
0.44533	-4
0.44900	-4
0.45267	-4
0.45633	-4
0.46000	-5
0.46367	-5
0.46733	-4
0.47100	-4
0.47467	-4
0.47833	-3
0.48200	-3
0.48567	-2
0.48933	-2
0.49300	-2
0.49667	-2
0.50033	-1
0.50400	-1
0.50767	-1
0.51133	-1
0.51500	-1
0.51867	-1
0.52233	-1
0.52600	-1
0.52967	-1
0.53333	-1
0.53700	-0
0.54067	-0
0.54433	-0
0.54800	0
0.55167	0
0.55533	0
0.55900	0
0.56267	-0
0.56633	-0
0.57000	-0
0.57367	-0
0.57733	-1
0.58100	-1
0.58467	-1
0.58833	-1
0.59200	-1
0.59567	-1
0.59933	-2
0.60300	-2
0.60667	-2
0.61033	-2
0.61400	-3
0.61767	-3
0.62133	-3
0.62500	-4
0.62867	-4
0.63233	-4
0.63600	-4
0.63967	-5
0.64333	-5
0.64700	-5
0.65067	-5
0.65433	-5
0.65800	-5
0.66167	-5
0.66533	-4
0.66900	-4
0.67267	-4
0.67633	-4
0.68000	-4
0.68367	-4
0.68733	-4
0.69100	-4
0.69467	-4
0.69833	-4
0.70200	-4
0.70567	-4
0.70933	-4
0.71300	-4
0.71667	-3
0.72033	-4
0.72400	-4
0.72767	-4
0.73133	-4
0.73500	-4
0.73867	-4
0.74233	-4
0.74600	-3
0.74967	-3
0.75333	-3
0.75700	-3
0.76067	-3
0.76433	-3
0.76800	-3
0.77167	-3
0.77533	-3
0.77900	-2
0.78267	-2
0.78633	-2
0.79000	-2
0.79367	-1
0.79733	-1
0.80100	-1
0.80467	-1
0.80833	-1
0.81200	-2
0.81567	-2
0.81933	-2
0.82300	-2
0.82667	-3
0.83033	-3
0.83400	-3
0.83767	-3
0.84133	-4
0.84500	-4
0.84867	-4
0.85233	-4
0.85600	-5
0.85967	-5
0.86333	-5
0.86700	-5
0.87067	-5
0.87433	-4
0.87800	-4
0.88167	-4
0.88533	-4
0.88900	-3
0.89267	-3
0.89633	-3
0.90000	-3
0.90367	-3
0.90733	-3
0.91100	-4
0.91467	-4
0.91833	-4
0.92200	-4
0.92567	-4
0.92933	-3
0.93300	-3
0.93667	-3
0.94033	-3
0.94400	-3
0.94767	-2
0.95133	-2
0.95500	-2
0.95867	-2
0.96233	-2
0.96600	-2
0.96967	-1
0.97333	-1
0.97700	-1
0.98067	-1
0.98433	-0
0.98800	-0
0.99167	0
0.99533	0
0.99900	0
1.00267	0
1.00633	0
1.01000	0
1.01367	0
1.01733	-0
1.02100	-0
1.02467	-1
1.02833	-1
1.03200	-2
1.03567	-2
1.03933	-3
1.04300	-3
1.04667	-4
1.05033	-4
1.05400	-4
1.05767	-4
1.06133	-4
1.06500	-5
1.06867	-5
1.07233	-5
1.07600	-6
1.07967	-6
1.08333	-6
1.08700	-6
1.09067	-6
1.09433	-5
1.09800	-5
1.10167	-5
1.10533	-5
1.10900	-5
1.11267	-5
1.11633	-5
1.12000	-6
1.12367	-6
1.12733	-6
1.13100	-6
1.13467	-6
1.13833	-6
1.14200	-6
1.14567	-6
1.14933	-6
1.15300	-6
1.15667	-6
1.16033	-5
1.16400	-5
1.16767	-5
1.17133	-5
1.17500	-5
1.17867	-4
1.18233	-4
1.18600	-4
1.18967	-4
1.19333	-4
1.19700	-3
1.20067	-3
1.20433	-3
1.20800	-3
1.21167	-3
1.21533	-3
1.21900	-3
1.22267	-3
1.22633	-3
1.23000	-3
1.23367	-3
1.23733	-3
1.24100	-3
1.24467	-4
1.24833	-4
1.25200	-5
1.25567	-5
1.25933	-5
1.26300	-5
1.26667	-5
1.27033	-5
1.27400	-5
1.27767	-5
1.28133	-5
1.28500	-5
1.28867	-5
1.29233	-5
1.29600	-5
1.29967	-5
1.30333	-5
1.30700	-6
1.31067	-6
1.31433	-6
1.31800	-6
1.32167	-6
1.32533	-6
1.32900	-6
1.33267	-6
1.33633	-5
1.34000	-5
1.34367	-5
1.34733	-5
1.35100	-4
1.35467	-4
1.35833	-4
1.36200	-4
1.36567	-4
1.36933	-4
1.37300	-4
1.37667	-4
1.38033	-4
1.38400	-4
1.38767	-4
1.39133	-4
1.39500	-3
1.39867	-3
1.40233	-3
1.40600	-2
1.40967	-2
1.41333	-2
1.41700	-3
1.42067	-3
1.42433	-3
1.42800	-4
1.43167	-4
1.43533	-4
1.43900	-4
1.44267	-5
1.44633	-5
1.45000	-5
1.45367	-5
1.45733	-5
1.46100	-5
1.46467	-5
1.46833	-5
1.47200	-5
1.47567	-5
1.47933	-5
1.48300	-5
1.48667	-6
1.49033	-6
1.49400	-6
1.49767	-6
1.50133	-6
1.50500	-6
1.50867	-6
1.51233	-5
1.51600	-5
1.51967	-5
1.52333	-4
1.52700	-4
1.53067	-4
1.53433	-4
1.53800	-3
1.54167	-3
1.54533	-3
1.54900	-3
1.55267	-2
1.55633	-2
1.56000	-2
1.56367	-2
1.56733	-2
1.57100	-2
1.57467	-2
1.57833	-3
1.58200	-3
1.58567	-3
1.58933	-4
1.59300	-4
1.59667	-4
1.60033	-5
1.60400	-7
1.60767	-8
1.61133	-10
1.61500	-12
1.61867	-15
1.62233	-17
1.62600	-20
1.62967	-24
1.63333	-27
1.63700	-31
1.64067	-35
1.64433	-39
1.64800	-43
1.65167	-47
1.65533	-50
1.65900	-54
1.66267	-58
1.66633	-62
1.67000	-65
1.67367	-70
1.67733	-74
1.68100	-78
1.68467	-82
1.68833	-86
1.69200	-89
1.69567	-92
1.69933	-95
1.70300	-97
1.70667	-99
1.71033	-101
1.71400	-102
1.71767	-103
1.72133	-105
1.72500	-106
1.72867	-108
1.73233	-109
1.73600	-110
1.73967	-111
1.74333	-112
1.74700	-113
1.75067	-113
1.75433	-114
1.75800	-114
1.76167	-114
1.76533	-113
1.76900	-113
1.77267	-113
1.77633	-113
1.78000	-113
1.78367	-113
1.78733	-114
1.79100	-114
1.79467	-115
1.79833	-115
1.80200	-115
1.80567	-115
1.80933	-116
1.81300	-116
1.81667	-117
1.82033	-117
1.82400	-117
1.82767	-117
1.83133	-116
1.83500	-116
1.83867	-115
1.84233	-115
1.84600	-115
1.84967	-116
1.85333	-116
1.85700	-116
1.86067	-116
1.86433	-117
1.86800	-117
1.87167	-118
1.87533	-118
1.87900	-117
1.88267	-117
1.88633	-116
1.89000	-115
1.89367	-114
1.89733	-114
1.90100	-114
1.90467	-114
1.90833	-115
1.91200	-115
1.91567	-115
1.91933	-115
1.92300	-115
1.92667	-114
1.93033	-114
1.93400	-113
1.93767	-113
1.94133	-113
1.94500	-113
1.94867	-113
1.95233	-113
1.95600	-113
1.95967	-113
1.96333	-113
1.96700	-113
1.97067	-112
1.97433	-112
1.97800	-112
1.98167	-111
1.98533	-111
1.98900	-111
1.99267	-110
1.99633	-110
2.00000	-109
2.00367	-108
2.00733	-107
2.01100	-107
2.01467	-106
2.01833	-106
2.02200	-106
2.02567	-106
2.02933	-106
2.03300	-107
2.03667	-107
2.04033	-107
2.04400	-106
2.04767	-106
2.05133	-106
2.05500	-106
2.05867	-106
2.06233	-105
2.06600	-105
2.06967	-104
2.07333	-104
2.07700	-104
2.08067	-103
2.08433	-103
2.08800	-103
2.09167	-102
2.09533	-102
2.09900	-102
2.10267	-102
2.10633	-101
2.11000	-101
2.11367	-101
2.11733	-101
2.12100	-100
2.12467	-100
2.12833	-100
2.13200	-100
2.13567	-100
2.13933	-100
2.14300	-100
2.14667	-99
2.15033	-99
2.15400	-98
2.15767	-97
2.16133	-96
2.16500	-95
2.16867	-95
2.17233	-94
2.17600	-94
2.17967	-94
2.18333	-94
2.18700	-95
2.19067	-95
2.19433	-95
2.19800	-94
2.20167	-94
2.20533	-94
2.20900	-93
2.21267	-93
2.21633	-93
2.22000	-93
2.22367	-93
2.22733	-93
2.23100	-92
2.23467	-92
2.23833	-91
2.24200	-91
2.24567	-90
2.24933	-90
2.25300	-89
2.25667	-88
2.26033	-88
2.26400	-87
2.26767	-87
2.27133	-86
2.27500	-86
2.27867	-85
2.28233	-86
2.28600	-86
2.28967	-86
2.29333	-86
2.29700	-85
2.30067	-85
2.30433	-84
2.30800	-84
2.31167	-84
2.31533	-84
2.31900	-84
2.32267	-83
2.32633	-83
2.33000	-83
2.33367	-82
2.33733	-81
2.34100	-80
2.34467	-79
2.34833	-78
2.35200	-78
2.35567	-77
2.35933	-77
2.36300	-76
2.36667	-76
2.37033	-75
2.37400	-73
2.37767	-70
2.38133	-67
2.38500	-64
2.38867	-60
2.39233	-55
2.39600	-51
2.39967	-46
2.40333	-42
2.40700	-38
2.41067	-34
2.41433	-30
2.41800	-26
2.42167	-23
2.42533	-20
2.42900	-18
2.43267	-16
2.43633	-15
2.44000	-13
2.44367	-12
2.44733	-10
2.45100	-9
2.45467	-8
2.45833	-7
2.46200	-7
2.46567	-6
2.46933	-5
2.47300	-4
2.47667	-3
2.48033	-2
2.48400	-1
2.48767	-1
2.49133	-0
2.49500	1
2.49867	2
2.50233	3
2.50600	4
2.50967	5
2.51333	6
2.51700	7
2.52067	8
2.52433	8
2.52800	9
2.53167	10
2.53533	10
2.53900	11
2.54267	11
2.54633	11
2.55000	11
2.55367	11
2.55733	11
2.56100	11
2.56467	11
2.56833	12
2.57200	13
2.57567	13
2.57933	14
2.58300	14
2.58667	15
2.59033	15
2.59400	15
2.59767	15
2.60133	14
2.60500	14
2.60867	14
2.61233	14
2.61600	14
2.61967	14
2.62333	14
2.62700	14
2.63067	15
2.63433	15
2.63800	16
2.64167	16
2.64533	17
2.64900	17
2.65267	18
2.65633	18
2.66000	18
2.66367	18
2.66733	18
2.67100	19
2.67467	19
2.67833	19
2.68200	20
2.68567	20
2.68933	20
2.69300	20
2.69667	20
2.70033	20
2.70400	21
2.70767	21
2.71133	21
2.71500	22
2.71867	23
2.72233	23
2.72600	24
2.72967	24
2.73333	24
2.73700	24
2.74067	24
2.74433	23
2.74800	23
2.75167	23
2.75533	22
2.75900	22
2.76267	22
2.76633	23
2.77000	23
2.77367	23
2.77733	23
2.78100	23
2.78467	24
2.78833	24
2.79200	24
2.79567	24
2.79933	24
2.80300	24
2.80667	24
2.81033	24
2.81400	24
2.81767	24
2.82133	24
2.82500	24
2.82867	24
2.83233	24
2.83600	23
2.83967	23
2.84333	21
2.84700	18
2.85067	13
2.85433	5
2.85800	-7
2.86167	-22
2.86533	-42
2.86900	-65
2.87267	-94
2.87633	-126
2.88000	-163
2.88367	-204
2.88733	-248
2.89100	-295
2.89467	-346
2.89833	-398
2.90200	-451
2.90567	-506
2.90933	-562
2.91300	-617
2.91667	-672
2.92033	-726
2.92400	-779
2.92767	-830
2.93133	-882
2.93500	-938
2.93867	-996
2.94233	-1050
2.94600	-1089
2.94967	-1104
2.95333	-1093
2.95700	-1057
2.96067	-1002
2.96433	-934
2.96800	-857
2.97167	-777
2.97533	-696
2.97900	-619
2.98267	-545
2.98633	-478
2.99000	-416
2.99367	-360
2.99733	-311
3.00100	-267
3.00467	-229
3.00833	-195
3.01200	-166
3.01567	-141
3.01933	-119
3.02300	-100
3.02667	-85
3.03033	-71
3.03400	-59
3.03767	-49
3.04133	-41
3.04500	-34
3.04867	-27
3.05233	-22
3.05600	-17
3.05967	-13
3.06333	-10
3.06700	-7
3.07067	-4
3.07433	-2
3.07800	0
3.08167	2
3.08533	4
3.08900	5
3.09267	6
3.09633	7
3.10000	8
3.10367	9
3.10733	10
3.11100	10
3.11467	11
3.11833	12
3.12200	12
3.12567	13
3.12933	13
3.13300	14
3.13667	14
3.14033	14
3.14400	15
3.14767	15
3.15133	16
3.15500	16
3.15867	17
3.16233	17
3.16600	18
3.16967	18
3.17333	19
3.17700	19
3.18067	19
3.18433	19
3.18800	19
3.19167	19
3.19533	19
3.19900	19
3.20267	19
3.20633	19
3.21000	19
3.21367	19
3.21733	19
3.22100	20
3.22467	20
3.22833	20
3.23200	20
3.23567	20
3.23933	19
3.24300	19
3.24667	19
3.25033	19
3.25400	19
3.25767	19
3.26133	19
3.26500	20
3.26867	20
3.27233	19
3.27600	19
3.27967	20
3.28333	20
3.28700	20
3.29067	20
3.29433	20
3.29800	21
3.30167	21
3.30533	21
3.30900	21
3.31267	21
3.31633	22
3.32000	22
3.32367	22
3.32733	22
3.33100	22
3.33467	23
3.33833	23
3.34200	23
3.34567	23
3.34933	23
3.35300	23
3.35667	23
3.36033	23
3.36400	23
3.36767	23
3.37133	23
3.37500	23
3.37867	22
3.38233	22
3.38600	22
3.38967	22
3.39333	22
3.39700	22
3.40067	22
3.40433	22
3.40800	22
3.41167	22
3.41533	23
3.41900	23
3.42267	24
3.42633	24
3.43000	25
3.43367	25
3.43733	26
3.44100	26
3.44467	26
3.44833	27
3.45200	27
3.45567	27
3.45933	27
3.46300	27
3.46667	27
3.47033	27
3.47400	26
3.47767	26
3.48133	26
3.48500	26
3.48867	26
3.49233	26
3.49600	26
3.49967	26
3.50333	26
3.50700	26
3.51067	26
3.51433	26
3.51800	26
3.52167	26
3.52533	27
3.52900	27
3.53267	27
3.53633	27
3.54000	27
3.54367	27
3.54733	27
3.55100	27
3.55467	27
3.55833	27
3.56200	27
3.56567	26
3.56933	26
3.57300	26
3.57667	26
3.58033	26
3.58400	26
3.58767	26
3.59133	26
3.59500	26
3.59867	26
3.60233	25
3.60600	25
3.60967	25
3.61333	25
3.61700	25
3.62067	25
3.62433	25
3.62800	25
3.63167	25
3.63533	25
3.63900	26
3.64267	26
3.64633	26
3.65000	26
3.65367	26
3.65733	26
3.66100	26
3.66467	26
3.66833	26
3.67200	26
3.67567	26
3.67933	26
3.68300	26
3.68667	26
3.69033	26
3.69400	26
3.69767	25
3.70133	25
3.70500	25
3.70867	25
3.71233	25
3.71600	25
3.71967	25
3.72333	25
3.72700	25
3.73067	25
3.73433	24
3.73800	24
3.74167	24
3.74533	24
3.74900	24
3.75267	24
3.75633	24
3.76000	24
3.76367	24
3.76733	24
3.77100	24
3.77467	24
3.77833	24
3.78200	24
3.78567	24
3.78933	24
3.79300	24
3.79667	24
3.80033	24
3.80400	24
3.80767	24
3.81133	24
3.81500	24
3.81867	24
3.82233	24
3.82600	23
3.82967	23
3.83333	23
3.83700	23
3.84067	23
3.84433	23
3.84800	22
3.85167	22
3.85533	22
3.85900	22
3.86267	21
3.86633	21
3.87000	21
3.87367	21
3.87733	21
3.88100	21
3.88467	21
3.88833	21
3.89200	21
3.89567	21
3.89933	21
3.90300	21
3.90667	22
3.91033	22
3.91400	22
3.91767	22
3.92133	22
3.92500	23
3.92867	23
3.93233	23
3.93600	23
3.93967	24
3.94333	24
3.94700	24
3.95067	24
3.95433	24
3.95800	24
3.96167	24
3.96533	23
3.96900	23
3.97267	23
3.97633	23
3.98000	23
3.98367	23
3.98733	23
3.99100	23
3.99467	23
3.99833	23

[Chromatogram (Ch3)]
Interval(msec)	220
# of Points	1091
Start Time(min)	0.002
End Time(min)	3.998
R.Time (min)	Intensity
0.00167	-0
0.00533	-3
0.00900	-4
0.01267	-4
0.01633	-2
0.02000	-1
0.02367	-2
0.02733	-2
0.03100	-1
0.03467	1
0.03833	3
0.04200	3
0.04567	3
0.04933	2
0.05300	1
0.05667	3
0.06033	5
0.06400	5
0.06767	3
0.07133	4
0.07500	6
0.07867	7
0.08233	7
0.08600	5
0.08967	4
0.09333	5
0.09700	5
0.10067	3
0.10433	2
0.10800	4
0.11167	4
0.11533	4
0.11900	5
0.12267	5
0.12633	3
0.13000	3
0.13367	3
0.13733	3
0.14100	3
0.14467	2
0.14833	0
0.15200	-1
0.15567	-1
0.15933	-1
0.16300	-1
0.16667	1
0.17033	2
0.17400	3
0.17767	5
0.18133	6
0.18500	5
0.18867	4
0.19233	3
0.19600	3
0.19967	4
0.20333	5
0.20700	6
0.21067	6
0.21433	7
0.21800	7
0.22167	7
0.22533	7
0.22900	6
0.23267	5
0.23633	5
0.24000	5
0.24367	3
0.24733	1
0.25100	1
0.25467	1
0.25833	1
0.26200	1
0.26567	2
0.26933	4
0.27300	2
0.27667	0
0.28033	-0
0.28400	0
0.28767	1
0.29133	2
0.29500	1
0.29867	1
0.30233	1
0.30600	2
0.30967	3
0.31333	4
0.31700	6
0.32067	7
0.32433	7
0.32800	7
0.33167	5
0.33533	5
0.33900	5
0.34267	3
0.34633	1
0.35000	2
0.35367	2
0.35733	3
0.36100	2
0.36467	2
0.36833	2
0.37200	2
0.37567	3
0.37933	5
0.38300	5
0.38667	4
0.39033	3
0.39400	3
0.39767	3
0.40133	4
0.40500	4
0.40867	5
0.41233	4
0.41600	4
0.41967	4
0.42333	6
0.42700	9
0.43067	9
0.43433	8
0.43800	6
0.44167	4
0.44533	3
0.44900	3
0.45267	3
0.45633	4
0.46000	4
0.46367	3
0.46733	4
0.47100	5
0.47467	4
0.47833	5
0.48200	5
0.48567	5
0.48933	4
0.49300	4
0.49667	6
0.50033	5
0.50400	4
0.50767	3
0.51133	4
0.51500	3
0.51867	3
0.52233	4
0.52600	6
0.52967	7
0.53333	8
0.53700	9
0.54067	9
0.54433	8
0.54800	6
0.55167	5
0.55533	4
0.55900	2
0.56267	1
0.56633	-0
0.57000	-2
0.57367	-1
0.57733	-0
0.58100	-1
0.58467	-2
0.58833	-1
0.59200	2
0.59567	3
0.59933	3
0.60300	2
0.60667	3
0.61033	1
0.61400	1
0.61767	1
0.62133	3
0.62500	5
0.62867	5
0.63233	5
0.63600	4
0.63967	6
0.64333	7
0.64700	6
0.65067	6
0.65433	6
0.65800	5
0.66167	5
0.66533	4
0.66900	4
0.67267	5
0.67633	6
0.68000	6
0.68367	8
0.68733	9
0.69100	10
0.69467	9
0.69833	5
0.70200	2
0.70567	-0
0.70933	0
0.71300	2
0.71667	5
0.72033	7
0.72400	7
0.72767	7
0.73133	7
0.73500	8
0.73867	10
0.74233	10
0.74600	9
0.74967	9
0.75333	9
0.75700	10
0.76067	10
0.76433	9
0.76800	8
0.77167	5
0.77533	3
0.77900	3
0.78267	3
0.78633	4
0.79000	4
0.79367	2
0.79733	0
0.80100	1
0.80467	3
0.80833	2
0.81200	3
0.81567	5
0.81933	4
0.82300	4
0.82667	4
0.83033	4
0.83400	3
0.83767	3
0.84133	3
0.84500	4
0.84867	5
0.85233	8
0.85600	11
0.85967	9
0.86333	9
0.86700	9
0.87067	10
0.87433	8
0.87800	5
0.88167	3
0.88533	1
0.88900	3
0.89267	3
0.89633	3
0.90000	3
0.90367	3
0.90733	5
0.91100	8
0.91467	10
0.91833	9
0.92200	10
0.92567	12
0.92933	12
0.93300	10
0.93667	12
0.94033	13
0.94400	12
0.94767	11
0.95133	12
0.95500	11
0.95867	10
0.96233	8
0.96600	9
0.96967	10
0.97333	10
0.97700	10
0.98067	10
0.98433	11
0.98800	12
0.99167	12
0.99533	10
0.99900	10
1.00267	10
1.00633	10
1.01000	11
1.01367	11
1.01733	8
1.02100	7
1.02467	10
1.02833	12
1.03200	14
1.03567	14
1.03933	13
1.04300	12
1.04667	11
1.05033	11
1.05400	11
1.05767	12
1.06133	12
1.06500	11
1.06867	8
1.07233	8
1.07600	9
1.07967	10
1.08333	11
1.08700	11
1.09067	12
1.09433	12
1.09800	12
1.10167	13
1.10533	14
1.10900	16
1.11267	18
1.11633	20
1.12000	20
1.12367	17
1.12733	14
1.13100	12
1.13467	10
1.13833	11
1.14200	13
1.14567	12
1.14933	11
1.15300	10
1.15667	10
1.16033	10
1.16400	11
1.16767	12
1.17133	13
1.17500	15
1.17867	14
1.18233	14
1.18600	14
1.18967	14
1.19333	11
1.19700	9
1.20067	8
1.20433	11
1.20800	14
1.21167	17
1.21533	16
1.21900	14
1.22267	14
1.22633	14
1.23000	14
1.23367	14
1.23733	13
1.24100	12
1.24467	13
1.24833	14
1.25200	16
1.25567	16
1.25933	17
1.26300	16
1.26667	13
1.27033	13
1.27400	12
1.27767	12
1.28133	13
1.28500	13
1.28867	13
1.29233	12
1.29600	14
1.29967	16
1.30333	17
1.30700	18
1.31067	18
1.31433	20
1.31800	19
1.32167	18
1.32533	20
1.32900	20
1.33267	20
1.33633	18
1.34000	20
1.34367	21
1.34733	22
1.35100	20
1.35467	18
1.35833	17
1.36200	17
1.36567	17
1.36933	18
1.37300	19
1.37667	17
1.38033	18
1.38400	19
1.38767	20
1.39133	20
1.39500	19
1.39867	20
1.40233	20
1.40600	21
1.40967	19
1.41333	19
1.41700	20
1.42067	19
1.42433	18
1.42800	16
1.43167	14
1.43533	13
1.43900	13
1.44267	14
1.44633	14
1.45000	16
1.45367	17
1.45733	16
1.46100	17
1.46467	19
1.46833	19
1.47200	17
1.47567	17
1.47933	18
1.48300	19
1.48667	21
1.49033	20
1.49400	16
1.49767	15
1.50133	16
1.50500	16
1.50867	17
1.51233	18
1.51600	19
1.51967	20
1.52333	19
1.52700	20
1.53067	20
1.53433	20
1.53800	19
1.54167	19
1.54533	21
1.54900	23
1.55267	24
1.55633	22
1.56000	19
1.56367	16
1.56733	14
1.57100	15
1.57467	18
1.57833	20
1.58200	19
1.58567	18
1.58933	18
1.59300	18
1.59667	19
1.60033	19
1.60400	19
1.60767	18
1.61133	18
1.61500	18
1.61867	19
1.62233	19
1.62600	20
1.62967	21
1.63333	22
1.63700	25
1.64067	26
1.64433	26
1.64800	26
1.65167	24
1.65533	22
1.65900	23
1.66267	24
1.66633	25
1.67000	25
1.67367	24
1.67733	24
1.68100	26
1.68467	27
1.68833	29
1.69200	30
1.69567	31
1.69933	30
1.70300	31
1.70667	33
1.71033	33
1.71400	34
1.71767	36
1.72133	37
1.72500	36
1.72867	36
1.73233	38
1.73600	41
1.73967	42
1.74333	43
1.74700	43
1.75067	44
1.75433	44
1.75800	45
1.76167	44
1.76533	43
1.76900	43
1.77267	45
1.77633	47
1.78000	46
1.78367	46
1.78733	47
1.79100	49
1.79467	50
1.79833	51
1.80200	50
1.80567	47
1.80933	46
1.81300	47
1.81667	47
1.82033	47
1.82400	44
1.82767	43
1.83133	44
1.83500	46
1.83867	46
1.84233	48
1.84600	50
1.84967	51
1.85333	53
1.85700	53
1.86067	53
1.86433	55
1.86800	59
1.87167	62
1.87533	64
1.87900	62
1.88267	61
1.88633	60
1.89000	62
1.89367	62
1.89733	62
1.90100	64
1.90467	65
1.90833	66
1.91200	67
1.91567	67
1.91933	66
1.92300	66
1.92667	67
1.93033	67
1.93400	68
1.93767	70
1.94133	71
1.94500	71
1.94867	70
1.95233	70
1.95600	69
1.95967	69
1.96333	71
1.96700	73
1.97067	76
1.97433	76
1.97800	77
1.98167	80
1.98533	82
1.98900	82
1.99267	80
1.99633	82
2.00000	82
2.00367	82
2.00733	82
2.01100	82
2.01467	85
2.01833	86
2.02200	85
2.02567	87
2.02933	91
2.03300	94
2.03667	96
2.04033	98
2.04400	100
2.04767	102
2.05133	103
2.05500	104
2.05867	105
2.06233	106
2.06600	106
2.06967	105
2.07333	104
2.07700	104
2.08067	108
2.08433	109
2.08800	112
2.09167	113
2.09533	114
2.09900	113
2.10267	113
2.10633	112
2.11000	113
2.11367	117
2.11733	122
2.12100	126
2.12467	129
2.12833	130
2.13200	131
2.13567	129
2.13933	128
2.14300	127
2.14667	128
2.15033	128
2.15400	130
2.15767	132
2.16133	135
2.16500	135
2.16867	134
2.17233	135
2.17600	139
2.17967	146
2.18333	151
2.18700	153
2.19067	153
2.19433	155
2.19800	157
2.20167	159
2.20533	159
2.20900	161
2.21267	160
2.21633	162
2.22000	164
2.22367	165
2.22733	166
2.23100	168
2.23467	169
2.23833	170
2.24200	171
2.24567	173
2.24933	175
2.25300	177
2.25667	179
2.26033	179
2.26400	180
2.26767	181
2.27133	183
2.27500	185
2.27867	188
2.28233	190
2.28600	191
2.28967	194
2.29333	197
2.29700	197
2.30067	196
2.30433	197
2.30800	200
2.31167	202
2.31533	208
2.31900	212
2.32267	214
2.32633	214
2.33000	213
2.33367	213
2.33733	213
2.34100	215
2.34467	217
2.34833	218
2.35200	219
2.35567	222
2.35933	226
2.36300	228
2.36667	230
2.37033	230
2.37400	232
2.37767	233
2.38133	235
2.38500	238
2.38867	240
2.39233	242
2.39600	246
2.39967	250
2.40333	253
2.40700	256
2.41067	256
2.41433	255
2.41800	255
2.42167	258
2.42533	262
2.42900	265
2.43267	267
2.43633	270
2.44000	277
2.44367	336
2.44733	481
2.45100	636
2.45467	767
2.45833	843
2.46200	852
2.46567	824
2.46933	789
2.47300	763
2.47667	747
2.48033	733
2.48400	712
2.48767	676
2.49133	633
2.49500	589
2.49867	552
2.50233	524
2.50600	506
2.50967	497
2.51333	499
2.51700	508
2.52067	530
2.52433	554
2.52800	574
2.53167	583
2.53533	580
2.53900	565
2.54267	546
2.54633	521
2.55000	493
2.55367	466
2.55733	441
2.56100	419
2.56467	401
2.56833	390
2.57200	385
2.57567	382
2.57933	379
2.58300	380
2.58667	378
2.59033	376
2.59400	374
2.59767	369
2.60133	365
2.60500	362
2.60867	355
2.61233	349
2.61600	341
2.61967	332
2.62333	326
2.62700	324
2.63067	322
2.63433	321
2.63800	322
2.64167	322
2.64533	321
2.64900	319
2.65267	317
2.65633	313
2.66000	310
2.66367	305
2.66733	297
2.67100	288
2.67467	279
2.67833	269
2.68200	260
2.68567	251
2.68933	242
2.69300	232
2.69667	225
2.70033	221
2.70400	217
2.70767	215
2.71133	212
2.71500	207
2.71867	207
2.72233	211
2.72600	217
2.72967	220
2.73333	222
2.73700	226
2.74067	228
2.74433	230
2.74800	232
2.75167	233
2.75533	233
2.75900	233
2.76267	232
2.76633	235
2.77000	237
2.77367	238
2.77733	241
2.78100	245
2.78467	248
2.78833	250
2.79200	251
2.79567	252
2.79933	253
2.80300	255
2.80667	259
2.81033	264
2.81400	268
2.81767	273
2.82133	284
2.82500	309
2.82867	361
2.83233	458
2.83600	625
2.83967	880
2.84333	1237
2.84700	1698
2.85067	2244
2.85433	2844
2.85800	3450
2.86167	4014
2.86533	4487
2.86900	4836
2.87267	5043
2.87633	5105
2.88000	5034
2.88367	4855
2.88733	4594
2.89100	4280
2.89467	3938
2.89833	3586
2.90200	3240
2.90567	2910
2.90933	2605
2.91300	2327
2.91667	2076
2.92033	1851
2.92400	1651
2.92767	1474
2.93133	1318
2.93500	1183
2.93867	1066
2.94233	962
2.94600	871
2.94967	791
2.95333	720
2.95700	658
2.96067	606
2.96433	563
2.96800	526
2.97167	493
2.97533	465
2.97900	440
2.98267	417
2.98633	391
2.99000	370
2.99367	353
2.99733	338
3.00100	325
3.00467	314
3.00833	304
3.01200	297
3.01567	292
3.01933	287
3.02300	281
3.02667	276
3.03033	269
3.03400	263
3.03767	259
3.04133	257
3.04500	255
3.04867	252
3.05233	250
3.05600	250
3.05967	249
3.06333	248
3.06700	246
3.07067	244
3.07433	242
3.07800	239
3.08167	237
3.08533	236
3.08900	237
3.09267	233
3.09633	230
3.10000	230
3.10367	230
3.10733	230
3.11100	231
3.11467	223
3.11833	197
3.12200	171
3.12567	164
3.12933	172
3.13300	194
3.13667	222
3.14033	255
3.14400	292
3.14767	331
3.15133	371
3.15500	408
3.15867	443
3.16233	473
3.16600	500
3.16967	525
3.17333	546
3.17700	563
3.18067	577
3.18433	591
3.18800	607
3.19167	620
3.19533	630
3.19900	640
3.20267	648
3.20633	654
3.21000	658
3.21367	661
3.21733	667
3.22100	673
3.22467	679
3.22833	684
3.23200	688
3.23567	691
3.23933	692
3.24300	694
3.24667	699
3.25033	708
3.25400	716
3.25767	722
3.26133	724
3.26500	727
3.26867	731
3.27233	734
3.27600	737
3.27967	741
3.28333	744
3.28700	748
3.29067	752
3.29433	757
3.29800	759
3.30167	760
3.30533	763
3.30900	767
3.31267	770
3.31633	772
3.32000	774
3.32367	777
3.32733	782
3.33100	787
3.33467	792
3.33833	794
3.34200	796
3.34567	796
3.34933	794
3.35300	793
3.35667	795
3.36033	798
3.36400	799
3.36767	799
3.37133	800
3.37500	798
3.37867	797
3.38233	798
3.38600	799
3.38967	800
3.39333	801
3.39700	801
3.40067	801
3.40433	800
3.40800	797
3.41167	795
3.41533	793
3.41900	791
3.42267	789
3.42633	786
3.43000	783
3.43367	782
3.43733	781
3.44100	779
3.44467	779
3.44833	777
3.45200	776
3.45567	776
3.45933	774
3.46300	773
3.46667	773
3.47033	773
3.47400	770
3.47767	768
3.48133	768
3.48500	767
3.48867	764
3.49233	761
3.49600	759
3.49967	757
3.50333	757
3.50700	756
3.51067	756
3.51433	754
3.51800	751
3.52167	748
3.52533	746
3.52900	743
3.53267	741
3.53633	739
3.54000	737
3.54367	736
3.54733	736
3.55100	736
3.55467	738
3.55833	739
3.56200	741
3.56567	742
3.56933	743
3.57300	741
3.57667	736
3.58033	732
3.58400	731
3.58767	732
3.59133	731
3.59500	731
3.59867	732
3.60233	732
3.60600	735
3.60967	736
3.61333	737
3.61700	737
3.62067	736
3.62433	734
3.62800	731
3.63167	730
3.63533	731
3.63900	732
3.64267	733
3.64633	732
3.65000	731
3.65367	729
3.65733	725
3.66100	723
3.66467	723
3.66833	723
3.67200	722
3.67567	720
3.67933	720
3.68300	720
3.68667	720
3.69033	721
3.69400	721
3.69767	721
3.70133	721
3.70500	720
3.70867	720
3.71233	721
3.71600	720
3.71967	721
3.72333	724
3.72700	725
3.73067	724
3.73433	723
3.73800	722
3.74167	721
3.74533	718
3.74900	716
3.75267	716
3.75633	715
3.76000	713
3.76367	713
3.76733	713
3.77100	712
3.77467	709
3.77833	708
3.78200	706
3.78567	704
3.78933	702
3.79300	701
3.79667	701
3.80033	701
3.80400	700
3.80767	701
3.81133	702
3.81500	702
3.81867	702
3.82233	701
3.82600	700
3.82967	699
3.83333	695
3.83700	693
3.84067	690
3.84433	687
3.84800	687
3.85167	685
3.85533	682
3.85900	680
3.86267	680
3.86633	681
3.87000	680
3.87367	679
3.87733	676
3.88100	673
3.88467	671
3.88833	670
3.89200	670
3.89567	670
3.89933	670
3.90300	667
3.90667	662
3.91033	657
3.91400	652
3.91767	648
3.92133	645
3.92500	643
3.92867	643
3.93233	644
3.93600	645
3.93967	644
3.94333	645
3.94700	645
3.95067	645
3.95433	643
3.95800	642
3.96167	640
3.96533	639
3.96900	639
3.97267	636
3.97633	635
3.98000	634
3.98367	632
3.98733	630
3.99100	628
3.99467	625
3.99833	620

[Status Trace (Column Oven Temperature)]
Interval(msec)	1000
# of Points	240
Start Time(min)	0.012
End Time(min)	3.996
Intensity Units	
Intensity Multiplier	1
R.Time (min)	Intensity
0.01228	35.03
0.02895	35.05
0.04562	35.05
0.06228	35.06
0.07895	35.04
0.09562	35.04
0.11228	35.02
0.12895	35.02
0.14562	35.02
0.16228	35.02
0.17895	35.02
0.19562	35.04
0.21228	35.04
0.22895	35.05
0.24562	35.05
0.26228	35.02
0.27895	35.03
0.29562	35.02
0.31228	35.01
0.32895	35.02
0.34562	35.03
0.36228	35.03
0.37895	35.03
0.39562	35.02
0.41228	35.03
0.42895	35.04
0.44562	35.05
0.46228	35.05
0.47895	35.04
0.49562	35.03
0.51228	35.02
0.52895	35.01
0.54562	35.00
0.56228	34.98
0.57895	34.98
0.59562	34.97
0.61228	34.99
0.62895	35.00
0.64562	35.01
0.66228	35.01
0.67895	35.02
0.69562	35.02
0.71228	35.01
0.72895	35.01
0.74562	35.01
0.76228	35.01
0.77895	35.00
0.79562	35.00
0.81228	35.00
0.82895	35.01
0.84562	35.01
0.86228	35.01
0.87895	35.00
0.89562	35.00
0.91228	35.01
0.92895	35.00
0.94562	34.99
0.96228	34.98
0.97895	34.97
0.99562	34.95
1.01228	34.95
1.02895	34.96
1.04562	34.97
1.06228	34.99
1.07895	34.99
1.09562	34.99
1.11228	35.00
1.12895	35.01
1.14562	35.02
1.16228	35.01
1.17895	35.00
1.19562	34.99
1.21228	34.98
1.22895	34.98
1.24562	34.99
1.26228	34.99
1.27895	35.00
1.29562	35.01
1.31228	35.01
1.32895	35.02
1.34562	35.01
1.36228	35.01
1.37895	35.00
1.39562	34.99
1.41228	34.99
1.42895	35.00
1.44562	35.00
1.46228	34.99
1.47895	35.00
1.49562	35.00
1.51228	35.00
1.52895	35.01
1.54562	35.00
1.56228	34.99
1.57895	34.98
1.59562	34.99
1.61228	35.08
1.62895	35.24
1.64562	35.46
1.66228	35.72
1.67895	36.07
1.69562	36.42
1.71228	36.76
1.72895	37.11
1.74562	37.45
1.76228	37.77
1.77895	38.10
1.79562	38.43
1.81228	38.77
1.82895	39.10
1.84562	39.43
1.86228	39.78
1.87895	40.10
1.89562	40.42
1.91228	40.76
1.92895	41.07
1.94562	41.40
1.96228	41.72
1.97895	42.05
1.99562	42.36
2.01228	42.68
2.02895	43.01
2.04562	43.34
2.06228	43.68
2.07895	44.01
2.09562	44.33
2.11228	44.67
2.12895	45.00
2.14562	45.32
2.16228	45.63
2.17895	45.96
2.19562	46.29
2.21228	46.61
2.22895	46.95
2.24562	47.27
2.26228	47.59
2.27895	47.93
2.29562	48.25
2.31228	48.59
2.32895	48.91
2.34562	49.23
2.36228	49.54
2.37895	49.71
2.39562	49.76
2.41228	49.75
2.42895	49.76
2.44562	49.74
2.46228	49.76
2.47895	49.78
2.49562	49.78
2.51228	49.78
2.52895	49.78
2.54562	49.79
2.56228	49.80
2.57895	49.80
2.59562	49.82
2.61228	49.84
2.62895	49.83
2.64562	49.84
2.66228	49.85
2.67895	49.85
2.69562	49.87
2.71228	49.85
2.72895	49.84
2.74562	49.86
2.76228	49.87
2.77895	49.86
2.79562	49.85
2.81228	49.87
2.82895	49.87
2.84562	49.87
2.86228	49.89
2.87895	49.89
2.89562	49.90
2.91228	49.91
2.92895	49.92
2.94562	49.93
2.96228	49.94
2.97895	49.95
2.99562	49.97
3.01228	49.99
3.02895	50.02
3.04562	50.03
3.06228	50.05
3.07895	50.05
3.09562	50.05
3.11228	50.05
3.12895	50.07
3.14562	50.07
3.16228	50.07
3.17895	50.07
3.19562	50.07
3.21228	50.07
3.22895	50.08
3.24562	50.09
3.26228	50.10
3.27895	50.09
3.29562	50.09
3.31228	50.10
3.32895	50.10
3.34562	50.09
3.36228	50.09
3.37895	50.10
3.39562	50.12
3.41228	50.12
3.42895	50.10
3.44562	50.08
3.46228	50.06
3.47895	50.06
3.49562	50.05
3.51228	50.04
3.52895	50.03
3.54562	50.02
3.56228	50.01
3.57895	50.00
3.59562	50.00
3.61228	50.00
3.62895	49.99
3.64562	49.99
3.66228	49.98
3.67895	49.98
3.69562	49.99
3.71228	49.99
3.72895	50.00
3.74562	50.00
3.76228	50.00
3.77895	50.00
3.79562	50.00
3.81228	50.00
3.82895	50.01
3.84562	50.02
3.86228	50.03
3.87895	50.04
3.89562	50.04
3.91228	50.04
3.92895	50.04
3.94562	50.04
3.96228	50.06
3.97895	50.06
3.99562	50.06

[Status Trace (Injection Unit Temperature)]
Interval(msec)	1000
# of Points	240
Start Time(min)	0.012
End Time(min)	3.996
Intensity Units	
Intensity Multiplier	1
R.Time (min)	Intensity
0.01228	99.98
0.02895	99.98
0.04562	99.99
0.06228	99.98
0.07895	99.98
0.09562	99.99
0.11228	99.98
0.12895	99.99
0.14562	99.98
0.16228	99.99
0.17895	99.98
0.19562	99.99
0.21228	99.98
0.22895	99.98
0.24562	99.98
0.26228	99.99
0.27895	99.98
0.29562	99.99
0.31228	99.99
0.32895	99.99
0.34562	99.99
0.36228	99.99
0.37895	99.99
0.39562	99.99
0.41228	99.99
0.42895	99.99
0.44562	99.99
0.46228	99.99
0.47895	99.99
0.49562	99.98
0.51228	99.99
0.52895	99.99
0.54562	99.98
0.56228	99.98
0.57895	99.99
0.59562	99.99
0.61228	99.99
0.62895	99.99
0.64562	99.98
0.66228	99.98
0.67895	99.99
0.69562	99.98
0.71228	99.99
0.72895	99.99
0.74562	99.99
0.76228	99.98
0.77895	99.98
0.79562	99.98
0.81228	99.98
0.82895	99.97
0.84562	99.98
0.86228	99.98
0.87895	99.98
0.89562	99.98
0.91228	99.98
0.92895	99.98
0.94562	99.98
0.96228	99.98
0.97895	99.99
0.99562	99.98
1.01228	99.98
1.02895	99.98
1.04562	99.98
1.06228	99.98
1.07895	99.98
1.09562	99.98
1.11228	99.99
1.12895	99.99
1.14562	99.98
1.16228	99.98
1.17895	99.98
1.19562	99.98
1.21228	99.98
1.22895	99.98
1.24562	99.98
1.26228	99.98
1.27895	99.98
1.29562	99.99
1.31228	99.98
1.32895	99.98
1.34562	99.98
1.36228	99.99
1.37895	99.98
1.39562	99.98
1.41228	99.98
1.42895	99.99
1.44562	99.98
1.46228	99.98
1.47895	99.98
1.49562	99.98
1.51228	99.98
1.52895	99.98
1.54562	99.98
1.56228	99.98
1.57895	99.99
1.59562	99.99
1.61228	99.98
1.62895	99.99
1.64562	99.99
1.66228	99.99
1.67895	99.98
1.69562	99.98
1.71228	99.99
1.72895	99.98
1.74562	99.98
1.76228	99.98
1.77895	99.99
1.79562	99.98
1.81228	99.98
1.82895	99.98
1.84562	99.98
1.86228	99.98
1.87895	99.98
1.89562	99.98
1.91228	99.98
1.92895	99.98
1.94562	99.98
1.96228	99.98
1.97895	99.98
1.99562	99.98
2.01228	99.97
2.02895	99.98
2.04562	99.98
2.06228	99.98
2.07895	99.97
2.09562	99.97
2.11228	99.98
2.12895	99.98
2.14562	99.97
2.16228	99.97
2.17895	99.97
2.19562	99.97
2.21228	99.97
2.22895	99.97
2.24562	99.97
2.26228	99.97
2.27895	99.97
2.29562	99.97
2.31228	99.97
2.32895	99.97
2.34562	99.97
2.36228	99.97
2.37895	99.97
2.39562	99.97
2.41228	99.97
2.42895	99.97
2.44562	99.97
2.46228	99.97
2.47895	99.98
2.49562	99.98
2.51228	99.98
2.52895	99.98
2.54562	99.98
2.56228	99.98
2.57895	99.98
2.59562	99.98
2.61228	99.98
2.62895	99.98
2.64562	99.99
2.66228	99.99
2.67895	99.99
2.69562	99.99
2.71228	99.99
2.72895	99.99
2.74562	99.99
2.76228	100.00
2.77895	99.99
2.79562	100.00
2.81228	99.99
2.82895	100.00
2.84562	100.00
2.86228	100.00
2.87895	100.00
2.89562	100.01
2.91228	100.01
2.92895	100.01
2.94562	100.01
2.96228	100.01
2.97895	100.01
2.99562	100.01
3.01228	100.01
3.02895	100.01
3.04562	100.02
3.06228	100.02
3.07895	100.02
3.09562	100.02
3.11228	100.01
3.12895	100.02
3.14562	100.02
3.16228	100.02
3.17895	100.02
3.19562	100.02
3.21228	100.02
3.22895	100.02
3.24562	100.02
3.26228	100.02
3.27895	100.02
3.29562	100.03
3.31228	100.02
3.32895	100.02
3.34562	100.03
3.36228	100.03
3.37895	100.03
3.39562	100.03
3.41228	100.03
3.42895	100.03
3.44562	100.03
3.46228	100.03
3.47895	100.03
3.49562	100.03
3.51228	100.03
3.52895	100.03
3.54562	100.04
3.56228	100.04
3.57895	100.04
3.59562	100.04
3.61228	100.04
3.62895	100.04
3.64562	100.04
3.66228	100.04
3.67895	100.04
3.69562	100.04
3.71228	100.04
3.72895	100.04
3.74562	100.04
3.76228	100.04
3.77895	100.04
3.79562	100.04
3.81228	100.04
3.82895	100.04
3.84562	100.05
3.86228	100.05
3.87895	100.04
3.89562	100.05
3.91228	100.04
3.92895	100.04
3.94562	100.05
3.96228	100.05
3.97895	100.05
3.99562	100.05

[Status Trace (Carrier Gas Pressure)]
Interval(msec)	1000
# of Points	240
Start Time(min)	0.012
End Time(min)	3.996
Intensity Units	
Intensity Multiplier	1
R.Time (min)	Intensity
0.01228	57.99
0.02895	54.95
0.04562	57.77
0.06228	59.69
0.07895	58.87
0.09562	57.99
0.11228	57.99
0.12895	58.01
0.14562	58.01
0.16228	58.01
0.17895	58.00
0.19562	58.00
0.21228	58.00
0.22895	58.00
0.24562	58.00
0.26228	58.00
0.27895	58.00
0.29562	58.00
0.31228	58.00
0.32895	58.00
0.34562	58.00
0.36228	58.00
0.37895	58.00
0.39562	58.00
0.41228	58.00
0.42895	58.00
0.44562	58.00
0.46228	58.00
0.47895	58.00
0.49562	58.00
0.51228	58.00
0.52895	58.00
0.54562	58.00
0.56228	58.00
0.57895	58.00
0.59562	58.00
0.61228	58.00
0.62895	58.00
0.64562	58.00
0.66228	58.00
0.67895	58.00
0.69562	58.00
0.71228	58.00
0.72895	58.00
0.74562	58.00
0.76228	58.00
0.77895	58.00
0.79562	58.00
0.81228	58.00
0.82895	58.00
0.84562	58.00
0.86228	58.00
0.87895	58.00
0.89562	58.00
0.91228	58.00
0.92895	58.00
0.94562	58.00
0.96228	58.00
0.97895	58.00
0.99562	58.00
1.01228	58.00
1.02895	58.00
1.04562	58.00
1.06228	58.00
1.07895	58.00
1.09562	58.00
1.11228	58.00
1.12895	58.00
1.14562	58.00
1.16228	58.00
1.17895	58.00
1.19562	58.00
1.21228	58.00
1.22895	58.00
1.24562	58.00
1.26228	58.00
1.27895	58.00
1.29562	58.00
1.31228	58.00
1.32895	58.00
1.34562	58.00
1.36228	58.00
1.37895	58.00
1.39562	58.00
1.41228	58.00
1.42895	58.00
1.44562	58.00
1.46228	58.00
1.47895	58.00
1.49562	58.00
1.51228	58.00
1.52895	58.00
1.54562	58.00
1.56228	58.00
1.57895	58.00
1.59562	58.00
1.61228	58.00
1.62895	58.00
1.64562	58.00
1.66228	58.00
1.67895	58.01
1.69562	58.00
1.71228	58.00
1.72895	58.00
1.74562	58.00
1.76228	58.00
1.77895	58.00
1.79562	58.00
1.81228	58.00
1.82895	58.00
1.84562	58.00
1.86228	58.00
1.87895	58.00
1.89562	58.00
1.91228	58.00
1.92895	58.00
1.94562	58.00
1.96228	58.00
1.97895	58.00
1.99562	58.00
2.01228	58.00
2.02895	58.00
2.04562	58.00
2.06228	58.00
2.07895	58.00
2.09562	58.00
2.11228	58.00
2.12895	58.00
2.14562	58.00
2.16228	58.00
2.17895	58.00
2.19562	58.00
2.21228	58.00
2.22895	58.00
2.24562	58.00
2.26228	58.00
2.27895	58.00
2.29562	58.00
2.31228	58.00
2.32895	58.00
2.34562	58.00
2.36228	58.00
2.37895	58.00
2.39562	57.99
2.41228	57.99
2.42895	58.00
2.44562	58.00
2.46228	58.00
2.47895	58.00
2.49562	58.00
2.51228	57.99
2.52895	57.99
2.54562	58.00
2.56228	58.00
2.57895	58.00
2.59562	58.00
2.61228	58.00
2.62895	58.00
2.64562	58.00
2.66228	58.00
2.67895	58.00
2.69562	58.00
2.71228	58.00
2.72895	58.00
2.74562	58.00
2.76228	58.00
2.77895	58.00
2.79562	58.00
2.81228	58.00
2.82895	58.00
2.84562	58.00
2.86228	58.00
2.87895	58.00
2.89562	58.00
2.91228	58.00
2.92895	58.00
2.94562	58.00
2.96228	58.00
2.97895	58.00
2.99562	58.00
3.01228	58.00
3.02895	58.00
3.04562	58.00
3.06228	58.00
3.07895	58.00
3.09562	58.00
3.11228	58.00
3.12895	58.00
3.14562	58.00
3.16228	58.00
3.17895	58.00
3.19562	58.00
3.21228	58.00
3.22895	58.00
3.24562	58.00
3.26228	58.00
3.27895	58.00
3.29562	58.00
3.31228	58.00
3.32895	58.00
3.34562	58.00
3.36228	58.00
3.37895	58.00
3.39562	58.00
3.41228	58.00
3.42895	58.00
3.44562	58.00
3.46228	58.00
3.47895	58.00
3.49562	58.00
3.51228	58.00
3.52895	58.00
3.54562	58.00
3.56228	58.00
3.57895	58.00
3.59562	58.00
3.61228	58.00
3.62895	58.00
3.64562	58.00
3.66228	58.00
3.67895	58.00
3.69562	58.00
3.71228	58.00
3.72895	58.00
3.74562	58.00
3.76228	58.00
3.77895	58.00
3.79562	58.00
3.81228	58.00
3.82895	58.00
3.84562	58.00
3.86228	58.00
3.87895	58.00
3.89562	58.00
3.91228	58.00
3.92895	58.00
3.94562	58.00
3.96228	58.00
3.97895	58.00
3.99562	58.00

[Status Trace (Carrier Gas Flow)]
Interval(msec)	1000
# of Points	240
Start Time(min)	0.012
End Time(min)	3.996
Intensity Units	
Intensity Multiplier	1
R.Time (min)	Intensity
0.01228	34.54
0.02895	34.54
0.04562	34.55
0.06228	34.54
0.07895	34.50
0.09562	34.52
0.11228	34.52
0.12895	34.52
0.14562	34.52
0.16228	34.52
0.17895	34.52
0.19562	34.52
0.21228	34.52
0.22895	34.52
0.24562	34.52
0.26228	34.52
0.27895	34.52
0.29562	34.52
0.31228	34.52
0.32895	34.52
0.34562	34.52
0.36228	34.52
0.37895	34.52
0.39562	34.52
0.41228	34.52
0.42895	34.52
0.44562	34.52
0.46228	34.52
0.47895	34.52
0.49562	34.52
0.51228	34.52
0.52895	34.52
0.54562	34.52
0.56228	34.52
0.57895	34.52
0.59562	34.52
0.61228	34.52
0.62895	34.52
0.64562	34.52
0.66228	34.52
0.67895	34.52
0.69562	34.52
0.71228	34.52
0.72895	34.51
0.74562	34.52
0.76228	34.52
0.77895	34.52
0.79562	34.52
0.81228	34.52
0.82895	34.52
0.84562	34.52
0.86228	34.51
0.87895	34.52
0.89562	34.52
0.91228	34.52
0.92895	34.52
0.94562	34.53
0.96228	34.52
0.97895	34.52
0.99562	34.52
1.01228	34.52
1.02895	34.52
1.04562	34.52
1.06228	34.52
1.07895	34.52
1.09562	34.52
1.11228	34.52
1.12895	34.52
1.14562	34.52
1.16228	34.52
1.17895	34.52
1.19562	34.52
1.21228	34.52
1.22895	34.52
1.24562	34.52
1.26228	34.52
1.27895	34.52
1.29562	34.52
1.31228	34.52
1.32895	34.52
1.34562	34.51
1.36228	34.52
1.37895	34.52
1.39562	34.52
1.41228	34.52
1.42895	34.52
1.44562	34.52
1.46228	34.52
1.47895	34.52
1.49562	34.52
1.51228	34.52
1.52895	34.52
1.54562	34.52
1.56228	34.52
1.57895	34.52
1.59562	34.52
1.61228	34.52
1.62895	34.52
1.64562	34.52
1.66228	34.51
1.67895	34.51
1.69562	34.51
1.71228	34.52
1.72895	34.51
1.74562	34.52
1.76228	34.52
1.77895	34.52
1.79562	34.52
1.81228	34.52
1.82895	34.52
1.84562	34.52
1.86228	34.52
1.87895	34.51
1.89562	34.52
1.91228	34.52
1.92895	34.52
1.94562	34.52
1.96228	34.52
1.97895	34.52
1.99562	34.52
2.01228	34.52
2.02895	34.52
2.04562	34.52
2.06228	34.52
2.07895	34.52
2.09562	34.52
2.11228	34.52
2.12895	34.52
2.14562	34.52
2.16228	34.52
2.17895	34.52
2.19562	34.51
2.21228	34.52
2.22895	34.52
2.24562	34.52
2.26228	34.52
2.27895	34.52
2.29562	34.52
2.31228	34.52
2.32895	34.52
2.34562	34.52
2.36228	34.52
2.37895	34.52
2.39562	34.52
2.41228	34.52
2.42895	34.52
2.44562	34.52
2.46228	34.52
2.47895	34.52
2.49562	34.52
2.51228	34.51
2.52895	34.51
2.54562	34.52
2.56228	34.52
2.57895	34.52
2.59562	34.52
2.61228	34.52
2.62895	34.52
2.64562	34.52
2.66228	34.52
2.67895	34.52
2.69562	34.52
2.71228	34.52
2.72895	34.52
2.74562	34.51
2.76228	34.52
2.77895	34.52
2.79562	34.51
2.81228	34.52
2.82895	34.52
2.84562	34.53
2.86228	34.52
2.87895	34.52
2.89562	34.52
2.91228	34.51
2.92895	34.51
2.94562	34.51
2.96228	34.52
2.97895	34.52
2.99562	34.51
3.01228	34.52
3.02895	34.52
3.04562	34.52
3.06228	34.52
3.07895	34.52
3.09562	34.52
3.11228	34.52
3.12895	34.52
3.14562	34.52
3.16228	34.52
3.17895	34.52
3.19562	34.52
3.21228	34.52
3.22895	34.52
3.24562	34.52
3.26228	34.52
3.27895	34.52
3.29562	34.52
3.31228	34.52
3.32895	34.52
3.34562	34.51
3.36228	34.52
3.37895	34.52
3.39562	34.51
3.41228	34.52
3.42895	34.51
3.44562	34.52
3.46228	34.52
3.47895	34.52
3.49562	34.51
3.51228	34.52
3.52895	34.52
3.54562	34.52
3.56228	34.52
3.57895	34.52
3.59562	34.52
3.61228	34.52
3.62895	34.52
3.64562	34.52
3.66228	34.52
3.67895	34.52
3.69562	34.52
3.71228	34.52
3.72895	34.52
3.74562	34.52
3.76228	34.52
3.77895	34.52
3.79562	34.51
3.81228	34.52
3.82895	34.52
3.84562	34.52
3.86228	34.52
3.87895	34.52
3.89562	34.51
3.91228	34.51
3.92895	34.52
3.94562	34.52
3.96228	34.52
3.97895	34.52
3.99562	34.52

[Status Trace (Column Flow)]
Interval(msec)	1000
# of Points	240
Start Time(min)	0.012
End Time(min)	3.996
Intensity Units	
Intensity Multiplier	1
R.Time (min)	Intensity
0.01228	5.52
0.02895	5.17
0.04562	5.49
0.06228	5.72
0.07895	5.62
0.09562	5.52
0.11228	5.52
0.12895	5.52
0.14562	5.52
0.16228	5.52
0.17895	5.52
0.19562	5.52
0.21228	5.52
0.22895	5.52
0.24562	5.52
0.26228	5.52
0.27895	5.52
0.29562	5.52
0.31228	5.52
0.32895	5.52
0.34562	5.52
0.36228	5.52
0.37895	5.52
0.39562	5.52
0.41228	5.52
0.42895	5.52
0.44562	5.52
0.46228	5.52
0.47895	5.52
0.49562	5.52
0.51228	5.52
0.52895	5.52
0.54562	5.52
0.56228	5.52
0.57895	5.52
0.59562	5.52
0.61228	5.52
0.62895	5.52
0.64562	5.52
0.66228	5.52
0.67895	5.52
0.69562	5.52
0.71228	5.52
0.72895	5.52
0.74562	5.52
0.76228	5.52
0.77895	5.52
0.79562	5.52
0.81228	5.52
0.82895	5.52
0.84562	5.52
0.86228	5.52
0.87895	5.52
0.89562	5.52
0.91228	5.52
0.92895	5.52
0.94562	5.52
0.96228	5.52
0.97895	5.52
0.99562	5.52
1.01228	5.52
1.02895	5.52
1.04562	5.52
1.06228	5.52
1.07895	5.52
1.09562	5.52
1.11228	5.52
1.12895	5.52
1.14562	5.52
1.16228	5.52
1.17895	5.52
1.19562	5.52
1.21228	5.52
1.22895	5.52
1.24562	5.52
1.26228	5.52
1.27895	5.52
1.29562	5.52
1.31228	5.52
1.32895	5.52
1.34562	5.52
1.36228	5.52
1.37895	5.52
1.39562	5.52
1.41228	5.52
1.42895	5.52
1.44562	5.52
1.46228	5.52
1.47895	5.52
1.49562	5.52
1.51228	5.52
1.52895	5.52
1.54562	5.52
1.56228	5.52
1.57895	5.52
1.59562	5.52
1.61228	5.52
1.62895	5.52
1.64562	5.51
1.66228	5.50
1.67895	5.49
1.69562	5.48
1.71228	5.47
1.72895	5.46
1.74562	5.45
1.76228	5.44
1.77895	5.43
1.79562	5.42
1.81228	5.41
1.82895	5.40
1.84562	5.39
1.86228	5.38
1.87895	5.37
1.89562	5.36
1.91228	5.35
1.92895	5.34
1.94562	5.33
1.96228	5.32
1.97895	5.31
1.99562	5.30
2.01228	5.29
2.02895	5.28
2.04562	5.27
2.06228	5.26
2.07895	5.25
2.09562	5.24
2.11228	5.23
2.12895	5.22
2.14562	5.21
2.16228	5.20
2.17895	5.19
2.19562	5.18
2.21228	5.18
2.22895	5.17
2.24562	5.16
2.26228	5.15
2.27895	5.14
2.29562	5.13
2.31228	5.12
2.32895	5.11
2.34562	5.10
2.36228	5.09
2.37895	5.09
2.39562	5.09
2.41228	5.09
2.42895	5.09
2.44562	5.09
2.46228	5.09
2.47895	5.09
2.49562	5.09
2.51228	5.08
2.52895	5.08
2.54562	5.09
2.56228	5.09
2.57895	5.08
2.59562	5.08
2.61228	5.08
2.62895	5.08
2.64562	5.08
2.66228	5.08
2.67895	5.08
2.69562	5.08
2.71228	5.08
2.72895	5.08
2.74562	5.08
2.76228	5.08
2.77895	5.08
2.79562	5.08
2.81228	5.08
2.82895	5.08
2.84562	5.08
2.86228	5.08
2.87895	5.08
2.89562	5.08
2.91228	5.08
2.92895	5.08
2.94562	5.08
2.96228	5.08
2.97895	5.08
2.99562	5.08
3.01228	5.08
3.02895	5.08
3.04562	5.08
3.06228	5.08
3.07895	5.08
3.09562	5.08
3.11228	5.08
3.12895	5.08
3.14562	5.08
3.16228	5.08
3.17895	5.08
3.19562	5.08
3.21228	5.08
3.22895	5.08
3.24562	5.08
3.26228	5.08
3.27895	5.08
3.29562	5.08
3.31228	5.08
3.32895	5.08
3.34562	5.08
3.36228	5.08
3.37895	5.08
3.39562	5.08
3.41228	5.08
3.42895	5.08
3.44562	5.08
3.46228	5.08
3.47895	5.08
3.49562	5.08
3.51228	5.08
3.52895	5.08
3.54562	5.08
3.56228	5.08
3.57895	5.08
3.59562	5.08
3.61228	5.08
3.62895	5.08
3.64562	5.08
3.66228	5.08
3.67895	5.08
3.69562	5.08
3.71228	5.08
3.72895	5.08
3.74562	5.08
3.76228	5.08
3.77895	5.08
3.79562	5.08
3.81228	5.08
3.82895	5.08
3.84562	5.08
3.86228	5.08
3.87895	5.08
3.89562	5.08
3.91228	5.08
3.92895	5.08
3.94562	5.08
3.96228	5.08
3.97895	5.08
3.99562	5.08

[Status Trace (Linear Velocity)]
Interval(msec)	1000
# of Points	240
Start Time(min)	0.012
End Time(min)	3.996
Intensity Units	
Intensity Multiplier	1
R.Time (min)	Intensity
0.01228	39.01
0.02895	37.01
0.04562	38.86
0.06228	40.12
0.07895	39.58
0.09562	39.00
0.11228	39.01
0.12895	39.02
0.14562	39.02
0.16228	39.02
0.17895	39.02
0.19562	39.02
0.21228	39.01
0.22895	39.01
0.24562	39.01
0.26228	39.02
0.27895	39.02
0.29562	39.02
0.31228	39.02
0.32895	39.02
0.34562	39.02
0.36228	39.01
0.37895	39.01
0.39562	39.01
0.41228	39.01
0.42895	39.01
0.44562	39.01
0.46228	39.01
0.47895	39.01
0.49562	39.01
0.51228	39.02
0.52895	39.02
0.54562	39.02
0.56228	39.02
0.57895	39.02
0.59562	39.02
0.61228	39.02
0.62895	39.02
0.64562	39.02
0.66228	39.02
0.67895	39.02
0.69562	39.02
0.71228	39.02
0.72895	39.02
0.74562	39.02
0.76228	39.02
0.77895	39.02
0.79562	39.02
0.81228	39.02
0.82895	39.02
0.84562	39.02
0.86228	39.02
0.87895	39.02
0.89562	39.02
0.91228	39.02
0.92895	39.02
0.94562	39.02
0.96228	39.02
0.97895	39.02
0.99562	39.02
1.01228	39.02
1.02895	39.02
1.04562	39.02
1.06228	39.02
1.07895	39.02
1.09562	39.02
1.11228	39.02
1.12895	39.02
1.14562	39.02
1.16228	39.02
1.17895	39.02
1.19562	39.02
1.21228	39.02
1.22895	39.02
1.24562	39.02
1.26228	39.02
1.27895	39.02
1.29562	39.02
1.31228	39.02
1.32895	39.02
1.34562	39.02
1.36228	39.02
1.37895	39.02
1.39562	39.02
1.41228	39.02
1.42895	39.02
1.44562	39.02
1.46228	39.02
1.47895	39.02
1.49562	39.02
1.51228	39.02
1.52895	39.02
1.54562	39.02
1.56228	39.02
1.57895	39.02
1.59562	39.02
1.61228	39.01
1.62895	39.00
1.64562	38.98
1.66228	38.95
1.67895	38.92
1.69562	38.88
1.71228	38.85
1.72895	38.82
1.74562	38.78
1.76228	38.76
1.77895	38.72
1.79562	38.69
1.81228	38.66
1.82895	38.63
1.84562	38.60
1.86228	38.57
1.87895	38.53
1.89562	38.50
1.91228	38.48
1.92895	38.44
1.94562	38.41
1.96228	38.38
1.97895	38.35
1.99562	38.32
2.01228	38.30
2.02895	38.26
2.04562	38.23
2.06228	38.20
2.07895	38.17
2.09562	38.14
2.11228	38.11
2.12895	38.09
2.14562	38.05
2.16228	38.03
2.17895	37.99
2.19562	37.96
2.21228	37.94
2.22895	37.91
2.24562	37.87
2.26228	37.85
2.27895	37.82
2.29562	37.79
2.31228	37.76
2.32895	37.73
2.34562	37.70
2.36228	37.68
2.37895	37.66
2.39562	37.65
2.41228	37.65
2.42895	37.65
2.44562	37.65
2.46228	37.65
2.47895	37.65
2.49562	37.65
2.51228	37.65
2.52895	37.64
2.54562	37.65
2.56228	37.65
2.57895	37.65
2.59562	37.65
2.61228	37.65
2.62895	37.65
2.64562	37.65
2.66228	37.65
2.67895	37.65
2.69562	37.64
2.71228	37.65
2.72895	37.65
2.74562	37.65
2.76228	37.64
2.77895	37.64
2.79562	37.65
2.81228	37.65
2.82895	37.64
2.84562	37.64
2.86228	37.64
2.87895	37.64
2.89562	37.64
2.91228	37.64
2.92895	37.64
2.94562	37.64
2.96228	37.64
2.97895	37.64
2.99562	37.64
3.01228	37.63
3.02895	37.63
3.04562	37.63
3.06228	37.63
3.07895	37.63
3.09562	37.63
3.11228	37.63
3.12895	37.63
3.14562	37.63
3.16228	37.63
3.17895	37.63
3.19562	37.63
3.21228	37.63
3.22895	37.63
3.24562	37.63
3.26228	37.62
3.27895	37.62
3.29562	37.62
3.31228	37.62
3.32895	37.62
3.34562	37.62
3.36228	37.63
3.37895	37.62
3.39562	37.62
3.41228	37.62
3.42895	37.62
3.44562	37.63
3.46228	37.63
3.47895	37.63
3.49562	37.63
3.51228	37.63
3.52895	37.63
3.54562	37.63
3.56228	37.63
3.57895	37.63
3.59562	37.63
3.61228	37.63
3.62895	37.63
3.64562	37.63
3.66228	37.63
3.67895	37.63
3.69562	37.63
3.71228	37.63
3.72895	37.63
3.74562	37.63
3.76228	37.63
3.77895	37.63
3.79562	37.63
3.81228	37.63
3.82895	37.63
3.84562	37.63
3.86228	37.63
3.87895	37.63
3.89562	37.63
3.91228	37.63
3.92895	37.63
3.94562	37.63
3.96228	37.63
3.97895	37.63
3.99562	37.63

