[Header]
Application Name	LabSolutions
Version	5.110
Data File Name	C:\Users\User\Desktop\GC Analyses\Jack\Nachusa Grasslands Sampling\T2 Timepoint July 12th\T2_07122022_085.gcd
Output Date	3/14/2023
Output Time	3:42:35 PM

[File Information]
Type	Data File
Generated	3/10/2023 9:57:26 PM
Generated by	System Administrator
Modified	3/10/2023 10:04:06 PM
Modified by	System Administrator

[Sample Information]
Operator Name	System Administrator
Acquired	3/10/2023 10:00:05 PM
Sample Type	0:Unknown
Level	0
Sample Name	085
Sample ID	085
ISTD Amount1	1
ISTD Amount2	1
ISTD Amount3	1
ISTD Amount4	1
ISTD Amount5	1
ISTD Amount6	1
ISTD Amount7	1
ISTD Amount8	1
ISTD Amount9	1
ISTD Amount10	1
ISTD Amount11	1
ISTD Amount12	1
ISTD Amount13	1
ISTD Amount14	1
ISTD Amount15	1
ISTD Amount16	1
ISTD Amount17	1
ISTD Amount18	1
ISTD Amount19	1
ISTD Amount20	1
ISTD Amount21	1
ISTD Amount22	1
ISTD Amount23	1
ISTD Amount24	1
ISTD Amount25	1
ISTD Amount26	1
ISTD Amount27	1
ISTD Amount28	1
ISTD Amount29	1
ISTD Amount30	1
ISTD Amount31	1
ISTD Amount32	1
Sample Amount	1
Dilution Factor	1
Vial#	84
Injection Volume	1
Injection Count	1
Bar Code	

[Original Files]
Data File	C:\Users\User\Desktop\GC Analyses\Jack\Nachusa Grasslands Sampling\T1 Timepoint July 12th\T2_07122022_085.gcd
Method File	C:\LabSolutions\Data\GHG_4min_2022\ghg3_togas_w_acet_4 min_new_int.gcm
Batch File	C:\LabSolutions\Data\AutoSamplerTesting\T2_07122022.gcb
Report Format File	c:\LabSolutions\System\DEFAULT.lsr

[File Description]


[Configuration]
Instrument Name	C0B7VH3-Instrument1
Instrument #	1
Line #	1
# of Detectors	3
Detector ID	DET#1	DET#2	DET#3
Detector Name	FID	PTCD	ECD
# of Channels	1	1	1

[Peak Table(Ch1)]
# of Peaks	3
Peak#	R.Time	I.Time	F.Time	Area	Height	A/H	Conc.	Mark	ID#	Name	k'	Plate #	Plate Ht.	Tailing	Resolution	Sep.Factor	Area Ratio	Height Ratio	Conc. %	Norm Conc.
1	1.476	1.439	1.538	25158	11963	2.103	177.615	   	1	CO	0.000	9420	15.924	1.303	0.000	0.000	0	0	23.489	23.489
2	1.567	1.538	1.626	4493	2211	2.032	86.879	 V 	2	CH4	0.062	10627	14.115	0.000	1.507	0.000	0	0	11.489	11.489
3	1.996	1.949	2.506	1959085	936016	2.093	491.677	   	3	CO2	0.353	17306	8.667	1.269	7.061	5.680	0	0	65.022	65.022

[Peak Table(Ch2)]
# of Peaks	0

[Peak Table(Ch3)]
# of Peaks	4
Peak#	R.Time	I.Time	F.Time	Area	Height	A/H	Conc.	Mark	ID#	Name	k'	Plate #	Plate Ht.	Tailing	Resolution	Sep.Factor	Area Ratio	Height Ratio	Conc. %	Norm Conc.
1	2.462	2.286	2.510	2180	641	3.399	0.000	   			0.000	9966	15.052	0.000	0.000	0.000	0	0	0.000	0.000
2	2.535	2.510	2.700	1427	297	4.802	0.000	 V 			0.030	4606	32.568	0.000	0.591	0.000	0	0	0.000	0.000
3	2.876	2.730	3.056	19288	4988	3.867	0.493	   	1	N2O	0.168	13123	11.430	1.637	2.729	5.650	0	0	100.000	100.000
4	3.144	3.063	3.661	10160	450	22.574	0.000	   	2	SF6	0.277	629	238.580	3.809	0.889	1.646	0	0	0.000	0.000

[Compound Results(Ch1)]
# of IDs	6
ID#	Name	R.Time	Area	Height	Conc.	Curve	3rd	2nd	1st	Constant	Area Ratio	Height Ratio	Conc. %	Norm Conc.
1	CO	1.476	25158	11963	177.615	Linear	0.000000e+00	0.000000e+00	1.416423e+002	0.000000e+00	0	0	23.489	23.489
2	CH4	1.567	4493	2211	86.879	Linear	0.000000e+00	0.000000e+00	5.171738e+001	0.000000e+00	0	0	11.489	11.489
3	CO2	1.996	1959085	936016	491.677	Linear	0.000000e+00	0.000000e+00	3.984494e+003	0.000000e+00	0	0	65.022	65.022
4	Ethylene	0.000	0	0	0.000	Linear	0.000000e+00	0.000000e+00	0.000000e+00	0.000000e+00	0	0	0.000	0.000
5	Acetylene	0.000	0	0	0.000	Linear	0.000000e+00	0.000000e+00	0.000000e+00	0.000000e+00	0	0	0.000	0.000
6	Ethane	0.000	0	0	0.000	Linear	0.000000e+00	0.000000e+00	0.000000e+00	0.000000e+00	0	0	0.000	0.000

[Compound Results(Ch2)]
# of IDs	5
ID#	Name	R.Time	Area	Height	Conc.	Curve	3rd	2nd	1st	Constant	Area Ratio	Height Ratio	Conc. %	Norm Conc.
1	Hydrogen	0.000	0	0	0.000	Linear	0.000000e+00	0.000000e+00	0.000000e+00	0.000000e+00	0	0	0.000	0.000
2	Oxygen	0.000	0	0	0.000	Linear	0.000000e+00	0.000000e+00	0.000000e+00	0.000000e+00	0	0	0.000	0.000
3	Nitrogen	0.000	0	0	0.000	Linear	0.000000e+00	0.000000e+00	0.000000e+00	0.000000e+00	0	0	0.000	0.000
4	Methane	0.000	0	0	0.000	Linear	0.000000e+00	0.000000e+00	0.000000e+00	0.000000e+00	0	0	0.000	0.000
5	Carbon Monoxide	0.000	0	0	0.000	Linear	0.000000e+00	0.000000e+00	0.000000e+00	0.000000e+00	0	0	0.000	0.000

[Compound Results(Ch3)]
# of IDs	2
ID#	Name	R.Time	Area	Height	Conc.	Curve	3rd	2nd	1st	Constant	Area Ratio	Height Ratio	Conc. %	Norm Conc.
1	N2O	2.876	19288	4988	0.493	Linear	0.000000e+00	0.000000e+00	3.915173e+004	0.000000e+00	0	0	100.000	100.000
2	SF6	3.144	10160	450	0.000	Linear	0.000000e+00	0.000000e+00	0.000000e+00	0.000000e+00	0	0	0.000	0.000

[Group Results(Ch1)]
# of Groups	0

[Group Results(Ch2)]
# of Groups	0

[Group Results(Ch3)]
# of Groups	0

[Chromatogram (Ch1)]
Interval(msec)	220
# of Points	1091
Start Time(min)	0.002
End Time(min)	3.998
R.Time (min)	Intensity
0.00167	-8
0.00533	-7
0.00900	-5
0.01267	-2
0.01633	2
0.02000	5
0.02367	1
0.02733	-8
0.03100	-18
0.03467	-27
0.03833	-34
0.04200	-40
0.04567	-42
0.04933	-43
0.05300	-44
0.05667	-42
0.06033	-33
0.06400	-25
0.06767	-25
0.07133	-28
0.07500	-30
0.07867	-25
0.08233	-16
0.08600	-9
0.08967	-7
0.09333	-10
0.09700	-10
0.10067	-12
0.10433	-13
0.10800	-15
0.11167	-17
0.11533	-19
0.11900	-19
0.12267	-20
0.12633	-18
0.13000	-15
0.13367	-11
0.13733	-6
0.14100	-2
0.14467	-4
0.14833	-8
0.15200	-11
0.15567	-10
0.15933	-4
0.16300	5
0.16667	11
0.17033	15
0.17400	19
0.17767	17
0.18133	10
0.18500	1
0.18867	-6
0.19233	-10
0.19600	-12
0.19967	-11
0.20333	-11
0.20700	-8
0.21067	0
0.21433	10
0.21800	16
0.22167	13
0.22533	4
0.22900	-7
0.23267	-16
0.23633	-16
0.24000	-10
0.24367	-6
0.24733	-3
0.25100	3
0.25467	11
0.25833	23
0.26200	32
0.26567	35
0.26933	40
0.27300	45
0.27667	51
0.28033	62
0.28400	72
0.28767	77
0.29133	75
0.29500	70
0.29867	66
0.30233	64
0.30600	65
0.30967	68
0.31333	71
0.31700	77
0.32067	85
0.32433	88
0.32800	86
0.33167	79
0.33533	73
0.33900	69
0.34267	64
0.34633	59
0.35000	53
0.35367	51
0.35733	52
0.36100	51
0.36467	50
0.36833	49
0.37200	48
0.37567	47
0.37933	42
0.38300	35
0.38667	28
0.39033	20
0.39400	13
0.39767	7
0.40133	0
0.40500	-5
0.40867	-7
0.41233	-8
0.41600	-5
0.41967	-3
0.42333	-0
0.42700	-0
0.43067	-6
0.43433	-15
0.43800	-22
0.44167	-27
0.44533	-27
0.44900	-23
0.45267	-20
0.45633	-19
0.46000	-18
0.46367	-22
0.46733	-30
0.47100	-38
0.47467	-41
0.47833	-40
0.48200	-37
0.48567	-36
0.48933	-37
0.49300	-38
0.49667	-37
0.50033	-35
0.50400	-30
0.50767	-23
0.51133	-21
0.51500	-22
0.51867	-21
0.52233	-18
0.52600	-17
0.52967	-19
0.53333	-20
0.53700	-22
0.54067	-24
0.54433	-24
0.54800	-22
0.55167	-18
0.55533	-20
0.55900	-29
0.56267	-39
0.56633	-45
0.57000	-48
0.57367	-48
0.57733	-48
0.58100	-55
0.58467	-66
0.58833	-71
0.59200	-71
0.59567	-69
0.59933	-66
0.60300	-63
0.60667	-62
0.61033	-60
0.61400	-57
0.61767	-52
0.62133	-47
0.62500	-44
0.62867	-45
0.63233	-49
0.63600	-50
0.63967	-44
0.64333	-39
0.64700	-37
0.65067	-35
0.65433	-36
0.65800	-42
0.66167	-51
0.66533	-57
0.66900	-55
0.67267	-49
0.67633	-45
0.68000	-42
0.68367	-45
0.68733	-48
0.69100	-49
0.69467	-48
0.69833	-47
0.70200	-45
0.70567	-43
0.70933	-41
0.71300	-38
0.71667	-32
0.72033	-25
0.72400	-20
0.72767	-20
0.73133	-24
0.73500	-27
0.73867	-30
0.74233	-34
0.74600	-38
0.74967	-40
0.75333	-42
0.75700	-46
0.76067	-47
0.76433	-48
0.76800	-47
0.77167	-50
0.77533	-53
0.77900	-51
0.78267	-48
0.78633	-49
0.79000	-52
0.79367	-54
0.79733	-53
0.80100	-50
0.80467	-46
0.80833	-45
0.81200	-46
0.81567	-49
0.81933	-53
0.82300	-57
0.82667	-54
0.83033	-49
0.83400	-50
0.83767	-55
0.84133	-53
0.84500	-46
0.84867	-40
0.85233	-36
0.85600	-36
0.85967	-42
0.86333	-55
0.86700	-70
0.87067	-82
0.87433	-84
0.87800	-77
0.88167	-68
0.88533	-62
0.88900	-59
0.89267	-59
0.89633	-62
0.90000	-66
0.90367	-69
0.90733	-70
0.91100	-69
0.91467	-63
0.91833	-62
0.92200	-67
0.92567	-70
0.92933	-72
0.93300	-73
0.93667	-72
0.94033	-68
0.94400	-57
0.94767	-49
0.95133	-49
0.95500	-50
0.95867	-48
0.96233	-48
0.96600	-50
0.96967	-49
0.97333	-46
0.97700	-52
0.98067	-61
0.98433	-63
0.98800	-62
0.99167	-57
0.99533	-47
0.99900	-41
1.00267	-45
1.00633	-53
1.01000	-64
1.01367	-69
1.01733	-70
1.02100	-69
1.02467	-69
1.02833	-65
1.03200	-61
1.03567	-57
1.03933	-54
1.04300	-57
1.04667	-64
1.05033	-69
1.05400	-71
1.05767	-71
1.06133	-75
1.06500	-80
1.06867	-82
1.07233	-82
1.07600	-82
1.07967	-81
1.08333	-73
1.08700	-62
1.09067	-52
1.09433	-41
1.09800	-36
1.10167	-41
1.10533	-50
1.10900	-58
1.11267	-64
1.11633	-63
1.12000	-57
1.12367	-59
1.12733	-66
1.13100	-70
1.13467	-71
1.13833	-67
1.14200	-59
1.14567	-55
1.14933	-49
1.15300	-42
1.15667	-40
1.16033	-46
1.16400	-60
1.16767	-76
1.17133	-87
1.17500	-90
1.17867	-89
1.18233	-87
1.18600	-85
1.18967	-84
1.19333	-80
1.19700	-73
1.20067	-67
1.20433	-64
1.20800	-67
1.21167	-70
1.21533	-71
1.21900	-72
1.22267	-72
1.22633	-71
1.23000	-68
1.23367	-67
1.23733	-70
1.24100	-75
1.24467	-77
1.24833	-76
1.25200	-74
1.25567	-73
1.25933	-69
1.26300	-62
1.26667	-54
1.27033	-49
1.27400	-50
1.27767	-51
1.28133	-55
1.28500	-60
1.28867	-62
1.29233	-66
1.29600	-70
1.29967	-74
1.30333	-77
1.30700	-76
1.31067	-75
1.31433	-76
1.31800	-76
1.32167	-77
1.32533	-79
1.32900	-84
1.33267	-87
1.33633	-85
1.34000	-82
1.34367	-81
1.34733	-78
1.35100	-77
1.35467	-79
1.35833	-79
1.36200	-76
1.36567	-78
1.36933	-79
1.37300	-75
1.37667	-74
1.38033	-78
1.38400	-84
1.38767	-90
1.39133	-95
1.39500	-95
1.39867	-91
1.40233	-87
1.40600	-84
1.40967	-79
1.41333	-73
1.41700	-64
1.42067	-59
1.42433	-59
1.42800	-61
1.43167	-66
1.43533	-68
1.43900	-49
1.44267	39
1.44633	269
1.45000	839
1.45367	2099
1.45733	4095
1.46100	6417
1.46467	8585
1.46833	10318
1.47200	11469
1.47567	11919
1.47933	11578
1.48300	10480
1.48667	8856
1.49033	7045
1.49400	5345
1.49767	3926
1.50133	2827
1.50500	2021
1.50867	1452
1.51233	1055
1.51600	773
1.51967	568
1.52333	420
1.52700	316
1.53067	245
1.53433	198
1.53800	185
1.54167	235
1.54533	406
1.54900	725
1.55267	1130
1.55633	1527
1.56000	1856
1.56367	2080
1.56733	2180
1.57100	2131
1.57467	1923
1.57833	1599
1.58200	1236
1.58567	899
1.58933	622
1.59300	416
1.59667	273
1.60033	178
1.60400	115
1.60767	72
1.61133	42
1.61500	21
1.61867	3
1.62233	-12
1.62600	-22
1.62967	-24
1.63333	-17
1.63700	-5
1.64067	4
1.64433	-0
1.64800	-16
1.65167	-35
1.65533	-54
1.65900	-64
1.66267	-67
1.66633	-70
1.67000	-70
1.67367	-69
1.67733	-66
1.68100	-60
1.68467	-54
1.68833	-49
1.69200	-39
1.69567	-32
1.69933	-28
1.70300	-26
1.70667	-28
1.71033	-35
1.71400	-37
1.71767	-35
1.72133	-31
1.72500	-27
1.72867	-24
1.73233	-26
1.73600	-32
1.73967	-42
1.74333	-54
1.74700	-61
1.75067	-64
1.75433	-64
1.75800	-64
1.76167	-63
1.76533	-58
1.76900	-55
1.77267	-59
1.77633	-64
1.78000	-64
1.78367	-62
1.78733	-63
1.79100	-65
1.79467	-68
1.79833	-72
1.80200	-75
1.80567	-75
1.80933	-71
1.81300	-66
1.81667	-62
1.82033	-59
1.82400	-53
1.82767	-44
1.83133	-39
1.83500	-34
1.83867	-37
1.84233	-47
1.84600	-54
1.84967	-53
1.85333	-46
1.85700	-39
1.86067	-39
1.86433	-42
1.86800	-47
1.87167	-51
1.87533	-51
1.87900	-53
1.88267	-58
1.88633	-59
1.89000	-56
1.89367	-53
1.89733	-52
1.90100	-49
1.90467	-49
1.90833	-48
1.91200	-45
1.91567	-43
1.91933	-37
1.92300	-25
1.92667	-14
1.93033	-8
1.93400	-12
1.93767	-21
1.94133	-25
1.94500	-30
1.94867	-34
1.95233	-8
1.95600	195
1.95967	1339
1.96333	6396
1.96700	23363
1.97067	67107
1.97433	154635
1.97800	291991
1.98167	464619
1.98533	643048
1.98900	795577
1.99267	897862
1.99633	936025
2.00000	906911
2.00367	819722
2.00733	694341
2.01100	554900
2.01467	422251
2.01833	309297
2.02200	220599
2.02567	154906
2.02933	108200
2.03300	75885
2.03667	53890
2.04033	39034
2.04400	29006
2.04767	22186
2.05133	17492
2.05500	14207
2.05867	11857
2.06233	10137
2.06600	8847
2.06967	7851
2.07333	7060
2.07700	6416
2.08067	5888
2.08433	5448
2.08800	5063
2.09167	4723
2.09533	4425
2.09900	4164
2.10267	3934
2.10633	3729
2.11000	3542
2.11367	3370
2.11733	3215
2.12100	3071
2.12467	2936
2.12833	2812
2.13200	2697
2.13567	2589
2.13933	2488
2.14300	2395
2.14667	2308
2.15033	2228
2.15400	2156
2.15767	2090
2.16133	2029
2.16500	1972
2.16867	1917
2.17233	1862
2.17600	1807
2.17967	1751
2.18333	1700
2.18700	1655
2.19067	1618
2.19433	1580
2.19800	1534
2.20167	1489
2.20533	1449
2.20900	1413
2.21267	1379
2.21633	1348
2.22000	1317
2.22367	1284
2.22733	1249
2.23100	1215
2.23467	1184
2.23833	1160
2.24200	1145
2.24567	1133
2.24933	1118
2.25300	1096
2.25667	1065
2.26033	1033
2.26400	1005
2.26767	983
2.27133	965
2.27500	949
2.27867	938
2.28233	929
2.28600	918
2.28967	905
2.29333	897
2.29700	889
2.30067	875
2.30433	856
2.30800	836
2.31167	818
2.31533	803
2.31900	792
2.32267	784
2.32633	772
2.33000	760
2.33367	749
2.33733	739
2.34100	727
2.34467	719
2.34833	710
2.35200	700
2.35567	691
2.35933	683
2.36300	680
2.36667	678
2.37033	675
2.37400	671
2.37767	667
2.38133	661
2.38500	654
2.38867	646
2.39233	639
2.39600	637
2.39967	630
2.40333	618
2.40700	607
2.41067	599
2.41433	600
2.41800	605
2.42167	606
2.42533	598
2.42900	587
2.43267	574
2.43633	561
2.44000	551
2.44367	542
2.44733	531
2.45100	520
2.45467	511
2.45833	507
2.46200	507
2.46567	512
2.46933	518
2.47300	516
2.47667	510
2.48033	505
2.48400	501
2.48767	496
2.49133	489
2.49500	484
2.49867	481
2.50233	476
2.50600	468
2.50967	459
2.51333	455
2.51700	458
2.52067	465
2.52433	472
2.52800	479
2.53167	487
2.53533	493
2.53900	491
2.54267	486
2.54633	482
2.55000	476
2.55367	471
2.55733	465
2.56100	455
2.56467	445
2.56833	439
2.57200	433
2.57567	429
2.57933	431
2.58300	435
2.58667	435
2.59033	432
2.59400	432
2.59767	431
2.60133	431
2.60500	433
2.60867	434
2.61233	437
2.61600	438
2.61967	433
2.62333	424
2.62700	414
2.63067	406
2.63433	400
2.63800	398
2.64167	402
2.64533	409
2.64900	412
2.65267	412
2.65633	413
2.66000	414
2.66367	412
2.66733	409
2.67100	411
2.67467	419
2.67833	430
2.68200	442
2.68567	452
2.68933	454
2.69300	450
2.69667	447
2.70033	442
2.70400	434
2.70767	426
2.71133	423
2.71500	423
2.71867	421
2.72233	418
2.72600	417
2.72967	419
2.73333	422
2.73700	423
2.74067	423
2.74433	423
2.74800	422
2.75167	423
2.75533	432
2.75900	441
2.76267	445
2.76633	445
2.77000	438
2.77367	427
2.77733	417
2.78100	410
2.78467	403
2.78833	397
2.79200	395
2.79567	394
2.79933	396
2.80300	401
2.80667	407
2.81033	413
2.81400	414
2.81767	409
2.82133	403
2.82500	405
2.82867	412
2.83233	418
2.83600	418
2.83967	414
2.84333	408
2.84700	403
2.85067	398
2.85433	394
2.85800	392
2.86167	396
2.86533	401
2.86900	402
2.87267	399
2.87633	396
2.88000	399
2.88367	403
2.88733	407
2.89100	411
2.89467	413
2.89833	410
2.90200	400
2.90567	388
2.90933	377
2.91300	370
2.91667	367
2.92033	371
2.92400	380
2.92767	388
2.93133	395
2.93500	397
2.93867	390
2.94233	377
2.94600	368
2.94967	364
2.95333	364
2.95700	366
2.96067	369
2.96433	368
2.96800	365
2.97167	363
2.97533	357
2.97900	353
2.98267	352
2.98633	353
2.99000	355
2.99367	356
2.99733	354
3.00100	350
3.00467	347
3.00833	347
3.01200	350
3.01567	354
3.01933	361
3.02300	362
3.02667	365
3.03033	367
3.03400	367
3.03767	362
3.04133	355
3.04500	346
3.04867	339
3.05233	339
3.05600	345
3.05967	346
3.06333	344
3.06700	343
3.07067	345
3.07433	351
3.07800	356
3.08167	357
3.08533	351
3.08900	344
3.09267	340
3.09633	337
3.10000	336
3.10367	336
3.10733	334
3.11100	328
3.11467	318
3.11833	309
3.12200	307
3.12567	309
3.12933	312
3.13300	317
3.13667	326
3.14033	334
3.14400	333
3.14767	324
3.15133	316
3.15500	315
3.15867	320
3.16233	327
3.16600	330
3.16967	333
3.17333	332
3.17700	323
3.18067	312
3.18433	300
3.18800	293
3.19167	289
3.19533	285
3.19900	280
3.20267	279
3.20633	284
3.21000	291
3.21367	299
3.21733	305
3.22100	310
3.22467	313
3.22833	311
3.23200	310
3.23567	309
3.23933	305
3.24300	299
3.24667	291
3.25033	281
3.25400	274
3.25767	271
3.26133	271
3.26500	271
3.26867	269
3.27233	264
3.27600	260
3.27967	257
3.28333	260
3.28700	265
3.29067	271
3.29433	275
3.29800	280
3.30167	287
3.30533	289
3.30900	284
3.31267	275
3.31633	266
3.32000	263
3.32367	266
3.32733	269
3.33100	270
3.33467	269
3.33833	268
3.34200	270
3.34567	274
3.34933	276
3.35300	272
3.35667	265
3.36033	259
3.36400	256
3.36767	254
3.37133	254
3.37500	253
3.37867	253
3.38233	256
3.38600	258
3.38967	255
3.39333	246
3.39700	238
3.40067	237
3.40433	236
3.40800	236
3.41167	241
3.41533	252
3.41900	260
3.42267	266
3.42633	272
3.43000	273
3.43367	269
3.43733	261
3.44100	253
3.44467	247
3.44833	243
3.45200	240
3.45567	239
3.45933	242
3.46300	241
3.46667	239
3.47033	239
3.47400	238
3.47767	236
3.48133	233
3.48500	224
3.48867	213
3.49233	206
3.49600	203
3.49967	201
3.50333	200
3.50700	200
3.51067	200
3.51433	203
3.51800	209
3.52167	218
3.52533	226
3.52900	228
3.53267	226
3.53633	223
3.54000	220
3.54367	217
3.54733	214
3.55100	213
3.55467	216
3.55833	220
3.56200	220
3.56567	219
3.56933	219
3.57300	225
3.57667	232
3.58033	235
3.58400	233
3.58767	229
3.59133	224
3.59500	217
3.59867	212
3.60233	216
3.60600	221
3.60967	225
3.61333	227
3.61700	227
3.62067	226
3.62433	225
3.62800	221
3.63167	218
3.63533	219
3.63900	220
3.64267	223
3.64633	222
3.65000	215
3.65367	204
3.65733	194
3.66100	187
3.66467	187
3.66833	188
3.67200	185
3.67567	180
3.67933	177
3.68300	173
3.68667	175
3.69033	181
3.69400	191
3.69767	201
3.70133	206
3.70500	211
3.70867	209
3.71233	200
3.71600	195
3.71967	196
3.72333	197
3.72700	195
3.73067	195
3.73433	197
3.73800	196
3.74167	190
3.74533	183
3.74900	183
3.75267	187
3.75633	190
3.76000	188
3.76367	186
3.76733	179
3.77100	170
3.77467	164
3.77833	159
3.78200	157
3.78567	159
3.78933	165
3.79300	175
3.79667	184
3.80033	189
3.80400	188
3.80767	185
3.81133	184
3.81500	185
3.81867	187
3.82233	192
3.82600	194
3.82967	190
3.83333	179
3.83700	170
3.84067	167
3.84433	168
3.84800	169
3.85167	168
3.85533	165
3.85900	162
3.86267	158
3.86633	153
3.87000	151
3.87367	149
3.87733	144
3.88100	141
3.88467	140
3.88833	140
3.89200	142
3.89567	144
3.89933	146
3.90300	146
3.90667	141
3.91033	141
3.91400	146
3.91767	151
3.92133	151
3.92500	147
3.92867	145
3.93233	147
3.93600	150
3.93967	146
3.94333	142
3.94700	140
3.95067	142
3.95433	147
3.95800	155
3.96167	157
3.96533	155
3.96900	160
3.97267	163
3.97633	162
3.98000	160
3.98367	157
3.98733	154
3.99100	154
3.99467	156
3.99833	161

[Chromatogram (Ch2)]
Interval(msec)	220
# of Points	1091
Start Time(min)	0.002
End Time(min)	3.998
R.Time (min)	Intensity
0.00167	1
0.00533	1
0.00900	1
0.01267	2
0.01633	2
0.02000	2
0.02367	2
0.02733	2
0.03100	2
0.03467	2
0.03833	2
0.04200	2
0.04567	2
0.04933	2
0.05300	2
0.05667	2
0.06033	2
0.06400	2
0.06767	2
0.07133	1
0.07500	1
0.07867	1
0.08233	0
0.08600	-0
0.08967	-0
0.09333	-0
0.09700	-1
0.10067	-1
0.10433	-1
0.10800	-1
0.11167	-1
0.11533	-1
0.11900	-1
0.12267	-1
0.12633	-1
0.13000	-1
0.13367	-1
0.13733	-1
0.14100	-1
0.14467	-1
0.14833	-1
0.15200	-1
0.15567	-0
0.15933	0
0.16300	1
0.16667	1
0.17033	1
0.17400	2
0.17767	2
0.18133	2
0.18500	2
0.18867	2
0.19233	1
0.19600	1
0.19967	1
0.20333	1
0.20700	2
0.21067	2
0.21433	2
0.21800	2
0.22167	2
0.22533	2
0.22900	2
0.23267	2
0.23633	1
0.24000	1
0.24367	1
0.24733	1
0.25100	1
0.25467	1
0.25833	1
0.26200	1
0.26567	1
0.26933	0
0.27300	-0
0.27667	-1
0.28033	-1
0.28400	-2
0.28767	-2
0.29133	-2
0.29500	-3
0.29867	-3
0.30233	-3
0.30600	-3
0.30967	-4
0.31333	-4
0.31700	-4
0.32067	-4
0.32433	-4
0.32800	-5
0.33167	-4
0.33533	-4
0.33900	-4
0.34267	-4
0.34633	-3
0.35000	-3
0.35367	-2
0.35733	-2
0.36100	-2
0.36467	-2
0.36833	-1
0.37200	-1
0.37567	-1
0.37933	-1
0.38300	-1
0.38667	-1
0.39033	-1
0.39400	-0
0.39767	-0
0.40133	-0
0.40500	0
0.40867	1
0.41233	1
0.41600	1
0.41967	1
0.42333	1
0.42700	1
0.43067	1
0.43433	2
0.43800	2
0.44167	2
0.44533	2
0.44900	2
0.45267	1
0.45633	1
0.46000	1
0.46367	0
0.46733	-0
0.47100	-1
0.47467	-1
0.47833	-1
0.48200	-2
0.48567	-1
0.48933	-1
0.49300	-1
0.49667	-1
0.50033	-1
0.50400	-0
0.50767	0
0.51133	0
0.51500	1
0.51867	1
0.52233	1
0.52600	2
0.52967	2
0.53333	2
0.53700	2
0.54067	2
0.54433	2
0.54800	2
0.55167	2
0.55533	2
0.55900	1
0.56267	1
0.56633	0
0.57000	-0
0.57367	-1
0.57733	-1
0.58100	-2
0.58467	-2
0.58833	-2
0.59200	-2
0.59567	-2
0.59933	-2
0.60300	-3
0.60667	-3
0.61033	-3
0.61400	-3
0.61767	-4
0.62133	-4
0.62500	-4
0.62867	-3
0.63233	-3
0.63600	-2
0.63967	-2
0.64333	-2
0.64700	-1
0.65067	-1
0.65433	-1
0.65800	-0
0.66167	0
0.66533	0
0.66900	1
0.67267	1
0.67633	1
0.68000	0
0.68367	-0
0.68733	-1
0.69100	-1
0.69467	-1
0.69833	-1
0.70200	-1
0.70567	-1
0.70933	-1
0.71300	-1
0.71667	-1
0.72033	-0
0.72400	-0
0.72767	-0
0.73133	0
0.73500	0
0.73867	0
0.74233	1
0.74600	1
0.74967	1
0.75333	1
0.75700	1
0.76067	1
0.76433	1
0.76800	1
0.77167	1
0.77533	1
0.77900	1
0.78267	1
0.78633	1
0.79000	0
0.79367	0
0.79733	0
0.80100	1
0.80467	1
0.80833	0
0.81200	0
0.81567	0
0.81933	-0
0.82300	-0
0.82667	-0
0.83033	-1
0.83400	-1
0.83767	-1
0.84133	-1
0.84500	-1
0.84867	-1
0.85233	-1
0.85600	-1
0.85967	-1
0.86333	-1
0.86700	-1
0.87067	-1
0.87433	-1
0.87800	-1
0.88167	-1
0.88533	-0
0.88900	0
0.89267	0
0.89633	0
0.90000	-0
0.90367	-0
0.90733	-1
0.91100	-1
0.91467	-1
0.91833	-1
0.92200	-1
0.92567	-1
0.92933	-1
0.93300	-1
0.93667	-2
0.94033	-2
0.94400	-2
0.94767	-2
0.95133	-2
0.95500	-3
0.95867	-3
0.96233	-3
0.96600	-3
0.96967	-3
0.97333	-3
0.97700	-3
0.98067	-3
0.98433	-3
0.98800	-3
0.99167	-3
0.99533	-3
0.99900	-3
1.00267	-3
1.00633	-3
1.01000	-3
1.01367	-3
1.01733	-3
1.02100	-4
1.02467	-4
1.02833	-3
1.03200	-3
1.03567	-4
1.03933	-3
1.04300	-3
1.04667	-3
1.05033	-3
1.05400	-3
1.05767	-3
1.06133	-2
1.06500	-2
1.06867	-2
1.07233	-2
1.07600	-2
1.07967	-2
1.08333	-2
1.08700	-2
1.09067	-2
1.09433	-2
1.09800	-2
1.10167	-2
1.10533	-1
1.10900	-1
1.11267	-1
1.11633	-1
1.12000	-1
1.12367	-1
1.12733	-2
1.13100	-2
1.13467	-2
1.13833	-3
1.14200	-3
1.14567	-3
1.14933	-3
1.15300	-3
1.15667	-3
1.16033	-3
1.16400	-3
1.16767	-2
1.17133	-2
1.17500	-1
1.17867	-1
1.18233	-1
1.18600	-1
1.18967	-0
1.19333	-0
1.19700	-0
1.20067	-0
1.20433	-0
1.20800	-0
1.21167	-0
1.21533	-0
1.21900	-0
1.22267	-0
1.22633	-0
1.23000	-1
1.23367	-1
1.23733	-1
1.24100	-2
1.24467	-2
1.24833	-2
1.25200	-3
1.25567	-3
1.25933	-3
1.26300	-3
1.26667	-3
1.27033	-3
1.27400	-3
1.27767	-3
1.28133	-3
1.28500	-3
1.28867	-3
1.29233	-2
1.29600	-2
1.29967	-2
1.30333	-2
1.30700	-2
1.31067	-2
1.31433	-2
1.31800	-1
1.32167	-1
1.32533	-1
1.32900	-1
1.33267	-2
1.33633	-2
1.34000	-2
1.34367	-2
1.34733	-3
1.35100	-3
1.35467	-3
1.35833	-4
1.36200	-4
1.36567	-4
1.36933	-4
1.37300	-4
1.37667	-4
1.38033	-4
1.38400	-4
1.38767	-4
1.39133	-4
1.39500	-4
1.39867	-4
1.40233	-4
1.40600	-5
1.40967	-5
1.41333	-5
1.41700	-5
1.42067	-4
1.42433	-4
1.42800	-4
1.43167	-3
1.43533	-3
1.43900	-2
1.44267	-2
1.44633	-2
1.45000	-2
1.45367	-2
1.45733	-2
1.46100	-2
1.46467	-2
1.46833	-2
1.47200	-2
1.47567	-2
1.47933	-2
1.48300	-2
1.48667	-2
1.49033	-2
1.49400	-3
1.49767	-3
1.50133	-3
1.50500	-3
1.50867	-4
1.51233	-4
1.51600	-3
1.51967	-3
1.52333	-3
1.52700	-3
1.53067	-2
1.53433	-2
1.53800	-2
1.54167	-1
1.54533	-1
1.54900	-2
1.55267	-2
1.55633	-2
1.56000	-2
1.56367	-2
1.56733	-2
1.57100	-2
1.57467	-3
1.57833	-3
1.58200	-3
1.58567	-4
1.58933	-4
1.59300	-4
1.59667	-5
1.60033	-6
1.60400	-7
1.60767	-8
1.61133	-9
1.61500	-11
1.61867	-13
1.62233	-15
1.62600	-17
1.62967	-19
1.63333	-22
1.63700	-24
1.64067	-27
1.64433	-30
1.64800	-34
1.65167	-37
1.65533	-41
1.65900	-45
1.66267	-49
1.66633	-54
1.67000	-59
1.67367	-64
1.67733	-70
1.68100	-75
1.68467	-80
1.68833	-85
1.69200	-89
1.69567	-93
1.69933	-96
1.70300	-99
1.70667	-102
1.71033	-104
1.71400	-105
1.71767	-106
1.72133	-106
1.72500	-107
1.72867	-107
1.73233	-107
1.73600	-107
1.73967	-107
1.74333	-107
1.74700	-106
1.75067	-106
1.75433	-105
1.75800	-105
1.76167	-105
1.76533	-106
1.76900	-107
1.77267	-108
1.77633	-109
1.78000	-110
1.78367	-111
1.78733	-112
1.79100	-112
1.79467	-113
1.79833	-113
1.80200	-113
1.80567	-114
1.80933	-115
1.81300	-115
1.81667	-115
1.82033	-115
1.82400	-116
1.82767	-116
1.83133	-116
1.83500	-116
1.83867	-116
1.84233	-116
1.84600	-115
1.84967	-114
1.85333	-113
1.85700	-112
1.86067	-112
1.86433	-111
1.86800	-111
1.87167	-111
1.87533	-111
1.87900	-111
1.88267	-111
1.88633	-111
1.89000	-111
1.89367	-111
1.89733	-112
1.90100	-112
1.90467	-112
1.90833	-112
1.91200	-113
1.91567	-113
1.91933	-112
1.92300	-112
1.92667	-111
1.93033	-110
1.93400	-110
1.93767	-110
1.94133	-109
1.94500	-109
1.94867	-109
1.95233	-109
1.95600	-109
1.95967	-108
1.96333	-108
1.96700	-107
1.97067	-107
1.97433	-107
1.97800	-108
1.98167	-107
1.98533	-107
1.98900	-108
1.99267	-108
1.99633	-109
2.00000	-109
2.00367	-109
2.00733	-109
2.01100	-109
2.01467	-108
2.01833	-107
2.02200	-106
2.02567	-105
2.02933	-104
2.03300	-104
2.03667	-103
2.04033	-103
2.04400	-103
2.04767	-103
2.05133	-103
2.05500	-102
2.05867	-102
2.06233	-102
2.06600	-102
2.06967	-101
2.07333	-101
2.07700	-101
2.08067	-100
2.08433	-100
2.08800	-99
2.09167	-99
2.09533	-99
2.09900	-99
2.10267	-99
2.10633	-99
2.11000	-98
2.11367	-98
2.11733	-98
2.12100	-98
2.12467	-98
2.12833	-98
2.13200	-97
2.13567	-97
2.13933	-97
2.14300	-97
2.14667	-96
2.15033	-96
2.15400	-96
2.15767	-97
2.16133	-96
2.16500	-96
2.16867	-96
2.17233	-95
2.17600	-95
2.17967	-94
2.18333	-94
2.18700	-93
2.19067	-92
2.19433	-92
2.19800	-91
2.20167	-91
2.20533	-90
2.20900	-90
2.21267	-89
2.21633	-89
2.22000	-89
2.22367	-88
2.22733	-88
2.23100	-87
2.23467	-87
2.23833	-87
2.24200	-87
2.24567	-88
2.24933	-88
2.25300	-88
2.25667	-87
2.26033	-87
2.26400	-87
2.26767	-87
2.27133	-86
2.27500	-86
2.27867	-85
2.28233	-84
2.28600	-83
2.28967	-82
2.29333	-81
2.29700	-81
2.30067	-80
2.30433	-79
2.30800	-79
2.31167	-80
2.31533	-80
2.31900	-80
2.32267	-80
2.32633	-79
2.33000	-79
2.33367	-78
2.33733	-78
2.34100	-77
2.34467	-77
2.34833	-76
2.35200	-76
2.35567	-75
2.35933	-74
2.36300	-72
2.36667	-70
2.37033	-68
2.37400	-65
2.37767	-61
2.38133	-57
2.38500	-53
2.38867	-49
2.39233	-44
2.39600	-40
2.39967	-35
2.40333	-31
2.40700	-27
2.41067	-23
2.41433	-20
2.41800	-17
2.42167	-15
2.42533	-14
2.42900	-12
2.43267	-11
2.43633	-9
2.44000	-8
2.44367	-7
2.44733	-6
2.45100	-5
2.45467	-4
2.45833	-4
2.46200	-3
2.46567	-2
2.46933	-1
2.47300	-0
2.47667	1
2.48033	2
2.48400	3
2.48767	3
2.49133	4
2.49500	4
2.49867	5
2.50233	6
2.50600	6
2.50967	7
2.51333	8
2.51700	9
2.52067	10
2.52433	11
2.52800	11
2.53167	12
2.53533	12
2.53900	13
2.54267	13
2.54633	14
2.55000	15
2.55367	15
2.55733	16
2.56100	16
2.56467	15
2.56833	15
2.57200	14
2.57567	14
2.57933	14
2.58300	13
2.58667	13
2.59033	13
2.59400	14
2.59767	14
2.60133	15
2.60500	15
2.60867	16
2.61233	17
2.61600	17
2.61967	17
2.62333	17
2.62700	17
2.63067	17
2.63433	17
2.63800	16
2.64167	16
2.64533	17
2.64900	18
2.65267	19
2.65633	20
2.66000	20
2.66367	21
2.66733	21
2.67100	22
2.67467	22
2.67833	22
2.68200	21
2.68567	21
2.68933	21
2.69300	21
2.69667	20
2.70033	20
2.70400	21
2.70767	21
2.71133	22
2.71500	23
2.71867	23
2.72233	24
2.72600	24
2.72967	25
2.73333	25
2.73700	26
2.74067	26
2.74433	27
2.74800	28
2.75167	28
2.75533	28
2.75900	27
2.76267	26
2.76633	26
2.77000	25
2.77367	24
2.77733	24
2.78100	24
2.78467	24
2.78833	24
2.79200	23
2.79567	23
2.79933	23
2.80300	23
2.80667	24
2.81033	24
2.81400	24
2.81767	24
2.82133	25
2.82500	25
2.82867	26
2.83233	26
2.83600	27
2.83967	26
2.84333	24
2.84700	21
2.85067	15
2.85433	7
2.85800	-5
2.86167	-21
2.86533	-41
2.86900	-66
2.87267	-95
2.87633	-128
2.88000	-166
2.88367	-207
2.88733	-252
2.89100	-300
2.89467	-350
2.89833	-402
2.90200	-456
2.90567	-511
2.90933	-566
2.91300	-621
2.91667	-676
2.92033	-731
2.92400	-783
2.92767	-834
2.93133	-886
2.93500	-942
2.93867	-1001
2.94233	-1053
2.94600	-1090
2.94967	-1103
2.95333	-1089
2.95700	-1052
2.96067	-996
2.96433	-926
2.96800	-848
2.97167	-768
2.97533	-687
2.97900	-610
2.98267	-537
2.98633	-469
2.99000	-408
2.99367	-353
2.99733	-305
3.00100	-261
3.00467	-223
3.00833	-190
3.01200	-162
3.01567	-137
3.01933	-116
3.02300	-97
3.02667	-82
3.03033	-68
3.03400	-56
3.03767	-46
3.04133	-37
3.04500	-30
3.04867	-24
3.05233	-18
3.05600	-14
3.05967	-10
3.06333	-7
3.06700	-4
3.07067	-1
3.07433	1
3.07800	3
3.08167	5
3.08533	6
3.08900	8
3.09267	9
3.09633	10
3.10000	10
3.10367	11
3.10733	12
3.11100	13
3.11467	13
3.11833	14
3.12200	14
3.12567	15
3.12933	15
3.13300	16
3.13667	16
3.14033	16
3.14400	16
3.14767	17
3.15133	17
3.15500	17
3.15867	18
3.16233	18
3.16600	19
3.16967	19
3.17333	20
3.17700	20
3.18067	20
3.18433	21
3.18800	21
3.19167	21
3.19533	21
3.19900	21
3.20267	21
3.20633	22
3.21000	22
3.21367	22
3.21733	22
3.22100	22
3.22467	22
3.22833	22
3.23200	22
3.23567	22
3.23933	22
3.24300	23
3.24667	23
3.25033	23
3.25400	23
3.25767	23
3.26133	23
3.26500	24
3.26867	24
3.27233	24
3.27600	23
3.27967	23
3.28333	24
3.28700	24
3.29067	24
3.29433	24
3.29800	24
3.30167	23
3.30533	23
3.30900	23
3.31267	23
3.31633	23
3.32000	23
3.32367	23
3.32733	23
3.33100	23
3.33467	23
3.33833	24
3.34200	24
3.34567	24
3.34933	24
3.35300	25
3.35667	25
3.36033	25
3.36400	26
3.36767	26
3.37133	26
3.37500	27
3.37867	27
3.38233	27
3.38600	27
3.38967	28
3.39333	28
3.39700	28
3.40067	28
3.40433	28
3.40800	28
3.41167	29
3.41533	29
3.41900	29
3.42267	29
3.42633	30
3.43000	30
3.43367	30
3.43733	30
3.44100	30
3.44467	29
3.44833	29
3.45200	29
3.45567	29
3.45933	29
3.46300	29
3.46667	29
3.47033	29
3.47400	29
3.47767	29
3.48133	28
3.48500	28
3.48867	28
3.49233	28
3.49600	28
3.49967	28
3.50333	28
3.50700	28
3.51067	28
3.51433	28
3.51800	27
3.52167	27
3.52533	27
3.52900	27
3.53267	27
3.53633	27
3.54000	27
3.54367	27
3.54733	27
3.55100	27
3.55467	26
3.55833	26
3.56200	26
3.56567	26
3.56933	26
3.57300	26
3.57667	26
3.58033	26
3.58400	26
3.58767	26
3.59133	26
3.59500	26
3.59867	26
3.60233	26
3.60600	26
3.60967	26
3.61333	27
3.61700	27
3.62067	27
3.62433	27
3.62800	27
3.63167	27
3.63533	27
3.63900	27
3.64267	27
3.64633	27
3.65000	27
3.65367	27
3.65733	27
3.66100	27
3.66467	27
3.66833	28
3.67200	28
3.67567	28
3.67933	27
3.68300	27
3.68667	27
3.69033	27
3.69400	27
3.69767	27
3.70133	27
3.70500	27
3.70867	26
3.71233	26
3.71600	26
3.71967	26
3.72333	26
3.72700	26
3.73067	26
3.73433	26
3.73800	26
3.74167	26
3.74533	26
3.74900	26
3.75267	26
3.75633	26
3.76000	26
3.76367	26
3.76733	27
3.77100	27
3.77467	27
3.77833	27
3.78200	28
3.78567	28
3.78933	28
3.79300	28
3.79667	28
3.80033	28
3.80400	28
3.80767	28
3.81133	28
3.81500	28
3.81867	28
3.82233	28
3.82600	28
3.82967	28
3.83333	28
3.83700	28
3.84067	28
3.84433	28
3.84800	28
3.85167	28
3.85533	28
3.85900	28
3.86267	28
3.86633	28
3.87000	28
3.87367	28
3.87733	28
3.88100	27
3.88467	27
3.88833	27
3.89200	27
3.89567	26
3.89933	26
3.90300	26
3.90667	25
3.91033	25
3.91400	24
3.91767	24
3.92133	24
3.92500	24
3.92867	24
3.93233	23
3.93600	23
3.93967	23
3.94333	23
3.94700	23
3.95067	23
3.95433	24
3.95800	24
3.96167	24
3.96533	24
3.96900	24
3.97267	25
3.97633	25
3.98000	25
3.98367	25
3.98733	26
3.99100	26
3.99467	26
3.99833	26

[Chromatogram (Ch3)]
Interval(msec)	220
# of Points	1091
Start Time(min)	0.002
End Time(min)	3.998
R.Time (min)	Intensity
0.00167	-0
0.00533	0
0.00900	2
0.01267	2
0.01633	3
0.02000	2
0.02367	2
0.02733	1
0.03100	-1
0.03467	-2
0.03833	-3
0.04200	-4
0.04567	-4
0.04933	-2
0.05300	-2
0.05667	-3
0.06033	-3
0.06400	-2
0.06767	-1
0.07133	0
0.07500	1
0.07867	2
0.08233	2
0.08600	1
0.08967	2
0.09333	3
0.09700	2
0.10067	0
0.10433	-1
0.10800	-1
0.11167	-3
0.11533	-3
0.11900	-3
0.12267	-4
0.12633	-6
0.13000	-9
0.13367	-7
0.13733	-5
0.14100	-4
0.14467	-4
0.14833	-2
0.15200	-3
0.15567	-5
0.15933	-7
0.16300	-6
0.16667	-5
0.17033	-4
0.17400	-4
0.17767	-2
0.18133	-2
0.18500	-1
0.18867	0
0.19233	2
0.19600	2
0.19967	1
0.20333	-1
0.20700	-1
0.21067	1
0.21433	2
0.21800	4
0.22167	3
0.22533	0
0.22900	-1
0.23267	-1
0.23633	-2
0.24000	-3
0.24367	-3
0.24733	-3
0.25100	-3
0.25467	-5
0.25833	-6
0.26200	-6
0.26567	-4
0.26933	-2
0.27300	-1
0.27667	-1
0.28033	-1
0.28400	1
0.28767	1
0.29133	0
0.29500	1
0.29867	2
0.30233	2
0.30600	1
0.30967	2
0.31333	3
0.31700	3
0.32067	2
0.32433	1
0.32800	0
0.33167	0
0.33533	-1
0.33900	-1
0.34267	-2
0.34633	-0
0.35000	1
0.35367	1
0.35733	-0
0.36100	-3
0.36467	-4
0.36833	-5
0.37200	-6
0.37567	-7
0.37933	-5
0.38300	-4
0.38667	-5
0.39033	-6
0.39400	-5
0.39767	-5
0.40133	-4
0.40500	-3
0.40867	-3
0.41233	-2
0.41600	-2
0.41967	-3
0.42333	-4
0.42700	-4
0.43067	-5
0.43433	-5
0.43800	-6
0.44167	-6
0.44533	-5
0.44900	-4
0.45267	-3
0.45633	-2
0.46000	1
0.46367	-0
0.46733	-1
0.47100	-3
0.47467	-5
0.47833	-4
0.48200	-4
0.48567	-4
0.48933	-2
0.49300	1
0.49667	1
0.50033	1
0.50400	-0
0.50767	0
0.51133	1
0.51500	-1
0.51867	-4
0.52233	-6
0.52600	-8
0.52967	-8
0.53333	-7
0.53700	-6
0.54067	-6
0.54433	-6
0.54800	-4
0.55167	-3
0.55533	-1
0.55900	1
0.56267	1
0.56633	1
0.57000	-0
0.57367	-3
0.57733	-6
0.58100	-10
0.58467	-11
0.58833	-10
0.59200	-6
0.59567	-4
0.59933	-4
0.60300	-3
0.60667	-2
0.61033	-1
0.61400	2
0.61767	5
0.62133	5
0.62500	4
0.62867	3
0.63233	-0
0.63600	0
0.63967	0
0.64333	-1
0.64700	-2
0.65067	-3
0.65433	-1
0.65800	1
0.66167	3
0.66533	2
0.66900	0
0.67267	-2
0.67633	-3
0.68000	-2
0.68367	-0
0.68733	-2
0.69100	-2
0.69467	-1
0.69833	1
0.70200	3
0.70567	3
0.70933	1
0.71300	-2
0.71667	-2
0.72033	-2
0.72400	-4
0.72767	-5
0.73133	-3
0.73500	-1
0.73867	-1
0.74233	-0
0.74600	2
0.74967	3
0.75333	3
0.75700	3
0.76067	-0
0.76433	-4
0.76800	-7
0.77167	-9
0.77533	-9
0.77900	-8
0.78267	-5
0.78633	-3
0.79000	-1
0.79367	-2
0.79733	-2
0.80100	-2
0.80467	-2
0.80833	-4
0.81200	-7
0.81567	-7
0.81933	-7
0.82300	-4
0.82667	-2
0.83033	-0
0.83400	3
0.83767	4
0.84133	4
0.84500	2
0.84867	1
0.85233	3
0.85600	4
0.85967	5
0.86333	4
0.86700	2
0.87067	-0
0.87433	-2
0.87800	-4
0.88167	-4
0.88533	-4
0.88900	-3
0.89267	-2
0.89633	-2
0.90000	-0
0.90367	1
0.90733	1
0.91100	1
0.91467	-0
0.91833	-0
0.92200	2
0.92567	3
0.92933	3
0.93300	5
0.93667	8
0.94033	7
0.94400	5
0.94767	5
0.95133	6
0.95500	3
0.95867	-0
0.96233	-2
0.96600	-1
0.96967	-1
0.97333	-1
0.97700	-1
0.98067	-1
0.98433	-1
0.98800	1
0.99167	4
0.99533	6
0.99900	5
1.00267	3
1.00633	3
1.01000	2
1.01367	2
1.01733	3
1.02100	2
1.02467	1
1.02833	2
1.03200	2
1.03567	3
1.03933	3
1.04300	3
1.04667	4
1.05033	6
1.05400	8
1.05767	9
1.06133	10
1.06500	9
1.06867	10
1.07233	11
1.07600	10
1.07967	9
1.08333	10
1.08700	12
1.09067	14
1.09433	14
1.09800	14
1.10167	12
1.10533	13
1.10900	12
1.11267	13
1.11633	14
1.12000	14
1.12367	13
1.12733	11
1.13100	7
1.13467	6
1.13833	6
1.14200	6
1.14567	5
1.14933	4
1.15300	4
1.15667	5
1.16033	4
1.16400	5
1.16767	5
1.17133	5
1.17500	6
1.17867	6
1.18233	8
1.18600	10
1.18967	9
1.19333	9
1.19700	8
1.20067	8
1.20433	7
1.20800	7
1.21167	7
1.21533	6
1.21900	4
1.22267	2
1.22633	2
1.23000	3
1.23367	7
1.23733	9
1.24100	9
1.24467	10
1.24833	10
1.25200	8
1.25567	8
1.25933	9
1.26300	8
1.26667	8
1.27033	8
1.27400	7
1.27767	6
1.28133	5
1.28500	6
1.28867	8
1.29233	9
1.29600	9
1.29967	9
1.30333	8
1.30700	10
1.31067	10
1.31433	10
1.31800	10
1.32167	10
1.32533	10
1.32900	9
1.33267	10
1.33633	11
1.34000	12
1.34367	11
1.34733	11
1.35100	9
1.35467	9
1.35833	11
1.36200	10
1.36567	11
1.36933	11
1.37300	10
1.37667	8
1.38033	7
1.38400	9
1.38767	12
1.39133	12
1.39500	10
1.39867	10
1.40233	9
1.40600	8
1.40967	8
1.41333	7
1.41700	8
1.42067	8
1.42433	9
1.42800	11
1.43167	12
1.43533	13
1.43900	13
1.44267	14
1.44633	14
1.45000	14
1.45367	14
1.45733	13
1.46100	13
1.46467	11
1.46833	12
1.47200	13
1.47567	13
1.47933	11
1.48300	11
1.48667	10
1.49033	9
1.49400	9
1.49767	8
1.50133	8
1.50500	8
1.50867	10
1.51233	13
1.51600	15
1.51967	15
1.52333	13
1.52700	12
1.53067	13
1.53433	13
1.53800	12
1.54167	10
1.54533	11
1.54900	12
1.55267	12
1.55633	11
1.56000	12
1.56367	10
1.56733	10
1.57100	8
1.57467	6
1.57833	7
1.58200	9
1.58567	12
1.58933	14
1.59300	16
1.59667	18
1.60033	20
1.60400	20
1.60767	19
1.61133	19
1.61500	19
1.61867	19
1.62233	17
1.62600	15
1.62967	15
1.63333	18
1.63700	21
1.64067	25
1.64433	27
1.64800	30
1.65167	30
1.65533	28
1.65900	27
1.66267	26
1.66633	24
1.67000	24
1.67367	23
1.67733	22
1.68100	23
1.68467	24
1.68833	24
1.69200	24
1.69567	26
1.69933	27
1.70300	27
1.70667	28
1.71033	28
1.71400	27
1.71767	26
1.72133	25
1.72500	26
1.72867	26
1.73233	27
1.73600	30
1.73967	33
1.74333	34
1.74700	35
1.75067	35
1.75433	33
1.75800	30
1.76167	31
1.76533	33
1.76900	33
1.77267	34
1.77633	36
1.78000	36
1.78367	35
1.78733	33
1.79100	33
1.79467	34
1.79833	35
1.80200	35
1.80567	36
1.80933	36
1.81300	36
1.81667	37
1.82033	40
1.82400	43
1.82767	44
1.83133	45
1.83500	44
1.83867	43
1.84233	42
1.84600	42
1.84967	43
1.85333	44
1.85700	43
1.86067	43
1.86433	43
1.86800	44
1.87167	44
1.87533	46
1.87900	47
1.88267	49
1.88633	48
1.89000	49
1.89367	48
1.89733	47
1.90100	50
1.90467	52
1.90833	52
1.91200	49
1.91567	51
1.91933	53
1.92300	54
1.92667	55
1.93033	55
1.93400	52
1.93767	50
1.94133	52
1.94500	55
1.94867	57
1.95233	59
1.95600	61
1.95967	61
1.96333	60
1.96700	61
1.97067	65
1.97433	66
1.97800	67
1.98167	68
1.98533	69
1.98900	71
1.99267	72
1.99633	72
2.00000	72
2.00367	73
2.00733	74
2.01100	74
2.01467	77
2.01833	80
2.02200	82
2.02567	83
2.02933	84
2.03300	85
2.03667	84
2.04033	84
2.04400	84
2.04767	83
2.05133	82
2.05500	83
2.05867	83
2.06233	85
2.06600	88
2.06967	90
2.07333	91
2.07700	92
2.08067	93
2.08433	94
2.08800	96
2.09167	97
2.09533	96
2.09900	97
2.10267	99
2.10633	102
2.11000	104
2.11367	105
2.11733	109
2.12100	109
2.12467	110
2.12833	111
2.13200	112
2.13567	114
2.13933	119
2.14300	121
2.14667	121
2.15033	120
2.15400	121
2.15767	121
2.16133	122
2.16500	123
2.16867	126
2.17233	128
2.17600	127
2.17967	129
2.18333	128
2.18700	129
2.19067	129
2.19433	130
2.19800	132
2.20167	135
2.20533	135
2.20900	136
2.21267	136
2.21633	137
2.22000	139
2.22367	142
2.22733	145
2.23100	149
2.23467	151
2.23833	153
2.24200	154
2.24567	154
2.24933	157
2.25300	159
2.25667	161
2.26033	162
2.26400	163
2.26767	166
2.27133	169
2.27500	170
2.27867	170
2.28233	171
2.28600	173
2.28967	175
2.29333	177
2.29700	177
2.30067	178
2.30433	178
2.30800	178
2.31167	179
2.31533	179
2.31900	181
2.32267	182
2.32633	184
2.33000	188
2.33367	191
2.33733	194
2.34100	199
2.34467	202
2.34833	202
2.35200	204
2.35567	208
2.35933	209
2.36300	211
2.36667	212
2.37033	212
2.37400	214
2.37767	218
2.38133	220
2.38500	221
2.38867	219
2.39233	219
2.39600	221
2.39967	224
2.40333	228
2.40700	234
2.41067	239
2.41433	244
2.41800	247
2.42167	249
2.42533	250
2.42900	251
2.43267	251
2.43633	251
2.44000	255
2.44367	309
2.44733	449
2.45100	599
2.45467	719
2.45833	786
2.46200	786
2.46567	744
2.46933	694
2.47300	648
2.47667	617
2.48033	599
2.48400	577
2.48767	544
2.49133	503
2.49500	461
2.49867	424
2.50233	394
2.50600	375
2.50967	367
2.51333	368
2.51700	375
2.52067	387
2.52433	403
2.52800	418
2.53167	429
2.53533	429
2.53900	421
2.54267	404
2.54633	381
2.55000	356
2.55367	333
2.55733	310
2.56100	291
2.56467	278
2.56833	268
2.57200	262
2.57567	258
2.57933	257
2.58300	254
2.58667	252
2.59033	250
2.59400	248
2.59767	248
2.60133	246
2.60500	240
2.60867	231
2.61233	219
2.61600	208
2.61967	197
2.62333	188
2.62700	180
2.63067	174
2.63433	170
2.63800	169
2.64167	170
2.64533	173
2.64900	177
2.65267	178
2.65633	179
2.66000	175
2.66367	170
2.66733	163
2.67100	155
2.67467	146
2.67833	139
2.68200	132
2.68567	125
2.68933	119
2.69300	115
2.69667	109
2.70033	105
2.70400	103
2.70767	103
2.71133	102
2.71500	102
2.71867	102
2.72233	100
2.72600	100
2.72967	102
2.73333	105
2.73700	106
2.74067	108
2.74433	110
2.74800	110
2.75167	109
2.75533	109
2.75900	111
2.76267	115
2.76633	116
2.77000	118
2.77367	120
2.77733	123
2.78100	127
2.78467	129
2.78833	132
2.79200	134
2.79567	133
2.79933	134
2.80300	133
2.80667	134
2.81033	137
2.81400	142
2.81767	149
2.82133	163
2.82500	188
2.82867	238
2.83233	336
2.83600	502
2.83967	755
2.84333	1116
2.84700	1581
2.85067	2137
2.85433	2748
2.85800	3367
2.86167	3941
2.86533	4430
2.86900	4794
2.87267	5013
2.87633	5082
2.88000	5017
2.88367	4839
2.88733	4576
2.89100	4258
2.89467	3909
2.89833	3549
2.90200	3194
2.90567	2859
2.90933	2549
2.91300	2265
2.91667	2009
2.92033	1779
2.92400	1572
2.92767	1388
2.93133	1229
2.93500	1090
2.93867	969
2.94233	862
2.94600	768
2.94967	684
2.95333	610
2.95700	547
2.96067	496
2.96433	451
2.96800	410
2.97167	375
2.97533	344
2.97900	316
2.98267	293
2.98633	272
2.99000	252
2.99367	238
2.99733	225
3.00100	214
3.00467	204
3.00833	195
3.01200	184
3.01567	175
3.01933	167
3.02300	161
3.02667	156
3.03033	151
3.03400	145
3.03767	140
3.04133	137
3.04500	134
3.04867	129
3.05233	112
3.05600	86
3.05967	76
3.06333	82
3.06700	99
3.07067	123
3.07433	155
3.07800	194
3.08167	237
3.08533	281
3.08900	323
3.09267	363
3.09633	400
3.10000	435
3.10367	464
3.10733	488
3.11100	508
3.11467	528
3.11833	544
3.12200	558
3.12567	569
3.12933	580
3.13300	589
3.13667	596
3.14033	602
3.14400	606
3.14767	609
3.15133	612
3.15500	615
3.15867	619
3.16233	621
3.16600	624
3.16967	626
3.17333	625
3.17700	625
3.18067	628
3.18433	633
3.18800	637
3.19167	637
3.19533	638
3.19900	637
3.20267	638
3.20633	639
3.21000	640
3.21367	641
3.21733	641
3.22100	642
3.22467	643
3.22833	646
3.23200	649
3.23567	654
3.23933	662
3.24300	667
3.24667	669
3.25033	672
3.25400	674
3.25767	677
3.26133	682
3.26500	687
3.26867	691
3.27233	695
3.27600	697
3.27967	699
3.28333	703
3.28700	707
3.29067	711
3.29433	716
3.29800	721
3.30167	724
3.30533	727
3.30900	729
3.31267	732
3.31633	734
3.32000	736
3.32367	741
3.32733	745
3.33100	746
3.33467	746
3.33833	746
3.34200	746
3.34567	746
3.34933	748
3.35300	752
3.35667	753
3.36033	752
3.36400	752
3.36767	750
3.37133	749
3.37500	751
3.37867	752
3.38233	751
3.38600	749
3.38967	744
3.39333	741
3.39700	737
3.40067	732
3.40433	728
3.40800	725
3.41167	722
3.41533	722
3.41900	718
3.42267	712
3.42633	709
3.43000	705
3.43367	699
3.43733	695
3.44100	692
3.44467	689
3.44833	686
3.45200	684
3.45567	684
3.45933	682
3.46300	677
3.46667	672
3.47033	670
3.47400	670
3.47767	668
3.48133	666
3.48500	665
3.48867	665
3.49233	664
3.49600	662
3.49967	658
3.50333	652
3.50700	651
3.51067	650
3.51433	649
3.51800	647
3.52167	646
3.52533	645
3.52900	646
3.53267	647
3.53633	645
3.54000	645
3.54367	645
3.54733	646
3.55100	647
3.55467	646
3.55833	644
3.56200	643
3.56567	644
3.56933	643
3.57300	642
3.57667	641
3.58033	640
3.58400	640
3.58767	642
3.59133	642
3.59500	642
3.59867	642
3.60233	644
3.60600	645
3.60967	644
3.61333	640
3.61700	638
3.62067	637
3.62433	636
3.62800	634
3.63167	632
3.63533	634
3.63900	635
3.64267	635
3.64633	633
3.65000	631
3.65367	631
3.65733	629
3.66100	629
3.66467	626
3.66833	624
3.67200	626
3.67567	627
3.67933	628
3.68300	629
3.68667	631
3.69033	632
3.69400	632
3.69767	631
3.70133	633
3.70500	635
3.70867	636
3.71233	637
3.71600	634
3.71967	632
3.72333	631
3.72700	630
3.73067	628
3.73433	626
3.73800	624
3.74167	623
3.74533	620
3.74900	618
3.75267	618
3.75633	619
3.76000	620
3.76367	620
3.76733	617
3.77100	615
3.77467	614
3.77833	613
3.78200	611
3.78567	611
3.78933	610
3.79300	609
3.79667	608
3.80033	606
3.80400	603
3.80767	600
3.81133	598
3.81500	598
3.81867	601
3.82233	602
3.82600	600
3.82967	597
3.83333	595
3.83700	595
3.84067	593
3.84433	589
3.84800	587
3.85167	585
3.85533	584
3.85900	581
3.86267	580
3.86633	578
3.87000	576
3.87367	574
3.87733	574
3.88100	572
3.88467	571
3.88833	569
3.89200	567
3.89567	565
3.89933	564
3.90300	562
3.90667	562
3.91033	561
3.91400	562
3.91767	562
3.92133	561
3.92500	558
3.92867	555
3.93233	553
3.93600	550
3.93967	548
3.94333	547
3.94700	546
3.95067	544
3.95433	542
3.95800	541
3.96167	540
3.96533	539
3.96900	538
3.97267	536
3.97633	535
3.98000	531
3.98367	529
3.98733	528
3.99100	527
3.99467	525
3.99833	523

[Status Trace (Column Oven Temperature)]
Interval(msec)	1000
# of Points	240
Start Time(min)	0.014
End Time(min)	3.997
Intensity Units	
Intensity Multiplier	1
R.Time (min)	Intensity
0.01400	35.02
0.03067	35.01
0.04733	35.00
0.06400	35.01
0.08067	35.02
0.09733	35.02
0.11400	35.03
0.13067	35.02
0.14733	35.03
0.16400	35.02
0.18067	35.01
0.19733	35.00
0.21400	34.99
0.23067	34.99
0.24733	34.97
0.26400	34.97
0.28067	35.00
0.29733	35.01
0.31400	35.02
0.33067	35.03
0.34733	35.03
0.36400	35.01
0.38067	35.01
0.39733	35.01
0.41400	35.00
0.43067	34.99
0.44733	34.99
0.46400	35.01
0.48067	35.00
0.49733	35.00
0.51400	34.99
0.53067	34.98
0.54733	34.97
0.56400	34.98
0.58067	34.98
0.59733	34.99
0.61400	35.01
0.63067	35.01
0.64733	35.00
0.66400	34.99
0.68067	35.01
0.69733	35.01
0.71400	35.00
0.73067	34.99
0.74733	34.99
0.76400	34.97
0.78067	34.97
0.79733	34.97
0.81400	34.97
0.83067	34.97
0.84733	34.96
0.86400	34.96
0.88067	34.96
0.89733	34.97
0.91400	34.96
0.93067	34.97
0.94733	34.98
0.96400	35.00
0.98067	35.00
0.99733	35.00
1.01400	35.00
1.03067	35.01
1.04733	35.03
1.06400	35.02
1.08067	35.01
1.09733	35.01
1.11400	35.01
1.13067	35.00
1.14733	35.00
1.16400	35.01
1.18067	35.00
1.19733	34.99
1.21400	34.99
1.23067	35.00
1.24733	34.99
1.26400	35.00
1.28067	35.00
1.29733	35.00
1.31400	34.99
1.33067	34.99
1.34733	35.00
1.36400	35.01
1.38067	35.02
1.39733	35.03
1.41400	35.03
1.43067	35.03
1.44733	35.02
1.46400	35.01
1.48067	35.02
1.49733	35.03
1.51400	35.02
1.53067	35.01
1.54733	35.01
1.56400	35.01
1.58067	35.02
1.59733	35.05
1.61400	35.13
1.63067	35.26
1.64733	35.46
1.66400	35.74
1.68067	36.09
1.69733	36.48
1.71400	36.83
1.73067	37.15
1.74733	37.45
1.76400	37.78
1.78067	38.12
1.79733	38.46
1.81400	38.81
1.83067	39.14
1.84733	39.44
1.86400	39.78
1.88067	40.10
1.89733	40.44
1.91400	40.77
1.93067	41.08
1.94733	41.41
1.96400	41.74
1.98067	42.07
1.99733	42.41
2.01400	42.74
2.03067	43.06
2.04733	43.39
2.06400	43.72
2.08067	44.03
2.09733	44.37
2.11400	44.69
2.13067	45.03
2.14733	45.37
2.16400	45.70
2.18067	46.02
2.19733	46.35
2.21400	46.68
2.23067	47.01
2.24733	47.35
2.26400	47.68
2.28067	48.01
2.29733	48.32
2.31400	48.68
2.33067	48.99
2.34733	49.31
2.36400	49.55
2.38067	49.64
2.39733	49.66
2.41400	49.66
2.43067	49.65
2.44733	49.65
2.46400	49.66
2.48067	49.66
2.49733	49.69
2.51400	49.69
2.53067	49.72
2.54733	49.73
2.56400	49.76
2.58067	49.79
2.59733	49.80
2.61400	49.81
2.63067	49.84
2.64733	49.84
2.66400	49.84
2.68067	49.86
2.69733	49.88
2.71400	49.87
2.73067	49.85
2.74733	49.84
2.76400	49.86
2.78067	49.88
2.79733	49.89
2.81400	49.90
2.83067	49.88
2.84733	49.88
2.86400	49.88
2.88067	49.89
2.89733	49.90
2.91400	49.91
2.93067	49.92
2.94733	49.93
2.96400	49.94
2.98067	49.96
2.99733	49.98
3.01400	50.01
3.03067	50.02
3.04733	50.04
3.06400	50.05
3.08067	50.05
3.09733	50.06
3.11400	50.06
3.13067	50.07
3.14733	50.07
3.16400	50.07
3.18067	50.07
3.19733	50.07
3.21400	50.07
3.23067	50.07
3.24733	50.07
3.26400	50.07
3.28067	50.09
3.29733	50.10
3.31400	50.12
3.33067	50.12
3.34733	50.12
3.36400	50.11
3.38067	50.10
3.39733	50.08
3.41400	50.06
3.43067	50.04
3.44733	50.03
3.46400	50.03
3.48067	50.02
3.49733	50.02
3.51400	50.02
3.53067	50.02
3.54733	50.03
3.56400	50.03
3.58067	50.03
3.59733	50.04
3.61400	50.04
3.63067	50.03
3.64733	50.03
3.66400	50.02
3.68067	50.03
3.69733	50.03
3.71400	50.03
3.73067	50.04
3.74733	50.05
3.76400	50.05
3.78067	50.03
3.79733	50.02
3.81400	50.01
3.83067	50.00
3.84733	50.00
3.86400	49.99
3.88067	49.99
3.89733	50.01
3.91400	50.03
3.93067	50.04
3.94733	50.05
3.96400	50.05
3.98067	50.04
3.99733	50.03

[Status Trace (Injection Unit Temperature)]
Interval(msec)	1000
# of Points	240
Start Time(min)	0.014
End Time(min)	3.997
Intensity Units	
Intensity Multiplier	1
R.Time (min)	Intensity
0.01400	99.98
0.03067	99.98
0.04733	99.98
0.06400	99.97
0.08067	99.98
0.09733	99.98
0.11400	99.98
0.13067	99.97
0.14733	99.98
0.16400	99.98
0.18067	99.98
0.19733	99.98
0.21400	99.98
0.23067	99.98
0.24733	99.98
0.26400	99.98
0.28067	99.98
0.29733	99.98
0.31400	99.98
0.33067	99.98
0.34733	99.98
0.36400	99.98
0.38067	99.98
0.39733	99.98
0.41400	99.98
0.43067	99.98
0.44733	99.98
0.46400	99.98
0.48067	99.98
0.49733	99.98
0.51400	99.98
0.53067	99.98
0.54733	99.98
0.56400	99.98
0.58067	99.98
0.59733	99.98
0.61400	99.97
0.63067	99.98
0.64733	99.99
0.66400	99.98
0.68067	99.99
0.69733	99.98
0.71400	99.98
0.73067	99.98
0.74733	99.98
0.76400	99.99
0.78067	99.98
0.79733	99.98
0.81400	99.99
0.83067	99.98
0.84733	99.98
0.86400	99.98
0.88067	99.98
0.89733	99.98
0.91400	99.98
0.93067	99.99
0.94733	99.98
0.96400	99.98
0.98067	99.98
0.99733	99.98
1.01400	99.99
1.03067	99.98
1.04733	99.99
1.06400	99.98
1.08067	99.98
1.09733	99.99
1.11400	99.98
1.13067	99.98
1.14733	99.98
1.16400	99.99
1.18067	99.98
1.19733	99.99
1.21400	99.99
1.23067	99.98
1.24733	99.99
1.26400	99.99
1.28067	99.99
1.29733	99.99
1.31400	99.98
1.33067	99.98
1.34733	99.99
1.36400	99.99
1.38067	99.98
1.39733	99.99
1.41400	99.99
1.43067	99.99
1.44733	99.99
1.46400	99.99
1.48067	99.99
1.49733	99.98
1.51400	99.99
1.53067	99.99
1.54733	99.99
1.56400	99.99
1.58067	99.99
1.59733	99.99
1.61400	99.99
1.63067	99.99
1.64733	99.99
1.66400	99.99
1.68067	99.99
1.69733	99.99
1.71400	99.99
1.73067	99.99
1.74733	99.99
1.76400	99.99
1.78067	99.99
1.79733	99.98
1.81400	99.99
1.83067	99.99
1.84733	99.99
1.86400	99.98
1.88067	99.98
1.89733	99.99
1.91400	99.98
1.93067	99.99
1.94733	99.98
1.96400	99.99
1.98067	99.98
1.99733	99.98
2.01400	99.98
2.03067	99.98
2.04733	99.98
2.06400	99.97
2.08067	99.98
2.09733	99.98
2.11400	99.97
2.13067	99.97
2.14733	99.97
2.16400	99.98
2.18067	99.97
2.19733	99.97
2.21400	99.97
2.23067	99.97
2.24733	99.97
2.26400	99.97
2.28067	99.97
2.29733	99.97
2.31400	99.96
2.33067	99.97
2.34733	99.96
2.36400	99.97
2.38067	99.97
2.39733	99.96
2.41400	99.97
2.43067	99.97
2.44733	99.96
2.46400	99.97
2.48067	99.97
2.49733	99.97
2.51400	99.97
2.53067	99.97
2.54733	99.97
2.56400	99.97
2.58067	99.97
2.59733	99.97
2.61400	99.97
2.63067	99.98
2.64733	99.98
2.66400	99.98
2.68067	99.97
2.69733	99.98
2.71400	99.98
2.73067	99.98
2.74733	99.98
2.76400	99.99
2.78067	99.99
2.79733	99.98
2.81400	99.99
2.83067	99.99
2.84733	99.99
2.86400	99.99
2.88067	100.00
2.89733	100.00
2.91400	100.00
2.93067	100.00
2.94733	100.01
2.96400	100.00
2.98067	100.01
2.99733	100.01
3.01400	100.01
3.03067	100.01
3.04733	100.02
3.06400	100.01
3.08067	100.01
3.09733	100.02
3.11400	100.02
3.13067	100.02
3.14733	100.02
3.16400	100.03
3.18067	100.02
3.19733	100.02
3.21400	100.02
3.23067	100.03
3.24733	100.03
3.26400	100.03
3.28067	100.03
3.29733	100.03
3.31400	100.03
3.33067	100.04
3.34733	100.03
3.36400	100.03
3.38067	100.03
3.39733	100.04
3.41400	100.04
3.43067	100.04
3.44733	100.04
3.46400	100.04
3.48067	100.04
3.49733	100.04
3.51400	100.04
3.53067	100.04
3.54733	100.04
3.56400	100.04
3.58067	100.04
3.59733	100.04
3.61400	100.04
3.63067	100.04
3.64733	100.04
3.66400	100.04
3.68067	100.04
3.69733	100.04
3.71400	100.04
3.73067	100.04
3.74733	100.04
3.76400	100.04
3.78067	100.04
3.79733	100.04
3.81400	100.04
3.83067	100.04
3.84733	100.04
3.86400	100.04
3.88067	100.03
3.89733	100.04
3.91400	100.04
3.93067	100.04
3.94733	100.04
3.96400	100.04
3.98067	100.04
3.99733	100.03

[Status Trace (Carrier Gas Pressure)]
Interval(msec)	1000
# of Points	240
Start Time(min)	0.014
End Time(min)	3.997
Intensity Units	
Intensity Multiplier	1
R.Time (min)	Intensity
0.01400	57.43
0.03067	55.34
0.04733	57.91
0.06400	59.84
0.08067	58.77
0.09733	57.98
0.11400	58.00
0.13067	58.01
0.14733	58.01
0.16400	58.00
0.18067	58.00
0.19733	58.00
0.21400	58.00
0.23067	58.00
0.24733	58.00
0.26400	58.00
0.28067	58.00
0.29733	58.00
0.31400	58.00
0.33067	58.00
0.34733	58.00
0.36400	58.00
0.38067	58.00
0.39733	58.00
0.41400	58.00
0.43067	58.00
0.44733	58.00
0.46400	58.00
0.48067	58.00
0.49733	58.00
0.51400	58.00
0.53067	58.00
0.54733	58.00
0.56400	58.00
0.58067	58.00
0.59733	58.00
0.61400	58.00
0.63067	58.00
0.64733	58.00
0.66400	58.00
0.68067	58.00
0.69733	58.00
0.71400	58.00
0.73067	58.00
0.74733	58.00
0.76400	58.00
0.78067	58.00
0.79733	58.00
0.81400	58.00
0.83067	58.00
0.84733	58.00
0.86400	58.00
0.88067	58.00
0.89733	58.00
0.91400	58.00
0.93067	58.00
0.94733	58.00
0.96400	58.00
0.98067	58.00
0.99733	58.00
1.01400	58.00
1.03067	58.00
1.04733	58.00
1.06400	58.00
1.08067	58.00
1.09733	58.00
1.11400	58.00
1.13067	58.00
1.14733	58.00
1.16400	58.00
1.18067	58.00
1.19733	58.00
1.21400	58.00
1.23067	58.00
1.24733	58.00
1.26400	58.00
1.28067	58.00
1.29733	58.00
1.31400	58.00
1.33067	58.00
1.34733	58.00
1.36400	58.00
1.38067	58.00
1.39733	58.00
1.41400	58.00
1.43067	58.00
1.44733	58.00
1.46400	58.00
1.48067	58.00
1.49733	58.00
1.51400	58.00
1.53067	58.00
1.54733	58.00
1.56400	58.00
1.58067	58.00
1.59733	58.00
1.61400	58.00
1.63067	58.00
1.64733	58.00
1.66400	58.01
1.68067	58.01
1.69733	58.00
1.71400	58.00
1.73067	58.00
1.74733	58.00
1.76400	58.00
1.78067	58.00
1.79733	58.00
1.81400	58.00
1.83067	58.00
1.84733	58.00
1.86400	58.00
1.88067	58.00
1.89733	58.00
1.91400	58.00
1.93067	58.00
1.94733	58.00
1.96400	58.00
1.98067	58.00
1.99733	58.00
2.01400	58.00
2.03067	58.00
2.04733	58.00
2.06400	58.00
2.08067	58.00
2.09733	58.00
2.11400	58.00
2.13067	58.00
2.14733	58.00
2.16400	58.00
2.18067	58.00
2.19733	58.00
2.21400	58.00
2.23067	58.00
2.24733	58.00
2.26400	58.00
2.28067	58.00
2.29733	58.00
2.31400	58.00
2.33067	58.00
2.34733	58.00
2.36400	58.00
2.38067	57.99
2.39733	57.99
2.41400	58.00
2.43067	58.00
2.44733	58.00
2.46400	58.00
2.48067	58.00
2.49733	58.00
2.51400	57.99
2.53067	57.99
2.54733	58.00
2.56400	58.00
2.58067	58.00
2.59733	58.00
2.61400	58.00
2.63067	58.00
2.64733	58.00
2.66400	58.00
2.68067	58.00
2.69733	58.00
2.71400	58.00
2.73067	58.00
2.74733	58.00
2.76400	58.00
2.78067	58.00
2.79733	58.00
2.81400	58.00
2.83067	58.00
2.84733	58.00
2.86400	58.00
2.88067	58.00
2.89733	58.00
2.91400	58.00
2.93067	58.00
2.94733	58.00
2.96400	58.00
2.98067	58.00
2.99733	58.00
3.01400	58.00
3.03067	58.00
3.04733	58.00
3.06400	58.00
3.08067	58.00
3.09733	58.00
3.11400	58.00
3.13067	58.00
3.14733	58.00
3.16400	58.00
3.18067	58.00
3.19733	58.00
3.21400	58.00
3.23067	58.00
3.24733	58.00
3.26400	58.00
3.28067	58.00
3.29733	58.00
3.31400	58.00
3.33067	58.00
3.34733	58.00
3.36400	58.00
3.38067	58.00
3.39733	58.00
3.41400	58.00
3.43067	58.00
3.44733	58.00
3.46400	58.00
3.48067	58.00
3.49733	58.00
3.51400	58.00
3.53067	58.00
3.54733	58.00
3.56400	58.00
3.58067	58.00
3.59733	58.00
3.61400	58.00
3.63067	58.00
3.64733	58.00
3.66400	58.00
3.68067	58.00
3.69733	58.00
3.71400	58.00
3.73067	58.00
3.74733	58.00
3.76400	58.00
3.78067	58.00
3.79733	58.00
3.81400	58.00
3.83067	58.00
3.84733	58.00
3.86400	58.00
3.88067	58.00
3.89733	58.00
3.91400	58.00
3.93067	58.00
3.94733	58.00
3.96400	58.00
3.98067	58.00
3.99733	58.00

[Status Trace (Carrier Gas Flow)]
Interval(msec)	1000
# of Points	240
Start Time(min)	0.014
End Time(min)	3.997
Intensity Units	
Intensity Multiplier	1
R.Time (min)	Intensity
0.01400	34.05
0.03067	34.54
0.04733	34.55
0.06400	34.52
0.08067	34.51
0.09733	34.52
0.11400	34.52
0.13067	34.52
0.14733	34.52
0.16400	34.52
0.18067	34.52
0.19733	34.52
0.21400	34.52
0.23067	34.51
0.24733	34.52
0.26400	34.52
0.28067	34.51
0.29733	34.52
0.31400	34.51
0.33067	34.52
0.34733	34.52
0.36400	34.52
0.38067	34.52
0.39733	34.52
0.41400	34.52
0.43067	34.52
0.44733	34.52
0.46400	34.51
0.48067	34.52
0.49733	34.52
0.51400	34.52
0.53067	34.52
0.54733	34.53
0.56400	34.52
0.58067	34.52
0.59733	34.52
0.61400	34.52
0.63067	34.52
0.64733	34.52
0.66400	34.52
0.68067	34.52
0.69733	34.52
0.71400	34.52
0.73067	34.52
0.74733	34.52
0.76400	34.52
0.78067	34.52
0.79733	34.52
0.81400	34.52
0.83067	34.52
0.84733	34.52
0.86400	34.52
0.88067	34.52
0.89733	34.52
0.91400	34.52
0.93067	34.51
0.94733	34.52
0.96400	34.52
0.98067	34.51
0.99733	34.52
1.01400	34.52
1.03067	34.53
1.04733	34.52
1.06400	34.52
1.08067	34.52
1.09733	34.52
1.11400	34.52
1.13067	34.52
1.14733	34.51
1.16400	34.52
1.18067	34.52
1.19733	34.52
1.21400	34.52
1.23067	34.52
1.24733	34.52
1.26400	34.51
1.28067	34.51
1.29733	34.52
1.31400	34.52
1.33067	34.52
1.34733	34.52
1.36400	34.52
1.38067	34.52
1.39733	34.52
1.41400	34.52
1.43067	34.51
1.44733	34.52
1.46400	34.52
1.48067	34.52
1.49733	34.52
1.51400	34.52
1.53067	34.52
1.54733	34.52
1.56400	34.52
1.58067	34.52
1.59733	34.52
1.61400	34.52
1.63067	34.52
1.64733	34.52
1.66400	34.52
1.68067	34.52
1.69733	34.52
1.71400	34.52
1.73067	34.51
1.74733	34.52
1.76400	34.52
1.78067	34.52
1.79733	34.52
1.81400	34.52
1.83067	34.52
1.84733	34.53
1.86400	34.52
1.88067	34.51
1.89733	34.52
1.91400	34.52
1.93067	34.52
1.94733	34.52
1.96400	34.52
1.98067	34.52
1.99733	34.52
2.01400	34.52
2.03067	34.52
2.04733	34.52
2.06400	34.52
2.08067	34.51
2.09733	34.52
2.11400	34.51
2.13067	34.52
2.14733	34.52
2.16400	34.52
2.18067	34.51
2.19733	34.52
2.21400	34.52
2.23067	34.52
2.24733	34.52
2.26400	34.52
2.28067	34.52
2.29733	34.52
2.31400	34.51
2.33067	34.52
2.34733	34.52
2.36400	34.52
2.38067	34.52
2.39733	34.52
2.41400	34.51
2.43067	34.52
2.44733	34.52
2.46400	34.52
2.48067	34.52
2.49733	34.52
2.51400	34.51
2.53067	34.52
2.54733	34.52
2.56400	34.51
2.58067	34.52
2.59733	34.52
2.61400	34.51
2.63067	34.53
2.64733	34.52
2.66400	34.53
2.68067	34.52
2.69733	34.51
2.71400	34.53
2.73067	34.53
2.74733	34.51
2.76400	34.52
2.78067	34.51
2.79733	34.52
2.81400	34.53
2.83067	34.52
2.84733	34.51
2.86400	34.51
2.88067	34.52
2.89733	34.52
2.91400	34.52
2.93067	34.52
2.94733	34.51
2.96400	34.52
2.98067	34.52
2.99733	34.52
3.01400	34.51
3.03067	34.52
3.04733	34.52
3.06400	34.52
3.08067	34.52
3.09733	34.52
3.11400	34.52
3.13067	34.52
3.14733	34.52
3.16400	34.52
3.18067	34.52
3.19733	34.52
3.21400	34.51
3.23067	34.52
3.24733	34.52
3.26400	34.52
3.28067	34.52
3.29733	34.52
3.31400	34.52
3.33067	34.52
3.34733	34.52
3.36400	34.51
3.38067	34.52
3.39733	34.52
3.41400	34.52
3.43067	34.52
3.44733	34.51
3.46400	34.52
3.48067	34.52
3.49733	34.52
3.51400	34.51
3.53067	34.52
3.54733	34.52
3.56400	34.52
3.58067	34.52
3.59733	34.52
3.61400	34.52
3.63067	34.52
3.64733	34.51
3.66400	34.52
3.68067	34.52
3.69733	34.52
3.71400	34.52
3.73067	34.52
3.74733	34.52
3.76400	34.52
3.78067	34.52
3.79733	34.51
3.81400	34.52
3.83067	34.52
3.84733	34.52
3.86400	34.52
3.88067	34.52
3.89733	34.52
3.91400	34.52
3.93067	34.52
3.94733	34.51
3.96400	34.52
3.98067	34.52
3.99733	34.53

[Status Trace (Column Flow)]
Interval(msec)	1000
# of Points	240
Start Time(min)	0.014
End Time(min)	3.997
Intensity Units	
Intensity Multiplier	1
R.Time (min)	Intensity
0.01400	5.46
0.03067	5.21
0.04733	5.51
0.06400	5.74
0.08067	5.61
0.09733	5.52
0.11400	5.52
0.13067	5.52
0.14733	5.52
0.16400	5.52
0.18067	5.52
0.19733	5.52
0.21400	5.52
0.23067	5.52
0.24733	5.52
0.26400	5.52
0.28067	5.52
0.29733	5.52
0.31400	5.52
0.33067	5.52
0.34733	5.52
0.36400	5.52
0.38067	5.52
0.39733	5.52
0.41400	5.52
0.43067	5.52
0.44733	5.52
0.46400	5.52
0.48067	5.52
0.49733	5.52
0.51400	5.52
0.53067	5.52
0.54733	5.52
0.56400	5.52
0.58067	5.52
0.59733	5.52
0.61400	5.52
0.63067	5.52
0.64733	5.52
0.66400	5.52
0.68067	5.52
0.69733	5.52
0.71400	5.52
0.73067	5.52
0.74733	5.52
0.76400	5.52
0.78067	5.52
0.79733	5.52
0.81400	5.52
0.83067	5.52
0.84733	5.52
0.86400	5.52
0.88067	5.52
0.89733	5.52
0.91400	5.52
0.93067	5.52
0.94733	5.52
0.96400	5.52
0.98067	5.52
0.99733	5.52
1.01400	5.52
1.03067	5.52
1.04733	5.52
1.06400	5.52
1.08067	5.52
1.09733	5.52
1.11400	5.52
1.13067	5.52
1.14733	5.52
1.16400	5.52
1.18067	5.52
1.19733	5.52
1.21400	5.52
1.23067	5.52
1.24733	5.52
1.26400	5.52
1.28067	5.52
1.29733	5.52
1.31400	5.52
1.33067	5.52
1.34733	5.52
1.36400	5.52
1.38067	5.52
1.39733	5.52
1.41400	5.52
1.43067	5.52
1.44733	5.52
1.46400	5.52
1.48067	5.52
1.49733	5.52
1.51400	5.52
1.53067	5.52
1.54733	5.52
1.56400	5.52
1.58067	5.52
1.59733	5.52
1.61400	5.52
1.63067	5.51
1.64733	5.51
1.66400	5.50
1.68067	5.49
1.69733	5.48
1.71400	5.46
1.73067	5.46
1.74733	5.45
1.76400	5.44
1.78067	5.43
1.79733	5.41
1.81400	5.40
1.83067	5.39
1.84733	5.38
1.86400	5.37
1.88067	5.37
1.89733	5.35
1.91400	5.34
1.93067	5.34
1.94733	5.33
1.96400	5.32
1.98067	5.31
1.99733	5.30
2.01400	5.29
2.03067	5.28
2.04733	5.27
2.06400	5.26
2.08067	5.25
2.09733	5.24
2.11400	5.23
2.13067	5.22
2.14733	5.21
2.16400	5.20
2.18067	5.19
2.19733	5.18
2.21400	5.17
2.23067	5.16
2.24733	5.15
2.26400	5.14
2.28067	5.13
2.29733	5.13
2.31400	5.12
2.33067	5.11
2.34733	5.10
2.36400	5.09
2.38067	5.09
2.39733	5.09
2.41400	5.09
2.43067	5.09
2.44733	5.09
2.46400	5.09
2.48067	5.09
2.49733	5.09
2.51400	5.09
2.53067	5.09
2.54733	5.09
2.56400	5.09
2.58067	5.08
2.59733	5.08
2.61400	5.08
2.63067	5.08
2.64733	5.08
2.66400	5.08
2.68067	5.08
2.69733	5.08
2.71400	5.08
2.73067	5.08
2.74733	5.08
2.76400	5.08
2.78067	5.08
2.79733	5.08
2.81400	5.08
2.83067	5.08
2.84733	5.08
2.86400	5.08
2.88067	5.08
2.89733	5.08
2.91400	5.08
2.93067	5.08
2.94733	5.08
2.96400	5.08
2.98067	5.08
2.99733	5.08
3.01400	5.08
3.03067	5.08
3.04733	5.08
3.06400	5.08
3.08067	5.08
3.09733	5.08
3.11400	5.08
3.13067	5.08
3.14733	5.08
3.16400	5.08
3.18067	5.08
3.19733	5.08
3.21400	5.08
3.23067	5.08
3.24733	5.08
3.26400	5.08
3.28067	5.08
3.29733	5.08
3.31400	5.08
3.33067	5.08
3.34733	5.08
3.36400	5.08
3.38067	5.08
3.39733	5.08
3.41400	5.08
3.43067	5.08
3.44733	5.08
3.46400	5.08
3.48067	5.08
3.49733	5.08
3.51400	5.08
3.53067	5.08
3.54733	5.08
3.56400	5.08
3.58067	5.08
3.59733	5.08
3.61400	5.08
3.63067	5.08
3.64733	5.08
3.66400	5.08
3.68067	5.08
3.69733	5.08
3.71400	5.08
3.73067	5.08
3.74733	5.08
3.76400	5.08
3.78067	5.08
3.79733	5.08
3.81400	5.08
3.83067	5.08
3.84733	5.08
3.86400	5.08
3.88067	5.08
3.89733	5.08
3.91400	5.08
3.93067	5.08
3.94733	5.08
3.96400	5.08
3.98067	5.08
3.99733	5.08

[Status Trace (Linear Velocity)]
Interval(msec)	1000
# of Points	240
Start Time(min)	0.014
End Time(min)	3.997
Intensity Units	
Intensity Multiplier	1
R.Time (min)	Intensity
0.01400	38.64
0.03067	37.27
0.04733	38.96
0.06400	40.22
0.08067	39.52
0.09733	39.00
0.11400	39.01
0.13067	39.02
0.14733	39.02
0.16400	39.02
0.18067	39.02
0.19733	39.02
0.21400	39.02
0.23067	39.02
0.24733	39.02
0.26400	39.02
0.28067	39.02
0.29733	39.02
0.31400	39.02
0.33067	39.01
0.34733	39.01
0.36400	39.01
0.38067	39.02
0.39733	39.02
0.41400	39.02
0.43067	39.02
0.44733	39.02
0.46400	39.02
0.48067	39.02
0.49733	39.02
0.51400	39.02
0.53067	39.02
0.54733	39.02
0.56400	39.02
0.58067	39.02
0.59733	39.02
0.61400	39.02
0.63067	39.02
0.64733	39.02
0.66400	39.02
0.68067	39.02
0.69733	39.02
0.71400	39.02
0.73067	39.02
0.74733	39.02
0.76400	39.02
0.78067	39.02
0.79733	39.02
0.81400	39.02
0.83067	39.02
0.84733	39.02
0.86400	39.02
0.88067	39.02
0.89733	39.02
0.91400	39.02
0.93067	39.02
0.94733	39.02
0.96400	39.02
0.98067	39.02
0.99733	39.02
1.01400	39.02
1.03067	39.02
1.04733	39.01
1.06400	39.01
1.08067	39.02
1.09733	39.02
1.11400	39.02
1.13067	39.02
1.14733	39.02
1.16400	39.02
1.18067	39.02
1.19733	39.02
1.21400	39.02
1.23067	39.02
1.24733	39.02
1.26400	39.02
1.28067	39.02
1.29733	39.02
1.31400	39.02
1.33067	39.02
1.34733	39.02
1.36400	39.02
1.38067	39.01
1.39733	39.01
1.41400	39.01
1.43067	39.01
1.44733	39.01
1.46400	39.02
1.48067	39.02
1.49733	39.01
1.51400	39.01
1.53067	39.01
1.54733	39.02
1.56400	39.02
1.58067	39.01
1.59733	39.01
1.61400	39.01
1.63067	39.00
1.64733	38.98
1.66400	38.95
1.68067	38.92
1.69733	38.88
1.71400	38.84
1.73067	38.81
1.74733	38.78
1.76400	38.75
1.78067	38.72
1.79733	38.69
1.81400	38.65
1.83067	38.63
1.84733	38.59
1.86400	38.56
1.88067	38.54
1.89733	38.50
1.91400	38.47
1.93067	38.44
1.94733	38.41
1.96400	38.38
1.98067	38.35
1.99733	38.32
2.01400	38.29
2.03067	38.26
2.04733	38.23
2.06400	38.20
2.08067	38.17
2.09733	38.14
2.11400	38.11
2.13067	38.08
2.14733	38.05
2.16400	38.02
2.18067	37.99
2.19733	37.96
2.21400	37.93
2.23067	37.90
2.24733	37.87
2.26400	37.84
2.28067	37.81
2.29733	37.78
2.31400	37.75
2.33067	37.72
2.34733	37.69
2.36400	37.67
2.38067	37.66
2.39733	37.66
2.41400	37.66
2.43067	37.66
2.44733	37.66
2.46400	37.66
2.48067	37.66
2.49733	37.66
2.51400	37.65
2.53067	37.65
2.54733	37.66
2.56400	37.65
2.58067	37.65
2.59733	37.65
2.61400	37.65
2.63067	37.65
2.64733	37.65
2.66400	37.65
2.68067	37.65
2.69733	37.64
2.71400	37.64
2.73067	37.65
2.74733	37.65
2.76400	37.65
2.78067	37.64
2.79733	37.64
2.81400	37.64
2.83067	37.64
2.84733	37.64
2.86400	37.64
2.88067	37.64
2.89733	37.64
2.91400	37.64
2.93067	37.64
2.94733	37.64
2.96400	37.64
2.98067	37.64
2.99733	37.63
3.01400	37.63
3.03067	37.63
3.04733	37.63
3.06400	37.63
3.08067	37.63
3.09733	37.63
3.11400	37.63
3.13067	37.63
3.14733	37.63
3.16400	37.63
3.18067	37.63
3.19733	37.63
3.21400	37.63
3.23067	37.63
3.24733	37.63
3.26400	37.63
3.28067	37.63
3.29733	37.62
3.31400	37.62
3.33067	37.62
3.34733	37.62
3.36400	37.62
3.38067	37.62
3.39733	37.63
3.41400	37.63
3.43067	37.63
3.44733	37.63
3.46400	37.63
3.48067	37.63
3.49733	37.63
3.51400	37.63
3.53067	37.63
3.54733	37.63
3.56400	37.63
3.58067	37.63
3.59733	37.63
3.61400	37.63
3.63067	37.63
3.64733	37.63
3.66400	37.63
3.68067	37.63
3.69733	37.63
3.71400	37.63
3.73067	37.63
3.74733	37.63
3.76400	37.63
3.78067	37.63
3.79733	37.63
3.81400	37.63
3.83067	37.63
3.84733	37.63
3.86400	37.63
3.88067	37.63
3.89733	37.63
3.91400	37.63
3.93067	37.63
3.94733	37.63
3.96400	37.63
3.98067	37.63
3.99733	37.63

