[Header]
Application Name	LabSolutions
Version	5.110
Data File Name	C:\Users\User\Desktop\GC Analyses\Jack\Nachusa Grasslands Sampling\T2 Timepoint July 12th\T2_07122022_061.gcd
Output Date	3/14/2023
Output Time	3:42:33 PM

[File Information]
Type	Data File
Generated	3/10/2023 7:13:21 PM
Generated by	System Administrator
Modified	3/10/2023 7:20:01 PM
Modified by	System Administrator

[Sample Information]
Operator Name	System Administrator
Acquired	3/10/2023 7:15:59 PM
Sample Type	0:Unknown
Level	0
Sample Name	061
Sample ID	061
ISTD Amount1	1
ISTD Amount2	1
ISTD Amount3	1
ISTD Amount4	1
ISTD Amount5	1
ISTD Amount6	1
ISTD Amount7	1
ISTD Amount8	1
ISTD Amount9	1
ISTD Amount10	1
ISTD Amount11	1
ISTD Amount12	1
ISTD Amount13	1
ISTD Amount14	1
ISTD Amount15	1
ISTD Amount16	1
ISTD Amount17	1
ISTD Amount18	1
ISTD Amount19	1
ISTD Amount20	1
ISTD Amount21	1
ISTD Amount22	1
ISTD Amount23	1
ISTD Amount24	1
ISTD Amount25	1
ISTD Amount26	1
ISTD Amount27	1
ISTD Amount28	1
ISTD Amount29	1
ISTD Amount30	1
ISTD Amount31	1
ISTD Amount32	1
Sample Amount	1
Dilution Factor	1
Vial#	60
Injection Volume	1
Injection Count	1
Bar Code	

[Original Files]
Data File	C:\Users\User\Desktop\GC Analyses\Jack\Nachusa Grasslands Sampling\T1 Timepoint July 12th\T2_07122022_061.gcd
Method File	C:\LabSolutions\Data\GHG_4min_2022\ghg3_togas_w_acet_4 min_new_int.gcm
Batch File	C:\LabSolutions\Data\AutoSamplerTesting\T2_07122022.gcb
Report Format File	c:\LabSolutions\System\DEFAULT.lsr

[File Description]


[Configuration]
Instrument Name	C0B7VH3-Instrument1
Instrument #	1
Line #	1
# of Detectors	3
Detector ID	DET#1	DET#2	DET#3
Detector Name	FID	PTCD	ECD
# of Channels	1	1	1

[Peak Table(Ch1)]
# of Peaks	3
Peak#	R.Time	I.Time	F.Time	Area	Height	A/H	Conc.	Mark	ID#	Name	k'	Plate #	Plate Ht.	Tailing	Resolution	Sep.Factor	Area Ratio	Height Ratio	Conc. %	Norm Conc.
1	1.476	1.435	1.538	54551	26574	2.053	385.134	   	1	CO	0.000	9641	15.559	1.298	0.000	0.000	0	0	31.211	31.211
2	1.567	1.538	1.644	5085	2352	2.162	98.331	 V 	2	CH4	0.062	9317	16.099	0.000	1.466	0.000	0	0	7.969	7.969
3	1.996	1.949	2.513	2990339	1425361	2.098	750.494	   	3	CO2	0.353	17411	8.615	1.247	6.838	5.680	0	0	60.820	60.820

[Peak Table(Ch2)]
# of Peaks	0

[Peak Table(Ch3)]
# of Peaks	4
Peak#	R.Time	I.Time	F.Time	Area	Height	A/H	Conc.	Mark	ID#	Name	k'	Plate #	Plate Ht.	Tailing	Resolution	Sep.Factor	Area Ratio	Height Ratio	Conc. %	Norm Conc.
1	2.462	2.183	2.513	2828	672	4.209	0.000	   			0.000	7986	18.783	0.000	0.000	0.000	0	0	0.000	0.000
2	2.532	2.513	2.708	1871	395	4.738	0.000	 V 			0.028	4290	34.968	0.000	0.526	0.000	0	0	0.000	0.000
3	2.876	2.807	3.041	18463	4932	3.743	0.472	   	1	N2O	0.168	13335	11.249	1.589	2.711	5.947	0	0	100.000	100.000
4	3.353	3.195	3.995	12889	462	27.883	0.000	   	2	SF6	0.362	327	458.507	2.538	1.133	2.150	0	0	0.000	0.000

[Compound Results(Ch1)]
# of IDs	6
ID#	Name	R.Time	Area	Height	Conc.	Curve	3rd	2nd	1st	Constant	Area Ratio	Height Ratio	Conc. %	Norm Conc.
1	CO	1.476	54551	26574	385.134	Linear	0.000000e+00	0.000000e+00	1.416423e+002	0.000000e+00	0	0	31.211	31.211
2	CH4	1.567	5085	2352	98.331	Linear	0.000000e+00	0.000000e+00	5.171738e+001	0.000000e+00	0	0	7.969	7.969
3	CO2	1.996	2990339	1425361	750.494	Linear	0.000000e+00	0.000000e+00	3.984494e+003	0.000000e+00	0	0	60.820	60.820
4	Ethylene	0.000	0	0	0.000	Linear	0.000000e+00	0.000000e+00	0.000000e+00	0.000000e+00	0	0	0.000	0.000
5	Acetylene	0.000	0	0	0.000	Linear	0.000000e+00	0.000000e+00	0.000000e+00	0.000000e+00	0	0	0.000	0.000
6	Ethane	0.000	0	0	0.000	Linear	0.000000e+00	0.000000e+00	0.000000e+00	0.000000e+00	0	0	0.000	0.000

[Compound Results(Ch2)]
# of IDs	5
ID#	Name	R.Time	Area	Height	Conc.	Curve	3rd	2nd	1st	Constant	Area Ratio	Height Ratio	Conc. %	Norm Conc.
1	Hydrogen	0.000	0	0	0.000	Linear	0.000000e+00	0.000000e+00	0.000000e+00	0.000000e+00	0	0	0.000	0.000
2	Oxygen	0.000	0	0	0.000	Linear	0.000000e+00	0.000000e+00	0.000000e+00	0.000000e+00	0	0	0.000	0.000
3	Nitrogen	0.000	0	0	0.000	Linear	0.000000e+00	0.000000e+00	0.000000e+00	0.000000e+00	0	0	0.000	0.000
4	Methane	0.000	0	0	0.000	Linear	0.000000e+00	0.000000e+00	0.000000e+00	0.000000e+00	0	0	0.000	0.000
5	Carbon Monoxide	0.000	0	0	0.000	Linear	0.000000e+00	0.000000e+00	0.000000e+00	0.000000e+00	0	0	0.000	0.000

[Compound Results(Ch3)]
# of IDs	2
ID#	Name	R.Time	Area	Height	Conc.	Curve	3rd	2nd	1st	Constant	Area Ratio	Height Ratio	Conc. %	Norm Conc.
1	N2O	2.876	18463	4932	0.472	Linear	0.000000e+00	0.000000e+00	3.915173e+004	0.000000e+00	0	0	100.000	100.000
2	SF6	3.353	12889	462	0.000	Linear	0.000000e+00	0.000000e+00	0.000000e+00	0.000000e+00	0	0	0.000	0.000

[Group Results(Ch1)]
# of Groups	0

[Group Results(Ch2)]
# of Groups	0

[Group Results(Ch3)]
# of Groups	0

[Chromatogram (Ch1)]
Interval(msec)	220
# of Points	1091
Start Time(min)	0.002
End Time(min)	3.998
R.Time (min)	Intensity
0.00167	-7
0.00533	-2
0.00900	-2
0.01267	-1
0.01633	1
0.02000	4
0.02367	5
0.02733	3
0.03100	4
0.03467	7
0.03833	10
0.04200	10
0.04567	7
0.04933	7
0.05300	9
0.05667	6
0.06033	1
0.06400	-1
0.06767	-3
0.07133	-8
0.07500	-10
0.07867	-8
0.08233	-2
0.08600	3
0.08967	4
0.09333	0
0.09700	-3
0.10067	-4
0.10433	-5
0.10800	-7
0.11167	-14
0.11533	-21
0.11900	-22
0.12267	-16
0.12633	-9
0.13000	-4
0.13367	3
0.13733	11
0.14100	21
0.14467	27
0.14833	27
0.15200	20
0.15567	15
0.15933	13
0.16300	14
0.16667	17
0.17033	18
0.17400	16
0.17767	15
0.18133	13
0.18500	11
0.18867	11
0.19233	15
0.19600	21
0.19967	28
0.20333	31
0.20700	35
0.21067	36
0.21433	34
0.21800	31
0.22167	32
0.22533	35
0.22900	37
0.23267	38
0.23633	36
0.24000	33
0.24367	33
0.24733	40
0.25100	45
0.25467	43
0.25833	37
0.26200	36
0.26567	41
0.26933	45
0.27300	49
0.27667	52
0.28033	56
0.28400	64
0.28767	71
0.29133	78
0.29500	85
0.29867	87
0.30233	87
0.30600	84
0.30967	82
0.31333	83
0.31700	84
0.32067	85
0.32433	85
0.32800	79
0.33167	68
0.33533	57
0.33900	49
0.34267	45
0.34633	44
0.35000	45
0.35367	50
0.35733	53
0.36100	54
0.36467	55
0.36833	54
0.37200	47
0.37567	43
0.37933	41
0.38300	40
0.38667	38
0.39033	36
0.39400	31
0.39767	26
0.40133	23
0.40500	27
0.40867	30
0.41233	29
0.41600	24
0.41967	21
0.42333	18
0.42700	14
0.43067	10
0.43433	9
0.43800	6
0.44167	4
0.44533	3
0.44900	3
0.45267	2
0.45633	-0
0.46000	0
0.46367	5
0.46733	10
0.47100	11
0.47467	8
0.47833	4
0.48200	2
0.48567	4
0.48933	9
0.49300	14
0.49667	16
0.50033	16
0.50400	14
0.50767	9
0.51133	6
0.51500	5
0.51867	5
0.52233	4
0.52600	-0
0.52967	-2
0.53333	2
0.53700	10
0.54067	18
0.54433	17
0.54800	8
0.55167	-1
0.55533	-9
0.55900	-14
0.56267	-13
0.56633	-10
0.57000	-12
0.57367	-16
0.57733	-20
0.58100	-17
0.58467	-6
0.58833	7
0.59200	17
0.59567	24
0.59933	31
0.60300	32
0.60667	30
0.61033	26
0.61400	17
0.61767	6
0.62133	-3
0.62500	-5
0.62867	-3
0.63233	1
0.63600	5
0.63967	10
0.64333	13
0.64700	10
0.65067	3
0.65433	-2
0.65800	-4
0.66167	-2
0.66533	3
0.66900	12
0.67267	20
0.67633	23
0.68000	26
0.68367	25
0.68733	20
0.69100	15
0.69467	8
0.69833	6
0.70200	7
0.70567	7
0.70933	3
0.71300	4
0.71667	7
0.72033	8
0.72400	4
0.72767	-0
0.73133	-0
0.73500	2
0.73867	6
0.74233	11
0.74600	12
0.74967	8
0.75333	3
0.75700	1
0.76067	-2
0.76433	-5
0.76800	-5
0.77167	-1
0.77533	-1
0.77900	1
0.78267	6
0.78633	11
0.79000	14
0.79367	16
0.79733	17
0.80100	14
0.80467	15
0.80833	17
0.81200	17
0.81567	17
0.81933	13
0.82300	8
0.82667	7
0.83033	9
0.83400	10
0.83767	7
0.84133	2
0.84500	-1
0.84867	1
0.85233	8
0.85600	17
0.85967	24
0.86333	26
0.86700	24
0.87067	23
0.87433	19
0.87800	12
0.88167	4
0.88533	0
0.88900	0
0.89267	0
0.89633	-1
0.90000	-3
0.90367	-5
0.90733	-7
0.91100	-8
0.91467	-6
0.91833	-5
0.92200	-11
0.92567	-20
0.92933	-23
0.93300	-19
0.93667	-13
0.94033	-10
0.94400	-10
0.94767	-12
0.95133	-15
0.95500	-12
0.95867	-6
0.96233	0
0.96600	5
0.96967	8
0.97333	6
0.97700	3
0.98067	0
0.98433	0
0.98800	3
0.99167	3
0.99533	1
0.99900	-3
1.00267	-10
1.00633	-19
1.01000	-19
1.01367	-8
1.01733	4
1.02100	12
1.02467	14
1.02833	12
1.03200	4
1.03567	-4
1.03933	-5
1.04300	-3
1.04667	-2
1.05033	-4
1.05400	-3
1.05767	-2
1.06133	-5
1.06500	-12
1.06867	-15
1.07233	-11
1.07600	-4
1.07967	-1
1.08333	-6
1.08700	-13
1.09067	-16
1.09433	-14
1.09800	-11
1.10167	-10
1.10533	-12
1.10900	-13
1.11267	-11
1.11633	-6
1.12000	-2
1.12367	-2
1.12733	-4
1.13100	-7
1.13467	-9
1.13833	-9
1.14200	-2
1.14567	3
1.14933	2
1.15300	-4
1.15667	-10
1.16033	-18
1.16400	-23
1.16767	-19
1.17133	-8
1.17500	1
1.17867	5
1.18233	5
1.18600	3
1.18967	2
1.19333	3
1.19700	10
1.20067	14
1.20433	7
1.20800	-9
1.21167	-28
1.21533	-43
1.21900	-49
1.22267	-47
1.22633	-42
1.23000	-35
1.23367	-25
1.23733	-17
1.24100	-15
1.24467	-20
1.24833	-22
1.25200	-21
1.25567	-18
1.25933	-9
1.26300	0
1.26667	10
1.27033	15
1.27400	11
1.27767	2
1.28133	-7
1.28500	-11
1.28867	-14
1.29233	-17
1.29600	-25
1.29967	-37
1.30333	-45
1.30700	-45
1.31067	-41
1.31433	-34
1.31800	-31
1.32167	-32
1.32533	-31
1.32900	-26
1.33267	-21
1.33633	-19
1.34000	-21
1.34367	-23
1.34733	-23
1.35100	-21
1.35467	-18
1.35833	-14
1.36200	-10
1.36567	-5
1.36933	2
1.37300	5
1.37667	1
1.38033	-9
1.38400	-22
1.38767	-31
1.39133	-33
1.39500	-32
1.39867	-28
1.40233	-23
1.40600	-17
1.40967	-14
1.41333	-15
1.41700	-18
1.42067	-21
1.42433	-23
1.42800	-25
1.43167	-20
1.43533	-11
1.43900	15
1.44267	115
1.44633	450
1.45000	1587
1.45367	4407
1.45733	8962
1.46100	14260
1.46467	19199
1.46833	23113
1.47200	25663
1.47567	26573
1.47933	25645
1.48300	23016
1.48667	19261
1.49033	15174
1.49400	11410
1.49767	8312
1.50133	5941
1.50500	4209
1.50867	2984
1.51233	2135
1.51600	1554
1.51967	1157
1.52333	888
1.52700	704
1.53067	577
1.53433	488
1.53800	440
1.54167	472
1.54533	636
1.54900	948
1.55267	1352
1.55633	1748
1.56000	2071
1.56367	2289
1.56733	2374
1.57100	2304
1.57467	2079
1.57833	1746
1.58200	1380
1.58567	1044
1.58933	772
1.59300	566
1.59667	417
1.60033	308
1.60400	232
1.60767	179
1.61133	143
1.61500	119
1.61867	100
1.62233	87
1.62600	78
1.62967	71
1.63333	65
1.63700	58
1.64067	49
1.64433	41
1.64800	35
1.65167	35
1.65533	39
1.65900	42
1.66267	42
1.66633	42
1.67000	40
1.67367	33
1.67733	26
1.68100	23
1.68467	22
1.68833	25
1.69200	35
1.69567	46
1.69933	56
1.70300	56
1.70667	48
1.71033	37
1.71400	31
1.71767	30
1.72133	32
1.72500	38
1.72867	43
1.73233	45
1.73600	43
1.73967	36
1.74333	26
1.74700	12
1.75067	-1
1.75433	-7
1.75800	-8
1.76167	-6
1.76533	3
1.76900	11
1.77267	11
1.77633	-0
1.78000	-12
1.78367	-15
1.78733	-12
1.79100	-2
1.79467	5
1.79833	11
1.80200	14
1.80567	14
1.80933	15
1.81300	16
1.81667	19
1.82033	26
1.82400	37
1.82767	45
1.83133	45
1.83500	38
1.83867	27
1.84233	16
1.84600	11
1.84967	11
1.85333	13
1.85700	16
1.86067	18
1.86433	15
1.86800	11
1.87167	11
1.87533	14
1.87900	19
1.88267	20
1.88633	19
1.89000	14
1.89367	8
1.89733	6
1.90100	6
1.90467	7
1.90833	10
1.91200	13
1.91567	18
1.91933	21
1.92300	24
1.92667	26
1.93033	28
1.93400	30
1.93767	33
1.94133	32
1.94500	30
1.94867	35
1.95233	81
1.95600	417
1.95967	2365
1.96333	10979
1.96700	39915
1.97067	114393
1.97433	261325
1.97800	485834
1.98167	758613
1.98533	1029397
1.98900	1250207
1.99267	1387691
1.99633	1425454
2.00000	1364210
2.00367	1221242
2.00733	1027136
2.01100	816709
2.01467	619321
2.01833	452621
2.02200	322350
2.02567	226138
2.02933	157846
2.03300	110648
2.03667	78548
2.04033	56874
2.04400	42242
2.04767	32299
2.05133	25456
2.05500	20666
2.05867	17240
2.06233	14728
2.06600	12833
2.06967	11363
2.07333	10199
2.07700	9260
2.08067	8487
2.08433	7843
2.08800	7294
2.09167	6812
2.09533	6384
2.09900	6005
2.10267	5666
2.10633	5361
2.11000	5087
2.11367	4841
2.11733	4618
2.12100	4415
2.12467	4229
2.12833	4061
2.13200	3906
2.13567	3760
2.13933	3622
2.14300	3490
2.14667	3366
2.15033	3248
2.15400	3137
2.15767	3041
2.16133	2952
2.16500	2865
2.16867	2780
2.17233	2698
2.17600	2614
2.17967	2531
2.18333	2450
2.18700	2378
2.19067	2313
2.19433	2259
2.19800	2215
2.20167	2172
2.20533	2120
2.20900	2060
2.21267	1998
2.21633	1944
2.22000	1901
2.22367	1862
2.22733	1823
2.23100	1783
2.23467	1742
2.23833	1703
2.24200	1667
2.24567	1631
2.24933	1596
2.25300	1565
2.25667	1538
2.26033	1514
2.26400	1490
2.26767	1465
2.27133	1439
2.27500	1411
2.27867	1385
2.28233	1364
2.28600	1344
2.28967	1320
2.29333	1299
2.29700	1281
2.30067	1264
2.30433	1249
2.30800	1231
2.31167	1213
2.31533	1201
2.31900	1192
2.32267	1180
2.32633	1163
2.33000	1140
2.33367	1106
2.33733	1069
2.34100	1036
2.34467	1014
2.34833	1003
2.35200	990
2.35567	973
2.35933	967
2.36300	964
2.36667	960
2.37033	955
2.37400	952
2.37767	946
2.38133	939
2.38500	932
2.38867	924
2.39233	911
2.39600	895
2.39967	882
2.40333	873
2.40700	868
2.41067	864
2.41433	860
2.41800	859
2.42167	858
2.42533	853
2.42900	843
2.43267	829
2.43633	814
2.44000	803
2.44367	795
2.44733	788
2.45100	777
2.45467	765
2.45833	756
2.46200	748
2.46567	743
2.46933	745
2.47300	750
2.47667	752
2.48033	753
2.48400	755
2.48767	752
2.49133	745
2.49500	739
2.49867	734
2.50233	730
2.50600	727
2.50967	726
2.51333	726
2.51700	722
2.52067	719
2.52433	716
2.52800	714
2.53167	717
2.53533	717
2.53900	715
2.54267	711
2.54633	705
2.55000	700
2.55367	695
2.55733	693
2.56100	692
2.56467	684
2.56833	674
2.57200	666
2.57567	661
2.57933	656
2.58300	646
2.58667	635
2.59033	625
2.59400	617
2.59767	612
2.60133	611
2.60500	611
2.60867	611
2.61233	614
2.61600	618
2.61967	621
2.62333	624
2.62700	628
2.63067	630
2.63433	627
2.63800	620
2.64167	610
2.64533	598
2.64900	593
2.65267	588
2.65633	583
2.66000	583
2.66367	586
2.66733	589
2.67100	591
2.67467	590
2.67833	583
2.68200	570
2.68567	556
2.68933	544
2.69300	539
2.69667	539
2.70033	544
2.70400	551
2.70767	555
2.71133	557
2.71500	557
2.71867	559
2.72233	562
2.72600	565
2.72967	567
2.73333	570
2.73700	573
2.74067	575
2.74433	575
2.74800	569
2.75167	563
2.75533	557
2.75900	554
2.76267	551
2.76633	540
2.77000	529
2.77367	520
2.77733	515
2.78100	508
2.78467	505
2.78833	509
2.79200	514
2.79567	514
2.79933	514
2.80300	516
2.80667	518
2.81033	522
2.81400	528
2.81767	533
2.82133	532
2.82500	527
2.82867	523
2.83233	520
2.83600	514
2.83967	504
2.84333	496
2.84700	493
2.85067	498
2.85433	510
2.85800	520
2.86167	526
2.86533	527
2.86900	524
2.87267	518
2.87633	510
2.88000	500
2.88367	490
2.88733	484
2.89100	480
2.89467	477
2.89833	478
2.90200	487
2.90567	496
2.90933	502
2.91300	498
2.91667	488
2.92033	480
2.92400	481
2.92767	484
2.93133	480
2.93500	473
2.93867	472
2.94233	476
2.94600	482
2.94967	489
2.95333	494
2.95700	500
2.96067	501
2.96433	496
2.96800	495
2.97167	498
2.97533	494
2.97900	483
2.98267	477
2.98633	478
2.99000	480
2.99367	478
2.99733	475
3.00100	470
3.00467	464
3.00833	462
3.01200	465
3.01567	467
3.01933	469
3.02300	474
3.02667	480
3.03033	477
3.03400	466
3.03767	454
3.04133	445
3.04500	439
3.04867	435
3.05233	430
3.05600	425
3.05967	425
3.06333	429
3.06700	433
3.07067	438
3.07433	440
3.07800	436
3.08167	428
3.08533	423
3.08900	422
3.09267	429
3.09633	438
3.10000	445
3.10367	448
3.10733	450
3.11100	449
3.11467	445
3.11833	442
3.12200	441
3.12567	442
3.12933	441
3.13300	439
3.13667	437
3.14033	431
3.14400	423
3.14767	417
3.15133	413
3.15500	414
3.15867	412
3.16233	408
3.16600	402
3.16967	396
3.17333	393
3.17700	393
3.18067	395
3.18433	400
3.18800	404
3.19167	407
3.19533	410
3.19900	407
3.20267	401
3.20633	392
3.21000	381
3.21367	375
3.21733	370
3.22100	369
3.22467	373
3.22833	375
3.23200	377
3.23567	379
3.23933	383
3.24300	383
3.24667	383
3.25033	389
3.25400	399
3.25767	409
3.26133	414
3.26500	411
3.26867	403
3.27233	393
3.27600	384
3.27967	375
3.28333	365
3.28700	358
3.29067	354
3.29433	350
3.29800	347
3.30167	355
3.30533	363
3.30900	365
3.31267	364
3.31633	363
3.32000	364
3.32367	366
3.32733	368
3.33100	370
3.33467	373
3.33833	377
3.34200	380
3.34567	377
3.34933	369
3.35300	362
3.35667	359
3.36033	357
3.36400	360
3.36767	365
3.37133	369
3.37500	366
3.37867	359
3.38233	351
3.38600	343
3.38967	340
3.39333	345
3.39700	354
3.40067	364
3.40433	370
3.40800	366
3.41167	356
3.41533	347
3.41900	342
3.42267	347
3.42633	358
3.43000	368
3.43367	369
3.43733	365
3.44100	354
3.44467	337
3.44833	324
3.45200	321
3.45567	324
3.45933	327
3.46300	328
3.46667	328
3.47033	324
3.47400	318
3.47767	313
3.48133	312
3.48500	315
3.48867	319
3.49233	322
3.49600	324
3.49967	327
3.50333	329
3.50700	329
3.51067	327
3.51433	325
3.51800	322
3.52167	316
3.52533	310
3.52900	304
3.53267	303
3.53633	306
3.54000	310
3.54367	313
3.54733	313
3.55100	309
3.55467	302
3.55833	296
3.56200	293
3.56567	291
3.56933	294
3.57300	297
3.57667	300
3.58033	304
3.58400	308
3.58767	311
3.59133	310
3.59500	308
3.59867	302
3.60233	297
3.60600	297
3.60967	304
3.61333	310
3.61700	310
3.62067	305
3.62433	296
3.62800	291
3.63167	288
3.63533	284
3.63900	282
3.64267	291
3.64633	302
3.65000	304
3.65367	302
3.65733	297
3.66100	291
3.66467	285
3.66833	281
3.67200	277
3.67567	276
3.67933	279
3.68300	284
3.68667	287
3.69033	289
3.69400	287
3.69767	279
3.70133	268
3.70500	261
3.70867	257
3.71233	254
3.71600	251
3.71967	250
3.72333	254
3.72700	260
3.73067	263
3.73433	266
3.73800	266
3.74167	264
3.74533	266
3.74900	274
3.75267	286
3.75633	298
3.76000	309
3.76367	311
3.76733	305
3.77100	297
3.77467	290
3.77833	279
3.78200	268
3.78567	258
3.78933	253
3.79300	249
3.79667	248
3.80033	245
3.80400	243
3.80767	239
3.81133	237
3.81500	238
3.81867	241
3.82233	249
3.82600	257
3.82967	263
3.83333	265
3.83700	257
3.84067	244
3.84433	228
3.84800	215
3.85167	209
3.85533	211
3.85900	214
3.86267	217
3.86633	224
3.87000	233
3.87367	244
3.87733	249
3.88100	246
3.88467	245
3.88833	241
3.89200	235
3.89567	232
3.89933	231
3.90300	233
3.90667	235
3.91033	240
3.91400	247
3.91767	251
3.92133	252
3.92500	256
3.92867	259
3.93233	259
3.93600	257
3.93967	251
3.94333	242
3.94700	235
3.95067	232
3.95433	235
3.95800	240
3.96167	246
3.96533	252
3.96900	254
3.97267	251
3.97633	243
3.98000	232
3.98367	218
3.98733	207
3.99100	203
3.99467	202
3.99833	204

[Chromatogram (Ch2)]
Interval(msec)	220
# of Points	1091
Start Time(min)	0.002
End Time(min)	3.998
R.Time (min)	Intensity
0.00167	1
0.00533	1
0.00900	1
0.01267	1
0.01633	0
0.02000	0
0.02367	0
0.02733	0
0.03100	0
0.03467	-0
0.03833	-0
0.04200	-0
0.04567	-0
0.04933	-0
0.05300	-0
0.05667	-0
0.06033	-0
0.06400	-1
0.06767	-1
0.07133	-2
0.07500	-2
0.07867	-3
0.08233	-3
0.08600	-4
0.08967	-4
0.09333	-4
0.09700	-4
0.10067	-4
0.10433	-4
0.10800	-4
0.11167	-4
0.11533	-4
0.11900	-4
0.12267	-4
0.12633	-3
0.13000	-3
0.13367	-3
0.13733	-3
0.14100	-2
0.14467	-2
0.14833	-2
0.15200	-1
0.15567	-1
0.15933	-1
0.16300	-1
0.16667	-1
0.17033	-1
0.17400	-2
0.17767	-2
0.18133	-2
0.18500	-3
0.18867	-3
0.19233	-3
0.19600	-3
0.19967	-3
0.20333	-3
0.20700	-3
0.21067	-3
0.21433	-3
0.21800	-3
0.22167	-3
0.22533	-3
0.22900	-2
0.23267	-2
0.23633	-2
0.24000	-2
0.24367	-2
0.24733	-2
0.25100	-2
0.25467	-2
0.25833	-2
0.26200	-2
0.26567	-2
0.26933	-2
0.27300	-2
0.27667	-2
0.28033	-2
0.28400	-2
0.28767	-2
0.29133	-2
0.29500	-2
0.29867	-1
0.30233	-1
0.30600	-0
0.30967	-0
0.31333	-0
0.31700	-0
0.32067	0
0.32433	0
0.32800	1
0.33167	1
0.33533	1
0.33900	1
0.34267	0
0.34633	0
0.35000	-0
0.35367	-0
0.35733	-1
0.36100	-1
0.36467	-1
0.36833	-1
0.37200	-1
0.37567	-1
0.37933	-1
0.38300	-1
0.38667	-1
0.39033	-0
0.39400	-0
0.39767	-0
0.40133	0
0.40500	0
0.40867	1
0.41233	1
0.41600	1
0.41967	1
0.42333	1
0.42700	1
0.43067	1
0.43433	1
0.43800	0
0.44167	0
0.44533	-0
0.44900	-0
0.45267	-0
0.45633	-0
0.46000	-0
0.46367	-0
0.46733	-0
0.47100	-0
0.47467	-1
0.47833	-1
0.48200	-1
0.48567	-1
0.48933	-1
0.49300	-2
0.49667	-2
0.50033	-2
0.50400	-3
0.50767	-3
0.51133	-3
0.51500	-3
0.51867	-3
0.52233	-3
0.52600	-3
0.52967	-3
0.53333	-2
0.53700	-2
0.54067	-2
0.54433	-2
0.54800	-2
0.55167	-2
0.55533	-2
0.55900	-2
0.56267	-3
0.56633	-3
0.57000	-3
0.57367	-3
0.57733	-3
0.58100	-3
0.58467	-3
0.58833	-3
0.59200	-3
0.59567	-3
0.59933	-4
0.60300	-4
0.60667	-4
0.61033	-5
0.61400	-5
0.61767	-5
0.62133	-5
0.62500	-5
0.62867	-5
0.63233	-5
0.63600	-5
0.63967	-5
0.64333	-5
0.64700	-4
0.65067	-4
0.65433	-4
0.65800	-4
0.66167	-3
0.66533	-3
0.66900	-3
0.67267	-2
0.67633	-2
0.68000	-2
0.68367	-2
0.68733	-2
0.69100	-2
0.69467	-2
0.69833	-1
0.70200	-1
0.70567	-1
0.70933	-0
0.71300	-0
0.71667	0
0.72033	1
0.72400	1
0.72767	1
0.73133	2
0.73500	2
0.73867	2
0.74233	3
0.74600	3
0.74967	3
0.75333	3
0.75700	3
0.76067	3
0.76433	3
0.76800	2
0.77167	2
0.77533	1
0.77900	1
0.78267	1
0.78633	0
0.79000	-0
0.79367	-1
0.79733	-1
0.80100	-1
0.80467	-2
0.80833	-2
0.81200	-3
0.81567	-3
0.81933	-3
0.82300	-3
0.82667	-3
0.83033	-3
0.83400	-3
0.83767	-3
0.84133	-3
0.84500	-2
0.84867	-2
0.85233	-2
0.85600	-1
0.85967	-1
0.86333	-1
0.86700	-1
0.87067	-1
0.87433	-1
0.87800	-1
0.88167	-1
0.88533	-1
0.88900	-2
0.89267	-2
0.89633	-3
0.90000	-3
0.90367	-4
0.90733	-5
0.91100	-5
0.91467	-6
0.91833	-6
0.92200	-6
0.92567	-6
0.92933	-7
0.93300	-7
0.93667	-7
0.94033	-7
0.94400	-7
0.94767	-7
0.95133	-6
0.95500	-6
0.95867	-6
0.96233	-5
0.96600	-5
0.96967	-4
0.97333	-4
0.97700	-3
0.98067	-3
0.98433	-2
0.98800	-2
0.99167	-1
0.99533	-1
0.99900	-1
1.00267	-1
1.00633	-1
1.01000	-1
1.01367	-1
1.01733	-1
1.02100	-1
1.02467	-1
1.02833	-1
1.03200	-1
1.03567	-1
1.03933	-2
1.04300	-2
1.04667	-3
1.05033	-3
1.05400	-4
1.05767	-4
1.06133	-5
1.06500	-5
1.06867	-5
1.07233	-6
1.07600	-6
1.07967	-5
1.08333	-5
1.08700	-5
1.09067	-5
1.09433	-5
1.09800	-5
1.10167	-5
1.10533	-5
1.10900	-5
1.11267	-5
1.11633	-6
1.12000	-6
1.12367	-5
1.12733	-5
1.13100	-5
1.13467	-5
1.13833	-4
1.14200	-4
1.14567	-4
1.14933	-4
1.15300	-4
1.15667	-4
1.16033	-4
1.16400	-4
1.16767	-4
1.17133	-3
1.17500	-3
1.17867	-3
1.18233	-3
1.18600	-3
1.18967	-3
1.19333	-4
1.19700	-4
1.20067	-4
1.20433	-4
1.20800	-4
1.21167	-4
1.21533	-4
1.21900	-4
1.22267	-4
1.22633	-4
1.23000	-4
1.23367	-4
1.23733	-4
1.24100	-4
1.24467	-4
1.24833	-4
1.25200	-4
1.25567	-4
1.25933	-3
1.26300	-3
1.26667	-2
1.27033	-2
1.27400	-2
1.27767	-2
1.28133	-2
1.28500	-3
1.28867	-3
1.29233	-3
1.29600	-3
1.29967	-3
1.30333	-3
1.30700	-3
1.31067	-3
1.31433	-3
1.31800	-3
1.32167	-2
1.32533	-2
1.32900	-2
1.33267	-2
1.33633	-2
1.34000	-2
1.34367	-2
1.34733	-2
1.35100	-2
1.35467	-1
1.35833	-1
1.36200	-1
1.36567	-1
1.36933	-1
1.37300	-2
1.37667	-2
1.38033	-2
1.38400	-2
1.38767	-2
1.39133	-3
1.39500	-3
1.39867	-3
1.40233	-3
1.40600	-3
1.40967	-4
1.41333	-4
1.41700	-4
1.42067	-4
1.42433	-4
1.42800	-4
1.43167	-4
1.43533	-4
1.43900	-4
1.44267	-4
1.44633	-5
1.45000	-5
1.45367	-5
1.45733	-6
1.46100	-6
1.46467	-6
1.46833	-6
1.47200	-6
1.47567	-6
1.47933	-5
1.48300	-5
1.48667	-5
1.49033	-5
1.49400	-5
1.49767	-5
1.50133	-4
1.50500	-4
1.50867	-4
1.51233	-4
1.51600	-4
1.51967	-4
1.52333	-4
1.52700	-4
1.53067	-4
1.53433	-3
1.53800	-3
1.54167	-3
1.54533	-3
1.54900	-4
1.55267	-4
1.55633	-4
1.56000	-5
1.56367	-5
1.56733	-5
1.57100	-5
1.57467	-5
1.57833	-5
1.58200	-5
1.58567	-5
1.58933	-5
1.59300	-5
1.59667	-5
1.60033	-5
1.60400	-6
1.60767	-7
1.61133	-8
1.61500	-10
1.61867	-12
1.62233	-14
1.62600	-17
1.62967	-21
1.63333	-25
1.63700	-28
1.64067	-32
1.64433	-36
1.64800	-40
1.65167	-43
1.65533	-47
1.65900	-51
1.66267	-55
1.66633	-59
1.67000	-64
1.67367	-68
1.67733	-73
1.68100	-78
1.68467	-83
1.68833	-87
1.69200	-91
1.69567	-94
1.69933	-97
1.70300	-99
1.70667	-101
1.71033	-102
1.71400	-104
1.71767	-105
1.72133	-105
1.72500	-106
1.72867	-106
1.73233	-106
1.73600	-106
1.73967	-105
1.74333	-105
1.74700	-105
1.75067	-105
1.75433	-105
1.75800	-105
1.76167	-106
1.76533	-107
1.76900	-108
1.77267	-109
1.77633	-110
1.78000	-110
1.78367	-110
1.78733	-111
1.79100	-111
1.79467	-112
1.79833	-112
1.80200	-112
1.80567	-113
1.80933	-114
1.81300	-115
1.81667	-115
1.82033	-116
1.82400	-116
1.82767	-116
1.83133	-116
1.83500	-115
1.83867	-115
1.84233	-114
1.84600	-114
1.84967	-115
1.85333	-115
1.85700	-115
1.86067	-115
1.86433	-114
1.86800	-114
1.87167	-114
1.87533	-114
1.87900	-114
1.88267	-114
1.88633	-114
1.89000	-114
1.89367	-114
1.89733	-114
1.90100	-114
1.90467	-114
1.90833	-114
1.91200	-114
1.91567	-114
1.91933	-114
1.92300	-113
1.92667	-113
1.93033	-113
1.93400	-112
1.93767	-110
1.94133	-109
1.94500	-109
1.94867	-108
1.95233	-108
1.95600	-109
1.95967	-109
1.96333	-110
1.96700	-110
1.97067	-110
1.97433	-109
1.97800	-109
1.98167	-108
1.98533	-108
1.98900	-107
1.99267	-107
1.99633	-107
2.00000	-107
2.00367	-107
2.00733	-107
2.01100	-107
2.01467	-108
2.01833	-108
2.02200	-108
2.02567	-107
2.02933	-107
2.03300	-107
2.03667	-106
2.04033	-105
2.04400	-104
2.04767	-103
2.05133	-103
2.05500	-103
2.05867	-103
2.06233	-103
2.06600	-103
2.06967	-103
2.07333	-103
2.07700	-103
2.08067	-102
2.08433	-102
2.08800	-102
2.09167	-101
2.09533	-101
2.09900	-101
2.10267	-100
2.10633	-100
2.11000	-99
2.11367	-99
2.11733	-99
2.12100	-99
2.12467	-99
2.12833	-99
2.13200	-99
2.13567	-100
2.13933	-100
2.14300	-100
2.14667	-100
2.15033	-99
2.15400	-98
2.15767	-98
2.16133	-97
2.16500	-97
2.16867	-96
2.17233	-96
2.17600	-95
2.17967	-95
2.18333	-94
2.18700	-94
2.19067	-93
2.19433	-93
2.19800	-93
2.20167	-93
2.20533	-93
2.20900	-93
2.21267	-93
2.21633	-92
2.22000	-90
2.22367	-90
2.22733	-89
2.23100	-89
2.23467	-89
2.23833	-89
2.24200	-89
2.24567	-89
2.24933	-89
2.25300	-89
2.25667	-89
2.26033	-89
2.26400	-88
2.26767	-88
2.27133	-87
2.27500	-86
2.27867	-85
2.28233	-84
2.28600	-84
2.28967	-84
2.29333	-83
2.29700	-83
2.30067	-83
2.30433	-83
2.30800	-83
2.31167	-82
2.31533	-81
2.31900	-80
2.32267	-79
2.32633	-78
2.33000	-77
2.33367	-77
2.33733	-77
2.34100	-77
2.34467	-77
2.34833	-77
2.35200	-77
2.35567	-77
2.35933	-77
2.36300	-77
2.36667	-76
2.37033	-75
2.37400	-73
2.37767	-70
2.38133	-67
2.38500	-64
2.38867	-59
2.39233	-55
2.39600	-51
2.39967	-46
2.40333	-41
2.40700	-37
2.41067	-32
2.41433	-28
2.41800	-25
2.42167	-22
2.42533	-19
2.42900	-17
2.43267	-15
2.43633	-13
2.44000	-12
2.44367	-11
2.44733	-11
2.45100	-10
2.45467	-9
2.45833	-8
2.46200	-6
2.46567	-5
2.46933	-4
2.47300	-2
2.47667	-1
2.48033	-0
2.48400	0
2.48767	1
2.49133	2
2.49500	3
2.49867	3
2.50233	4
2.50600	5
2.50967	6
2.51333	7
2.51700	8
2.52067	8
2.52433	9
2.52800	10
2.53167	10
2.53533	11
2.53900	12
2.54267	12
2.54633	13
2.55000	14
2.55367	15
2.55733	15
2.56100	16
2.56467	16
2.56833	16
2.57200	16
2.57567	15
2.57933	14
2.58300	14
2.58667	13
2.59033	13
2.59400	13
2.59767	13
2.60133	14
2.60500	14
2.60867	15
2.61233	15
2.61600	15
2.61967	15
2.62333	14
2.62700	14
2.63067	14
2.63433	13
2.63800	13
2.64167	13
2.64533	13
2.64900	14
2.65267	15
2.65633	15
2.66000	16
2.66367	17
2.66733	18
2.67100	19
2.67467	20
2.67833	21
2.68200	21
2.68567	21
2.68933	20
2.69300	20
2.69667	20
2.70033	19
2.70400	19
2.70767	20
2.71133	20
2.71500	20
2.71867	21
2.72233	21
2.72600	22
2.72967	23
2.73333	23
2.73700	24
2.74067	25
2.74433	25
2.74800	26
2.75167	26
2.75533	26
2.75900	26
2.76267	27
2.76633	27
2.77000	27
2.77367	27
2.77733	27
2.78100	27
2.78467	27
2.78833	27
2.79200	27
2.79567	27
2.79933	27
2.80300	27
2.80667	27
2.81033	26
2.81400	25
2.81767	25
2.82133	24
2.82500	24
2.82867	23
2.83233	23
2.83600	22
2.83967	21
2.84333	19
2.84700	16
2.85067	10
2.85433	1
2.85800	-11
2.86167	-26
2.86533	-46
2.86900	-70
2.87267	-99
2.87633	-132
2.88000	-170
2.88367	-211
2.88733	-255
2.89100	-302
2.89467	-352
2.89833	-404
2.90200	-458
2.90567	-512
2.90933	-567
2.91300	-622
2.91667	-676
2.92033	-729
2.92400	-781
2.92767	-831
2.93133	-882
2.93500	-937
2.93867	-994
2.94233	-1045
2.94600	-1080
2.94967	-1091
2.95333	-1077
2.95700	-1039
2.96067	-982
2.96433	-913
2.96800	-836
2.97167	-756
2.97533	-676
2.97900	-600
2.98267	-528
2.98633	-461
2.99000	-401
2.99367	-346
2.99733	-298
3.00100	-256
3.00467	-218
3.00833	-186
3.01200	-158
3.01567	-133
3.01933	-112
3.02300	-94
3.02667	-79
3.03033	-66
3.03400	-55
3.03767	-45
3.04133	-37
3.04500	-29
3.04867	-23
3.05233	-18
3.05600	-13
3.05967	-9
3.06333	-6
3.06700	-3
3.07067	0
3.07433	2
3.07800	4
3.08167	6
3.08533	8
3.08900	9
3.09267	10
3.09633	11
3.10000	12
3.10367	13
3.10733	13
3.11100	14
3.11467	14
3.11833	14
3.12200	15
3.12567	15
3.12933	15
3.13300	15
3.13667	16
3.14033	16
3.14400	16
3.14767	16
3.15133	17
3.15500	17
3.15867	18
3.16233	18
3.16600	18
3.16967	18
3.17333	18
3.17700	18
3.18067	18
3.18433	18
3.18800	19
3.19167	19
3.19533	19
3.19900	19
3.20267	19
3.20633	19
3.21000	19
3.21367	19
3.21733	19
3.22100	19
3.22467	19
3.22833	20
3.23200	20
3.23567	20
3.23933	20
3.24300	21
3.24667	21
3.25033	21
3.25400	22
3.25767	22
3.26133	23
3.26500	23
3.26867	23
3.27233	24
3.27600	24
3.27967	24
3.28333	24
3.28700	24
3.29067	24
3.29433	25
3.29800	25
3.30167	25
3.30533	25
3.30900	25
3.31267	25
3.31633	25
3.32000	24
3.32367	24
3.32733	24
3.33100	24
3.33467	23
3.33833	24
3.34200	24
3.34567	24
3.34933	24
3.35300	24
3.35667	24
3.36033	25
3.36400	25
3.36767	25
3.37133	26
3.37500	26
3.37867	26
3.38233	26
3.38600	26
3.38967	26
3.39333	26
3.39700	26
3.40067	25
3.40433	25
3.40800	25
3.41167	26
3.41533	26
3.41900	26
3.42267	26
3.42633	26
3.43000	26
3.43367	26
3.43733	26
3.44100	26
3.44467	26
3.44833	26
3.45200	26
3.45567	26
3.45933	26
3.46300	26
3.46667	26
3.47033	26
3.47400	26
3.47767	26
3.48133	26
3.48500	26
3.48867	26
3.49233	26
3.49600	26
3.49967	27
3.50333	27
3.50700	27
3.51067	27
3.51433	27
3.51800	27
3.52167	27
3.52533	27
3.52900	26
3.53267	26
3.53633	26
3.54000	26
3.54367	26
3.54733	26
3.55100	26
3.55467	26
3.55833	26
3.56200	26
3.56567	26
3.56933	25
3.57300	25
3.57667	25
3.58033	25
3.58400	25
3.58767	24
3.59133	24
3.59500	24
3.59867	24
3.60233	24
3.60600	24
3.60967	24
3.61333	24
3.61700	24
3.62067	24
3.62433	24
3.62800	24
3.63167	24
3.63533	24
3.63900	25
3.64267	25
3.64633	25
3.65000	26
3.65367	26
3.65733	26
3.66100	26
3.66467	26
3.66833	26
3.67200	26
3.67567	26
3.67933	26
3.68300	26
3.68667	27
3.69033	27
3.69400	27
3.69767	28
3.70133	28
3.70500	28
3.70867	28
3.71233	28
3.71600	28
3.71967	28
3.72333	28
3.72700	28
3.73067	28
3.73433	29
3.73800	29
3.74167	29
3.74533	29
3.74900	29
3.75267	29
3.75633	29
3.76000	29
3.76367	29
3.76733	28
3.77100	28
3.77467	28
3.77833	28
3.78200	28
3.78567	28
3.78933	28
3.79300	28
3.79667	28
3.80033	28
3.80400	28
3.80767	27
3.81133	27
3.81500	27
3.81867	26
3.82233	26
3.82600	26
3.82967	26
3.83333	26
3.83700	25
3.84067	25
3.84433	25
3.84800	24
3.85167	24
3.85533	24
3.85900	24
3.86267	24
3.86633	24
3.87000	24
3.87367	24
3.87733	24
3.88100	25
3.88467	25
3.88833	25
3.89200	26
3.89567	26
3.89933	26
3.90300	26
3.90667	26
3.91033	26
3.91400	26
3.91767	26
3.92133	26
3.92500	26
3.92867	26
3.93233	26
3.93600	26
3.93967	26
3.94333	26
3.94700	27
3.95067	27
3.95433	27
3.95800	27
3.96167	27
3.96533	26
3.96900	26
3.97267	26
3.97633	26
3.98000	25
3.98367	25
3.98733	25
3.99100	25
3.99467	25
3.99833	25

[Chromatogram (Ch3)]
Interval(msec)	220
# of Points	1091
Start Time(min)	0.002
End Time(min)	3.998
R.Time (min)	Intensity
0.00167	-0
0.00533	-1
0.00900	-0
0.01267	2
0.01633	2
0.02000	1
0.02367	0
0.02733	2
0.03100	1
0.03467	-1
0.03833	-3
0.04200	-3
0.04567	-3
0.04933	-4
0.05300	-3
0.05667	-3
0.06033	-3
0.06400	-3
0.06767	-5
0.07133	-5
0.07500	-5
0.07867	-6
0.08233	-7
0.08600	-8
0.08967	-8
0.09333	-8
0.09700	-7
0.10067	-5
0.10433	-4
0.10800	-4
0.11167	-3
0.11533	-3
0.11900	-3
0.12267	-3
0.12633	-2
0.13000	-3
0.13367	-5
0.13733	-6
0.14100	-7
0.14467	-8
0.14833	-9
0.15200	-10
0.15567	-12
0.15933	-11
0.16300	-9
0.16667	-10
0.17033	-10
0.17400	-11
0.17767	-11
0.18133	-12
0.18500	-12
0.18867	-12
0.19233	-13
0.19600	-15
0.19967	-15
0.20333	-15
0.20700	-14
0.21067	-14
0.21433	-13
0.21800	-11
0.22167	-8
0.22533	-6
0.22900	-6
0.23267	-6
0.23633	-6
0.24000	-7
0.24367	-7
0.24733	-6
0.25100	-5
0.25467	-4
0.25833	-2
0.26200	-2
0.26567	0
0.26933	0
0.27300	-0
0.27667	-1
0.28033	-4
0.28400	-3
0.28767	-1
0.29133	-2
0.29500	0
0.29867	2
0.30233	1
0.30600	-1
0.30967	-0
0.31333	2
0.31700	4
0.32067	6
0.32433	6
0.32800	6
0.33167	7
0.33533	8
0.33900	8
0.34267	5
0.34633	3
0.35000	4
0.35367	6
0.35733	7
0.36100	5
0.36467	4
0.36833	4
0.37200	4
0.37567	5
0.37933	7
0.38300	8
0.38667	9
0.39033	8
0.39400	7
0.39767	4
0.40133	-1
0.40500	-5
0.40867	-6
0.41233	-3
0.41600	0
0.41967	3
0.42333	3
0.42700	4
0.43067	4
0.43433	5
0.43800	5
0.44167	5
0.44533	5
0.44900	5
0.45267	3
0.45633	1
0.46000	-1
0.46367	-2
0.46733	-2
0.47100	-2
0.47467	0
0.47833	3
0.48200	1
0.48567	-3
0.48933	-4
0.49300	-5
0.49667	-5
0.50033	-6
0.50400	-9
0.50767	-10
0.51133	-9
0.51500	-8
0.51867	-8
0.52233	-7
0.52600	-6
0.52967	-5
0.53333	-6
0.53700	-8
0.54067	-9
0.54433	-8
0.54800	-6
0.55167	-6
0.55533	-7
0.55900	-6
0.56267	-6
0.56633	-8
0.57000	-8
0.57367	-8
0.57733	-5
0.58100	-4
0.58467	-3
0.58833	-3
0.59200	-2
0.59567	-2
0.59933	-3
0.60300	-3
0.60667	-3
0.61033	-2
0.61400	-1
0.61767	-1
0.62133	0
0.62500	3
0.62867	3
0.63233	-0
0.63600	-2
0.63967	-2
0.64333	-2
0.64700	-1
0.65067	-2
0.65433	-2
0.65800	-1
0.66167	-1
0.66533	-1
0.66900	-1
0.67267	-0
0.67633	-1
0.68000	-1
0.68367	-2
0.68733	-3
0.69100	-3
0.69467	-3
0.69833	-4
0.70200	-2
0.70567	-1
0.70933	2
0.71300	4
0.71667	4
0.72033	3
0.72400	2
0.72767	-0
0.73133	-2
0.73500	-3
0.73867	-2
0.74233	-1
0.74600	1
0.74967	4
0.75333	4
0.75700	5
0.76067	6
0.76433	7
0.76800	4
0.77167	4
0.77533	1
0.77900	-1
0.78267	-1
0.78633	-3
0.79000	-5
0.79367	-8
0.79733	-11
0.80100	-11
0.80467	-9
0.80833	-7
0.81200	-4
0.81567	-1
0.81933	2
0.82300	2
0.82667	1
0.83033	-1
0.83400	-0
0.83767	2
0.84133	2
0.84500	1
0.84867	-1
0.85233	-3
0.85600	-3
0.85967	-3
0.86333	-5
0.86700	-8
0.87067	-6
0.87433	-3
0.87800	-4
0.88167	-6
0.88533	-8
0.88900	-8
0.89267	-6
0.89633	-5
0.90000	-4
0.90367	-2
0.90733	-1
0.91100	-1
0.91467	-1
0.91833	-1
0.92200	-3
0.92567	-4
0.92933	-5
0.93300	-4
0.93667	-2
0.94033	-1
0.94400	-2
0.94767	-3
0.95133	-4
0.95500	-4
0.95867	-4
0.96233	-2
0.96600	-3
0.96967	-3
0.97333	-5
0.97700	-5
0.98067	-3
0.98433	-2
0.98800	-3
0.99167	-3
0.99533	-3
0.99900	-3
1.00267	-4
1.00633	-5
1.01000	-7
1.01367	-6
1.01733	-3
1.02100	-0
1.02467	1
1.02833	1
1.03200	-0
1.03567	-1
1.03933	-2
1.04300	-4
1.04667	-3
1.05033	-2
1.05400	-4
1.05767	-5
1.06133	-3
1.06500	-3
1.06867	-1
1.07233	1
1.07600	2
1.07967	1
1.08333	-2
1.08700	-5
1.09067	-7
1.09433	-6
1.09800	-4
1.10167	-4
1.10533	-3
1.10900	-3
1.11267	-0
1.11633	2
1.12000	3
1.12367	1
1.12733	0
1.13100	-0
1.13467	-3
1.13833	-4
1.14200	-3
1.14567	-2
1.14933	-1
1.15300	-1
1.15667	-1
1.16033	-1
1.16400	-3
1.16767	-3
1.17133	-2
1.17500	-0
1.17867	2
1.18233	4
1.18600	7
1.18967	8
1.19333	5
1.19700	2
1.20067	4
1.20433	4
1.20800	4
1.21167	3
1.21533	-0
1.21900	-3
1.22267	-5
1.22633	-5
1.23000	-4
1.23367	-4
1.23733	-0
1.24100	2
1.24467	2
1.24833	1
1.25200	2
1.25567	4
1.25933	5
1.26300	5
1.26667	4
1.27033	2
1.27400	1
1.27767	1
1.28133	2
1.28500	2
1.28867	1
1.29233	1
1.29600	3
1.29967	3
1.30333	3
1.30700	2
1.31067	3
1.31433	4
1.31800	6
1.32167	6
1.32533	4
1.32900	4
1.33267	4
1.33633	3
1.34000	2
1.34367	2
1.34733	1
1.35100	2
1.35467	4
1.35833	3
1.36200	1
1.36567	1
1.36933	3
1.37300	3
1.37667	4
1.38033	4
1.38400	4
1.38767	4
1.39133	4
1.39500	5
1.39867	6
1.40233	7
1.40600	5
1.40967	4
1.41333	4
1.41700	3
1.42067	1
1.42433	1
1.42800	2
1.43167	5
1.43533	9
1.43900	9
1.44267	7
1.44633	5
1.45000	1
1.45367	-1
1.45733	-0
1.46100	1
1.46467	1
1.46833	1
1.47200	2
1.47567	5
1.47933	5
1.48300	5
1.48667	4
1.49033	4
1.49400	5
1.49767	6
1.50133	4
1.50500	3
1.50867	3
1.51233	1
1.51600	-1
1.51967	-1
1.52333	-3
1.52700	-1
1.53067	0
1.53433	2
1.53800	2
1.54167	2
1.54533	2
1.54900	3
1.55267	4
1.55633	4
1.56000	4
1.56367	4
1.56733	5
1.57100	4
1.57467	2
1.57833	0
1.58200	-2
1.58567	0
1.58933	1
1.59300	4
1.59667	5
1.60033	6
1.60400	9
1.60767	9
1.61133	6
1.61500	5
1.61867	5
1.62233	6
1.62600	7
1.62967	8
1.63333	9
1.63700	10
1.64067	10
1.64433	11
1.64800	11
1.65167	10
1.65533	10
1.65900	9
1.66267	11
1.66633	13
1.67000	15
1.67367	16
1.67733	15
1.68100	17
1.68467	20
1.68833	22
1.69200	23
1.69567	25
1.69933	27
1.70300	31
1.70667	33
1.71033	32
1.71400	30
1.71767	29
1.72133	26
1.72500	24
1.72867	22
1.73233	20
1.73600	18
1.73967	17
1.74333	18
1.74700	19
1.75067	21
1.75433	22
1.75800	22
1.76167	21
1.76533	19
1.76900	19
1.77267	20
1.77633	23
1.78000	24
1.78367	25
1.78733	24
1.79100	25
1.79467	26
1.79833	28
1.80200	30
1.80567	33
1.80933	32
1.81300	31
1.81667	32
1.82033	35
1.82400	36
1.82767	35
1.83133	34
1.83500	33
1.83867	32
1.84233	32
1.84600	32
1.84967	34
1.85333	36
1.85700	38
1.86067	40
1.86433	41
1.86800	39
1.87167	39
1.87533	39
1.87900	39
1.88267	39
1.88633	39
1.89000	42
1.89367	44
1.89733	44
1.90100	44
1.90467	43
1.90833	45
1.91200	49
1.91567	52
1.91933	52
1.92300	52
1.92667	52
1.93033	53
1.93400	55
1.93767	55
1.94133	55
1.94500	56
1.94867	56
1.95233	57
1.95600	56
1.95967	57
1.96333	58
1.96700	60
1.97067	62
1.97433	62
1.97800	62
1.98167	61
1.98533	61
1.98900	62
1.99267	64
1.99633	66
2.00000	67
2.00367	68
2.00733	68
2.01100	69
2.01467	71
2.01833	74
2.02200	75
2.02567	77
2.02933	77
2.03300	78
2.03667	79
2.04033	80
2.04400	81
2.04767	81
2.05133	83
2.05500	85
2.05867	87
2.06233	85
2.06600	84
2.06967	84
2.07333	87
2.07700	89
2.08067	89
2.08433	87
2.08800	88
2.09167	92
2.09533	94
2.09900	95
2.10267	98
2.10633	100
2.11000	99
2.11367	100
2.11733	100
2.12100	101
2.12467	105
2.12833	106
2.13200	109
2.13567	113
2.13933	115
2.14300	115
2.14667	117
2.15033	118
2.15400	118
2.15767	117
2.16133	118
2.16500	119
2.16867	121
2.17233	124
2.17600	127
2.17967	129
2.18333	129
2.18700	131
2.19067	133
2.19433	134
2.19800	139
2.20167	140
2.20533	140
2.20900	140
2.21267	140
2.21633	142
2.22000	142
2.22367	141
2.22733	142
2.23100	143
2.23467	145
2.23833	149
2.24200	153
2.24567	156
2.24933	156
2.25300	158
2.25667	162
2.26033	164
2.26400	168
2.26767	170
2.27133	168
2.27500	169
2.27867	172
2.28233	173
2.28600	173
2.28967	175
2.29333	179
2.29700	183
2.30067	185
2.30433	187
2.30800	188
2.31167	188
2.31533	191
2.31900	192
2.32267	193
2.32633	196
2.33000	200
2.33367	200
2.33733	201
2.34100	205
2.34467	208
2.34833	210
2.35200	211
2.35567	213
2.35933	213
2.36300	214
2.36667	215
2.37033	218
2.37400	222
2.37767	223
2.38133	223
2.38500	224
2.38867	224
2.39233	226
2.39600	231
2.39967	237
2.40333	243
2.40700	249
2.41067	254
2.41433	256
2.41800	257
2.42167	257
2.42533	259
2.42900	261
2.43267	263
2.43633	267
2.44000	274
2.44367	335
2.44733	479
2.45100	626
2.45467	749
2.45833	820
2.46200	825
2.46567	791
2.46933	753
2.47300	723
2.47667	709
2.48033	697
2.48400	677
2.48767	643
2.49133	602
2.49500	560
2.49867	525
2.50233	501
2.50600	486
2.50967	477
2.51333	476
2.51700	485
2.52067	501
2.52433	522
2.52800	542
2.53167	554
2.53533	554
2.53900	542
2.54267	524
2.54633	502
2.55000	476
2.55367	449
2.55733	424
2.56100	402
2.56467	385
2.56833	373
2.57200	368
2.57567	365
2.57933	366
2.58300	365
2.58667	362
2.59033	357
2.59400	352
2.59767	348
2.60133	341
2.60500	329
2.60867	313
2.61233	296
2.61600	279
2.61967	263
2.62333	250
2.62700	240
2.63067	235
2.63433	233
2.63800	234
2.64167	237
2.64533	238
2.64900	238
2.65267	236
2.65633	234
2.66000	231
2.66367	229
2.66733	227
2.67100	222
2.67467	213
2.67833	206
2.68200	200
2.68567	195
2.68933	191
2.69300	185
2.69667	179
2.70033	175
2.70400	174
2.70767	173
2.71133	174
2.71500	173
2.71867	173
2.72233	172
2.72600	172
2.72967	173
2.73333	177
2.73700	180
2.74067	181
2.74433	183
2.74800	185
2.75167	186
2.75533	188
2.75900	191
2.76267	193
2.76633	196
2.77000	198
2.77367	200
2.77733	201
2.78100	202
2.78467	203
2.78833	206
2.79200	209
2.79567	209
2.79933	207
2.80300	209
2.80667	212
2.81033	213
2.81400	217
2.81767	227
2.82133	240
2.82500	266
2.82867	321
2.83233	422
2.83600	594
2.83967	856
2.84333	1224
2.84700	1697
2.85067	2254
2.85433	2863
2.85800	3480
2.86167	4053
2.86533	4531
2.86900	4881
2.87267	5088
2.87633	5146
2.88000	5069
2.88367	4883
2.88733	4615
2.89100	4289
2.89467	3937
2.89833	3581
2.90200	3233
2.90567	2904
2.90933	2597
2.91300	2313
2.91667	2055
2.92033	1826
2.92400	1623
2.92767	1444
2.93133	1287
2.93500	1147
2.93867	1026
2.94233	922
2.94600	831
2.94967	751
2.95333	682
2.95700	620
2.96067	566
2.96433	520
2.96800	483
2.97167	453
2.97533	424
2.97900	397
2.98267	374
2.98633	352
2.99000	331
2.99367	314
2.99733	300
3.00100	287
3.00467	278
3.00833	269
3.01200	261
3.01567	254
3.01933	247
3.02300	241
3.02667	235
3.03033	229
3.03400	224
3.03767	220
3.04133	218
3.04500	216
3.04867	214
3.05233	209
3.05600	205
3.05967	202
3.06333	201
3.06700	200
3.07067	200
3.07433	198
3.07800	197
3.08167	196
3.08533	192
3.08900	190
3.09267	188
3.09633	189
3.10000	191
3.10367	193
3.10733	192
3.11100	190
3.11467	189
3.11833	187
3.12200	188
3.12567	190
3.12933	191
3.13300	191
3.13667	190
3.14033	189
3.14400	186
3.14767	186
3.15133	187
3.15500	186
3.15867	188
3.16233	190
3.16600	190
3.16967	191
3.17333	192
3.17700	190
3.18067	187
3.18433	183
3.18800	180
3.19167	179
3.19533	182
3.19900	191
3.20267	210
3.20633	238
3.21000	272
3.21367	308
3.21733	346
3.22100	381
3.22467	414
3.22833	444
3.23200	470
3.23567	492
3.23933	512
3.24300	531
3.24667	550
3.25033	563
3.25400	577
3.25767	588
3.26133	597
3.26500	608
3.26867	617
3.27233	623
3.27600	628
3.27967	633
3.28333	637
3.28700	642
3.29067	649
3.29433	656
3.29800	662
3.30167	668
3.30533	673
3.30900	679
3.31267	683
3.31633	686
3.32000	690
3.32367	694
3.32733	699
3.33100	704
3.33467	709
3.33833	712
3.34200	716
3.34567	720
3.34933	725
3.35300	728
3.35667	730
3.36033	732
3.36400	733
3.36767	734
3.37133	737
3.37500	740
3.37867	742
3.38233	743
3.38600	742
3.38967	742
3.39333	743
3.39700	745
3.40067	749
3.40433	752
3.40800	753
3.41167	754
3.41533	756
3.41900	754
3.42267	753
3.42633	752
3.43000	751
3.43367	749
3.43733	746
3.44100	745
3.44467	744
3.44833	743
3.45200	743
3.45567	743
3.45933	744
3.46300	743
3.46667	740
3.47033	736
3.47400	732
3.47767	730
3.48133	728
3.48500	726
3.48867	722
3.49233	718
3.49600	716
3.49967	717
3.50333	717
3.50700	715
3.51067	713
3.51433	712
3.51800	709
3.52167	705
3.52533	704
3.52900	703
3.53267	703
3.53633	703
3.54000	702
3.54367	703
3.54733	704
3.55100	703
3.55467	702
3.55833	699
3.56200	695
3.56567	692
3.56933	692
3.57300	694
3.57667	696
3.58033	697
3.58400	696
3.58767	697
3.59133	697
3.59500	694
3.59867	692
3.60233	693
3.60600	695
3.60967	696
3.61333	696
3.61700	697
3.62067	697
3.62433	696
3.62800	692
3.63167	688
3.63533	687
3.63900	688
3.64267	689
3.64633	689
3.65000	689
3.65367	689
3.65733	688
3.66100	688
3.66467	689
3.66833	688
3.67200	686
3.67567	687
3.67933	689
3.68300	692
3.68667	693
3.69033	694
3.69400	692
3.69767	689
3.70133	687
3.70500	687
3.70867	686
3.71233	684
3.71600	683
3.71967	682
3.72333	683
3.72700	685
3.73067	687
3.73433	686
3.73800	686
3.74167	686
3.74533	684
3.74900	683
3.75267	683
3.75633	684
3.76000	684
3.76367	684
3.76733	683
3.77100	684
3.77467	684
3.77833	683
3.78200	681
3.78567	677
3.78933	675
3.79300	675
3.79667	675
3.80033	674
3.80400	672
3.80767	672
3.81133	674
3.81500	675
3.81867	675
3.82233	673
3.82600	672
3.82967	670
3.83333	666
3.83700	665
3.84067	665
3.84433	664
3.84800	664
3.85167	663
3.85533	664
3.85900	663
3.86267	661
3.86633	659
3.87000	658
3.87367	657
3.87733	654
3.88100	649
3.88467	646
3.88833	646
3.89200	646
3.89567	645
3.89933	642
3.90300	640
3.90667	640
3.91033	638
3.91400	635
3.91767	633
3.92133	632
3.92500	632
3.92867	630
3.93233	626
3.93600	623
3.93967	622
3.94333	619
3.94700	617
3.95067	617
3.95433	616
3.95800	616
3.96167	617
3.96533	616
3.96900	614
3.97267	612
3.97633	612
3.98000	613
3.98367	613
3.98733	613
3.99100	611
3.99467	608
3.99833	603

[Status Trace (Column Oven Temperature)]
Interval(msec)	1000
# of Points	240
Start Time(min)	0.014
End Time(min)	3.998
Intensity Units	
Intensity Multiplier	1
R.Time (min)	Intensity
0.01417	35.02
0.03083	35.01
0.04750	35.00
0.06417	35.00
0.08083	35.02
0.09750	35.04
0.11417	35.05
0.13083	35.05
0.14750	35.04
0.16417	35.05
0.18083	35.05
0.19750	35.06
0.21417	35.05
0.23083	35.05
0.24750	35.04
0.26417	35.05
0.28083	35.05
0.29750	35.04
0.31417	35.03
0.33083	35.02
0.34750	35.03
0.36417	35.03
0.38083	35.01
0.39750	35.00
0.41417	35.00
0.43083	35.00
0.44750	34.99
0.46417	34.98
0.48083	34.97
0.49750	34.99
0.51417	34.99
0.53083	34.99
0.54750	34.98
0.56417	35.00
0.58083	35.00
0.59750	35.01
0.61417	35.02
0.63083	35.03
0.64750	35.03
0.66417	35.03
0.68083	35.03
0.69750	35.03
0.71417	35.01
0.73083	34.98
0.74750	34.97
0.76417	34.97
0.78083	34.96
0.79750	34.98
0.81417	34.98
0.83083	34.97
0.84750	34.96
0.86417	34.95
0.88083	34.94
0.89750	34.96
0.91417	34.98
0.93083	34.99
0.94750	35.00
0.96417	34.99
0.98083	34.98
0.99750	34.96
1.01417	34.96
1.03083	34.97
1.04750	34.99
1.06417	35.00
1.08083	35.01
1.09750	35.02
1.11417	35.02
1.13083	35.03
1.14750	35.01
1.16417	35.01
1.18083	35.00
1.19750	35.01
1.21417	35.01
1.23083	35.01
1.24750	35.01
1.26417	35.00
1.28083	35.00
1.29750	35.00
1.31417	34.98
1.33083	34.98
1.34750	34.98
1.36417	34.97
1.38083	34.97
1.39750	34.97
1.41417	34.98
1.43083	34.99
1.44750	34.99
1.46417	35.00
1.48083	35.00
1.49750	34.99
1.51417	34.99
1.53083	34.99
1.54750	35.00
1.56417	35.02
1.58083	35.02
1.59750	35.03
1.61417	35.11
1.63083	35.26
1.64750	35.47
1.66417	35.76
1.68083	36.12
1.69750	36.48
1.71417	36.83
1.73083	37.15
1.74750	37.44
1.76417	37.78
1.78083	38.11
1.79750	38.44
1.81417	38.79
1.83083	39.11
1.84750	39.44
1.86417	39.77
1.88083	40.11
1.89750	40.44
1.91417	40.77
1.93083	41.09
1.94750	41.42
1.96417	41.75
1.98083	42.06
1.99750	42.38
2.01417	42.72
2.03083	43.05
2.04750	43.37
2.06417	43.70
2.08083	44.02
2.09750	44.36
2.11417	44.67
2.13083	45.01
2.14750	45.34
2.16417	45.69
2.18083	46.00
2.19750	46.34
2.21417	46.66
2.23083	46.99
2.24750	47.31
2.26417	47.64
2.28083	47.97
2.29750	48.30
2.31417	48.63
2.33083	48.94
2.34750	49.26
2.36417	49.56
2.38083	49.72
2.39750	49.77
2.41417	49.76
2.43083	49.76
2.44750	49.77
2.46417	49.77
2.48083	49.78
2.49750	49.79
2.51417	49.80
2.53083	49.81
2.54750	49.80
2.56417	49.79
2.58083	49.83
2.59750	49.84
2.61417	49.85
2.63083	49.86
2.64750	49.86
2.66417	49.84
2.68083	49.85
2.69750	49.88
2.71417	49.89
2.73083	49.88
2.74750	49.87
2.76417	49.86
2.78083	49.85
2.79750	49.85
2.81417	49.88
2.83083	49.92
2.84750	49.95
2.86417	49.96
2.88083	49.96
2.89750	49.96
2.91417	49.95
2.93083	49.94
2.94750	49.94
2.96417	49.95
2.98083	49.96
2.99750	49.97
3.01417	49.98
3.03083	49.99
3.04750	50.00
3.06417	50.00
3.08083	50.01
3.09750	50.01
3.11417	50.02
3.13083	50.03
3.14750	50.03
3.16417	50.04
3.18083	50.06
3.19750	50.08
3.21417	50.09
3.23083	50.10
3.24750	50.10
3.26417	50.10
3.28083	50.09
3.29750	50.08
3.31417	50.09
3.33083	50.08
3.34750	50.09
3.36417	50.09
3.38083	50.09
3.39750	50.09
3.41417	50.08
3.43083	50.07
3.44750	50.07
3.46417	50.07
3.48083	50.07
3.49750	50.06
3.51417	50.06
3.53083	50.06
3.54750	50.06
3.56417	50.07
3.58083	50.08
3.59750	50.09
3.61417	50.11
3.63083	50.10
3.64750	50.10
3.66417	50.09
3.68083	50.07
3.69750	50.06
3.71417	50.04
3.73083	50.03
3.74750	50.01
3.76417	50.01
3.78083	50.00
3.79750	50.00
3.81417	50.00
3.83083	50.01
3.84750	50.03
3.86417	50.04
3.88083	50.04
3.89750	50.04
3.91417	50.04
3.93083	50.04
3.94750	50.04
3.96417	50.04
3.98083	50.05
3.99750	50.05

[Status Trace (Injection Unit Temperature)]
Interval(msec)	1000
# of Points	240
Start Time(min)	0.014
End Time(min)	3.998
Intensity Units	
Intensity Multiplier	1
R.Time (min)	Intensity
0.01417	99.98
0.03083	99.98
0.04750	99.98
0.06417	99.97
0.08083	99.98
0.09750	99.98
0.11417	99.98
0.13083	99.97
0.14750	99.97
0.16417	99.98
0.18083	99.98
0.19750	99.98
0.21417	99.98
0.23083	99.98
0.24750	99.98
0.26417	99.98
0.28083	99.98
0.29750	99.98
0.31417	99.98
0.33083	99.98
0.34750	99.98
0.36417	99.98
0.38083	99.98
0.39750	99.98
0.41417	99.98
0.43083	99.97
0.44750	99.98
0.46417	99.98
0.48083	99.98
0.49750	99.98
0.51417	99.98
0.53083	99.98
0.54750	99.98
0.56417	99.98
0.58083	99.98
0.59750	99.98
0.61417	99.98
0.63083	99.98
0.64750	99.98
0.66417	99.98
0.68083	99.97
0.69750	99.98
0.71417	99.98
0.73083	99.97
0.74750	99.98
0.76417	99.98
0.78083	99.97
0.79750	99.98
0.81417	99.98
0.83083	99.98
0.84750	99.97
0.86417	99.98
0.88083	99.98
0.89750	99.98
0.91417	99.98
0.93083	99.98
0.94750	99.98
0.96417	99.98
0.98083	99.98
0.99750	99.98
1.01417	99.98
1.03083	99.99
1.04750	99.98
1.06417	99.98
1.08083	99.98
1.09750	99.98
1.11417	99.98
1.13083	99.99
1.14750	99.98
1.16417	99.98
1.18083	99.98
1.19750	99.99
1.21417	99.99
1.23083	99.99
1.24750	99.99
1.26417	99.99
1.28083	99.99
1.29750	99.99
1.31417	99.99
1.33083	99.99
1.34750	99.99
1.36417	99.98
1.38083	99.99
1.39750	99.99
1.41417	99.98
1.43083	99.99
1.44750	99.98
1.46417	99.98
1.48083	99.99
1.49750	99.98
1.51417	99.98
1.53083	99.98
1.54750	99.98
1.56417	99.99
1.58083	99.99
1.59750	99.98
1.61417	99.98
1.63083	99.99
1.64750	99.98
1.66417	99.98
1.68083	99.99
1.69750	99.99
1.71417	99.98
1.73083	99.98
1.74750	99.98
1.76417	99.98
1.78083	99.98
1.79750	99.98
1.81417	99.98
1.83083	99.98
1.84750	99.98
1.86417	99.98
1.88083	99.98
1.89750	99.98
1.91417	99.98
1.93083	99.98
1.94750	99.98
1.96417	99.98
1.98083	99.97
1.99750	99.97
2.01417	99.97
2.03083	99.96
2.04750	99.97
2.06417	99.98
2.08083	99.97
2.09750	99.97
2.11417	99.97
2.13083	99.97
2.14750	99.96
2.16417	99.97
2.18083	99.97
2.19750	99.97
2.21417	99.97
2.23083	99.97
2.24750	99.96
2.26417	99.97
2.28083	99.97
2.29750	99.96
2.31417	99.96
2.33083	99.96
2.34750	99.96
2.36417	99.96
2.38083	99.96
2.39750	99.96
2.41417	99.96
2.43083	99.96
2.44750	99.96
2.46417	99.96
2.48083	99.96
2.49750	99.96
2.51417	99.96
2.53083	99.96
2.54750	99.96
2.56417	99.96
2.58083	99.97
2.59750	99.97
2.61417	99.97
2.63083	99.97
2.64750	99.97
2.66417	99.97
2.68083	99.97
2.69750	99.97
2.71417	99.97
2.73083	99.98
2.74750	99.98
2.76417	99.98
2.78083	99.98
2.79750	99.98
2.81417	99.98
2.83083	99.99
2.84750	99.99
2.86417	99.99
2.88083	99.99
2.89750	99.99
2.91417	100.00
2.93083	100.00
2.94750	100.00
2.96417	100.00
2.98083	100.00
2.99750	100.00
3.01417	100.01
3.03083	100.01
3.04750	100.01
3.06417	100.01
3.08083	100.01
3.09750	100.01
3.11417	100.01
3.13083	100.01
3.14750	100.02
3.16417	100.02
3.18083	100.02
3.19750	100.02
3.21417	100.02
3.23083	100.01
3.24750	100.03
3.26417	100.03
3.28083	100.03
3.29750	100.02
3.31417	100.03
3.33083	100.03
3.34750	100.03
3.36417	100.03
3.38083	100.04
3.39750	100.03
3.41417	100.03
3.43083	100.04
3.44750	100.04
3.46417	100.04
3.48083	100.04
3.49750	100.04
3.51417	100.04
3.53083	100.04
3.54750	100.04
3.56417	100.04
3.58083	100.05
3.59750	100.05
3.61417	100.05
3.63083	100.04
3.64750	100.05
3.66417	100.05
3.68083	100.05
3.69750	100.05
3.71417	100.04
3.73083	100.05
3.74750	100.05
3.76417	100.05
3.78083	100.05
3.79750	100.05
3.81417	100.05
3.83083	100.05
3.84750	100.05
3.86417	100.05
3.88083	100.05
3.89750	100.05
3.91417	100.05
3.93083	100.05
3.94750	100.05
3.96417	100.05
3.98083	100.05
3.99750	100.05

[Status Trace (Carrier Gas Pressure)]
Interval(msec)	1000
# of Points	240
Start Time(min)	0.014
End Time(min)	3.998
Intensity Units	
Intensity Multiplier	1
R.Time (min)	Intensity
0.01417	57.36
0.03083	55.40
0.04750	57.94
0.06417	59.85
0.08083	58.75
0.09750	57.98
0.11417	58.00
0.13083	58.01
0.14750	58.01
0.16417	58.00
0.18083	58.00
0.19750	58.00
0.21417	58.00
0.23083	58.00
0.24750	58.00
0.26417	58.00
0.28083	58.00
0.29750	58.00
0.31417	58.00
0.33083	58.00
0.34750	58.00
0.36417	58.00
0.38083	58.00
0.39750	58.00
0.41417	58.00
0.43083	58.00
0.44750	58.00
0.46417	58.00
0.48083	58.00
0.49750	58.00
0.51417	58.00
0.53083	58.00
0.54750	58.00
0.56417	58.00
0.58083	58.00
0.59750	58.00
0.61417	58.00
0.63083	58.00
0.64750	58.00
0.66417	58.00
0.68083	58.00
0.69750	58.00
0.71417	58.00
0.73083	58.00
0.74750	58.00
0.76417	58.00
0.78083	58.00
0.79750	58.00
0.81417	58.00
0.83083	58.00
0.84750	58.00
0.86417	58.00
0.88083	58.00
0.89750	58.00
0.91417	58.00
0.93083	58.00
0.94750	58.00
0.96417	58.00
0.98083	58.00
0.99750	58.00
1.01417	58.00
1.03083	58.00
1.04750	58.00
1.06417	58.00
1.08083	58.00
1.09750	58.00
1.11417	58.00
1.13083	58.00
1.14750	58.00
1.16417	58.00
1.18083	58.00
1.19750	58.00
1.21417	58.00
1.23083	58.00
1.24750	58.00
1.26417	58.00
1.28083	58.00
1.29750	58.00
1.31417	58.00
1.33083	58.00
1.34750	58.00
1.36417	58.00
1.38083	58.00
1.39750	58.00
1.41417	58.00
1.43083	58.00
1.44750	58.00
1.46417	58.00
1.48083	58.00
1.49750	58.00
1.51417	58.00
1.53083	58.00
1.54750	58.00
1.56417	58.00
1.58083	58.00
1.59750	58.00
1.61417	58.00
1.63083	58.01
1.64750	58.01
1.66417	58.00
1.68083	58.01
1.69750	58.00
1.71417	58.00
1.73083	58.00
1.74750	58.00
1.76417	58.00
1.78083	58.00
1.79750	58.00
1.81417	58.00
1.83083	58.00
1.84750	58.00
1.86417	58.00
1.88083	58.00
1.89750	58.00
1.91417	58.00
1.93083	58.00
1.94750	58.00
1.96417	58.00
1.98083	58.00
1.99750	58.00
2.01417	58.00
2.03083	58.00
2.04750	58.00
2.06417	58.00
2.08083	58.00
2.09750	58.00
2.11417	58.00
2.13083	58.00
2.14750	58.00
2.16417	58.00
2.18083	58.00
2.19750	58.00
2.21417	58.00
2.23083	58.00
2.24750	58.00
2.26417	58.00
2.28083	58.00
2.29750	58.00
2.31417	58.00
2.33083	58.00
2.34750	58.00
2.36417	58.00
2.38083	57.99
2.39750	57.99
2.41417	58.00
2.43083	58.00
2.44750	58.00
2.46417	58.00
2.48083	58.00
2.49750	58.00
2.51417	57.99
2.53083	57.99
2.54750	58.00
2.56417	58.00
2.58083	58.00
2.59750	58.00
2.61417	58.00
2.63083	58.00
2.64750	58.00
2.66417	58.00
2.68083	58.00
2.69750	58.00
2.71417	58.00
2.73083	58.00
2.74750	58.00
2.76417	58.00
2.78083	58.00
2.79750	58.00
2.81417	58.00
2.83083	58.00
2.84750	58.00
2.86417	58.00
2.88083	58.00
2.89750	58.00
2.91417	58.00
2.93083	58.00
2.94750	58.00
2.96417	58.00
2.98083	58.00
2.99750	58.00
3.01417	58.00
3.03083	58.00
3.04750	58.00
3.06417	58.00
3.08083	58.00
3.09750	58.00
3.11417	58.00
3.13083	58.00
3.14750	58.00
3.16417	58.00
3.18083	58.00
3.19750	58.00
3.21417	58.00
3.23083	58.00
3.24750	58.00
3.26417	58.00
3.28083	58.00
3.29750	58.00
3.31417	58.00
3.33083	58.00
3.34750	58.00
3.36417	58.00
3.38083	58.00
3.39750	58.00
3.41417	58.00
3.43083	58.00
3.44750	58.00
3.46417	58.00
3.48083	58.00
3.49750	58.00
3.51417	58.00
3.53083	58.00
3.54750	58.00
3.56417	58.00
3.58083	58.00
3.59750	58.00
3.61417	58.00
3.63083	58.00
3.64750	58.00
3.66417	58.00
3.68083	58.00
3.69750	58.00
3.71417	58.00
3.73083	58.00
3.74750	58.00
3.76417	58.00
3.78083	58.00
3.79750	58.00
3.81417	58.00
3.83083	58.00
3.84750	58.00
3.86417	58.00
3.88083	58.00
3.89750	58.00
3.91417	58.00
3.93083	58.00
3.94750	58.00
3.96417	58.00
3.98083	58.00
3.99750	58.00

[Status Trace (Carrier Gas Flow)]
Interval(msec)	1000
# of Points	240
Start Time(min)	0.014
End Time(min)	3.998
Intensity Units	
Intensity Multiplier	1
R.Time (min)	Intensity
0.01417	33.95
0.03083	34.54
0.04750	34.55
0.06417	34.51
0.08083	34.51
0.09750	34.52
0.11417	34.52
0.13083	34.52
0.14750	34.52
0.16417	34.52
0.18083	34.53
0.19750	34.52
0.21417	34.52
0.23083	34.52
0.24750	34.52
0.26417	34.53
0.28083	34.53
0.29750	34.52
0.31417	34.51
0.33083	34.52
0.34750	34.52
0.36417	34.53
0.38083	34.52
0.39750	34.52
0.41417	34.52
0.43083	34.52
0.44750	34.51
0.46417	34.51
0.48083	34.52
0.49750	34.51
0.51417	34.52
0.53083	34.52
0.54750	34.51
0.56417	34.52
0.58083	34.52
0.59750	34.52
0.61417	34.52
0.63083	34.51
0.64750	34.51
0.66417	34.52
0.68083	34.53
0.69750	34.51
0.71417	34.52
0.73083	34.51
0.74750	34.52
0.76417	34.53
0.78083	34.52
0.79750	34.52
0.81417	34.53
0.83083	34.52
0.84750	34.51
0.86417	34.52
0.88083	34.52
0.89750	34.51
0.91417	34.53
0.93083	34.51
0.94750	34.52
0.96417	34.52
0.98083	34.51
0.99750	34.52
1.01417	34.52
1.03083	34.52
1.04750	34.52
1.06417	34.52
1.08083	34.52
1.09750	34.52
1.11417	34.52
1.13083	34.52
1.14750	34.51
1.16417	34.52
1.18083	34.52
1.19750	34.52
1.21417	34.52
1.23083	34.52
1.24750	34.51
1.26417	34.52
1.28083	34.52
1.29750	34.52
1.31417	34.52
1.33083	34.52
1.34750	34.52
1.36417	34.52
1.38083	34.51
1.39750	34.52
1.41417	34.52
1.43083	34.52
1.44750	34.52
1.46417	34.51
1.48083	34.52
1.49750	34.52
1.51417	34.51
1.53083	34.52
1.54750	34.52
1.56417	34.52
1.58083	34.52
1.59750	34.52
1.61417	34.52
1.63083	34.52
1.64750	34.52
1.66417	34.51
1.68083	34.52
1.69750	34.52
1.71417	34.52
1.73083	34.52
1.74750	34.52
1.76417	34.52
1.78083	34.51
1.79750	34.52
1.81417	34.52
1.83083	34.52
1.84750	34.52
1.86417	34.52
1.88083	34.52
1.89750	34.52
1.91417	34.52
1.93083	34.52
1.94750	34.52
1.96417	34.52
1.98083	34.52
1.99750	34.52
2.01417	34.52
2.03083	34.52
2.04750	34.52
2.06417	34.52
2.08083	34.52
2.09750	34.52
2.11417	34.52
2.13083	34.52
2.14750	34.52
2.16417	34.52
2.18083	34.51
2.19750	34.52
2.21417	34.51
2.23083	34.52
2.24750	34.51
2.26417	34.52
2.28083	34.52
2.29750	34.52
2.31417	34.51
2.33083	34.52
2.34750	34.52
2.36417	34.52
2.38083	34.52
2.39750	34.52
2.41417	34.52
2.43083	34.51
2.44750	34.52
2.46417	34.52
2.48083	34.52
2.49750	34.52
2.51417	34.52
2.53083	34.52
2.54750	34.53
2.56417	34.52
2.58083	34.51
2.59750	34.52
2.61417	34.52
2.63083	34.52
2.64750	34.52
2.66417	34.52
2.68083	34.52
2.69750	34.52
2.71417	34.52
2.73083	34.52
2.74750	34.52
2.76417	34.52
2.78083	34.52
2.79750	34.52
2.81417	34.52
2.83083	34.52
2.84750	34.52
2.86417	34.52
2.88083	34.52
2.89750	34.52
2.91417	34.52
2.93083	34.52
2.94750	34.52
2.96417	34.52
2.98083	34.52
2.99750	34.52
3.01417	34.52
3.03083	34.51
3.04750	34.52
3.06417	34.51
3.08083	34.52
3.09750	34.52
3.11417	34.52
3.13083	34.52
3.14750	34.52
3.16417	34.52
3.18083	34.52
3.19750	34.52
3.21417	34.52
3.23083	34.52
3.24750	34.52
3.26417	34.52
3.28083	34.52
3.29750	34.52
3.31417	34.51
3.33083	34.52
3.34750	34.52
3.36417	34.52
3.38083	34.52
3.39750	34.52
3.41417	34.52
3.43083	34.51
3.44750	34.51
3.46417	34.52
3.48083	34.52
3.49750	34.52
3.51417	34.52
3.53083	34.52
3.54750	34.52
3.56417	34.52
3.58083	34.52
3.59750	34.52
3.61417	34.52
3.63083	34.52
3.64750	34.52
3.66417	34.52
3.68083	34.52
3.69750	34.52
3.71417	34.52
3.73083	34.52
3.74750	34.52
3.76417	34.52
3.78083	34.52
3.79750	34.52
3.81417	34.52
3.83083	34.52
3.84750	34.52
3.86417	34.52
3.88083	34.52
3.89750	34.52
3.91417	34.52
3.93083	34.52
3.94750	34.52
3.96417	34.52
3.98083	34.52
3.99750	34.53

[Status Trace (Column Flow)]
Interval(msec)	1000
# of Points	240
Start Time(min)	0.014
End Time(min)	3.998
Intensity Units	
Intensity Multiplier	1
R.Time (min)	Intensity
0.01417	5.45
0.03083	5.22
0.04750	5.52
0.06417	5.74
0.08083	5.61
0.09750	5.52
0.11417	5.52
0.13083	5.52
0.14750	5.52
0.16417	5.52
0.18083	5.52
0.19750	5.52
0.21417	5.52
0.23083	5.52
0.24750	5.52
0.26417	5.52
0.28083	5.52
0.29750	5.52
0.31417	5.52
0.33083	5.52
0.34750	5.52
0.36417	5.52
0.38083	5.52
0.39750	5.52
0.41417	5.52
0.43083	5.52
0.44750	5.52
0.46417	5.52
0.48083	5.52
0.49750	5.52
0.51417	5.52
0.53083	5.52
0.54750	5.52
0.56417	5.52
0.58083	5.52
0.59750	5.52
0.61417	5.52
0.63083	5.52
0.64750	5.52
0.66417	5.52
0.68083	5.52
0.69750	5.52
0.71417	5.52
0.73083	5.52
0.74750	5.52
0.76417	5.52
0.78083	5.52
0.79750	5.52
0.81417	5.52
0.83083	5.52
0.84750	5.52
0.86417	5.52
0.88083	5.52
0.89750	5.52
0.91417	5.52
0.93083	5.52
0.94750	5.52
0.96417	5.52
0.98083	5.52
0.99750	5.52
1.01417	5.52
1.03083	5.52
1.04750	5.52
1.06417	5.52
1.08083	5.52
1.09750	5.52
1.11417	5.52
1.13083	5.52
1.14750	5.52
1.16417	5.52
1.18083	5.52
1.19750	5.52
1.21417	5.52
1.23083	5.52
1.24750	5.52
1.26417	5.52
1.28083	5.52
1.29750	5.52
1.31417	5.52
1.33083	5.52
1.34750	5.52
1.36417	5.52
1.38083	5.52
1.39750	5.52
1.41417	5.52
1.43083	5.52
1.44750	5.52
1.46417	5.52
1.48083	5.52
1.49750	5.52
1.51417	5.52
1.53083	5.52
1.54750	5.52
1.56417	5.52
1.58083	5.52
1.59750	5.52
1.61417	5.52
1.63083	5.52
1.64750	5.51
1.66417	5.50
1.68083	5.49
1.69750	5.48
1.71417	5.47
1.73083	5.46
1.74750	5.45
1.76417	5.44
1.78083	5.43
1.79750	5.42
1.81417	5.41
1.83083	5.40
1.84750	5.39
1.86417	5.38
1.88083	5.37
1.89750	5.36
1.91417	5.35
1.93083	5.34
1.94750	5.33
1.96417	5.32
1.98083	5.31
1.99750	5.30
2.01417	5.29
2.03083	5.28
2.04750	5.27
2.06417	5.26
2.08083	5.25
2.09750	5.24
2.11417	5.23
2.13083	5.22
2.14750	5.21
2.16417	5.20
2.18083	5.19
2.19750	5.18
2.21417	5.17
2.23083	5.17
2.24750	5.16
2.26417	5.15
2.28083	5.14
2.29750	5.13
2.31417	5.12
2.33083	5.11
2.34750	5.10
2.36417	5.09
2.38083	5.09
2.39750	5.09
2.41417	5.09
2.43083	5.09
2.44750	5.09
2.46417	5.09
2.48083	5.09
2.49750	5.09
2.51417	5.08
2.53083	5.08
2.54750	5.09
2.56417	5.09
2.58083	5.08
2.59750	5.08
2.61417	5.08
2.63083	5.08
2.64750	5.08
2.66417	5.08
2.68083	5.08
2.69750	5.08
2.71417	5.08
2.73083	5.08
2.74750	5.08
2.76417	5.08
2.78083	5.08
2.79750	5.08
2.81417	5.08
2.83083	5.08
2.84750	5.08
2.86417	5.08
2.88083	5.08
2.89750	5.08
2.91417	5.08
2.93083	5.08
2.94750	5.08
2.96417	5.08
2.98083	5.08
2.99750	5.08
3.01417	5.08
3.03083	5.08
3.04750	5.08
3.06417	5.08
3.08083	5.08
3.09750	5.08
3.11417	5.08
3.13083	5.08
3.14750	5.08
3.16417	5.08
3.18083	5.08
3.19750	5.08
3.21417	5.08
3.23083	5.08
3.24750	5.08
3.26417	5.08
3.28083	5.08
3.29750	5.08
3.31417	5.08
3.33083	5.08
3.34750	5.08
3.36417	5.08
3.38083	5.08
3.39750	5.08
3.41417	5.08
3.43083	5.08
3.44750	5.08
3.46417	5.08
3.48083	5.08
3.49750	5.08
3.51417	5.08
3.53083	5.08
3.54750	5.08
3.56417	5.08
3.58083	5.08
3.59750	5.08
3.61417	5.08
3.63083	5.08
3.64750	5.08
3.66417	5.08
3.68083	5.08
3.69750	5.08
3.71417	5.08
3.73083	5.08
3.74750	5.08
3.76417	5.08
3.78083	5.08
3.79750	5.08
3.81417	5.08
3.83083	5.08
3.84750	5.08
3.86417	5.08
3.88083	5.08
3.89750	5.08
3.91417	5.08
3.93083	5.08
3.94750	5.08
3.96417	5.08
3.98083	5.08
3.99750	5.08

[Status Trace (Linear Velocity)]
Interval(msec)	1000
# of Points	240
Start Time(min)	0.014
End Time(min)	3.998
Intensity Units	
Intensity Multiplier	1
R.Time (min)	Intensity
0.01417	38.59
0.03083	37.31
0.04750	38.98
0.06417	40.23
0.08083	39.50
0.09750	39.00
0.11417	39.01
0.13083	39.02
0.14750	39.02
0.16417	39.02
0.18083	39.01
0.19750	39.01
0.21417	39.01
0.23083	39.01
0.24750	39.01
0.26417	39.01
0.28083	39.01
0.29750	39.01
0.31417	39.02
0.33083	39.02
0.34750	39.01
0.36417	39.01
0.38083	39.02
0.39750	39.02
0.41417	39.02
0.43083	39.02
0.44750	39.02
0.46417	39.02
0.48083	39.02
0.49750	39.02
0.51417	39.02
0.53083	39.02
0.54750	39.02
0.56417	39.02
0.58083	39.02
0.59750	39.02
0.61417	39.02
0.63083	39.01
0.64750	39.01
0.66417	39.01
0.68083	39.01
0.69750	39.01
0.71417	39.02
0.73083	39.02
0.74750	39.02
0.76417	39.02
0.78083	39.02
0.79750	39.02
0.81417	39.02
0.83083	39.02
0.84750	39.02
0.86417	39.02
0.88083	39.02
0.89750	39.02
0.91417	39.02
0.93083	39.02
0.94750	39.02
0.96417	39.02
0.98083	39.02
0.99750	39.02
1.01417	39.02
1.03083	39.02
1.04750	39.02
1.06417	39.02
1.08083	39.02
1.09750	39.02
1.11417	39.01
1.13083	39.01
1.14750	39.02
1.16417	39.02
1.18083	39.02
1.19750	39.02
1.21417	39.02
1.23083	39.02
1.24750	39.02
1.26417	39.02
1.28083	39.02
1.29750	39.02
1.31417	39.02
1.33083	39.02
1.34750	39.02
1.36417	39.02
1.38083	39.02
1.39750	39.02
1.41417	39.02
1.43083	39.02
1.44750	39.02
1.46417	39.02
1.48083	39.02
1.49750	39.02
1.51417	39.02
1.53083	39.02
1.54750	39.02
1.56417	39.02
1.58083	39.01
1.59750	39.01
1.61417	39.01
1.63083	39.00
1.64750	38.98
1.66417	38.95
1.68083	38.92
1.69750	38.88
1.71417	38.84
1.73083	38.81
1.74750	38.78
1.76417	38.75
1.78083	38.72
1.79750	38.69
1.81417	38.66
1.83083	38.63
1.84750	38.59
1.86417	38.56
1.88083	38.54
1.89750	38.50
1.91417	38.47
1.93083	38.44
1.94750	38.41
1.96417	38.38
1.98083	38.35
1.99750	38.32
2.01417	38.29
2.03083	38.26
2.04750	38.23
2.06417	38.20
2.08083	38.17
2.09750	38.14
2.11417	38.11
2.13083	38.08
2.14750	38.05
2.16417	38.02
2.18083	37.99
2.19750	37.96
2.21417	37.93
2.23083	37.90
2.24750	37.87
2.26417	37.84
2.28083	37.82
2.29750	37.78
2.31417	37.75
2.33083	37.73
2.34750	37.70
2.36417	37.67
2.38083	37.65
2.39750	37.65
2.41417	37.65
2.43083	37.65
2.44750	37.65
2.46417	37.65
2.48083	37.65
2.49750	37.65
2.51417	37.65
2.53083	37.64
2.54750	37.65
2.56417	37.65
2.58083	37.65
2.59750	37.65
2.61417	37.65
2.63083	37.65
2.64750	37.64
2.66417	37.65
2.68083	37.65
2.69750	37.64
2.71417	37.64
2.73083	37.64
2.74750	37.64
2.76417	37.65
2.78083	37.65
2.79750	37.65
2.81417	37.65
2.83083	37.64
2.84750	37.64
2.86417	37.64
2.88083	37.64
2.89750	37.64
2.91417	37.64
2.93083	37.64
2.94750	37.64
2.96417	37.64
2.98083	37.64
2.99750	37.64
3.01417	37.63
3.03083	37.63
3.04750	37.63
3.06417	37.63
3.08083	37.63
3.09750	37.63
3.11417	37.63
3.13083	37.63
3.14750	37.63
3.16417	37.63
3.18083	37.63
3.19750	37.63
3.21417	37.62
3.23083	37.62
3.24750	37.62
3.26417	37.62
3.28083	37.62
3.29750	37.63
3.31417	37.63
3.33083	37.63
3.34750	37.63
3.36417	37.62
3.38083	37.62
3.39750	37.63
3.41417	37.63
3.43083	37.63
3.44750	37.63
3.46417	37.63
3.48083	37.63
3.49750	37.63
3.51417	37.63
3.53083	37.63
3.54750	37.63
3.56417	37.63
3.58083	37.63
3.59750	37.62
3.61417	37.62
3.63083	37.62
3.64750	37.62
3.66417	37.63
3.68083	37.63
3.69750	37.63
3.71417	37.63
3.73083	37.63
3.74750	37.63
3.76417	37.63
3.78083	37.63
3.79750	37.63
3.81417	37.63
3.83083	37.63
3.84750	37.63
3.86417	37.63
3.88083	37.63
3.89750	37.63
3.91417	37.63
3.93083	37.63
3.94750	37.63
3.96417	37.63
3.98083	37.63
3.99750	37.63

