[Header]
Application Name	LabSolutions
Version	5.110
Data File Name	C:\Users\User\Desktop\GC Analyses\Jack\Nachusa Grasslands Sampling\T2 Timepoint July 12th\T2_07122022_013.gcd
Output Date	3/14/2023
Output Time	3:42:30 PM

[File Information]
Type	Data File
Generated	3/10/2023 1:44:23 PM
Generated by	System Administrator
Modified	3/10/2023 1:51:13 PM
Modified by	System Administrator

[Sample Information]
Operator Name	System Administrator
Acquired	3/10/2023 1:47:13 PM
Sample Type	0:Unknown
Level	0
Sample Name	013
Sample ID	013
ISTD Amount1	1
ISTD Amount2	1
ISTD Amount3	1
ISTD Amount4	1
ISTD Amount5	1
ISTD Amount6	1
ISTD Amount7	1
ISTD Amount8	1
ISTD Amount9	1
ISTD Amount10	1
ISTD Amount11	1
ISTD Amount12	1
ISTD Amount13	1
ISTD Amount14	1
ISTD Amount15	1
ISTD Amount16	1
ISTD Amount17	1
ISTD Amount18	1
ISTD Amount19	1
ISTD Amount20	1
ISTD Amount21	1
ISTD Amount22	1
ISTD Amount23	1
ISTD Amount24	1
ISTD Amount25	1
ISTD Amount26	1
ISTD Amount27	1
ISTD Amount28	1
ISTD Amount29	1
ISTD Amount30	1
ISTD Amount31	1
ISTD Amount32	1
Sample Amount	1
Dilution Factor	1
Vial#	12
Injection Volume	1
Injection Count	1
Bar Code	

[Original Files]
Data File	C:\Users\User\Desktop\GC Analyses\Jack\Nachusa Grasslands Sampling\T1 Timepoint July 12th\T2_07122022_013.gcd
Method File	C:\LabSolutions\Data\GHG_4min_2022\ghg3_togas_w_acet_4 min_new_int.gcm
Batch File	C:\LabSolutions\Data\AutoSamplerTesting\T2_07122022.gcb
Report Format File	c:\LabSolutions\System\DEFAULT.lsr

[File Description]


[Configuration]
Instrument Name	C0B7VH3-Instrument1
Instrument #	1
Line #	1
# of Detectors	3
Detector ID	DET#1	DET#2	DET#3
Detector Name	FID	PTCD	ECD
# of Channels	1	1	1

[Peak Table(Ch1)]
# of Peaks	3
Peak#	R.Time	I.Time	F.Time	Area	Height	A/H	Conc.	Mark	ID#	Name	k'	Plate #	Plate Ht.	Tailing	Resolution	Sep.Factor	Area Ratio	Height Ratio	Conc. %	Norm Conc.
1	1.476	1.435	1.538	44821	21729	2.063	316.435	   	1	CO	0.000	9593	15.637	1.280	0.000	0.000	0	0	35.267	35.267
2	1.567	1.538	1.619	4723	2271	2.079	91.321	 V 	2	CH4	0.062	9717	15.437	0.000	1.480	0.000	0	0	10.178	10.178
3	1.996	1.941	2.477	1950422	935992	2.084	489.503	   	3	CO2	0.353	17527	8.558	1.241	6.924	5.680	0	0	54.555	54.555

[Peak Table(Ch2)]
# of Peaks	0

[Peak Table(Ch3)]
# of Peaks	4
Peak#	R.Time	I.Time	F.Time	Area	Height	A/H	Conc.	Mark	ID#	Name	k'	Plate #	Plate Ht.	Tailing	Resolution	Sep.Factor	Area Ratio	Height Ratio	Conc. %	Norm Conc.
1	2.462	2.429	2.513	1482	505	2.935	0.000	   			0.000	9365	16.018	0.000	0.000	0.000	0	0	0.000	0.000
2	2.535	2.513	2.631	1196	289	4.140	0.000	 V 			0.030	4028	37.236	0.000	0.561	0.000	0	0	0.000	0.000
3	2.876	2.810	3.071	18727	4953	3.781	0.478	   	1	N2O	0.168	13389	11.204	1.646	2.631	5.650	0	0	100.000	100.000
4	3.254	3.078	3.984	11980	363	32.995	0.000	   	2	SF6	0.322	224	669.743	2.537	0.779	1.912	0	0	0.000	0.000

[Compound Results(Ch1)]
# of IDs	6
ID#	Name	R.Time	Area	Height	Conc.	Curve	3rd	2nd	1st	Constant	Area Ratio	Height Ratio	Conc. %	Norm Conc.
1	CO	1.476	44821	21729	316.435	Linear	0.000000e+00	0.000000e+00	1.416423e+002	0.000000e+00	0	0	35.267	35.267
2	CH4	1.567	4723	2271	91.321	Linear	0.000000e+00	0.000000e+00	5.171738e+001	0.000000e+00	0	0	10.178	10.178
3	CO2	1.996	1950422	935992	489.503	Linear	0.000000e+00	0.000000e+00	3.984494e+003	0.000000e+00	0	0	54.555	54.555
4	Ethylene	0.000	0	0	0.000	Linear	0.000000e+00	0.000000e+00	0.000000e+00	0.000000e+00	0	0	0.000	0.000
5	Acetylene	0.000	0	0	0.000	Linear	0.000000e+00	0.000000e+00	0.000000e+00	0.000000e+00	0	0	0.000	0.000
6	Ethane	0.000	0	0	0.000	Linear	0.000000e+00	0.000000e+00	0.000000e+00	0.000000e+00	0	0	0.000	0.000

[Compound Results(Ch2)]
# of IDs	5
ID#	Name	R.Time	Area	Height	Conc.	Curve	3rd	2nd	1st	Constant	Area Ratio	Height Ratio	Conc. %	Norm Conc.
1	Hydrogen	0.000	0	0	0.000	Linear	0.000000e+00	0.000000e+00	0.000000e+00	0.000000e+00	0	0	0.000	0.000
2	Oxygen	0.000	0	0	0.000	Linear	0.000000e+00	0.000000e+00	0.000000e+00	0.000000e+00	0	0	0.000	0.000
3	Nitrogen	0.000	0	0	0.000	Linear	0.000000e+00	0.000000e+00	0.000000e+00	0.000000e+00	0	0	0.000	0.000
4	Methane	0.000	0	0	0.000	Linear	0.000000e+00	0.000000e+00	0.000000e+00	0.000000e+00	0	0	0.000	0.000
5	Carbon Monoxide	0.000	0	0	0.000	Linear	0.000000e+00	0.000000e+00	0.000000e+00	0.000000e+00	0	0	0.000	0.000

[Compound Results(Ch3)]
# of IDs	2
ID#	Name	R.Time	Area	Height	Conc.	Curve	3rd	2nd	1st	Constant	Area Ratio	Height Ratio	Conc. %	Norm Conc.
1	N2O	2.876	18727	4953	0.478	Linear	0.000000e+00	0.000000e+00	3.915173e+004	0.000000e+00	0	0	100.000	100.000
2	SF6	3.254	11980	363	0.000	Linear	0.000000e+00	0.000000e+00	0.000000e+00	0.000000e+00	0	0	0.000	0.000

[Group Results(Ch1)]
# of Groups	0

[Group Results(Ch2)]
# of Groups	0

[Group Results(Ch3)]
# of Groups	0

[Chromatogram (Ch1)]
Interval(msec)	220
# of Points	1091
Start Time(min)	0.002
End Time(min)	3.998
R.Time (min)	Intensity
0.00167	-6
0.00533	-13
0.00900	-17
0.01267	-18
0.01633	-19
0.02000	-20
0.02367	-20
0.02733	-18
0.03100	-15
0.03467	-9
0.03833	-2
0.04200	7
0.04567	11
0.04933	13
0.05300	12
0.05667	8
0.06033	-0
0.06400	-5
0.06767	-6
0.07133	-2
0.07500	4
0.07867	10
0.08233	17
0.08600	21
0.08967	18
0.09333	12
0.09700	6
0.10067	3
0.10433	4
0.10800	8
0.11167	11
0.11533	14
0.11900	16
0.12267	21
0.12633	29
0.13000	42
0.13367	55
0.13733	63
0.14100	61
0.14467	50
0.14833	40
0.15200	33
0.15567	29
0.15933	25
0.16300	21
0.16667	15
0.17033	7
0.17400	-2
0.17767	-10
0.18133	-19
0.18500	-25
0.18867	-28
0.19233	-33
0.19600	-36
0.19967	-35
0.20333	-29
0.20700	-19
0.21067	-7
0.21433	6
0.21800	17
0.22167	24
0.22533	24
0.22900	20
0.23267	14
0.23633	7
0.24000	-1
0.24367	-7
0.24733	-7
0.25100	-0
0.25467	1
0.25833	0
0.26200	1
0.26567	-2
0.26933	-11
0.27300	-19
0.27667	-21
0.28033	-18
0.28400	-9
0.28767	-1
0.29133	2
0.29500	2
0.29867	-0
0.30233	-5
0.30600	-15
0.30967	-27
0.31333	-35
0.31700	-35
0.32067	-31
0.32433	-24
0.32800	-16
0.33167	-10
0.33533	-8
0.33900	-8
0.34267	-9
0.34633	-7
0.35000	-3
0.35367	2
0.35733	7
0.36100	9
0.36467	9
0.36833	3
0.37200	-6
0.37567	-11
0.37933	-16
0.38300	-17
0.38667	-15
0.39033	-13
0.39400	-18
0.39767	-25
0.40133	-27
0.40500	-23
0.40867	-17
0.41233	-10
0.41600	1
0.41967	13
0.42333	20
0.42700	21
0.43067	11
0.43433	-5
0.43800	-19
0.44167	-29
0.44533	-32
0.44900	-29
0.45267	-24
0.45633	-15
0.46000	-7
0.46367	-9
0.46733	-13
0.47100	-14
0.47467	-15
0.47833	-18
0.48200	-21
0.48567	-27
0.48933	-37
0.49300	-46
0.49667	-47
0.50033	-40
0.50400	-31
0.50767	-22
0.51133	-14
0.51500	-8
0.51867	-8
0.52233	-10
0.52600	-15
0.52967	-19
0.53333	-20
0.53700	-17
0.54067	-14
0.54433	-11
0.54800	-10
0.55167	-12
0.55533	-15
0.55900	-19
0.56267	-23
0.56633	-26
0.57000	-32
0.57367	-33
0.57733	-29
0.58100	-24
0.58467	-23
0.58833	-25
0.59200	-25
0.59567	-21
0.59933	-17
0.60300	-18
0.60667	-19
0.61033	-22
0.61400	-26
0.61767	-30
0.62133	-27
0.62500	-18
0.62867	-9
0.63233	-5
0.63600	-6
0.63967	-11
0.64333	-18
0.64700	-26
0.65067	-35
0.65433	-39
0.65800	-37
0.66167	-31
0.66533	-27
0.66900	-23
0.67267	-15
0.67633	-9
0.68000	-7
0.68367	-9
0.68733	-13
0.69100	-17
0.69467	-25
0.69833	-30
0.70200	-32
0.70567	-34
0.70933	-35
0.71300	-41
0.71667	-45
0.72033	-45
0.72400	-40
0.72767	-38
0.73133	-38
0.73500	-40
0.73867	-40
0.74233	-36
0.74600	-26
0.74967	-15
0.75333	-7
0.75700	-6
0.76067	-4
0.76433	-3
0.76800	-8
0.77167	-17
0.77533	-22
0.77900	-23
0.78267	-23
0.78633	-27
0.79000	-31
0.79367	-36
0.79733	-42
0.80100	-47
0.80467	-51
0.80833	-48
0.81200	-42
0.81567	-34
0.81933	-26
0.82300	-19
0.82667	-15
0.83033	-14
0.83400	-15
0.83767	-24
0.84133	-35
0.84500	-42
0.84867	-42
0.85233	-38
0.85600	-34
0.85967	-35
0.86333	-36
0.86700	-35
0.87067	-26
0.87433	-14
0.87800	-9
0.88167	-11
0.88533	-19
0.88900	-31
0.89267	-41
0.89633	-41
0.90000	-39
0.90367	-37
0.90733	-33
0.91100	-31
0.91467	-32
0.91833	-37
0.92200	-43
0.92567	-50
0.92933	-58
0.93300	-64
0.93667	-61
0.94033	-53
0.94400	-50
0.94767	-52
0.95133	-54
0.95500	-53
0.95867	-47
0.96233	-41
0.96600	-38
0.96967	-37
0.97333	-39
0.97700	-45
0.98067	-52
0.98433	-58
0.98800	-56
0.99167	-47
0.99533	-38
0.99900	-32
1.00267	-30
1.00633	-32
1.01000	-34
1.01367	-38
1.01733	-47
1.02100	-56
1.02467	-60
1.02833	-58
1.03200	-53
1.03567	-47
1.03933	-45
1.04300	-46
1.04667	-52
1.05033	-63
1.05400	-72
1.05767	-77
1.06133	-75
1.06500	-73
1.06867	-71
1.07233	-67
1.07600	-59
1.07967	-52
1.08333	-50
1.08700	-51
1.09067	-52
1.09433	-49
1.09800	-44
1.10167	-41
1.10533	-39
1.10900	-37
1.11267	-33
1.11633	-33
1.12000	-38
1.12367	-45
1.12733	-52
1.13100	-58
1.13467	-64
1.13833	-68
1.14200	-72
1.14567	-71
1.14933	-66
1.15300	-60
1.15667	-59
1.16033	-58
1.16400	-56
1.16767	-57
1.17133	-57
1.17500	-57
1.17867	-59
1.18233	-63
1.18600	-67
1.18967	-67
1.19333	-71
1.19700	-73
1.20067	-71
1.20433	-67
1.20800	-63
1.21167	-58
1.21533	-52
1.21900	-47
1.22267	-47
1.22633	-58
1.23000	-72
1.23367	-82
1.23733	-85
1.24100	-84
1.24467	-85
1.24833	-82
1.25200	-78
1.25567	-78
1.25933	-79
1.26300	-82
1.26667	-87
1.27033	-87
1.27400	-84
1.27767	-79
1.28133	-69
1.28500	-59
1.28867	-53
1.29233	-54
1.29600	-61
1.29967	-73
1.30333	-79
1.30700	-79
1.31067	-76
1.31433	-76
1.31800	-78
1.32167	-82
1.32533	-84
1.32900	-80
1.33267	-74
1.33633	-68
1.34000	-65
1.34367	-69
1.34733	-71
1.35100	-74
1.35467	-79
1.35833	-83
1.36200	-78
1.36567	-67
1.36933	-60
1.37300	-60
1.37667	-59
1.38033	-58
1.38400	-64
1.38767	-78
1.39133	-88
1.39500	-91
1.39867	-93
1.40233	-94
1.40600	-98
1.40967	-106
1.41333	-113
1.41700	-115
1.42067	-112
1.42433	-112
1.42800	-114
1.43167	-110
1.43533	-101
1.43900	-70
1.44267	43
1.44633	377
1.45000	1414
1.45367	3834
1.45733	7625
1.46100	11950
1.46467	15923
1.46833	19034
1.47200	21015
1.47567	21644
1.47933	20781
1.48300	18557
1.48667	15458
1.49033	12129
1.49400	9086
1.49767	6589
1.50133	4684
1.50500	3304
1.50867	2335
1.51233	1661
1.51600	1194
1.51967	875
1.52333	658
1.52700	510
1.53067	406
1.53433	337
1.53800	310
1.54167	355
1.54533	526
1.54900	836
1.55267	1226
1.55633	1610
1.56000	1923
1.56367	2136
1.56733	2221
1.57100	2147
1.57467	1916
1.57833	1581
1.58200	1220
1.58567	891
1.58933	627
1.59300	430
1.59667	291
1.60033	193
1.60400	120
1.60767	63
1.61133	17
1.61500	-13
1.61867	-31
1.62233	-39
1.62600	-39
1.62967	-36
1.63333	-33
1.63700	-32
1.64067	-33
1.64433	-32
1.64800	-28
1.65167	-20
1.65533	-12
1.65900	-8
1.66267	-11
1.66633	-15
1.67000	-19
1.67367	-30
1.67733	-39
1.68100	-50
1.68467	-60
1.68833	-65
1.69200	-67
1.69567	-62
1.69933	-58
1.70300	-60
1.70667	-66
1.71033	-69
1.71400	-69
1.71767	-63
1.72133	-55
1.72500	-52
1.72867	-54
1.73233	-59
1.73600	-63
1.73967	-64
1.74333	-66
1.74700	-74
1.75067	-84
1.75433	-92
1.75800	-95
1.76167	-92
1.76533	-90
1.76900	-87
1.77267	-84
1.77633	-82
1.78000	-84
1.78367	-86
1.78733	-86
1.79100	-86
1.79467	-83
1.79833	-79
1.80200	-75
1.80567	-69
1.80933	-68
1.81300	-72
1.81667	-75
1.82033	-72
1.82400	-71
1.82767	-74
1.83133	-76
1.83500	-75
1.83867	-71
1.84233	-71
1.84600	-75
1.84967	-81
1.85333	-87
1.85700	-91
1.86067	-94
1.86433	-95
1.86800	-91
1.87167	-84
1.87533	-76
1.87900	-71
1.88267	-73
1.88633	-76
1.89000	-79
1.89367	-85
1.89733	-91
1.90100	-94
1.90467	-97
1.90833	-97
1.91200	-97
1.91567	-101
1.91933	-106
1.92300	-111
1.92667	-117
1.93033	-120
1.93400	-120
1.93767	-119
1.94133	-109
1.94500	-96
1.94867	-83
1.95233	-40
1.95600	214
1.95967	1607
1.96333	7587
1.96700	27075
1.97067	75884
1.97433	170548
1.97800	314507
1.98167	490217
1.98533	666728
1.98900	813457
1.99267	907455
1.99633	935940
2.00000	897546
2.00367	803282
2.00733	674056
2.01100	534091
2.01467	403381
2.01833	293627
2.02200	208359
2.02567	145720
2.02933	101454
2.03300	70968
2.03667	50288
2.04033	36355
2.04400	26966
2.04767	20598
2.05133	16221
2.05500	13156
2.05867	10962
2.06233	9353
2.06600	8140
2.06967	7203
2.07333	6459
2.07700	5855
2.08067	5351
2.08433	4925
2.08800	4561
2.09167	4251
2.09533	3985
2.09900	3750
2.10267	3538
2.10633	3345
2.11000	3169
2.11367	3009
2.11733	2866
2.12100	2732
2.12467	2605
2.12833	2491
2.13200	2390
2.13567	2299
2.13933	2213
2.14300	2129
2.14667	2050
2.15033	1975
2.15400	1904
2.15767	1835
2.16133	1769
2.16500	1703
2.16867	1639
2.17233	1581
2.17600	1531
2.17967	1485
2.18333	1442
2.18700	1403
2.19067	1363
2.19433	1322
2.19800	1287
2.20167	1254
2.20533	1225
2.20900	1195
2.21267	1164
2.21633	1136
2.22000	1110
2.22367	1085
2.22733	1059
2.23100	1033
2.23467	1008
2.23833	982
2.24200	958
2.24567	940
2.24933	923
2.25300	902
2.25667	878
2.26033	858
2.26400	840
2.26767	825
2.27133	810
2.27500	796
2.27867	781
2.28233	767
2.28600	754
2.28967	741
2.29333	729
2.29700	716
2.30067	701
2.30433	686
2.30800	675
2.31167	666
2.31533	656
2.31900	645
2.32267	638
2.32633	635
2.33000	634
2.33367	631
2.33733	627
2.34100	618
2.34467	605
2.34833	591
2.35200	580
2.35567	574
2.35933	570
2.36300	569
2.36667	568
2.37033	564
2.37400	556
2.37767	545
2.38133	538
2.38500	533
2.38867	529
2.39233	524
2.39600	517
2.39967	509
2.40333	501
2.40700	494
2.41067	489
2.41433	488
2.41800	486
2.42167	479
2.42533	468
2.42900	458
2.43267	451
2.43633	449
2.44000	450
2.44367	451
2.44733	446
2.45100	442
2.45467	442
2.45833	444
2.46200	446
2.46567	448
2.46933	447
2.47300	448
2.47667	451
2.48033	450
2.48400	443
2.48767	430
2.49133	418
2.49500	409
2.49867	401
2.50233	395
2.50600	392
2.50967	394
2.51333	397
2.51700	397
2.52067	396
2.52433	397
2.52800	395
2.53167	392
2.53533	388
2.53900	386
2.54267	386
2.54633	385
2.55000	384
2.55367	379
2.55733	369
2.56100	362
2.56467	357
2.56833	352
2.57200	348
2.57567	346
2.57933	346
2.58300	348
2.58667	347
2.59033	348
2.59400	351
2.59767	354
2.60133	354
2.60500	353
2.60867	351
2.61233	346
2.61600	339
2.61967	334
2.62333	331
2.62700	331
2.63067	329
2.63433	327
2.63800	326
2.64167	326
2.64533	329
2.64900	335
2.65267	341
2.65633	347
2.66000	356
2.66367	365
2.66733	371
2.67100	371
2.67467	362
2.67833	349
2.68200	339
2.68567	331
2.68933	324
2.69300	319
2.69667	318
2.70033	321
2.70400	324
2.70767	321
2.71133	319
2.71500	322
2.71867	321
2.72233	318
2.72600	314
2.72967	311
2.73333	309
2.73700	313
2.74067	320
2.74433	328
2.74800	337
2.75167	341
2.75533	341
2.75900	340
2.76267	340
2.76633	337
2.77000	331
2.77367	326
2.77733	319
2.78100	316
2.78467	317
2.78833	320
2.79200	324
2.79567	327
2.79933	326
2.80300	326
2.80667	329
2.81033	333
2.81400	338
2.81767	339
2.82133	338
2.82500	338
2.82867	337
2.83233	334
2.83600	332
2.83967	331
2.84333	337
2.84700	346
2.85067	352
2.85433	353
2.85800	349
2.86167	344
2.86533	343
2.86900	336
2.87267	326
2.87633	317
2.88000	306
2.88367	303
2.88733	306
2.89100	310
2.89467	315
2.89833	321
2.90200	325
2.90567	326
2.90933	325
2.91300	323
2.91667	321
2.92033	320
2.92400	323
2.92767	326
2.93133	329
2.93500	332
2.93867	335
2.94233	334
2.94600	331
2.94967	330
2.95333	335
2.95700	343
2.96067	346
2.96433	340
2.96800	331
2.97167	325
2.97533	321
2.97900	316
2.98267	318
2.98633	329
2.99000	346
2.99367	356
2.99733	356
3.00100	356
3.00467	361
3.00833	361
3.01200	359
3.01567	357
3.01933	357
3.02300	356
3.02667	352
3.03033	350
3.03400	349
3.03767	353
3.04133	359
3.04500	360
3.04867	354
3.05233	346
3.05600	339
3.05967	332
3.06333	324
3.06700	316
3.07067	313
3.07433	315
3.07800	322
3.08167	331
3.08533	338
3.08900	344
3.09267	355
3.09633	364
3.10000	364
3.10367	357
3.10733	347
3.11100	339
3.11467	336
3.11833	334
3.12200	337
3.12567	341
3.12933	342
3.13300	347
3.13667	352
3.14033	351
3.14400	348
3.14767	346
3.15133	343
3.15500	345
3.15867	349
3.16233	351
3.16600	354
3.16967	361
3.17333	366
3.17700	366
3.18067	357
3.18433	343
3.18800	329
3.19167	319
3.19533	312
3.19900	310
3.20267	314
3.20633	320
3.21000	325
3.21367	330
3.21733	333
3.22100	334
3.22467	335
3.22833	338
3.23200	345
3.23567	351
3.23933	354
3.24300	356
3.24667	358
3.25033	357
3.25400	354
3.25767	350
3.26133	347
3.26500	346
3.26867	345
3.27233	344
3.27600	348
3.27967	351
3.28333	353
3.28700	351
3.29067	346
3.29433	343
3.29800	342
3.30167	342
3.30533	346
3.30900	350
3.31267	354
3.31633	356
3.32000	354
3.32367	353
3.32733	350
3.33100	347
3.33467	344
3.33833	344
3.34200	348
3.34567	351
3.34933	350
3.35300	346
3.35667	343
3.36033	347
3.36400	346
3.36767	340
3.37133	333
3.37500	332
3.37867	339
3.38233	348
3.38600	352
3.38967	349
3.39333	347
3.39700	341
3.40067	333
3.40433	324
3.40800	318
3.41167	314
3.41533	314
3.41900	313
3.42267	312
3.42633	311
3.43000	307
3.43367	304
3.43733	304
3.44100	306
3.44467	308
3.44833	314
3.45200	317
3.45567	322
3.45933	328
3.46300	332
3.46667	332
3.47033	329
3.47400	324
3.47767	317
3.48133	312
3.48500	307
3.48867	303
3.49233	299
3.49600	299
3.49967	302
3.50333	307
3.50700	311
3.51067	312
3.51433	314
3.51800	318
3.52167	322
3.52533	329
3.52900	335
3.53267	331
3.53633	322
3.54000	314
3.54367	308
3.54733	302
3.55100	299
3.55467	297
3.55833	299
3.56200	304
3.56567	312
3.56933	318
3.57300	319
3.57667	317
3.58033	314
3.58400	310
3.58767	309
3.59133	311
3.59500	314
3.59867	313
3.60233	311
3.60600	310
3.60967	309
3.61333	309
3.61700	307
3.62067	305
3.62433	304
3.62800	307
3.63167	314
3.63533	320
3.63900	321
3.64267	322
3.64633	326
3.65000	329
3.65367	326
3.65733	321
3.66100	320
3.66467	316
3.66833	308
3.67200	302
3.67567	297
3.67933	295
3.68300	293
3.68667	291
3.69033	283
3.69400	272
3.69767	266
3.70133	264
3.70500	267
3.70867	269
3.71233	269
3.71600	270
3.71967	269
3.72333	268
3.72700	272
3.73067	281
3.73433	289
3.73800	290
3.74167	286
3.74533	280
3.74900	276
3.75267	279
3.75633	292
3.76000	304
3.76367	306
3.76733	298
3.77100	283
3.77467	270
3.77833	259
3.78200	247
3.78567	240
3.78933	239
3.79300	240
3.79667	244
3.80033	248
3.80400	250
3.80767	251
3.81133	252
3.81500	256
3.81867	265
3.82233	278
3.82600	286
3.82967	290
3.83333	294
3.83700	296
3.84067	291
3.84433	285
3.84800	282
3.85167	282
3.85533	281
3.85900	277
3.86267	274
3.86633	273
3.87000	274
3.87367	275
3.87733	275
3.88100	274
3.88467	270
3.88833	267
3.89200	265
3.89567	261
3.89933	257
3.90300	254
3.90667	255
3.91033	259
3.91400	264
3.91767	267
3.92133	266
3.92500	265
3.92867	264
3.93233	265
3.93600	265
3.93967	265
3.94333	264
3.94700	263
3.95067	259
3.95433	250
3.95800	244
3.96167	242
3.96533	246
3.96900	253
3.97267	259
3.97633	262
3.98000	265
3.98367	266
3.98733	265
3.99100	263
3.99467	259
3.99833	255

[Chromatogram (Ch2)]
Interval(msec)	220
# of Points	1091
Start Time(min)	0.002
End Time(min)	3.998
R.Time (min)	Intensity
0.00167	-1
0.00533	-2
0.00900	-2
0.01267	-2
0.01633	-2
0.02000	-2
0.02367	-2
0.02733	-2
0.03100	-2
0.03467	-2
0.03833	-2
0.04200	-2
0.04567	-2
0.04933	-2
0.05300	-2
0.05667	-2
0.06033	-2
0.06400	-2
0.06767	-2
0.07133	-1
0.07500	-1
0.07867	-1
0.08233	-1
0.08600	-1
0.08967	-1
0.09333	-1
0.09700	-0
0.10067	0
0.10433	0
0.10800	1
0.11167	1
0.11533	2
0.11900	2
0.12267	2
0.12633	2
0.13000	2
0.13367	2
0.13733	2
0.14100	2
0.14467	2
0.14833	2
0.15200	2
0.15567	2
0.15933	2
0.16300	3
0.16667	2
0.17033	2
0.17400	2
0.17767	2
0.18133	2
0.18500	2
0.18867	2
0.19233	1
0.19600	1
0.19967	1
0.20333	1
0.20700	1
0.21067	1
0.21433	1
0.21800	1
0.22167	1
0.22533	1
0.22900	1
0.23267	1
0.23633	2
0.24000	2
0.24367	2
0.24733	2
0.25100	2
0.25467	2
0.25833	2
0.26200	2
0.26567	1
0.26933	1
0.27300	1
0.27667	1
0.28033	0
0.28400	0
0.28767	0
0.29133	0
0.29500	0
0.29867	0
0.30233	0
0.30600	1
0.30967	1
0.31333	1
0.31700	1
0.32067	1
0.32433	1
0.32800	1
0.33167	0
0.33533	-0
0.33900	-0
0.34267	-0
0.34633	-0
0.35000	0
0.35367	1
0.35733	1
0.36100	1
0.36467	1
0.36833	1
0.37200	1
0.37567	1
0.37933	2
0.38300	2
0.38667	2
0.39033	2
0.39400	2
0.39767	1
0.40133	1
0.40500	1
0.40867	1
0.41233	1
0.41600	2
0.41967	2
0.42333	2
0.42700	2
0.43067	3
0.43433	3
0.43800	2
0.44167	2
0.44533	2
0.44900	2
0.45267	1
0.45633	1
0.46000	1
0.46367	1
0.46733	1
0.47100	1
0.47467	1
0.47833	0
0.48200	0
0.48567	0
0.48933	0
0.49300	0
0.49667	0
0.50033	0
0.50400	0
0.50767	0
0.51133	0
0.51500	0
0.51867	0
0.52233	0
0.52600	0
0.52967	0
0.53333	0
0.53700	1
0.54067	1
0.54433	1
0.54800	2
0.55167	2
0.55533	2
0.55900	2
0.56267	2
0.56633	2
0.57000	2
0.57367	2
0.57733	1
0.58100	1
0.58467	1
0.58833	0
0.59200	0
0.59567	-0
0.59933	-1
0.60300	-1
0.60667	-1
0.61033	-2
0.61400	-2
0.61767	-2
0.62133	-2
0.62500	-1
0.62867	-1
0.63233	-1
0.63600	-1
0.63967	-0
0.64333	-0
0.64700	-0
0.65067	0
0.65433	0
0.65800	1
0.66167	1
0.66533	1
0.66900	1
0.67267	1
0.67633	1
0.68000	0
0.68367	0
0.68733	0
0.69100	0
0.69467	0
0.69833	0
0.70200	0
0.70567	1
0.70933	1
0.71300	1
0.71667	1
0.72033	2
0.72400	2
0.72767	2
0.73133	2
0.73500	2
0.73867	2
0.74233	2
0.74600	2
0.74967	2
0.75333	1
0.75700	1
0.76067	1
0.76433	1
0.76800	1
0.77167	1
0.77533	1
0.77900	1
0.78267	1
0.78633	1
0.79000	1
0.79367	1
0.79733	1
0.80100	1
0.80467	0
0.80833	0
0.81200	-0
0.81567	-0
0.81933	-1
0.82300	-1
0.82667	-1
0.83033	-1
0.83400	-2
0.83767	-2
0.84133	-2
0.84500	-2
0.84867	-2
0.85233	-2
0.85600	-2
0.85967	-2
0.86333	-2
0.86700	-2
0.87067	-2
0.87433	-2
0.87800	-2
0.88167	-2
0.88533	-2
0.88900	-2
0.89267	-2
0.89633	-2
0.90000	-2
0.90367	-2
0.90733	-2
0.91100	-2
0.91467	-2
0.91833	-1
0.92200	-1
0.92567	-1
0.92933	-1
0.93300	-1
0.93667	-1
0.94033	-1
0.94400	-1
0.94767	-0
0.95133	0
0.95500	1
0.95867	1
0.96233	1
0.96600	1
0.96967	1
0.97333	1
0.97700	1
0.98067	1
0.98433	1
0.98800	1
0.99167	1
0.99533	0
0.99900	0
1.00267	0
1.00633	0
1.01000	-0
1.01367	-0
1.01733	-0
1.02100	0
1.02467	0
1.02833	0
1.03200	-0
1.03567	-0
1.03933	-0
1.04300	-1
1.04667	-1
1.05033	-1
1.05400	-1
1.05767	-1
1.06133	-1
1.06500	-1
1.06867	-1
1.07233	-1
1.07600	-1
1.07967	-0
1.08333	0
1.08700	0
1.09067	1
1.09433	1
1.09800	1
1.10167	1
1.10533	1
1.10900	1
1.11267	1
1.11633	1
1.12000	1
1.12367	1
1.12733	0
1.13100	0
1.13467	0
1.13833	-0
1.14200	-1
1.14567	-1
1.14933	-1
1.15300	-2
1.15667	-2
1.16033	-2
1.16400	-2
1.16767	-2
1.17133	-2
1.17500	-2
1.17867	-2
1.18233	-2
1.18600	-2
1.18967	-1
1.19333	-1
1.19700	-1
1.20067	-1
1.20433	-1
1.20800	-1
1.21167	-1
1.21533	-1
1.21900	-0
1.22267	-0
1.22633	-0
1.23000	-0
1.23367	-0
1.23733	-0
1.24100	-0
1.24467	-1
1.24833	-1
1.25200	-1
1.25567	-1
1.25933	-1
1.26300	-1
1.26667	-1
1.27033	-2
1.27400	-2
1.27767	-2
1.28133	-2
1.28500	-2
1.28867	-2
1.29233	-2
1.29600	-2
1.29967	-2
1.30333	-2
1.30700	-2
1.31067	-2
1.31433	-2
1.31800	-2
1.32167	-2
1.32533	-2
1.32900	-3
1.33267	-2
1.33633	-2
1.34000	-2
1.34367	-2
1.34733	-2
1.35100	-2
1.35467	-2
1.35833	-2
1.36200	-2
1.36567	-2
1.36933	-1
1.37300	-1
1.37667	-1
1.38033	-1
1.38400	-0
1.38767	-0
1.39133	-0
1.39500	-0
1.39867	-0
1.40233	-0
1.40600	0
1.40967	0
1.41333	0
1.41700	0
1.42067	-0
1.42433	-0
1.42800	-1
1.43167	-1
1.43533	-1
1.43900	-1
1.44267	-1
1.44633	-2
1.45000	-2
1.45367	-2
1.45733	-3
1.46100	-3
1.46467	-3
1.46833	-4
1.47200	-4
1.47567	-4
1.47933	-4
1.48300	-4
1.48667	-4
1.49033	-3
1.49400	-3
1.49767	-3
1.50133	-3
1.50500	-3
1.50867	-2
1.51233	-2
1.51600	-2
1.51967	-2
1.52333	-2
1.52700	-2
1.53067	-2
1.53433	-2
1.53800	-3
1.54167	-3
1.54533	-3
1.54900	-3
1.55267	-3
1.55633	-3
1.56000	-3
1.56367	-3
1.56733	-3
1.57100	-3
1.57467	-3
1.57833	-3
1.58200	-3
1.58567	-3
1.58933	-3
1.59300	-4
1.59667	-4
1.60033	-5
1.60400	-6
1.60767	-7
1.61133	-9
1.61500	-10
1.61867	-12
1.62233	-15
1.62600	-17
1.62967	-20
1.63333	-24
1.63700	-27
1.64067	-31
1.64433	-35
1.64800	-38
1.65167	-42
1.65533	-46
1.65900	-49
1.66267	-52
1.66633	-56
1.67000	-60
1.67367	-65
1.67733	-70
1.68100	-74
1.68467	-79
1.68833	-83
1.69200	-87
1.69567	-90
1.69933	-93
1.70300	-96
1.70667	-98
1.71033	-100
1.71400	-101
1.71767	-102
1.72133	-103
1.72500	-104
1.72867	-105
1.73233	-106
1.73600	-107
1.73967	-107
1.74333	-107
1.74700	-108
1.75067	-108
1.75433	-109
1.75800	-109
1.76167	-110
1.76533	-110
1.76900	-111
1.77267	-112
1.77633	-112
1.78000	-112
1.78367	-111
1.78733	-111
1.79100	-111
1.79467	-111
1.79833	-111
1.80200	-110
1.80567	-110
1.80933	-110
1.81300	-110
1.81667	-110
1.82033	-110
1.82400	-111
1.82767	-112
1.83133	-113
1.83500	-113
1.83867	-113
1.84233	-113
1.84600	-113
1.84967	-113
1.85333	-112
1.85700	-112
1.86067	-112
1.86433	-112
1.86800	-111
1.87167	-111
1.87533	-111
1.87900	-111
1.88267	-111
1.88633	-111
1.89000	-111
1.89367	-111
1.89733	-110
1.90100	-110
1.90467	-110
1.90833	-110
1.91200	-110
1.91567	-110
1.91933	-110
1.92300	-110
1.92667	-110
1.93033	-110
1.93400	-109
1.93767	-109
1.94133	-109
1.94500	-110
1.94867	-110
1.95233	-111
1.95600	-111
1.95967	-111
1.96333	-111
1.96700	-110
1.97067	-109
1.97433	-108
1.97800	-107
1.98167	-106
1.98533	-105
1.98900	-105
1.99267	-104
1.99633	-104
2.00000	-104
2.00367	-104
2.00733	-104
2.01100	-104
2.01467	-103
2.01833	-103
2.02200	-103
2.02567	-103
2.02933	-103
2.03300	-103
2.03667	-102
2.04033	-102
2.04400	-102
2.04767	-102
2.05133	-102
2.05500	-102
2.05867	-102
2.06233	-102
2.06600	-102
2.06967	-102
2.07333	-102
2.07700	-102
2.08067	-102
2.08433	-102
2.08800	-102
2.09167	-102
2.09533	-102
2.09900	-102
2.10267	-101
2.10633	-100
2.11000	-99
2.11367	-98
2.11733	-97
2.12100	-96
2.12467	-96
2.12833	-96
2.13200	-95
2.13567	-95
2.13933	-94
2.14300	-94
2.14667	-94
2.15033	-94
2.15400	-94
2.15767	-94
2.16133	-94
2.16500	-94
2.16867	-94
2.17233	-94
2.17600	-93
2.17967	-93
2.18333	-92
2.18700	-91
2.19067	-91
2.19433	-90
2.19800	-89
2.20167	-89
2.20533	-88
2.20900	-88
2.21267	-88
2.21633	-87
2.22000	-87
2.22367	-88
2.22733	-88
2.23100	-87
2.23467	-87
2.23833	-87
2.24200	-86
2.24567	-86
2.24933	-86
2.25300	-86
2.25667	-86
2.26033	-86
2.26400	-85
2.26767	-85
2.27133	-84
2.27500	-83
2.27867	-82
2.28233	-82
2.28600	-82
2.28967	-82
2.29333	-82
2.29700	-83
2.30067	-84
2.30433	-85
2.30800	-86
2.31167	-86
2.31533	-85
2.31900	-84
2.32267	-84
2.32633	-84
2.33000	-83
2.33367	-82
2.33733	-81
2.34100	-80
2.34467	-79
2.34833	-78
2.35200	-76
2.35567	-74
2.35933	-73
2.36300	-71
2.36667	-68
2.37033	-66
2.37400	-62
2.37767	-59
2.38133	-55
2.38500	-51
2.38867	-46
2.39233	-42
2.39600	-37
2.39967	-33
2.40333	-30
2.40700	-26
2.41067	-23
2.41433	-20
2.41800	-17
2.42167	-15
2.42533	-13
2.42900	-12
2.43267	-11
2.43633	-11
2.44000	-11
2.44367	-11
2.44733	-11
2.45100	-10
2.45467	-9
2.45833	-8
2.46200	-6
2.46567	-4
2.46933	-3
2.47300	-1
2.47667	-0
2.48033	1
2.48400	2
2.48767	3
2.49133	4
2.49500	5
2.49867	5
2.50233	6
2.50600	7
2.50967	8
2.51333	9
2.51700	10
2.52067	10
2.52433	11
2.52800	11
2.53167	12
2.53533	13
2.53900	13
2.54267	14
2.54633	14
2.55000	15
2.55367	15
2.55733	16
2.56100	16
2.56467	16
2.56833	16
2.57200	16
2.57567	16
2.57933	16
2.58300	16
2.58667	16
2.59033	16
2.59400	15
2.59767	15
2.60133	15
2.60500	15
2.60867	15
2.61233	15
2.61600	15
2.61967	15
2.62333	14
2.62700	14
2.63067	14
2.63433	14
2.63800	14
2.64167	14
2.64533	15
2.64900	16
2.65267	16
2.65633	17
2.66000	17
2.66367	18
2.66733	18
2.67100	19
2.67467	19
2.67833	20
2.68200	21
2.68567	21
2.68933	22
2.69300	22
2.69667	22
2.70033	22
2.70400	22
2.70767	22
2.71133	23
2.71500	23
2.71867	24
2.72233	24
2.72600	24
2.72967	24
2.73333	24
2.73700	24
2.74067	23
2.74433	23
2.74800	23
2.75167	23
2.75533	24
2.75900	24
2.76267	25
2.76633	25
2.77000	26
2.77367	26
2.77733	26
2.78100	26
2.78467	27
2.78833	27
2.79200	28
2.79567	28
2.79933	28
2.80300	29
2.80667	29
2.81033	29
2.81400	30
2.81767	30
2.82133	30
2.82500	30
2.82867	30
2.83233	30
2.83600	29
2.83967	28
2.84333	25
2.84700	22
2.85067	16
2.85433	7
2.85800	-4
2.86167	-20
2.86533	-39
2.86900	-63
2.87267	-91
2.87633	-124
2.88000	-161
2.88367	-201
2.88733	-246
2.89100	-293
2.89467	-343
2.89833	-395
2.90200	-449
2.90567	-503
2.90933	-558
2.91300	-614
2.91667	-669
2.92033	-723
2.92400	-775
2.92767	-826
2.93133	-878
2.93500	-933
2.93867	-992
2.94233	-1045
2.94600	-1082
2.94967	-1095
2.95333	-1082
2.95700	-1045
2.96067	-990
2.96433	-921
2.96800	-844
2.97167	-764
2.97533	-684
2.97900	-606
2.98267	-533
2.98633	-466
2.99000	-404
2.99367	-349
2.99733	-301
3.00100	-257
3.00467	-220
3.00833	-187
3.01200	-158
3.01567	-133
3.01933	-112
3.02300	-93
3.02667	-77
3.03033	-64
3.03400	-52
3.03767	-42
3.04133	-34
3.04500	-27
3.04867	-21
3.05233	-16
3.05600	-11
3.05967	-7
3.06333	-4
3.06700	-1
3.07067	1
3.07433	4
3.07800	6
3.08167	7
3.08533	9
3.08900	10
3.09267	11
3.09633	12
3.10000	13
3.10367	14
3.10733	14
3.11100	15
3.11467	15
3.11833	15
3.12200	15
3.12567	15
3.12933	15
3.13300	15
3.13667	15
3.14033	15
3.14400	15
3.14767	15
3.15133	15
3.15500	15
3.15867	16
3.16233	16
3.16600	16
3.16967	16
3.17333	17
3.17700	17
3.18067	18
3.18433	18
3.18800	19
3.19167	19
3.19533	19
3.19900	19
3.20267	20
3.20633	20
3.21000	20
3.21367	20
3.21733	20
3.22100	20
3.22467	20
3.22833	20
3.23200	20
3.23567	20
3.23933	20
3.24300	20
3.24667	20
3.25033	21
3.25400	21
3.25767	21
3.26133	22
3.26500	22
3.26867	22
3.27233	23
3.27600	23
3.27967	24
3.28333	24
3.28700	24
3.29067	24
3.29433	24
3.29800	24
3.30167	24
3.30533	24
3.30900	24
3.31267	24
3.31633	24
3.32000	24
3.32367	25
3.32733	25
3.33100	25
3.33467	25
3.33833	25
3.34200	25
3.34567	25
3.34933	25
3.35300	25
3.35667	25
3.36033	25
3.36400	25
3.36767	25
3.37133	25
3.37500	25
3.37867	24
3.38233	24
3.38600	24
3.38967	24
3.39333	24
3.39700	24
3.40067	24
3.40433	24
3.40800	24
3.41167	24
3.41533	25
3.41900	25
3.42267	25
3.42633	25
3.43000	25
3.43367	26
3.43733	26
3.44100	26
3.44467	26
3.44833	26
3.45200	26
3.45567	26
3.45933	26
3.46300	27
3.46667	27
3.47033	27
3.47400	27
3.47767	27
3.48133	27
3.48500	27
3.48867	27
3.49233	27
3.49600	28
3.49967	28
3.50333	28
3.50700	28
3.51067	28
3.51433	28
3.51800	29
3.52167	29
3.52533	29
3.52900	29
3.53267	29
3.53633	28
3.54000	28
3.54367	28
3.54733	29
3.55100	29
3.55467	29
3.55833	28
3.56200	28
3.56567	28
3.56933	28
3.57300	28
3.57667	28
3.58033	28
3.58400	28
3.58767	28
3.59133	28
3.59500	28
3.59867	28
3.60233	28
3.60600	28
3.60967	28
3.61333	28
3.61700	27
3.62067	27
3.62433	27
3.62800	27
3.63167	27
3.63533	27
3.63900	27
3.64267	26
3.64633	26
3.65000	26
3.65367	26
3.65733	26
3.66100	26
3.66467	26
3.66833	26
3.67200	26
3.67567	26
3.67933	26
3.68300	26
3.68667	26
3.69033	26
3.69400	26
3.69767	26
3.70133	27
3.70500	27
3.70867	27
3.71233	27
3.71600	27
3.71967	27
3.72333	27
3.72700	27
3.73067	27
3.73433	27
3.73800	27
3.74167	27
3.74533	27
3.74900	27
3.75267	27
3.75633	27
3.76000	27
3.76367	27
3.76733	27
3.77100	28
3.77467	28
3.77833	28
3.78200	28
3.78567	28
3.78933	28
3.79300	28
3.79667	28
3.80033	28
3.80400	28
3.80767	28
3.81133	28
3.81500	28
3.81867	28
3.82233	28
3.82600	28
3.82967	28
3.83333	28
3.83700	28
3.84067	27
3.84433	27
3.84800	27
3.85167	27
3.85533	27
3.85900	27
3.86267	27
3.86633	27
3.87000	27
3.87367	27
3.87733	27
3.88100	27
3.88467	27
3.88833	27
3.89200	27
3.89567	27
3.89933	27
3.90300	27
3.90667	27
3.91033	26
3.91400	26
3.91767	27
3.92133	27
3.92500	27
3.92867	27
3.93233	27
3.93600	27
3.93967	27
3.94333	27
3.94700	27
3.95067	27
3.95433	27
3.95800	27
3.96167	27
3.96533	27
3.96900	26
3.97267	26
3.97633	26
3.98000	26
3.98367	26
3.98733	26
3.99100	26
3.99467	26
3.99833	26

[Chromatogram (Ch3)]
Interval(msec)	220
# of Points	1091
Start Time(min)	0.002
End Time(min)	3.998
R.Time (min)	Intensity
0.00167	1
0.00533	-0
0.00900	-2
0.01267	-2
0.01633	-1
0.02000	-3
0.02367	-6
0.02733	-6
0.03100	-6
0.03467	-5
0.03833	-4
0.04200	-4
0.04567	-3
0.04933	-2
0.05300	-1
0.05667	-1
0.06033	-3
0.06400	-5
0.06767	-5
0.07133	-3
0.07500	-1
0.07867	-1
0.08233	-2
0.08600	-4
0.08967	-4
0.09333	-6
0.09700	-6
0.10067	-7
0.10433	-7
0.10800	-8
0.11167	-9
0.11533	-10
0.11900	-9
0.12267	-6
0.12633	-5
0.13000	-5
0.13367	-8
0.13733	-9
0.14100	-7
0.14467	-6
0.14833	-3
0.15200	-2
0.15567	-3
0.15933	-2
0.16300	0
0.16667	2
0.17033	3
0.17400	2
0.17767	2
0.18133	2
0.18500	3
0.18867	2
0.19233	2
0.19600	1
0.19967	-1
0.20333	-3
0.20700	-3
0.21067	-1
0.21433	0
0.21800	-0
0.22167	-1
0.22533	-0
0.22900	1
0.23267	-0
0.23633	-2
0.24000	-2
0.24367	-1
0.24733	0
0.25100	1
0.25467	1
0.25833	1
0.26200	2
0.26567	0
0.26933	-1
0.27300	-2
0.27667	-3
0.28033	-3
0.28400	-3
0.28767	-2
0.29133	-2
0.29500	-2
0.29867	-1
0.30233	-0
0.30600	0
0.30967	-1
0.31333	-1
0.31700	-3
0.32067	-1
0.32433	-0
0.32800	-0
0.33167	1
0.33533	1
0.33900	1
0.34267	1
0.34633	1
0.35000	-2
0.35367	-5
0.35733	-6
0.36100	-4
0.36467	-3
0.36833	-3
0.37200	-3
0.37567	-2
0.37933	-1
0.38300	-0
0.38667	-1
0.39033	-1
0.39400	-1
0.39767	-0
0.40133	1
0.40500	2
0.40867	3
0.41233	3
0.41600	4
0.41967	4
0.42333	4
0.42700	4
0.43067	2
0.43433	0
0.43800	-3
0.44167	-4
0.44533	-3
0.44900	-1
0.45267	-0
0.45633	-2
0.46000	-2
0.46367	-1
0.46733	-1
0.47100	-1
0.47467	-1
0.47833	-1
0.48200	-0
0.48567	1
0.48933	1
0.49300	0
0.49667	2
0.50033	-0
0.50400	-2
0.50767	-2
0.51133	-2
0.51500	-2
0.51867	-3
0.52233	-3
0.52600	-4
0.52967	-3
0.53333	-3
0.53700	-3
0.54067	-0
0.54433	2
0.54800	3
0.55167	3
0.55533	3
0.55900	1
0.56267	-3
0.56633	-4
0.57000	-6
0.57367	-5
0.57733	-4
0.58100	-3
0.58467	-1
0.58833	0
0.59200	1
0.59567	1
0.59933	-1
0.60300	-2
0.60667	-2
0.61033	-4
0.61400	-5
0.61767	-3
0.62133	-3
0.62500	-1
0.62867	-2
0.63233	-4
0.63600	-4
0.63967	-3
0.64333	-2
0.64700	-0
0.65067	2
0.65433	4
0.65800	4
0.66167	4
0.66533	2
0.66900	2
0.67267	4
0.67633	4
0.68000	5
0.68367	6
0.68733	7
0.69100	6
0.69467	3
0.69833	2
0.70200	3
0.70567	3
0.70933	3
0.71300	1
0.71667	1
0.72033	1
0.72400	-1
0.72767	-2
0.73133	-2
0.73500	-2
0.73867	2
0.74233	6
0.74600	8
0.74967	8
0.75333	7
0.75700	7
0.76067	8
0.76433	7
0.76800	6
0.77167	4
0.77533	4
0.77900	3
0.78267	2
0.78633	2
0.79000	2
0.79367	3
0.79733	5
0.80100	5
0.80467	6
0.80833	7
0.81200	8
0.81567	9
0.81933	8
0.82300	5
0.82667	3
0.83033	1
0.83400	4
0.83767	7
0.84133	8
0.84500	8
0.84867	6
0.85233	6
0.85600	6
0.85967	8
0.86333	10
0.86700	10
0.87067	9
0.87433	7
0.87800	6
0.88167	5
0.88533	6
0.88900	8
0.89267	7
0.89633	9
0.90000	10
0.90367	7
0.90733	6
0.91100	6
0.91467	6
0.91833	7
0.92200	7
0.92567	5
0.92933	2
0.93300	0
0.93667	1
0.94033	3
0.94400	5
0.94767	7
0.95133	10
0.95500	8
0.95867	5
0.96233	5
0.96600	7
0.96967	9
0.97333	12
0.97700	14
0.98067	13
0.98433	11
0.98800	10
0.99167	10
0.99533	11
0.99900	9
1.00267	8
1.00633	8
1.01000	8
1.01367	9
1.01733	9
1.02100	9
1.02467	9
1.02833	10
1.03200	11
1.03567	10
1.03933	8
1.04300	7
1.04667	8
1.05033	9
1.05400	8
1.05767	9
1.06133	10
1.06500	10
1.06867	9
1.07233	10
1.07600	13
1.07967	12
1.08333	9
1.08700	6
1.09067	5
1.09433	2
1.09800	2
1.10167	5
1.10533	6
1.10900	7
1.11267	9
1.11633	10
1.12000	12
1.12367	12
1.12733	13
1.13100	14
1.13467	14
1.13833	15
1.14200	15
1.14567	13
1.14933	11
1.15300	8
1.15667	6
1.16033	3
1.16400	1
1.16767	1
1.17133	2
1.17500	2
1.17867	4
1.18233	5
1.18600	5
1.18967	4
1.19333	3
1.19700	3
1.20067	4
1.20433	5
1.20800	6
1.21167	5
1.21533	6
1.21900	8
1.22267	8
1.22633	6
1.23000	7
1.23367	8
1.23733	7
1.24100	8
1.24467	8
1.24833	6
1.25200	6
1.25567	7
1.25933	8
1.26300	10
1.26667	12
1.27033	12
1.27400	12
1.27767	11
1.28133	8
1.28500	7
1.28867	7
1.29233	7
1.29600	7
1.29967	6
1.30333	6
1.30700	6
1.31067	6
1.31433	5
1.31800	6
1.32167	8
1.32533	8
1.32900	7
1.33267	7
1.33633	7
1.34000	7
1.34367	9
1.34733	10
1.35100	10
1.35467	10
1.35833	10
1.36200	11
1.36567	13
1.36933	13
1.37300	12
1.37667	11
1.38033	13
1.38400	13
1.38767	12
1.39133	11
1.39500	9
1.39867	10
1.40233	8
1.40600	6
1.40967	6
1.41333	8
1.41700	10
1.42067	10
1.42433	9
1.42800	9
1.43167	10
1.43533	10
1.43900	9
1.44267	9
1.44633	9
1.45000	10
1.45367	13
1.45733	15
1.46100	13
1.46467	11
1.46833	9
1.47200	9
1.47567	11
1.47933	12
1.48300	11
1.48667	11
1.49033	9
1.49400	10
1.49767	11
1.50133	11
1.50500	12
1.50867	14
1.51233	15
1.51600	15
1.51967	15
1.52333	14
1.52700	15
1.53067	16
1.53433	17
1.53800	16
1.54167	14
1.54533	12
1.54900	12
1.55267	11
1.55633	9
1.56000	7
1.56367	6
1.56733	7
1.57100	6
1.57467	6
1.57833	8
1.58200	9
1.58567	9
1.58933	11
1.59300	12
1.59667	14
1.60033	15
1.60400	16
1.60767	18
1.61133	19
1.61500	19
1.61867	18
1.62233	16
1.62600	15
1.62967	14
1.63333	12
1.63700	13
1.64067	15
1.64433	15
1.64800	14
1.65167	14
1.65533	15
1.65900	16
1.66267	17
1.66633	17
1.67000	18
1.67367	19
1.67733	19
1.68100	19
1.68467	20
1.68833	23
1.69200	24
1.69567	22
1.69933	19
1.70300	20
1.70667	21
1.71033	21
1.71400	20
1.71767	20
1.72133	19
1.72500	18
1.72867	18
1.73233	19
1.73600	21
1.73967	20
1.74333	20
1.74700	21
1.75067	20
1.75433	19
1.75800	21
1.76167	22
1.76533	23
1.76900	25
1.77267	26
1.77633	24
1.78000	25
1.78367	28
1.78733	27
1.79100	27
1.79467	27
1.79833	26
1.80200	24
1.80567	24
1.80933	27
1.81300	28
1.81667	27
1.82033	26
1.82400	27
1.82767	29
1.83133	30
1.83500	30
1.83867	30
1.84233	30
1.84600	33
1.84967	36
1.85333	37
1.85700	36
1.86067	36
1.86433	35
1.86800	37
1.87167	40
1.87533	41
1.87900	41
1.88267	40
1.88633	37
1.89000	34
1.89367	34
1.89733	35
1.90100	38
1.90467	39
1.90833	39
1.91200	40
1.91567	40
1.91933	41
1.92300	40
1.92667	38
1.93033	38
1.93400	38
1.93767	39
1.94133	40
1.94500	41
1.94867	42
1.95233	45
1.95600	47
1.95967	51
1.96333	52
1.96700	52
1.97067	50
1.97433	49
1.97800	49
1.98167	50
1.98533	55
1.98900	57
1.99267	60
1.99633	61
2.00000	60
2.00367	60
2.00733	61
2.01100	62
2.01467	61
2.01833	61
2.02200	63
2.02567	67
2.02933	69
2.03300	71
2.03667	73
2.04033	72
2.04400	71
2.04767	69
2.05133	70
2.05500	71
2.05867	73
2.06233	74
2.06600	74
2.06967	75
2.07333	74
2.07700	73
2.08067	73
2.08433	76
2.08800	76
2.09167	78
2.09533	80
2.09900	80
2.10267	80
2.10633	80
2.11000	82
2.11367	84
2.11733	87
2.12100	88
2.12467	87
2.12833	86
2.13200	86
2.13567	87
2.13933	87
2.14300	88
2.14667	90
2.15033	93
2.15400	97
2.15767	99
2.16133	100
2.16500	102
2.16867	104
2.17233	105
2.17600	106
2.17967	106
2.18333	106
2.18700	107
2.19067	108
2.19433	110
2.19800	110
2.20167	112
2.20533	114
2.20900	117
2.21267	119
2.21633	123
2.22000	125
2.22367	127
2.22733	127
2.23100	127
2.23467	126
2.23833	127
2.24200	127
2.24567	128
2.24933	129
2.25300	131
2.25667	131
2.26033	132
2.26400	134
2.26767	137
2.27133	140
2.27500	143
2.27867	146
2.28233	148
2.28600	151
2.28967	153
2.29333	154
2.29700	157
2.30067	157
2.30433	156
2.30800	159
2.31167	163
2.31533	167
2.31900	169
2.32267	172
2.32633	173
2.33000	174
2.33367	174
2.33733	174
2.34100	174
2.34467	176
2.34833	179
2.35200	181
2.35567	183
2.35933	183
2.36300	183
2.36667	183
2.37033	184
2.37400	185
2.37767	186
2.38133	188
2.38500	190
2.38867	190
2.39233	191
2.39600	194
2.39967	198
2.40333	202
2.40700	204
2.41067	206
2.41433	210
2.41800	212
2.42167	215
2.42533	219
2.42900	221
2.43267	224
2.43633	228
2.44000	232
2.44367	278
2.44733	398
2.45100	531
2.45467	640
2.45833	711
2.46200	729
2.46567	710
2.46933	681
2.47300	657
2.47667	644
2.48033	637
2.48400	626
2.48767	604
2.49133	573
2.49500	540
2.49867	509
2.50233	485
2.50600	467
2.50967	458
2.51333	454
2.51700	458
2.52067	467
2.52433	482
2.52800	497
2.53167	511
2.53533	518
2.53900	517
2.54267	512
2.54633	499
2.55000	481
2.55367	461
2.55733	442
2.56100	424
2.56467	407
2.56833	394
2.57200	385
2.57567	380
2.57933	376
2.58300	374
2.58667	373
2.59033	372
2.59400	368
2.59767	364
2.60133	357
2.60500	347
2.60867	333
2.61233	317
2.61600	297
2.61967	279
2.62333	262
2.62700	246
2.63067	236
2.63433	230
2.63800	229
2.64167	232
2.64533	237
2.64900	244
2.65267	253
2.65633	262
2.66000	268
2.66367	272
2.66733	276
2.67100	277
2.67467	279
2.67833	280
2.68200	280
2.68567	276
2.68933	269
2.69300	264
2.69667	259
2.70033	256
2.70400	252
2.70767	248
2.71133	246
2.71500	244
2.71867	241
2.72233	238
2.72600	237
2.72967	238
2.73333	241
2.73700	244
2.74067	245
2.74433	246
2.74800	247
2.75167	252
2.75533	256
2.75900	256
2.76267	257
2.76633	255
2.77000	253
2.77367	255
2.77733	259
2.78100	262
2.78467	261
2.78833	259
2.79200	260
2.79567	260
2.79933	259
2.80300	257
2.80667	255
2.81033	255
2.81400	256
2.81767	259
2.82133	266
2.82500	290
2.82867	342
2.83233	438
2.83600	603
2.83967	856
2.84333	1214
2.84700	1678
2.85067	2231
2.85433	2839
2.85800	3458
2.86167	4039
2.86533	4534
2.86900	4907
2.87267	5130
2.87633	5200
2.88000	5134
2.88367	4952
2.88733	4682
2.89100	4362
2.89467	4014
2.89833	3657
2.90200	3304
2.90567	2966
2.90933	2651
2.91300	2365
2.91667	2107
2.92033	1875
2.92400	1668
2.92767	1487
2.93133	1330
2.93500	1191
2.93867	1072
2.94233	970
2.94600	882
2.94967	802
2.95333	735
2.95700	677
2.96067	624
2.96433	578
2.96800	537
2.97167	503
2.97533	472
2.97900	447
2.98267	424
2.98633	403
2.99000	387
2.99367	372
2.99733	358
3.00100	344
3.00467	332
3.00833	322
3.01200	313
3.01567	304
3.01933	298
3.02300	292
3.02667	286
3.03033	280
3.03400	275
3.03767	272
3.04133	268
3.04500	264
3.04867	260
3.05233	256
3.05600	254
3.05967	250
3.06333	245
3.06700	236
3.07067	224
3.07433	219
3.07800	224
3.08167	237
3.08533	257
3.08900	280
3.09267	305
3.09633	333
3.10000	361
3.10367	389
3.10733	416
3.11100	439
3.11467	459
3.11833	478
3.12200	493
3.12567	507
3.12933	522
3.13300	534
3.13667	545
3.14033	552
3.14400	556
3.14767	562
3.15133	569
3.15500	575
3.15867	580
3.16233	584
3.16600	588
3.16967	592
3.17333	598
3.17700	605
3.18067	609
3.18433	611
3.18800	613
3.19167	615
3.19533	618
3.19900	622
3.20267	623
3.20633	624
3.21000	624
3.21367	625
3.21733	626
3.22100	629
3.22467	631
3.22833	632
3.23200	635
3.23567	636
3.23933	638
3.24300	640
3.24667	643
3.25033	644
3.25400	646
3.25767	647
3.26133	648
3.26500	649
3.26867	649
3.27233	648
3.27600	648
3.27967	649
3.28333	647
3.28700	646
3.29067	646
3.29433	646
3.29800	646
3.30167	647
3.30533	648
3.30900	648
3.31267	647
3.31633	648
3.32000	651
3.32367	656
3.32733	658
3.33100	657
3.33467	658
3.33833	657
3.34200	656
3.34567	656
3.34933	654
3.35300	653
3.35667	652
3.36033	652
3.36400	654
3.36767	657
3.37133	659
3.37500	662
3.37867	662
3.38233	661
3.38600	662
3.38967	661
3.39333	661
3.39700	661
3.40067	661
3.40433	662
3.40800	659
3.41167	658
3.41533	659
3.41900	660
3.42267	661
3.42633	661
3.43000	662
3.43367	663
3.43733	663
3.44100	662
3.44467	661
3.44833	659
3.45200	654
3.45567	651
3.45933	649
3.46300	648
3.46667	646
3.47033	645
3.47400	643
3.47767	640
3.48133	639
3.48500	640
3.48867	642
3.49233	644
3.49600	644
3.49967	643
3.50333	643
3.50700	642
3.51067	640
3.51433	637
3.51800	637
3.52167	635
3.52533	632
3.52900	632
3.53267	632
3.53633	629
3.54000	626
3.54367	621
3.54733	618
3.55100	615
3.55467	612
3.55833	613
3.56200	612
3.56567	611
3.56933	612
3.57300	613
3.57667	613
3.58033	610
3.58400	608
3.58767	608
3.59133	607
3.59500	606
3.59867	607
3.60233	609
3.60600	608
3.60967	606
3.61333	604
3.61700	605
3.62067	606
3.62433	607
3.62800	606
3.63167	604
3.63533	604
3.63900	604
3.64267	605
3.64633	604
3.65000	601
3.65367	600
3.65733	599
3.66100	600
3.66467	602
3.66833	603
3.67200	602
3.67567	599
3.67933	598
3.68300	596
3.68667	594
3.69033	592
3.69400	594
3.69767	596
3.70133	597
3.70500	598
3.70867	599
3.71233	598
3.71600	599
3.71967	601
3.72333	602
3.72700	602
3.73067	603
3.73433	604
3.73800	603
3.74167	601
3.74533	599
3.74900	597
3.75267	596
3.75633	595
3.76000	594
3.76367	594
3.76733	594
3.77100	595
3.77467	594
3.77833	593
3.78200	592
3.78567	589
3.78933	587
3.79300	588
3.79667	588
3.80033	584
3.80400	581
3.80767	579
3.81133	580
3.81500	581
3.81867	583
3.82233	585
3.82600	585
3.82967	583
3.83333	580
3.83700	576
3.84067	574
3.84433	573
3.84800	571
3.85167	570
3.85533	569
3.85900	568
3.86267	567
3.86633	564
3.87000	562
3.87367	561
3.87733	561
3.88100	561
3.88467	561
3.88833	559
3.89200	557
3.89567	559
3.89933	558
3.90300	556
3.90667	553
3.91033	553
3.91400	553
3.91767	551
3.92133	548
3.92500	546
3.92867	546
3.93233	544
3.93600	543
3.93967	542
3.94333	541
3.94700	539
3.95067	535
3.95433	532
3.95800	531
3.96167	531
3.96533	535
3.96900	535
3.97267	534
3.97633	531
3.98000	527
3.98367	527
3.98733	529
3.99100	529
3.99467	529
3.99833	525

[Status Trace (Column Oven Temperature)]
Interval(msec)	1000
# of Points	240
Start Time(min)	0.011
End Time(min)	3.994
Intensity Units	
Intensity Multiplier	1
R.Time (min)	Intensity
0.01095	35.03
0.02762	35.04
0.04428	35.05
0.06095	35.05
0.07762	35.05
0.09428	35.05
0.11095	35.05
0.12762	35.05
0.14428	35.04
0.16095	35.05
0.17762	35.04
0.19428	35.04
0.21095	35.04
0.22762	35.04
0.24428	35.04
0.26095	35.03
0.27762	35.04
0.29428	35.04
0.31095	35.04
0.32762	35.04
0.34428	35.04
0.36095	35.03
0.37762	35.02
0.39428	35.01
0.41095	35.00
0.42762	34.99
0.44428	34.99
0.46095	35.00
0.47762	35.01
0.49428	35.01
0.51095	35.01
0.52762	35.01
0.54428	34.99
0.56095	34.99
0.57762	35.00
0.59428	35.00
0.61095	35.01
0.62762	35.01
0.64428	35.00
0.66095	35.00
0.67762	35.01
0.69428	35.00
0.71095	34.99
0.72762	34.99
0.74428	35.00
0.76095	34.99
0.77762	34.99
0.79428	34.99
0.81095	35.00
0.82762	35.01
0.84428	35.02
0.86095	35.02
0.87762	35.03
0.89428	35.03
0.91095	35.03
0.92762	35.03
0.94428	35.01
0.96095	35.00
0.97762	35.01
0.99428	35.02
1.01095	35.01
1.02762	35.02
1.04428	35.02
1.06095	35.02
1.07762	35.01
1.09428	35.00
1.11095	34.99
1.12762	34.99
1.14428	35.00
1.16095	35.01
1.17762	35.01
1.19428	35.01
1.21095	35.00
1.22762	35.00
1.24428	35.00
1.26095	35.00
1.27762	35.00
1.29428	35.01
1.31095	35.01
1.32762	35.01
1.34428	35.00
1.36095	34.99
1.37762	34.98
1.39428	34.98
1.41095	34.97
1.42762	34.98
1.44428	34.98
1.46095	34.99
1.47762	34.99
1.49428	34.99
1.51095	34.98
1.52762	34.99
1.54428	35.00
1.56095	35.00
1.57762	35.01
1.59428	35.02
1.61095	35.09
1.62762	35.23
1.64428	35.43
1.66095	35.69
1.67762	36.05
1.69428	36.40
1.71095	36.74
1.72762	37.08
1.74428	37.41
1.76095	37.75
1.77762	38.07
1.79428	38.41
1.81095	38.73
1.82762	39.07
1.84428	39.39
1.86095	39.72
1.87762	40.04
1.89428	40.37
1.91095	40.69
1.92762	41.01
1.94428	41.36
1.96095	41.69
1.97762	42.00
1.99428	42.32
2.01095	42.65
2.02762	42.98
2.04428	43.30
2.06095	43.63
2.07762	43.95
2.09428	44.30
2.11095	44.63
2.12762	44.94
2.14428	45.28
2.16095	45.61
2.17762	45.93
2.19428	46.25
2.21095	46.58
2.22762	46.91
2.24428	47.23
2.26095	47.58
2.27762	47.88
2.29428	48.27
2.31095	48.60
2.32762	48.95
2.34428	49.24
2.36095	49.46
2.37762	49.59
2.39428	49.60
2.41095	49.60
2.42762	49.61
2.44428	49.67
2.46095	49.67
2.47762	49.69
2.49428	49.71
2.51095	49.72
2.52762	49.72
2.54428	49.73
2.56095	49.75
2.57762	49.76
2.59428	49.77
2.61095	49.80
2.62762	49.81
2.64428	49.81
2.66095	49.84
2.67762	49.83
2.69428	49.84
2.71095	49.84
2.72762	49.86
2.74428	49.88
2.76095	49.88
2.77762	49.87
2.79428	49.86
2.81095	49.85
2.82762	49.84
2.84428	49.87
2.86095	49.89
2.87762	49.91
2.89428	49.94
2.91095	49.94
2.92762	49.94
2.94428	49.95
2.96095	49.94
2.97762	49.94
2.99428	49.94
3.01095	49.94
3.02762	49.94
3.04428	49.95
3.06095	49.94
3.07762	49.94
3.09428	49.94
3.11095	49.94
3.12762	49.97
3.14428	49.99
3.16095	50.01
3.17762	50.01
3.19428	50.02
3.21095	50.04
3.22762	50.06
3.24428	50.06
3.26095	50.06
3.27762	50.07
3.29428	50.08
3.31095	50.08
3.32762	50.07
3.34428	50.07
3.36095	50.08
3.37762	50.09
3.39428	50.10
3.41095	50.11
3.42762	50.10
3.44428	50.10
3.46095	50.09
3.47762	50.09
3.49428	50.08
3.51095	50.07
3.52762	50.07
3.54428	50.06
3.56095	50.05
3.57762	50.04
3.59428	50.04
3.61095	50.04
3.62762	50.05
3.64428	50.05
3.66095	50.06
3.67762	50.06
3.69428	50.06
3.71095	50.06
3.72762	50.07
3.74428	50.07
3.76095	50.07
3.77762	50.07
3.79428	50.06
3.81095	50.05
3.82762	50.05
3.84428	50.05
3.86095	50.04
3.87762	50.04
3.89428	50.05
3.91095	50.05
3.92762	50.05
3.94428	50.05
3.96095	50.05
3.97762	50.05
3.99428	50.06

[Status Trace (Injection Unit Temperature)]
Interval(msec)	1000
# of Points	240
Start Time(min)	0.011
End Time(min)	3.994
Intensity Units	
Intensity Multiplier	1
R.Time (min)	Intensity
0.01095	99.98
0.02762	99.98
0.04428	99.98
0.06095	99.98
0.07762	99.98
0.09428	99.98
0.11095	99.98
0.12762	99.98
0.14428	99.98
0.16095	99.98
0.17762	99.98
0.19428	99.98
0.21095	99.98
0.22762	99.98
0.24428	99.98
0.26095	99.98
0.27762	99.98
0.29428	99.98
0.31095	99.98
0.32762	99.99
0.34428	99.98
0.36095	99.99
0.37762	99.99
0.39428	99.98
0.41095	99.98
0.42762	99.99
0.44428	99.98
0.46095	99.98
0.47762	99.98
0.49428	99.98
0.51095	99.98
0.52762	99.98
0.54428	99.99
0.56095	99.99
0.57762	99.98
0.59428	99.98
0.61095	99.98
0.62762	99.99
0.64428	99.98
0.66095	99.99
0.67762	99.99
0.69428	99.99
0.71095	99.99
0.72762	99.99
0.74428	99.99
0.76095	99.98
0.77762	99.99
0.79428	99.99
0.81095	99.99
0.82762	99.99
0.84428	99.98
0.86095	99.99
0.87762	99.98
0.89428	99.99
0.91095	99.99
0.92762	99.99
0.94428	99.99
0.96095	99.99
0.97762	99.99
0.99428	99.99
1.01095	99.99
1.02762	99.98
1.04428	99.98
1.06095	99.98
1.07762	99.98
1.09428	99.98
1.11095	99.98
1.12762	99.98
1.14428	99.99
1.16095	99.98
1.17762	99.98
1.19428	99.98
1.21095	99.98
1.22762	99.98
1.24428	99.98
1.26095	99.99
1.27762	99.98
1.29428	99.98
1.31095	99.98
1.32762	99.98
1.34428	99.98
1.36095	99.98
1.37762	99.98
1.39428	99.99
1.41095	99.98
1.42762	99.98
1.44428	99.98
1.46095	99.98
1.47762	99.98
1.49428	99.98
1.51095	99.99
1.52762	99.98
1.54428	99.99
1.56095	99.98
1.57762	99.98
1.59428	99.98
1.61095	99.98
1.62762	99.99
1.64428	99.99
1.66095	99.98
1.67762	99.98
1.69428	99.98
1.71095	99.98
1.72762	99.98
1.74428	99.98
1.76095	99.98
1.77762	99.98
1.79428	99.98
1.81095	99.99
1.82762	99.98
1.84428	99.98
1.86095	99.98
1.87762	99.98
1.89428	99.98
1.91095	99.98
1.92762	99.98
1.94428	99.98
1.96095	99.98
1.97762	99.98
1.99428	99.98
2.01095	99.97
2.02762	99.97
2.04428	99.97
2.06095	99.97
2.07762	99.97
2.09428	99.97
2.11095	99.97
2.12762	99.97
2.14428	99.97
2.16095	99.97
2.17762	99.97
2.19428	99.96
2.21095	99.96
2.22762	99.96
2.24428	99.96
2.26095	99.96
2.27762	99.96
2.29428	99.96
2.31095	99.96
2.32762	99.96
2.34428	99.96
2.36095	99.96
2.37762	99.96
2.39428	99.96
2.41095	99.97
2.42762	99.96
2.44428	99.96
2.46095	99.96
2.47762	99.96
2.49428	99.96
2.51095	99.96
2.52762	99.97
2.54428	99.97
2.56095	99.97
2.57762	99.97
2.59428	99.97
2.61095	99.97
2.62762	99.97
2.64428	99.98
2.66095	99.98
2.67762	99.98
2.69428	99.98
2.71095	99.98
2.72762	99.98
2.74428	99.99
2.76095	99.98
2.77762	99.98
2.79428	99.98
2.81095	99.99
2.82762	99.99
2.84428	100.00
2.86095	100.00
2.87762	100.00
2.89428	100.00
2.91095	100.00
2.92762	100.00
2.94428	100.00
2.96095	100.01
2.97762	100.01
2.99428	100.01
3.01095	100.01
3.02762	100.01
3.04428	100.01
3.06095	100.01
3.07762	100.01
3.09428	100.02
3.11095	100.02
3.12762	100.02
3.14428	100.02
3.16095	100.02
3.17762	100.02
3.19428	100.03
3.21095	100.03
3.22762	100.03
3.24428	100.02
3.26095	100.03
3.27762	100.03
3.29428	100.03
3.31095	100.03
3.32762	100.03
3.34428	100.03
3.36095	100.04
3.37762	100.04
3.39428	100.04
3.41095	100.04
3.42762	100.04
3.44428	100.04
3.46095	100.04
3.47762	100.04
3.49428	100.04
3.51095	100.04
3.52762	100.04
3.54428	100.05
3.56095	100.04
3.57762	100.04
3.59428	100.05
3.61095	100.04
3.62762	100.04
3.64428	100.04
3.66095	100.04
3.67762	100.05
3.69428	100.04
3.71095	100.05
3.72762	100.05
3.74428	100.05
3.76095	100.05
3.77762	100.04
3.79428	100.05
3.81095	100.05
3.82762	100.05
3.84428	100.05
3.86095	100.05
3.87762	100.05
3.89428	100.05
3.91095	100.05
3.92762	100.05
3.94428	100.05
3.96095	100.05
3.97762	100.05
3.99428	100.05

[Status Trace (Carrier Gas Pressure)]
Interval(msec)	1000
# of Points	240
Start Time(min)	0.011
End Time(min)	3.994
Intensity Units	
Intensity Multiplier	1
R.Time (min)	Intensity
0.01095	58.00
0.02762	55.03
0.04428	57.58
0.06095	59.57
0.07762	59.03
0.09428	58.00
0.11095	57.99
0.12762	58.01
0.14428	58.01
0.16095	58.01
0.17762	58.00
0.19428	58.00
0.21095	58.00
0.22762	58.00
0.24428	58.00
0.26095	58.00
0.27762	58.00
0.29428	58.00
0.31095	58.00
0.32762	58.00
0.34428	58.00
0.36095	58.00
0.37762	58.00
0.39428	58.00
0.41095	58.00
0.42762	58.00
0.44428	58.00
0.46095	58.00
0.47762	58.00
0.49428	58.00
0.51095	58.00
0.52762	58.00
0.54428	58.00
0.56095	58.00
0.57762	58.00
0.59428	58.00
0.61095	58.00
0.62762	58.00
0.64428	58.00
0.66095	58.00
0.67762	58.00
0.69428	58.00
0.71095	58.00
0.72762	58.00
0.74428	58.00
0.76095	58.00
0.77762	58.00
0.79428	58.00
0.81095	58.00
0.82762	58.00
0.84428	58.00
0.86095	58.00
0.87762	58.00
0.89428	58.00
0.91095	58.00
0.92762	58.00
0.94428	58.00
0.96095	58.00
0.97762	58.00
0.99428	58.00
1.01095	58.00
1.02762	58.00
1.04428	58.00
1.06095	58.00
1.07762	58.00
1.09428	58.00
1.11095	58.00
1.12762	58.00
1.14428	58.00
1.16095	58.00
1.17762	58.00
1.19428	58.00
1.21095	58.00
1.22762	58.00
1.24428	58.00
1.26095	58.00
1.27762	58.00
1.29428	58.00
1.31095	58.00
1.32762	58.00
1.34428	58.00
1.36095	58.00
1.37762	58.00
1.39428	58.00
1.41095	58.00
1.42762	58.00
1.44428	58.00
1.46095	58.00
1.47762	58.00
1.49428	58.00
1.51095	58.00
1.52762	58.00
1.54428	58.00
1.56095	58.00
1.57762	58.00
1.59428	58.00
1.61095	58.00
1.62762	58.00
1.64428	58.00
1.66095	58.00
1.67762	58.01
1.69428	58.00
1.71095	58.00
1.72762	58.00
1.74428	58.00
1.76095	58.00
1.77762	58.00
1.79428	58.00
1.81095	58.00
1.82762	58.00
1.84428	58.00
1.86095	58.00
1.87762	58.00
1.89428	58.00
1.91095	58.00
1.92762	58.00
1.94428	58.00
1.96095	58.00
1.97762	58.00
1.99428	58.00
2.01095	58.00
2.02762	58.00
2.04428	58.00
2.06095	58.00
2.07762	58.00
2.09428	58.00
2.11095	58.00
2.12762	58.00
2.14428	58.00
2.16095	58.00
2.17762	58.00
2.19428	58.00
2.21095	58.00
2.22762	58.00
2.24428	58.00
2.26095	58.00
2.27762	58.00
2.29428	58.00
2.31095	58.00
2.32762	58.00
2.34428	58.00
2.36095	58.00
2.37762	58.00
2.39428	57.99
2.41095	58.00
2.42762	58.00
2.44428	58.00
2.46095	58.00
2.47762	58.00
2.49428	58.00
2.51095	57.99
2.52762	57.99
2.54428	58.00
2.56095	58.00
2.57762	58.00
2.59428	58.00
2.61095	58.00
2.62762	58.00
2.64428	58.00
2.66095	58.00
2.67762	58.00
2.69428	58.00
2.71095	58.00
2.72762	58.00
2.74428	58.00
2.76095	58.00
2.77762	58.00
2.79428	58.00
2.81095	58.00
2.82762	58.00
2.84428	58.00
2.86095	58.00
2.87762	58.00
2.89428	58.00
2.91095	58.00
2.92762	58.00
2.94428	58.00
2.96095	58.00
2.97762	58.00
2.99428	58.00
3.01095	58.00
3.02762	58.00
3.04428	58.00
3.06095	58.00
3.07762	58.00
3.09428	58.00
3.11095	58.00
3.12762	58.00
3.14428	58.00
3.16095	58.00
3.17762	58.00
3.19428	58.00
3.21095	58.00
3.22762	58.00
3.24428	58.00
3.26095	58.00
3.27762	58.00
3.29428	58.00
3.31095	58.00
3.32762	58.00
3.34428	58.00
3.36095	58.00
3.37762	58.00
3.39428	58.00
3.41095	58.00
3.42762	58.00
3.44428	58.00
3.46095	58.00
3.47762	58.00
3.49428	58.00
3.51095	58.00
3.52762	58.00
3.54428	58.00
3.56095	58.00
3.57762	58.00
3.59428	58.00
3.61095	58.00
3.62762	58.00
3.64428	58.00
3.66095	58.00
3.67762	58.00
3.69428	58.00
3.71095	58.00
3.72762	58.00
3.74428	58.00
3.76095	58.00
3.77762	58.00
3.79428	58.00
3.81095	58.00
3.82762	58.00
3.84428	58.00
3.86095	58.00
3.87762	58.00
3.89428	58.00
3.91095	58.00
3.92762	58.00
3.94428	58.00
3.96095	58.00
3.97762	58.00
3.99428	58.00

[Status Trace (Carrier Gas Flow)]
Interval(msec)	1000
# of Points	240
Start Time(min)	0.011
End Time(min)	3.994
Intensity Units	
Intensity Multiplier	1
R.Time (min)	Intensity
0.01095	34.52
0.02762	34.53
0.04428	34.54
0.06095	34.54
0.07762	34.51
0.09428	34.52
0.11095	34.52
0.12762	34.52
0.14428	34.52
0.16095	34.52
0.17762	34.52
0.19428	34.52
0.21095	34.52
0.22762	34.51
0.24428	34.51
0.26095	34.52
0.27762	34.52
0.29428	34.52
0.31095	34.52
0.32762	34.52
0.34428	34.52
0.36095	34.52
0.37762	34.52
0.39428	34.52
0.41095	34.51
0.42762	34.52
0.44428	34.51
0.46095	34.52
0.47762	34.52
0.49428	34.52
0.51095	34.52
0.52762	34.52
0.54428	34.52
0.56095	34.52
0.57762	34.52
0.59428	34.52
0.61095	34.52
0.62762	34.52
0.64428	34.52
0.66095	34.52
0.67762	34.52
0.69428	34.52
0.71095	34.51
0.72762	34.52
0.74428	34.51
0.76095	34.52
0.77762	34.52
0.79428	34.52
0.81095	34.52
0.82762	34.52
0.84428	34.52
0.86095	34.52
0.87762	34.52
0.89428	34.52
0.91095	34.51
0.92762	34.52
0.94428	34.51
0.96095	34.52
0.97762	34.52
0.99428	34.52
1.01095	34.52
1.02762	34.52
1.04428	34.52
1.06095	34.52
1.07762	34.52
1.09428	34.52
1.11095	34.52
1.12762	34.52
1.14428	34.52
1.16095	34.51
1.17762	34.52
1.19428	34.52
1.21095	34.52
1.22762	34.52
1.24428	34.52
1.26095	34.52
1.27762	34.52
1.29428	34.52
1.31095	34.52
1.32762	34.52
1.34428	34.52
1.36095	34.52
1.37762	34.52
1.39428	34.52
1.41095	34.52
1.42762	34.52
1.44428	34.52
1.46095	34.52
1.47762	34.52
1.49428	34.52
1.51095	34.52
1.52762	34.52
1.54428	34.52
1.56095	34.52
1.57762	34.52
1.59428	34.52
1.61095	34.52
1.62762	34.52
1.64428	34.52
1.66095	34.53
1.67762	34.53
1.69428	34.52
1.71095	34.52
1.72762	34.52
1.74428	34.52
1.76095	34.52
1.77762	34.52
1.79428	34.51
1.81095	34.52
1.82762	34.52
1.84428	34.52
1.86095	34.52
1.87762	34.52
1.89428	34.52
1.91095	34.52
1.92762	34.52
1.94428	34.52
1.96095	34.52
1.97762	34.52
1.99428	34.52
2.01095	34.52
2.02762	34.52
2.04428	34.52
2.06095	34.52
2.07762	34.52
2.09428	34.52
2.11095	34.52
2.12762	34.52
2.14428	34.52
2.16095	34.52
2.17762	34.52
2.19428	34.51
2.21095	34.52
2.22762	34.52
2.24428	34.52
2.26095	34.51
2.27762	34.52
2.29428	34.52
2.31095	34.52
2.32762	34.52
2.34428	34.52
2.36095	34.51
2.37762	34.52
2.39428	34.52
2.41095	34.52
2.42762	34.52
2.44428	34.52
2.46095	34.52
2.47762	34.51
2.49428	34.51
2.51095	34.52
2.52762	34.52
2.54428	34.52
2.56095	34.52
2.57762	34.52
2.59428	34.52
2.61095	34.51
2.62762	34.52
2.64428	34.52
2.66095	34.51
2.67762	34.51
2.69428	34.52
2.71095	34.52
2.72762	34.52
2.74428	34.52
2.76095	34.52
2.77762	34.52
2.79428	34.52
2.81095	34.52
2.82762	34.52
2.84428	34.52
2.86095	34.52
2.87762	34.51
2.89428	34.52
2.91095	34.52
2.92762	34.52
2.94428	34.52
2.96095	34.51
2.97762	34.52
2.99428	34.52
3.01095	34.51
3.02762	34.52
3.04428	34.52
3.06095	34.52
3.07762	34.51
3.09428	34.51
3.11095	34.52
3.12762	34.52
3.14428	34.52
3.16095	34.52
3.17762	34.52
3.19428	34.52
3.21095	34.52
3.22762	34.52
3.24428	34.52
3.26095	34.51
3.27762	34.52
3.29428	34.51
3.31095	34.52
3.32762	34.52
3.34428	34.51
3.36095	34.52
3.37762	34.52
3.39428	34.52
3.41095	34.52
3.42762	34.52
3.44428	34.52
3.46095	34.52
3.47762	34.52
3.49428	34.52
3.51095	34.52
3.52762	34.52
3.54428	34.52
3.56095	34.51
3.57762	34.52
3.59428	34.52
3.61095	34.52
3.62762	34.52
3.64428	34.52
3.66095	34.52
3.67762	34.52
3.69428	34.52
3.71095	34.52
3.72762	34.52
3.74428	34.52
3.76095	34.52
3.77762	34.52
3.79428	34.52
3.81095	34.52
3.82762	34.52
3.84428	34.52
3.86095	34.52
3.87762	34.52
3.89428	34.52
3.91095	34.52
3.92762	34.52
3.94428	34.52
3.96095	34.52
3.97762	34.52
3.99428	34.52

[Status Trace (Column Flow)]
Interval(msec)	1000
# of Points	240
Start Time(min)	0.011
End Time(min)	3.994
Intensity Units	
Intensity Multiplier	1
R.Time (min)	Intensity
0.01095	5.51
0.02762	5.17
0.04428	5.46
0.06095	5.69
0.07762	5.63
0.09428	5.51
0.11095	5.51
0.12762	5.51
0.14428	5.51
0.16095	5.51
0.17762	5.51
0.19428	5.51
0.21095	5.51
0.22762	5.51
0.24428	5.51
0.26095	5.51
0.27762	5.51
0.29428	5.51
0.31095	5.51
0.32762	5.51
0.34428	5.51
0.36095	5.51
0.37762	5.51
0.39428	5.51
0.41095	5.51
0.42762	5.51
0.44428	5.51
0.46095	5.51
0.47762	5.51
0.49428	5.51
0.51095	5.51
0.52762	5.51
0.54428	5.51
0.56095	5.51
0.57762	5.51
0.59428	5.51
0.61095	5.51
0.62762	5.51
0.64428	5.51
0.66095	5.51
0.67762	5.51
0.69428	5.51
0.71095	5.51
0.72762	5.51
0.74428	5.51
0.76095	5.51
0.77762	5.51
0.79428	5.51
0.81095	5.51
0.82762	5.51
0.84428	5.51
0.86095	5.51
0.87762	5.51
0.89428	5.51
0.91095	5.51
0.92762	5.51
0.94428	5.51
0.96095	5.51
0.97762	5.51
0.99428	5.51
1.01095	5.51
1.02762	5.51
1.04428	5.51
1.06095	5.51
1.07762	5.51
1.09428	5.51
1.11095	5.51
1.12762	5.51
1.14428	5.51
1.16095	5.51
1.17762	5.51
1.19428	5.51
1.21095	5.51
1.22762	5.51
1.24428	5.51
1.26095	5.51
1.27762	5.51
1.29428	5.51
1.31095	5.51
1.32762	5.51
1.34428	5.51
1.36095	5.51
1.37762	5.51
1.39428	5.51
1.41095	5.51
1.42762	5.51
1.44428	5.51
1.46095	5.51
1.47762	5.51
1.49428	5.51
1.51095	5.51
1.52762	5.51
1.54428	5.51
1.56095	5.51
1.57762	5.51
1.59428	5.51
1.61095	5.51
1.62762	5.51
1.64428	5.50
1.66095	5.49
1.67762	5.48
1.69428	5.47
1.71095	5.46
1.72762	5.45
1.74428	5.44
1.76095	5.43
1.77762	5.42
1.79428	5.41
1.81095	5.40
1.82762	5.39
1.84428	5.38
1.86095	5.37
1.87762	5.36
1.89428	5.35
1.91095	5.34
1.92762	5.33
1.94428	5.32
1.96095	5.31
1.97762	5.30
1.99428	5.29
2.01095	5.28
2.02762	5.27
2.04428	5.26
2.06095	5.25
2.07762	5.24
2.09428	5.23
2.11095	5.22
2.12762	5.21
2.14428	5.20
2.16095	5.19
2.17762	5.18
2.19428	5.18
2.21095	5.17
2.22762	5.16
2.24428	5.15
2.26095	5.14
2.27762	5.13
2.29428	5.12
2.31095	5.11
2.32762	5.10
2.34428	5.09
2.36095	5.09
2.37762	5.08
2.39428	5.08
2.41095	5.08
2.42762	5.08
2.44428	5.08
2.46095	5.08
2.47762	5.08
2.49428	5.08
2.51095	5.08
2.52762	5.08
2.54428	5.08
2.56095	5.08
2.57762	5.08
2.59428	5.08
2.61095	5.08
2.62762	5.08
2.64428	5.08
2.66095	5.07
2.67762	5.07
2.69428	5.07
2.71095	5.07
2.72762	5.07
2.74428	5.07
2.76095	5.07
2.77762	5.07
2.79428	5.07
2.81095	5.07
2.82762	5.07
2.84428	5.07
2.86095	5.07
2.87762	5.07
2.89428	5.07
2.91095	5.07
2.92762	5.07
2.94428	5.07
2.96095	5.07
2.97762	5.07
2.99428	5.07
3.01095	5.07
3.02762	5.07
3.04428	5.07
3.06095	5.07
3.07762	5.07
3.09428	5.07
3.11095	5.07
3.12762	5.07
3.14428	5.07
3.16095	5.07
3.17762	5.07
3.19428	5.07
3.21095	5.07
3.22762	5.07
3.24428	5.07
3.26095	5.07
3.27762	5.07
3.29428	5.07
3.31095	5.07
3.32762	5.07
3.34428	5.07
3.36095	5.07
3.37762	5.07
3.39428	5.07
3.41095	5.07
3.42762	5.07
3.44428	5.07
3.46095	5.07
3.47762	5.07
3.49428	5.07
3.51095	5.07
3.52762	5.07
3.54428	5.07
3.56095	5.07
3.57762	5.07
3.59428	5.07
3.61095	5.07
3.62762	5.07
3.64428	5.07
3.66095	5.07
3.67762	5.07
3.69428	5.07
3.71095	5.07
3.72762	5.07
3.74428	5.07
3.76095	5.07
3.77762	5.07
3.79428	5.07
3.81095	5.07
3.82762	5.07
3.84428	5.07
3.86095	5.07
3.87762	5.07
3.89428	5.07
3.91095	5.07
3.92762	5.07
3.94428	5.07
3.96095	5.07
3.97762	5.07
3.99428	5.07

[Status Trace (Linear Velocity)]
Interval(msec)	1000
# of Points	240
Start Time(min)	0.011
End Time(min)	3.994
Intensity Units	
Intensity Multiplier	1
R.Time (min)	Intensity
0.01095	39.01
0.02762	37.06
0.04428	38.74
0.06095	40.04
0.07762	39.68
0.09428	39.01
0.11095	39.00
0.12762	39.02
0.14428	39.01
0.16095	39.01
0.17762	39.01
0.19428	39.01
0.21095	39.01
0.22762	39.01
0.24428	39.01
0.26095	39.01
0.27762	39.01
0.29428	39.01
0.31095	39.01
0.32762	39.01
0.34428	39.01
0.36095	39.01
0.37762	39.01
0.39428	39.01
0.41095	39.01
0.42762	39.02
0.44428	39.02
0.46095	39.02
0.47762	39.01
0.49428	39.01
0.51095	39.01
0.52762	39.01
0.54428	39.01
0.56095	39.02
0.57762	39.02
0.59428	39.01
0.61095	39.01
0.62762	39.01
0.64428	39.01
0.66095	39.01
0.67762	39.01
0.69428	39.01
0.71095	39.02
0.72762	39.02
0.74428	39.02
0.76095	39.02
0.77762	39.01
0.79428	39.02
0.81095	39.02
0.82762	39.01
0.84428	39.01
0.86095	39.01
0.87762	39.01
0.89428	39.01
0.91095	39.01
0.92762	39.01
0.94428	39.01
0.96095	39.01
0.97762	39.01
0.99428	39.01
1.01095	39.01
1.02762	39.01
1.04428	39.01
1.06095	39.01
1.07762	39.01
1.09428	39.01
1.11095	39.02
1.12762	39.02
1.14428	39.01
1.16095	39.01
1.17762	39.01
1.19428	39.01
1.21095	39.01
1.22762	39.01
1.24428	39.01
1.26095	39.01
1.27762	39.01
1.29428	39.01
1.31095	39.01
1.32762	39.01
1.34428	39.01
1.36095	39.01
1.37762	39.02
1.39428	39.02
1.41095	39.02
1.42762	39.02
1.44428	39.02
1.46095	39.02
1.47762	39.02
1.49428	39.02
1.51095	39.02
1.52762	39.02
1.54428	39.01
1.56095	39.01
1.57762	39.01
1.59428	39.01
1.61095	39.01
1.62762	38.99
1.64428	38.98
1.66095	38.95
1.67762	38.92
1.69428	38.88
1.71095	38.85
1.72762	38.82
1.74428	38.78
1.76095	38.76
1.77762	38.72
1.79428	38.69
1.81095	38.66
1.82762	38.63
1.84428	38.60
1.86095	38.57
1.87762	38.54
1.89428	38.51
1.91095	38.48
1.92762	38.45
1.94428	38.41
1.96095	38.39
1.97762	38.35
1.99428	38.32
2.01095	38.30
2.02762	38.26
2.04428	38.23
2.06095	38.21
2.07762	38.17
2.09428	38.14
2.11095	38.12
2.12762	38.08
2.14428	38.05
2.16095	38.03
2.17762	37.99
2.19428	37.96
2.21095	37.94
2.22762	37.91
2.24428	37.88
2.26095	37.85
2.27762	37.82
2.29428	37.79
2.31095	37.76
2.32762	37.72
2.34428	37.70
2.36095	37.68
2.37762	37.66
2.39428	37.66
2.41095	37.66
2.42762	37.66
2.44428	37.66
2.46095	37.66
2.47762	37.66
2.49428	37.66
2.51095	37.65
2.52762	37.65
2.54428	37.65
2.56095	37.65
2.57762	37.65
2.59428	37.65
2.61095	37.65
2.62762	37.65
2.64428	37.65
2.66095	37.64
2.67762	37.64
2.69428	37.64
2.71095	37.64
2.72762	37.64
2.74428	37.64
2.76095	37.64
2.77762	37.64
2.79428	37.64
2.81095	37.64
2.82762	37.64
2.84428	37.64
2.86095	37.64
2.87762	37.64
2.89428	37.64
2.91095	37.64
2.92762	37.64
2.94428	37.64
2.96095	37.64
2.97762	37.64
2.99428	37.64
3.01095	37.64
3.02762	37.64
3.04428	37.64
3.06095	37.64
3.07762	37.64
3.09428	37.64
3.11095	37.64
3.12762	37.63
3.14428	37.63
3.16095	37.63
3.17762	37.63
3.19428	37.63
3.21095	37.63
3.22762	37.63
3.24428	37.62
3.26095	37.62
3.27762	37.62
3.29428	37.62
3.31095	37.62
3.32762	37.62
3.34428	37.62
3.36095	37.62
3.37762	37.62
3.39428	37.62
3.41095	37.62
3.42762	37.62
3.44428	37.62
3.46095	37.62
3.47762	37.62
3.49428	37.62
3.51095	37.62
3.52762	37.62
3.54428	37.63
3.56095	37.63
3.57762	37.63
3.59428	37.63
3.61095	37.63
3.62762	37.63
3.64428	37.63
3.66095	37.63
3.67762	37.62
3.69428	37.63
3.71095	37.62
3.72762	37.62
3.74428	37.62
3.76095	37.62
3.77762	37.62
3.79428	37.63
3.81095	37.63
3.82762	37.63
3.84428	37.63
3.86095	37.63
3.87762	37.63
3.89428	37.63
3.91095	37.63
3.92762	37.63
3.94428	37.63
3.96095	37.63
3.97762	37.63
3.99428	37.63

