[Header]
Application Name	LabSolutions
Version	5.110
Data File Name	C:\Users\User\Desktop\GC Analyses\Jack\Nachusa Grasslands Sampling\T2 Timepoint July 12th\T2_07122022_018.gcd
Output Date	3/14/2023
Output Time	3:42:30 PM

[File Information]
Type	Data File
Generated	3/10/2023 2:18:48 PM
Generated by	System Administrator
Modified	3/10/2023 2:25:22 PM
Modified by	System Administrator

[Sample Information]
Operator Name	System Administrator
Acquired	3/10/2023 2:21:22 PM
Sample Type	0:Unknown
Level	0
Sample Name	018
Sample ID	018
ISTD Amount1	1
ISTD Amount2	1
ISTD Amount3	1
ISTD Amount4	1
ISTD Amount5	1
ISTD Amount6	1
ISTD Amount7	1
ISTD Amount8	1
ISTD Amount9	1
ISTD Amount10	1
ISTD Amount11	1
ISTD Amount12	1
ISTD Amount13	1
ISTD Amount14	1
ISTD Amount15	1
ISTD Amount16	1
ISTD Amount17	1
ISTD Amount18	1
ISTD Amount19	1
ISTD Amount20	1
ISTD Amount21	1
ISTD Amount22	1
ISTD Amount23	1
ISTD Amount24	1
ISTD Amount25	1
ISTD Amount26	1
ISTD Amount27	1
ISTD Amount28	1
ISTD Amount29	1
ISTD Amount30	1
ISTD Amount31	1
ISTD Amount32	1
Sample Amount	1
Dilution Factor	1
Vial#	17
Injection Volume	1
Injection Count	1
Bar Code	

[Original Files]
Data File	C:\Users\User\Desktop\GC Analyses\Jack\Nachusa Grasslands Sampling\T1 Timepoint July 12th\T2_07122022_018.gcd
Method File	C:\LabSolutions\Data\GHG_4min_2022\ghg3_togas_w_acet_4 min_new_int.gcm
Batch File	C:\LabSolutions\Data\AutoSamplerTesting\T2_07122022.gcb
Report Format File	c:\LabSolutions\System\DEFAULT.lsr

[File Description]


[Configuration]
Instrument Name	C0B7VH3-Instrument1
Instrument #	1
Line #	1
# of Detectors	3
Detector ID	DET#1	DET#2	DET#3
Detector Name	FID	PTCD	ECD
# of Channels	1	1	1

[Peak Table(Ch1)]
# of Peaks	3
Peak#	R.Time	I.Time	F.Time	Area	Height	A/H	Conc.	Mark	ID#	Name	k'	Plate #	Plate Ht.	Tailing	Resolution	Sep.Factor	Area Ratio	Height Ratio	Conc. %	Norm Conc.
1	1.476	1.435	1.538	28742	13747	2.091	202.917	   	1	CO	0.000	9540	15.723	1.310	0.000	0.000	0	0	29.141	29.141
2	1.567	1.538	1.622	4485	2205	2.034	86.712	 V 	2	CH4	0.062	10505	14.278	0.000	1.508	0.000	0	0	12.453	12.453
3	1.996	1.949	2.539	1620456	773579	2.095	406.691	   	3	CO2	0.353	17402	8.620	1.283	7.050	5.680	0	0	58.406	58.406

[Peak Table(Ch2)]
# of Peaks	0

[Peak Table(Ch3)]
# of Peaks	3
Peak#	R.Time	I.Time	F.Time	Area	Height	A/H	Conc.	Mark	ID#	Name	k'	Plate #	Plate Ht.	Tailing	Resolution	Sep.Factor	Area Ratio	Height Ratio	Conc. %	Norm Conc.
1	2.462	2.392	2.517	1636	521	3.141	0.000	   			0.000	9231	16.250	0.000	0.000	0.000	0	0	0.000	0.000
2	2.535	2.517	2.631	1068	290	3.683	0.000	 V 			0.030	4743	31.624	0.000	0.587	0.000	0	0	0.000	0.000
3	2.876	2.799	3.104	19002	5037	3.773	0.485	   	1	N2O	0.168	13443	11.159	1.649	2.767	5.650	0	0	100.000	100.000

[Compound Results(Ch1)]
# of IDs	6
ID#	Name	R.Time	Area	Height	Conc.	Curve	3rd	2nd	1st	Constant	Area Ratio	Height Ratio	Conc. %	Norm Conc.
1	CO	1.476	28742	13747	202.917	Linear	0.000000e+00	0.000000e+00	1.416423e+002	0.000000e+00	0	0	29.141	29.141
2	CH4	1.567	4485	2205	86.712	Linear	0.000000e+00	0.000000e+00	5.171738e+001	0.000000e+00	0	0	12.453	12.453
3	CO2	1.996	1620456	773579	406.691	Linear	0.000000e+00	0.000000e+00	3.984494e+003	0.000000e+00	0	0	58.406	58.406
4	Ethylene	0.000	0	0	0.000	Linear	0.000000e+00	0.000000e+00	0.000000e+00	0.000000e+00	0	0	0.000	0.000
5	Acetylene	0.000	0	0	0.000	Linear	0.000000e+00	0.000000e+00	0.000000e+00	0.000000e+00	0	0	0.000	0.000
6	Ethane	0.000	0	0	0.000	Linear	0.000000e+00	0.000000e+00	0.000000e+00	0.000000e+00	0	0	0.000	0.000

[Compound Results(Ch2)]
# of IDs	5
ID#	Name	R.Time	Area	Height	Conc.	Curve	3rd	2nd	1st	Constant	Area Ratio	Height Ratio	Conc. %	Norm Conc.
1	Hydrogen	0.000	0	0	0.000	Linear	0.000000e+00	0.000000e+00	0.000000e+00	0.000000e+00	0	0	0.000	0.000
2	Oxygen	0.000	0	0	0.000	Linear	0.000000e+00	0.000000e+00	0.000000e+00	0.000000e+00	0	0	0.000	0.000
3	Nitrogen	0.000	0	0	0.000	Linear	0.000000e+00	0.000000e+00	0.000000e+00	0.000000e+00	0	0	0.000	0.000
4	Methane	0.000	0	0	0.000	Linear	0.000000e+00	0.000000e+00	0.000000e+00	0.000000e+00	0	0	0.000	0.000
5	Carbon Monoxide	0.000	0	0	0.000	Linear	0.000000e+00	0.000000e+00	0.000000e+00	0.000000e+00	0	0	0.000	0.000

[Compound Results(Ch3)]
# of IDs	2
ID#	Name	R.Time	Area	Height	Conc.	Curve	3rd	2nd	1st	Constant	Area Ratio	Height Ratio	Conc. %	Norm Conc.
1	N2O	2.876	19002	5037	0.485	Linear	0.000000e+00	0.000000e+00	3.915173e+004	0.000000e+00	0	0	100.000	100.000
2	SF6	0.000	0	0	0.000	Linear	0.000000e+00	0.000000e+00	0.000000e+00	0.000000e+00	0	0	0.000	0.000

[Group Results(Ch1)]
# of Groups	0

[Group Results(Ch2)]
# of Groups	0

[Group Results(Ch3)]
# of Groups	0

[Chromatogram (Ch1)]
Interval(msec)	220
# of Points	1091
Start Time(min)	0.002
End Time(min)	3.998
R.Time (min)	Intensity
0.00167	24
0.00533	26
0.00900	29
0.01267	28
0.01633	22
0.02000	16
0.02367	15
0.02733	15
0.03100	13
0.03467	13
0.03833	13
0.04200	15
0.04567	19
0.04933	16
0.05300	13
0.05667	14
0.06033	21
0.06400	27
0.06767	31
0.07133	34
0.07500	40
0.07867	43
0.08233	40
0.08600	30
0.08967	16
0.09333	4
0.09700	-3
0.10067	-10
0.10433	-16
0.10800	-14
0.11167	-8
0.11533	-6
0.11900	-3
0.12267	2
0.12633	7
0.13000	11
0.13367	16
0.13733	24
0.14100	30
0.14467	34
0.14833	35
0.15200	31
0.15567	26
0.15933	21
0.16300	20
0.16667	18
0.17033	16
0.17400	19
0.17767	27
0.18133	33
0.18500	35
0.18867	36
0.19233	39
0.19600	40
0.19967	36
0.20333	32
0.20700	30
0.21067	30
0.21433	26
0.21800	23
0.22167	24
0.22533	25
0.22900	22
0.23267	21
0.23633	17
0.24000	12
0.24367	12
0.24733	14
0.25100	16
0.25467	19
0.25833	29
0.26200	38
0.26567	40
0.26933	39
0.27300	38
0.27667	36
0.28033	35
0.28400	32
0.28767	27
0.29133	26
0.29500	26
0.29867	26
0.30233	28
0.30600	31
0.30967	31
0.31333	30
0.31700	26
0.32067	25
0.32433	26
0.32800	23
0.33167	20
0.33533	17
0.33900	17
0.34267	20
0.34633	20
0.35000	15
0.35367	13
0.35733	16
0.36100	23
0.36467	29
0.36833	37
0.37200	46
0.37567	58
0.37933	65
0.38300	67
0.38667	63
0.39033	51
0.39400	35
0.39767	19
0.40133	8
0.40500	4
0.40867	6
0.41233	12
0.41600	20
0.41967	23
0.42333	24
0.42700	25
0.43067	25
0.43433	24
0.43800	26
0.44167	30
0.44533	34
0.44900	38
0.45267	44
0.45633	48
0.46000	51
0.46367	50
0.46733	44
0.47100	33
0.47467	23
0.47833	21
0.48200	27
0.48567	34
0.48933	41
0.49300	42
0.49667	35
0.50033	28
0.50400	23
0.50767	21
0.51133	19
0.51500	17
0.51867	18
0.52233	20
0.52600	22
0.52967	29
0.53333	37
0.53700	42
0.54067	42
0.54433	45
0.54800	48
0.55167	53
0.55533	53
0.55900	44
0.56267	32
0.56633	22
0.57000	15
0.57367	13
0.57733	17
0.58100	25
0.58467	30
0.58833	28
0.59200	19
0.59567	10
0.59933	3
0.60300	1
0.60667	0
0.61033	1
0.61400	4
0.61767	8
0.62133	10
0.62500	10
0.62867	10
0.63233	13
0.63600	16
0.63967	16
0.64333	15
0.64700	12
0.65067	6
0.65433	2
0.65800	4
0.66167	15
0.66533	30
0.66900	38
0.67267	41
0.67633	42
0.68000	39
0.68367	29
0.68733	20
0.69100	14
0.69467	6
0.69833	-8
0.70200	-17
0.70567	-20
0.70933	-15
0.71300	-9
0.71667	-8
0.72033	-9
0.72400	-5
0.72767	5
0.73133	14
0.73500	19
0.73867	22
0.74233	20
0.74600	16
0.74967	11
0.75333	9
0.75700	12
0.76067	16
0.76433	13
0.76800	1
0.77167	-9
0.77533	-11
0.77900	-7
0.78267	-1
0.78633	-1
0.79000	-2
0.79367	-3
0.79733	-3
0.80100	2
0.80467	4
0.80833	2
0.81200	4
0.81567	2
0.81933	-2
0.82300	-8
0.82667	-11
0.83033	-8
0.83400	4
0.83767	15
0.84133	24
0.84500	35
0.84867	47
0.85233	55
0.85600	54
0.85967	46
0.86333	32
0.86700	18
0.87067	4
0.87433	-9
0.87800	-15
0.88167	-16
0.88533	-15
0.88900	-14
0.89267	-13
0.89633	-12
0.90000	-11
0.90367	-13
0.90733	-12
0.91100	-9
0.91467	-7
0.91833	-6
0.92200	-5
0.92567	-0
0.92933	5
0.93300	7
0.93667	5
0.94033	-1
0.94400	-6
0.94767	-10
0.95133	-14
0.95500	-19
0.95867	-22
0.96233	-19
0.96600	-12
0.96967	-0
0.97333	13
0.97700	16
0.98067	10
0.98433	1
0.98800	-11
0.99167	-14
0.99533	-12
0.99900	-12
1.00267	-12
1.00633	-10
1.01000	-6
1.01367	2
1.01733	14
1.02100	21
1.02467	19
1.02833	12
1.03200	5
1.03567	-1
1.03933	-11
1.04300	-21
1.04667	-23
1.05033	-16
1.05400	-8
1.05767	-4
1.06133	-5
1.06500	-8
1.06867	-8
1.07233	-5
1.07600	1
1.07967	8
1.08333	11
1.08700	11
1.09067	10
1.09433	9
1.09800	6
1.10167	3
1.10533	-1
1.10900	-7
1.11267	-10
1.11633	-9
1.12000	-7
1.12367	-4
1.12733	-2
1.13100	-2
1.13467	-1
1.13833	2
1.14200	4
1.14567	2
1.14933	-3
1.15300	-8
1.15667	-10
1.16033	-6
1.16400	-1
1.16767	-0
1.17133	-2
1.17500	-6
1.17867	-9
1.18233	-9
1.18600	-10
1.18967	-15
1.19333	-18
1.19700	-16
1.20067	-16
1.20433	-13
1.20800	-6
1.21167	-2
1.21533	-4
1.21900	-7
1.22267	-11
1.22633	-9
1.23000	-3
1.23367	5
1.23733	11
1.24100	17
1.24467	19
1.24833	18
1.25200	17
1.25567	16
1.25933	17
1.26300	11
1.26667	3
1.27033	-4
1.27400	-8
1.27767	-7
1.28133	-5
1.28500	-3
1.28867	-2
1.29233	-1
1.29600	2
1.29967	3
1.30333	6
1.30700	10
1.31067	16
1.31433	24
1.31800	30
1.32167	37
1.32533	41
1.32900	44
1.33267	45
1.33633	38
1.34000	29
1.34367	25
1.34733	26
1.35100	27
1.35467	25
1.35833	21
1.36200	18
1.36567	14
1.36933	12
1.37300	12
1.37667	15
1.38033	16
1.38400	14
1.38767	12
1.39133	12
1.39500	13
1.39867	12
1.40233	12
1.40600	18
1.40967	24
1.41333	27
1.41700	27
1.42067	23
1.42433	17
1.42800	16
1.43167	19
1.43533	26
1.43900	46
1.44267	132
1.44633	358
1.45000	950
1.45367	2329
1.45733	4592
1.46100	7276
1.46467	9813
1.46833	11857
1.47200	13227
1.47567	13787
1.47933	13428
1.48300	12189
1.48667	10327
1.49033	8237
1.49400	6270
1.49767	4622
1.50133	3345
1.50500	2404
1.50867	1737
1.51233	1274
1.51600	953
1.51967	736
1.52333	586
1.52700	479
1.53067	401
1.53433	348
1.53800	326
1.54167	365
1.54533	521
1.54900	821
1.55267	1212
1.55633	1603
1.56000	1933
1.56367	2169
1.56733	2278
1.57100	2231
1.57467	2025
1.57833	1708
1.58200	1351
1.58567	1017
1.58933	741
1.59300	534
1.59667	389
1.60033	289
1.60400	221
1.60767	173
1.61133	141
1.61500	120
1.61867	103
1.62233	92
1.62600	87
1.62967	89
1.63333	90
1.63700	86
1.64067	76
1.64433	64
1.64800	55
1.65167	53
1.65533	50
1.65900	46
1.66267	43
1.66633	42
1.67000	48
1.67367	57
1.67733	59
1.68100	53
1.68467	43
1.68833	34
1.69200	31
1.69567	28
1.69933	24
1.70300	23
1.70667	28
1.71033	31
1.71400	32
1.71767	37
1.72133	48
1.72500	58
1.72867	60
1.73233	56
1.73600	48
1.73967	37
1.74333	29
1.74700	26
1.75067	29
1.75433	32
1.75800	34
1.76167	37
1.76533	41
1.76900	43
1.77267	45
1.77633	45
1.78000	41
1.78367	34
1.78733	28
1.79100	27
1.79467	28
1.79833	29
1.80200	31
1.80567	32
1.80933	34
1.81300	37
1.81667	40
1.82033	44
1.82400	50
1.82767	52
1.83133	48
1.83500	39
1.83867	33
1.84233	34
1.84600	37
1.84967	41
1.85333	45
1.85700	47
1.86067	48
1.86433	47
1.86800	44
1.87167	42
1.87533	42
1.87900	41
1.88267	37
1.88633	31
1.89000	28
1.89367	29
1.89733	29
1.90100	28
1.90467	26
1.90833	25
1.91200	27
1.91567	29
1.91933	26
1.92300	24
1.92667	24
1.93033	24
1.93400	25
1.93767	26
1.94133	24
1.94500	24
1.94867	28
1.95233	55
1.95600	208
1.95967	1047
1.96333	4802
1.96700	17627
1.97067	51282
1.97433	119796
1.97800	229338
1.98167	369434
1.98533	516885
1.98900	645649
1.99267	735372
1.99633	773641
2.00000	756265
2.00367	689089
2.00733	587581
2.01100	471878
2.01467	360219
2.01833	264310
2.02200	188601
2.02567	132357
2.02933	92307
2.03300	64581
2.03667	45715
2.04033	32989
2.04400	24413
2.04767	18597
2.05133	14601
2.05500	11808
2.05867	9815
2.06233	8361
2.06600	7270
2.06967	6434
2.07333	5775
2.07700	5239
2.08067	4797
2.08433	4428
2.08800	4114
2.09167	3841
2.09533	3600
2.09900	3391
2.10267	3207
2.10633	3039
2.11000	2887
2.11367	2752
2.11733	2632
2.12100	2520
2.12467	2413
2.12833	2314
2.13200	2225
2.13567	2143
2.13933	2067
2.14300	1994
2.14667	1922
2.15033	1851
2.15400	1783
2.15767	1719
2.16133	1659
2.16500	1605
2.16867	1556
2.17233	1513
2.17600	1475
2.17967	1441
2.18333	1408
2.18700	1377
2.19067	1346
2.19433	1317
2.19800	1286
2.20167	1258
2.20533	1231
2.20900	1205
2.21267	1174
2.21633	1142
2.22000	1112
2.22367	1082
2.22733	1052
2.23100	1026
2.23467	1005
2.23833	986
2.24200	968
2.24567	952
2.24933	936
2.25300	920
2.25667	905
2.26033	894
2.26400	883
2.26767	866
2.27133	846
2.27500	826
2.27867	809
2.28233	797
2.28600	789
2.28967	783
2.29333	779
2.29700	772
2.30067	760
2.30433	750
2.30800	743
2.31167	736
2.31533	725
2.31900	713
2.32267	704
2.32633	695
2.33000	684
2.33367	672
2.33733	660
2.34100	651
2.34467	646
2.34833	639
2.35200	634
2.35567	631
2.35933	625
2.36300	622
2.36667	621
2.37033	619
2.37400	615
2.37767	604
2.38133	591
2.38500	581
2.38867	574
2.39233	571
2.39600	574
2.39967	577
2.40333	574
2.40700	565
2.41067	554
2.41433	543
2.41800	536
2.42167	533
2.42533	528
2.42900	517
2.43267	505
2.43633	496
2.44000	492
2.44367	493
2.44733	497
2.45100	502
2.45467	508
2.45833	513
2.46200	510
2.46567	501
2.46933	490
2.47300	479
2.47667	473
2.48033	474
2.48400	482
2.48767	487
2.49133	485
2.49500	475
2.49867	461
2.50233	450
2.50600	446
2.50967	443
2.51333	435
2.51700	427
2.52067	428
2.52433	433
2.52800	438
2.53167	441
2.53533	442
2.53900	441
2.54267	437
2.54633	440
2.55000	445
2.55367	445
2.55733	440
2.56100	432
2.56467	423
2.56833	413
2.57200	403
2.57567	398
2.57933	396
2.58300	399
2.58667	405
2.59033	411
2.59400	417
2.59767	423
2.60133	422
2.60500	419
2.60867	414
2.61233	411
2.61600	407
2.61967	400
2.62333	392
2.62700	387
2.63067	387
2.63433	391
2.63800	398
2.64167	400
2.64533	403
2.64900	406
2.65267	410
2.65633	411
2.66000	408
2.66367	401
2.66733	393
2.67100	389
2.67467	390
2.67833	396
2.68200	402
2.68567	406
2.68933	408
2.69300	405
2.69667	395
2.70033	388
2.70400	379
2.70767	372
2.71133	372
2.71500	377
2.71867	381
2.72233	381
2.72600	379
2.72967	381
2.73333	386
2.73700	388
2.74067	391
2.74433	392
2.74800	390
2.75167	385
2.75533	385
2.75900	388
2.76267	390
2.76633	389
2.77000	385
2.77367	382
2.77733	378
2.78100	374
2.78467	374
2.78833	379
2.79200	385
2.79567	387
2.79933	386
2.80300	385
2.80667	385
2.81033	385
2.81400	385
2.81767	382
2.82133	380
2.82500	378
2.82867	379
2.83233	381
2.83600	382
2.83967	386
2.84333	388
2.84700	390
2.85067	392
2.85433	385
2.85800	378
2.86167	377
2.86533	381
2.86900	385
2.87267	390
2.87633	396
2.88000	401
2.88367	395
2.88733	380
2.89100	378
2.89467	380
2.89833	379
2.90200	375
2.90567	374
2.90933	376
2.91300	378
2.91667	376
2.92033	373
2.92400	371
2.92767	373
2.93133	378
2.93500	385
2.93867	391
2.94233	393
2.94600	391
2.94967	388
2.95333	381
2.95700	376
2.96067	376
2.96433	378
2.96800	382
2.97167	385
2.97533	385
2.97900	383
2.98267	386
2.98633	394
2.99000	400
2.99367	401
2.99733	402
3.00100	401
3.00467	398
3.00833	391
3.01200	384
3.01567	379
3.01933	375
3.02300	374
3.02667	380
3.03033	385
3.03400	386
3.03767	387
3.04133	389
3.04500	393
3.04867	395
3.05233	400
3.05600	399
3.05967	392
3.06333	384
3.06700	379
3.07067	380
3.07433	387
3.07800	391
3.08167	394
3.08533	400
3.08900	401
3.09267	397
3.09633	397
3.10000	397
3.10367	398
3.10733	395
3.11100	392
3.11467	391
3.11833	390
3.12200	393
3.12567	398
3.12933	401
3.13300	396
3.13667	386
3.14033	376
3.14400	367
3.14767	361
3.15133	357
3.15500	357
3.15867	355
3.16233	362
3.16600	372
3.16967	381
3.17333	388
3.17700	392
3.18067	395
3.18433	398
3.18800	401
3.19167	402
3.19533	400
3.19900	397
3.20267	395
3.20633	393
3.21000	387
3.21367	378
3.21733	366
3.22100	357
3.22467	353
3.22833	353
3.23200	351
3.23567	347
3.23933	345
3.24300	350
3.24667	357
3.25033	358
3.25400	357
3.25767	359
3.26133	361
3.26500	360
3.26867	362
3.27233	364
3.27600	371
3.27967	379
3.28333	383
3.28700	384
3.29067	388
3.29433	389
3.29800	387
3.30167	382
3.30533	377
3.30900	374
3.31267	372
3.31633	372
3.32000	370
3.32367	368
3.32733	366
3.33100	365
3.33467	366
3.33833	369
3.34200	366
3.34567	360
3.34933	353
3.35300	348
3.35667	347
3.36033	352
3.36400	356
3.36767	355
3.37133	353
3.37500	351
3.37867	352
3.38233	354
3.38600	356
3.38967	360
3.39333	362
3.39700	361
3.40067	357
3.40433	350
3.40800	345
3.41167	344
3.41533	348
3.41900	349
3.42267	350
3.42633	355
3.43000	367
3.43367	383
3.43733	391
3.44100	389
3.44467	379
3.44833	366
3.45200	354
3.45567	344
3.45933	335
3.46300	326
3.46667	317
3.47033	312
3.47400	317
3.47767	328
3.48133	339
3.48500	345
3.48867	345
3.49233	339
3.49600	332
3.49967	327
3.50333	324
3.50700	324
3.51067	326
3.51433	328
3.51800	329
3.52167	325
3.52533	321
3.52900	323
3.53267	329
3.53633	334
3.54000	340
3.54367	342
3.54733	342
3.55100	339
3.55467	331
3.55833	319
3.56200	312
3.56567	313
3.56933	314
3.57300	313
3.57667	316
3.58033	321
3.58400	326
3.58767	327
3.59133	328
3.59500	333
3.59867	341
3.60233	343
3.60600	341
3.60967	334
3.61333	330
3.61700	326
3.62067	317
3.62433	308
3.62800	302
3.63167	301
3.63533	303
3.63900	307
3.64267	310
3.64633	316
3.65000	322
3.65367	327
3.65733	329
3.66100	325
3.66467	316
3.66833	306
3.67200	299
3.67567	299
3.67933	304
3.68300	308
3.68667	315
3.69033	322
3.69400	329
3.69767	327
3.70133	316
3.70500	306
3.70867	301
3.71233	303
3.71600	307
3.71967	304
3.72333	298
3.72700	294
3.73067	289
3.73433	283
3.73800	281
3.74167	285
3.74533	289
3.74900	289
3.75267	286
3.75633	282
3.76000	279
3.76367	278
3.76733	277
3.77100	278
3.77467	279
3.77833	278
3.78200	275
3.78567	277
3.78933	280
3.79300	281
3.79667	285
3.80033	292
3.80400	300
3.80767	305
3.81133	306
3.81500	303
3.81867	295
3.82233	284
3.82600	275
3.82967	270
3.83333	268
3.83700	268
3.84067	270
3.84433	269
3.84800	263
3.85167	263
3.85533	270
3.85900	278
3.86267	284
3.86633	286
3.87000	289
3.87367	284
3.87733	275
3.88100	263
3.88467	251
3.88833	242
3.89200	238
3.89567	239
3.89933	241
3.90300	243
3.90667	247
3.91033	246
3.91400	245
3.91767	248
3.92133	250
3.92500	250
3.92867	247
3.93233	245
3.93600	242
3.93967	238
3.94333	240
3.94700	249
3.95067	260
3.95433	277
3.95800	295
3.96167	306
3.96533	310
3.96900	306
3.97267	292
3.97633	272
3.98000	254
3.98367	239
3.98733	228
3.99100	222
3.99467	216
3.99833	216

[Chromatogram (Ch2)]
Interval(msec)	220
# of Points	1091
Start Time(min)	0.002
End Time(min)	3.998
R.Time (min)	Intensity
0.00167	0
0.00533	0
0.00900	0
0.01267	0
0.01633	0
0.02000	0
0.02367	1
0.02733	1
0.03100	1
0.03467	1
0.03833	1
0.04200	1
0.04567	1
0.04933	1
0.05300	2
0.05667	2
0.06033	2
0.06400	3
0.06767	4
0.07133	4
0.07500	4
0.07867	5
0.08233	5
0.08600	5
0.08967	4
0.09333	4
0.09700	4
0.10067	3
0.10433	3
0.10800	2
0.11167	2
0.11533	2
0.11900	1
0.12267	1
0.12633	1
0.13000	1
0.13367	1
0.13733	1
0.14100	1
0.14467	1
0.14833	0
0.15200	0
0.15567	-0
0.15933	-1
0.16300	-1
0.16667	-1
0.17033	-1
0.17400	-1
0.17767	-1
0.18133	-1
0.18500	-1
0.18867	-0
0.19233	0
0.19600	0
0.19967	1
0.20333	1
0.20700	2
0.21067	2
0.21433	3
0.21800	3
0.22167	3
0.22533	3
0.22900	3
0.23267	3
0.23633	3
0.24000	2
0.24367	2
0.24733	1
0.25100	1
0.25467	1
0.25833	0
0.26200	-0
0.26567	-0
0.26933	-0
0.27300	-0
0.27667	0
0.28033	0
0.28400	1
0.28767	1
0.29133	1
0.29500	2
0.29867	2
0.30233	2
0.30600	2
0.30967	2
0.31333	1
0.31700	1
0.32067	1
0.32433	1
0.32800	1
0.33167	1
0.33533	0
0.33900	0
0.34267	0
0.34633	-0
0.35000	-0
0.35367	-1
0.35733	-1
0.36100	-1
0.36467	-1
0.36833	-1
0.37200	-1
0.37567	-1
0.37933	-1
0.38300	-1
0.38667	-1
0.39033	-1
0.39400	-1
0.39767	-1
0.40133	-1
0.40500	-1
0.40867	-1
0.41233	-1
0.41600	-1
0.41967	-0
0.42333	-0
0.42700	0
0.43067	0
0.43433	1
0.43800	1
0.44167	2
0.44533	2
0.44900	2
0.45267	3
0.45633	3
0.46000	3
0.46367	3
0.46733	3
0.47100	4
0.47467	4
0.47833	4
0.48200	4
0.48567	4
0.48933	5
0.49300	5
0.49667	5
0.50033	5
0.50400	5
0.50767	5
0.51133	5
0.51500	5
0.51867	5
0.52233	5
0.52600	5
0.52967	5
0.53333	5
0.53700	5
0.54067	4
0.54433	4
0.54800	4
0.55167	4
0.55533	3
0.55900	3
0.56267	3
0.56633	3
0.57000	3
0.57367	3
0.57733	3
0.58100	3
0.58467	3
0.58833	4
0.59200	4
0.59567	4
0.59933	4
0.60300	3
0.60667	4
0.61033	4
0.61400	4
0.61767	4
0.62133	4
0.62500	4
0.62867	4
0.63233	4
0.63600	4
0.63967	4
0.64333	4
0.64700	4
0.65067	4
0.65433	4
0.65800	4
0.66167	4
0.66533	4
0.66900	3
0.67267	3
0.67633	3
0.68000	3
0.68367	3
0.68733	3
0.69100	3
0.69467	2
0.69833	2
0.70200	2
0.70567	2
0.70933	2
0.71300	2
0.71667	2
0.72033	1
0.72400	0
0.72767	-0
0.73133	-1
0.73500	-1
0.73867	-2
0.74233	-2
0.74600	-2
0.74967	-2
0.75333	-2
0.75700	-1
0.76067	-0
0.76433	0
0.76800	0
0.77167	1
0.77533	1
0.77900	1
0.78267	1
0.78633	1
0.79000	1
0.79367	1
0.79733	1
0.80100	1
0.80467	1
0.80833	1
0.81200	1
0.81567	1
0.81933	1
0.82300	1
0.82667	1
0.83033	0
0.83400	0
0.83767	0
0.84133	0
0.84500	0
0.84867	0
0.85233	0
0.85600	1
0.85967	1
0.86333	1
0.86700	1
0.87067	1
0.87433	1
0.87800	0
0.88167	0
0.88533	-0
0.88900	-0
0.89267	-0
0.89633	-1
0.90000	-1
0.90367	-1
0.90733	-1
0.91100	-2
0.91467	-2
0.91833	-2
0.92200	-2
0.92567	-2
0.92933	-2
0.93300	-1
0.93667	-1
0.94033	-1
0.94400	-0
0.94767	-0
0.95133	0
0.95500	0
0.95867	1
0.96233	1
0.96600	1
0.96967	1
0.97333	1
0.97700	1
0.98067	1
0.98433	1
0.98800	1
0.99167	1
0.99533	0
0.99900	0
1.00267	0
1.00633	-0
1.01000	-1
1.01367	-1
1.01733	-1
1.02100	-2
1.02467	-2
1.02833	-2
1.03200	-2
1.03567	-1
1.03933	-1
1.04300	0
1.04667	1
1.05033	1
1.05400	1
1.05767	2
1.06133	2
1.06500	2
1.06867	2
1.07233	2
1.07600	2
1.07967	2
1.08333	2
1.08700	2
1.09067	2
1.09433	2
1.09800	2
1.10167	2
1.10533	2
1.10900	2
1.11267	2
1.11633	2
1.12000	2
1.12367	3
1.12733	3
1.13100	3
1.13467	3
1.13833	3
1.14200	3
1.14567	3
1.14933	2
1.15300	2
1.15667	2
1.16033	1
1.16400	1
1.16767	1
1.17133	0
1.17500	0
1.17867	0
1.18233	-0
1.18600	-0
1.18967	-0
1.19333	-1
1.19700	-1
1.20067	-1
1.20433	-1
1.20800	-1
1.21167	-1
1.21533	-1
1.21900	-1
1.22267	-1
1.22633	-1
1.23000	-1
1.23367	-1
1.23733	-1
1.24100	-1
1.24467	-1
1.24833	-0
1.25200	0
1.25567	1
1.25933	1
1.26300	2
1.26667	2
1.27033	2
1.27400	2
1.27767	2
1.28133	2
1.28500	2
1.28867	2
1.29233	2
1.29600	2
1.29967	2
1.30333	2
1.30700	2
1.31067	2
1.31433	2
1.31800	1
1.32167	1
1.32533	0
1.32900	-0
1.33267	-0
1.33633	-1
1.34000	-1
1.34367	-0
1.34733	-0
1.35100	0
1.35467	1
1.35833	1
1.36200	1
1.36567	1
1.36933	1
1.37300	1
1.37667	2
1.38033	2
1.38400	2
1.38767	2
1.39133	2
1.39500	2
1.39867	2
1.40233	2
1.40600	2
1.40967	2
1.41333	2
1.41700	2
1.42067	2
1.42433	2
1.42800	2
1.43167	2
1.43533	1
1.43900	1
1.44267	1
1.44633	1
1.45000	0
1.45367	0
1.45733	-1
1.46100	-1
1.46467	-2
1.46833	-2
1.47200	-2
1.47567	-3
1.47933	-3
1.48300	-3
1.48667	-3
1.49033	-3
1.49400	-4
1.49767	-4
1.50133	-4
1.50500	-3
1.50867	-3
1.51233	-3
1.51600	-2
1.51967	-2
1.52333	-1
1.52700	-1
1.53067	-0
1.53433	-0
1.53800	-0
1.54167	-0
1.54533	-0
1.54900	-0
1.55267	-0
1.55633	-0
1.56000	-0
1.56367	-0
1.56733	-0
1.57100	-1
1.57467	-1
1.57833	-1
1.58200	-0
1.58567	-0
1.58933	-0
1.59300	-1
1.59667	-1
1.60033	-2
1.60400	-3
1.60767	-4
1.61133	-6
1.61500	-8
1.61867	-10
1.62233	-13
1.62600	-16
1.62967	-19
1.63333	-23
1.63700	-27
1.64067	-30
1.64433	-34
1.64800	-38
1.65167	-41
1.65533	-45
1.65900	-49
1.66267	-52
1.66633	-56
1.67000	-60
1.67367	-64
1.67733	-69
1.68100	-73
1.68467	-78
1.68833	-83
1.69200	-87
1.69567	-91
1.69933	-94
1.70300	-96
1.70667	-98
1.71033	-100
1.71400	-101
1.71767	-102
1.72133	-102
1.72500	-103
1.72867	-103
1.73233	-103
1.73600	-103
1.73967	-103
1.74333	-103
1.74700	-103
1.75067	-103
1.75433	-104
1.75800	-105
1.76167	-106
1.76533	-108
1.76900	-109
1.77267	-110
1.77633	-110
1.78000	-111
1.78367	-110
1.78733	-110
1.79100	-109
1.79467	-109
1.79833	-109
1.80200	-109
1.80567	-109
1.80933	-110
1.81300	-110
1.81667	-111
1.82033	-112
1.82400	-112
1.82767	-112
1.83133	-112
1.83500	-112
1.83867	-112
1.84233	-112
1.84600	-112
1.84967	-112
1.85333	-112
1.85700	-112
1.86067	-112
1.86433	-111
1.86800	-111
1.87167	-110
1.87533	-110
1.87900	-109
1.88267	-109
1.88633	-109
1.89000	-109
1.89367	-109
1.89733	-109
1.90100	-109
1.90467	-109
1.90833	-109
1.91200	-109
1.91567	-108
1.91933	-107
1.92300	-107
1.92667	-107
1.93033	-107
1.93400	-108
1.93767	-108
1.94133	-108
1.94500	-108
1.94867	-108
1.95233	-107
1.95600	-107
1.95967	-106
1.96333	-106
1.96700	-106
1.97067	-106
1.97433	-106
1.97800	-106
1.98167	-105
1.98533	-105
1.98900	-105
1.99267	-105
1.99633	-105
2.00000	-104
2.00367	-104
2.00733	-105
2.01100	-105
2.01467	-104
2.01833	-104
2.02200	-104
2.02567	-103
2.02933	-103
2.03300	-102
2.03667	-101
2.04033	-100
2.04400	-99
2.04767	-99
2.05133	-98
2.05500	-98
2.05867	-97
2.06233	-96
2.06600	-96
2.06967	-95
2.07333	-95
2.07700	-95
2.08067	-95
2.08433	-94
2.08800	-94
2.09167	-94
2.09533	-94
2.09900	-94
2.10267	-94
2.10633	-94
2.11000	-95
2.11367	-95
2.11733	-95
2.12100	-95
2.12467	-95
2.12833	-95
2.13200	-94
2.13567	-94
2.13933	-94
2.14300	-94
2.14667	-93
2.15033	-93
2.15400	-92
2.15767	-91
2.16133	-90
2.16500	-89
2.16867	-89
2.17233	-88
2.17600	-88
2.17967	-88
2.18333	-88
2.18700	-87
2.19067	-87
2.19433	-87
2.19800	-87
2.20167	-87
2.20533	-87
2.20900	-87
2.21267	-87
2.21633	-87
2.22000	-86
2.22367	-86
2.22733	-85
2.23100	-85
2.23467	-84
2.23833	-84
2.24200	-83
2.24567	-82
2.24933	-82
2.25300	-81
2.25667	-81
2.26033	-81
2.26400	-81
2.26767	-81
2.27133	-81
2.27500	-81
2.27867	-81
2.28233	-80
2.28600	-80
2.28967	-80
2.29333	-79
2.29700	-79
2.30067	-78
2.30433	-78
2.30800	-79
2.31167	-79
2.31533	-80
2.31900	-81
2.32267	-82
2.32633	-82
2.33000	-82
2.33367	-81
2.33733	-81
2.34100	-80
2.34467	-78
2.34833	-77
2.35200	-76
2.35567	-74
2.35933	-72
2.36300	-70
2.36667	-68
2.37033	-65
2.37400	-62
2.37767	-58
2.38133	-55
2.38500	-51
2.38867	-46
2.39233	-42
2.39600	-38
2.39967	-34
2.40333	-30
2.40700	-26
2.41067	-22
2.41433	-19
2.41800	-16
2.42167	-14
2.42533	-12
2.42900	-10
2.43267	-8
2.43633	-7
2.44000	-6
2.44367	-5
2.44733	-5
2.45100	-4
2.45467	-3
2.45833	-3
2.46200	-2
2.46567	-1
2.46933	0
2.47300	1
2.47667	3
2.48033	4
2.48400	6
2.48767	7
2.49133	8
2.49500	8
2.49867	9
2.50233	10
2.50600	11
2.50967	12
2.51333	12
2.51700	13
2.52067	13
2.52433	13
2.52800	13
2.53167	13
2.53533	14
2.53900	14
2.54267	15
2.54633	15
2.55000	15
2.55367	16
2.55733	16
2.56100	17
2.56467	17
2.56833	17
2.57200	17
2.57567	18
2.57933	18
2.58300	18
2.58667	18
2.59033	17
2.59400	17
2.59767	17
2.60133	17
2.60500	17
2.60867	17
2.61233	18
2.61600	18
2.61967	18
2.62333	18
2.62700	18
2.63067	17
2.63433	17
2.63800	17
2.64167	17
2.64533	17
2.64900	17
2.65267	18
2.65633	19
2.66000	20
2.66367	20
2.66733	21
2.67100	21
2.67467	22
2.67833	22
2.68200	23
2.68567	23
2.68933	24
2.69300	24
2.69667	25
2.70033	25
2.70400	26
2.70767	26
2.71133	26
2.71500	26
2.71867	26
2.72233	26
2.72600	26
2.72967	26
2.73333	26
2.73700	26
2.74067	25
2.74433	25
2.74800	26
2.75167	26
2.75533	26
2.75900	27
2.76267	27
2.76633	28
2.77000	28
2.77367	29
2.77733	29
2.78100	30
2.78467	30
2.78833	30
2.79200	30
2.79567	30
2.79933	29
2.80300	29
2.80667	28
2.81033	28
2.81400	27
2.81767	27
2.82133	27
2.82500	27
2.82867	27
2.83233	27
2.83600	27
2.83967	26
2.84333	25
2.84700	22
2.85067	16
2.85433	8
2.85800	-4
2.86167	-19
2.86533	-39
2.86900	-63
2.87267	-91
2.87633	-124
2.88000	-161
2.88367	-202
2.88733	-247
2.89100	-295
2.89467	-345
2.89833	-397
2.90200	-451
2.90567	-505
2.90933	-561
2.91300	-616
2.91667	-671
2.92033	-725
2.92400	-778
2.92767	-829
2.93133	-881
2.93500	-937
2.93867	-996
2.94233	-1049
2.94600	-1087
2.94967	-1102
2.95333	-1090
2.95700	-1054
2.96067	-998
2.96433	-929
2.96800	-852
2.97167	-771
2.97533	-690
2.97900	-612
2.98267	-538
2.98633	-470
2.99000	-408
2.99367	-352
2.99733	-302
3.00100	-259
3.00467	-220
3.00833	-187
3.01200	-158
3.01567	-133
3.01933	-111
3.02300	-92
3.02667	-77
3.03033	-63
3.03400	-51
3.03767	-41
3.04133	-33
3.04500	-25
3.04867	-19
3.05233	-13
3.05600	-9
3.05967	-5
3.06333	-1
3.06700	2
3.07067	4
3.07433	6
3.07800	8
3.08167	10
3.08533	11
3.08900	12
3.09267	13
3.09633	14
3.10000	15
3.10367	15
3.10733	16
3.11100	16
3.11467	17
3.11833	17
3.12200	17
3.12567	18
3.12933	18
3.13300	18
3.13667	18
3.14033	19
3.14400	19
3.14767	19
3.15133	19
3.15500	20
3.15867	20
3.16233	20
3.16600	20
3.16967	21
3.17333	21
3.17700	21
3.18067	21
3.18433	22
3.18800	22
3.19167	22
3.19533	22
3.19900	23
3.20267	23
3.20633	23
3.21000	23
3.21367	24
3.21733	24
3.22100	24
3.22467	24
3.22833	24
3.23200	24
3.23567	24
3.23933	24
3.24300	23
3.24667	23
3.25033	23
3.25400	23
3.25767	23
3.26133	23
3.26500	24
3.26867	24
3.27233	24
3.27600	24
3.27967	24
3.28333	24
3.28700	24
3.29067	24
3.29433	25
3.29800	25
3.30167	25
3.30533	25
3.30900	25
3.31267	25
3.31633	25
3.32000	25
3.32367	25
3.32733	25
3.33100	26
3.33467	26
3.33833	26
3.34200	26
3.34567	27
3.34933	27
3.35300	27
3.35667	28
3.36033	28
3.36400	28
3.36767	28
3.37133	29
3.37500	29
3.37867	29
3.38233	30
3.38600	30
3.38967	30
3.39333	30
3.39700	30
3.40067	30
3.40433	30
3.40800	30
3.41167	30
3.41533	30
3.41900	30
3.42267	30
3.42633	30
3.43000	31
3.43367	31
3.43733	31
3.44100	31
3.44467	31
3.44833	31
3.45200	31
3.45567	31
3.45933	30
3.46300	30
3.46667	31
3.47033	31
3.47400	31
3.47767	31
3.48133	32
3.48500	32
3.48867	32
3.49233	33
3.49600	33
3.49967	33
3.50333	33
3.50700	34
3.51067	34
3.51433	33
3.51800	33
3.52167	33
3.52533	33
3.52900	32
3.53267	32
3.53633	32
3.54000	32
3.54367	31
3.54733	31
3.55100	31
3.55467	31
3.55833	31
3.56200	30
3.56567	30
3.56933	30
3.57300	30
3.57667	30
3.58033	30
3.58400	30
3.58767	30
3.59133	30
3.59500	30
3.59867	30
3.60233	30
3.60600	30
3.60967	30
3.61333	30
3.61700	30
3.62067	30
3.62433	30
3.62800	30
3.63167	30
3.63533	30
3.63900	30
3.64267	30
3.64633	30
3.65000	30
3.65367	30
3.65733	30
3.66100	30
3.66467	30
3.66833	30
3.67200	30
3.67567	30
3.67933	30
3.68300	29
3.68667	29
3.69033	29
3.69400	29
3.69767	29
3.70133	29
3.70500	28
3.70867	28
3.71233	28
3.71600	28
3.71967	29
3.72333	29
3.72700	29
3.73067	29
3.73433	29
3.73800	29
3.74167	29
3.74533	29
3.74900	29
3.75267	29
3.75633	29
3.76000	29
3.76367	29
3.76733	29
3.77100	29
3.77467	29
3.77833	29
3.78200	29
3.78567	29
3.78933	29
3.79300	29
3.79667	29
3.80033	29
3.80400	29
3.80767	29
3.81133	29
3.81500	29
3.81867	29
3.82233	29
3.82600	30
3.82967	30
3.83333	30
3.83700	30
3.84067	29
3.84433	30
3.84800	29
3.85167	29
3.85533	29
3.85900	29
3.86267	29
3.86633	29
3.87000	29
3.87367	29
3.87733	29
3.88100	29
3.88467	29
3.88833	29
3.89200	29
3.89567	29
3.89933	29
3.90300	29
3.90667	29
3.91033	30
3.91400	30
3.91767	30
3.92133	30
3.92500	30
3.92867	29
3.93233	29
3.93600	29
3.93967	28
3.94333	28
3.94700	28
3.95067	28
3.95433	28
3.95800	28
3.96167	28
3.96533	28
3.96900	28
3.97267	28
3.97633	28
3.98000	28
3.98367	28
3.98733	28
3.99100	28
3.99467	28
3.99833	28

[Chromatogram (Ch3)]
Interval(msec)	220
# of Points	1091
Start Time(min)	0.002
End Time(min)	3.998
R.Time (min)	Intensity
0.00167	1
0.00533	1
0.00900	0
0.01267	2
0.01633	3
0.02000	1
0.02367	1
0.02733	-1
0.03100	-2
0.03467	-4
0.03833	-5
0.04200	-6
0.04567	-6
0.04933	-6
0.05300	-6
0.05667	-5
0.06033	-4
0.06400	-3
0.06767	-4
0.07133	-5
0.07500	-6
0.07867	-6
0.08233	-4
0.08600	-1
0.08967	2
0.09333	2
0.09700	1
0.10067	0
0.10433	-1
0.10800	-2
0.11167	-1
0.11533	-1
0.11900	-1
0.12267	1
0.12633	-0
0.13000	-1
0.13367	-2
0.13733	-3
0.14100	-4
0.14467	-6
0.14833	-6
0.15200	-3
0.15567	-1
0.15933	0
0.16300	1
0.16667	1
0.17033	-0
0.17400	-3
0.17767	-2
0.18133	-1
0.18500	-2
0.18867	-5
0.19233	-5
0.19600	-2
0.19967	1
0.20333	2
0.20700	2
0.21067	0
0.21433	-2
0.21800	-3
0.22167	-2
0.22533	-3
0.22900	-1
0.23267	1
0.23633	3
0.24000	3
0.24367	1
0.24733	1
0.25100	2
0.25467	2
0.25833	1
0.26200	-1
0.26567	-2
0.26933	-0
0.27300	1
0.27667	1
0.28033	2
0.28400	2
0.28767	2
0.29133	2
0.29500	4
0.29867	5
0.30233	6
0.30600	6
0.30967	4
0.31333	3
0.31700	1
0.32067	-2
0.32433	-3
0.32800	-2
0.33167	-2
0.33533	0
0.33900	1
0.34267	0
0.34633	-1
0.35000	-1
0.35367	1
0.35733	3
0.36100	6
0.36467	6
0.36833	5
0.37200	4
0.37567	2
0.37933	1
0.38300	1
0.38667	1
0.39033	2
0.39400	0
0.39767	-1
0.40133	-1
0.40500	-1
0.40867	-1
0.41233	0
0.41600	2
0.41967	3
0.42333	3
0.42700	4
0.43067	7
0.43433	9
0.43800	9
0.44167	10
0.44533	9
0.44900	7
0.45267	5
0.45633	2
0.46000	1
0.46367	-0
0.46733	-2
0.47100	-2
0.47467	-3
0.47833	-2
0.48200	2
0.48567	6
0.48933	5
0.49300	4
0.49667	3
0.50033	2
0.50400	0
0.50767	-2
0.51133	-2
0.51500	-3
0.51867	-4
0.52233	-5
0.52600	-5
0.52967	-3
0.53333	-1
0.53700	2
0.54067	3
0.54433	4
0.54800	4
0.55167	3
0.55533	-0
0.55900	-2
0.56267	-2
0.56633	-1
0.57000	0
0.57367	2
0.57733	3
0.58100	2
0.58467	2
0.58833	3
0.59200	2
0.59567	-1
0.59933	-2
0.60300	-2
0.60667	-2
0.61033	-3
0.61400	-2
0.61767	-3
0.62133	-2
0.62500	-1
0.62867	-1
0.63233	-1
0.63600	-0
0.63967	1
0.64333	1
0.64700	1
0.65067	3
0.65433	4
0.65800	2
0.66167	0
0.66533	-1
0.66900	-2
0.67267	-0
0.67633	3
0.68000	4
0.68367	5
0.68733	4
0.69100	2
0.69467	2
0.69833	3
0.70200	4
0.70567	4
0.70933	4
0.71300	3
0.71667	2
0.72033	1
0.72400	2
0.72767	2
0.73133	3
0.73500	3
0.73867	4
0.74233	4
0.74600	4
0.74967	5
0.75333	7
0.75700	8
0.76067	8
0.76433	7
0.76800	6
0.77167	5
0.77533	5
0.77900	5
0.78267	6
0.78633	7
0.79000	7
0.79367	9
0.79733	8
0.80100	4
0.80467	1
0.80833	2
0.81200	4
0.81567	6
0.81933	6
0.82300	5
0.82667	5
0.83033	7
0.83400	7
0.83767	6
0.84133	7
0.84500	7
0.84867	7
0.85233	5
0.85600	4
0.85967	3
0.86333	4
0.86700	6
0.87067	6
0.87433	6
0.87800	5
0.88167	6
0.88533	5
0.88900	4
0.89267	5
0.89633	7
0.90000	9
0.90367	11
0.90733	10
0.91100	12
0.91467	12
0.91833	11
0.92200	11
0.92567	9
0.92933	6
0.93300	6
0.93667	6
0.94033	7
0.94400	8
0.94767	9
0.95133	9
0.95500	10
0.95867	11
0.96233	12
0.96600	11
0.96967	10
0.97333	10
0.97700	11
0.98067	12
0.98433	11
0.98800	10
0.99167	9
0.99533	9
0.99900	10
1.00267	11
1.00633	11
1.01000	10
1.01367	11
1.01733	10
1.02100	8
1.02467	10
1.02833	11
1.03200	11
1.03567	12
1.03933	11
1.04300	11
1.04667	9
1.05033	11
1.05400	13
1.05767	14
1.06133	14
1.06500	11
1.06867	9
1.07233	10
1.07600	10
1.07967	9
1.08333	9
1.08700	7
1.09067	7
1.09433	9
1.09800	11
1.10167	11
1.10533	11
1.10900	11
1.11267	12
1.11633	11
1.12000	10
1.12367	12
1.12733	10
1.13100	8
1.13467	7
1.13833	8
1.14200	8
1.14567	7
1.14933	7
1.15300	6
1.15667	6
1.16033	8
1.16400	9
1.16767	9
1.17133	10
1.17500	8
1.17867	8
1.18233	8
1.18600	9
1.18967	8
1.19333	9
1.19700	9
1.20067	8
1.20433	8
1.20800	8
1.21167	8
1.21533	11
1.21900	13
1.22267	13
1.22633	11
1.23000	12
1.23367	14
1.23733	16
1.24100	14
1.24467	11
1.24833	9
1.25200	9
1.25567	9
1.25933	10
1.26300	10
1.26667	9
1.27033	9
1.27400	9
1.27767	7
1.28133	6
1.28500	5
1.28867	7
1.29233	9
1.29600	10
1.29967	10
1.30333	10
1.30700	10
1.31067	8
1.31433	8
1.31800	10
1.32167	10
1.32533	8
1.32900	7
1.33267	6
1.33633	5
1.34000	5
1.34367	4
1.34733	1
1.35100	3
1.35467	7
1.35833	9
1.36200	8
1.36567	7
1.36933	7
1.37300	9
1.37667	10
1.38033	11
1.38400	11
1.38767	11
1.39133	10
1.39500	9
1.39867	11
1.40233	10
1.40600	9
1.40967	8
1.41333	8
1.41700	7
1.42067	5
1.42433	5
1.42800	6
1.43167	7
1.43533	8
1.43900	11
1.44267	13
1.44633	11
1.45000	9
1.45367	8
1.45733	7
1.46100	6
1.46467	9
1.46833	11
1.47200	11
1.47567	10
1.47933	9
1.48300	9
1.48667	9
1.49033	9
1.49400	10
1.49767	11
1.50133	12
1.50500	15
1.50867	17
1.51233	15
1.51600	14
1.51967	13
1.52333	11
1.52700	11
1.53067	11
1.53433	12
1.53800	11
1.54167	11
1.54533	11
1.54900	12
1.55267	14
1.55633	14
1.56000	15
1.56367	14
1.56733	14
1.57100	14
1.57467	13
1.57833	13
1.58200	15
1.58567	15
1.58933	17
1.59300	17
1.59667	17
1.60033	16
1.60400	15
1.60767	13
1.61133	11
1.61500	11
1.61867	12
1.62233	14
1.62600	13
1.62967	13
1.63333	13
1.63700	13
1.64067	13
1.64433	14
1.64800	15
1.65167	17
1.65533	20
1.65900	22
1.66267	24
1.66633	24
1.67000	25
1.67367	25
1.67733	24
1.68100	22
1.68467	20
1.68833	21
1.69200	23
1.69567	23
1.69933	23
1.70300	23
1.70667	25
1.71033	28
1.71400	28
1.71767	26
1.72133	27
1.72500	29
1.72867	28
1.73233	30
1.73600	30
1.73967	30
1.74333	28
1.74700	25
1.75067	23
1.75433	25
1.75800	25
1.76167	25
1.76533	25
1.76900	27
1.77267	29
1.77633	28
1.78000	29
1.78367	29
1.78733	30
1.79100	29
1.79467	30
1.79833	31
1.80200	32
1.80567	34
1.80933	35
1.81300	33
1.81667	32
1.82033	31
1.82400	30
1.82767	29
1.83133	29
1.83500	29
1.83867	29
1.84233	29
1.84600	29
1.84967	30
1.85333	33
1.85700	36
1.86067	36
1.86433	33
1.86800	31
1.87167	30
1.87533	32
1.87900	34
1.88267	36
1.88633	39
1.89000	39
1.89367	40
1.89733	41
1.90100	42
1.90467	41
1.90833	39
1.91200	38
1.91567	39
1.91933	41
1.92300	42
1.92667	41
1.93033	41
1.93400	40
1.93767	42
1.94133	44
1.94500	45
1.94867	47
1.95233	50
1.95600	49
1.95967	48
1.96333	48
1.96700	48
1.97067	48
1.97433	48
1.97800	50
1.98167	52
1.98533	55
1.98900	58
1.99267	60
1.99633	61
2.00000	61
2.00367	62
2.00733	62
2.01100	62
2.01467	64
2.01833	65
2.02200	66
2.02567	69
2.02933	71
2.03300	70
2.03667	70
2.04033	72
2.04400	72
2.04767	71
2.05133	72
2.05500	73
2.05867	71
2.06233	70
2.06600	71
2.06967	72
2.07333	72
2.07700	74
2.08067	76
2.08433	76
2.08800	79
2.09167	80
2.09533	80
2.09900	80
2.10267	81
2.10633	83
2.11000	84
2.11367	84
2.11733	84
2.12100	84
2.12467	86
2.12833	89
2.13200	88
2.13567	86
2.13933	85
2.14300	86
2.14667	90
2.15033	95
2.15400	97
2.15767	95
2.16133	94
2.16500	95
2.16867	94
2.17233	95
2.17600	96
2.17967	99
2.18333	101
2.18700	102
2.19067	103
2.19433	103
2.19800	105
2.20167	108
2.20533	112
2.20900	113
2.21267	114
2.21633	114
2.22000	112
2.22367	113
2.22733	115
2.23100	119
2.23467	121
2.23833	123
2.24200	125
2.24567	125
2.24933	126
2.25300	130
2.25667	131
2.26033	131
2.26400	130
2.26767	130
2.27133	129
2.27500	131
2.27867	133
2.28233	133
2.28600	134
2.28967	135
2.29333	137
2.29700	139
2.30067	142
2.30433	144
2.30800	147
2.31167	150
2.31533	154
2.31900	155
2.32267	159
2.32633	163
2.33000	164
2.33367	162
2.33733	161
2.34100	164
2.34467	167
2.34833	168
2.35200	171
2.35567	174
2.35933	178
2.36300	181
2.36667	180
2.37033	181
2.37400	183
2.37767	183
2.38133	183
2.38500	183
2.38867	183
2.39233	185
2.39600	192
2.39967	198
2.40333	201
2.40700	203
2.41067	205
2.41433	210
2.41800	213
2.42167	216
2.42533	217
2.42900	217
2.43267	218
2.43633	221
2.44000	227
2.44367	276
2.44733	395
2.45100	529
2.45467	644
2.45833	717
2.46200	737
2.46567	720
2.46933	693
2.47300	671
2.47667	661
2.48033	656
2.48400	646
2.48767	624
2.49133	592
2.49500	558
2.49867	527
2.50233	505
2.50600	491
2.50967	479
2.51333	474
2.51700	477
2.52067	486
2.52433	501
2.52800	517
2.53167	531
2.53533	538
2.53900	537
2.54267	530
2.54633	516
2.55000	495
2.55367	473
2.55733	454
2.56100	435
2.56467	420
2.56833	408
2.57200	400
2.57567	395
2.57933	391
2.58300	390
2.58667	389
2.59033	386
2.59400	386
2.59767	385
2.60133	379
2.60500	371
2.60867	360
2.61233	346
2.61600	332
2.61967	318
2.62333	306
2.62700	295
2.63067	289
2.63433	287
2.63800	287
2.64167	290
2.64533	293
2.64900	298
2.65267	303
2.65633	309
2.66000	312
2.66367	315
2.66733	316
2.67100	314
2.67467	312
2.67833	308
2.68200	304
2.68567	302
2.68933	299
2.69300	295
2.69667	289
2.70033	286
2.70400	284
2.70767	282
2.71133	279
2.71500	275
2.71867	272
2.72233	272
2.72600	272
2.72967	273
2.73333	273
2.73700	273
2.74067	273
2.74433	275
2.74800	277
2.75167	278
2.75533	278
2.75900	278
2.76267	278
2.76633	280
2.77000	281
2.77367	280
2.77733	278
2.78100	279
2.78467	280
2.78833	280
2.79200	280
2.79567	278
2.79933	277
2.80300	278
2.80667	279
2.81033	281
2.81400	286
2.81767	292
2.82133	302
2.82500	322
2.82867	366
2.83233	452
2.83600	604
2.83967	846
2.84333	1190
2.84700	1646
2.85067	2197
2.85433	2810
2.85800	3444
2.86167	4045
2.86533	4563
2.86900	4958
2.87267	5207
2.87633	5304
2.88000	5259
2.88367	5094
2.88733	4839
2.89100	4519
2.89467	4165
2.89833	3799
2.90200	3435
2.90567	3087
2.90933	2761
2.91300	2462
2.91667	2192
2.92033	1955
2.92400	1743
2.92767	1556
2.93133	1392
2.93500	1249
2.93867	1122
2.94233	1009
2.94600	914
2.94967	830
2.95333	756
2.95700	694
2.96067	640
2.96433	594
2.96800	556
2.97167	521
2.97533	489
2.97900	462
2.98267	438
2.98633	416
2.99000	395
2.99367	379
2.99733	363
3.00100	349
3.00467	337
3.00833	326
3.01200	318
3.01567	310
3.01933	304
3.02300	299
3.02667	292
3.03033	285
3.03400	279
3.03767	276
3.04133	273
3.04500	269
3.04867	265
3.05233	262
3.05600	261
3.05967	259
3.06333	257
3.06700	254
3.07067	253
3.07433	251
3.07800	248
3.08167	247
3.08533	244
3.08900	243
3.09267	242
3.09633	241
3.10000	239
3.10367	237
3.10733	236
3.11100	236
3.11467	237
3.11833	238
3.12200	239
3.12567	240
3.12933	240
3.13300	238
3.13667	237
3.14033	236
3.14400	235
3.14767	235
3.15133	235
3.15500	236
3.15867	236
3.16233	236
3.16600	237
3.16967	236
3.17333	236
3.17700	237
3.18067	236
3.18433	236
3.18800	236
3.19167	238
3.19533	241
3.19900	244
3.20267	245
3.20633	243
3.21000	244
3.21367	246
3.21733	245
3.22100	243
3.22467	243
3.22833	242
3.23200	243
3.23567	244
3.23933	247
3.24300	249
3.24667	251
3.25033	251
3.25400	252
3.25767	255
3.26133	256
3.26500	257
3.26867	259
3.27233	260
3.27600	259
3.27967	260
3.28333	260
3.28700	260
3.29067	262
3.29433	262
3.29800	260
3.30167	259
3.30533	258
3.30900	255
3.31267	254
3.31633	254
3.32000	255
3.32367	257
3.32733	259
3.33100	261
3.33467	259
3.33833	258
3.34200	256
3.34567	256
3.34933	255
3.35300	257
3.35667	259
3.36033	259
3.36400	259
3.36767	259
3.37133	260
3.37500	261
3.37867	261
3.38233	264
3.38600	266
3.38967	269
3.39333	271
3.39700	271
3.40067	271
3.40433	272
3.40800	273
3.41167	273
3.41533	271
3.41900	270
3.42267	269
3.42633	269
3.43000	272
3.43367	273
3.43733	275
3.44100	277
3.44467	278
3.44833	277
3.45200	276
3.45567	275
3.45933	277
3.46300	279
3.46667	281
3.47033	280
3.47400	279
3.47767	279
3.48133	280
3.48500	280
3.48867	280
3.49233	281
3.49600	281
3.49967	283
3.50333	285
3.50700	285
3.51067	288
3.51433	291
3.51800	291
3.52167	292
3.52533	294
3.52900	295
3.53267	295
3.53633	293
3.54000	291
3.54367	292
3.54733	294
3.55100	293
3.55467	292
3.55833	294
3.56200	296
3.56567	294
3.56933	292
3.57300	293
3.57667	293
3.58033	292
3.58400	292
3.58767	293
3.59133	292
3.59500	291
3.59867	289
3.60233	280
3.60600	270
3.60967	252
3.61333	233
3.61700	219
3.62067	214
3.62433	221
3.62800	235
3.63167	257
3.63533	278
3.63900	299
3.64267	319
3.64633	341
3.65000	361
3.65367	383
3.65733	403
3.66100	419
3.66467	433
3.66833	447
3.67200	461
3.67567	472
3.67933	483
3.68300	493
3.68667	502
3.69033	510
3.69400	518
3.69767	523
3.70133	526
3.70500	529
3.70867	534
3.71233	538
3.71600	542
3.71967	546
3.72333	549
3.72700	550
3.73067	551
3.73433	551
3.73800	552
3.74167	554
3.74533	556
3.74900	558
3.75267	559
3.75633	558
3.76000	559
3.76367	560
3.76733	560
3.77100	560
3.77467	560
3.77833	560
3.78200	559
3.78567	558
3.78933	560
3.79300	562
3.79667	565
3.80033	566
3.80400	567
3.80767	567
3.81133	566
3.81500	565
3.81867	565
3.82233	563
3.82600	561
3.82967	560
3.83333	559
3.83700	559
3.84067	559
3.84433	559
3.84800	556
3.85167	555
3.85533	555
3.85900	557
3.86267	561
3.86633	562
3.87000	561
3.87367	559
3.87733	561
3.88100	563
3.88467	563
3.88833	562
3.89200	559
3.89567	558
3.89933	558
3.90300	558
3.90667	559
3.91033	562
3.91400	565
3.91767	567
3.92133	567
3.92500	567
3.92867	568
3.93233	566
3.93600	564
3.93967	563
3.94333	564
3.94700	564
3.95067	563
3.95433	563
3.95800	564
3.96167	566
3.96533	569
3.96900	571
3.97267	570
3.97633	568
3.98000	568
3.98367	565
3.98733	563
3.99100	561
3.99467	559
3.99833	554

[Status Trace (Column Oven Temperature)]
Interval(msec)	1000
# of Points	240
Start Time(min)	0.009
End Time(min)	3.993
Intensity Units	
Intensity Multiplier	1
R.Time (min)	Intensity
0.00928	35.03
0.02595	35.03
0.04262	35.01
0.05928	35.00
0.07595	35.00
0.09262	35.00
0.10928	35.00
0.12595	35.01
0.14262	35.02
0.15928	35.04
0.17595	35.04
0.19262	35.04
0.20928	35.03
0.22595	35.01
0.24262	35.02
0.25928	35.03
0.27595	35.03
0.29262	35.03
0.30928	35.03
0.32595	35.03
0.34262	35.04
0.35928	35.05
0.37595	35.06
0.39262	35.07
0.40928	35.07
0.42595	35.07
0.44262	35.06
0.45928	35.06
0.47595	35.05
0.49262	35.03
0.50928	35.01
0.52595	35.01
0.54262	35.00
0.55928	35.00
0.57595	35.00
0.59262	34.99
0.60928	34.98
0.62595	34.98
0.64262	34.97
0.65928	34.97
0.67595	34.97
0.69262	34.96
0.70928	34.97
0.72595	34.99
0.74262	35.00
0.75928	35.00
0.77595	35.01
0.79262	35.00
0.80928	34.99
0.82595	34.99
0.84262	34.98
0.85928	34.99
0.87595	35.00
0.89262	35.01
0.90928	35.02
0.92595	35.02
0.94262	35.01
0.95928	35.00
0.97595	35.00
0.99262	35.01
1.00928	35.03
1.02595	35.02
1.04262	35.02
1.05928	35.01
1.07595	35.00
1.09262	34.98
1.10928	34.98
1.12595	34.97
1.14262	34.98
1.15928	34.99
1.17595	34.99
1.19262	34.99
1.20928	35.00
1.22595	35.01
1.24262	35.00
1.25928	35.00
1.27595	34.99
1.29262	34.98
1.30928	34.99
1.32595	35.00
1.34262	35.00
1.35928	35.01
1.37595	34.99
1.39262	34.98
1.40928	34.97
1.42595	34.97
1.44262	34.97
1.45928	34.99
1.47595	35.01
1.49262	35.02
1.50928	35.01
1.52595	35.00
1.54262	35.01
1.55928	35.01
1.57595	35.00
1.59262	35.01
1.60928	35.08
1.62595	35.22
1.64262	35.42
1.65928	35.67
1.67595	36.01
1.69262	36.38
1.70928	36.73
1.72595	37.06
1.74262	37.37
1.75928	37.71
1.77595	38.05
1.79262	38.37
1.80928	38.71
1.82595	39.04
1.84262	39.37
1.85928	39.71
1.87595	40.03
1.89262	40.36
1.90928	40.68
1.92595	41.00
1.94262	41.34
1.95928	41.65
1.97595	41.99
1.99262	42.32
2.00928	42.64
2.02595	42.97
2.04262	43.28
2.05928	43.60
2.07595	43.93
2.09262	44.25
2.10928	44.58
2.12595	44.91
2.14262	45.25
2.15928	45.55
2.17595	45.87
2.19262	46.21
2.20928	46.54
2.22595	46.86
2.24262	47.20
2.25928	47.53
2.27595	47.86
2.29262	48.17
2.30928	48.55
2.32595	48.90
2.34262	49.21
2.35928	49.46
2.37595	49.60
2.39262	49.64
2.40928	49.64
2.42595	49.64
2.44262	49.64
2.45928	49.66
2.47595	49.66
2.49262	49.68
2.50928	49.69
2.52595	49.71
2.54262	49.72
2.55928	49.74
2.57595	49.75
2.59262	49.78
2.60928	49.78
2.62595	49.81
2.64262	49.84
2.65928	49.84
2.67595	49.85
2.69262	49.85
2.70928	49.85
2.72595	49.86
2.74262	49.87
2.75928	49.86
2.77595	49.85
2.79262	49.86
2.80928	49.89
2.82595	49.90
2.84262	49.90
2.85928	49.91
2.87595	49.92
2.89262	49.93
2.90928	49.94
2.92595	49.95
2.94262	49.96
2.95928	49.96
2.97595	49.98
2.99262	49.98
3.00928	49.97
3.02595	49.98
3.04262	49.98
3.05928	49.98
3.07595	49.99
3.09262	49.99
3.10928	50.00
3.12595	50.01
3.14262	50.02
3.15928	50.02
3.17595	50.02
3.19262	50.03
3.20928	50.03
3.22595	50.05
3.24262	50.06
3.25928	50.08
3.27595	50.08
3.29262	50.09
3.30928	50.11
3.32595	50.12
3.34262	50.11
3.35928	50.10
3.37595	50.10
3.39262	50.08
3.40928	50.08
3.42595	50.06
3.44262	50.05
3.45928	50.05
3.47595	50.04
3.49262	50.02
3.50928	50.01
3.52595	50.00
3.54262	50.00
3.55928	50.00
3.57595	50.00
3.59262	50.00
3.60928	50.01
3.62595	50.00
3.64262	50.00
3.65928	50.00
3.67595	50.01
3.69262	50.01
3.70928	50.02
3.72595	50.02
3.74262	50.02
3.75928	50.03
3.77595	50.03
3.79262	50.03
3.80928	50.03
3.82595	50.03
3.84262	50.03
3.85928	50.03
3.87595	50.03
3.89262	50.03
3.90928	50.03
3.92595	50.04
3.94262	50.05
3.95928	50.07
3.97595	50.08
3.99262	50.08

[Status Trace (Injection Unit Temperature)]
Interval(msec)	1000
# of Points	240
Start Time(min)	0.009
End Time(min)	3.993
Intensity Units	
Intensity Multiplier	1
R.Time (min)	Intensity
0.00928	99.99
0.02595	99.99
0.04262	99.99
0.05928	99.99
0.07595	99.99
0.09262	99.99
0.10928	99.99
0.12595	99.99
0.14262	99.98
0.15928	99.99
0.17595	99.98
0.19262	99.99
0.20928	99.99
0.22595	99.99
0.24262	99.99
0.25928	99.99
0.27595	99.99
0.29262	99.99
0.30928	99.99
0.32595	99.98
0.34262	99.99
0.35928	99.98
0.37595	99.98
0.39262	99.98
0.40928	99.99
0.42595	99.98
0.44262	99.98
0.45928	99.98
0.47595	99.98
0.49262	99.98
0.50928	99.98
0.52595	99.98
0.54262	99.98
0.55928	99.98
0.57595	99.98
0.59262	99.98
0.60928	99.98
0.62595	99.97
0.64262	99.98
0.65928	99.98
0.67595	99.98
0.69262	99.98
0.70928	99.98
0.72595	99.98
0.74262	99.98
0.75928	99.98
0.77595	99.98
0.79262	99.98
0.80928	99.98
0.82595	99.98
0.84262	99.98
0.85928	99.98
0.87595	99.98
0.89262	99.98
0.90928	99.98
0.92595	99.98
0.94262	99.98
0.95928	99.98
0.97595	99.98
0.99262	99.98
1.00928	99.98
1.02595	99.98
1.04262	99.98
1.05928	99.98
1.07595	99.98
1.09262	99.98
1.10928	99.98
1.12595	99.98
1.14262	99.98
1.15928	99.98
1.17595	99.98
1.19262	99.98
1.20928	99.98
1.22595	99.98
1.24262	99.98
1.25928	99.98
1.27595	99.98
1.29262	99.98
1.30928	99.98
1.32595	99.98
1.34262	99.98
1.35928	99.98
1.37595	99.98
1.39262	99.98
1.40928	99.98
1.42595	99.98
1.44262	99.98
1.45928	99.98
1.47595	99.98
1.49262	99.98
1.50928	99.98
1.52595	99.98
1.54262	99.98
1.55928	99.98
1.57595	99.99
1.59262	99.98
1.60928	99.98
1.62595	99.98
1.64262	99.98
1.65928	99.98
1.67595	99.98
1.69262	99.99
1.70928	99.98
1.72595	99.98
1.74262	99.98
1.75928	99.98
1.77595	99.99
1.79262	99.98
1.80928	99.98
1.82595	99.98
1.84262	99.98
1.85928	99.98
1.87595	99.98
1.89262	99.98
1.90928	99.98
1.92595	99.98
1.94262	99.99
1.95928	99.98
1.97595	99.98
1.99262	99.98
2.00928	99.98
2.02595	99.98
2.04262	99.98
2.05928	99.98
2.07595	99.98
2.09262	99.98
2.10928	99.98
2.12595	99.97
2.14262	99.97
2.15928	99.98
2.17595	99.97
2.19262	99.97
2.20928	99.97
2.22595	99.97
2.24262	99.97
2.25928	99.97
2.27595	99.97
2.29262	99.97
2.30928	99.97
2.32595	99.97
2.34262	99.97
2.35928	99.97
2.37595	99.97
2.39262	99.97
2.40928	99.97
2.42595	99.97
2.44262	99.97
2.45928	99.97
2.47595	99.97
2.49262	99.97
2.50928	99.96
2.52595	99.97
2.54262	99.97
2.55928	99.97
2.57595	99.97
2.59262	99.97
2.60928	99.97
2.62595	99.97
2.64262	99.98
2.65928	99.98
2.67595	99.97
2.69262	99.98
2.70928	99.98
2.72595	99.98
2.74262	99.98
2.75928	99.98
2.77595	99.98
2.79262	99.98
2.80928	99.99
2.82595	99.99
2.84262	99.99
2.85928	99.99
2.87595	99.99
2.89262	99.99
2.90928	100.00
2.92595	99.99
2.94262	100.00
2.95928	100.00
2.97595	100.00
2.99262	100.00
3.00928	100.00
3.02595	100.00
3.04262	100.00
3.05928	100.00
3.07595	100.01
3.09262	100.01
3.10928	100.01
3.12595	100.01
3.14262	100.01
3.15928	100.00
3.17595	100.01
3.19262	100.00
3.20928	100.01
3.22595	100.01
3.24262	100.02
3.25928	100.02
3.27595	100.02
3.29262	100.01
3.30928	100.02
3.32595	100.02
3.34262	100.02
3.35928	100.02
3.37595	100.02
3.39262	100.02
3.40928	100.02
3.42595	100.02
3.44262	100.02
3.45928	100.02
3.47595	100.03
3.49262	100.03
3.50928	100.03
3.52595	100.03
3.54262	100.03
3.55928	100.03
3.57595	100.03
3.59262	100.04
3.60928	100.04
3.62595	100.03
3.64262	100.03
3.65928	100.03
3.67595	100.04
3.69262	100.04
3.70928	100.04
3.72595	100.04
3.74262	100.04
3.75928	100.04
3.77595	100.04
3.79262	100.04
3.80928	100.04
3.82595	100.04
3.84262	100.04
3.85928	100.05
3.87595	100.05
3.89262	100.04
3.90928	100.04
3.92595	100.04
3.94262	100.05
3.95928	100.04
3.97595	100.05
3.99262	100.05

[Status Trace (Carrier Gas Pressure)]
Interval(msec)	1000
# of Points	240
Start Time(min)	0.009
End Time(min)	3.993
Intensity Units	
Intensity Multiplier	1
R.Time (min)	Intensity
0.00928	58.00
0.02595	55.21
0.04262	57.34
0.05928	59.37
0.07595	59.28
0.09262	58.03
0.10928	57.98
0.12595	58.01
0.14262	58.01
0.15928	58.01
0.17595	58.00
0.19262	58.00
0.20928	58.00
0.22595	58.00
0.24262	58.00
0.25928	58.00
0.27595	58.00
0.29262	58.00
0.30928	58.00
0.32595	58.00
0.34262	58.00
0.35928	58.00
0.37595	58.00
0.39262	58.00
0.40928	58.00
0.42595	58.00
0.44262	58.00
0.45928	58.00
0.47595	58.00
0.49262	58.00
0.50928	58.00
0.52595	58.00
0.54262	58.00
0.55928	58.00
0.57595	58.00
0.59262	58.00
0.60928	58.00
0.62595	58.00
0.64262	58.00
0.65928	58.00
0.67595	58.00
0.69262	58.00
0.70928	58.00
0.72595	58.00
0.74262	58.00
0.75928	58.00
0.77595	58.00
0.79262	58.00
0.80928	58.00
0.82595	58.00
0.84262	58.00
0.85928	58.00
0.87595	58.00
0.89262	58.00
0.90928	58.00
0.92595	58.00
0.94262	58.00
0.95928	58.00
0.97595	58.00
0.99262	58.00
1.00928	58.00
1.02595	58.00
1.04262	58.00
1.05928	58.00
1.07595	58.00
1.09262	58.00
1.10928	58.00
1.12595	58.00
1.14262	58.00
1.15928	58.00
1.17595	58.00
1.19262	58.00
1.20928	58.00
1.22595	58.00
1.24262	58.00
1.25928	58.00
1.27595	58.00
1.29262	58.00
1.30928	58.00
1.32595	58.00
1.34262	58.00
1.35928	58.00
1.37595	58.00
1.39262	58.00
1.40928	58.00
1.42595	58.00
1.44262	58.00
1.45928	58.00
1.47595	58.00
1.49262	58.00
1.50928	58.00
1.52595	58.00
1.54262	58.00
1.55928	58.00
1.57595	58.00
1.59262	58.00
1.60928	58.00
1.62595	58.00
1.64262	58.00
1.65928	58.00
1.67595	58.01
1.69262	58.00
1.70928	58.00
1.72595	58.00
1.74262	58.00
1.75928	58.00
1.77595	58.00
1.79262	58.00
1.80928	58.00
1.82595	58.00
1.84262	58.00
1.85928	58.00
1.87595	58.00
1.89262	58.00
1.90928	58.00
1.92595	58.00
1.94262	58.00
1.95928	58.00
1.97595	58.00
1.99262	58.00
2.00928	58.00
2.02595	58.00
2.04262	58.00
2.05928	58.00
2.07595	58.00
2.09262	58.00
2.10928	58.00
2.12595	58.00
2.14262	58.00
2.15928	58.00
2.17595	58.00
2.19262	58.00
2.20928	58.00
2.22595	58.00
2.24262	58.00
2.25928	58.00
2.27595	58.00
2.29262	58.00
2.30928	58.00
2.32595	58.00
2.34262	58.00
2.35928	58.00
2.37595	58.00
2.39262	57.99
2.40928	57.99
2.42595	58.00
2.44262	58.00
2.45928	58.00
2.47595	58.00
2.49262	58.00
2.50928	58.00
2.52595	57.99
2.54262	58.00
2.55928	58.00
2.57595	58.00
2.59262	58.00
2.60928	58.00
2.62595	58.00
2.64262	58.00
2.65928	58.00
2.67595	58.00
2.69262	58.00
2.70928	58.00
2.72595	58.00
2.74262	58.00
2.75928	58.00
2.77595	58.00
2.79262	58.00
2.80928	58.00
2.82595	58.00
2.84262	58.00
2.85928	58.00
2.87595	58.00
2.89262	58.00
2.90928	58.00
2.92595	58.00
2.94262	58.00
2.95928	58.00
2.97595	58.00
2.99262	58.00
3.00928	58.00
3.02595	58.00
3.04262	58.00
3.05928	58.00
3.07595	58.00
3.09262	58.00
3.10928	58.00
3.12595	58.00
3.14262	58.00
3.15928	58.00
3.17595	58.00
3.19262	58.00
3.20928	58.00
3.22595	58.00
3.24262	58.00
3.25928	58.00
3.27595	58.00
3.29262	58.00
3.30928	58.00
3.32595	58.00
3.34262	58.00
3.35928	58.00
3.37595	58.00
3.39262	58.00
3.40928	58.00
3.42595	58.00
3.44262	58.00
3.45928	58.00
3.47595	58.00
3.49262	58.00
3.50928	58.00
3.52595	58.00
3.54262	58.00
3.55928	58.00
3.57595	58.00
3.59262	58.00
3.60928	58.00
3.62595	58.00
3.64262	58.00
3.65928	58.00
3.67595	58.00
3.69262	58.00
3.70928	58.00
3.72595	58.00
3.74262	58.00
3.75928	58.00
3.77595	58.00
3.79262	58.00
3.80928	58.00
3.82595	58.00
3.84262	58.00
3.85928	58.00
3.87595	58.00
3.89262	58.00
3.90928	58.00
3.92595	58.00
3.94262	58.00
3.95928	58.00
3.97595	58.00
3.99262	58.00

[Status Trace (Carrier Gas Flow)]
Interval(msec)	1000
# of Points	240
Start Time(min)	0.009
End Time(min)	3.993
Intensity Units	
Intensity Multiplier	1
R.Time (min)	Intensity
0.00928	34.52
0.02595	34.54
0.04262	34.55
0.05928	34.55
0.07595	34.50
0.09262	34.52
0.10928	34.52
0.12595	34.52
0.14262	34.51
0.15928	34.53
0.17595	34.51
0.19262	34.51
0.20928	34.52
0.22595	34.51
0.24262	34.52
0.25928	34.52
0.27595	34.52
0.29262	34.51
0.30928	34.52
0.32595	34.52
0.34262	34.52
0.35928	34.52
0.37595	34.52
0.39262	34.52
0.40928	34.52
0.42595	34.52
0.44262	34.51
0.45928	34.52
0.47595	34.52
0.49262	34.52
0.50928	34.52
0.52595	34.52
0.54262	34.52
0.55928	34.52
0.57595	34.52
0.59262	34.52
0.60928	34.52
0.62595	34.52
0.64262	34.52
0.65928	34.52
0.67595	34.52
0.69262	34.52
0.70928	34.52
0.72595	34.52
0.74262	34.51
0.75928	34.52
0.77595	34.52
0.79262	34.52
0.80928	34.52
0.82595	34.52
0.84262	34.51
0.85928	34.52
0.87595	34.52
0.89262	34.52
0.90928	34.52
0.92595	34.52
0.94262	34.52
0.95928	34.52
0.97595	34.52
0.99262	34.52
1.00928	34.52
1.02595	34.52
1.04262	34.52
1.05928	34.51
1.07595	34.52
1.09262	34.52
1.10928	34.52
1.12595	34.52
1.14262	34.52
1.15928	34.52
1.17595	34.53
1.19262	34.52
1.20928	34.52
1.22595	34.52
1.24262	34.52
1.25928	34.52
1.27595	34.52
1.29262	34.52
1.30928	34.52
1.32595	34.53
1.34262	34.52
1.35928	34.52
1.37595	34.52
1.39262	34.52
1.40928	34.52
1.42595	34.52
1.44262	34.52
1.45928	34.52
1.47595	34.52
1.49262	34.52
1.50928	34.52
1.52595	34.52
1.54262	34.52
1.55928	34.52
1.57595	34.51
1.59262	34.52
1.60928	34.52
1.62595	34.52
1.64262	34.52
1.65928	34.51
1.67595	34.52
1.69262	34.52
1.70928	34.52
1.72595	34.52
1.74262	34.52
1.75928	34.52
1.77595	34.52
1.79262	34.51
1.80928	34.52
1.82595	34.52
1.84262	34.52
1.85928	34.52
1.87595	34.52
1.89262	34.52
1.90928	34.52
1.92595	34.52
1.94262	34.52
1.95928	34.52
1.97595	34.52
1.99262	34.52
2.00928	34.53
2.02595	34.52
2.04262	34.52
2.05928	34.51
2.07595	34.52
2.09262	34.52
2.10928	34.52
2.12595	34.52
2.14262	34.52
2.15928	34.52
2.17595	34.52
2.19262	34.51
2.20928	34.52
2.22595	34.52
2.24262	34.52
2.25928	34.52
2.27595	34.51
2.29262	34.52
2.30928	34.52
2.32595	34.52
2.34262	34.52
2.35928	34.52
2.37595	34.52
2.39262	34.52
2.40928	34.52
2.42595	34.52
2.44262	34.52
2.45928	34.52
2.47595	34.52
2.49262	34.52
2.50928	34.49
2.52595	34.52
2.54262	34.52
2.55928	34.52
2.57595	34.52
2.59262	34.52
2.60928	34.53
2.62595	34.51
2.64262	34.51
2.65928	34.52
2.67595	34.52
2.69262	34.52
2.70928	34.52
2.72595	34.52
2.74262	34.52
2.75928	34.52
2.77595	34.51
2.79262	34.52
2.80928	34.52
2.82595	34.52
2.84262	34.52
2.85928	34.52
2.87595	34.52
2.89262	34.52
2.90928	34.52
2.92595	34.52
2.94262	34.52
2.95928	34.52
2.97595	34.52
2.99262	34.52
3.00928	34.52
3.02595	34.52
3.04262	34.52
3.05928	34.52
3.07595	34.52
3.09262	34.51
3.10928	34.52
3.12595	34.52
3.14262	34.52
3.15928	34.52
3.17595	34.52
3.19262	34.52
3.20928	34.52
3.22595	34.52
3.24262	34.51
3.25928	34.52
3.27595	34.52
3.29262	34.52
3.30928	34.52
3.32595	34.51
3.34262	34.52
3.35928	34.52
3.37595	34.52
3.39262	34.52
3.40928	34.52
3.42595	34.52
3.44262	34.52
3.45928	34.52
3.47595	34.52
3.49262	34.52
3.50928	34.51
3.52595	34.53
3.54262	34.52
3.55928	34.52
3.57595	34.52
3.59262	34.52
3.60928	34.52
3.62595	34.52
3.64262	34.52
3.65928	34.52
3.67595	34.52
3.69262	34.52
3.70928	34.52
3.72595	34.51
3.74262	34.52
3.75928	34.53
3.77595	34.52
3.79262	34.52
3.80928	34.52
3.82595	34.52
3.84262	34.52
3.85928	34.52
3.87595	34.52
3.89262	34.52
3.90928	34.52
3.92595	34.52
3.94262	34.51
3.95928	34.51
3.97595	34.52
3.99262	34.52

[Status Trace (Column Flow)]
Interval(msec)	1000
# of Points	240
Start Time(min)	0.009
End Time(min)	3.993
Intensity Units	
Intensity Multiplier	1
R.Time (min)	Intensity
0.00928	5.51
0.02595	5.19
0.04262	5.44
0.05928	5.67
0.07595	5.66
0.09262	5.52
0.10928	5.51
0.12595	5.51
0.14262	5.51
0.15928	5.51
0.17595	5.51
0.19262	5.51
0.20928	5.51
0.22595	5.51
0.24262	5.51
0.25928	5.51
0.27595	5.51
0.29262	5.51
0.30928	5.51
0.32595	5.51
0.34262	5.51
0.35928	5.51
0.37595	5.51
0.39262	5.51
0.40928	5.51
0.42595	5.51
0.44262	5.51
0.45928	5.51
0.47595	5.51
0.49262	5.51
0.50928	5.51
0.52595	5.51
0.54262	5.51
0.55928	5.51
0.57595	5.51
0.59262	5.51
0.60928	5.51
0.62595	5.52
0.64262	5.52
0.65928	5.52
0.67595	5.52
0.69262	5.52
0.70928	5.52
0.72595	5.51
0.74262	5.51
0.75928	5.51
0.77595	5.51
0.79262	5.51
0.80928	5.51
0.82595	5.51
0.84262	5.51
0.85928	5.51
0.87595	5.51
0.89262	5.51
0.90928	5.51
0.92595	5.51
0.94262	5.51
0.95928	5.51
0.97595	5.51
0.99262	5.51
1.00928	5.51
1.02595	5.51
1.04262	5.51
1.05928	5.51
1.07595	5.51
1.09262	5.51
1.10928	5.51
1.12595	5.52
1.14262	5.52
1.15928	5.51
1.17595	5.51
1.19262	5.51
1.20928	5.51
1.22595	5.51
1.24262	5.51
1.25928	5.51
1.27595	5.51
1.29262	5.51
1.30928	5.51
1.32595	5.51
1.34262	5.51
1.35928	5.51
1.37595	5.51
1.39262	5.51
1.40928	5.52
1.42595	5.52
1.44262	5.52
1.45928	5.51
1.47595	5.51
1.49262	5.51
1.50928	5.51
1.52595	5.51
1.54262	5.51
1.55928	5.51
1.57595	5.51
1.59262	5.51
1.60928	5.51
1.62595	5.51
1.64262	5.50
1.65928	5.49
1.67595	5.48
1.69262	5.47
1.70928	5.46
1.72595	5.45
1.74262	5.44
1.75928	5.43
1.77595	5.42
1.79262	5.41
1.80928	5.40
1.82595	5.39
1.84262	5.38
1.85928	5.37
1.87595	5.36
1.89262	5.35
1.90928	5.34
1.92595	5.33
1.94262	5.32
1.95928	5.31
1.97595	5.30
1.99262	5.29
2.00928	5.28
2.02595	5.27
2.04262	5.26
2.05928	5.25
2.07595	5.24
2.09262	5.23
2.10928	5.23
2.12595	5.22
2.14262	5.21
2.15928	5.20
2.17595	5.19
2.19262	5.18
2.20928	5.17
2.22595	5.16
2.24262	5.15
2.25928	5.14
2.27595	5.13
2.29262	5.12
2.30928	5.11
2.32595	5.10
2.34262	5.09
2.35928	5.09
2.37595	5.08
2.39262	5.08
2.40928	5.08
2.42595	5.08
2.44262	5.08
2.45928	5.08
2.47595	5.08
2.49262	5.08
2.50928	5.08
2.52595	5.08
2.54262	5.08
2.55928	5.08
2.57595	5.08
2.59262	5.08
2.60928	5.08
2.62595	5.08
2.64262	5.08
2.65928	5.08
2.67595	5.08
2.69262	5.08
2.70928	5.08
2.72595	5.08
2.74262	5.08
2.75928	5.08
2.77595	5.08
2.79262	5.08
2.80928	5.07
2.82595	5.07
2.84262	5.07
2.85928	5.07
2.87595	5.07
2.89262	5.07
2.90928	5.07
2.92595	5.07
2.94262	5.07
2.95928	5.07
2.97595	5.07
2.99262	5.07
3.00928	5.07
3.02595	5.07
3.04262	5.07
3.05928	5.07
3.07595	5.07
3.09262	5.07
3.10928	5.07
3.12595	5.07
3.14262	5.07
3.15928	5.07
3.17595	5.07
3.19262	5.07
3.20928	5.07
3.22595	5.07
3.24262	5.07
3.25928	5.07
3.27595	5.07
3.29262	5.07
3.30928	5.07
3.32595	5.07
3.34262	5.07
3.35928	5.07
3.37595	5.07
3.39262	5.07
3.40928	5.07
3.42595	5.07
3.44262	5.07
3.45928	5.07
3.47595	5.07
3.49262	5.07
3.50928	5.07
3.52595	5.07
3.54262	5.07
3.55928	5.07
3.57595	5.07
3.59262	5.07
3.60928	5.07
3.62595	5.07
3.64262	5.07
3.65928	5.07
3.67595	5.07
3.69262	5.07
3.70928	5.07
3.72595	5.07
3.74262	5.07
3.75928	5.07
3.77595	5.07
3.79262	5.07
3.80928	5.07
3.82595	5.07
3.84262	5.07
3.85928	5.07
3.87595	5.07
3.89262	5.07
3.90928	5.07
3.92595	5.07
3.94262	5.07
3.95928	5.07
3.97595	5.07
3.99262	5.07

[Status Trace (Linear Velocity)]
Interval(msec)	1000
# of Points	240
Start Time(min)	0.009
End Time(min)	3.993
Intensity Units	
Intensity Multiplier	1
R.Time (min)	Intensity
0.00928	39.01
0.02595	37.18
0.04262	38.58
0.05928	39.91
0.07595	39.85
0.09262	39.03
0.10928	39.00
0.12595	39.02
0.14262	39.02
0.15928	39.01
0.17595	39.01
0.19262	39.01
0.20928	39.01
0.22595	39.02
0.24262	39.01
0.25928	39.01
0.27595	39.01
0.29262	39.01
0.30928	39.01
0.32595	39.01
0.34262	39.01
0.35928	39.01
0.37595	39.01
0.39262	39.01
0.40928	39.01
0.42595	39.01
0.44262	39.01
0.45928	39.01
0.47595	39.01
0.49262	39.01
0.50928	39.01
0.52595	39.01
0.54262	39.01
0.55928	39.02
0.57595	39.01
0.59262	39.02
0.60928	39.02
0.62595	39.02
0.64262	39.02
0.65928	39.02
0.67595	39.02
0.69262	39.02
0.70928	39.02
0.72595	39.02
0.74262	39.01
0.75928	39.01
0.77595	39.01
0.79262	39.01
0.80928	39.02
0.82595	39.02
0.84262	39.02
0.85928	39.02
0.87595	39.02
0.89262	39.01
0.90928	39.01
0.92595	39.01
0.94262	39.01
0.95928	39.01
0.97595	39.02
0.99262	39.01
1.00928	39.01
1.02595	39.01
1.04262	39.01
1.05928	39.01
1.07595	39.01
1.09262	39.02
1.10928	39.02
1.12595	39.02
1.14262	39.02
1.15928	39.02
1.17595	39.02
1.19262	39.02
1.20928	39.01
1.22595	39.01
1.24262	39.01
1.25928	39.01
1.27595	39.02
1.29262	39.02
1.30928	39.02
1.32595	39.02
1.34262	39.01
1.35928	39.01
1.37595	39.02
1.39262	39.02
1.40928	39.02
1.42595	39.02
1.44262	39.02
1.45928	39.02
1.47595	39.02
1.49262	39.01
1.50928	39.01
1.52595	39.01
1.54262	39.01
1.55928	39.01
1.57595	39.02
1.59262	39.01
1.60928	39.01
1.62595	39.00
1.64262	38.98
1.65928	38.96
1.67595	38.92
1.69262	38.88
1.70928	38.85
1.72595	38.82
1.74262	38.79
1.75928	38.76
1.77595	38.72
1.79262	38.69
1.80928	38.67
1.82595	38.63
1.84262	38.60
1.85928	38.57
1.87595	38.54
1.89262	38.51
1.90928	38.48
1.92595	38.45
1.94262	38.42
1.95928	38.39
1.97595	38.35
1.99262	38.32
2.00928	38.30
2.02595	38.26
2.04262	38.24
2.05928	38.21
2.07595	38.18
2.09262	38.15
2.10928	38.12
2.12595	38.09
2.14262	38.06
2.15928	38.03
2.17595	38.00
2.19262	37.97
2.20928	37.94
2.22595	37.91
2.24262	37.88
2.25928	37.85
2.27595	37.82
2.29262	37.79
2.30928	37.76
2.32595	37.73
2.34262	37.70
2.35928	37.68
2.37595	37.66
2.39262	37.66
2.40928	37.66
2.42595	37.66
2.44262	37.66
2.45928	37.66
2.47595	37.66
2.49262	37.66
2.50928	37.66
2.52595	37.65
2.54262	37.65
2.55928	37.65
2.57595	37.65
2.59262	37.65
2.60928	37.65
2.62595	37.65
2.64262	37.65
2.65928	37.64
2.67595	37.64
2.69262	37.64
2.70928	37.64
2.72595	37.64
2.74262	37.64
2.75928	37.64
2.77595	37.64
2.79262	37.64
2.80928	37.64
2.82595	37.64
2.84262	37.64
2.85928	37.64
2.87595	37.64
2.89262	37.64
2.90928	37.64
2.92595	37.64
2.94262	37.63
2.95928	37.63
2.97595	37.63
2.99262	37.63
3.00928	37.63
3.02595	37.63
3.04262	37.63
3.05928	37.63
3.07595	37.63
3.09262	37.63
3.10928	37.63
3.12595	37.63
3.14262	37.63
3.15928	37.63
3.17595	37.63
3.19262	37.63
3.20928	37.63
3.22595	37.63
3.24262	37.63
3.25928	37.62
3.27595	37.62
3.29262	37.62
3.30928	37.62
3.32595	37.62
3.34262	37.62
3.35928	37.62
3.37595	37.62
3.39262	37.62
3.40928	37.62
3.42595	37.63
3.44262	37.63
3.45928	37.63
3.47595	37.63
3.49262	37.63
3.50928	37.63
3.52595	37.63
3.54262	37.63
3.55928	37.63
3.57595	37.63
3.59262	37.63
3.60928	37.63
3.62595	37.63
3.64262	37.63
3.65928	37.63
3.67595	37.63
3.69262	37.63
3.70928	37.63
3.72595	37.63
3.74262	37.63
3.75928	37.63
3.77595	37.63
3.79262	37.63
3.80928	37.63
3.82595	37.63
3.84262	37.63
3.85928	37.63
3.87595	37.63
3.89262	37.63
3.90928	37.63
3.92595	37.63
3.94262	37.63
3.95928	37.63
3.97595	37.62
3.99262	37.62

