[Header]
Application Name	LabSolutions
Version	5.110
Data File Name	C:\Users\User\Desktop\GC Analyses\Jack\Nachusa Grasslands Sampling\T2 Timepoint July 12th\T2_07122022_055.gcd
Output Date	3/14/2023
Output Time	3:42:33 PM

[File Information]
Type	Data File
Generated	3/10/2023 6:32:13 PM
Generated by	System Administrator
Modified	3/10/2023 6:38:47 PM
Modified by	System Administrator

[Sample Information]
Operator Name	System Administrator
Acquired	3/10/2023 6:34:46 PM
Sample Type	0:Unknown
Level	0
Sample Name	055
Sample ID	055
ISTD Amount1	1
ISTD Amount2	1
ISTD Amount3	1
ISTD Amount4	1
ISTD Amount5	1
ISTD Amount6	1
ISTD Amount7	1
ISTD Amount8	1
ISTD Amount9	1
ISTD Amount10	1
ISTD Amount11	1
ISTD Amount12	1
ISTD Amount13	1
ISTD Amount14	1
ISTD Amount15	1
ISTD Amount16	1
ISTD Amount17	1
ISTD Amount18	1
ISTD Amount19	1
ISTD Amount20	1
ISTD Amount21	1
ISTD Amount22	1
ISTD Amount23	1
ISTD Amount24	1
ISTD Amount25	1
ISTD Amount26	1
ISTD Amount27	1
ISTD Amount28	1
ISTD Amount29	1
ISTD Amount30	1
ISTD Amount31	1
ISTD Amount32	1
Sample Amount	1
Dilution Factor	1
Vial#	54
Injection Volume	1
Injection Count	1
Bar Code	

[Original Files]
Data File	C:\Users\User\Desktop\GC Analyses\Jack\Nachusa Grasslands Sampling\T1 Timepoint July 12th\T2_07122022_055.gcd
Method File	C:\LabSolutions\Data\GHG_4min_2022\ghg3_togas_w_acet_4 min_new_int.gcm
Batch File	C:\LabSolutions\Data\AutoSamplerTesting\T2_07122022.gcb
Report Format File	c:\LabSolutions\System\DEFAULT.lsr

[File Description]


[Configuration]
Instrument Name	C0B7VH3-Instrument1
Instrument #	1
Line #	1
# of Detectors	3
Detector ID	DET#1	DET#2	DET#3
Detector Name	FID	PTCD	ECD
# of Channels	1	1	1

[Peak Table(Ch1)]
# of Peaks	3
Peak#	R.Time	I.Time	F.Time	Area	Height	A/H	Conc.	Mark	ID#	Name	k'	Plate #	Plate Ht.	Tailing	Resolution	Sep.Factor	Area Ratio	Height Ratio	Conc. %	Norm Conc.
1	1.476	1.435	1.538	23466	11083	2.117	165.674	   	1	CO	0.000	9318	16.099	1.295	0.000	0.000	0	0	17.946	17.946
2	1.567	1.538	1.619	4520	2258	2.002	87.390	 V 	2	CH4	0.062	10528	14.247	0.000	1.500	0.000	0	0	9.466	9.466
3	1.996	1.949	2.502	2670053	1274223	2.095	670.111	   	3	CO2	0.353	17634	8.506	1.255	7.077	5.680	0	0	72.588	72.588

[Peak Table(Ch2)]
# of Peaks	0

[Peak Table(Ch3)]
# of Peaks	4
Peak#	R.Time	I.Time	F.Time	Area	Height	A/H	Conc.	Mark	ID#	Name	k'	Plate #	Plate Ht.	Tailing	Resolution	Sep.Factor	Area Ratio	Height Ratio	Conc. %	Norm Conc.
1	2.462	2.312	2.513	2144	632	3.394	0.000	   			0.000	9059	16.558	0.000	0.000	0.000	0	0	0.000	0.000
2	2.535	2.513	2.700	1748	373	4.689	0.000	 V 			0.030	4611	32.532	0.000	0.580	0.000	0	0	0.000	0.000
3	2.876	2.722	3.100	18803	4882	3.852	0.480	   	1	N2O	0.168	13163	11.396	1.617	2.732	5.650	0	0	100.000	100.000
4	3.408	3.217	3.995	12438	472	26.357	0.000	   	2	SF6	0.384	301	499.034	1.981	1.199	2.283	0	0	0.000	0.000

[Compound Results(Ch1)]
# of IDs	6
ID#	Name	R.Time	Area	Height	Conc.	Curve	3rd	2nd	1st	Constant	Area Ratio	Height Ratio	Conc. %	Norm Conc.
1	CO	1.476	23466	11083	165.674	Linear	0.000000e+00	0.000000e+00	1.416423e+002	0.000000e+00	0	0	17.946	17.946
2	CH4	1.567	4520	2258	87.390	Linear	0.000000e+00	0.000000e+00	5.171738e+001	0.000000e+00	0	0	9.466	9.466
3	CO2	1.996	2670053	1274223	670.111	Linear	0.000000e+00	0.000000e+00	3.984494e+003	0.000000e+00	0	0	72.588	72.588
4	Ethylene	0.000	0	0	0.000	Linear	0.000000e+00	0.000000e+00	0.000000e+00	0.000000e+00	0	0	0.000	0.000
5	Acetylene	0.000	0	0	0.000	Linear	0.000000e+00	0.000000e+00	0.000000e+00	0.000000e+00	0	0	0.000	0.000
6	Ethane	0.000	0	0	0.000	Linear	0.000000e+00	0.000000e+00	0.000000e+00	0.000000e+00	0	0	0.000	0.000

[Compound Results(Ch2)]
# of IDs	5
ID#	Name	R.Time	Area	Height	Conc.	Curve	3rd	2nd	1st	Constant	Area Ratio	Height Ratio	Conc. %	Norm Conc.
1	Hydrogen	0.000	0	0	0.000	Linear	0.000000e+00	0.000000e+00	0.000000e+00	0.000000e+00	0	0	0.000	0.000
2	Oxygen	0.000	0	0	0.000	Linear	0.000000e+00	0.000000e+00	0.000000e+00	0.000000e+00	0	0	0.000	0.000
3	Nitrogen	0.000	0	0	0.000	Linear	0.000000e+00	0.000000e+00	0.000000e+00	0.000000e+00	0	0	0.000	0.000
4	Methane	0.000	0	0	0.000	Linear	0.000000e+00	0.000000e+00	0.000000e+00	0.000000e+00	0	0	0.000	0.000
5	Carbon Monoxide	0.000	0	0	0.000	Linear	0.000000e+00	0.000000e+00	0.000000e+00	0.000000e+00	0	0	0.000	0.000

[Compound Results(Ch3)]
# of IDs	2
ID#	Name	R.Time	Area	Height	Conc.	Curve	3rd	2nd	1st	Constant	Area Ratio	Height Ratio	Conc. %	Norm Conc.
1	N2O	2.876	18803	4882	0.480	Linear	0.000000e+00	0.000000e+00	3.915173e+004	0.000000e+00	0	0	100.000	100.000
2	SF6	3.408	12438	472	0.000	Linear	0.000000e+00	0.000000e+00	0.000000e+00	0.000000e+00	0	0	0.000	0.000

[Group Results(Ch1)]
# of Groups	0

[Group Results(Ch2)]
# of Groups	0

[Group Results(Ch3)]
# of Groups	0

[Chromatogram (Ch1)]
Interval(msec)	220
# of Points	1091
Start Time(min)	0.002
End Time(min)	3.998
R.Time (min)	Intensity
0.00167	-2
0.00533	-4
0.00900	-6
0.01267	-8
0.01633	-8
0.02000	-5
0.02367	2
0.02733	7
0.03100	14
0.03467	18
0.03833	14
0.04200	8
0.04567	6
0.04933	4
0.05300	5
0.05667	7
0.06033	11
0.06400	10
0.06767	1
0.07133	-9
0.07500	-14
0.07867	-14
0.08233	-16
0.08600	-16
0.08967	-17
0.09333	-19
0.09700	-21
0.10067	-19
0.10433	-20
0.10800	-20
0.11167	-18
0.11533	-14
0.11900	-7
0.12267	-3
0.12633	-2
0.13000	1
0.13367	1
0.13733	-2
0.14100	-4
0.14467	-6
0.14833	-4
0.15200	6
0.15567	16
0.15933	25
0.16300	27
0.16667	24
0.17033	14
0.17400	3
0.17767	-7
0.18133	-13
0.18500	-13
0.18867	-8
0.19233	-2
0.19600	2
0.19967	3
0.20333	6
0.20700	11
0.21067	13
0.21433	14
0.21800	17
0.22167	14
0.22533	3
0.22900	-7
0.23267	-10
0.23633	-7
0.24000	-6
0.24367	-6
0.24733	-1
0.25100	6
0.25467	8
0.25833	6
0.26200	7
0.26567	11
0.26933	19
0.27300	25
0.27667	23
0.28033	17
0.28400	16
0.28767	18
0.29133	15
0.29500	9
0.29867	5
0.30233	5
0.30600	4
0.30967	6
0.31333	7
0.31700	3
0.32067	3
0.32433	8
0.32800	14
0.33167	20
0.33533	26
0.33900	30
0.34267	32
0.34633	34
0.35000	37
0.35367	40
0.35733	39
0.36100	37
0.36467	37
0.36833	40
0.37200	38
0.37567	35
0.37933	34
0.38300	37
0.38667	38
0.39033	36
0.39400	35
0.39767	35
0.40133	33
0.40500	32
0.40867	33
0.41233	38
0.41600	45
0.41967	51
0.42333	52
0.42700	47
0.43067	40
0.43433	38
0.43800	40
0.44167	42
0.44533	41
0.44900	40
0.45267	33
0.45633	23
0.46000	16
0.46367	14
0.46733	11
0.47100	3
0.47467	-2
0.47833	-4
0.48200	-6
0.48567	-9
0.48933	-7
0.49300	3
0.49667	17
0.50033	28
0.50400	29
0.50767	24
0.51133	17
0.51500	7
0.51867	-6
0.52233	-16
0.52600	-24
0.52967	-28
0.53333	-28
0.53700	-24
0.54067	-18
0.54433	-9
0.54800	3
0.55167	13
0.55533	16
0.55900	12
0.56267	8
0.56633	7
0.57000	6
0.57367	3
0.57733	-3
0.58100	-9
0.58467	-11
0.58833	-19
0.59200	-28
0.59567	-38
0.59933	-45
0.60300	-51
0.60667	-54
0.61033	-55
0.61400	-48
0.61767	-34
0.62133	-22
0.62500	-17
0.62867	-21
0.63233	-26
0.63600	-33
0.63967	-43
0.64333	-51
0.64700	-54
0.65067	-51
0.65433	-46
0.65800	-37
0.66167	-30
0.66533	-20
0.66900	-13
0.67267	-7
0.67633	-3
0.68000	-5
0.68367	-9
0.68733	-17
0.69100	-28
0.69467	-37
0.69833	-39
0.70200	-35
0.70567	-31
0.70933	-25
0.71300	-23
0.71667	-22
0.72033	-22
0.72400	-24
0.72767	-25
0.73133	-24
0.73500	-22
0.73867	-20
0.74233	-17
0.74600	-10
0.74967	-5
0.75333	-6
0.75700	-14
0.76067	-24
0.76433	-29
0.76800	-29
0.77167	-25
0.77533	-24
0.77900	-21
0.78267	-17
0.78633	-18
0.79000	-21
0.79367	-23
0.79733	-22
0.80100	-24
0.80467	-28
0.80833	-28
0.81200	-27
0.81567	-29
0.81933	-30
0.82300	-36
0.82667	-44
0.83033	-48
0.83400	-46
0.83767	-42
0.84133	-37
0.84500	-34
0.84867	-31
0.85233	-28
0.85600	-26
0.85967	-26
0.86333	-25
0.86700	-22
0.87067	-23
0.87433	-25
0.87800	-29
0.88167	-35
0.88533	-42
0.88900	-46
0.89267	-46
0.89633	-44
0.90000	-41
0.90367	-39
0.90733	-33
0.91100	-26
0.91467	-19
0.91833	-15
0.92200	-16
0.92567	-23
0.92933	-30
0.93300	-37
0.93667	-43
0.94033	-46
0.94400	-47
0.94767	-47
0.95133	-46
0.95500	-43
0.95867	-38
0.96233	-32
0.96600	-28
0.96967	-27
0.97333	-28
0.97700	-35
0.98067	-46
0.98433	-57
0.98800	-68
0.99167	-73
0.99533	-75
0.99900	-73
1.00267	-68
1.00633	-61
1.01000	-48
1.01367	-35
1.01733	-25
1.02100	-15
1.02467	-7
1.02833	-11
1.03200	-28
1.03567	-45
1.03933	-56
1.04300	-64
1.04667	-66
1.05033	-64
1.05400	-57
1.05767	-50
1.06133	-48
1.06500	-48
1.06867	-52
1.07233	-58
1.07600	-64
1.07967	-62
1.08333	-57
1.08700	-53
1.09067	-49
1.09433	-47
1.09800	-45
1.10167	-45
1.10533	-49
1.10900	-54
1.11267	-61
1.11633	-67
1.12000	-69
1.12367	-65
1.12733	-53
1.13100	-44
1.13467	-44
1.13833	-45
1.14200	-50
1.14567	-53
1.14933	-53
1.15300	-55
1.15667	-54
1.16033	-49
1.16400	-49
1.16767	-56
1.17133	-66
1.17500	-72
1.17867	-74
1.18233	-69
1.18600	-56
1.18967	-46
1.19333	-40
1.19700	-43
1.20067	-47
1.20433	-44
1.20800	-37
1.21167	-37
1.21533	-36
1.21900	-37
1.22267	-40
1.22633	-45
1.23000	-51
1.23367	-57
1.23733	-61
1.24100	-63
1.24467	-69
1.24833	-81
1.25200	-88
1.25567	-85
1.25933	-74
1.26300	-67
1.26667	-65
1.27033	-65
1.27400	-62
1.27767	-56
1.28133	-54
1.28500	-60
1.28867	-65
1.29233	-71
1.29600	-77
1.29967	-81
1.30333	-78
1.30700	-72
1.31067	-69
1.31433	-70
1.31800	-73
1.32167	-78
1.32533	-83
1.32900	-84
1.33267	-79
1.33633	-73
1.34000	-69
1.34367	-67
1.34733	-71
1.35100	-77
1.35467	-82
1.35833	-86
1.36200	-90
1.36567	-89
1.36933	-86
1.37300	-84
1.37667	-80
1.38033	-82
1.38400	-88
1.38767	-87
1.39133	-81
1.39500	-75
1.39867	-71
1.40233	-66
1.40600	-61
1.40967	-57
1.41333	-59
1.41700	-61
1.42067	-62
1.42433	-64
1.42800	-63
1.43167	-59
1.43533	-52
1.43900	-27
1.44267	72
1.44633	306
1.45000	861
1.45367	2064
1.45733	3930
1.46100	6069
1.46467	8053
1.46833	9627
1.47200	10656
1.47567	11046
1.47933	10706
1.48300	9678
1.48667	8174
1.49033	6501
1.49400	4938
1.49767	3636
1.50133	2629
1.50500	1889
1.50867	1361
1.51233	993
1.51600	736
1.51967	552
1.52333	417
1.52700	320
1.53067	251
1.53433	206
1.53800	195
1.54167	258
1.54533	450
1.54900	782
1.55267	1191
1.55633	1591
1.56000	1923
1.56367	2153
1.56733	2253
1.57100	2196
1.57467	1974
1.57833	1636
1.58200	1262
1.58567	919
1.58933	642
1.59300	439
1.59667	293
1.60033	191
1.60400	122
1.60767	77
1.61133	45
1.61500	26
1.61867	14
1.62233	8
1.62600	9
1.62967	10
1.63333	6
1.63700	-2
1.64067	-14
1.64433	-27
1.64800	-34
1.65167	-33
1.65533	-32
1.65900	-31
1.66267	-27
1.66633	-23
1.67000	-23
1.67367	-28
1.67733	-31
1.68100	-33
1.68467	-41
1.68833	-51
1.69200	-58
1.69567	-63
1.69933	-65
1.70300	-64
1.70667	-58
1.71033	-50
1.71400	-43
1.71767	-39
1.72133	-35
1.72500	-31
1.72867	-32
1.73233	-39
1.73600	-47
1.73967	-47
1.74333	-45
1.74700	-47
1.75067	-44
1.75433	-41
1.75800	-42
1.76167	-43
1.76533	-36
1.76900	-26
1.77267	-25
1.77633	-28
1.78000	-32
1.78367	-37
1.78733	-44
1.79100	-51
1.79467	-57
1.79833	-59
1.80200	-59
1.80567	-57
1.80933	-55
1.81300	-57
1.81667	-64
1.82033	-73
1.82400	-76
1.82767	-73
1.83133	-66
1.83500	-59
1.83867	-54
1.84233	-51
1.84600	-51
1.84967	-49
1.85333	-47
1.85700	-47
1.86067	-48
1.86433	-46
1.86800	-39
1.87167	-34
1.87533	-37
1.87900	-34
1.88267	-28
1.88633	-26
1.89000	-25
1.89367	-26
1.89733	-31
1.90100	-38
1.90467	-44
1.90833	-49
1.91200	-51
1.91567	-50
1.91933	-47
1.92300	-41
1.92667	-33
1.93033	-26
1.93400	-23
1.93767	-25
1.94133	-33
1.94500	-41
1.94867	-41
1.95233	-1
1.95600	296
1.95967	2005
1.96333	9516
1.96700	34569
1.97067	98713
1.97433	225349
1.97800	420198
1.98167	659822
1.98533	901563
1.98900	1102871
1.99267	1232765
1.99633	1274237
2.00000	1225415
2.00367	1101151
2.00733	928829
2.01100	740168
2.01467	562174
2.01833	411265
2.02200	293054
2.02567	205627
2.02933	143526
2.03300	100577
2.03667	71355
2.04033	51626
2.04400	38305
2.04767	29256
2.05133	23037
2.05500	18686
2.05867	15576
2.06233	13296
2.06600	11580
2.06967	10256
2.07333	9208
2.07700	8365
2.08067	7666
2.08433	7073
2.08800	6563
2.09167	6118
2.09533	5725
2.09900	5380
2.10267	5070
2.10633	4794
2.11000	4551
2.11367	4333
2.11733	4131
2.12100	3944
2.12467	3773
2.12833	3612
2.13200	3463
2.13567	3323
2.13933	3195
2.14300	3079
2.14667	2973
2.15033	2873
2.15400	2779
2.15767	2697
2.16133	2621
2.16500	2550
2.16867	2476
2.17233	2397
2.17600	2319
2.17967	2243
2.18333	2175
2.18700	2115
2.19067	2059
2.19433	2004
2.19800	1945
2.20167	1886
2.20533	1830
2.20900	1778
2.21267	1733
2.21633	1689
2.22000	1647
2.22367	1608
2.22733	1571
2.23100	1535
2.23467	1501
2.23833	1472
2.24200	1445
2.24567	1424
2.24933	1402
2.25300	1376
2.25667	1351
2.26033	1327
2.26400	1309
2.26767	1287
2.27133	1261
2.27500	1233
2.27867	1204
2.28233	1174
2.28600	1146
2.28967	1122
2.29333	1105
2.29700	1096
2.30067	1088
2.30433	1074
2.30800	1054
2.31167	1033
2.31533	1013
2.31900	997
2.32267	983
2.32633	973
2.33000	964
2.33367	955
2.33733	947
2.34100	937
2.34467	921
2.34833	905
2.35200	890
2.35567	875
2.35933	863
2.36300	849
2.36667	832
2.37033	815
2.37400	798
2.37767	787
2.38133	784
2.38500	788
2.38867	791
2.39233	789
2.39600	786
2.39967	778
2.40333	762
2.40700	739
2.41067	723
2.41433	711
2.41800	700
2.42167	695
2.42533	690
2.42900	688
2.43267	690
2.43633	693
2.44000	696
2.44367	694
2.44733	688
2.45100	679
2.45467	669
2.45833	660
2.46200	652
2.46567	644
2.46933	639
2.47300	634
2.47667	628
2.48033	628
2.48400	628
2.48767	621
2.49133	611
2.49500	603
2.49867	596
2.50233	594
2.50600	599
2.50967	608
2.51333	615
2.51700	615
2.52067	616
2.52433	622
2.52800	627
2.53167	627
2.53533	619
2.53900	609
2.54267	601
2.54633	596
2.55000	594
2.55367	594
2.55733	596
2.56100	593
2.56467	583
2.56833	573
2.57200	565
2.57567	556
2.57933	550
2.58300	548
2.58667	547
2.59033	544
2.59400	537
2.59767	529
2.60133	523
2.60500	520
2.60867	517
2.61233	517
2.61600	522
2.61967	528
2.62333	529
2.62700	528
2.63067	526
2.63433	524
2.63800	528
2.64167	534
2.64533	537
2.64900	536
2.65267	531
2.65633	522
2.66000	516
2.66367	510
2.66733	502
2.67100	495
2.67467	489
2.67833	484
2.68200	484
2.68567	489
2.68933	498
2.69300	508
2.69667	513
2.70033	510
2.70400	505
2.70767	498
2.71133	487
2.71500	480
2.71867	478
2.72233	481
2.72600	482
2.72967	482
2.73333	484
2.73700	481
2.74067	472
2.74433	464
2.74800	463
2.75167	469
2.75533	475
2.75900	477
2.76267	477
2.76633	475
2.77000	473
2.77367	468
2.77733	465
2.78100	464
2.78467	462
2.78833	461
2.79200	455
2.79567	453
2.79933	456
2.80300	461
2.80667	463
2.81033	461
2.81400	455
2.81767	450
2.82133	450
2.82500	451
2.82867	448
2.83233	444
2.83600	438
2.83967	435
2.84333	434
2.84700	437
2.85067	442
2.85433	447
2.85800	450
2.86167	453
2.86533	452
2.86900	450
2.87267	449
2.87633	446
2.88000	439
2.88367	435
2.88733	435
2.89100	435
2.89467	435
2.89833	435
2.90200	432
2.90567	423
2.90933	413
2.91300	405
2.91667	405
2.92033	411
2.92400	419
2.92767	424
2.93133	427
2.93500	427
2.93867	423
2.94233	414
2.94600	406
2.94967	407
2.95333	416
2.95700	432
2.96067	444
2.96433	445
2.96800	445
2.97167	445
2.97533	440
2.97900	431
2.98267	421
2.98633	411
2.99000	404
2.99367	399
2.99733	393
3.00100	389
3.00467	387
3.00833	386
3.01200	389
3.01567	396
3.01933	401
3.02300	402
3.02667	401
3.03033	400
3.03400	399
3.03767	402
3.04133	404
3.04500	399
3.04867	394
3.05233	392
3.05600	391
3.05967	389
3.06333	386
3.06700	381
3.07067	382
3.07433	387
3.07800	389
3.08167	392
3.08533	395
3.08900	400
3.09267	405
3.09633	406
3.10000	404
3.10367	402
3.10733	402
3.11100	399
3.11467	397
3.11833	395
3.12200	388
3.12567	377
3.12933	368
3.13300	366
3.13667	366
3.14033	370
3.14400	375
3.14767	380
3.15133	385
3.15500	389
3.15867	391
3.16233	389
3.16600	388
3.16967	390
3.17333	392
3.17700	389
3.18067	381
3.18433	372
3.18800	366
3.19167	364
3.19533	367
3.19900	368
3.20267	366
3.20633	360
3.21000	351
3.21367	341
3.21733	331
3.22100	323
3.22467	318
3.22833	316
3.23200	316
3.23567	318
3.23933	325
3.24300	336
3.24667	345
3.25033	349
3.25400	352
3.25767	355
3.26133	360
3.26500	361
3.26867	361
3.27233	359
3.27600	353
3.27967	345
3.28333	338
3.28700	334
3.29067	333
3.29433	335
3.29800	335
3.30167	328
3.30533	318
3.30900	310
3.31267	303
3.31633	301
3.32000	304
3.32367	310
3.32733	318
3.33100	324
3.33467	328
3.33833	332
3.34200	335
3.34567	339
3.34933	341
3.35300	340
3.35667	332
3.36033	321
3.36400	309
3.36767	304
3.37133	306
3.37500	312
3.37867	316
3.38233	314
3.38600	310
3.38967	309
3.39333	310
3.39700	312
3.40067	314
3.40433	315
3.40800	313
3.41167	309
3.41533	302
3.41900	293
3.42267	287
3.42633	288
3.43000	291
3.43367	293
3.43733	294
3.44100	299
3.44467	308
3.44833	316
3.45200	317
3.45567	309
3.45933	298
3.46300	290
3.46667	286
3.47033	284
3.47400	287
3.47767	291
3.48133	291
3.48500	290
3.48867	292
3.49233	294
3.49600	296
3.49967	301
3.50333	304
3.50700	308
3.51067	309
3.51433	304
3.51800	295
3.52167	284
3.52533	274
3.52900	264
3.53267	257
3.53633	254
3.54000	255
3.54367	260
3.54733	266
3.55100	271
3.55467	277
3.55833	282
3.56200	286
3.56567	287
3.56933	283
3.57300	275
3.57667	268
3.58033	262
3.58400	256
3.58767	252
3.59133	254
3.59500	259
3.59867	266
3.60233	273
3.60600	277
3.60967	279
3.61333	280
3.61700	279
3.62067	271
3.62433	261
3.62800	253
3.63167	247
3.63533	244
3.63900	243
3.64267	243
3.64633	245
3.65000	248
3.65367	254
3.65733	263
3.66100	273
3.66467	282
3.66833	283
3.67200	277
3.67567	267
3.67933	261
3.68300	258
3.68667	252
3.69033	246
3.69400	240
3.69767	234
3.70133	233
3.70500	232
3.70867	227
3.71233	223
3.71600	223
3.71967	224
3.72333	229
3.72700	235
3.73067	238
3.73433	237
3.73800	237
3.74167	238
3.74533	239
3.74900	237
3.75267	235
3.75633	233
3.76000	234
3.76367	238
3.76733	242
3.77100	247
3.77467	254
3.77833	258
3.78200	258
3.78567	250
3.78933	238
3.79300	229
3.79667	223
3.80033	221
3.80400	223
3.80767	225
3.81133	225
3.81500	225
3.81867	226
3.82233	231
3.82600	234
3.82967	236
3.83333	237
3.83700	238
3.84067	240
3.84433	240
3.84800	237
3.85167	237
3.85533	241
3.85900	241
3.86267	242
3.86633	240
3.87000	237
3.87367	232
3.87733	226
3.88100	222
3.88467	218
3.88833	213
3.89200	204
3.89567	194
3.89933	190
3.90300	190
3.90667	195
3.91033	202
3.91400	209
3.91767	213
3.92133	215
3.92500	215
3.92867	210
3.93233	201
3.93600	194
3.93967	192
3.94333	193
3.94700	191
3.95067	189
3.95433	188
3.95800	185
3.96167	184
3.96533	183
3.96900	182
3.97267	183
3.97633	183
3.98000	186
3.98367	191
3.98733	195
3.99100	198
3.99467	199
3.99833	199

[Chromatogram (Ch2)]
Interval(msec)	220
# of Points	1091
Start Time(min)	0.002
End Time(min)	3.998
R.Time (min)	Intensity
0.00167	1
0.00533	1
0.00900	1
0.01267	1
0.01633	1
0.02000	1
0.02367	1
0.02733	1
0.03100	0
0.03467	-0
0.03833	-1
0.04200	-1
0.04567	-1
0.04933	-1
0.05300	-1
0.05667	-1
0.06033	-1
0.06400	-1
0.06767	-1
0.07133	-1
0.07500	-1
0.07867	-0
0.08233	-0
0.08600	0
0.08967	0
0.09333	1
0.09700	1
0.10067	1
0.10433	1
0.10800	1
0.11167	2
0.11533	2
0.11900	2
0.12267	2
0.12633	2
0.13000	2
0.13367	2
0.13733	2
0.14100	2
0.14467	2
0.14833	2
0.15200	2
0.15567	2
0.15933	1
0.16300	1
0.16667	1
0.17033	1
0.17400	1
0.17767	1
0.18133	0
0.18500	0
0.18867	0
0.19233	-0
0.19600	-0
0.19967	-0
0.20333	-0
0.20700	-0
0.21067	-0
0.21433	-0
0.21800	-0
0.22167	0
0.22533	0
0.22900	1
0.23267	1
0.23633	1
0.24000	1
0.24367	1
0.24733	1
0.25100	1
0.25467	1
0.25833	2
0.26200	2
0.26567	2
0.26933	3
0.27300	3
0.27667	3
0.28033	3
0.28400	4
0.28767	4
0.29133	4
0.29500	4
0.29867	4
0.30233	4
0.30600	4
0.30967	4
0.31333	4
0.31700	4
0.32067	4
0.32433	4
0.32800	4
0.33167	4
0.33533	4
0.33900	4
0.34267	4
0.34633	4
0.35000	3
0.35367	3
0.35733	3
0.36100	2
0.36467	2
0.36833	2
0.37200	2
0.37567	1
0.37933	1
0.38300	1
0.38667	1
0.39033	1
0.39400	1
0.39767	1
0.40133	1
0.40500	1
0.40867	2
0.41233	2
0.41600	1
0.41967	1
0.42333	1
0.42700	1
0.43067	1
0.43433	0
0.43800	0
0.44167	0
0.44533	0
0.44900	-0
0.45267	-0
0.45633	-0
0.46000	-0
0.46367	-0
0.46733	0
0.47100	0
0.47467	0
0.47833	1
0.48200	1
0.48567	2
0.48933	2
0.49300	2
0.49667	3
0.50033	3
0.50400	3
0.50767	3
0.51133	3
0.51500	3
0.51867	3
0.52233	3
0.52600	3
0.52967	3
0.53333	3
0.53700	3
0.54067	3
0.54433	3
0.54800	3
0.55167	2
0.55533	2
0.55900	2
0.56267	2
0.56633	2
0.57000	2
0.57367	2
0.57733	2
0.58100	2
0.58467	1
0.58833	1
0.59200	1
0.59567	1
0.59933	2
0.60300	2
0.60667	2
0.61033	2
0.61400	2
0.61767	2
0.62133	2
0.62500	2
0.62867	2
0.63233	2
0.63600	2
0.63967	2
0.64333	2
0.64700	2
0.65067	2
0.65433	2
0.65800	2
0.66167	1
0.66533	1
0.66900	0
0.67267	-0
0.67633	-1
0.68000	-1
0.68367	-1
0.68733	-2
0.69100	-2
0.69467	-2
0.69833	-3
0.70200	-3
0.70567	-3
0.70933	-3
0.71300	-3
0.71667	-3
0.72033	-3
0.72400	-3
0.72767	-3
0.73133	-3
0.73500	-3
0.73867	-3
0.74233	-3
0.74600	-3
0.74967	-2
0.75333	-2
0.75700	-1
0.76067	-1
0.76433	-0
0.76800	0
0.77167	1
0.77533	1
0.77900	1
0.78267	1
0.78633	1
0.79000	1
0.79367	1
0.79733	0
0.80100	-0
0.80467	-0
0.80833	-0
0.81200	-0
0.81567	-0
0.81933	-0
0.82300	-0
0.82667	-0
0.83033	-0
0.83400	-0
0.83767	0
0.84133	0
0.84500	0
0.84867	0
0.85233	1
0.85600	1
0.85967	1
0.86333	1
0.86700	1
0.87067	1
0.87433	1
0.87800	2
0.88167	2
0.88533	2
0.88900	2
0.89267	2
0.89633	2
0.90000	2
0.90367	2
0.90733	2
0.91100	2
0.91467	1
0.91833	1
0.92200	1
0.92567	0
0.92933	-0
0.93300	-1
0.93667	-1
0.94033	-1
0.94400	-1
0.94767	-1
0.95133	-1
0.95500	-1
0.95867	-1
0.96233	-1
0.96600	-1
0.96967	-0
0.97333	-0
0.97700	-0
0.98067	-1
0.98433	-1
0.98800	-1
0.99167	-2
0.99533	-2
0.99900	-3
1.00267	-3
1.00633	-4
1.01000	-4
1.01367	-5
1.01733	-5
1.02100	-4
1.02467	-4
1.02833	-4
1.03200	-4
1.03567	-4
1.03933	-4
1.04300	-3
1.04667	-3
1.05033	-3
1.05400	-2
1.05767	-2
1.06133	-2
1.06500	-2
1.06867	-2
1.07233	-1
1.07600	-1
1.07967	-1
1.08333	-0
1.08700	-0
1.09067	-0
1.09433	-0
1.09800	-0
1.10167	-0
1.10533	-0
1.10900	-1
1.11267	-1
1.11633	-1
1.12000	-1
1.12367	-1
1.12733	-1
1.13100	-1
1.13467	-2
1.13833	-2
1.14200	-2
1.14567	-3
1.14933	-3
1.15300	-3
1.15667	-4
1.16033	-4
1.16400	-3
1.16767	-3
1.17133	-3
1.17500	-3
1.17867	-2
1.18233	-2
1.18600	-2
1.18967	-1
1.19333	-1
1.19700	-1
1.20067	-1
1.20433	-0
1.20800	0
1.21167	0
1.21533	1
1.21900	1
1.22267	1
1.22633	1
1.23000	1
1.23367	1
1.23733	1
1.24100	1
1.24467	1
1.24833	1
1.25200	1
1.25567	1
1.25933	0
1.26300	-0
1.26667	-0
1.27033	-1
1.27400	-1
1.27767	-2
1.28133	-2
1.28500	-3
1.28867	-3
1.29233	-3
1.29600	-3
1.29967	-2
1.30333	-2
1.30700	-2
1.31067	-1
1.31433	-1
1.31800	-1
1.32167	-1
1.32533	-1
1.32900	-1
1.33267	-1
1.33633	-1
1.34000	-1
1.34367	-1
1.34733	-1
1.35100	-1
1.35467	-1
1.35833	-1
1.36200	-1
1.36567	-1
1.36933	-1
1.37300	-1
1.37667	-1
1.38033	-1
1.38400	-0
1.38767	-0
1.39133	0
1.39500	0
1.39867	0
1.40233	0
1.40600	0
1.40967	-0
1.41333	-0
1.41700	-1
1.42067	-1
1.42433	-1
1.42800	-1
1.43167	-1
1.43533	-1
1.43900	-1
1.44267	-1
1.44633	-1
1.45000	-1
1.45367	-1
1.45733	-2
1.46100	-2
1.46467	-2
1.46833	-2
1.47200	-2
1.47567	-2
1.47933	-2
1.48300	-2
1.48667	-3
1.49033	-3
1.49400	-3
1.49767	-3
1.50133	-3
1.50500	-3
1.50867	-4
1.51233	-4
1.51600	-4
1.51967	-4
1.52333	-4
1.52700	-4
1.53067	-4
1.53433	-4
1.53800	-4
1.54167	-4
1.54533	-3
1.54900	-3
1.55267	-3
1.55633	-2
1.56000	-2
1.56367	-1
1.56733	-1
1.57100	-1
1.57467	-1
1.57833	-2
1.58200	-2
1.58567	-2
1.58933	-2
1.59300	-2
1.59667	-3
1.60033	-3
1.60400	-4
1.60767	-4
1.61133	-6
1.61500	-7
1.61867	-9
1.62233	-12
1.62600	-14
1.62967	-17
1.63333	-21
1.63700	-24
1.64067	-28
1.64433	-31
1.64800	-35
1.65167	-39
1.65533	-42
1.65900	-46
1.66267	-51
1.66633	-55
1.67000	-60
1.67367	-66
1.67733	-71
1.68100	-76
1.68467	-82
1.68833	-86
1.69200	-91
1.69567	-94
1.69933	-97
1.70300	-100
1.70667	-102
1.71033	-103
1.71400	-105
1.71767	-106
1.72133	-106
1.72500	-107
1.72867	-107
1.73233	-107
1.73600	-107
1.73967	-107
1.74333	-107
1.74700	-107
1.75067	-107
1.75433	-106
1.75800	-106
1.76167	-105
1.76533	-105
1.76900	-105
1.77267	-106
1.77633	-107
1.78000	-107
1.78367	-108
1.78733	-109
1.79100	-110
1.79467	-111
1.79833	-112
1.80200	-112
1.80567	-113
1.80933	-112
1.81300	-112
1.81667	-111
1.82033	-111
1.82400	-111
1.82767	-111
1.83133	-112
1.83500	-112
1.83867	-113
1.84233	-113
1.84600	-113
1.84967	-113
1.85333	-114
1.85700	-114
1.86067	-113
1.86433	-113
1.86800	-113
1.87167	-112
1.87533	-112
1.87900	-111
1.88267	-111
1.88633	-111
1.89000	-112
1.89367	-112
1.89733	-112
1.90100	-112
1.90467	-112
1.90833	-112
1.91200	-112
1.91567	-112
1.91933	-111
1.92300	-111
1.92667	-111
1.93033	-111
1.93400	-111
1.93767	-110
1.94133	-110
1.94500	-109
1.94867	-109
1.95233	-109
1.95600	-109
1.95967	-109
1.96333	-109
1.96700	-109
1.97067	-109
1.97433	-108
1.97800	-107
1.98167	-107
1.98533	-106
1.98900	-106
1.99267	-105
1.99633	-105
2.00000	-104
2.00367	-104
2.00733	-104
2.01100	-103
2.01467	-103
2.01833	-103
2.02200	-103
2.02567	-102
2.02933	-102
2.03300	-101
2.03667	-101
2.04033	-101
2.04400	-100
2.04767	-100
2.05133	-100
2.05500	-101
2.05867	-101
2.06233	-101
2.06600	-101
2.06967	-100
2.07333	-100
2.07700	-99
2.08067	-99
2.08433	-99
2.08800	-99
2.09167	-99
2.09533	-99
2.09900	-99
2.10267	-99
2.10633	-99
2.11000	-98
2.11367	-97
2.11733	-97
2.12100	-96
2.12467	-95
2.12833	-95
2.13200	-95
2.13567	-95
2.13933	-94
2.14300	-94
2.14667	-94
2.15033	-94
2.15400	-94
2.15767	-93
2.16133	-93
2.16500	-92
2.16867	-91
2.17233	-91
2.17600	-90
2.17967	-90
2.18333	-89
2.18700	-89
2.19067	-89
2.19433	-89
2.19800	-88
2.20167	-88
2.20533	-89
2.20900	-89
2.21267	-89
2.21633	-89
2.22000	-89
2.22367	-89
2.22733	-89
2.23100	-88
2.23467	-87
2.23833	-86
2.24200	-86
2.24567	-85
2.24933	-84
2.25300	-84
2.25667	-83
2.26033	-83
2.26400	-83
2.26767	-83
2.27133	-83
2.27500	-83
2.27867	-83
2.28233	-83
2.28600	-83
2.28967	-83
2.29333	-83
2.29700	-84
2.30067	-83
2.30433	-83
2.30800	-82
2.31167	-81
2.31533	-80
2.31900	-79
2.32267	-78
2.32633	-77
2.33000	-76
2.33367	-76
2.33733	-76
2.34100	-76
2.34467	-76
2.34833	-76
2.35200	-76
2.35567	-75
2.35933	-74
2.36300	-74
2.36667	-73
2.37033	-71
2.37400	-69
2.37767	-66
2.38133	-63
2.38500	-60
2.38867	-56
2.39233	-52
2.39600	-48
2.39967	-43
2.40333	-38
2.40700	-34
2.41067	-30
2.41433	-26
2.41800	-23
2.42167	-20
2.42533	-18
2.42900	-16
2.43267	-14
2.43633	-13
2.44000	-12
2.44367	-11
2.44733	-9
2.45100	-8
2.45467	-6
2.45833	-4
2.46200	-3
2.46567	-1
2.46933	-0
2.47300	1
2.47667	2
2.48033	3
2.48400	4
2.48767	5
2.49133	6
2.49500	6
2.49867	7
2.50233	7
2.50600	7
2.50967	8
2.51333	8
2.51700	9
2.52067	10
2.52433	11
2.52800	12
2.53167	12
2.53533	13
2.53900	13
2.54267	14
2.54633	15
2.55000	15
2.55367	15
2.55733	16
2.56100	16
2.56467	16
2.56833	16
2.57200	16
2.57567	16
2.57933	17
2.58300	17
2.58667	17
2.59033	18
2.59400	18
2.59767	19
2.60133	20
2.60500	20
2.60867	20
2.61233	20
2.61600	20
2.61967	20
2.62333	19
2.62700	19
2.63067	18
2.63433	18
2.63800	18
2.64167	18
2.64533	18
2.64900	18
2.65267	19
2.65633	20
2.66000	20
2.66367	20
2.66733	21
2.67100	21
2.67467	21
2.67833	21
2.68200	21
2.68567	21
2.68933	21
2.69300	22
2.69667	22
2.70033	23
2.70400	23
2.70767	24
2.71133	24
2.71500	25
2.71867	25
2.72233	26
2.72600	26
2.72967	27
2.73333	27
2.73700	27
2.74067	27
2.74433	27
2.74800	27
2.75167	27
2.75533	26
2.75900	26
2.76267	26
2.76633	26
2.77000	25
2.77367	25
2.77733	25
2.78100	25
2.78467	25
2.78833	26
2.79200	26
2.79567	26
2.79933	26
2.80300	26
2.80667	27
2.81033	27
2.81400	27
2.81767	27
2.82133	28
2.82500	28
2.82867	28
2.83233	28
2.83600	28
2.83967	27
2.84333	25
2.84700	21
2.85067	16
2.85433	7
2.85800	-5
2.86167	-21
2.86533	-41
2.86900	-65
2.87267	-94
2.87633	-126
2.88000	-164
2.88367	-205
2.88733	-250
2.89100	-298
2.89467	-348
2.89833	-401
2.90200	-455
2.90567	-509
2.90933	-565
2.91300	-620
2.91667	-675
2.92033	-730
2.92400	-783
2.92767	-834
2.93133	-887
2.93500	-943
2.93867	-1002
2.94233	-1054
2.94600	-1089
2.94967	-1100
2.95333	-1084
2.95700	-1045
2.96067	-988
2.96433	-917
2.96800	-840
2.97167	-759
2.97533	-679
2.97900	-602
2.98267	-529
2.98633	-462
2.99000	-401
2.99367	-347
2.99733	-298
3.00100	-256
3.00467	-218
3.00833	-185
3.01200	-157
3.01567	-132
3.01933	-111
3.02300	-92
3.02667	-76
3.03033	-63
3.03400	-51
3.03767	-42
3.04133	-34
3.04500	-26
3.04867	-21
3.05233	-15
3.05600	-11
3.05967	-8
3.06333	-5
3.06700	-2
3.07067	0
3.07433	2
3.07800	4
3.08167	6
3.08533	8
3.08900	9
3.09267	11
3.09633	12
3.10000	13
3.10367	14
3.10733	14
3.11100	15
3.11467	16
3.11833	17
3.12200	17
3.12567	18
3.12933	18
3.13300	18
3.13667	19
3.14033	19
3.14400	19
3.14767	20
3.15133	20
3.15500	20
3.15867	21
3.16233	21
3.16600	21
3.16967	21
3.17333	21
3.17700	20
3.18067	20
3.18433	20
3.18800	20
3.19167	20
3.19533	20
3.19900	20
3.20267	20
3.20633	20
3.21000	20
3.21367	21
3.21733	21
3.22100	21
3.22467	22
3.22833	22
3.23200	22
3.23567	23
3.23933	23
3.24300	23
3.24667	24
3.25033	24
3.25400	25
3.25767	25
3.26133	25
3.26500	26
3.26867	26
3.27233	27
3.27600	27
3.27967	27
3.28333	28
3.28700	28
3.29067	28
3.29433	28
3.29800	29
3.30167	29
3.30533	29
3.30900	29
3.31267	29
3.31633	30
3.32000	30
3.32367	30
3.32733	30
3.33100	30
3.33467	30
3.33833	30
3.34200	30
3.34567	30
3.34933	30
3.35300	30
3.35667	30
3.36033	30
3.36400	31
3.36767	31
3.37133	31
3.37500	31
3.37867	31
3.38233	31
3.38600	30
3.38967	30
3.39333	30
3.39700	30
3.40067	29
3.40433	29
3.40800	29
3.41167	29
3.41533	28
3.41900	28
3.42267	27
3.42633	27
3.43000	27
3.43367	26
3.43733	26
3.44100	26
3.44467	26
3.44833	26
3.45200	26
3.45567	26
3.45933	26
3.46300	25
3.46667	25
3.47033	26
3.47400	26
3.47767	26
3.48133	26
3.48500	26
3.48867	27
3.49233	27
3.49600	27
3.49967	27
3.50333	27
3.50700	27
3.51067	27
3.51433	27
3.51800	27
3.52167	26
3.52533	26
3.52900	27
3.53267	27
3.53633	27
3.54000	27
3.54367	27
3.54733	27
3.55100	27
3.55467	27
3.55833	27
3.56200	26
3.56567	27
3.56933	27
3.57300	27
3.57667	27
3.58033	27
3.58400	27
3.58767	27
3.59133	27
3.59500	27
3.59867	27
3.60233	27
3.60600	27
3.60967	28
3.61333	28
3.61700	27
3.62067	27
3.62433	27
3.62800	27
3.63167	27
3.63533	27
3.63900	27
3.64267	27
3.64633	27
3.65000	27
3.65367	27
3.65733	27
3.66100	27
3.66467	27
3.66833	27
3.67200	27
3.67567	27
3.67933	27
3.68300	27
3.68667	27
3.69033	27
3.69400	27
3.69767	27
3.70133	27
3.70500	27
3.70867	27
3.71233	27
3.71600	27
3.71967	27
3.72333	27
3.72700	27
3.73067	27
3.73433	27
3.73800	27
3.74167	27
3.74533	27
3.74900	27
3.75267	27
3.75633	27
3.76000	27
3.76367	27
3.76733	27
3.77100	27
3.77467	27
3.77833	27
3.78200	27
3.78567	27
3.78933	27
3.79300	27
3.79667	28
3.80033	28
3.80400	28
3.80767	29
3.81133	29
3.81500	29
3.81867	29
3.82233	30
3.82600	30
3.82967	30
3.83333	30
3.83700	30
3.84067	30
3.84433	29
3.84800	29
3.85167	29
3.85533	29
3.85900	29
3.86267	28
3.86633	28
3.87000	28
3.87367	28
3.87733	28
3.88100	28
3.88467	28
3.88833	28
3.89200	28
3.89567	28
3.89933	28
3.90300	28
3.90667	28
3.91033	27
3.91400	27
3.91767	27
3.92133	27
3.92500	27
3.92867	27
3.93233	27
3.93600	27
3.93967	27
3.94333	27
3.94700	27
3.95067	27
3.95433	27
3.95800	27
3.96167	27
3.96533	27
3.96900	27
3.97267	27
3.97633	27
3.98000	27
3.98367	28
3.98733	28
3.99100	28
3.99467	28
3.99833	28

[Chromatogram (Ch3)]
Interval(msec)	220
# of Points	1091
Start Time(min)	0.002
End Time(min)	3.998
R.Time (min)	Intensity
0.00167	1
0.00533	2
0.00900	3
0.01267	3
0.01633	4
0.02000	6
0.02367	5
0.02733	6
0.03100	7
0.03467	7
0.03833	6
0.04200	3
0.04567	2
0.04933	4
0.05300	4
0.05667	3
0.06033	3
0.06400	4
0.06767	3
0.07133	-0
0.07500	-2
0.07867	-0
0.08233	-0
0.08600	1
0.08967	2
0.09333	3
0.09700	4
0.10067	3
0.10433	4
0.10800	6
0.11167	5
0.11533	3
0.11900	1
0.12267	0
0.12633	1
0.13000	1
0.13367	2
0.13733	5
0.14100	5
0.14467	3
0.14833	-0
0.15200	0
0.15567	1
0.15933	1
0.16300	2
0.16667	2
0.17033	2
0.17400	4
0.17767	2
0.18133	0
0.18500	-2
0.18867	-3
0.19233	-2
0.19600	-0
0.19967	1
0.20333	2
0.20700	3
0.21067	2
0.21433	1
0.21800	1
0.22167	2
0.22533	2
0.22900	3
0.23267	5
0.23633	7
0.24000	5
0.24367	2
0.24733	1
0.25100	0
0.25467	0
0.25833	1
0.26200	2
0.26567	2
0.26933	1
0.27300	-2
0.27667	-4
0.28033	-6
0.28400	-7
0.28767	-8
0.29133	-8
0.29500	-8
0.29867	-7
0.30233	-8
0.30600	-8
0.30967	-10
0.31333	-10
0.31700	-10
0.32067	-10
0.32433	-10
0.32800	-9
0.33167	-9
0.33533	-7
0.33900	-6
0.34267	-8
0.34633	-9
0.35000	-9
0.35367	-7
0.35733	-6
0.36100	-5
0.36467	-6
0.36833	-5
0.37200	-3
0.37567	-3
0.37933	-4
0.38300	-4
0.38667	-4
0.39033	-3
0.39400	-1
0.39767	1
0.40133	1
0.40500	0
0.40867	-1
0.41233	-2
0.41600	-4
0.41967	-5
0.42333	-4
0.42700	-3
0.43067	-4
0.43433	-4
0.43800	-4
0.44167	-3
0.44533	-0
0.44900	-0
0.45267	0
0.45633	0
0.46000	-1
0.46367	-2
0.46733	-1
0.47100	-1
0.47467	0
0.47833	-1
0.48200	-3
0.48567	-4
0.48933	-4
0.49300	-4
0.49667	-5
0.50033	-6
0.50400	-8
0.50767	-8
0.51133	-6
0.51500	-2
0.51867	0
0.52233	0
0.52600	0
0.52967	0
0.53333	-1
0.53700	-2
0.54067	-2
0.54433	-3
0.54800	-2
0.55167	1
0.55533	1
0.55900	0
0.56267	-1
0.56633	-2
0.57000	-2
0.57367	-2
0.57733	-3
0.58100	-4
0.58467	-4
0.58833	-5
0.59200	-6
0.59567	-6
0.59933	-5
0.60300	-4
0.60667	-3
0.61033	-1
0.61400	-0
0.61767	1
0.62133	4
0.62500	4
0.62867	2
0.63233	3
0.63600	2
0.63967	2
0.64333	2
0.64700	4
0.65067	5
0.65433	5
0.65800	3
0.66167	1
0.66533	2
0.66900	5
0.67267	6
0.67633	5
0.68000	5
0.68367	4
0.68733	4
0.69100	5
0.69467	4
0.69833	4
0.70200	5
0.70567	3
0.70933	3
0.71300	3
0.71667	2
0.72033	-1
0.72400	1
0.72767	2
0.73133	2
0.73500	1
0.73867	2
0.74233	3
0.74600	3
0.74967	3
0.75333	3
0.75700	2
0.76067	4
0.76433	7
0.76800	7
0.77167	8
0.77533	6
0.77900	3
0.78267	-1
0.78633	-2
0.79000	-1
0.79367	1
0.79733	-1
0.80100	-1
0.80467	1
0.80833	2
0.81200	0
0.81567	0
0.81933	1
0.82300	1
0.82667	2
0.83033	2
0.83400	2
0.83767	1
0.84133	0
0.84500	-0
0.84867	1
0.85233	1
0.85600	-0
0.85967	-1
0.86333	-1
0.86700	-0
0.87067	0
0.87433	0
0.87800	0
0.88167	2
0.88533	5
0.88900	8
0.89267	7
0.89633	6
0.90000	6
0.90367	5
0.90733	5
0.91100	5
0.91467	6
0.91833	6
0.92200	5
0.92567	6
0.92933	5
0.93300	4
0.93667	4
0.94033	4
0.94400	5
0.94767	4
0.95133	3
0.95500	4
0.95867	7
0.96233	9
0.96600	9
0.96967	7
0.97333	7
0.97700	6
0.98067	6
0.98433	7
0.98800	7
0.99167	6
0.99533	5
0.99900	5
1.00267	6
1.00633	7
1.01000	7
1.01367	9
1.01733	9
1.02100	8
1.02467	8
1.02833	9
1.03200	10
1.03567	8
1.03933	7
1.04300	6
1.04667	3
1.05033	1
1.05400	1
1.05767	3
1.06133	3
1.06500	5
1.06867	7
1.07233	9
1.07600	10
1.07967	12
1.08333	9
1.08700	8
1.09067	6
1.09433	5
1.09800	4
1.10167	3
1.10533	3
1.10900	5
1.11267	6
1.11633	5
1.12000	4
1.12367	2
1.12733	3
1.13100	5
1.13467	6
1.13833	7
1.14200	6
1.14567	2
1.14933	2
1.15300	4
1.15667	5
1.16033	4
1.16400	3
1.16767	2
1.17133	1
1.17500	3
1.17867	8
1.18233	10
1.18600	10
1.18967	10
1.19333	11
1.19700	11
1.20067	11
1.20433	9
1.20800	8
1.21167	7
1.21533	6
1.21900	5
1.22267	5
1.22633	5
1.23000	5
1.23367	4
1.23733	5
1.24100	5
1.24467	7
1.24833	7
1.25200	7
1.25567	8
1.25933	10
1.26300	12
1.26667	12
1.27033	11
1.27400	9
1.27767	8
1.28133	8
1.28500	10
1.28867	10
1.29233	10
1.29600	9
1.29967	8
1.30333	8
1.30700	8
1.31067	9
1.31433	10
1.31800	11
1.32167	11
1.32533	13
1.32900	13
1.33267	12
1.33633	11
1.34000	11
1.34367	11
1.34733	14
1.35100	14
1.35467	14
1.35833	15
1.36200	14
1.36567	12
1.36933	11
1.37300	10
1.37667	10
1.38033	10
1.38400	10
1.38767	8
1.39133	8
1.39500	8
1.39867	8
1.40233	8
1.40600	9
1.40967	11
1.41333	11
1.41700	12
1.42067	14
1.42433	13
1.42800	11
1.43167	10
1.43533	9
1.43900	7
1.44267	8
1.44633	9
1.45000	9
1.45367	9
1.45733	9
1.46100	12
1.46467	12
1.46833	12
1.47200	12
1.47567	13
1.47933	12
1.48300	11
1.48667	10
1.49033	8
1.49400	6
1.49767	6
1.50133	8
1.50500	11
1.50867	14
1.51233	14
1.51600	14
1.51967	13
1.52333	12
1.52700	10
1.53067	10
1.53433	9
1.53800	9
1.54167	11
1.54533	10
1.54900	9
1.55267	8
1.55633	9
1.56000	10
1.56367	11
1.56733	11
1.57100	10
1.57467	9
1.57833	10
1.58200	11
1.58567	10
1.58933	11
1.59300	12
1.59667	13
1.60033	13
1.60400	14
1.60767	14
1.61133	13
1.61500	11
1.61867	10
1.62233	11
1.62600	13
1.62967	14
1.63333	14
1.63700	14
1.64067	15
1.64433	14
1.64800	14
1.65167	12
1.65533	11
1.65900	12
1.66267	15
1.66633	16
1.67000	17
1.67367	18
1.67733	18
1.68100	19
1.68467	20
1.68833	20
1.69200	21
1.69567	21
1.69933	20
1.70300	22
1.70667	23
1.71033	22
1.71400	23
1.71767	21
1.72133	22
1.72500	22
1.72867	22
1.73233	23
1.73600	22
1.73967	22
1.74333	20
1.74700	20
1.75067	21
1.75433	22
1.75800	22
1.76167	21
1.76533	24
1.76900	26
1.77267	27
1.77633	25
1.78000	23
1.78367	22
1.78733	23
1.79100	25
1.79467	26
1.79833	27
1.80200	28
1.80567	28
1.80933	29
1.81300	31
1.81667	33
1.82033	33
1.82400	35
1.82767	37
1.83133	40
1.83500	39
1.83867	37
1.84233	36
1.84600	34
1.84967	33
1.85333	34
1.85700	37
1.86067	40
1.86433	41
1.86800	40
1.87167	39
1.87533	39
1.87900	41
1.88267	45
1.88633	47
1.89000	47
1.89367	46
1.89733	43
1.90100	42
1.90467	43
1.90833	43
1.91200	45
1.91567	46
1.91933	46
1.92300	46
1.92667	48
1.93033	49
1.93400	50
1.93767	51
1.94133	52
1.94500	54
1.94867	55
1.95233	53
1.95600	51
1.95967	50
1.96333	49
1.96700	49
1.97067	50
1.97433	54
1.97800	57
1.98167	60
1.98533	61
1.98900	59
1.99267	59
1.99633	59
2.00000	61
2.00367	63
2.00733	63
2.01100	63
2.01467	63
2.01833	63
2.02200	64
2.02567	67
2.02933	68
2.03300	68
2.03667	69
2.04033	70
2.04400	71
2.04767	72
2.05133	75
2.05500	77
2.05867	76
2.06233	77
2.06600	78
2.06967	79
2.07333	82
2.07700	84
2.08067	86
2.08433	89
2.08800	92
2.09167	92
2.09533	93
2.09900	92
2.10267	91
2.10633	92
2.11000	93
2.11367	94
2.11733	97
2.12100	101
2.12467	105
2.12833	107
2.13200	108
2.13567	108
2.13933	109
2.14300	112
2.14667	113
2.15033	114
2.15400	116
2.15767	118
2.16133	119
2.16500	120
2.16867	119
2.17233	117
2.17600	117
2.17967	119
2.18333	121
2.18700	124
2.19067	126
2.19433	128
2.19800	128
2.20167	129
2.20533	130
2.20900	132
2.21267	134
2.21633	138
2.22000	142
2.22367	145
2.22733	148
2.23100	149
2.23467	147
2.23833	147
2.24200	147
2.24567	149
2.24933	150
2.25300	150
2.25667	150
2.26033	153
2.26400	157
2.26767	159
2.27133	164
2.27500	166
2.27867	168
2.28233	171
2.28600	174
2.28967	177
2.29333	179
2.29700	180
2.30067	183
2.30433	184
2.30800	183
2.31167	185
2.31533	188
2.31900	189
2.32267	190
2.32633	193
2.33000	196
2.33367	198
2.33733	202
2.34100	204
2.34467	207
2.34833	209
2.35200	212
2.35567	212
2.35933	213
2.36300	215
2.36667	218
2.37033	219
2.37400	220
2.37767	222
2.38133	223
2.38500	225
2.38867	222
2.39233	223
2.39600	226
2.39967	233
2.40333	237
2.40700	243
2.41067	248
2.41433	251
2.41800	254
2.42167	255
2.42533	257
2.42900	256
2.43267	256
2.43633	258
2.44000	264
2.44367	323
2.44733	464
2.45100	615
2.45467	738
2.45833	812
2.46200	822
2.46567	795
2.46933	758
2.47300	729
2.47667	712
2.48033	700
2.48400	680
2.48767	647
2.49133	605
2.49500	561
2.49867	525
2.50233	500
2.50600	485
2.50967	480
2.51333	481
2.51700	486
2.52067	501
2.52433	523
2.52800	544
2.53167	560
2.53533	566
2.53900	557
2.54267	537
2.54633	511
2.55000	481
2.55367	455
2.55733	434
2.56100	416
2.56467	402
2.56833	390
2.57200	381
2.57567	377
2.57933	375
2.58300	375
2.58667	374
2.59033	371
2.59400	368
2.59767	364
2.60133	357
2.60500	345
2.60867	329
2.61233	316
2.61600	303
2.61967	290
2.62333	279
2.62700	273
2.63067	267
2.63433	264
2.63800	263
2.64167	264
2.64533	266
2.64900	267
2.65267	269
2.65633	268
2.66000	266
2.66367	260
2.66733	254
2.67100	249
2.67467	244
2.67833	238
2.68200	231
2.68567	224
2.68933	217
2.69300	210
2.69667	204
2.70033	199
2.70400	196
2.70767	195
2.71133	196
2.71500	196
2.71867	198
2.72233	200
2.72600	200
2.72967	200
2.73333	203
2.73700	204
2.74067	204
2.74433	205
2.74800	207
2.75167	209
2.75533	209
2.75900	208
2.76267	210
2.76633	212
2.77000	214
2.77367	214
2.77733	215
2.78100	217
2.78467	218
2.78833	220
2.79200	224
2.79567	225
2.79933	226
2.80300	230
2.80667	233
2.81033	235
2.81400	237
2.81767	245
2.82133	260
2.82500	286
2.82867	338
2.83233	437
2.83600	602
2.83967	857
2.84333	1215
2.84700	1673
2.85067	2215
2.85433	2813
2.85800	3417
2.86167	3978
2.86533	4451
2.86900	4802
2.87267	5013
2.87633	5078
2.88000	5009
2.88367	4830
2.88733	4570
2.89100	4255
2.89467	3910
2.89833	3560
2.90200	3214
2.90567	2886
2.90933	2580
2.91300	2298
2.91667	2045
2.92033	1820
2.92400	1620
2.92767	1443
2.93133	1290
2.93500	1156
2.93867	1037
2.94233	933
2.94600	844
2.94967	766
2.95333	697
2.95700	637
2.96067	585
2.96433	539
2.96800	497
2.97167	462
2.97533	430
2.97900	404
2.98267	381
2.98633	361
2.99000	344
2.99367	328
2.99733	315
3.00100	303
3.00467	293
3.00833	283
3.01200	274
3.01567	266
3.01933	258
3.02300	252
3.02667	248
3.03033	243
3.03400	237
3.03767	233
3.04133	229
3.04500	226
3.04867	223
3.05233	220
3.05600	217
3.05967	214
3.06333	213
3.06700	210
3.07067	208
3.07433	204
3.07800	203
3.08167	204
3.08533	202
3.08900	201
3.09267	198
3.09633	194
3.10000	190
3.10367	188
3.10733	187
3.11100	187
3.11467	188
3.11833	189
3.12200	189
3.12567	188
3.12933	186
3.13300	188
3.13667	192
3.14033	193
3.14400	191
3.14767	190
3.15133	192
3.15500	193
3.15867	194
3.16233	195
3.16600	196
3.16967	198
3.17333	198
3.17700	199
3.18067	202
3.18433	201
3.18800	200
3.19167	197
3.19533	196
3.19900	196
3.20267	195
3.20633	191
3.21000	187
3.21367	190
3.21733	204
3.22100	228
3.22467	260
3.22833	298
3.23200	338
3.23567	375
3.23933	408
3.24300	439
3.24667	468
3.25033	491
3.25400	510
3.25767	530
3.26133	548
3.26500	566
3.26867	581
3.27233	592
3.27600	604
3.27967	614
3.28333	622
3.28700	630
3.29067	638
3.29433	646
3.29800	651
3.30167	657
3.30533	662
3.30900	666
3.31267	671
3.31633	676
3.32000	679
3.32367	683
3.32733	688
3.33100	696
3.33467	702
3.33833	706
3.34200	709
3.34567	712
3.34933	718
3.35300	725
3.35667	729
3.36033	730
3.36400	733
3.36767	738
3.37133	744
3.37500	747
3.37867	749
3.38233	752
3.38600	755
3.38967	759
3.39333	760
3.39700	763
3.40067	768
3.40433	774
3.40800	777
3.41167	778
3.41533	778
3.41900	776
3.42267	776
3.42633	776
3.43000	776
3.43367	776
3.43733	776
3.44100	776
3.44467	775
3.44833	775
3.45200	776
3.45567	775
3.45933	775
3.46300	775
3.46667	772
3.47033	768
3.47400	766
3.47767	760
3.48133	754
3.48500	752
3.48867	749
3.49233	746
3.49600	744
3.49967	740
3.50333	740
3.50700	739
3.51067	735
3.51433	731
3.51800	728
3.52167	729
3.52533	727
3.52900	723
3.53267	722
3.53633	723
3.54000	721
3.54367	719
3.54733	717
3.55100	716
3.55467	714
3.55833	713
3.56200	713
3.56567	711
3.56933	710
3.57300	710
3.57667	706
3.58033	702
3.58400	700
3.58767	699
3.59133	699
3.59500	699
3.59867	698
3.60233	698
3.60600	698
3.60967	699
3.61333	697
3.61700	695
3.62067	694
3.62433	693
3.62800	694
3.63167	694
3.63533	692
3.63900	690
3.64267	686
3.64633	685
3.65000	685
3.65367	685
3.65733	687
3.66100	688
3.66467	689
3.66833	690
3.67200	691
3.67567	693
3.67933	693
3.68300	691
3.68667	691
3.69033	691
3.69400	688
3.69767	685
3.70133	686
3.70500	689
3.70867	691
3.71233	693
3.71600	694
3.71967	695
3.72333	696
3.72700	696
3.73067	695
3.73433	694
3.73800	695
3.74167	697
3.74533	697
3.74900	693
3.75267	690
3.75633	687
3.76000	685
3.76367	684
3.76733	686
3.77100	690
3.77467	693
3.77833	693
3.78200	691
3.78567	688
3.78933	687
3.79300	686
3.79667	686
3.80033	684
3.80400	681
3.80767	679
3.81133	681
3.81500	680
3.81867	678
3.82233	675
3.82600	673
3.82967	672
3.83333	671
3.83700	669
3.84067	666
3.84433	667
3.84800	670
3.85167	671
3.85533	669
3.85900	668
3.86267	666
3.86633	662
3.87000	659
3.87367	657
3.87733	659
3.88100	659
3.88467	658
3.88833	655
3.89200	654
3.89567	652
3.89933	647
3.90300	642
3.90667	636
3.91033	635
3.91400	634
3.91767	634
3.92133	635
3.92500	635
3.92867	636
3.93233	635
3.93600	635
3.93967	632
3.94333	629
3.94700	627
3.95067	625
3.95433	625
3.95800	623
3.96167	620
3.96533	619
3.96900	617
3.97267	617
3.97633	618
3.98000	619
3.98367	620
3.98733	620
3.99100	617
3.99467	614
3.99833	610

[Status Trace (Column Oven Temperature)]
Interval(msec)	1000
# of Points	240
Start Time(min)	0.012
End Time(min)	3.995
Intensity Units	
Intensity Multiplier	1
R.Time (min)	Intensity
0.01212	35.06
0.02878	35.07
0.04545	35.08
0.06212	35.09
0.07878	35.08
0.09545	35.07
0.11212	35.07
0.12878	35.07
0.14545	35.07
0.16212	35.06
0.17878	35.07
0.19545	35.07
0.21212	35.07
0.22878	35.07
0.24545	35.07
0.26212	35.05
0.27878	35.04
0.29545	35.02
0.31212	35.01
0.32878	35.02
0.34545	35.01
0.36212	35.01
0.37878	35.01
0.39545	35.01
0.41212	35.01
0.42878	35.01
0.44545	35.01
0.46212	35.01
0.47878	35.01
0.49545	34.99
0.51212	34.98
0.52878	34.97
0.54545	34.97
0.56212	34.97
0.57878	34.97
0.59545	34.97
0.61212	34.97
0.62878	34.96
0.64545	34.96
0.66212	34.97
0.67878	34.98
0.69545	34.99
0.71212	35.00
0.72878	35.01
0.74545	35.01
0.76212	35.00
0.77878	34.99
0.79545	35.00
0.81212	35.00
0.82878	34.99
0.84545	34.99
0.86212	34.99
0.87878	34.97
0.89545	34.97
0.91212	34.96
0.92878	34.97
0.94545	34.97
0.96212	34.97
0.97878	34.97
0.99545	34.99
1.01212	35.01
1.02878	35.01
1.04545	35.00
1.06212	35.00
1.07878	34.99
1.09545	34.99
1.11212	34.99
1.12878	35.00
1.14545	35.01
1.16212	35.02
1.17878	35.02
1.19545	35.01
1.21212	35.00
1.22878	35.00
1.24545	34.99
1.26212	34.99
1.27878	35.00
1.29545	35.00
1.31212	35.00
1.32878	34.99
1.34545	34.98
1.36212	34.98
1.37878	34.98
1.39545	34.97
1.41212	34.97
1.42878	34.98
1.44545	34.98
1.46212	34.98
1.47878	34.99
1.49545	34.99
1.51212	35.00
1.52878	35.02
1.54545	35.02
1.56212	35.00
1.57878	35.01
1.59545	35.02
1.61212	35.09
1.62878	35.22
1.64545	35.42
1.66212	35.68
1.67878	36.06
1.69545	36.44
1.71212	36.78
1.72878	37.12
1.74545	37.43
1.76212	37.74
1.77878	38.07
1.79545	38.42
1.81212	38.74
1.82878	39.08
1.84545	39.42
1.86212	39.74
1.87878	40.06
1.89545	40.41
1.91212	40.74
1.92878	41.06
1.94545	41.40
1.96212	41.73
1.97878	42.04
1.99545	42.37
2.01212	42.70
2.02878	43.01
2.04545	43.33
2.06212	43.67
2.07878	43.99
2.09545	44.34
2.11212	44.64
2.12878	44.97
2.14545	45.30
2.16212	45.63
2.17878	45.96
2.19545	46.28
2.21212	46.61
2.22878	46.96
2.24545	47.27
2.26212	47.59
2.27878	47.93
2.29545	48.28
2.31212	48.58
2.32878	48.91
2.34545	49.21
2.36212	49.51
2.37878	49.70
2.39545	49.76
2.41212	49.75
2.42878	49.76
2.44545	49.76
2.46212	49.74
2.47878	49.74
2.49545	49.76
2.51212	49.78
2.52878	49.79
2.54545	49.80
2.56212	49.81
2.57878	49.81
2.59545	49.80
2.61212	49.81
2.62878	49.83
2.64545	49.84
2.66212	49.84
2.67878	49.85
2.69545	49.86
2.71212	49.85
2.72878	49.85
2.74545	49.85
2.76212	49.87
2.77878	49.88
2.79545	49.88
2.81212	49.88
2.82878	49.88
2.84545	49.88
2.86212	49.88
2.87878	49.90
2.89545	49.91
2.91212	49.93
2.92878	49.94
2.94545	49.96
2.96212	49.98
2.97878	50.01
2.99545	50.02
3.01212	50.02
3.02878	50.02
3.04545	50.04
3.06212	50.05
3.07878	50.06
3.09545	50.07
3.11212	50.06
3.12878	50.07
3.14545	50.06
3.16212	50.07
3.17878	50.09
3.19545	50.10
3.21212	50.11
3.22878	50.11
3.24545	50.11
3.26212	50.10
3.27878	50.09
3.29545	50.07
3.31212	50.06
3.32878	50.04
3.34545	50.02
3.36212	50.01
3.37878	50.00
3.39545	50.00
3.41212	50.01
3.42878	50.02
3.44545	50.03
3.46212	50.04
3.47878	50.04
3.49545	50.04
3.51212	50.04
3.52878	50.05
3.54545	50.05
3.56212	50.05
3.57878	50.05
3.59545	50.05
3.61212	50.06
3.62878	50.07
3.64545	50.08
3.66212	50.08
3.67878	50.07
3.69545	50.07
3.71212	50.08
3.72878	50.08
3.74545	50.08
3.76212	50.09
3.77878	50.09
3.79545	50.09
3.81212	50.07
3.82878	50.06
3.84545	50.06
3.86212	50.06
3.87878	50.06
3.89545	50.06
3.91212	50.07
3.92878	50.07
3.94545	50.07
3.96212	50.07
3.97878	50.08
3.99545	50.07

[Status Trace (Injection Unit Temperature)]
Interval(msec)	1000
# of Points	240
Start Time(min)	0.012
End Time(min)	3.995
Intensity Units	
Intensity Multiplier	1
R.Time (min)	Intensity
0.01212	99.98
0.02878	99.98
0.04545	99.98
0.06212	99.99
0.07878	99.98
0.09545	99.98
0.11212	99.98
0.12878	99.98
0.14545	99.98
0.16212	99.98
0.17878	99.98
0.19545	99.98
0.21212	99.98
0.22878	99.99
0.24545	99.98
0.26212	99.99
0.27878	99.98
0.29545	99.98
0.31212	99.98
0.32878	99.98
0.34545	99.98
0.36212	99.98
0.37878	99.98
0.39545	99.98
0.41212	99.98
0.42878	99.98
0.44545	99.98
0.46212	99.98
0.47878	99.97
0.49545	99.98
0.51212	99.98
0.52878	99.98
0.54545	99.98
0.56212	99.98
0.57878	99.98
0.59545	99.98
0.61212	99.98
0.62878	99.99
0.64545	99.98
0.66212	99.98
0.67878	99.98
0.69545	99.98
0.71212	99.98
0.72878	99.98
0.74545	99.98
0.76212	99.98
0.77878	99.98
0.79545	99.98
0.81212	99.98
0.82878	99.98
0.84545	99.98
0.86212	99.98
0.87878	99.98
0.89545	99.98
0.91212	99.98
0.92878	99.98
0.94545	99.98
0.96212	99.98
0.97878	99.98
0.99545	99.98
1.01212	99.98
1.02878	99.98
1.04545	99.98
1.06212	99.97
1.07878	99.98
1.09545	99.97
1.11212	99.98
1.12878	99.98
1.14545	99.98
1.16212	99.97
1.17878	99.98
1.19545	99.98
1.21212	99.98
1.22878	99.98
1.24545	99.98
1.26212	99.98
1.27878	99.98
1.29545	99.98
1.31212	99.98
1.32878	99.98
1.34545	99.98
1.36212	99.98
1.37878	99.98
1.39545	99.98
1.41212	99.98
1.42878	99.98
1.44545	99.98
1.46212	99.98
1.47878	99.98
1.49545	99.97
1.51212	99.98
1.52878	99.98
1.54545	99.98
1.56212	99.98
1.57878	99.98
1.59545	99.98
1.61212	99.98
1.62878	99.98
1.64545	99.99
1.66212	99.98
1.67878	99.98
1.69545	99.98
1.71212	99.98
1.72878	99.98
1.74545	99.98
1.76212	99.98
1.77878	99.98
1.79545	99.98
1.81212	99.98
1.82878	99.98
1.84545	99.98
1.86212	99.98
1.87878	99.98
1.89545	99.98
1.91212	99.98
1.92878	99.98
1.94545	99.98
1.96212	99.97
1.97878	99.97
1.99545	99.98
2.01212	99.97
2.02878	99.97
2.04545	99.97
2.06212	99.97
2.07878	99.97
2.09545	99.97
2.11212	99.97
2.12878	99.97
2.14545	99.97
2.16212	99.97
2.17878	99.97
2.19545	99.97
2.21212	99.97
2.22878	99.97
2.24545	99.97
2.26212	99.97
2.27878	99.97
2.29545	99.97
2.31212	99.96
2.32878	99.97
2.34545	99.96
2.36212	99.96
2.37878	99.96
2.39545	99.96
2.41212	99.96
2.42878	99.97
2.44545	99.97
2.46212	99.96
2.47878	99.97
2.49545	99.97
2.51212	99.97
2.52878	99.97
2.54545	99.97
2.56212	99.97
2.57878	99.97
2.59545	99.97
2.61212	99.97
2.62878	99.97
2.64545	99.97
2.66212	99.98
2.67878	99.98
2.69545	99.98
2.71212	99.97
2.72878	99.98
2.74545	99.98
2.76212	99.98
2.77878	99.98
2.79545	99.99
2.81212	99.99
2.82878	99.99
2.84545	99.99
2.86212	99.99
2.87878	100.00
2.89545	100.00
2.91212	100.00
2.92878	100.01
2.94545	100.00
2.96212	100.00
2.97878	100.01
2.99545	100.01
3.01212	100.01
3.02878	100.01
3.04545	100.01
3.06212	100.01
3.07878	100.02
3.09545	100.02
3.11212	100.02
3.12878	100.02
3.14545	100.02
3.16212	100.01
3.17878	100.03
3.19545	100.03
3.21212	100.02
3.22878	100.03
3.24545	100.03
3.26212	100.03
3.27878	100.03
3.29545	100.04
3.31212	100.04
3.32878	100.04
3.34545	100.04
3.36212	100.04
3.37878	100.04
3.39545	100.04
3.41212	100.04
3.42878	100.04
3.44545	100.05
3.46212	100.05
3.47878	100.04
3.49545	100.05
3.51212	100.05
3.52878	100.05
3.54545	100.05
3.56212	100.05
3.57878	100.05
3.59545	100.05
3.61212	100.05
3.62878	100.05
3.64545	100.05
3.66212	100.05
3.67878	100.05
3.69545	100.05
3.71212	100.06
3.72878	100.06
3.74545	100.04
3.76212	100.06
3.77878	100.05
3.79545	100.05
3.81212	100.05
3.82878	100.05
3.84545	100.05
3.86212	100.06
3.87878	100.05
3.89545	100.05
3.91212	100.05
3.92878	100.06
3.94545	100.06
3.96212	100.05
3.97878	100.05
3.99545	100.05

[Status Trace (Carrier Gas Pressure)]
Interval(msec)	1000
# of Points	240
Start Time(min)	0.012
End Time(min)	3.995
Intensity Units	
Intensity Multiplier	1
R.Time (min)	Intensity
0.01212	57.99
0.02878	54.95
0.04545	57.64
0.06212	59.70
0.07878	58.88
0.09545	58.00
0.11212	57.99
0.12878	58.01
0.14545	58.01
0.16212	58.00
0.17878	58.00
0.19545	58.00
0.21212	58.00
0.22878	58.00
0.24545	58.00
0.26212	58.00
0.27878	58.00
0.29545	58.00
0.31212	58.00
0.32878	58.00
0.34545	58.00
0.36212	58.00
0.37878	58.00
0.39545	58.00
0.41212	58.00
0.42878	58.00
0.44545	58.00
0.46212	58.00
0.47878	58.00
0.49545	58.00
0.51212	58.00
0.52878	58.00
0.54545	58.00
0.56212	58.00
0.57878	58.00
0.59545	58.00
0.61212	58.00
0.62878	58.00
0.64545	58.00
0.66212	58.00
0.67878	58.00
0.69545	58.00
0.71212	58.00
0.72878	58.00
0.74545	58.00
0.76212	58.00
0.77878	58.00
0.79545	58.00
0.81212	58.00
0.82878	58.00
0.84545	58.00
0.86212	58.00
0.87878	58.00
0.89545	58.00
0.91212	58.00
0.92878	58.00
0.94545	58.00
0.96212	58.00
0.97878	58.00
0.99545	58.00
1.01212	58.00
1.02878	58.00
1.04545	58.00
1.06212	58.00
1.07878	58.00
1.09545	58.00
1.11212	58.00
1.12878	58.00
1.14545	58.00
1.16212	58.00
1.17878	58.00
1.19545	58.00
1.21212	58.00
1.22878	58.00
1.24545	58.00
1.26212	58.00
1.27878	58.00
1.29545	58.00
1.31212	58.00
1.32878	58.00
1.34545	58.00
1.36212	58.00
1.37878	58.00
1.39545	58.00
1.41212	58.00
1.42878	58.00
1.44545	58.00
1.46212	58.00
1.47878	58.00
1.49545	58.00
1.51212	58.00
1.52878	58.00
1.54545	58.00
1.56212	58.00
1.57878	58.00
1.59545	58.00
1.61212	58.00
1.62878	58.00
1.64545	58.00
1.66212	58.00
1.67878	58.01
1.69545	58.00
1.71212	58.00
1.72878	58.00
1.74545	58.00
1.76212	58.00
1.77878	58.00
1.79545	58.00
1.81212	58.00
1.82878	58.00
1.84545	58.00
1.86212	58.00
1.87878	58.00
1.89545	58.00
1.91212	58.00
1.92878	58.00
1.94545	58.00
1.96212	58.00
1.97878	58.00
1.99545	58.00
2.01212	58.00
2.02878	58.00
2.04545	58.00
2.06212	58.00
2.07878	58.00
2.09545	58.00
2.11212	58.00
2.12878	58.00
2.14545	58.00
2.16212	58.00
2.17878	58.00
2.19545	58.00
2.21212	58.00
2.22878	58.00
2.24545	58.00
2.26212	58.00
2.27878	58.00
2.29545	58.00
2.31212	58.00
2.32878	58.00
2.34545	58.00
2.36212	58.00
2.37878	58.00
2.39545	57.99
2.41212	57.99
2.42878	58.00
2.44545	58.00
2.46212	58.00
2.47878	58.00
2.49545	58.00
2.51212	58.00
2.52878	57.99
2.54545	58.00
2.56212	58.00
2.57878	58.00
2.59545	58.00
2.61212	58.00
2.62878	58.00
2.64545	58.00
2.66212	58.00
2.67878	58.00
2.69545	58.00
2.71212	58.00
2.72878	58.00
2.74545	58.00
2.76212	58.00
2.77878	58.00
2.79545	58.00
2.81212	58.00
2.82878	58.00
2.84545	58.00
2.86212	58.00
2.87878	58.00
2.89545	58.00
2.91212	58.00
2.92878	58.00
2.94545	58.00
2.96212	58.00
2.97878	58.00
2.99545	58.00
3.01212	58.00
3.02878	58.00
3.04545	58.00
3.06212	58.00
3.07878	58.00
3.09545	58.00
3.11212	58.00
3.12878	58.00
3.14545	58.00
3.16212	58.00
3.17878	58.00
3.19545	58.00
3.21212	58.00
3.22878	58.00
3.24545	58.00
3.26212	58.00
3.27878	58.00
3.29545	58.00
3.31212	58.00
3.32878	58.00
3.34545	58.00
3.36212	58.00
3.37878	58.00
3.39545	58.00
3.41212	58.00
3.42878	58.00
3.44545	58.00
3.46212	58.00
3.47878	58.00
3.49545	58.00
3.51212	58.00
3.52878	58.00
3.54545	58.00
3.56212	58.00
3.57878	58.00
3.59545	58.00
3.61212	58.00
3.62878	58.00
3.64545	58.00
3.66212	58.00
3.67878	58.00
3.69545	58.00
3.71212	58.00
3.72878	58.00
3.74545	58.00
3.76212	58.00
3.77878	58.00
3.79545	58.00
3.81212	58.00
3.82878	58.00
3.84545	58.00
3.86212	58.00
3.87878	58.00
3.89545	58.00
3.91212	58.00
3.92878	58.00
3.94545	58.00
3.96212	58.00
3.97878	58.00
3.99545	58.00

[Status Trace (Carrier Gas Flow)]
Interval(msec)	1000
# of Points	240
Start Time(min)	0.012
End Time(min)	3.995
Intensity Units	
Intensity Multiplier	1
R.Time (min)	Intensity
0.01212	34.55
0.02878	34.54
0.04545	34.55
0.06212	34.53
0.07878	34.51
0.09545	34.52
0.11212	34.52
0.12878	34.52
0.14545	34.52
0.16212	34.52
0.17878	34.51
0.19545	34.52
0.21212	34.52
0.22878	34.52
0.24545	34.52
0.26212	34.52
0.27878	34.52
0.29545	34.52
0.31212	34.52
0.32878	34.51
0.34545	34.52
0.36212	34.52
0.37878	34.52
0.39545	34.53
0.41212	34.52
0.42878	34.52
0.44545	34.52
0.46212	34.52
0.47878	34.52
0.49545	34.52
0.51212	34.51
0.52878	34.52
0.54545	34.52
0.56212	34.51
0.57878	34.51
0.59545	34.51
0.61212	34.52
0.62878	34.52
0.64545	34.52
0.66212	34.52
0.67878	34.52
0.69545	34.51
0.71212	34.51
0.72878	34.52
0.74545	34.52
0.76212	34.52
0.77878	34.52
0.79545	34.52
0.81212	34.52
0.82878	34.52
0.84545	34.52
0.86212	34.52
0.87878	34.52
0.89545	34.51
0.91212	34.52
0.92878	34.52
0.94545	34.52
0.96212	34.52
0.97878	34.52
0.99545	34.51
1.01212	34.52
1.02878	34.52
1.04545	34.52
1.06212	34.52
1.07878	34.52
1.09545	34.52
1.11212	34.52
1.12878	34.52
1.14545	34.52
1.16212	34.52
1.17878	34.52
1.19545	34.52
1.21212	34.52
1.22878	34.52
1.24545	34.51
1.26212	34.53
1.27878	34.52
1.29545	34.52
1.31212	34.51
1.32878	34.52
1.34545	34.53
1.36212	34.52
1.37878	34.51
1.39545	34.52
1.41212	34.53
1.42878	34.52
1.44545	34.52
1.46212	34.52
1.47878	34.52
1.49545	34.51
1.51212	34.51
1.52878	34.52
1.54545	34.52
1.56212	34.52
1.57878	34.52
1.59545	34.52
1.61212	34.51
1.62878	34.52
1.64545	34.52
1.66212	34.52
1.67878	34.52
1.69545	34.52
1.71212	34.52
1.72878	34.51
1.74545	34.52
1.76212	34.52
1.77878	34.52
1.79545	34.52
1.81212	34.52
1.82878	34.52
1.84545	34.52
1.86212	34.52
1.87878	34.52
1.89545	34.52
1.91212	34.52
1.92878	34.52
1.94545	34.52
1.96212	34.51
1.97878	34.52
1.99545	34.52
2.01212	34.52
2.02878	34.52
2.04545	34.52
2.06212	34.52
2.07878	34.52
2.09545	34.52
2.11212	34.52
2.12878	34.52
2.14545	34.52
2.16212	34.52
2.17878	34.52
2.19545	34.52
2.21212	34.52
2.22878	34.52
2.24545	34.52
2.26212	34.52
2.27878	34.51
2.29545	34.51
2.31212	34.53
2.32878	34.53
2.34545	34.51
2.36212	34.52
2.37878	34.51
2.39545	34.52
2.41212	34.52
2.42878	34.51
2.44545	34.52
2.46212	34.52
2.47878	34.52
2.49545	34.52
2.51212	34.51
2.52878	34.52
2.54545	34.51
2.56212	34.52
2.57878	34.52
2.59545	34.52
2.61212	34.52
2.62878	34.52
2.64545	34.52
2.66212	34.52
2.67878	34.52
2.69545	34.52
2.71212	34.52
2.72878	34.52
2.74545	34.51
2.76212	34.52
2.77878	34.52
2.79545	34.52
2.81212	34.52
2.82878	34.51
2.84545	34.52
2.86212	34.52
2.87878	34.51
2.89545	34.53
2.91212	34.51
2.92878	34.52
2.94545	34.52
2.96212	34.52
2.97878	34.52
2.99545	34.52
3.01212	34.52
3.02878	34.53
3.04545	34.51
3.06212	34.52
3.07878	34.52
3.09545	34.52
3.11212	34.51
3.12878	34.52
3.14545	34.52
3.16212	34.53
3.17878	34.52
3.19545	34.52
3.21212	34.52
3.22878	34.52
3.24545	34.52
3.26212	34.52
3.27878	34.52
3.29545	34.52
3.31212	34.52
3.32878	34.51
3.34545	34.52
3.36212	34.52
3.37878	34.52
3.39545	34.52
3.41212	34.52
3.42878	34.52
3.44545	34.52
3.46212	34.52
3.47878	34.52
3.49545	34.51
3.51212	34.52
3.52878	34.52
3.54545	34.52
3.56212	34.52
3.57878	34.52
3.59545	34.52
3.61212	34.52
3.62878	34.52
3.64545	34.52
3.66212	34.52
3.67878	34.52
3.69545	34.52
3.71212	34.52
3.72878	34.51
3.74545	34.52
3.76212	34.52
3.77878	34.52
3.79545	34.52
3.81212	34.52
3.82878	34.52
3.84545	34.52
3.86212	34.52
3.87878	34.52
3.89545	34.51
3.91212	34.52
3.92878	34.52
3.94545	34.52
3.96212	34.52
3.97878	34.52
3.99545	34.53

[Status Trace (Column Flow)]
Interval(msec)	1000
# of Points	240
Start Time(min)	0.012
End Time(min)	3.995
Intensity Units	
Intensity Multiplier	1
R.Time (min)	Intensity
0.01212	5.52
0.02878	5.17
0.04545	5.48
0.06212	5.72
0.07878	5.62
0.09545	5.52
0.11212	5.52
0.12878	5.52
0.14545	5.52
0.16212	5.52
0.17878	5.52
0.19545	5.52
0.21212	5.52
0.22878	5.52
0.24545	5.52
0.26212	5.52
0.27878	5.52
0.29545	5.52
0.31212	5.52
0.32878	5.52
0.34545	5.52
0.36212	5.52
0.37878	5.52
0.39545	5.52
0.41212	5.52
0.42878	5.52
0.44545	5.52
0.46212	5.52
0.47878	5.52
0.49545	5.52
0.51212	5.52
0.52878	5.52
0.54545	5.52
0.56212	5.52
0.57878	5.52
0.59545	5.52
0.61212	5.52
0.62878	5.52
0.64545	5.52
0.66212	5.52
0.67878	5.52
0.69545	5.52
0.71212	5.52
0.72878	5.52
0.74545	5.52
0.76212	5.52
0.77878	5.52
0.79545	5.52
0.81212	5.52
0.82878	5.52
0.84545	5.52
0.86212	5.52
0.87878	5.52
0.89545	5.52
0.91212	5.52
0.92878	5.52
0.94545	5.52
0.96212	5.52
0.97878	5.52
0.99545	5.52
1.01212	5.52
1.02878	5.52
1.04545	5.52
1.06212	5.52
1.07878	5.52
1.09545	5.52
1.11212	5.52
1.12878	5.52
1.14545	5.52
1.16212	5.52
1.17878	5.52
1.19545	5.52
1.21212	5.52
1.22878	5.52
1.24545	5.52
1.26212	5.52
1.27878	5.52
1.29545	5.52
1.31212	5.52
1.32878	5.52
1.34545	5.52
1.36212	5.52
1.37878	5.52
1.39545	5.52
1.41212	5.52
1.42878	5.52
1.44545	5.52
1.46212	5.52
1.47878	5.52
1.49545	5.52
1.51212	5.52
1.52878	5.52
1.54545	5.52
1.56212	5.52
1.57878	5.52
1.59545	5.52
1.61212	5.52
1.62878	5.52
1.64545	5.51
1.66212	5.50
1.67878	5.49
1.69545	5.48
1.71212	5.47
1.72878	5.46
1.74545	5.45
1.76212	5.44
1.77878	5.43
1.79545	5.42
1.81212	5.41
1.82878	5.40
1.84545	5.39
1.86212	5.38
1.87878	5.37
1.89545	5.36
1.91212	5.35
1.92878	5.34
1.94545	5.33
1.96212	5.32
1.97878	5.31
1.99545	5.30
2.01212	5.29
2.02878	5.28
2.04545	5.27
2.06212	5.26
2.07878	5.25
2.09545	5.24
2.11212	5.23
2.12878	5.22
2.14545	5.21
2.16212	5.20
2.17878	5.19
2.19545	5.18
2.21212	5.17
2.22878	5.16
2.24545	5.16
2.26212	5.15
2.27878	5.14
2.29545	5.13
2.31212	5.12
2.32878	5.11
2.34545	5.10
2.36212	5.09
2.37878	5.09
2.39545	5.08
2.41212	5.09
2.42878	5.09
2.44545	5.09
2.46212	5.09
2.47878	5.09
2.49545	5.09
2.51212	5.08
2.52878	5.08
2.54545	5.08
2.56212	5.08
2.57878	5.08
2.59545	5.08
2.61212	5.08
2.62878	5.08
2.64545	5.08
2.66212	5.08
2.67878	5.08
2.69545	5.08
2.71212	5.08
2.72878	5.08
2.74545	5.08
2.76212	5.08
2.77878	5.08
2.79545	5.08
2.81212	5.08
2.82878	5.08
2.84545	5.08
2.86212	5.08
2.87878	5.08
2.89545	5.08
2.91212	5.08
2.92878	5.08
2.94545	5.08
2.96212	5.08
2.97878	5.08
2.99545	5.08
3.01212	5.08
3.02878	5.08
3.04545	5.08
3.06212	5.08
3.07878	5.08
3.09545	5.08
3.11212	5.08
3.12878	5.08
3.14545	5.08
3.16212	5.08
3.17878	5.08
3.19545	5.08
3.21212	5.08
3.22878	5.08
3.24545	5.08
3.26212	5.08
3.27878	5.08
3.29545	5.08
3.31212	5.08
3.32878	5.08
3.34545	5.08
3.36212	5.08
3.37878	5.08
3.39545	5.08
3.41212	5.08
3.42878	5.08
3.44545	5.08
3.46212	5.08
3.47878	5.08
3.49545	5.08
3.51212	5.08
3.52878	5.08
3.54545	5.08
3.56212	5.08
3.57878	5.08
3.59545	5.08
3.61212	5.08
3.62878	5.08
3.64545	5.08
3.66212	5.08
3.67878	5.08
3.69545	5.08
3.71212	5.08
3.72878	5.08
3.74545	5.08
3.76212	5.08
3.77878	5.08
3.79545	5.08
3.81212	5.08
3.82878	5.08
3.84545	5.08
3.86212	5.08
3.87878	5.08
3.89545	5.08
3.91212	5.08
3.92878	5.08
3.94545	5.08
3.96212	5.08
3.97878	5.08
3.99545	5.08

[Status Trace (Linear Velocity)]
Interval(msec)	1000
# of Points	240
Start Time(min)	0.012
End Time(min)	3.995
Intensity Units	
Intensity Multiplier	1
R.Time (min)	Intensity
0.01212	39.00
0.02878	37.01
0.04545	38.77
0.06212	40.12
0.07878	39.58
0.09545	39.01
0.11212	39.00
0.12878	39.02
0.14545	39.02
0.16212	39.01
0.17878	39.01
0.19545	39.01
0.21212	39.01
0.22878	39.01
0.24545	39.01
0.26212	39.01
0.27878	39.01
0.29545	39.02
0.31212	39.02
0.32878	39.02
0.34545	39.02
0.36212	39.02
0.37878	39.02
0.39545	39.02
0.41212	39.02
0.42878	39.02
0.44545	39.02
0.46212	39.02
0.47878	39.02
0.49545	39.02
0.51212	39.02
0.52878	39.02
0.54545	39.02
0.56212	39.02
0.57878	39.02
0.59545	39.02
0.61212	39.02
0.62878	39.02
0.64545	39.02
0.66212	39.02
0.67878	39.02
0.69545	39.02
0.71212	39.02
0.72878	39.02
0.74545	39.01
0.76212	39.02
0.77878	39.02
0.79545	39.02
0.81212	39.02
0.82878	39.02
0.84545	39.02
0.86212	39.02
0.87878	39.02
0.89545	39.02
0.91212	39.02
0.92878	39.02
0.94545	39.02
0.96212	39.02
0.97878	39.02
0.99545	39.02
1.01212	39.02
1.02878	39.02
1.04545	39.02
1.06212	39.02
1.07878	39.02
1.09545	39.02
1.11212	39.02
1.12878	39.02
1.14545	39.02
1.16212	39.01
1.17878	39.01
1.19545	39.01
1.21212	39.02
1.22878	39.02
1.24545	39.02
1.26212	39.02
1.27878	39.02
1.29545	39.02
1.31212	39.02
1.32878	39.02
1.34545	39.02
1.36212	39.02
1.37878	39.02
1.39545	39.02
1.41212	39.02
1.42878	39.02
1.44545	39.02
1.46212	39.02
1.47878	39.02
1.49545	39.02
1.51212	39.02
1.52878	39.02
1.54545	39.01
1.56212	39.02
1.57878	39.02
1.59545	39.02
1.61212	39.01
1.62878	39.00
1.64545	38.98
1.66212	38.95
1.67878	38.92
1.69545	38.88
1.71212	38.85
1.72878	38.81
1.74545	38.79
1.76212	38.76
1.77878	38.72
1.79545	38.69
1.81212	38.66
1.82878	38.63
1.84545	38.60
1.86212	38.57
1.87878	38.54
1.89545	38.51
1.91212	38.47
1.92878	38.44
1.94545	38.41
1.96212	38.38
1.97878	38.35
1.99545	38.32
2.01212	38.29
2.02878	38.26
2.04545	38.24
2.06212	38.20
2.07878	38.17
2.09545	38.14
2.11212	38.11
2.12878	38.08
2.14545	38.06
2.16212	38.02
2.17878	37.99
2.19545	37.97
2.21212	37.94
2.22878	37.90
2.24545	37.88
2.26212	37.85
2.27878	37.82
2.29545	37.79
2.31212	37.76
2.32878	37.73
2.34545	37.71
2.36212	37.68
2.37878	37.66
2.39545	37.65
2.41212	37.65
2.42878	37.65
2.44545	37.65
2.46212	37.65
2.47878	37.66
2.49545	37.65
2.51212	37.65
2.52878	37.64
2.54545	37.65
2.56212	37.65
2.57878	37.65
2.59545	37.65
2.61212	37.65
2.62878	37.65
2.64545	37.65
2.66212	37.65
2.67878	37.65
2.69545	37.64
2.71212	37.65
2.72878	37.65
2.74545	37.65
2.76212	37.64
2.77878	37.64
2.79545	37.64
2.81212	37.64
2.82878	37.64
2.84545	37.64
2.86212	37.64
2.87878	37.64
2.89545	37.64
2.91212	37.64
2.92878	37.64
2.94545	37.64
2.96212	37.63
2.97878	37.63
2.99545	37.63
3.01212	37.63
3.02878	37.63
3.04545	37.63
3.06212	37.63
3.07878	37.63
3.09545	37.63
3.11212	37.63
3.12878	37.63
3.14545	37.63
3.16212	37.63
3.17878	37.63
3.19545	37.62
3.21212	37.62
3.22878	37.62
3.24545	37.62
3.26212	37.62
3.27878	37.62
3.29545	37.63
3.31212	37.63
3.32878	37.63
3.34545	37.63
3.36212	37.63
3.37878	37.63
3.39545	37.63
3.41212	37.63
3.42878	37.63
3.44545	37.63
3.46212	37.63
3.47878	37.63
3.49545	37.63
3.51212	37.63
3.52878	37.63
3.54545	37.63
3.56212	37.63
3.57878	37.63
3.59545	37.63
3.61212	37.63
3.62878	37.63
3.64545	37.63
3.66212	37.63
3.67878	37.63
3.69545	37.63
3.71212	37.63
3.72878	37.63
3.74545	37.63
3.76212	37.63
3.77878	37.62
3.79545	37.62
3.81212	37.63
3.82878	37.63
3.84545	37.63
3.86212	37.63
3.87878	37.63
3.89545	37.63
3.91212	37.63
3.92878	37.63
3.94545	37.63
3.96212	37.63
3.97878	37.63
3.99545	37.63

