[Header]
Application Name	LabSolutions
Version	5.110
Data File Name	C:\Users\User\Desktop\GC Analyses\Jack\Nachusa Grasslands Sampling\T2 Timepoint July 12th\T2_07122022_041.gcd
Output Date	3/14/2023
Output Time	3:42:32 PM

[File Information]
Type	Data File
Generated	3/10/2023 4:56:26 PM
Generated by	System Administrator
Modified	3/10/2023 5:03:01 PM
Modified by	System Administrator

[Sample Information]
Operator Name	System Administrator
Acquired	3/10/2023 4:59:00 PM
Sample Type	0:Unknown
Level	0
Sample Name	041
Sample ID	041
ISTD Amount1	1
ISTD Amount2	1
ISTD Amount3	1
ISTD Amount4	1
ISTD Amount5	1
ISTD Amount6	1
ISTD Amount7	1
ISTD Amount8	1
ISTD Amount9	1
ISTD Amount10	1
ISTD Amount11	1
ISTD Amount12	1
ISTD Amount13	1
ISTD Amount14	1
ISTD Amount15	1
ISTD Amount16	1
ISTD Amount17	1
ISTD Amount18	1
ISTD Amount19	1
ISTD Amount20	1
ISTD Amount21	1
ISTD Amount22	1
ISTD Amount23	1
ISTD Amount24	1
ISTD Amount25	1
ISTD Amount26	1
ISTD Amount27	1
ISTD Amount28	1
ISTD Amount29	1
ISTD Amount30	1
ISTD Amount31	1
ISTD Amount32	1
Sample Amount	1
Dilution Factor	1
Vial#	40
Injection Volume	1
Injection Count	1
Bar Code	

[Original Files]
Data File	C:\Users\User\Desktop\GC Analyses\Jack\Nachusa Grasslands Sampling\T1 Timepoint July 12th\T2_07122022_041.gcd
Method File	C:\LabSolutions\Data\GHG_4min_2022\ghg3_togas_w_acet_4 min_new_int.gcm
Batch File	C:\LabSolutions\Data\AutoSamplerTesting\T2_07122022.gcb
Report Format File	c:\LabSolutions\System\DEFAULT.lsr

[File Description]


[Configuration]
Instrument Name	C0B7VH3-Instrument1
Instrument #	1
Line #	1
# of Detectors	3
Detector ID	DET#1	DET#2	DET#3
Detector Name	FID	PTCD	ECD
# of Channels	1	1	1

[Peak Table(Ch1)]
# of Peaks	3
Peak#	R.Time	I.Time	F.Time	Area	Height	A/H	Conc.	Mark	ID#	Name	k'	Plate #	Plate Ht.	Tailing	Resolution	Sep.Factor	Area Ratio	Height Ratio	Conc. %	Norm Conc.
1	1.483	1.417	1.531	2485	732	3.394	17.545	   	1	CO	0.000	4447	33.727	0.000	0.000	0.000	0	0	1.903	1.903
2	1.567	1.531	1.641	20086	10211	1.967	388.376	 V 	2	CH4	0.057	11381	13.180	1.214	1.142	0.000	0	0	42.129	42.129
3	1.996	1.949	2.598	2055828	978445	2.101	515.957	   	3	CO2	0.346	17184	8.729	1.266	7.169	6.087	0	0	55.968	55.968

[Peak Table(Ch2)]
# of Peaks	0

[Peak Table(Ch3)]
# of Peaks	6
Peak#	R.Time	I.Time	F.Time	Area	Height	A/H	Conc.	Mark	ID#	Name	k'	Plate #	Plate Ht.	Tailing	Resolution	Sep.Factor	Area Ratio	Height Ratio	Conc. %	Norm Conc.
1	2.462	2.429	2.510	1601	587	2.727	0.000	   			0.000	10883	13.783	0.000	0.000	0.000	0	0	0.000	0.000
2	2.535	2.510	2.642	1338	321	4.163	0.000	 V 			0.030	5629	26.647	0.000	0.639	0.000	0	0	0.000	0.000
3	2.660	2.642	2.700	138	59	2.334	0.000	 V 			0.080	8775	17.094	0.000	1.002	2.700	0	0	0.000	0.000
4	2.876	2.803	3.063	59386	15515	3.828	1.517	   	1	N2O	0.168	12719	11.793	1.608	2.007	2.093	0	0	100.000	100.000
5	3.166	3.100	3.177	104	44	2.381	0.000	   	2	SF6	0.286	28844	5.200	0.585	3.281	1.699	0	0	0.000	0.000
6	3.382	3.184	3.995	14807	523	28.333	0.000	   	2	SF6	0.374	242	619.433	2.026	0.458	1.307	0	0	0.000	0.000

[Compound Results(Ch1)]
# of IDs	6
ID#	Name	R.Time	Area	Height	Conc.	Curve	3rd	2nd	1st	Constant	Area Ratio	Height Ratio	Conc. %	Norm Conc.
1	CO	1.483	2485	732	17.545	Linear	0.000000e+00	0.000000e+00	1.416423e+002	0.000000e+00	0	0	1.903	1.903
2	CH4	1.567	20086	10211	388.376	Linear	0.000000e+00	0.000000e+00	5.171738e+001	0.000000e+00	0	0	42.129	42.129
3	CO2	1.996	2055828	978445	515.957	Linear	0.000000e+00	0.000000e+00	3.984494e+003	0.000000e+00	0	0	55.968	55.968
4	Ethylene	0.000	0	0	0.000	Linear	0.000000e+00	0.000000e+00	0.000000e+00	0.000000e+00	0	0	0.000	0.000
5	Acetylene	0.000	0	0	0.000	Linear	0.000000e+00	0.000000e+00	0.000000e+00	0.000000e+00	0	0	0.000	0.000
6	Ethane	0.000	0	0	0.000	Linear	0.000000e+00	0.000000e+00	0.000000e+00	0.000000e+00	0	0	0.000	0.000

[Compound Results(Ch2)]
# of IDs	5
ID#	Name	R.Time	Area	Height	Conc.	Curve	3rd	2nd	1st	Constant	Area Ratio	Height Ratio	Conc. %	Norm Conc.
1	Hydrogen	0.000	0	0	0.000	Linear	0.000000e+00	0.000000e+00	0.000000e+00	0.000000e+00	0	0	0.000	0.000
2	Oxygen	0.000	0	0	0.000	Linear	0.000000e+00	0.000000e+00	0.000000e+00	0.000000e+00	0	0	0.000	0.000
3	Nitrogen	0.000	0	0	0.000	Linear	0.000000e+00	0.000000e+00	0.000000e+00	0.000000e+00	0	0	0.000	0.000
4	Methane	0.000	0	0	0.000	Linear	0.000000e+00	0.000000e+00	0.000000e+00	0.000000e+00	0	0	0.000	0.000
5	Carbon Monoxide	0.000	0	0	0.000	Linear	0.000000e+00	0.000000e+00	0.000000e+00	0.000000e+00	0	0	0.000	0.000

[Compound Results(Ch3)]
# of IDs	2
ID#	Name	R.Time	Area	Height	Conc.	Curve	3rd	2nd	1st	Constant	Area Ratio	Height Ratio	Conc. %	Norm Conc.
1	N2O	2.876	59386	15515	1.517	Linear	0.000000e+00	0.000000e+00	3.915173e+004	0.000000e+00	0	0	100.000	100.000
2	SF6	3.382	14911	566	0.000	Linear	0.000000e+00	0.000000e+00	0.000000e+00	0.000000e+00	0	0	0.000	0.000

[Group Results(Ch1)]
# of Groups	0

[Group Results(Ch2)]
# of Groups	0

[Group Results(Ch3)]
# of Groups	0

[Chromatogram (Ch1)]
Interval(msec)	220
# of Points	1091
Start Time(min)	0.002
End Time(min)	3.998
R.Time (min)	Intensity
0.00167	6
0.00533	10
0.00900	13
0.01267	20
0.01633	27
0.02000	29
0.02367	30
0.02733	33
0.03100	34
0.03467	32
0.03833	25
0.04200	13
0.04567	5
0.04933	2
0.05300	5
0.05667	7
0.06033	7
0.06400	5
0.06767	-1
0.07133	-4
0.07500	-7
0.07867	-4
0.08233	2
0.08600	7
0.08967	13
0.09333	20
0.09700	26
0.10067	30
0.10433	36
0.10800	41
0.11167	40
0.11533	35
0.11900	29
0.12267	22
0.12633	15
0.13000	11
0.13367	10
0.13733	10
0.14100	13
0.14467	17
0.14833	19
0.15200	23
0.15567	21
0.15933	15
0.16300	9
0.16667	8
0.17033	9
0.17400	9
0.17767	12
0.18133	18
0.18500	21
0.18867	23
0.19233	19
0.19600	12
0.19967	10
0.20333	12
0.20700	10
0.21067	10
0.21433	10
0.21800	9
0.22167	7
0.22533	9
0.22900	15
0.23267	22
0.23633	26
0.24000	29
0.24367	30
0.24733	30
0.25100	30
0.25467	36
0.25833	48
0.26200	58
0.26567	61
0.26933	61
0.27300	57
0.27667	51
0.28033	41
0.28400	33
0.28767	28
0.29133	23
0.29500	20
0.29867	20
0.30233	25
0.30600	35
0.30967	46
0.31333	52
0.31700	58
0.32067	60
0.32433	62
0.32800	67
0.33167	73
0.33533	75
0.33900	72
0.34267	74
0.34633	82
0.35000	93
0.35367	98
0.35733	94
0.36100	85
0.36467	76
0.36833	71
0.37200	67
0.37567	63
0.37933	62
0.38300	64
0.38667	65
0.39033	64
0.39400	62
0.39767	64
0.40133	67
0.40500	71
0.40867	69
0.41233	67
0.41600	67
0.41967	70
0.42333	70
0.42700	63
0.43067	55
0.43433	48
0.43800	42
0.44167	43
0.44533	46
0.44900	48
0.45267	50
0.45633	50
0.46000	53
0.46367	56
0.46733	53
0.47100	48
0.47467	41
0.47833	33
0.48200	28
0.48567	22
0.48933	16
0.49300	12
0.49667	9
0.50033	7
0.50400	8
0.50767	15
0.51133	27
0.51500	40
0.51867	50
0.52233	50
0.52600	49
0.52967	50
0.53333	50
0.53700	48
0.54067	45
0.54433	39
0.54800	30
0.55167	26
0.55533	25
0.55900	22
0.56267	19
0.56633	16
0.57000	15
0.57367	14
0.57733	11
0.58100	7
0.58467	4
0.58833	4
0.59200	8
0.59567	17
0.59933	19
0.60300	14
0.60667	8
0.61033	9
0.61400	12
0.61767	14
0.62133	11
0.62500	8
0.62867	10
0.63233	14
0.63600	18
0.63967	19
0.64333	19
0.64700	22
0.65067	23
0.65433	22
0.65800	21
0.66167	19
0.66533	18
0.66900	19
0.67267	24
0.67633	29
0.68000	31
0.68367	37
0.68733	40
0.69100	39
0.69467	37
0.69833	34
0.70200	30
0.70567	27
0.70933	28
0.71300	26
0.71667	21
0.72033	14
0.72400	9
0.72767	9
0.73133	9
0.73500	9
0.73867	6
0.74233	4
0.74600	2
0.74967	0
0.75333	-1
0.75700	0
0.76067	5
0.76433	11
0.76800	19
0.77167	22
0.77533	25
0.77900	32
0.78267	38
0.78633	36
0.79000	27
0.79367	16
0.79733	8
0.80100	3
0.80467	1
0.80833	4
0.81200	6
0.81567	5
0.81933	4
0.82300	2
0.82667	-1
0.83033	1
0.83400	8
0.83767	17
0.84133	20
0.84500	21
0.84867	21
0.85233	22
0.85600	23
0.85967	22
0.86333	26
0.86700	27
0.87067	21
0.87433	12
0.87800	10
0.88167	14
0.88533	22
0.88900	28
0.89267	26
0.89633	21
0.90000	20
0.90367	21
0.90733	17
0.91100	6
0.91467	-4
0.91833	-10
0.92200	-9
0.92567	-2
0.92933	6
0.93300	10
0.93667	12
0.94033	12
0.94400	10
0.94767	7
0.95133	10
0.95500	13
0.95867	9
0.96233	2
0.96600	-4
0.96967	-8
0.97333	-10
0.97700	-8
0.98067	-5
0.98433	-3
0.98800	-1
0.99167	3
0.99533	4
0.99900	5
1.00267	10
1.00633	15
1.01000	16
1.01367	17
1.01733	18
1.02100	18
1.02467	15
1.02833	10
1.03200	4
1.03567	3
1.03933	5
1.04300	8
1.04667	12
1.05033	14
1.05400	15
1.05767	14
1.06133	13
1.06500	11
1.06867	10
1.07233	8
1.07600	5
1.07967	5
1.08333	3
1.08700	3
1.09067	5
1.09433	7
1.09800	6
1.10167	1
1.10533	-4
1.10900	-6
1.11267	-1
1.11633	6
1.12000	9
1.12367	8
1.12733	5
1.13100	0
1.13467	-5
1.13833	-11
1.14200	-15
1.14567	-19
1.14933	-19
1.15300	-14
1.15667	-7
1.16033	1
1.16400	10
1.16767	17
1.17133	24
1.17500	31
1.17867	38
1.18233	46
1.18600	47
1.18967	40
1.19333	32
1.19700	24
1.20067	19
1.20433	18
1.20800	21
1.21167	26
1.21533	31
1.21900	31
1.22267	30
1.22633	30
1.23000	30
1.23367	34
1.23733	39
1.24100	42
1.24467	44
1.24833	46
1.25200	47
1.25567	46
1.25933	45
1.26300	50
1.26667	52
1.27033	51
1.27400	48
1.27767	42
1.28133	33
1.28500	24
1.28867	20
1.29233	18
1.29600	16
1.29967	21
1.30333	25
1.30700	29
1.31067	31
1.31433	29
1.31800	28
1.32167	28
1.32533	33
1.32900	43
1.33267	51
1.33633	53
1.34000	53
1.34367	54
1.34733	51
1.35100	43
1.35467	33
1.35833	26
1.36200	21
1.36567	19
1.36933	17
1.37300	18
1.37667	22
1.38033	27
1.38400	32
1.38767	33
1.39133	29
1.39500	28
1.39867	28
1.40233	27
1.40600	23
1.40967	21
1.41333	24
1.41700	31
1.42067	36
1.42433	36
1.42800	36
1.43167	36
1.43533	44
1.43900	74
1.44267	169
1.44633	324
1.45000	480
1.45367	595
1.45733	658
1.46100	682
1.46467	686
1.46833	690
1.47200	704
1.47567	730
1.47933	760
1.48300	775
1.48667	758
1.49033	708
1.49400	636
1.49767	553
1.50133	469
1.50500	396
1.50867	339
1.51233	293
1.51600	250
1.51967	210
1.52333	182
1.52700	164
1.53067	152
1.53433	155
1.53800	242
1.54167	611
1.54533	1550
1.54900	3148
1.55267	5121
1.55633	7049
1.56000	8640
1.56367	9752
1.56733	10268
1.57100	10047
1.57467	9070
1.57833	7555
1.58200	5867
1.58567	4310
1.58933	3035
1.59300	2073
1.59667	1388
1.60033	920
1.60400	611
1.60767	415
1.61133	292
1.61500	214
1.61867	163
1.62233	127
1.62600	106
1.62967	94
1.63333	84
1.63700	73
1.64067	69
1.64433	70
1.64800	70
1.65167	74
1.65533	78
1.65900	70
1.66267	57
1.66633	44
1.67000	31
1.67367	22
1.67733	18
1.68100	19
1.68467	21
1.68833	20
1.69200	19
1.69567	20
1.69933	25
1.70300	30
1.70667	33
1.71033	34
1.71400	32
1.71767	30
1.72133	29
1.72500	29
1.72867	28
1.73233	31
1.73600	38
1.73967	49
1.74333	58
1.74700	62
1.75067	61
1.75433	53
1.75800	42
1.76167	35
1.76533	32
1.76900	28
1.77267	24
1.77633	24
1.78000	27
1.78367	27
1.78733	23
1.79100	19
1.79467	22
1.79833	23
1.80200	19
1.80567	13
1.80933	13
1.81300	18
1.81667	31
1.82033	43
1.82400	49
1.82767	53
1.83133	57
1.83500	59
1.83867	55
1.84233	47
1.84600	40
1.84967	33
1.85333	27
1.85700	22
1.86067	19
1.86433	14
1.86800	12
1.87167	16
1.87533	24
1.87900	37
1.88267	46
1.88633	52
1.89000	53
1.89367	51
1.89733	50
1.90100	50
1.90467	50
1.90833	51
1.91200	51
1.91567	48
1.91933	47
1.92300	47
1.92667	44
1.93033	44
1.93400	50
1.93767	56
1.94133	59
1.94500	62
1.94867	70
1.95233	104
1.95600	321
1.95967	1547
1.96333	6951
1.96700	25042
1.97067	71568
1.97433	164381
1.97800	309398
1.98167	490538
1.98533	676088
1.98900	833817
1.99267	939417
1.99633	978547
2.00000	948404
2.00367	858326
2.00733	728239
2.01100	582861
2.01467	443993
2.01833	325394
2.02200	232087
2.02567	162905
2.02933	113682
2.03300	79616
2.03667	56440
2.04033	40804
2.04400	30264
2.04767	23116
2.05133	18207
2.05500	14777
2.05867	12327
2.06233	10529
2.06600	9176
2.06967	8132
2.07333	7306
2.07700	6635
2.08067	6083
2.08433	5618
2.08800	5219
2.09167	4875
2.09533	4573
2.09900	4305
2.10267	4066
2.10633	3853
2.11000	3661
2.11367	3489
2.11733	3332
2.12100	3186
2.12467	3056
2.12833	2938
2.13200	2822
2.13567	2710
2.13933	2607
2.14300	2509
2.14667	2418
2.15033	2331
2.15400	2250
2.15767	2175
2.16133	2106
2.16500	2046
2.16867	1987
2.17233	1927
2.17600	1872
2.17967	1821
2.18333	1777
2.18700	1737
2.19067	1700
2.19433	1663
2.19800	1628
2.20167	1591
2.20533	1549
2.20900	1504
2.21267	1463
2.21633	1428
2.22000	1400
2.22367	1373
2.22733	1343
2.23100	1314
2.23467	1289
2.23833	1266
2.24200	1244
2.24567	1223
2.24933	1203
2.25300	1183
2.25667	1168
2.26033	1151
2.26400	1126
2.26767	1095
2.27133	1068
2.27500	1045
2.27867	1027
2.28233	1012
2.28600	998
2.28967	984
2.29333	972
2.29700	962
2.30067	947
2.30433	930
2.30800	918
2.31167	910
2.31533	901
2.31900	892
2.32267	883
2.32633	873
2.33000	864
2.33367	854
2.33733	841
2.34100	830
2.34467	826
2.34833	819
2.35200	811
2.35567	803
2.35933	794
2.36300	786
2.36667	775
2.37033	759
2.37400	739
2.37767	721
2.38133	705
2.38500	694
2.38867	688
2.39233	684
2.39600	681
2.39967	680
2.40333	679
2.40700	682
2.41067	680
2.41433	669
2.41800	657
2.42167	652
2.42533	650
2.42900	649
2.43267	648
2.43633	644
2.44000	635
2.44367	627
2.44733	625
2.45100	625
2.45467	618
2.45833	607
2.46200	599
2.46567	598
2.46933	599
2.47300	601
2.47667	599
2.48033	593
2.48400	589
2.48767	586
2.49133	582
2.49500	574
2.49867	566
2.50233	563
2.50600	560
2.50967	554
2.51333	548
2.51700	545
2.52067	546
2.52433	549
2.52800	550
2.53167	546
2.53533	539
2.53900	535
2.54267	533
2.54633	531
2.55000	526
2.55367	520
2.55733	518
2.56100	518
2.56467	517
2.56833	511
2.57200	504
2.57567	498
2.57933	499
2.58300	503
2.58667	506
2.59033	510
2.59400	512
2.59767	507
2.60133	498
2.60500	489
2.60867	483
2.61233	478
2.61600	477
2.61967	478
2.62333	484
2.62700	493
2.63067	498
2.63433	500
2.63800	498
2.64167	491
2.64533	480
2.64900	475
2.65267	473
2.65633	473
2.66000	475
2.66367	479
2.66733	481
2.67100	484
2.67467	486
2.67833	484
2.68200	483
2.68567	484
2.68933	483
2.69300	479
2.69667	476
2.70033	475
2.70400	482
2.70767	493
2.71133	501
2.71500	500
2.71867	491
2.72233	476
2.72600	464
2.72967	454
2.73333	446
2.73700	440
2.74067	437
2.74433	442
2.74800	450
2.75167	457
2.75533	456
2.75900	454
2.76267	452
2.76633	449
2.77000	446
2.77367	444
2.77733	446
2.78100	450
2.78467	456
2.78833	458
2.79200	457
2.79567	455
2.79933	452
2.80300	452
2.80667	452
2.81033	442
2.81400	430
2.81767	426
2.82133	432
2.82500	441
2.82867	447
2.83233	446
2.83600	445
2.83967	449
2.84333	454
2.84700	459
2.85067	461
2.85433	464
2.85800	465
2.86167	464
2.86533	467
2.86900	471
2.87267	468
2.87633	462
2.88000	454
2.88367	451
2.88733	456
2.89100	466
2.89467	471
2.89833	467
2.90200	457
2.90567	449
2.90933	441
2.91300	433
2.91667	433
2.92033	434
2.92400	438
2.92767	442
2.93133	446
2.93500	451
2.93867	457
2.94233	464
2.94600	466
2.94967	459
2.95333	447
2.95700	437
2.96067	436
2.96433	439
2.96800	441
2.97167	441
2.97533	442
2.97900	443
2.98267	441
2.98633	438
2.99000	438
2.99367	440
2.99733	438
3.00100	439
3.00467	445
3.00833	455
3.01200	460
3.01567	457
3.01933	454
3.02300	453
3.02667	455
3.03033	454
3.03400	447
3.03767	435
3.04133	425
3.04500	422
3.04867	428
3.05233	441
3.05600	456
3.05967	465
3.06333	470
3.06700	468
3.07067	463
3.07433	454
3.07800	441
3.08167	432
3.08533	428
3.08900	427
3.09267	427
3.09633	427
3.10000	423
3.10367	416
3.10733	407
3.11100	400
3.11467	401
3.11833	406
3.12200	410
3.12567	414
3.12933	418
3.13300	423
3.13667	427
3.14033	425
3.14400	420
3.14767	415
3.15133	415
3.15500	416
3.15867	418
3.16233	414
3.16600	409
3.16967	410
3.17333	419
3.17700	427
3.18067	430
3.18433	432
3.18800	434
3.19167	431
3.19533	428
3.19900	427
3.20267	422
3.20633	415
3.21000	412
3.21367	412
3.21733	410
3.22100	401
3.22467	393
3.22833	386
3.23200	376
3.23567	368
3.23933	363
3.24300	362
3.24667	368
3.25033	378
3.25400	390
3.25767	398
3.26133	403
3.26500	405
3.26867	405
3.27233	399
3.27600	394
3.27967	390
3.28333	393
3.28700	397
3.29067	400
3.29433	397
3.29800	392
3.30167	387
3.30533	383
3.30900	382
3.31267	384
3.31633	389
3.32000	395
3.32367	401
3.32733	402
3.33100	397
3.33467	392
3.33833	390
3.34200	388
3.34567	389
3.34933	391
3.35300	389
3.35667	380
3.36033	375
3.36400	374
3.36767	376
3.37133	374
3.37500	370
3.37867	369
3.38233	370
3.38600	376
3.38967	381
3.39333	383
3.39700	382
3.40067	381
3.40433	379
3.40800	377
3.41167	375
3.41533	370
3.41900	366
3.42267	366
3.42633	367
3.43000	364
3.43367	362
3.43733	359
3.44100	357
3.44467	358
3.44833	358
3.45200	360
3.45567	363
3.45933	366
3.46300	369
3.46667	370
3.47033	370
3.47400	364
3.47767	357
3.48133	351
3.48500	350
3.48867	349
3.49233	350
3.49600	353
3.49967	358
3.50333	362
3.50700	362
3.51067	358
3.51433	353
3.51800	349
3.52167	349
3.52533	352
3.52900	356
3.53267	356
3.53633	352
3.54000	350
3.54367	349
3.54733	351
3.55100	356
3.55467	358
3.55833	356
3.56200	351
3.56567	345
3.56933	336
3.57300	329
3.57667	326
3.58033	327
3.58400	330
3.58767	332
3.59133	333
3.59500	335
3.59867	339
3.60233	343
3.60600	341
3.60967	334
3.61333	330
3.61700	329
3.62067	329
3.62433	332
3.62800	335
3.63167	338
3.63533	339
3.63900	342
3.64267	339
3.64633	334
3.65000	331
3.65367	327
3.65733	324
3.66100	324
3.66467	327
3.66833	324
3.67200	317
3.67567	311
3.67933	307
3.68300	307
3.68667	310
3.69033	312
3.69400	316
3.69767	319
3.70133	317
3.70500	311
3.70867	306
3.71233	307
3.71600	312
3.71967	315
3.72333	312
3.72700	302
3.73067	292
3.73433	289
3.73800	294
3.74167	301
3.74533	304
3.74900	302
3.75267	298
3.75633	292
3.76000	288
3.76367	288
3.76733	290
3.77100	295
3.77467	304
3.77833	312
3.78200	314
3.78567	312
3.78933	312
3.79300	314
3.79667	315
3.80033	312
3.80400	306
3.80767	302
3.81133	296
3.81500	294
3.81867	300
3.82233	304
3.82600	303
3.82967	297
3.83333	293
3.83700	292
3.84067	291
3.84433	288
3.84800	283
3.85167	280
3.85533	279
3.85900	283
3.86267	289
3.86633	294
3.87000	297
3.87367	294
3.87733	288
3.88100	283
3.88467	281
3.88833	287
3.89200	290
3.89567	289
3.89933	286
3.90300	286
3.90667	287
3.91033	292
3.91400	299
3.91767	302
3.92133	304
3.92500	302
3.92867	293
3.93233	284
3.93600	278
3.93967	272
3.94333	265
3.94700	263
3.95067	266
3.95433	276
3.95800	284
3.96167	282
3.96533	276
3.96900	270
3.97267	269
3.97633	271
3.98000	268
3.98367	265
3.98733	264
3.99100	265
3.99467	266
3.99833	268

[Chromatogram (Ch2)]
Interval(msec)	220
# of Points	1091
Start Time(min)	0.002
End Time(min)	3.998
R.Time (min)	Intensity
0.00167	1
0.00533	1
0.00900	1
0.01267	1
0.01633	1
0.02000	1
0.02367	1
0.02733	1
0.03100	1
0.03467	1
0.03833	1
0.04200	0
0.04567	-0
0.04933	-0
0.05300	-0
0.05667	-0
0.06033	-0
0.06400	0
0.06767	0
0.07133	0
0.07500	0
0.07867	0
0.08233	0
0.08600	0
0.08967	-0
0.09333	-0
0.09700	-1
0.10067	-1
0.10433	-1
0.10800	-1
0.11167	-1
0.11533	-1
0.11900	-2
0.12267	-2
0.12633	-2
0.13000	-2
0.13367	-2
0.13733	-2
0.14100	-2
0.14467	-2
0.14833	-2
0.15200	-2
0.15567	-2
0.15933	-2
0.16300	-2
0.16667	-1
0.17033	-1
0.17400	-1
0.17767	-1
0.18133	-0
0.18500	-0
0.18867	-0
0.19233	-0
0.19600	-0
0.19967	-0
0.20333	-0
0.20700	-1
0.21067	-1
0.21433	-2
0.21800	-2
0.22167	-2
0.22533	-2
0.22900	-3
0.23267	-3
0.23633	-3
0.24000	-3
0.24367	-3
0.24733	-3
0.25100	-2
0.25467	-2
0.25833	-2
0.26200	-2
0.26567	-3
0.26933	-3
0.27300	-3
0.27667	-3
0.28033	-2
0.28400	-2
0.28767	-2
0.29133	-1
0.29500	-1
0.29867	-1
0.30233	-1
0.30600	-1
0.30967	-0
0.31333	-0
0.31700	-0
0.32067	-0
0.32433	-0
0.32800	-0
0.33167	-1
0.33533	-1
0.33900	-1
0.34267	-1
0.34633	-1
0.35000	-2
0.35367	-2
0.35733	-2
0.36100	-2
0.36467	-2
0.36833	-2
0.37200	-2
0.37567	-2
0.37933	-2
0.38300	-2
0.38667	-2
0.39033	-2
0.39400	-2
0.39767	-2
0.40133	-2
0.40500	-1
0.40867	-1
0.41233	-1
0.41600	-1
0.41967	-1
0.42333	-0
0.42700	-0
0.43067	-0
0.43433	-0
0.43800	0
0.44167	0
0.44533	1
0.44900	1
0.45267	1
0.45633	1
0.46000	1
0.46367	0
0.46733	0
0.47100	-0
0.47467	-0
0.47833	-1
0.48200	-1
0.48567	-2
0.48933	-2
0.49300	-3
0.49667	-3
0.50033	-4
0.50400	-4
0.50767	-4
0.51133	-4
0.51500	-4
0.51867	-4
0.52233	-4
0.52600	-3
0.52967	-3
0.53333	-3
0.53700	-2
0.54067	-2
0.54433	-1
0.54800	-1
0.55167	-0
0.55533	0
0.55900	0
0.56267	1
0.56633	1
0.57000	1
0.57367	1
0.57733	1
0.58100	1
0.58467	1
0.58833	1
0.59200	1
0.59567	1
0.59933	1
0.60300	1
0.60667	1
0.61033	0
0.61400	0
0.61767	-0
0.62133	-0
0.62500	-1
0.62867	-1
0.63233	-2
0.63600	-2
0.63967	-3
0.64333	-3
0.64700	-3
0.65067	-3
0.65433	-3
0.65800	-3
0.66167	-3
0.66533	-3
0.66900	-3
0.67267	-3
0.67633	-3
0.68000	-4
0.68367	-4
0.68733	-4
0.69100	-4
0.69467	-4
0.69833	-4
0.70200	-4
0.70567	-4
0.70933	-4
0.71300	-4
0.71667	-4
0.72033	-4
0.72400	-4
0.72767	-4
0.73133	-4
0.73500	-3
0.73867	-3
0.74233	-3
0.74600	-3
0.74967	-3
0.75333	-3
0.75700	-3
0.76067	-3
0.76433	-3
0.76800	-3
0.77167	-3
0.77533	-3
0.77900	-3
0.78267	-3
0.78633	-3
0.79000	-3
0.79367	-3
0.79733	-3
0.80100	-3
0.80467	-3
0.80833	-3
0.81200	-3
0.81567	-3
0.81933	-3
0.82300	-3
0.82667	-2
0.83033	-2
0.83400	-2
0.83767	-2
0.84133	-2
0.84500	-2
0.84867	-2
0.85233	-2
0.85600	-2
0.85967	-2
0.86333	-2
0.86700	-2
0.87067	-2
0.87433	-2
0.87800	-2
0.88167	-2
0.88533	-2
0.88900	-2
0.89267	-2
0.89633	-2
0.90000	-2
0.90367	-2
0.90733	-2
0.91100	-2
0.91467	-2
0.91833	-1
0.92200	-1
0.92567	-1
0.92933	-1
0.93300	-1
0.93667	-1
0.94033	-1
0.94400	-1
0.94767	-1
0.95133	-1
0.95500	-1
0.95867	-0
0.96233	-0
0.96600	0
0.96967	0
0.97333	0
0.97700	0
0.98067	0
0.98433	0
0.98800	0
0.99167	0
0.99533	0
0.99900	0
1.00267	0
1.00633	0
1.01000	0
1.01367	0
1.01733	-0
1.02100	-0
1.02467	-0
1.02833	-0
1.03200	-0
1.03567	-0
1.03933	-0
1.04300	-0
1.04667	-0
1.05033	-0
1.05400	0
1.05767	0
1.06133	1
1.06500	1
1.06867	1
1.07233	1
1.07600	1
1.07967	1
1.08333	1
1.08700	0
1.09067	-0
1.09433	-0
1.09800	-1
1.10167	-2
1.10533	-2
1.10900	-3
1.11267	-3
1.11633	-3
1.12000	-4
1.12367	-4
1.12733	-4
1.13100	-4
1.13467	-4
1.13833	-3
1.14200	-3
1.14567	-3
1.14933	-3
1.15300	-3
1.15667	-3
1.16033	-3
1.16400	-3
1.16767	-3
1.17133	-3
1.17500	-3
1.17867	-3
1.18233	-3
1.18600	-2
1.18967	-2
1.19333	-2
1.19700	-1
1.20067	-1
1.20433	-2
1.20800	-2
1.21167	-2
1.21533	-3
1.21900	-3
1.22267	-4
1.22633	-4
1.23000	-4
1.23367	-5
1.23733	-5
1.24100	-5
1.24467	-5
1.24833	-5
1.25200	-5
1.25567	-5
1.25933	-4
1.26300	-4
1.26667	-4
1.27033	-3
1.27400	-3
1.27767	-3
1.28133	-4
1.28500	-4
1.28867	-4
1.29233	-4
1.29600	-4
1.29967	-4
1.30333	-3
1.30700	-3
1.31067	-3
1.31433	-2
1.31800	-2
1.32167	-2
1.32533	-1
1.32900	-1
1.33267	-1
1.33633	-1
1.34000	-1
1.34367	-1
1.34733	-1
1.35100	-2
1.35467	-2
1.35833	-2
1.36200	-3
1.36567	-3
1.36933	-3
1.37300	-3
1.37667	-3
1.38033	-3
1.38400	-4
1.38767	-3
1.39133	-3
1.39500	-3
1.39867	-2
1.40233	-2
1.40600	-2
1.40967	-2
1.41333	-2
1.41700	-2
1.42067	-2
1.42433	-2
1.42800	-2
1.43167	-2
1.43533	-2
1.43900	-2
1.44267	-2
1.44633	-1
1.45000	-1
1.45367	-1
1.45733	-1
1.46100	-1
1.46467	-1
1.46833	-0
1.47200	-0
1.47567	0
1.47933	0
1.48300	0
1.48667	1
1.49033	1
1.49400	0
1.49767	0
1.50133	0
1.50500	-0
1.50867	-1
1.51233	-1
1.51600	-1
1.51967	-2
1.52333	-2
1.52700	-2
1.53067	-2
1.53433	-2
1.53800	-2
1.54167	-2
1.54533	-2
1.54900	-2
1.55267	-3
1.55633	-3
1.56000	-3
1.56367	-4
1.56733	-4
1.57100	-5
1.57467	-5
1.57833	-6
1.58200	-6
1.58567	-6
1.58933	-7
1.59300	-8
1.59667	-8
1.60033	-9
1.60400	-10
1.60767	-12
1.61133	-14
1.61500	-16
1.61867	-18
1.62233	-20
1.62600	-22
1.62967	-25
1.63333	-28
1.63700	-31
1.64067	-34
1.64433	-37
1.64800	-40
1.65167	-44
1.65533	-47
1.65900	-50
1.66267	-53
1.66633	-57
1.67000	-61
1.67367	-65
1.67733	-70
1.68100	-75
1.68467	-79
1.68833	-84
1.69200	-88
1.69567	-91
1.69933	-94
1.70300	-97
1.70667	-99
1.71033	-101
1.71400	-102
1.71767	-104
1.72133	-105
1.72500	-106
1.72867	-107
1.73233	-108
1.73600	-109
1.73967	-110
1.74333	-110
1.74700	-110
1.75067	-110
1.75433	-109
1.75800	-109
1.76167	-108
1.76533	-108
1.76900	-107
1.77267	-107
1.77633	-108
1.78000	-108
1.78367	-109
1.78733	-111
1.79100	-112
1.79467	-113
1.79833	-113
1.80200	-114
1.80567	-114
1.80933	-114
1.81300	-114
1.81667	-114
1.82033	-114
1.82400	-115
1.82767	-115
1.83133	-116
1.83500	-116
1.83867	-117
1.84233	-117
1.84600	-116
1.84967	-116
1.85333	-115
1.85700	-115
1.86067	-115
1.86433	-115
1.86800	-115
1.87167	-115
1.87533	-115
1.87900	-115
1.88267	-114
1.88633	-114
1.89000	-113
1.89367	-112
1.89733	-112
1.90100	-111
1.90467	-111
1.90833	-112
1.91200	-112
1.91567	-112
1.91933	-112
1.92300	-111
1.92667	-111
1.93033	-111
1.93400	-110
1.93767	-110
1.94133	-109
1.94500	-108
1.94867	-108
1.95233	-108
1.95600	-108
1.95967	-108
1.96333	-108
1.96700	-108
1.97067	-108
1.97433	-108
1.97800	-108
1.98167	-108
1.98533	-108
1.98900	-108
1.99267	-107
1.99633	-107
2.00000	-106
2.00367	-105
2.00733	-105
2.01100	-105
2.01467	-104
2.01833	-104
2.02200	-104
2.02567	-104
2.02933	-104
2.03300	-104
2.03667	-104
2.04033	-104
2.04400	-104
2.04767	-104
2.05133	-104
2.05500	-103
2.05867	-103
2.06233	-103
2.06600	-102
2.06967	-103
2.07333	-103
2.07700	-103
2.08067	-102
2.08433	-102
2.08800	-101
2.09167	-101
2.09533	-101
2.09900	-100
2.10267	-100
2.10633	-100
2.11000	-100
2.11367	-99
2.11733	-98
2.12100	-98
2.12467	-97
2.12833	-97
2.13200	-96
2.13567	-96
2.13933	-96
2.14300	-96
2.14667	-96
2.15033	-96
2.15400	-96
2.15767	-95
2.16133	-95
2.16500	-94
2.16867	-94
2.17233	-93
2.17600	-93
2.17967	-93
2.18333	-93
2.18700	-93
2.19067	-93
2.19433	-93
2.19800	-93
2.20167	-92
2.20533	-92
2.20900	-92
2.21267	-92
2.21633	-92
2.22000	-92
2.22367	-92
2.22733	-91
2.23100	-91
2.23467	-90
2.23833	-89
2.24200	-88
2.24567	-88
2.24933	-87
2.25300	-86
2.25667	-85
2.26033	-85
2.26400	-84
2.26767	-84
2.27133	-84
2.27500	-84
2.27867	-84
2.28233	-83
2.28600	-83
2.28967	-82
2.29333	-81
2.29700	-81
2.30067	-80
2.30433	-79
2.30800	-79
2.31167	-79
2.31533	-79
2.31900	-79
2.32267	-80
2.32633	-80
2.33000	-81
2.33367	-82
2.33733	-82
2.34100	-83
2.34467	-83
2.34833	-83
2.35200	-82
2.35567	-80
2.35933	-78
2.36300	-76
2.36667	-73
2.37033	-71
2.37400	-67
2.37767	-64
2.38133	-60
2.38500	-56
2.38867	-51
2.39233	-46
2.39600	-41
2.39967	-37
2.40333	-32
2.40700	-28
2.41067	-25
2.41433	-22
2.41800	-19
2.42167	-17
2.42533	-15
2.42900	-14
2.43267	-12
2.43633	-12
2.44000	-11
2.44367	-11
2.44733	-10
2.45100	-9
2.45467	-8
2.45833	-7
2.46200	-6
2.46567	-5
2.46933	-4
2.47300	-3
2.47667	-2
2.48033	-1
2.48400	0
2.48767	2
2.49133	3
2.49500	4
2.49867	5
2.50233	6
2.50600	7
2.50967	7
2.51333	8
2.51700	8
2.52067	9
2.52433	9
2.52800	10
2.53167	10
2.53533	11
2.53900	11
2.54267	12
2.54633	13
2.55000	13
2.55367	14
2.55733	15
2.56100	15
2.56467	16
2.56833	16
2.57200	15
2.57567	15
2.57933	15
2.58300	15
2.58667	15
2.59033	16
2.59400	16
2.59767	17
2.60133	18
2.60500	19
2.60867	19
2.61233	20
2.61600	19
2.61967	19
2.62333	19
2.62700	19
2.63067	19
2.63433	19
2.63800	19
2.64167	19
2.64533	20
2.64900	20
2.65267	21
2.65633	21
2.66000	21
2.66367	21
2.66733	21
2.67100	21
2.67467	21
2.67833	21
2.68200	21
2.68567	21
2.68933	21
2.69300	21
2.69667	21
2.70033	21
2.70400	22
2.70767	22
2.71133	22
2.71500	23
2.71867	23
2.72233	23
2.72600	24
2.72967	24
2.73333	25
2.73700	25
2.74067	25
2.74433	25
2.74800	25
2.75167	25
2.75533	25
2.75900	25
2.76267	25
2.76633	25
2.77000	25
2.77367	25
2.77733	26
2.78100	26
2.78467	26
2.78833	26
2.79200	26
2.79567	26
2.79933	26
2.80300	26
2.80667	26
2.81033	27
2.81400	27
2.81767	27
2.82133	26
2.82500	26
2.82867	26
2.83233	26
2.83600	25
2.83967	23
2.84333	21
2.84700	17
2.85067	10
2.85433	-0
2.85800	-14
2.86167	-33
2.86533	-57
2.86900	-86
2.87267	-121
2.87633	-161
2.88000	-207
2.88367	-258
2.88733	-314
2.89100	-375
2.89467	-440
2.89833	-510
2.90200	-583
2.90567	-659
2.90933	-738
2.91300	-820
2.91667	-905
2.92033	-992
2.92400	-1081
2.92767	-1172
2.93133	-1264
2.93500	-1357
2.93867	-1444
2.94233	-1511
2.94600	-1548
2.94967	-1547
2.95333	-1511
2.95700	-1445
2.96067	-1356
2.96433	-1253
2.96800	-1142
2.97167	-1029
2.97533	-918
2.97900	-813
2.98267	-715
2.98633	-626
2.99000	-544
2.99367	-471
2.99733	-407
3.00100	-350
3.00467	-300
3.00833	-256
3.01200	-218
3.01567	-185
3.01933	-157
3.02300	-133
3.02667	-112
3.03033	-94
3.03400	-79
3.03767	-66
3.04133	-55
3.04500	-46
3.04867	-38
3.05233	-31
3.05600	-25
3.05967	-21
3.06333	-16
3.06700	-13
3.07067	-10
3.07433	-7
3.07800	-5
3.08167	-3
3.08533	-1
3.08900	0
3.09267	2
3.09633	3
3.10000	5
3.10367	6
3.10733	7
3.11100	8
3.11467	9
3.11833	10
3.12200	11
3.12567	12
3.12933	12
3.13300	13
3.13667	13
3.14033	13
3.14400	13
3.14767	14
3.15133	14
3.15500	14
3.15867	14
3.16233	14
3.16600	15
3.16967	15
3.17333	15
3.17700	15
3.18067	15
3.18433	15
3.18800	16
3.19167	16
3.19533	16
3.19900	17
3.20267	17
3.20633	17
3.21000	18
3.21367	18
3.21733	18
3.22100	19
3.22467	19
3.22833	20
3.23200	21
3.23567	21
3.23933	21
3.24300	22
3.24667	22
3.25033	23
3.25400	23
3.25767	23
3.26133	23
3.26500	23
3.26867	23
3.27233	24
3.27600	24
3.27967	24
3.28333	24
3.28700	25
3.29067	25
3.29433	25
3.29800	25
3.30167	25
3.30533	25
3.30900	25
3.31267	25
3.31633	25
3.32000	25
3.32367	25
3.32733	25
3.33100	25
3.33467	25
3.33833	25
3.34200	24
3.34567	24
3.34933	24
3.35300	24
3.35667	25
3.36033	25
3.36400	25
3.36767	25
3.37133	25
3.37500	24
3.37867	24
3.38233	24
3.38600	24
3.38967	24
3.39333	24
3.39700	24
3.40067	24
3.40433	25
3.40800	25
3.41167	25
3.41533	26
3.41900	26
3.42267	26
3.42633	27
3.43000	27
3.43367	27
3.43733	27
3.44100	27
3.44467	27
3.44833	26
3.45200	26
3.45567	26
3.45933	26
3.46300	26
3.46667	26
3.47033	26
3.47400	25
3.47767	25
3.48133	25
3.48500	25
3.48867	25
3.49233	25
3.49600	25
3.49967	25
3.50333	25
3.50700	25
3.51067	26
3.51433	26
3.51800	26
3.52167	26
3.52533	26
3.52900	26
3.53267	26
3.53633	26
3.54000	26
3.54367	26
3.54733	26
3.55100	26
3.55467	26
3.55833	25
3.56200	25
3.56567	25
3.56933	25
3.57300	25
3.57667	25
3.58033	25
3.58400	25
3.58767	26
3.59133	26
3.59500	26
3.59867	26
3.60233	26
3.60600	26
3.60967	26
3.61333	26
3.61700	26
3.62067	27
3.62433	27
3.62800	27
3.63167	27
3.63533	27
3.63900	27
3.64267	27
3.64633	28
3.65000	28
3.65367	28
3.65733	28
3.66100	28
3.66467	28
3.66833	29
3.67200	29
3.67567	29
3.67933	29
3.68300	29
3.68667	29
3.69033	29
3.69400	28
3.69767	28
3.70133	28
3.70500	28
3.70867	28
3.71233	28
3.71600	27
3.71967	27
3.72333	27
3.72700	27
3.73067	27
3.73433	27
3.73800	27
3.74167	27
3.74533	27
3.74900	27
3.75267	27
3.75633	27
3.76000	26
3.76367	26
3.76733	26
3.77100	26
3.77467	26
3.77833	26
3.78200	27
3.78567	27
3.78933	27
3.79300	27
3.79667	27
3.80033	26
3.80400	26
3.80767	26
3.81133	26
3.81500	25
3.81867	25
3.82233	25
3.82600	25
3.82967	25
3.83333	25
3.83700	25
3.84067	25
3.84433	25
3.84800	25
3.85167	25
3.85533	25
3.85900	24
3.86267	24
3.86633	24
3.87000	24
3.87367	25
3.87733	25
3.88100	25
3.88467	26
3.88833	26
3.89200	26
3.89567	27
3.89933	27
3.90300	28
3.90667	28
3.91033	28
3.91400	28
3.91767	29
3.92133	29
3.92500	29
3.92867	29
3.93233	29
3.93600	29
3.93967	29
3.94333	29
3.94700	29
3.95067	29
3.95433	29
3.95800	29
3.96167	29
3.96533	29
3.96900	29
3.97267	29
3.97633	29
3.98000	29
3.98367	28
3.98733	28
3.99100	28
3.99467	28
3.99833	28

[Chromatogram (Ch3)]
Interval(msec)	220
# of Points	1091
Start Time(min)	0.002
End Time(min)	3.998
R.Time (min)	Intensity
0.00167	0
0.00533	1
0.00900	2
0.01267	5
0.01633	7
0.02000	7
0.02367	7
0.02733	4
0.03100	1
0.03467	1
0.03833	2
0.04200	4
0.04567	5
0.04933	5
0.05300	5
0.05667	4
0.06033	2
0.06400	0
0.06767	0
0.07133	2
0.07500	3
0.07867	4
0.08233	5
0.08600	5
0.08967	7
0.09333	7
0.09700	4
0.10067	2
0.10433	2
0.10800	2
0.11167	3
0.11533	1
0.11900	1
0.12267	2
0.12633	2
0.13000	0
0.13367	1
0.13733	2
0.14100	4
0.14467	4
0.14833	3
0.15200	4
0.15567	5
0.15933	5
0.16300	5
0.16667	3
0.17033	2
0.17400	-0
0.17767	1
0.18133	2
0.18500	1
0.18867	-2
0.19233	-5
0.19600	-4
0.19967	-3
0.20333	-2
0.20700	-1
0.21067	-0
0.21433	-1
0.21800	1
0.22167	1
0.22533	-2
0.22900	-3
0.23267	-3
0.23633	-1
0.24000	-0
0.24367	-0
0.24733	-2
0.25100	-3
0.25467	-2
0.25833	-1
0.26200	1
0.26567	1
0.26933	0
0.27300	1
0.27667	3
0.28033	3
0.28400	2
0.28767	-0
0.29133	-1
0.29500	-2
0.29867	-4
0.30233	-4
0.30600	-0
0.30967	2
0.31333	3
0.31700	3
0.32067	4
0.32433	4
0.32800	4
0.33167	4
0.33533	3
0.33900	2
0.34267	-0
0.34633	-2
0.35000	-3
0.35367	-2
0.35733	-2
0.36100	-2
0.36467	-2
0.36833	-2
0.37200	-1
0.37567	0
0.37933	-1
0.38300	-1
0.38667	-1
0.39033	-0
0.39400	-1
0.39767	-1
0.40133	1
0.40500	4
0.40867	2
0.41233	-1
0.41600	-3
0.41967	-4
0.42333	-3
0.42700	-3
0.43067	-4
0.43433	-5
0.43800	-4
0.44167	-2
0.44533	-0
0.44900	-0
0.45267	-1
0.45633	-1
0.46000	1
0.46367	4
0.46733	5
0.47100	5
0.47467	4
0.47833	4
0.48200	3
0.48567	1
0.48933	0
0.49300	1
0.49667	1
0.50033	1
0.50400	-0
0.50767	-2
0.51133	-1
0.51500	-0
0.51867	0
0.52233	1
0.52600	2
0.52967	1
0.53333	1
0.53700	3
0.54067	5
0.54433	4
0.54800	3
0.55167	2
0.55533	4
0.55900	7
0.56267	6
0.56633	4
0.57000	2
0.57367	2
0.57733	1
0.58100	2
0.58467	3
0.58833	6
0.59200	6
0.59567	6
0.59933	6
0.60300	5
0.60667	4
0.61033	3
0.61400	3
0.61767	4
0.62133	7
0.62500	8
0.62867	8
0.63233	7
0.63600	6
0.63967	5
0.64333	5
0.64700	6
0.65067	4
0.65433	4
0.65800	5
0.66167	5
0.66533	3
0.66900	3
0.67267	5
0.67633	7
0.68000	7
0.68367	6
0.68733	5
0.69100	4
0.69467	3
0.69833	2
0.70200	1
0.70567	1
0.70933	2
0.71300	4
0.71667	7
0.72033	10
0.72400	12
0.72767	13
0.73133	15
0.73500	14
0.73867	11
0.74233	10
0.74600	11
0.74967	11
0.75333	11
0.75700	12
0.76067	11
0.76433	11
0.76800	11
0.77167	10
0.77533	9
0.77900	9
0.78267	10
0.78633	10
0.79000	10
0.79367	10
0.79733	10
0.80100	10
0.80467	10
0.80833	10
0.81200	10
0.81567	9
0.81933	9
0.82300	9
0.82667	7
0.83033	8
0.83400	8
0.83767	9
0.84133	11
0.84500	10
0.84867	10
0.85233	8
0.85600	5
0.85967	3
0.86333	3
0.86700	5
0.87067	6
0.87433	5
0.87800	6
0.88167	7
0.88533	10
0.88900	13
0.89267	14
0.89633	13
0.90000	13
0.90367	11
0.90733	8
0.91100	9
0.91467	10
0.91833	10
0.92200	9
0.92567	8
0.92933	7
0.93300	5
0.93667	2
0.94033	2
0.94400	6
0.94767	8
0.95133	7
0.95500	7
0.95867	6
0.96233	6
0.96600	5
0.96967	5
0.97333	6
0.97700	9
0.98067	12
0.98433	14
0.98800	15
0.99167	15
0.99533	14
0.99900	13
1.00267	12
1.00633	12
1.01000	14
1.01367	15
1.01733	13
1.02100	11
1.02467	11
1.02833	12
1.03200	13
1.03567	11
1.03933	10
1.04300	11
1.04667	14
1.05033	15
1.05400	11
1.05767	7
1.06133	5
1.06500	6
1.06867	7
1.07233	10
1.07600	11
1.07967	10
1.08333	9
1.08700	11
1.09067	13
1.09433	12
1.09800	11
1.10167	10
1.10533	9
1.10900	10
1.11267	11
1.11633	13
1.12000	12
1.12367	11
1.12733	9
1.13100	10
1.13467	13
1.13833	14
1.14200	13
1.14567	11
1.14933	9
1.15300	7
1.15667	8
1.16033	9
1.16400	10
1.16767	12
1.17133	12
1.17500	8
1.17867	7
1.18233	6
1.18600	6
1.18967	7
1.19333	8
1.19700	9
1.20067	8
1.20433	9
1.20800	9
1.21167	9
1.21533	10
1.21900	11
1.22267	12
1.22633	13
1.23000	13
1.23367	13
1.23733	14
1.24100	14
1.24467	13
1.24833	13
1.25200	13
1.25567	15
1.25933	15
1.26300	15
1.26667	14
1.27033	12
1.27400	11
1.27767	13
1.28133	13
1.28500	13
1.28867	14
1.29233	15
1.29600	13
1.29967	12
1.30333	12
1.30700	11
1.31067	10
1.31433	10
1.31800	11
1.32167	10
1.32533	11
1.32900	12
1.33267	11
1.33633	12
1.34000	13
1.34367	12
1.34733	10
1.35100	10
1.35467	11
1.35833	12
1.36200	12
1.36567	14
1.36933	14
1.37300	12
1.37667	11
1.38033	12
1.38400	12
1.38767	14
1.39133	15
1.39500	16
1.39867	15
1.40233	14
1.40600	12
1.40967	10
1.41333	9
1.41700	8
1.42067	8
1.42433	10
1.42800	10
1.43167	9
1.43533	11
1.43900	14
1.44267	14
1.44633	15
1.45000	15
1.45367	14
1.45733	14
1.46100	14
1.46467	15
1.46833	15
1.47200	16
1.47567	14
1.47933	12
1.48300	12
1.48667	12
1.49033	12
1.49400	11
1.49767	11
1.50133	11
1.50500	11
1.50867	10
1.51233	9
1.51600	9
1.51967	11
1.52333	12
1.52700	10
1.53067	11
1.53433	13
1.53800	14
1.54167	13
1.54533	14
1.54900	15
1.55267	15
1.55633	15
1.56000	14
1.56367	14
1.56733	15
1.57100	16
1.57467	17
1.57833	16
1.58200	14
1.58567	13
1.58933	13
1.59300	15
1.59667	16
1.60033	15
1.60400	13
1.60767	11
1.61133	10
1.61500	10
1.61867	11
1.62233	14
1.62600	16
1.62967	17
1.63333	17
1.63700	17
1.64067	16
1.64433	15
1.64800	16
1.65167	17
1.65533	17
1.65900	18
1.66267	18
1.66633	16
1.67000	19
1.67367	22
1.67733	24
1.68100	25
1.68467	26
1.68833	28
1.69200	28
1.69567	28
1.69933	31
1.70300	32
1.70667	30
1.71033	28
1.71400	27
1.71767	27
1.72133	28
1.72500	29
1.72867	31
1.73233	32
1.73600	33
1.73967	33
1.74333	32
1.74700	30
1.75067	28
1.75433	27
1.75800	29
1.76167	30
1.76533	30
1.76900	30
1.77267	32
1.77633	34
1.78000	35
1.78367	35
1.78733	34
1.79100	34
1.79467	35
1.79833	38
1.80200	38
1.80567	38
1.80933	36
1.81300	36
1.81667	38
1.82033	40
1.82400	44
1.82767	48
1.83133	48
1.83500	47
1.83867	48
1.84233	47
1.84600	46
1.84967	44
1.85333	44
1.85700	43
1.86067	45
1.86433	48
1.86800	49
1.87167	48
1.87533	46
1.87900	43
1.88267	43
1.88633	46
1.89000	48
1.89367	48
1.89733	49
1.90100	51
1.90467	51
1.90833	51
1.91200	53
1.91567	56
1.91933	58
1.92300	59
1.92667	58
1.93033	57
1.93400	56
1.93767	56
1.94133	58
1.94500	59
1.94867	59
1.95233	61
1.95600	61
1.95967	61
1.96333	62
1.96700	64
1.97067	65
1.97433	66
1.97800	67
1.98167	67
1.98533	67
1.98900	67
1.99267	67
1.99633	67
2.00000	66
2.00367	67
2.00733	70
2.01100	72
2.01467	74
2.01833	76
2.02200	76
2.02567	76
2.02933	78
2.03300	81
2.03667	85
2.04033	84
2.04400	83
2.04767	82
2.05133	82
2.05500	84
2.05867	87
2.06233	89
2.06600	91
2.06967	93
2.07333	93
2.07700	95
2.08067	95
2.08433	97
2.08800	99
2.09167	100
2.09533	101
2.09900	101
2.10267	101
2.10633	102
2.11000	103
2.11367	104
2.11733	103
2.12100	103
2.12467	103
2.12833	104
2.13200	108
2.13567	111
2.13933	112
2.14300	112
2.14667	114
2.15033	116
2.15400	117
2.15767	117
2.16133	118
2.16500	120
2.16867	121
2.17233	122
2.17600	124
2.17967	127
2.18333	129
2.18700	129
2.19067	130
2.19433	131
2.19800	131
2.20167	132
2.20533	136
2.20900	141
2.21267	145
2.21633	146
2.22000	147
2.22367	149
2.22733	150
2.23100	148
2.23467	148
2.23833	149
2.24200	152
2.24567	154
2.24933	155
2.25300	154
2.25667	156
2.26033	160
2.26400	164
2.26767	166
2.27133	167
2.27500	168
2.27867	169
2.28233	169
2.28600	170
2.28967	170
2.29333	173
2.29700	175
2.30067	176
2.30433	179
2.30800	183
2.31167	186
2.31533	188
2.31900	192
2.32267	192
2.32633	193
2.33000	195
2.33367	197
2.33733	198
2.34100	199
2.34467	200
2.34833	203
2.35200	207
2.35567	208
2.35933	208
2.36300	210
2.36667	212
2.37033	214
2.37400	217
2.37767	220
2.38133	222
2.38500	222
2.38867	222
2.39233	224
2.39600	228
2.39967	233
2.40333	236
2.40700	239
2.41067	243
2.41433	245
2.41800	248
2.42167	251
2.42533	255
2.42900	257
2.43267	259
2.43633	262
2.44000	267
2.44367	322
2.44733	466
2.45100	623
2.45467	752
2.45833	829
2.46200	842
2.46567	811
2.46933	773
2.47300	745
2.47667	727
2.48033	715
2.48400	695
2.48767	663
2.49133	622
2.49500	578
2.49867	540
2.50233	512
2.50600	494
2.50967	486
2.51333	488
2.51700	496
2.52067	510
2.52433	529
2.52800	550
2.53167	565
2.53533	570
2.53900	566
2.54267	553
2.54633	531
2.55000	502
2.55367	473
2.55733	447
2.56100	425
2.56467	408
2.56833	394
2.57200	385
2.57567	381
2.57933	379
2.58300	379
2.58667	379
2.59033	378
2.59400	377
2.59767	372
2.60133	367
2.60500	359
2.60867	350
2.61233	338
2.61600	324
2.61967	312
2.62333	303
2.62700	294
2.63067	290
2.63433	289
2.63800	288
2.64167	288
2.64533	290
2.64900	293
2.65267	297
2.65633	299
2.66000	299
2.66367	296
2.66733	292
2.67100	288
2.67467	283
2.67833	276
2.68200	269
2.68567	261
2.68933	254
2.69300	249
2.69667	242
2.70033	237
2.70400	231
2.70767	227
2.71133	226
2.71500	225
2.71867	223
2.72233	224
2.72600	225
2.72967	225
2.73333	227
2.73700	231
2.74067	235
2.74433	237
2.74800	237
2.75167	236
2.75533	233
2.75900	235
2.76267	237
2.76633	241
2.77000	244
2.77367	246
2.77733	248
2.78100	247
2.78467	246
2.78833	246
2.79200	248
2.79567	248
2.79933	249
2.80300	250
2.80667	252
2.81033	253
2.81400	260
2.81767	274
2.82133	310
2.82500	393
2.82867	565
2.83233	888
2.83600	1433
2.83967	2256
2.84333	3397
2.84700	4847
2.85067	6552
2.85433	8415
2.85800	10307
2.86167	12083
2.86533	13605
2.86900	14761
2.87267	15485
2.87633	15765
2.88000	15628
2.88367	15142
2.88733	14387
2.89100	13446
2.89467	12395
2.89833	11302
2.90200	10219
2.90567	9179
2.90933	8201
2.91300	7297
2.91667	6469
2.92033	5723
2.92400	5053
2.92767	4454
2.93133	3922
2.93500	3453
2.93867	3039
2.94233	2675
2.94600	2357
2.94967	2079
2.95333	1838
2.95700	1630
2.96067	1447
2.96433	1289
2.96800	1149
2.97167	1027
2.97533	921
2.97900	828
2.98267	749
2.98633	681
2.99000	623
2.99367	569
2.99733	522
3.00100	482
3.00467	447
3.00833	418
3.01200	393
3.01567	371
3.01933	351
3.02300	334
3.02667	317
3.03033	306
3.03400	295
3.03767	287
3.04133	281
3.04500	274
3.04867	264
3.05233	255
3.05600	250
3.05967	250
3.06333	248
3.06700	243
3.07067	238
3.07433	234
3.07800	232
3.08167	228
3.08533	225
3.08900	224
3.09267	226
3.09633	224
3.10000	222
3.10367	222
3.10733	221
3.11100	221
3.11467	220
3.11833	218
3.12200	218
3.12567	218
3.12933	217
3.13300	216
3.13667	215
3.14033	215
3.14400	215
3.14767	215
3.15133	215
3.15500	213
3.15867	211
3.16233	212
3.16600	212
3.16967	209
3.17333	189
3.17700	160
3.18067	146
3.18433	153
3.18800	177
3.19167	212
3.19533	252
3.19900	296
3.20267	337
3.20633	376
3.21000	413
3.21367	446
3.21733	475
3.22100	499
3.22467	521
3.22833	542
3.23200	560
3.23567	575
3.23933	587
3.24300	598
3.24667	611
3.25033	622
3.25400	631
3.25767	638
3.26133	646
3.26500	654
3.26867	660
3.27233	663
3.27600	665
3.27967	669
3.28333	674
3.28700	679
3.29067	680
3.29433	682
3.29800	686
3.30167	690
3.30533	696
3.30900	701
3.31267	705
3.31633	709
3.32000	715
3.32367	720
3.32733	721
3.33100	723
3.33467	728
3.33833	735
3.34200	742
3.34567	748
3.34933	754
3.35300	760
3.35667	766
3.36033	770
3.36400	771
3.36767	774
3.37133	780
3.37500	784
3.37867	789
3.38233	792
3.38600	792
3.38967	792
3.39333	793
3.39700	794
3.40067	796
3.40433	797
3.40800	797
3.41167	801
3.41533	804
3.41900	808
3.42267	809
3.42633	808
3.43000	805
3.43367	801
3.43733	799
3.44100	796
3.44467	793
3.44833	792
3.45200	790
3.45567	790
3.45933	793
3.46300	793
3.46667	790
3.47033	786
3.47400	782
3.47767	780
3.48133	777
3.48500	774
3.48867	769
3.49233	766
3.49600	764
3.49967	762
3.50333	759
3.50700	759
3.51067	758
3.51433	756
3.51800	752
3.52167	749
3.52533	749
3.52900	748
3.53267	747
3.53633	745
3.54000	741
3.54367	738
3.54733	735
3.55100	733
3.55467	731
3.55833	731
3.56200	731
3.56567	730
3.56933	729
3.57300	729
3.57667	729
3.58033	725
3.58400	722
3.58767	724
3.59133	724
3.59500	726
3.59867	728
3.60233	727
3.60600	726
3.60967	725
3.61333	724
3.61700	723
3.62067	723
3.62433	724
3.62800	724
3.63167	724
3.63533	724
3.63900	725
3.64267	724
3.64633	724
3.65000	724
3.65367	723
3.65733	720
3.66100	715
3.66467	714
3.66833	714
3.67200	714
3.67567	713
3.67933	711
3.68300	708
3.68667	708
3.69033	712
3.69400	714
3.69767	713
3.70133	714
3.70500	715
3.70867	714
3.71233	712
3.71600	711
3.71967	712
3.72333	712
3.72700	712
3.73067	715
3.73433	717
3.73800	717
3.74167	716
3.74533	715
3.74900	713
3.75267	712
3.75633	714
3.76000	715
3.76367	715
3.76733	713
3.77100	709
3.77467	707
3.77833	708
3.78200	708
3.78567	707
3.78933	705
3.79300	703
3.79667	701
3.80033	700
3.80400	697
3.80767	694
3.81133	691
3.81500	691
3.81867	690
3.82233	690
3.82600	689
3.82967	690
3.83333	693
3.83700	695
3.84067	694
3.84433	692
3.84800	689
3.85167	688
3.85533	688
3.85900	690
3.86267	690
3.86633	690
3.87000	690
3.87367	690
3.87733	689
3.88100	686
3.88467	686
3.88833	684
3.89200	682
3.89567	681
3.89933	681
3.90300	679
3.90667	675
3.91033	672
3.91400	669
3.91767	668
3.92133	666
3.92500	664
3.92867	661
3.93233	659
3.93600	657
3.93967	654
3.94333	652
3.94700	651
3.95067	651
3.95433	653
3.95800	654
3.96167	652
3.96533	652
3.96900	649
3.97267	644
3.97633	640
3.98000	636
3.98367	632
3.98733	628
3.99100	627
3.99467	629
3.99833	626

[Status Trace (Column Oven Temperature)]
Interval(msec)	1000
# of Points	240
Start Time(min)	0.007
End Time(min)	3.990
Intensity Units	
Intensity Multiplier	1
R.Time (min)	Intensity
0.00690	35.03
0.02357	35.01
0.04023	35.01
0.05690	35.01
0.07357	35.01
0.09023	35.02
0.10690	35.02
0.12357	35.03
0.14023	35.04
0.15690	35.03
0.17357	35.03
0.19023	35.03
0.20690	35.03
0.22357	35.05
0.24023	35.03
0.25690	35.03
0.27357	35.03
0.29023	35.04
0.30690	35.02
0.32357	35.02
0.34023	35.03
0.35690	35.03
0.37357	35.04
0.39023	35.03
0.40690	35.01
0.42357	35.00
0.44023	34.99
0.45690	34.97
0.47357	34.99
0.49023	35.01
0.50690	35.02
0.52357	35.02
0.54023	34.99
0.55690	34.98
0.57357	34.97
0.59023	34.96
0.60690	34.96
0.62357	34.97
0.64023	34.98
0.65690	34.99
0.67357	34.99
0.69023	35.00
0.70690	35.01
0.72357	35.02
0.74023	35.02
0.75690	35.02
0.77357	35.02
0.79023	35.03
0.80690	35.04
0.82357	35.04
0.84023	35.04
0.85690	35.04
0.87357	35.05
0.89023	35.04
0.90690	35.04
0.92357	35.03
0.94023	35.01
0.95690	35.01
0.97357	35.00
0.99023	35.00
1.00690	35.00
1.02357	34.99
1.04023	34.98
1.05690	34.96
1.07357	34.95
1.09023	34.97
1.10690	34.98
1.12357	34.98
1.14023	34.99
1.15690	34.99
1.17357	34.98
1.19023	34.97
1.20690	34.98
1.22357	34.99
1.24023	34.99
1.25690	35.00
1.27357	35.00
1.29023	35.00
1.30690	35.00
1.32357	34.99
1.34023	34.99
1.35690	34.99
1.37357	35.00
1.39023	34.99
1.40690	34.99
1.42357	34.98
1.44023	34.98
1.45690	34.96
1.47357	34.95
1.49023	34.95
1.50690	34.95
1.52357	34.95
1.54023	34.96
1.55690	34.96
1.57357	34.99
1.59023	35.01
1.60690	35.08
1.62357	35.21
1.64023	35.39
1.65690	35.62
1.67357	35.95
1.69023	36.31
1.70690	36.66
1.72357	37.01
1.74023	37.35
1.75690	37.65
1.77357	37.97
1.79023	38.32
1.80690	38.63
1.82357	38.98
1.84023	39.31
1.85690	39.65
1.87357	39.98
1.89023	40.30
1.90690	40.64
1.92357	40.96
1.94023	41.28
1.95690	41.61
1.97357	41.92
1.99023	42.25
2.00690	42.57
2.02357	42.90
2.04023	43.24
2.05690	43.56
2.07357	43.90
2.09023	44.23
2.10690	44.54
2.12357	44.85
2.14023	45.19
2.15690	45.52
2.17357	45.85
2.19023	46.18
2.20690	46.50
2.22357	46.85
2.24023	47.18
2.25690	47.49
2.27357	47.84
2.29023	48.14
2.30690	48.47
2.32357	48.80
2.34023	49.18
2.35690	49.47
2.37357	49.65
2.39023	49.67
2.40690	49.68
2.42357	49.69
2.44023	49.70
2.45690	49.70
2.47357	49.72
2.49023	49.72
2.50690	49.74
2.52357	49.76
2.54023	49.78
2.55690	49.78
2.57357	49.81
2.59023	49.81
2.60690	49.80
2.62357	49.83
2.64023	49.83
2.65690	49.83
2.67357	49.85
2.69023	49.86
2.70690	49.86
2.72357	49.85
2.74023	49.85
2.75690	49.87
2.77357	49.86
2.79023	49.86
2.80690	49.85
2.82357	49.86
2.84023	49.87
2.85690	49.88
2.87357	49.89
2.89023	49.90
2.90690	49.93
2.92357	49.94
2.94023	49.96
2.95690	49.97
2.97357	49.98
2.99023	49.99
3.00690	49.99
3.02357	50.00
3.04023	50.01
3.05690	50.02
3.07357	50.04
3.09023	50.05
3.10690	50.05
3.12357	50.06
3.14023	50.06
3.15690	50.07
3.17357	50.08
3.19023	50.09
3.20690	50.11
3.22357	50.10
3.24023	50.09
3.25690	50.09
3.27357	50.08
3.29023	50.07
3.30690	50.06
3.32357	50.06
3.34023	50.07
3.35690	50.08
3.37357	50.08
3.39023	50.09
3.40690	50.08
3.42357	50.08
3.44023	50.08
3.45690	50.08
3.47357	50.09
3.49023	50.09
3.50690	50.09
3.52357	50.08
3.54023	50.08
3.55690	50.09
3.57357	50.10
3.59023	50.10
3.60690	50.10
3.62357	50.10
3.64023	50.09
3.65690	50.08
3.67357	50.07
3.69023	50.07
3.70690	50.07
3.72357	50.07
3.74023	50.08
3.75690	50.08
3.77357	50.07
3.79023	50.07
3.80690	50.08
3.82357	50.08
3.84023	50.09
3.85690	50.10
3.87357	50.09
3.89023	50.08
3.90690	50.07
3.92357	50.07
3.94023	50.05
3.95690	50.04
3.97357	50.03
3.99023	50.02

[Status Trace (Injection Unit Temperature)]
Interval(msec)	1000
# of Points	240
Start Time(min)	0.007
End Time(min)	3.990
Intensity Units	
Intensity Multiplier	1
R.Time (min)	Intensity
0.00690	99.98
0.02357	99.98
0.04023	99.98
0.05690	99.98
0.07357	99.98
0.09023	99.98
0.10690	99.98
0.12357	99.98
0.14023	99.98
0.15690	99.98
0.17357	99.99
0.19023	99.98
0.20690	99.98
0.22357	99.98
0.24023	99.99
0.25690	99.99
0.27357	99.99
0.29023	99.99
0.30690	99.98
0.32357	99.99
0.34023	99.99
0.35690	99.99
0.37357	99.98
0.39023	99.99
0.40690	99.99
0.42357	99.98
0.44023	99.99
0.45690	99.98
0.47357	99.98
0.49023	99.99
0.50690	99.98
0.52357	99.98
0.54023	99.98
0.55690	99.98
0.57357	99.98
0.59023	99.98
0.60690	99.98
0.62357	99.98
0.64023	99.98
0.65690	99.98
0.67357	99.98
0.69023	99.98
0.70690	99.98
0.72357	99.98
0.74023	99.98
0.75690	99.98
0.77357	99.97
0.79023	99.98
0.80690	99.98
0.82357	99.98
0.84023	99.98
0.85690	99.98
0.87357	99.97
0.89023	99.98
0.90690	99.97
0.92357	99.98
0.94023	99.98
0.95690	99.98
0.97357	99.98
0.99023	99.97
1.00690	99.98
1.02357	99.98
1.04023	99.97
1.05690	99.98
1.07357	99.98
1.09023	99.98
1.10690	99.98
1.12357	99.98
1.14023	99.98
1.15690	99.98
1.17357	99.99
1.19023	99.98
1.20690	99.98
1.22357	99.98
1.24023	99.99
1.25690	99.98
1.27357	99.99
1.29023	99.98
1.30690	99.98
1.32357	99.99
1.34023	99.99
1.35690	99.98
1.37357	99.99
1.39023	99.99
1.40690	99.99
1.42357	99.99
1.44023	99.99
1.45690	99.99
1.47357	99.99
1.49023	99.99
1.50690	99.99
1.52357	99.99
1.54023	99.99
1.55690	99.99
1.57357	99.99
1.59023	99.99
1.60690	99.99
1.62357	100.00
1.64023	99.99
1.65690	99.99
1.67357	99.99
1.69023	99.99
1.70690	99.99
1.72357	99.99
1.74023	99.99
1.75690	99.98
1.77357	99.99
1.79023	99.99
1.80690	99.99
1.82357	99.98
1.84023	99.99
1.85690	99.98
1.87357	99.99
1.89023	99.99
1.90690	99.98
1.92357	99.98
1.94023	99.98
1.95690	99.98
1.97357	99.98
1.99023	99.98
2.00690	99.98
2.02357	99.98
2.04023	99.97
2.05690	99.98
2.07357	99.97
2.09023	99.97
2.10690	99.97
2.12357	99.98
2.14023	99.97
2.15690	99.97
2.17357	99.97
2.19023	99.97
2.20690	99.97
2.22357	99.97
2.24023	99.96
2.25690	99.97
2.27357	99.96
2.29023	99.97
2.30690	99.97
2.32357	99.96
2.34023	99.97
2.35690	99.97
2.37357	99.97
2.39023	99.97
2.40690	99.97
2.42357	99.97
2.44023	99.97
2.45690	99.97
2.47357	99.97
2.49023	99.97
2.50690	99.97
2.52357	99.97
2.54023	99.97
2.55690	99.97
2.57357	99.97
2.59023	99.98
2.60690	99.98
2.62357	99.98
2.64023	99.98
2.65690	99.98
2.67357	99.98
2.69023	99.98
2.70690	99.99
2.72357	99.99
2.74023	99.99
2.75690	99.99
2.77357	100.00
2.79023	99.99
2.80690	99.99
2.82357	100.00
2.84023	100.00
2.85690	100.00
2.87357	100.00
2.89023	100.00
2.90690	100.00
2.92357	100.00
2.94023	100.00
2.95690	100.00
2.97357	100.00
2.99023	100.00
3.00690	100.01
3.02357	100.01
3.04023	100.01
3.05690	100.01
3.07357	100.01
3.09023	100.02
3.10690	100.01
3.12357	100.02
3.14023	100.02
3.15690	100.02
3.17357	100.01
3.19023	100.03
3.20690	100.02
3.22357	100.02
3.24023	100.02
3.25690	100.03
3.27357	100.03
3.29023	100.02
3.30690	100.03
3.32357	100.03
3.34023	100.03
3.35690	100.03
3.37357	100.03
3.39023	100.03
3.40690	100.04
3.42357	100.04
3.44023	100.04
3.45690	100.03
3.47357	100.03
3.49023	100.04
3.50690	100.04
3.52357	100.04
3.54023	100.03
3.55690	100.04
3.57357	100.04
3.59023	100.04
3.60690	100.04
3.62357	100.04
3.64023	100.04
3.65690	100.04
3.67357	100.05
3.69023	100.05
3.70690	100.04
3.72357	100.04
3.74023	100.04
3.75690	100.04
3.77357	100.04
3.79023	100.05
3.80690	100.04
3.82357	100.04
3.84023	100.04
3.85690	100.04
3.87357	100.04
3.89023	100.04
3.90690	100.04
3.92357	100.04
3.94023	100.05
3.95690	100.04
3.97357	100.04
3.99023	100.04

[Status Trace (Carrier Gas Pressure)]
Interval(msec)	1000
# of Points	240
Start Time(min)	0.007
End Time(min)	3.990
Intensity Units	
Intensity Multiplier	1
R.Time (min)	Intensity
0.00690	58.00
0.02357	55.59
0.04023	56.96
0.05690	59.16
0.07357	59.58
0.09023	58.10
0.10690	57.98
0.12357	58.01
0.14023	58.01
0.15690	58.00
0.17357	58.00
0.19023	58.00
0.20690	58.00
0.22357	58.00
0.24023	58.00
0.25690	58.00
0.27357	58.00
0.29023	58.00
0.30690	58.00
0.32357	58.00
0.34023	58.00
0.35690	58.00
0.37357	58.00
0.39023	58.00
0.40690	58.00
0.42357	58.00
0.44023	58.00
0.45690	58.00
0.47357	58.00
0.49023	58.00
0.50690	58.00
0.52357	58.00
0.54023	58.00
0.55690	58.00
0.57357	58.00
0.59023	58.00
0.60690	58.00
0.62357	58.00
0.64023	58.00
0.65690	58.00
0.67357	58.00
0.69023	58.00
0.70690	58.00
0.72357	58.00
0.74023	58.00
0.75690	58.00
0.77357	58.00
0.79023	58.00
0.80690	58.00
0.82357	58.00
0.84023	58.00
0.85690	58.00
0.87357	58.00
0.89023	58.00
0.90690	58.00
0.92357	58.00
0.94023	58.00
0.95690	58.00
0.97357	58.00
0.99023	58.00
1.00690	58.00
1.02357	58.00
1.04023	58.00
1.05690	58.00
1.07357	58.00
1.09023	58.00
1.10690	58.00
1.12357	58.00
1.14023	58.00
1.15690	58.00
1.17357	58.00
1.19023	58.00
1.20690	58.00
1.22357	58.00
1.24023	58.00
1.25690	58.00
1.27357	58.00
1.29023	58.00
1.30690	58.00
1.32357	58.00
1.34023	58.00
1.35690	58.00
1.37357	58.00
1.39023	58.00
1.40690	58.00
1.42357	58.00
1.44023	58.00
1.45690	58.00
1.47357	58.00
1.49023	58.00
1.50690	58.00
1.52357	58.00
1.54023	58.00
1.55690	58.00
1.57357	58.00
1.59023	58.00
1.60690	58.00
1.62357	58.00
1.64023	58.00
1.65690	58.00
1.67357	58.01
1.69023	58.01
1.70690	58.00
1.72357	58.00
1.74023	58.00
1.75690	58.00
1.77357	58.00
1.79023	58.00
1.80690	58.00
1.82357	58.00
1.84023	58.00
1.85690	58.00
1.87357	58.00
1.89023	58.00
1.90690	58.00
1.92357	58.00
1.94023	58.00
1.95690	58.00
1.97357	58.00
1.99023	58.00
2.00690	58.00
2.02357	58.00
2.04023	58.00
2.05690	58.00
2.07357	58.00
2.09023	58.00
2.10690	58.00
2.12357	58.00
2.14023	58.00
2.15690	58.00
2.17357	58.00
2.19023	58.00
2.20690	58.00
2.22357	58.00
2.24023	58.00
2.25690	58.00
2.27357	58.00
2.29023	58.00
2.30690	58.00
2.32357	58.00
2.34023	58.00
2.35690	58.00
2.37357	57.99
2.39023	57.99
2.40690	58.00
2.42357	58.00
2.44023	58.00
2.45690	58.00
2.47357	58.00
2.49023	58.00
2.50690	58.00
2.52357	57.99
2.54023	58.00
2.55690	58.00
2.57357	58.00
2.59023	58.00
2.60690	58.00
2.62357	58.00
2.64023	58.00
2.65690	58.00
2.67357	58.00
2.69023	58.00
2.70690	58.00
2.72357	58.00
2.74023	58.00
2.75690	58.00
2.77357	58.00
2.79023	58.00
2.80690	58.00
2.82357	58.00
2.84023	58.00
2.85690	58.00
2.87357	58.00
2.89023	58.00
2.90690	58.00
2.92357	58.00
2.94023	58.00
2.95690	58.00
2.97357	58.00
2.99023	58.00
3.00690	58.00
3.02357	58.00
3.04023	58.00
3.05690	58.00
3.07357	58.00
3.09023	58.00
3.10690	58.00
3.12357	58.00
3.14023	58.00
3.15690	58.00
3.17357	58.00
3.19023	58.00
3.20690	58.00
3.22357	58.00
3.24023	58.00
3.25690	58.00
3.27357	58.00
3.29023	58.00
3.30690	58.00
3.32357	58.00
3.34023	58.00
3.35690	58.00
3.37357	58.00
3.39023	58.00
3.40690	58.00
3.42357	58.00
3.44023	58.00
3.45690	58.00
3.47357	58.00
3.49023	58.00
3.50690	58.00
3.52357	58.00
3.54023	58.00
3.55690	58.00
3.57357	58.00
3.59023	58.00
3.60690	58.00
3.62357	58.00
3.64023	58.00
3.65690	58.00
3.67357	58.00
3.69023	58.00
3.70690	58.00
3.72357	58.00
3.74023	58.00
3.75690	58.00
3.77357	58.00
3.79023	58.00
3.80690	58.00
3.82357	58.00
3.84023	58.00
3.85690	58.00
3.87357	58.00
3.89023	58.00
3.90690	58.00
3.92357	58.00
3.94023	58.00
3.95690	58.00
3.97357	58.00
3.99023	58.00

[Status Trace (Carrier Gas Flow)]
Interval(msec)	1000
# of Points	240
Start Time(min)	0.007
End Time(min)	3.990
Intensity Units	
Intensity Multiplier	1
R.Time (min)	Intensity
0.00690	34.52
0.02357	34.54
0.04023	34.54
0.05690	34.55
0.07357	34.50
0.09023	34.52
0.10690	34.51
0.12357	34.52
0.14023	34.52
0.15690	34.52
0.17357	34.52
0.19023	34.52
0.20690	34.52
0.22357	34.52
0.24023	34.51
0.25690	34.52
0.27357	34.52
0.29023	34.52
0.30690	34.52
0.32357	34.52
0.34023	34.52
0.35690	34.52
0.37357	34.52
0.39023	34.52
0.40690	34.52
0.42357	34.52
0.44023	34.52
0.45690	34.52
0.47357	34.51
0.49023	34.51
0.50690	34.52
0.52357	34.52
0.54023	34.52
0.55690	34.52
0.57357	34.52
0.59023	34.52
0.60690	34.52
0.62357	34.52
0.64023	34.52
0.65690	34.52
0.67357	34.52
0.69023	34.52
0.70690	34.52
0.72357	34.52
0.74023	34.52
0.75690	34.52
0.77357	34.52
0.79023	34.52
0.80690	34.52
0.82357	34.52
0.84023	34.52
0.85690	34.52
0.87357	34.52
0.89023	34.51
0.90690	34.52
0.92357	34.52
0.94023	34.51
0.95690	34.52
0.97357	34.52
0.99023	34.52
1.00690	34.53
1.02357	34.52
1.04023	34.52
1.05690	34.51
1.07357	34.51
1.09023	34.51
1.10690	34.52
1.12357	34.51
1.14023	34.52
1.15690	34.51
1.17357	34.52
1.19023	34.51
1.20690	34.52
1.22357	34.52
1.24023	34.52
1.25690	34.51
1.27357	34.52
1.29023	34.52
1.30690	34.52
1.32357	34.52
1.34023	34.52
1.35690	34.52
1.37357	34.52
1.39023	34.52
1.40690	34.52
1.42357	34.52
1.44023	34.52
1.45690	34.52
1.47357	34.52
1.49023	34.52
1.50690	34.52
1.52357	34.52
1.54023	34.52
1.55690	34.52
1.57357	34.52
1.59023	34.52
1.60690	34.52
1.62357	34.52
1.64023	34.52
1.65690	34.51
1.67357	34.52
1.69023	34.52
1.70690	34.52
1.72357	34.52
1.74023	34.52
1.75690	34.52
1.77357	34.52
1.79023	34.52
1.80690	34.52
1.82357	34.52
1.84023	34.52
1.85690	34.52
1.87357	34.52
1.89023	34.52
1.90690	34.52
1.92357	34.52
1.94023	34.52
1.95690	34.52
1.97357	34.52
1.99023	34.52
2.00690	34.52
2.02357	34.52
2.04023	34.51
2.05690	34.52
2.07357	34.52
2.09023	34.52
2.10690	34.51
2.12357	34.52
2.14023	34.52
2.15690	34.52
2.17357	34.52
2.19023	34.51
2.20690	34.52
2.22357	34.52
2.24023	34.52
2.25690	34.52
2.27357	34.52
2.29023	34.52
2.30690	34.51
2.32357	34.52
2.34023	34.52
2.35690	34.51
2.37357	34.52
2.39023	34.52
2.40690	34.52
2.42357	34.52
2.44023	34.52
2.45690	34.52
2.47357	34.52
2.49023	34.53
2.50690	34.33
2.52357	34.52
2.54023	34.52
2.55690	34.52
2.57357	34.51
2.59023	34.52
2.60690	34.52
2.62357	34.52
2.64023	34.52
2.65690	34.52
2.67357	34.52
2.69023	34.52
2.70690	34.52
2.72357	34.52
2.74023	34.52
2.75690	34.52
2.77357	34.52
2.79023	34.52
2.80690	34.52
2.82357	34.52
2.84023	34.52
2.85690	34.51
2.87357	34.52
2.89023	34.52
2.90690	34.52
2.92357	34.52
2.94023	34.52
2.95690	34.52
2.97357	34.52
2.99023	34.52
3.00690	34.51
3.02357	34.52
3.04023	34.52
3.05690	34.52
3.07357	34.52
3.09023	34.52
3.10690	34.51
3.12357	34.52
3.14023	34.52
3.15690	34.52
3.17357	34.52
3.19023	34.52
3.20690	34.52
3.22357	34.52
3.24023	34.52
3.25690	34.52
3.27357	34.52
3.29023	34.52
3.30690	34.52
3.32357	34.52
3.34023	34.52
3.35690	34.52
3.37357	34.52
3.39023	34.52
3.40690	34.52
3.42357	34.52
3.44023	34.52
3.45690	34.52
3.47357	34.52
3.49023	34.52
3.50690	34.52
3.52357	34.52
3.54023	34.52
3.55690	34.52
3.57357	34.52
3.59023	34.52
3.60690	34.52
3.62357	34.52
3.64023	34.52
3.65690	34.51
3.67357	34.52
3.69023	34.52
3.70690	34.52
3.72357	34.52
3.74023	34.52
3.75690	34.52
3.77357	34.52
3.79023	34.52
3.80690	34.52
3.82357	34.52
3.84023	34.52
3.85690	34.52
3.87357	34.52
3.89023	34.51
3.90690	34.52
3.92357	34.52
3.94023	34.52
3.95690	34.52
3.97357	34.52
3.99023	34.52

[Status Trace (Column Flow)]
Interval(msec)	1000
# of Points	240
Start Time(min)	0.007
End Time(min)	3.990
Intensity Units	
Intensity Multiplier	1
R.Time (min)	Intensity
0.00690	5.52
0.02357	5.24
0.04023	5.40
0.05690	5.65
0.07357	5.70
0.09023	5.53
0.10690	5.51
0.12357	5.52
0.14023	5.52
0.15690	5.52
0.17357	5.52
0.19023	5.52
0.20690	5.52
0.22357	5.52
0.24023	5.52
0.25690	5.52
0.27357	5.52
0.29023	5.52
0.30690	5.52
0.32357	5.52
0.34023	5.52
0.35690	5.52
0.37357	5.52
0.39023	5.52
0.40690	5.52
0.42357	5.52
0.44023	5.52
0.45690	5.52
0.47357	5.52
0.49023	5.52
0.50690	5.52
0.52357	5.52
0.54023	5.52
0.55690	5.52
0.57357	5.52
0.59023	5.52
0.60690	5.52
0.62357	5.52
0.64023	5.52
0.65690	5.52
0.67357	5.52
0.69023	5.52
0.70690	5.52
0.72357	5.52
0.74023	5.52
0.75690	5.52
0.77357	5.52
0.79023	5.52
0.80690	5.52
0.82357	5.52
0.84023	5.52
0.85690	5.52
0.87357	5.52
0.89023	5.52
0.90690	5.52
0.92357	5.52
0.94023	5.52
0.95690	5.52
0.97357	5.52
0.99023	5.52
1.00690	5.52
1.02357	5.52
1.04023	5.52
1.05690	5.52
1.07357	5.52
1.09023	5.52
1.10690	5.52
1.12357	5.52
1.14023	5.52
1.15690	5.52
1.17357	5.52
1.19023	5.52
1.20690	5.52
1.22357	5.52
1.24023	5.52
1.25690	5.52
1.27357	5.52
1.29023	5.52
1.30690	5.52
1.32357	5.52
1.34023	5.52
1.35690	5.52
1.37357	5.52
1.39023	5.52
1.40690	5.52
1.42357	5.52
1.44023	5.52
1.45690	5.52
1.47357	5.52
1.49023	5.52
1.50690	5.52
1.52357	5.52
1.54023	5.52
1.55690	5.52
1.57357	5.52
1.59023	5.52
1.60690	5.51
1.62357	5.51
1.64023	5.51
1.65690	5.50
1.67357	5.49
1.69023	5.48
1.70690	5.47
1.72357	5.46
1.74023	5.44
1.75690	5.43
1.77357	5.43
1.79023	5.41
1.80690	5.40
1.82357	5.40
1.84023	5.38
1.85690	5.37
1.87357	5.36
1.89023	5.35
1.90690	5.34
1.92357	5.34
1.94023	5.32
1.95690	5.31
1.97357	5.31
1.99023	5.30
2.00690	5.29
2.02357	5.28
2.04023	5.27
2.05690	5.26
2.07357	5.25
2.09023	5.24
2.10690	5.23
2.12357	5.22
2.14023	5.21
2.15690	5.20
2.17357	5.19
2.19023	5.18
2.20690	5.17
2.22357	5.16
2.24023	5.15
2.25690	5.14
2.27357	5.14
2.29023	5.13
2.30690	5.12
2.32357	5.11
2.34023	5.10
2.35690	5.09
2.37357	5.08
2.39023	5.08
2.40690	5.08
2.42357	5.08
2.44023	5.08
2.45690	5.08
2.47357	5.08
2.49023	5.08
2.50690	5.08
2.52357	5.08
2.54023	5.08
2.55690	5.08
2.57357	5.08
2.59023	5.08
2.60690	5.08
2.62357	5.08
2.64023	5.08
2.65690	5.08
2.67357	5.08
2.69023	5.08
2.70690	5.08
2.72357	5.08
2.74023	5.08
2.75690	5.08
2.77357	5.08
2.79023	5.08
2.80690	5.08
2.82357	5.08
2.84023	5.08
2.85690	5.08
2.87357	5.08
2.89023	5.08
2.90690	5.08
2.92357	5.08
2.94023	5.08
2.95690	5.08
2.97357	5.08
2.99023	5.07
3.00690	5.07
3.02357	5.07
3.04023	5.07
3.05690	5.07
3.07357	5.07
3.09023	5.07
3.10690	5.07
3.12357	5.07
3.14023	5.07
3.15690	5.07
3.17357	5.07
3.19023	5.07
3.20690	5.07
3.22357	5.07
3.24023	5.07
3.25690	5.07
3.27357	5.07
3.29023	5.07
3.30690	5.07
3.32357	5.07
3.34023	5.07
3.35690	5.07
3.37357	5.07
3.39023	5.07
3.40690	5.07
3.42357	5.07
3.44023	5.07
3.45690	5.07
3.47357	5.07
3.49023	5.07
3.50690	5.07
3.52357	5.07
3.54023	5.07
3.55690	5.07
3.57357	5.07
3.59023	5.07
3.60690	5.07
3.62357	5.07
3.64023	5.07
3.65690	5.07
3.67357	5.07
3.69023	5.07
3.70690	5.07
3.72357	5.07
3.74023	5.07
3.75690	5.07
3.77357	5.07
3.79023	5.07
3.80690	5.07
3.82357	5.07
3.84023	5.07
3.85690	5.07
3.87357	5.07
3.89023	5.07
3.90690	5.07
3.92357	5.07
3.94023	5.07
3.95690	5.07
3.97357	5.07
3.99023	5.07

[Status Trace (Linear Velocity)]
Interval(msec)	1000
# of Points	240
Start Time(min)	0.007
End Time(min)	3.990
Intensity Units	
Intensity Multiplier	1
R.Time (min)	Intensity
0.00690	39.01
0.02357	37.43
0.04023	38.33
0.05690	39.77
0.07357	40.05
0.09023	39.08
0.10690	39.00
0.12357	39.02
0.14023	39.02
0.15690	39.02
0.17357	39.02
0.19023	39.01
0.20690	39.01
0.22357	39.01
0.24023	39.01
0.25690	39.01
0.27357	39.01
0.29023	39.01
0.30690	39.01
0.32357	39.01
0.34023	39.01
0.35690	39.01
0.37357	39.01
0.39023	39.01
0.40690	39.01
0.42357	39.02
0.44023	39.02
0.45690	39.02
0.47357	39.02
0.49023	39.02
0.50690	39.01
0.52357	39.01
0.54023	39.02
0.55690	39.02
0.57357	39.02
0.59023	39.02
0.60690	39.02
0.62357	39.02
0.64023	39.02
0.65690	39.02
0.67357	39.02
0.69023	39.02
0.70690	39.01
0.72357	39.01
0.74023	39.01
0.75690	39.01
0.77357	39.01
0.79023	39.01
0.80690	39.01
0.82357	39.01
0.84023	39.01
0.85690	39.01
0.87357	39.01
0.89023	39.01
0.90690	39.01
0.92357	39.01
0.94023	39.01
0.95690	39.01
0.97357	39.02
0.99023	39.02
1.00690	39.02
1.02357	39.02
1.04023	39.02
1.05690	39.02
1.07357	39.02
1.09023	39.02
1.10690	39.02
1.12357	39.02
1.14023	39.02
1.15690	39.02
1.17357	39.02
1.19023	39.02
1.20690	39.02
1.22357	39.02
1.24023	39.02
1.25690	39.02
1.27357	39.02
1.29023	39.02
1.30690	39.02
1.32357	39.02
1.34023	39.02
1.35690	39.02
1.37357	39.02
1.39023	39.02
1.40690	39.02
1.42357	39.02
1.44023	39.02
1.45690	39.02
1.47357	39.02
1.49023	39.02
1.50690	39.02
1.52357	39.02
1.54023	39.02
1.55690	39.02
1.57357	39.02
1.59023	39.01
1.60690	39.01
1.62357	39.00
1.64023	38.98
1.65690	38.96
1.67357	38.93
1.69023	38.89
1.70690	38.86
1.72357	38.83
1.74023	38.79
1.75690	38.76
1.77357	38.74
1.79023	38.70
1.80690	38.67
1.82357	38.64
1.84023	38.61
1.85690	38.57
1.87357	38.55
1.89023	38.51
1.90690	38.48
1.92357	38.45
1.94023	38.42
1.95690	38.39
1.97357	38.36
1.99023	38.33
2.00690	38.30
2.02357	38.28
2.04023	38.24
2.05690	38.21
2.07357	38.18
2.09023	38.15
2.10690	38.12
2.12357	38.10
2.14023	38.06
2.15690	38.03
2.17357	38.01
2.19023	37.97
2.20690	37.94
2.22357	37.92
2.24023	37.88
2.25690	37.85
2.27357	37.83
2.29023	37.80
2.30690	37.77
2.32357	37.74
2.34023	37.71
2.35690	37.68
2.37357	37.66
2.39023	37.66
2.40690	37.66
2.42357	37.66
2.44023	37.66
2.45690	37.66
2.47357	37.66
2.49023	37.65
2.50690	37.65
2.52357	37.64
2.54023	37.65
2.55690	37.65
2.57357	37.65
2.59023	37.65
2.60690	37.65
2.62357	37.65
2.64023	37.65
2.65690	37.65
2.67357	37.65
2.69023	37.64
2.70690	37.64
2.72357	37.64
2.74023	37.64
2.75690	37.64
2.77357	37.64
2.79023	37.64
2.80690	37.64
2.82357	37.64
2.84023	37.64
2.85690	37.64
2.87357	37.64
2.89023	37.64
2.90690	37.64
2.92357	37.64
2.94023	37.64
2.95690	37.63
2.97357	37.63
2.99023	37.63
3.00690	37.63
3.02357	37.63
3.04023	37.63
3.05690	37.63
3.07357	37.63
3.09023	37.63
3.10690	37.63
3.12357	37.63
3.14023	37.63
3.15690	37.63
3.17357	37.63
3.19023	37.62
3.20690	37.62
3.22357	37.62
3.24023	37.62
3.25690	37.62
3.27357	37.62
3.29023	37.63
3.30690	37.63
3.32357	37.63
3.34023	37.63
3.35690	37.62
3.37357	37.63
3.39023	37.62
3.40690	37.62
3.42357	37.62
3.44023	37.62
3.45690	37.62
3.47357	37.62
3.49023	37.62
3.50690	37.62
3.52357	37.62
3.54023	37.62
3.55690	37.62
3.57357	37.62
3.59023	37.62
3.60690	37.62
3.62357	37.62
3.64023	37.62
3.65690	37.62
3.67357	37.63
3.69023	37.63
3.70690	37.63
3.72357	37.62
3.74023	37.62
3.75690	37.62
3.77357	37.63
3.79023	37.63
3.80690	37.62
3.82357	37.62
3.84023	37.62
3.85690	37.62
3.87357	37.62
3.89023	37.62
3.90690	37.63
3.92357	37.63
3.94023	37.63
3.95690	37.63
3.97357	37.63
3.99023	37.63

