[Header]
Application Name	LabSolutions
Version	5.110
Data File Name	C:\Users\User\Desktop\GC Analyses\Jack\Nachusa Grasslands Sampling\T2 Timepoint July 12th\T2_07122022_057.gcd
Output Date	3/14/2023
Output Time	3:42:33 PM

[File Information]
Type	Data File
Generated	3/10/2023 6:45:40 PM
Generated by	System Administrator
Modified	3/10/2023 6:52:27 PM
Modified by	System Administrator

[Sample Information]
Operator Name	System Administrator
Acquired	3/10/2023 6:48:25 PM
Sample Type	0:Unknown
Level	0
Sample Name	057
Sample ID	057
ISTD Amount1	1
ISTD Amount2	1
ISTD Amount3	1
ISTD Amount4	1
ISTD Amount5	1
ISTD Amount6	1
ISTD Amount7	1
ISTD Amount8	1
ISTD Amount9	1
ISTD Amount10	1
ISTD Amount11	1
ISTD Amount12	1
ISTD Amount13	1
ISTD Amount14	1
ISTD Amount15	1
ISTD Amount16	1
ISTD Amount17	1
ISTD Amount18	1
ISTD Amount19	1
ISTD Amount20	1
ISTD Amount21	1
ISTD Amount22	1
ISTD Amount23	1
ISTD Amount24	1
ISTD Amount25	1
ISTD Amount26	1
ISTD Amount27	1
ISTD Amount28	1
ISTD Amount29	1
ISTD Amount30	1
ISTD Amount31	1
ISTD Amount32	1
Sample Amount	1
Dilution Factor	1
Vial#	56
Injection Volume	1
Injection Count	1
Bar Code	

[Original Files]
Data File	C:\Users\User\Desktop\GC Analyses\Jack\Nachusa Grasslands Sampling\T1 Timepoint July 12th\T2_07122022_057.gcd
Method File	C:\LabSolutions\Data\GHG_4min_2022\ghg3_togas_w_acet_4 min_new_int.gcm
Batch File	C:\LabSolutions\Data\AutoSamplerTesting\T2_07122022.gcb
Report Format File	c:\LabSolutions\System\DEFAULT.lsr

[File Description]


[Configuration]
Instrument Name	C0B7VH3-Instrument1
Instrument #	1
Line #	1
# of Detectors	3
Detector ID	DET#1	DET#2	DET#3
Detector Name	FID	PTCD	ECD
# of Channels	1	1	1

[Peak Table(Ch1)]
# of Peaks	3
Peak#	R.Time	I.Time	F.Time	Area	Height	A/H	Conc.	Mark	ID#	Name	k'	Plate #	Plate Ht.	Tailing	Resolution	Sep.Factor	Area Ratio	Height Ratio	Conc. %	Norm Conc.
1	1.476	1.435	1.538	25988	12329	2.108	183.478	   	1	CO	0.000	9247	16.222	1.279	0.000	0.000	0	0	19.411	19.411
2	1.567	1.538	1.626	4516	2201	2.052	87.329	 V 	2	CH4	0.062	10127	14.812	0.000	1.482	0.000	0	0	9.239	9.239
3	1.996	1.949	2.521	2687137	1280959	2.098	674.399	   	3	CO2	0.353	17460	8.591	1.236	6.991	5.680	0	0	71.349	71.349

[Peak Table(Ch2)]
# of Peaks	0

[Peak Table(Ch3)]
# of Peaks	6
Peak#	R.Time	I.Time	F.Time	Area	Height	A/H	Conc.	Mark	ID#	Name	k'	Plate #	Plate Ht.	Tailing	Resolution	Sep.Factor	Area Ratio	Height Ratio	Conc. %	Norm Conc.
1	2.462	2.308	2.513	2343	682	3.437	0.000	   			0.000	8972	16.718	0.000	0.000	0.000	0	0	0.000	0.000
2	2.535	2.513	2.638	1713	391	4.376	0.000	 V 			0.030	4469	33.564	0.000	0.574	0.000	0	0	0.000	0.000
3	2.649	2.638	2.719	332	103	3.242	0.000	 V 			0.076	3625	41.384	0.000	0.694	2.550	0	0	0.000	0.000
4	2.876	2.719	3.137	20542	5000	4.108	0.525	SV 	1	N2O	0.168	12908	11.621	1.708	1.640	2.216	0	0	100.000	100.000
5	3.122	3.111	3.133	30	39	0.776	0.000	T  	2	SF6	0.268	288910	0.519	1.003	3.946	1.593	0	0	0.000	0.000
6	3.320	3.144	3.995	16412	541	30.349	0.000	   	2	SF6	0.348	233	644.144	2.405	0.443	1.300	0	0	0.000	0.000

[Compound Results(Ch1)]
# of IDs	6
ID#	Name	R.Time	Area	Height	Conc.	Curve	3rd	2nd	1st	Constant	Area Ratio	Height Ratio	Conc. %	Norm Conc.
1	CO	1.476	25988	12329	183.478	Linear	0.000000e+00	0.000000e+00	1.416423e+002	0.000000e+00	0	0	19.411	19.411
2	CH4	1.567	4516	2201	87.329	Linear	0.000000e+00	0.000000e+00	5.171738e+001	0.000000e+00	0	0	9.239	9.239
3	CO2	1.996	2687137	1280959	674.399	Linear	0.000000e+00	0.000000e+00	3.984494e+003	0.000000e+00	0	0	71.349	71.349
4	Ethylene	0.000	0	0	0.000	Linear	0.000000e+00	0.000000e+00	0.000000e+00	0.000000e+00	0	0	0.000	0.000
5	Acetylene	0.000	0	0	0.000	Linear	0.000000e+00	0.000000e+00	0.000000e+00	0.000000e+00	0	0	0.000	0.000
6	Ethane	0.000	0	0	0.000	Linear	0.000000e+00	0.000000e+00	0.000000e+00	0.000000e+00	0	0	0.000	0.000

[Compound Results(Ch2)]
# of IDs	5
ID#	Name	R.Time	Area	Height	Conc.	Curve	3rd	2nd	1st	Constant	Area Ratio	Height Ratio	Conc. %	Norm Conc.
1	Hydrogen	0.000	0	0	0.000	Linear	0.000000e+00	0.000000e+00	0.000000e+00	0.000000e+00	0	0	0.000	0.000
2	Oxygen	0.000	0	0	0.000	Linear	0.000000e+00	0.000000e+00	0.000000e+00	0.000000e+00	0	0	0.000	0.000
3	Nitrogen	0.000	0	0	0.000	Linear	0.000000e+00	0.000000e+00	0.000000e+00	0.000000e+00	0	0	0.000	0.000
4	Methane	0.000	0	0	0.000	Linear	0.000000e+00	0.000000e+00	0.000000e+00	0.000000e+00	0	0	0.000	0.000
5	Carbon Monoxide	0.000	0	0	0.000	Linear	0.000000e+00	0.000000e+00	0.000000e+00	0.000000e+00	0	0	0.000	0.000

[Compound Results(Ch3)]
# of IDs	2
ID#	Name	R.Time	Area	Height	Conc.	Curve	3rd	2nd	1st	Constant	Area Ratio	Height Ratio	Conc. %	Norm Conc.
1	N2O	2.876	20542	5000	0.525	Linear	0.000000e+00	0.000000e+00	3.915173e+004	0.000000e+00	0	0	100.000	100.000
2	SF6	3.320	16443	580	0.000	Linear	0.000000e+00	0.000000e+00	0.000000e+00	0.000000e+00	0	0	0.000	0.000

[Group Results(Ch1)]
# of Groups	0

[Group Results(Ch2)]
# of Groups	0

[Group Results(Ch3)]
# of Groups	0

[Chromatogram (Ch1)]
Interval(msec)	220
# of Points	1091
Start Time(min)	0.002
End Time(min)	3.998
R.Time (min)	Intensity
0.00167	7
0.00533	4
0.00900	-2
0.01267	-6
0.01633	-5
0.02000	-4
0.02367	-7
0.02733	-9
0.03100	-11
0.03467	-13
0.03833	-16
0.04200	-20
0.04567	-21
0.04933	-19
0.05300	-13
0.05667	-5
0.06033	5
0.06400	15
0.06767	23
0.07133	27
0.07500	24
0.07867	19
0.08233	16
0.08600	15
0.08967	17
0.09333	18
0.09700	21
0.10067	24
0.10433	27
0.10800	33
0.11167	40
0.11533	44
0.11900	49
0.12267	58
0.12633	64
0.13000	66
0.13367	68
0.13733	67
0.14100	59
0.14467	44
0.14833	31
0.15200	20
0.15567	15
0.15933	11
0.16300	14
0.16667	23
0.17033	38
0.17400	52
0.17767	60
0.18133	63
0.18500	66
0.18867	69
0.19233	71
0.19600	73
0.19967	74
0.20333	74
0.20700	69
0.21067	66
0.21433	64
0.21800	66
0.22167	69
0.22533	71
0.22900	72
0.23267	71
0.23633	65
0.24000	58
0.24367	51
0.24733	48
0.25100	47
0.25467	50
0.25833	55
0.26200	56
0.26567	51
0.26933	44
0.27300	36
0.27667	32
0.28033	29
0.28400	27
0.28767	23
0.29133	22
0.29500	23
0.29867	25
0.30233	26
0.30600	27
0.30967	27
0.31333	27
0.31700	23
0.32067	20
0.32433	16
0.32800	10
0.33167	7
0.33533	11
0.33900	18
0.34267	26
0.34633	31
0.35000	31
0.35367	27
0.35733	21
0.36100	18
0.36467	18
0.36833	18
0.37200	17
0.37567	17
0.37933	19
0.38300	16
0.38667	15
0.39033	16
0.39400	19
0.39767	21
0.40133	20
0.40500	20
0.40867	21
0.41233	23
0.41600	24
0.41967	26
0.42333	26
0.42700	25
0.43067	25
0.43433	27
0.43800	31
0.44167	36
0.44533	41
0.44900	43
0.45267	39
0.45633	34
0.46000	30
0.46367	29
0.46733	31
0.47100	33
0.47467	32
0.47833	29
0.48200	24
0.48567	19
0.48933	17
0.49300	16
0.49667	20
0.50033	25
0.50400	27
0.50767	26
0.51133	23
0.51500	25
0.51867	31
0.52233	37
0.52600	40
0.52967	40
0.53333	39
0.53700	34
0.54067	28
0.54433	24
0.54800	21
0.55167	18
0.55533	11
0.55900	2
0.56267	-6
0.56633	-10
0.57000	-10
0.57367	-6
0.57733	1
0.58100	9
0.58467	17
0.58833	22
0.59200	23
0.59567	23
0.59933	20
0.60300	15
0.60667	10
0.61033	6
0.61400	5
0.61767	6
0.62133	8
0.62500	9
0.62867	11
0.63233	14
0.63600	16
0.63967	14
0.64333	10
0.64700	7
0.65067	7
0.65433	13
0.65800	21
0.66167	23
0.66533	20
0.66900	10
0.67267	-1
0.67633	-7
0.68000	-7
0.68367	0
0.68733	10
0.69100	19
0.69467	20
0.69833	12
0.70200	6
0.70567	6
0.70933	9
0.71300	13
0.71667	13
0.72033	12
0.72400	12
0.72767	12
0.73133	13
0.73500	8
0.73867	2
0.74233	-3
0.74600	-7
0.74967	-7
0.75333	-5
0.75700	-1
0.76067	3
0.76433	6
0.76800	11
0.77167	14
0.77533	15
0.77900	12
0.78267	6
0.78633	0
0.79000	-5
0.79367	-6
0.79733	-3
0.80100	4
0.80467	16
0.80833	30
0.81200	33
0.81567	27
0.81933	22
0.82300	18
0.82667	12
0.83033	9
0.83400	13
0.83767	18
0.84133	19
0.84500	17
0.84867	16
0.85233	18
0.85600	19
0.85967	14
0.86333	5
0.86700	-5
0.87067	-15
0.87433	-19
0.87800	-19
0.88167	-17
0.88533	-12
0.88900	-7
0.89267	-5
0.89633	-8
0.90000	-12
0.90367	-15
0.90733	-17
0.91100	-19
0.91467	-17
0.91833	-11
0.92200	-0
0.92567	8
0.92933	7
0.93300	1
0.93667	-3
0.94033	-2
0.94400	2
0.94767	4
0.95133	7
0.95500	8
0.95867	12
0.96233	16
0.96600	15
0.96967	10
0.97333	2
0.97700	-5
0.98067	-8
0.98433	-12
0.98800	-20
0.99167	-24
0.99533	-22
0.99900	-19
1.00267	-13
1.00633	-6
1.01000	3
1.01367	12
1.01733	18
1.02100	17
1.02467	13
1.02833	9
1.03200	4
1.03567	-3
1.03933	-7
1.04300	-5
1.04667	-2
1.05033	-3
1.05400	-2
1.05767	-2
1.06133	-4
1.06500	-6
1.06867	-4
1.07233	-0
1.07600	2
1.07967	6
1.08333	10
1.08700	14
1.09067	17
1.09433	18
1.09800	19
1.10167	20
1.10533	22
1.10900	24
1.11267	24
1.11633	26
1.12000	34
1.12367	45
1.12733	50
1.13100	45
1.13467	35
1.13833	24
1.14200	16
1.14567	9
1.14933	4
1.15300	2
1.15667	-0
1.16033	2
1.16400	7
1.16767	12
1.17133	16
1.17500	21
1.17867	28
1.18233	32
1.18600	28
1.18967	21
1.19333	11
1.19700	3
1.20067	-3
1.20433	-5
1.20800	-4
1.21167	-2
1.21533	-1
1.21900	-0
1.22267	2
1.22633	6
1.23000	9
1.23367	13
1.23733	14
1.24100	14
1.24467	15
1.24833	20
1.25200	28
1.25567	32
1.25933	31
1.26300	29
1.26667	26
1.27033	21
1.27400	16
1.27767	11
1.28133	5
1.28500	5
1.28867	7
1.29233	4
1.29600	1
1.29967	-1
1.30333	-1
1.30700	4
1.31067	17
1.31433	30
1.31800	33
1.32167	31
1.32533	26
1.32900	23
1.33267	22
1.33633	19
1.34000	16
1.34367	13
1.34733	14
1.35100	17
1.35467	16
1.35833	11
1.36200	4
1.36567	-2
1.36933	-7
1.37300	-8
1.37667	-6
1.38033	-4
1.38400	-4
1.38767	-9
1.39133	-13
1.39500	-10
1.39867	-4
1.40233	6
1.40600	15
1.40967	21
1.41333	23
1.41700	24
1.42067	17
1.42433	5
1.42800	-8
1.43167	-20
1.43533	-21
1.43900	10
1.44267	124
1.44633	388
1.45000	1030
1.45367	2409
1.45733	4513
1.46100	6900
1.46467	9093
1.46833	10819
1.47200	11937
1.47567	12320
1.47933	11876
1.48300	10664
1.48667	8946
1.49033	7081
1.49400	5364
1.49767	3952
1.50133	2871
1.50500	2077
1.50867	1504
1.51233	1094
1.51600	808
1.51967	611
1.52333	477
1.52700	381
1.53067	314
1.53433	270
1.53800	261
1.54167	319
1.54533	504
1.54900	824
1.55267	1221
1.55633	1605
1.56000	1919
1.56367	2133
1.56733	2219
1.57100	2151
1.57467	1928
1.57833	1605
1.58200	1253
1.58567	933
1.58933	673
1.59300	479
1.59667	340
1.60033	244
1.60400	179
1.60767	131
1.61133	90
1.61500	62
1.61867	48
1.62233	40
1.62600	35
1.62967	32
1.63333	28
1.63700	25
1.64067	21
1.64433	17
1.64800	17
1.65167	22
1.65533	26
1.65900	26
1.66267	26
1.66633	29
1.67000	31
1.67367	29
1.67733	26
1.68100	25
1.68467	27
1.68833	26
1.69200	21
1.69567	17
1.69933	16
1.70300	12
1.70667	7
1.71033	4
1.71400	4
1.71767	5
1.72133	6
1.72500	7
1.72867	8
1.73233	11
1.73600	13
1.73967	12
1.74333	10
1.74700	8
1.75067	8
1.75433	9
1.75800	8
1.76167	6
1.76533	6
1.76900	5
1.77267	4
1.77633	3
1.78000	1
1.78367	-1
1.78733	-1
1.79100	4
1.79467	10
1.79833	18
1.80200	23
1.80567	23
1.80933	20
1.81300	18
1.81667	17
1.82033	10
1.82400	0
1.82767	-7
1.83133	-7
1.83500	-3
1.83867	-4
1.84233	-7
1.84600	-14
1.84967	-17
1.85333	-16
1.85700	-13
1.86067	-6
1.86433	2
1.86800	5
1.87167	7
1.87533	9
1.87900	11
1.88267	13
1.88633	16
1.89000	18
1.89367	19
1.89733	20
1.90100	23
1.90467	24
1.90833	20
1.91200	16
1.91567	22
1.91933	28
1.92300	28
1.92667	24
1.93033	23
1.93400	26
1.93767	29
1.94133	25
1.94500	12
1.94867	-0
1.95233	34
1.95600	375
1.95967	2349
1.96333	10881
1.96700	38823
1.97067	109002
1.97433	244509
1.97800	448612
1.98167	694091
1.98533	935573
1.98900	1131034
1.99267	1251067
1.99633	1281011
2.00000	1221814
2.00367	1089784
2.00733	912948
2.01100	723098
2.01467	546409
2.01833	398158
2.02200	282937
2.02567	198214
2.02933	138278
2.03300	96951
2.03667	68888
2.04033	49956
2.04400	37176
2.04767	28492
2.05133	22520
2.05500	18336
2.05867	15334
2.06233	13121
2.06600	11451
2.06967	10162
2.07333	9138
2.07700	8302
2.08067	7608
2.08433	7022
2.08800	6523
2.09167	6096
2.09533	5728
2.09900	5406
2.10267	5116
2.10633	4852
2.11000	4609
2.11367	4385
2.11733	4177
2.12100	3988
2.12467	3816
2.12833	3657
2.13200	3511
2.13567	3376
2.13933	3249
2.14300	3133
2.14667	3025
2.15033	2922
2.15400	2828
2.15767	2744
2.16133	2664
2.16500	2588
2.16867	2513
2.17233	2438
2.17600	2363
2.17967	2289
2.18333	2222
2.18700	2163
2.19067	2108
2.19433	2057
2.19800	2008
2.20167	1958
2.20533	1903
2.20900	1851
2.21267	1804
2.21633	1764
2.22000	1725
2.22367	1685
2.22733	1644
2.23100	1598
2.23467	1562
2.23833	1537
2.24200	1513
2.24567	1488
2.24933	1459
2.25300	1433
2.25667	1409
2.26033	1385
2.26400	1361
2.26767	1336
2.27133	1310
2.27500	1289
2.27867	1270
2.28233	1254
2.28600	1236
2.28967	1214
2.29333	1192
2.29700	1171
2.30067	1149
2.30433	1128
2.30800	1110
2.31167	1096
2.31533	1085
2.31900	1073
2.32267	1060
2.32633	1050
2.33000	1039
2.33367	1028
2.33733	1017
2.34100	1004
2.34467	986
2.34833	969
2.35200	954
2.35567	940
2.35933	927
2.36300	915
2.36667	903
2.37033	894
2.37400	886
2.37767	879
2.38133	872
2.38500	862
2.38867	853
2.39233	845
2.39600	837
2.39967	827
2.40333	823
2.40700	821
2.41067	813
2.41433	801
2.41800	789
2.42167	779
2.42533	771
2.42900	765
2.43267	758
2.43633	751
2.44000	742
2.44367	734
2.44733	728
2.45100	723
2.45467	720
2.45833	714
2.46200	703
2.46567	689
2.46933	676
2.47300	671
2.47667	670
2.48033	673
2.48400	678
2.48767	681
2.49133	679
2.49500	672
2.49867	661
2.50233	654
2.50600	648
2.50967	643
2.51333	637
2.51700	630
2.52067	622
2.52433	617
2.52800	614
2.53167	618
2.53533	624
2.53900	627
2.54267	628
2.54633	625
2.55000	619
2.55367	608
2.55733	596
2.56100	589
2.56467	583
2.56833	573
2.57200	564
2.57567	557
2.57933	552
2.58300	544
2.58667	535
2.59033	530
2.59400	534
2.59767	543
2.60133	549
2.60500	552
2.60867	548
2.61233	545
2.61600	539
2.61967	534
2.62333	530
2.62700	528
2.63067	524
2.63433	520
2.63800	517
2.64167	509
2.64533	495
2.64900	486
2.65267	486
2.65633	494
2.66000	496
2.66367	497
2.66733	502
2.67100	507
2.67467	505
2.67833	498
2.68200	490
2.68567	484
2.68933	479
2.69300	478
2.69667	481
2.70033	488
2.70400	492
2.70767	489
2.71133	484
2.71500	480
2.71867	476
2.72233	473
2.72600	475
2.72967	480
2.73333	482
2.73700	479
2.74067	472
2.74433	470
2.74800	473
2.75167	476
2.75533	479
2.75900	478
2.76267	474
2.76633	470
2.77000	471
2.77367	474
2.77733	473
2.78100	469
2.78467	466
2.78833	463
2.79200	462
2.79567	464
2.79933	468
2.80300	472
2.80667	475
2.81033	480
2.81400	483
2.81767	481
2.82133	473
2.82500	465
2.82867	459
2.83233	460
2.83600	459
2.83967	455
2.84333	449
2.84700	441
2.85067	431
2.85433	425
2.85800	416
2.86167	409
2.86533	406
2.86900	406
2.87267	407
2.87633	411
2.88000	415
2.88367	416
2.88733	418
2.89100	423
2.89467	435
2.89833	448
2.90200	456
2.90567	457
2.90933	455
2.91300	453
2.91667	448
2.92033	443
2.92400	439
2.92767	436
2.93133	434
2.93500	430
2.93867	423
2.94233	417
2.94600	417
2.94967	420
2.95333	423
2.95700	425
2.96067	427
2.96433	432
2.96800	436
2.97167	437
2.97533	433
2.97900	429
2.98267	424
2.98633	421
2.99000	416
2.99367	410
2.99733	409
3.00100	416
3.00467	425
3.00833	429
3.01200	429
3.01567	427
3.01933	422
3.02300	414
3.02667	405
3.03033	395
3.03400	387
3.03767	383
3.04133	383
3.04500	392
3.04867	404
3.05233	409
3.05600	408
3.05967	404
3.06333	396
3.06700	388
3.07067	381
3.07433	376
3.07800	374
3.08167	376
3.08533	383
3.08900	392
3.09267	402
3.09633	408
3.10000	406
3.10367	397
3.10733	384
3.11100	376
3.11467	373
3.11833	375
3.12200	377
3.12567	383
3.12933	398
3.13300	415
3.13667	429
3.14033	432
3.14400	422
3.14767	400
3.15133	369
3.15500	343
3.15867	328
3.16233	324
3.16600	328
3.16967	336
3.17333	341
3.17700	343
3.18067	343
3.18433	338
3.18800	332
3.19167	329
3.19533	328
3.19900	330
3.20267	333
3.20633	334
3.21000	337
3.21367	340
3.21733	346
3.22100	353
3.22467	358
3.22833	361
3.23200	363
3.23567	362
3.23933	358
3.24300	354
3.24667	347
3.25033	342
3.25400	342
3.25767	342
3.26133	343
3.26500	346
3.26867	345
3.27233	343
3.27600	344
3.27967	343
3.28333	338
3.28700	335
3.29067	339
3.29433	347
3.29800	354
3.30167	356
3.30533	356
3.30900	356
3.31267	349
3.31633	335
3.32000	322
3.32367	316
3.32733	317
3.33100	321
3.33467	322
3.33833	324
3.34200	326
3.34567	325
3.34933	324
3.35300	325
3.35667	325
3.36033	325
3.36400	327
3.36767	327
3.37133	326
3.37500	322
3.37867	320
3.38233	320
3.38600	318
3.38967	313
3.39333	312
3.39700	314
3.40067	310
3.40433	304
3.40800	300
3.41167	299
3.41533	297
3.41900	297
3.42267	301
3.42633	305
3.43000	309
3.43367	310
3.43733	306
3.44100	302
3.44467	298
3.44833	293
3.45200	288
3.45567	283
3.45933	282
3.46300	285
3.46667	289
3.47033	289
3.47400	286
3.47767	284
3.48133	287
3.48500	294
3.48867	296
3.49233	291
3.49600	283
3.49967	276
3.50333	271
3.50700	269
3.51067	267
3.51433	265
3.51800	262
3.52167	260
3.52533	260
3.52900	261
3.53267	262
3.53633	263
3.54000	265
3.54367	268
3.54733	273
3.55100	277
3.55467	275
3.55833	271
3.56200	268
3.56567	272
3.56933	273
3.57300	272
3.57667	273
3.58033	275
3.58400	275
3.58767	270
3.59133	262
3.59500	257
3.59867	257
3.60233	259
3.60600	261
3.60967	262
3.61333	265
3.61700	266
3.62067	267
3.62433	268
3.62800	268
3.63167	266
3.63533	263
3.63900	260
3.64267	260
3.64633	262
3.65000	264
3.65367	264
3.65733	261
3.66100	256
3.66467	251
3.66833	249
3.67200	249
3.67567	249
3.67933	248
3.68300	247
3.68667	249
3.69033	252
3.69400	257
3.69767	258
3.70133	253
3.70500	247
3.70867	240
3.71233	233
3.71600	227
3.71967	222
3.72333	223
3.72700	228
3.73067	230
3.73433	228
3.73800	225
3.74167	225
3.74533	223
3.74900	222
3.75267	225
3.75633	225
3.76000	225
3.76367	228
3.76733	228
3.77100	225
3.77467	222
3.77833	222
3.78200	221
3.78567	217
3.78933	212
3.79300	210
3.79667	213
3.80033	217
3.80400	220
3.80767	221
3.81133	216
3.81500	212
3.81867	215
3.82233	217
3.82600	219
3.82967	219
3.83333	217
3.83700	214
3.84067	213
3.84433	216
3.84800	220
3.85167	221
3.85533	219
3.85900	213
3.86267	205
3.86633	201
3.87000	198
3.87367	195
3.87733	193
3.88100	193
3.88467	196
3.88833	202
3.89200	208
3.89567	212
3.89933	209
3.90300	203
3.90667	199
3.91033	195
3.91400	191
3.91767	190
3.92133	190
3.92500	193
3.92867	192
3.93233	192
3.93600	192
3.93967	193
3.94333	194
3.94700	199
3.95067	203
3.95433	204
3.95800	198
3.96167	192
3.96533	186
3.96900	183
3.97267	184
3.97633	189
3.98000	194
3.98367	198
3.98733	199
3.99100	203
3.99467	203
3.99833	196

[Chromatogram (Ch2)]
Interval(msec)	220
# of Points	1091
Start Time(min)	0.002
End Time(min)	3.998
R.Time (min)	Intensity
0.00167	-0
0.00533	-0
0.00900	0
0.01267	0
0.01633	-0
0.02000	-0
0.02367	-0
0.02733	-0
0.03100	-1
0.03467	-1
0.03833	-1
0.04200	-1
0.04567	-1
0.04933	-1
0.05300	-1
0.05667	-1
0.06033	-1
0.06400	-0
0.06767	0
0.07133	0
0.07500	1
0.07867	1
0.08233	1
0.08600	1
0.08967	1
0.09333	1
0.09700	1
0.10067	1
0.10433	1
0.10800	0
0.11167	0
0.11533	-0
0.11900	-0
0.12267	-0
0.12633	-0
0.13000	-0
0.13367	-0
0.13733	0
0.14100	0
0.14467	0
0.14833	0
0.15200	1
0.15567	1
0.15933	1
0.16300	1
0.16667	1
0.17033	1
0.17400	1
0.17767	1
0.18133	1
0.18500	1
0.18867	1
0.19233	1
0.19600	1
0.19967	0
0.20333	0
0.20700	0
0.21067	0
0.21433	0
0.21800	0
0.22167	0
0.22533	0
0.22900	0
0.23267	0
0.23633	0
0.24000	0
0.24367	0
0.24733	0
0.25100	0
0.25467	-0
0.25833	-0
0.26200	-0
0.26567	-0
0.26933	-0
0.27300	-0
0.27667	-0
0.28033	-0
0.28400	-0
0.28767	-1
0.29133	-1
0.29500	-1
0.29867	-1
0.30233	-1
0.30600	-1
0.30967	-1
0.31333	-0
0.31700	-0
0.32067	0
0.32433	0
0.32800	1
0.33167	0
0.33533	0
0.33900	0
0.34267	0
0.34633	-0
0.35000	-0
0.35367	-1
0.35733	-1
0.36100	-1
0.36467	-1
0.36833	-2
0.37200	-2
0.37567	-2
0.37933	-2
0.38300	-2
0.38667	-1
0.39033	-1
0.39400	-1
0.39767	-1
0.40133	-1
0.40500	-0
0.40867	0
0.41233	1
0.41600	1
0.41967	1
0.42333	1
0.42700	1
0.43067	1
0.43433	1
0.43800	0
0.44167	0
0.44533	0
0.44900	0
0.45267	0
0.45633	1
0.46000	1
0.46367	1
0.46733	1
0.47100	1
0.47467	0
0.47833	0
0.48200	-0
0.48567	-1
0.48933	-1
0.49300	-1
0.49667	-1
0.50033	-1
0.50400	-1
0.50767	-1
0.51133	-1
0.51500	-0
0.51867	-0
0.52233	0
0.52600	0
0.52967	0
0.53333	0
0.53700	0
0.54067	-0
0.54433	-0
0.54800	-1
0.55167	-1
0.55533	-1
0.55900	-2
0.56267	-2
0.56633	-2
0.57000	-2
0.57367	-2
0.57733	-2
0.58100	-2
0.58467	-2
0.58833	-2
0.59200	-2
0.59567	-1
0.59933	-1
0.60300	-1
0.60667	-1
0.61033	-0
0.61400	-0
0.61767	-0
0.62133	-0
0.62500	-0
0.62867	-0
0.63233	-0
0.63600	-0
0.63967	0
0.64333	0
0.64700	0
0.65067	0
0.65433	0
0.65800	0
0.66167	0
0.66533	-0
0.66900	-0
0.67267	-0
0.67633	-0
0.68000	-1
0.68367	-1
0.68733	-1
0.69100	-1
0.69467	-2
0.69833	-2
0.70200	-2
0.70567	-2
0.70933	-2
0.71300	-3
0.71667	-3
0.72033	-3
0.72400	-3
0.72767	-3
0.73133	-3
0.73500	-2
0.73867	-2
0.74233	-2
0.74600	-2
0.74967	-3
0.75333	-3
0.75700	-3
0.76067	-3
0.76433	-3
0.76800	-3
0.77167	-3
0.77533	-3
0.77900	-3
0.78267	-3
0.78633	-3
0.79000	-3
0.79367	-3
0.79733	-3
0.80100	-3
0.80467	-3
0.80833	-3
0.81200	-2
0.81567	-2
0.81933	-2
0.82300	-2
0.82667	-2
0.83033	-2
0.83400	-2
0.83767	-2
0.84133	-2
0.84500	-2
0.84867	-2
0.85233	-1
0.85600	-1
0.85967	-1
0.86333	-1
0.86700	-1
0.87067	-1
0.87433	-2
0.87800	-2
0.88167	-2
0.88533	-3
0.88900	-3
0.89267	-3
0.89633	-3
0.90000	-3
0.90367	-3
0.90733	-3
0.91100	-3
0.91467	-3
0.91833	-3
0.92200	-3
0.92567	-3
0.92933	-3
0.93300	-3
0.93667	-3
0.94033	-3
0.94400	-2
0.94767	-2
0.95133	-2
0.95500	-2
0.95867	-2
0.96233	-2
0.96600	-2
0.96967	-2
0.97333	-2
0.97700	-2
0.98067	-1
0.98433	-1
0.98800	-0
0.99167	0
0.99533	0
0.99900	1
1.00267	1
1.00633	2
1.01000	2
1.01367	2
1.01733	3
1.02100	3
1.02467	3
1.02833	3
1.03200	3
1.03567	3
1.03933	3
1.04300	3
1.04667	3
1.05033	3
1.05400	3
1.05767	3
1.06133	3
1.06500	2
1.06867	2
1.07233	1
1.07600	0
1.07967	-0
1.08333	-0
1.08700	-1
1.09067	-1
1.09433	-1
1.09800	-1
1.10167	-1
1.10533	-1
1.10900	-1
1.11267	-1
1.11633	-1
1.12000	-1
1.12367	-1
1.12733	-1
1.13100	-1
1.13467	-1
1.13833	-2
1.14200	-2
1.14567	-2
1.14933	-3
1.15300	-3
1.15667	-3
1.16033	-4
1.16400	-4
1.16767	-4
1.17133	-4
1.17500	-5
1.17867	-5
1.18233	-5
1.18600	-5
1.18967	-5
1.19333	-5
1.19700	-4
1.20067	-4
1.20433	-4
1.20800	-4
1.21167	-5
1.21533	-5
1.21900	-4
1.22267	-4
1.22633	-4
1.23000	-3
1.23367	-3
1.23733	-2
1.24100	-1
1.24467	-1
1.24833	-0
1.25200	-0
1.25567	-0
1.25933	-0
1.26300	-0
1.26667	-0
1.27033	-1
1.27400	-1
1.27767	-1
1.28133	-1
1.28500	-1
1.28867	-1
1.29233	-1
1.29600	-1
1.29967	-1
1.30333	-1
1.30700	-2
1.31067	-2
1.31433	-2
1.31800	-2
1.32167	-2
1.32533	-2
1.32900	-2
1.33267	-2
1.33633	-2
1.34000	-2
1.34367	-2
1.34733	-2
1.35100	-2
1.35467	-2
1.35833	-3
1.36200	-3
1.36567	-3
1.36933	-3
1.37300	-3
1.37667	-3
1.38033	-3
1.38400	-3
1.38767	-3
1.39133	-3
1.39500	-3
1.39867	-3
1.40233	-3
1.40600	-2
1.40967	-2
1.41333	-2
1.41700	-1
1.42067	-1
1.42433	-1
1.42800	-1
1.43167	-1
1.43533	-1
1.43900	-1
1.44267	-2
1.44633	-2
1.45000	-2
1.45367	-3
1.45733	-3
1.46100	-3
1.46467	-3
1.46833	-3
1.47200	-3
1.47567	-3
1.47933	-3
1.48300	-3
1.48667	-3
1.49033	-3
1.49400	-3
1.49767	-3
1.50133	-3
1.50500	-3
1.50867	-2
1.51233	-2
1.51600	-2
1.51967	-1
1.52333	-1
1.52700	-1
1.53067	-1
1.53433	-2
1.53800	-2
1.54167	-2
1.54533	-2
1.54900	-2
1.55267	-3
1.55633	-3
1.56000	-3
1.56367	-3
1.56733	-3
1.57100	-4
1.57467	-4
1.57833	-4
1.58200	-4
1.58567	-4
1.58933	-5
1.59300	-5
1.59667	-5
1.60033	-6
1.60400	-7
1.60767	-8
1.61133	-10
1.61500	-11
1.61867	-14
1.62233	-16
1.62600	-19
1.62967	-22
1.63333	-25
1.63700	-29
1.64067	-32
1.64433	-36
1.64800	-39
1.65167	-43
1.65533	-46
1.65900	-50
1.66267	-54
1.66633	-57
1.67000	-62
1.67367	-66
1.67733	-71
1.68100	-75
1.68467	-80
1.68833	-85
1.69200	-89
1.69567	-93
1.69933	-96
1.70300	-98
1.70667	-100
1.71033	-102
1.71400	-103
1.71767	-104
1.72133	-106
1.72500	-107
1.72867	-107
1.73233	-108
1.73600	-109
1.73967	-109
1.74333	-109
1.74700	-108
1.75067	-108
1.75433	-108
1.75800	-108
1.76167	-108
1.76533	-109
1.76900	-109
1.77267	-110
1.77633	-110
1.78000	-111
1.78367	-111
1.78733	-111
1.79100	-111
1.79467	-112
1.79833	-112
1.80200	-112
1.80567	-112
1.80933	-112
1.81300	-112
1.81667	-112
1.82033	-112
1.82400	-113
1.82767	-113
1.83133	-113
1.83500	-114
1.83867	-114
1.84233	-114
1.84600	-115
1.84967	-115
1.85333	-115
1.85700	-115
1.86067	-114
1.86433	-115
1.86800	-115
1.87167	-115
1.87533	-115
1.87900	-115
1.88267	-114
1.88633	-114
1.89000	-114
1.89367	-114
1.89733	-114
1.90100	-114
1.90467	-114
1.90833	-114
1.91200	-113
1.91567	-113
1.91933	-113
1.92300	-113
1.92667	-113
1.93033	-112
1.93400	-111
1.93767	-110
1.94133	-110
1.94500	-109
1.94867	-109
1.95233	-109
1.95600	-110
1.95967	-110
1.96333	-111
1.96700	-111
1.97067	-110
1.97433	-110
1.97800	-109
1.98167	-109
1.98533	-109
1.98900	-109
1.99267	-108
1.99633	-108
2.00000	-108
2.00367	-107
2.00733	-107
2.01100	-107
2.01467	-107
2.01833	-107
2.02200	-107
2.02567	-107
2.02933	-108
2.03300	-108
2.03667	-107
2.04033	-106
2.04400	-105
2.04767	-104
2.05133	-103
2.05500	-102
2.05867	-101
2.06233	-100
2.06600	-100
2.06967	-100
2.07333	-100
2.07700	-100
2.08067	-100
2.08433	-100
2.08800	-100
2.09167	-100
2.09533	-100
2.09900	-100
2.10267	-99
2.10633	-99
2.11000	-99
2.11367	-99
2.11733	-99
2.12100	-98
2.12467	-98
2.12833	-97
2.13200	-97
2.13567	-96
2.13933	-95
2.14300	-95
2.14667	-95
2.15033	-95
2.15400	-94
2.15767	-94
2.16133	-94
2.16500	-94
2.16867	-94
2.17233	-93
2.17600	-93
2.17967	-93
2.18333	-92
2.18700	-92
2.19067	-91
2.19433	-91
2.19800	-90
2.20167	-90
2.20533	-89
2.20900	-89
2.21267	-89
2.21633	-89
2.22000	-89
2.22367	-88
2.22733	-88
2.23100	-88
2.23467	-88
2.23833	-88
2.24200	-87
2.24567	-86
2.24933	-86
2.25300	-85
2.25667	-84
2.26033	-84
2.26400	-84
2.26767	-84
2.27133	-84
2.27500	-84
2.27867	-84
2.28233	-84
2.28600	-84
2.28967	-84
2.29333	-83
2.29700	-83
2.30067	-82
2.30433	-82
2.30800	-81
2.31167	-81
2.31533	-80
2.31900	-80
2.32267	-80
2.32633	-79
2.33000	-79
2.33367	-79
2.33733	-79
2.34100	-78
2.34467	-78
2.34833	-77
2.35200	-76
2.35567	-75
2.35933	-74
2.36300	-73
2.36667	-72
2.37033	-70
2.37400	-68
2.37767	-65
2.38133	-63
2.38500	-59
2.38867	-56
2.39233	-51
2.39600	-47
2.39967	-43
2.40333	-38
2.40700	-34
2.41067	-30
2.41433	-26
2.41800	-23
2.42167	-20
2.42533	-17
2.42900	-15
2.43267	-13
2.43633	-12
2.44000	-11
2.44367	-10
2.44733	-8
2.45100	-7
2.45467	-6
2.45833	-6
2.46200	-5
2.46567	-4
2.46933	-3
2.47300	-3
2.47667	-2
2.48033	-1
2.48400	0
2.48767	1
2.49133	2
2.49500	3
2.49867	4
2.50233	4
2.50600	5
2.50967	6
2.51333	7
2.51700	7
2.52067	7
2.52433	8
2.52800	8
2.53167	9
2.53533	10
2.53900	11
2.54267	11
2.54633	12
2.55000	13
2.55367	14
2.55733	14
2.56100	15
2.56467	15
2.56833	15
2.57200	15
2.57567	15
2.57933	15
2.58300	15
2.58667	15
2.59033	15
2.59400	15
2.59767	15
2.60133	15
2.60500	15
2.60867	15
2.61233	15
2.61600	15
2.61967	16
2.62333	16
2.62700	17
2.63067	17
2.63433	17
2.63800	17
2.64167	17
2.64533	17
2.64900	17
2.65267	17
2.65633	18
2.66000	18
2.66367	19
2.66733	19
2.67100	19
2.67467	19
2.67833	20
2.68200	20
2.68567	20
2.68933	20
2.69300	21
2.69667	21
2.70033	21
2.70400	22
2.70767	22
2.71133	22
2.71500	23
2.71867	22
2.72233	22
2.72600	22
2.72967	21
2.73333	21
2.73700	21
2.74067	21
2.74433	22
2.74800	22
2.75167	23
2.75533	23
2.75900	23
2.76267	24
2.76633	24
2.77000	25
2.77367	25
2.77733	25
2.78100	26
2.78467	26
2.78833	26
2.79200	26
2.79567	26
2.79933	26
2.80300	26
2.80667	26
2.81033	26
2.81400	26
2.81767	26
2.82133	27
2.82500	27
2.82867	27
2.83233	27
2.83600	27
2.83967	26
2.84333	24
2.84700	20
2.85067	14
2.85433	6
2.85800	-6
2.86167	-22
2.86533	-41
2.86900	-65
2.87267	-94
2.87633	-126
2.88000	-163
2.88367	-204
2.88733	-248
2.89100	-296
2.89467	-346
2.89833	-398
2.90200	-452
2.90567	-507
2.90933	-562
2.91300	-617
2.91667	-672
2.92033	-727
2.92400	-780
2.92767	-831
2.93133	-883
2.93500	-939
2.93867	-997
2.94233	-1050
2.94600	-1086
2.94967	-1099
2.95333	-1085
2.95700	-1048
2.96067	-992
2.96433	-922
2.96800	-845
2.97167	-765
2.97533	-685
2.97900	-607
2.98267	-535
2.98633	-468
2.99000	-407
2.99367	-352
2.99733	-303
3.00100	-259
3.00467	-222
3.00833	-188
3.01200	-160
3.01567	-135
3.01933	-113
3.02300	-95
3.02667	-79
3.03033	-66
3.03400	-54
3.03767	-44
3.04133	-36
3.04500	-29
3.04867	-22
3.05233	-17
3.05600	-13
3.05967	-9
3.06333	-6
3.06700	-4
3.07067	-1
3.07433	1
3.07800	3
3.08167	4
3.08533	6
3.08900	7
3.09267	8
3.09633	9
3.10000	10
3.10367	11
3.10733	12
3.11100	13
3.11467	13
3.11833	14
3.12200	14
3.12567	15
3.12933	15
3.13300	16
3.13667	16
3.14033	16
3.14400	17
3.14767	17
3.15133	17
3.15500	17
3.15867	18
3.16233	18
3.16600	18
3.16967	18
3.17333	19
3.17700	19
3.18067	19
3.18433	20
3.18800	20
3.19167	20
3.19533	20
3.19900	20
3.20267	20
3.20633	20
3.21000	20
3.21367	20
3.21733	20
3.22100	20
3.22467	20
3.22833	20
3.23200	20
3.23567	20
3.23933	20
3.24300	20
3.24667	20
3.25033	21
3.25400	21
3.25767	22
3.26133	22
3.26500	22
3.26867	23
3.27233	23
3.27600	23
3.27967	23
3.28333	23
3.28700	23
3.29067	23
3.29433	23
3.29800	23
3.30167	23
3.30533	24
3.30900	23
3.31267	23
3.31633	23
3.32000	23
3.32367	23
3.32733	22
3.33100	22
3.33467	22
3.33833	22
3.34200	22
3.34567	22
3.34933	22
3.35300	22
3.35667	23
3.36033	23
3.36400	23
3.36767	23
3.37133	24
3.37500	24
3.37867	24
3.38233	24
3.38600	24
3.38967	24
3.39333	24
3.39700	24
3.40067	24
3.40433	24
3.40800	24
3.41167	24
3.41533	24
3.41900	23
3.42267	24
3.42633	24
3.43000	24
3.43367	25
3.43733	25
3.44100	25
3.44467	25
3.44833	25
3.45200	25
3.45567	26
3.45933	26
3.46300	26
3.46667	27
3.47033	27
3.47400	27
3.47767	28
3.48133	28
3.48500	28
3.48867	28
3.49233	28
3.49600	28
3.49967	27
3.50333	27
3.50700	27
3.51067	27
3.51433	26
3.51800	26
3.52167	26
3.52533	26
3.52900	26
3.53267	26
3.53633	26
3.54000	26
3.54367	26
3.54733	26
3.55100	26
3.55467	26
3.55833	25
3.56200	25
3.56567	25
3.56933	25
3.57300	25
3.57667	25
3.58033	25
3.58400	25
3.58767	25
3.59133	25
3.59500	25
3.59867	25
3.60233	26
3.60600	26
3.60967	26
3.61333	26
3.61700	26
3.62067	26
3.62433	26
3.62800	26
3.63167	26
3.63533	26
3.63900	26
3.64267	26
3.64633	26
3.65000	26
3.65367	26
3.65733	26
3.66100	26
3.66467	26
3.66833	26
3.67200	26
3.67567	26
3.67933	26
3.68300	26
3.68667	26
3.69033	26
3.69400	26
3.69767	26
3.70133	26
3.70500	26
3.70867	26
3.71233	26
3.71600	26
3.71967	26
3.72333	26
3.72700	26
3.73067	26
3.73433	26
3.73800	26
3.74167	26
3.74533	25
3.74900	25
3.75267	25
3.75633	25
3.76000	25
3.76367	25
3.76733	25
3.77100	25
3.77467	25
3.77833	25
3.78200	25
3.78567	25
3.78933	25
3.79300	25
3.79667	25
3.80033	26
3.80400	26
3.80767	26
3.81133	26
3.81500	26
3.81867	26
3.82233	26
3.82600	27
3.82967	27
3.83333	27
3.83700	27
3.84067	27
3.84433	27
3.84800	27
3.85167	27
3.85533	27
3.85900	27
3.86267	27
3.86633	27
3.87000	27
3.87367	27
3.87733	27
3.88100	27
3.88467	27
3.88833	26
3.89200	26
3.89567	26
3.89933	26
3.90300	26
3.90667	26
3.91033	26
3.91400	26
3.91767	26
3.92133	26
3.92500	26
3.92867	26
3.93233	26
3.93600	26
3.93967	26
3.94333	25
3.94700	25
3.95067	25
3.95433	26
3.95800	26
3.96167	26
3.96533	26
3.96900	26
3.97267	26
3.97633	25
3.98000	25
3.98367	25
3.98733	25
3.99100	24
3.99467	24
3.99833	24

[Chromatogram (Ch3)]
Interval(msec)	220
# of Points	1091
Start Time(min)	0.002
End Time(min)	3.998
R.Time (min)	Intensity
0.00167	0
0.00533	2
0.00900	3
0.01267	4
0.01633	4
0.02000	3
0.02367	2
0.02733	-0
0.03100	-1
0.03467	-2
0.03833	-1
0.04200	-2
0.04567	-2
0.04933	-3
0.05300	-1
0.05667	2
0.06033	3
0.06400	1
0.06767	0
0.07133	2
0.07500	5
0.07867	6
0.08233	6
0.08600	6
0.08967	5
0.09333	5
0.09700	4
0.10067	1
0.10433	-3
0.10800	-4
0.11167	-3
0.11533	-3
0.11900	-1
0.12267	3
0.12633	6
0.13000	6
0.13367	6
0.13733	5
0.14100	6
0.14467	5
0.14833	5
0.15200	3
0.15567	2
0.15933	1
0.16300	0
0.16667	-1
0.17033	-2
0.17400	-0
0.17767	2
0.18133	3
0.18500	3
0.18867	0
0.19233	-2
0.19600	-1
0.19967	-2
0.20333	-3
0.20700	-4
0.21067	-4
0.21433	-4
0.21800	-4
0.22167	-2
0.22533	-0
0.22900	2
0.23267	4
0.23633	4
0.24000	5
0.24367	5
0.24733	5
0.25100	4
0.25467	5
0.25833	7
0.26200	6
0.26567	5
0.26933	7
0.27300	8
0.27667	7
0.28033	7
0.28400	9
0.28767	10
0.29133	11
0.29500	13
0.29867	14
0.30233	13
0.30600	14
0.30967	13
0.31333	16
0.31700	17
0.32067	18
0.32433	17
0.32800	15
0.33167	13
0.33533	12
0.33900	13
0.34267	12
0.34633	15
0.35000	19
0.35367	21
0.35733	20
0.36100	19
0.36467	20
0.36833	21
0.37200	22
0.37567	21
0.37933	18
0.38300	17
0.38667	17
0.39033	19
0.39400	22
0.39767	23
0.40133	22
0.40500	20
0.40867	17
0.41233	16
0.41600	14
0.41967	15
0.42333	15
0.42700	15
0.43067	17
0.43433	19
0.43800	18
0.44167	16
0.44533	16
0.44900	18
0.45267	19
0.45633	20
0.46000	19
0.46367	17
0.46733	17
0.47100	14
0.47467	13
0.47833	13
0.48200	12
0.48567	13
0.48933	14
0.49300	15
0.49667	14
0.50033	13
0.50400	12
0.50767	14
0.51133	16
0.51500	17
0.51867	17
0.52233	16
0.52600	14
0.52967	12
0.53333	12
0.53700	15
0.54067	16
0.54433	16
0.54800	15
0.55167	16
0.55533	16
0.55900	14
0.56267	13
0.56633	14
0.57000	13
0.57367	11
0.57733	11
0.58100	13
0.58467	15
0.58833	16
0.59200	16
0.59567	15
0.59933	16
0.60300	18
0.60667	17
0.61033	18
0.61400	17
0.61767	15
0.62133	13
0.62500	12
0.62867	11
0.63233	10
0.63600	11
0.63967	11
0.64333	13
0.64700	15
0.65067	15
0.65433	13
0.65800	10
0.66167	11
0.66533	12
0.66900	12
0.67267	13
0.67633	13
0.68000	12
0.68367	12
0.68733	10
0.69100	9
0.69467	10
0.69833	11
0.70200	12
0.70567	15
0.70933	18
0.71300	21
0.71667	22
0.72033	21
0.72400	20
0.72767	18
0.73133	18
0.73500	17
0.73867	17
0.74233	18
0.74600	18
0.74967	18
0.75333	18
0.75700	17
0.76067	17
0.76433	17
0.76800	19
0.77167	20
0.77533	19
0.77900	17
0.78267	15
0.78633	12
0.79000	12
0.79367	12
0.79733	12
0.80100	12
0.80467	13
0.80833	13
0.81200	13
0.81567	16
0.81933	19
0.82300	19
0.82667	19
0.83033	20
0.83400	18
0.83767	16
0.84133	14
0.84500	15
0.84867	14
0.85233	14
0.85600	14
0.85967	15
0.86333	15
0.86700	14
0.87067	14
0.87433	15
0.87800	16
0.88167	16
0.88533	18
0.88900	18
0.89267	18
0.89633	19
0.90000	17
0.90367	16
0.90733	15
0.91100	14
0.91467	14
0.91833	16
0.92200	20
0.92567	24
0.92933	25
0.93300	26
0.93667	26
0.94033	24
0.94400	24
0.94767	25
0.95133	26
0.95500	26
0.95867	26
0.96233	25
0.96600	26
0.96967	28
0.97333	27
0.97700	26
0.98067	26
0.98433	27
0.98800	27
0.99167	26
0.99533	26
0.99900	25
1.00267	26
1.00633	25
1.01000	26
1.01367	26
1.01733	27
1.02100	27
1.02467	26
1.02833	26
1.03200	29
1.03567	30
1.03933	31
1.04300	32
1.04667	31
1.05033	27
1.05400	25
1.05767	23
1.06133	19
1.06500	18
1.06867	18
1.07233	17
1.07600	16
1.07967	16
1.08333	18
1.08700	19
1.09067	19
1.09433	16
1.09800	14
1.10167	13
1.10533	13
1.10900	12
1.11267	11
1.11633	12
1.12000	13
1.12367	13
1.12733	13
1.13100	14
1.13467	13
1.13833	13
1.14200	12
1.14567	13
1.14933	12
1.15300	10
1.15667	8
1.16033	9
1.16400	11
1.16767	13
1.17133	13
1.17500	12
1.17867	12
1.18233	12
1.18600	14
1.18967	15
1.19333	14
1.19700	14
1.20067	15
1.20433	17
1.20800	16
1.21167	17
1.21533	18
1.21900	17
1.22267	15
1.22633	13
1.23000	11
1.23367	13
1.23733	16
1.24100	18
1.24467	18
1.24833	18
1.25200	16
1.25567	16
1.25933	16
1.26300	15
1.26667	15
1.27033	16
1.27400	18
1.27767	21
1.28133	19
1.28500	16
1.28867	16
1.29233	16
1.29600	15
1.29967	14
1.30333	11
1.30700	11
1.31067	14
1.31433	16
1.31800	15
1.32167	15
1.32533	16
1.32900	17
1.33267	17
1.33633	17
1.34000	18
1.34367	20
1.34733	19
1.35100	18
1.35467	18
1.35833	17
1.36200	15
1.36567	17
1.36933	18
1.37300	17
1.37667	16
1.38033	15
1.38400	16
1.38767	17
1.39133	17
1.39500	18
1.39867	20
1.40233	19
1.40600	20
1.40967	21
1.41333	21
1.41700	21
1.42067	21
1.42433	21
1.42800	21
1.43167	18
1.43533	19
1.43900	20
1.44267	21
1.44633	22
1.45000	19
1.45367	17
1.45733	18
1.46100	20
1.46467	20
1.46833	19
1.47200	20
1.47567	21
1.47933	20
1.48300	19
1.48667	20
1.49033	19
1.49400	19
1.49767	19
1.50133	19
1.50500	21
1.50867	20
1.51233	19
1.51600	17
1.51967	18
1.52333	19
1.52700	19
1.53067	21
1.53433	23
1.53800	25
1.54167	26
1.54533	26
1.54900	23
1.55267	21
1.55633	22
1.56000	22
1.56367	22
1.56733	22
1.57100	21
1.57467	23
1.57833	25
1.58200	26
1.58567	28
1.58933	29
1.59300	32
1.59667	31
1.60033	29
1.60400	30
1.60767	31
1.61133	31
1.61500	32
1.61867	33
1.62233	35
1.62600	35
1.62967	34
1.63333	34
1.63700	35
1.64067	36
1.64433	37
1.64800	37
1.65167	39
1.65533	39
1.65900	38
1.66267	37
1.66633	36
1.67000	36
1.67367	37
1.67733	36
1.68100	36
1.68467	38
1.68833	41
1.69200	43
1.69567	42
1.69933	39
1.70300	38
1.70667	38
1.71033	38
1.71400	39
1.71767	38
1.72133	36
1.72500	36
1.72867	36
1.73233	35
1.73600	34
1.73967	34
1.74333	35
1.74700	38
1.75067	41
1.75433	43
1.75800	43
1.76167	45
1.76533	46
1.76900	46
1.77267	44
1.77633	45
1.78000	46
1.78367	45
1.78733	45
1.79100	44
1.79467	43
1.79833	43
1.80200	45
1.80567	47
1.80933	48
1.81300	49
1.81667	49
1.82033	49
1.82400	52
1.82767	53
1.83133	54
1.83500	53
1.83867	53
1.84233	53
1.84600	54
1.84967	57
1.85333	59
1.85700	60
1.86067	64
1.86433	67
1.86800	69
1.87167	68
1.87533	64
1.87900	62
1.88267	61
1.88633	62
1.89000	63
1.89367	65
1.89733	68
1.90100	71
1.90467	73
1.90833	76
1.91200	76
1.91567	77
1.91933	78
1.92300	76
1.92667	77
1.93033	80
1.93400	79
1.93767	78
1.94133	76
1.94500	75
1.94867	75
1.95233	75
1.95600	75
1.95967	78
1.96333	80
1.96700	80
1.97067	78
1.97433	79
1.97800	79
1.98167	80
1.98533	82
1.98900	83
1.99267	82
1.99633	83
2.00000	83
2.00367	83
2.00733	85
2.01100	87
2.01467	91
2.01833	94
2.02200	96
2.02567	96
2.02933	94
2.03300	92
2.03667	89
2.04033	91
2.04400	94
2.04767	96
2.05133	96
2.05500	96
2.05867	98
2.06233	99
2.06600	98
2.06967	99
2.07333	102
2.07700	104
2.08067	104
2.08433	107
2.08800	109
2.09167	107
2.09533	105
2.09900	105
2.10267	106
2.10633	106
2.11000	106
2.11367	106
2.11733	106
2.12100	108
2.12467	111
2.12833	112
2.13200	114
2.13567	119
2.13933	121
2.14300	121
2.14667	121
2.15033	121
2.15400	122
2.15767	124
2.16133	124
2.16500	127
2.16867	130
2.17233	132
2.17600	131
2.17967	131
2.18333	132
2.18700	133
2.19067	136
2.19433	139
2.19800	141
2.20167	143
2.20533	144
2.20900	146
2.21267	149
2.21633	152
2.22000	153
2.22367	154
2.22733	155
2.23100	157
2.23467	159
2.23833	161
2.24200	162
2.24567	161
2.24933	163
2.25300	167
2.25667	170
2.26033	172
2.26400	174
2.26767	176
2.27133	178
2.27500	179
2.27867	182
2.28233	184
2.28600	186
2.28967	188
2.29333	189
2.29700	190
2.30067	190
2.30433	191
2.30800	193
2.31167	196
2.31533	200
2.31900	203
2.32267	204
2.32633	204
2.33000	203
2.33367	201
2.33733	202
2.34100	204
2.34467	206
2.34833	208
2.35200	210
2.35567	213
2.35933	215
2.36300	219
2.36667	223
2.37033	225
2.37400	228
2.37767	230
2.38133	233
2.38500	231
2.38867	228
2.39233	231
2.39600	235
2.39967	240
2.40333	247
2.40700	250
2.41067	253
2.41433	258
2.41800	260
2.42167	263
2.42533	266
2.42900	267
2.43267	267
2.43633	267
2.44000	273
2.44367	330
2.44733	480
2.45100	642
2.45467	776
2.45833	856
2.46200	869
2.46567	842
2.46933	806
2.47300	777
2.47667	759
2.48033	748
2.48400	725
2.48767	688
2.49133	644
2.49500	598
2.49867	558
2.50233	529
2.50600	510
2.50967	500
2.51333	500
2.51700	509
2.52067	526
2.52433	546
2.52800	565
2.53167	575
2.53533	576
2.53900	567
2.54267	550
2.54633	523
2.55000	494
2.55367	467
2.55733	440
2.56100	418
2.56467	402
2.56833	393
2.57200	386
2.57567	380
2.57933	377
2.58300	375
2.58667	372
2.59033	368
2.59400	368
2.59767	365
2.60133	358
2.60500	349
2.60867	336
2.61233	324
2.61600	311
2.61967	299
2.62333	288
2.62700	280
2.63067	274
2.63433	271
2.63800	272
2.64167	275
2.64533	280
2.64900	283
2.65267	283
2.65633	282
2.66000	282
2.66367	279
2.66733	273
2.67100	265
2.67467	258
2.67833	251
2.68200	244
2.68567	236
2.68933	230
2.69300	223
2.69667	219
2.70033	216
2.70400	213
2.70767	211
2.71133	210
2.71500	209
2.71867	207
2.72233	207
2.72600	208
2.72967	213
2.73333	217
2.73700	220
2.74067	222
2.74433	225
2.74800	227
2.75167	226
2.75533	227
2.75900	231
2.76267	232
2.76633	233
2.77000	232
2.77367	233
2.77733	235
2.78100	239
2.78467	243
2.78833	245
2.79200	246
2.79567	247
2.79933	249
2.80300	252
2.80667	255
2.81033	259
2.81400	263
2.81767	268
2.82133	277
2.82500	303
2.82867	357
2.83233	457
2.83600	628
2.83967	891
2.84333	1259
2.84700	1731
2.85067	2286
2.85433	2891
2.85800	3504
2.86167	4074
2.86533	4556
2.86900	4911
2.87267	5115
2.87633	5173
2.88000	5097
2.88367	4912
2.88733	4646
2.89100	4327
2.89467	3979
2.89833	3623
2.90200	3273
2.90567	2943
2.90933	2637
2.91300	2356
2.91667	2102
2.92033	1876
2.92400	1675
2.92767	1498
2.93133	1341
2.93500	1207
2.93867	1088
2.94233	983
2.94600	890
2.94967	812
2.95333	743
2.95700	682
2.96067	628
2.96433	582
2.96800	541
2.97167	506
2.97533	478
2.97900	453
2.98267	432
2.98633	415
2.99000	397
2.99367	381
2.99733	367
3.00100	353
3.00467	339
3.00833	327
3.01200	319
3.01567	314
3.01933	305
3.02300	297
3.02667	293
3.03033	289
3.03400	286
3.03767	283
3.04133	279
3.04500	277
3.04867	274
3.05233	271
3.05600	268
3.05967	267
3.06333	267
3.06700	265
3.07067	263
3.07433	263
3.07800	262
3.08167	263
3.08533	263
3.08900	261
3.09267	260
3.09633	262
3.10000	262
3.10367	261
3.10733	261
3.11100	262
3.11467	264
3.11833	264
3.12200	261
3.12567	246
3.12933	213
3.13300	182
3.13667	163
3.14033	155
3.14400	158
3.14767	173
3.15133	204
3.15500	243
3.15867	285
3.16233	331
3.16600	375
3.16967	419
3.17333	456
3.17700	486
3.18067	513
3.18433	537
3.18800	559
3.19167	579
3.19533	595
3.19900	609
3.20267	622
3.20633	634
3.21000	645
3.21367	657
3.21733	668
3.22100	674
3.22467	680
3.22833	687
3.23200	695
3.23567	702
3.23933	707
3.24300	712
3.24667	718
3.25033	723
3.25400	726
3.25767	732
3.26133	740
3.26500	748
3.26867	755
3.27233	762
3.27600	766
3.27967	770
3.28333	772
3.28700	773
3.29067	775
3.29433	778
3.29800	781
3.30167	785
3.30533	788
3.30900	793
3.31267	796
3.31633	798
3.32000	802
3.32367	802
3.32733	805
3.33100	808
3.33467	810
3.33833	811
3.34200	812
3.34567	813
3.34933	812
3.35300	811
3.35667	811
3.36033	814
3.36400	816
3.36767	816
3.37133	815
3.37500	815
3.37867	818
3.38233	822
3.38600	823
3.38967	822
3.39333	821
3.39700	821
3.40067	821
3.40433	824
3.40800	823
3.41167	823
3.41533	821
3.41900	820
3.42267	818
3.42633	817
3.43000	816
3.43367	814
3.43733	813
3.44100	811
3.44467	809
3.44833	807
3.45200	806
3.45567	806
3.45933	804
3.46300	802
3.46667	801
3.47033	801
3.47400	801
3.47767	799
3.48133	797
3.48500	795
3.48867	795
3.49233	794
3.49600	792
3.49967	790
3.50333	787
3.50700	786
3.51067	784
3.51433	781
3.51800	778
3.52167	778
3.52533	776
3.52900	771
3.53267	770
3.53633	770
3.54000	767
3.54367	766
3.54733	768
3.55100	771
3.55467	771
3.55833	771
3.56200	770
3.56567	769
3.56933	768
3.57300	769
3.57667	768
3.58033	767
3.58400	768
3.58767	768
3.59133	764
3.59500	761
3.59867	761
3.60233	763
3.60600	765
3.60967	765
3.61333	766
3.61700	768
3.62067	767
3.62433	766
3.62800	765
3.63167	765
3.63533	765
3.63900	764
3.64267	762
3.64633	762
3.65000	761
3.65367	760
3.65733	758
3.66100	759
3.66467	760
3.66833	761
3.67200	760
3.67567	759
3.67933	758
3.68300	756
3.68667	755
3.69033	756
3.69400	757
3.69767	759
3.70133	761
3.70500	758
3.70867	755
3.71233	755
3.71600	754
3.71967	753
3.72333	751
3.72700	751
3.73067	750
3.73433	748
3.73800	747
3.74167	745
3.74533	746
3.74900	747
3.75267	746
3.75633	747
3.76000	748
3.76367	748
3.76733	747
3.77100	745
3.77467	744
3.77833	744
3.78200	743
3.78567	740
3.78933	737
3.79300	733
3.79667	731
3.80033	732
3.80400	732
3.80767	731
3.81133	730
3.81500	729
3.81867	727
3.82233	726
3.82600	727
3.82967	725
3.83333	723
3.83700	721
3.84067	718
3.84433	718
3.84800	716
3.85167	716
3.85533	716
3.85900	713
3.86267	712
3.86633	711
3.87000	710
3.87367	708
3.87733	704
3.88100	701
3.88467	702
3.88833	702
3.89200	701
3.89567	699
3.89933	697
3.90300	696
3.90667	694
3.91033	691
3.91400	690
3.91767	691
3.92133	692
3.92500	689
3.92867	687
3.93233	684
3.93600	683
3.93967	682
3.94333	681
3.94700	680
3.95067	678
3.95433	677
3.95800	675
3.96167	674
3.96533	673
3.96900	671
3.97267	668
3.97633	668
3.98000	668
3.98367	667
3.98733	665
3.99100	662
3.99467	658
3.99833	652

[Status Trace (Column Oven Temperature)]
Interval(msec)	1000
# of Points	240
Start Time(min)	0.012
End Time(min)	3.995
Intensity Units	
Intensity Multiplier	1
R.Time (min)	Intensity
0.01212	35.05
0.02878	35.05
0.04545	35.05
0.06212	35.05
0.07878	35.05
0.09545	35.05
0.11212	35.06
0.12878	35.06
0.14545	35.06
0.16212	35.05
0.17878	35.05
0.19545	35.05
0.21212	35.04
0.22878	35.04
0.24545	35.03
0.26212	35.03
0.27878	35.03
0.29545	35.03
0.31212	35.02
0.32878	35.01
0.34545	35.00
0.36212	35.00
0.37878	35.01
0.39545	35.01
0.41212	35.00
0.42878	35.00
0.44545	34.99
0.46212	34.98
0.47878	34.99
0.49545	35.00
0.51212	35.00
0.52878	35.00
0.54545	34.99
0.56212	35.00
0.57878	35.00
0.59545	34.99
0.61212	34.99
0.62878	34.98
0.64545	34.97
0.66212	34.97
0.67878	34.98
0.69545	34.98
0.71212	34.98
0.72878	35.00
0.74545	35.00
0.76212	35.00
0.77878	35.01
0.79545	35.02
0.81212	35.02
0.82878	35.02
0.84545	35.01
0.86212	35.01
0.87878	35.01
0.89545	35.01
0.91212	35.02
0.92878	35.02
0.94545	35.02
0.96212	35.03
0.97878	35.01
0.99545	35.00
1.01212	34.98
1.02878	34.97
1.04545	34.95
1.06212	34.95
1.07878	34.97
1.09545	34.96
1.11212	34.96
1.12878	34.97
1.14545	34.97
1.16212	34.99
1.17878	35.01
1.19545	35.01
1.21212	35.01
1.22878	35.00
1.24545	35.00
1.26212	34.99
1.27878	34.99
1.29545	34.99
1.31212	35.00
1.32878	35.01
1.34545	35.01
1.36212	35.02
1.37878	35.01
1.39545	35.00
1.41212	34.99
1.42878	34.99
1.44545	34.99
1.46212	35.00
1.47878	34.99
1.49545	34.99
1.51212	35.00
1.52878	34.99
1.54545	34.99
1.56212	34.98
1.57878	35.00
1.59545	35.02
1.61212	35.11
1.62878	35.24
1.64545	35.44
1.66212	35.70
1.67878	36.05
1.69545	36.43
1.71212	36.77
1.72878	37.11
1.74545	37.41
1.76212	37.75
1.77878	38.07
1.79545	38.41
1.81212	38.74
1.82878	39.08
1.84545	39.42
1.86212	39.76
1.87878	40.09
1.89545	40.41
1.91212	40.74
1.92878	41.07
1.94545	41.39
1.96212	41.71
1.97878	42.05
1.99545	42.36
2.01212	42.70
2.02878	43.04
2.04545	43.35
2.06212	43.67
2.07878	44.01
2.09545	44.33
2.11212	44.65
2.12878	44.98
2.14545	45.31
2.16212	45.64
2.17878	45.96
2.19545	46.29
2.21212	46.63
2.22878	46.97
2.24545	47.28
2.26212	47.60
2.27878	47.93
2.29545	48.27
2.31212	48.60
2.32878	48.91
2.34545	49.22
2.36212	49.47
2.37878	49.64
2.39545	49.68
2.41212	49.68
2.42878	49.68
2.44545	49.67
2.46212	49.69
2.47878	49.70
2.49545	49.71
2.51212	49.73
2.52878	49.74
2.54545	49.76
2.56212	49.77
2.57878	49.79
2.59545	49.80
2.61212	49.81
2.62878	49.82
2.64545	49.83
2.66212	49.83
2.67878	49.85
2.69545	49.85
2.71212	49.85
2.72878	49.88
2.74545	49.89
2.76212	49.87
2.77878	49.87
2.79545	49.86
2.81212	49.86
2.82878	49.85
2.84545	49.88
2.86212	49.89
2.87878	49.90
2.89545	49.92
2.91212	49.93
2.92878	49.94
2.94545	49.95
2.96212	49.95
2.97878	49.96
2.99545	49.96
3.01212	49.97
3.02878	49.98
3.04545	49.99
3.06212	50.00
3.07878	50.02
3.09545	50.02
3.11212	50.03
3.12878	50.04
3.14545	50.05
3.16212	50.05
3.17878	50.05
3.19545	50.06
3.21212	50.07
3.22878	50.08
3.24545	50.08
3.26212	50.08
3.27878	50.07
3.29545	50.07
3.31212	50.08
3.32878	50.10
3.34545	50.10
3.36212	50.10
3.37878	50.09
3.39545	50.10
3.41212	50.11
3.42878	50.10
3.44545	50.10
3.46212	50.09
3.47878	50.07
3.49545	50.06
3.51212	50.07
3.52878	50.07
3.54545	50.07
3.56212	50.07
3.57878	50.07
3.59545	50.06
3.61212	50.05
3.62878	50.05
3.64545	50.05
3.66212	50.06
3.67878	50.06
3.69545	50.06
3.71212	50.06
3.72878	50.06
3.74545	50.07
3.76212	50.06
3.77878	50.07
3.79545	50.06
3.81212	50.05
3.82878	50.05
3.84545	50.04
3.86212	50.03
3.87878	50.03
3.89545	50.02
3.91212	50.03
3.92878	50.03
3.94545	50.04
3.96212	50.03
3.97878	50.04
3.99545	50.05

[Status Trace (Injection Unit Temperature)]
Interval(msec)	1000
# of Points	240
Start Time(min)	0.012
End Time(min)	3.995
Intensity Units	
Intensity Multiplier	1
R.Time (min)	Intensity
0.01212	99.97
0.02878	99.97
0.04545	99.98
0.06212	99.98
0.07878	99.97
0.09545	99.98
0.11212	99.98
0.12878	99.98
0.14545	99.98
0.16212	99.98
0.17878	99.98
0.19545	99.98
0.21212	99.98
0.22878	99.98
0.24545	99.99
0.26212	99.99
0.27878	99.98
0.29545	99.99
0.31212	99.98
0.32878	99.98
0.34545	99.99
0.36212	99.99
0.37878	99.99
0.39545	99.98
0.41212	99.98
0.42878	99.98
0.44545	99.99
0.46212	99.99
0.47878	99.99
0.49545	99.98
0.51212	99.99
0.52878	99.99
0.54545	99.98
0.56212	99.98
0.57878	99.98
0.59545	99.98
0.61212	99.98
0.62878	99.98
0.64545	99.98
0.66212	99.98
0.67878	99.98
0.69545	99.98
0.71212	99.98
0.72878	99.98
0.74545	99.98
0.76212	99.98
0.77878	99.98
0.79545	99.98
0.81212	99.98
0.82878	99.98
0.84545	99.98
0.86212	99.98
0.87878	99.98
0.89545	99.98
0.91212	99.98
0.92878	99.98
0.94545	99.98
0.96212	99.98
0.97878	99.98
0.99545	99.97
1.01212	99.98
1.02878	99.98
1.04545	99.98
1.06212	99.98
1.07878	99.98
1.09545	99.98
1.11212	99.98
1.12878	99.98
1.14545	99.98
1.16212	99.98
1.17878	99.98
1.19545	99.98
1.21212	99.98
1.22878	99.98
1.24545	99.98
1.26212	99.98
1.27878	99.98
1.29545	99.98
1.31212	99.98
1.32878	99.98
1.34545	99.98
1.36212	99.98
1.37878	99.98
1.39545	99.98
1.41212	99.98
1.42878	99.98
1.44545	99.98
1.46212	99.98
1.47878	99.98
1.49545	99.98
1.51212	99.98
1.52878	99.98
1.54545	99.98
1.56212	99.98
1.57878	99.98
1.59545	99.98
1.61212	99.98
1.62878	99.98
1.64545	99.98
1.66212	99.98
1.67878	99.98
1.69545	99.98
1.71212	99.98
1.72878	99.98
1.74545	99.98
1.76212	99.98
1.77878	99.98
1.79545	99.98
1.81212	99.98
1.82878	99.98
1.84545	99.98
1.86212	99.98
1.87878	99.98
1.89545	99.98
1.91212	99.98
1.92878	99.98
1.94545	99.97
1.96212	99.98
1.97878	99.97
1.99545	99.97
2.01212	99.97
2.02878	99.97
2.04545	99.97
2.06212	99.97
2.07878	99.97
2.09545	99.97
2.11212	99.97
2.12878	99.97
2.14545	99.97
2.16212	99.97
2.17878	99.97
2.19545	99.97
2.21212	99.97
2.22878	99.97
2.24545	99.97
2.26212	99.97
2.27878	99.97
2.29545	99.97
2.31212	99.97
2.32878	99.97
2.34545	99.97
2.36212	99.97
2.37878	99.97
2.39545	99.97
2.41212	99.97
2.42878	99.97
2.44545	99.97
2.46212	99.97
2.47878	99.97
2.49545	99.97
2.51212	99.97
2.52878	99.97
2.54545	99.97
2.56212	99.97
2.57878	99.97
2.59545	99.97
2.61212	99.97
2.62878	99.97
2.64545	99.98
2.66212	99.97
2.67878	99.97
2.69545	99.98
2.71212	99.98
2.72878	99.98
2.74545	99.98
2.76212	99.98
2.77878	99.98
2.79545	99.98
2.81212	99.99
2.82878	99.99
2.84545	99.99
2.86212	99.99
2.87878	99.99
2.89545	99.99
2.91212	99.99
2.92878	99.99
2.94545	100.00
2.96212	100.00
2.97878	100.00
2.99545	100.00
3.01212	100.01
3.02878	100.00
3.04545	100.01
3.06212	100.01
3.07878	100.01
3.09545	100.01
3.11212	100.01
3.12878	100.02
3.14545	100.02
3.16212	100.02
3.17878	100.02
3.19545	100.02
3.21212	100.02
3.22878	100.02
3.24545	100.03
3.26212	100.02
3.27878	100.03
3.29545	100.03
3.31212	100.02
3.32878	100.03
3.34545	100.03
3.36212	100.03
3.37878	100.03
3.39545	100.03
3.41212	100.03
3.42878	100.04
3.44545	100.04
3.46212	100.04
3.47878	100.04
3.49545	100.04
3.51212	100.04
3.52878	100.04
3.54545	100.04
3.56212	100.04
3.57878	100.04
3.59545	100.05
3.61212	100.04
3.62878	100.05
3.64545	100.05
3.66212	100.05
3.67878	100.05
3.69545	100.05
3.71212	100.05
3.72878	100.05
3.74545	100.05
3.76212	100.05
3.77878	100.05
3.79545	100.05
3.81212	100.05
3.82878	100.05
3.84545	100.05
3.86212	100.05
3.87878	100.05
3.89545	100.05
3.91212	100.05
3.92878	100.05
3.94545	100.05
3.96212	100.05
3.97878	100.05
3.99545	100.05

[Status Trace (Carrier Gas Pressure)]
Interval(msec)	1000
# of Points	240
Start Time(min)	0.012
End Time(min)	3.995
Intensity Units	
Intensity Multiplier	1
R.Time (min)	Intensity
0.01212	57.99
0.02878	54.96
0.04545	57.65
0.06212	59.71
0.07878	58.85
0.09545	58.00
0.11212	57.99
0.12878	58.01
0.14545	58.01
0.16212	58.00
0.17878	58.00
0.19545	58.00
0.21212	58.00
0.22878	58.00
0.24545	58.00
0.26212	58.00
0.27878	58.00
0.29545	58.00
0.31212	58.00
0.32878	58.00
0.34545	58.00
0.36212	58.00
0.37878	58.00
0.39545	58.00
0.41212	58.00
0.42878	58.00
0.44545	58.00
0.46212	58.00
0.47878	58.00
0.49545	58.00
0.51212	58.00
0.52878	58.00
0.54545	58.00
0.56212	58.00
0.57878	58.00
0.59545	58.00
0.61212	58.00
0.62878	58.00
0.64545	58.00
0.66212	58.00
0.67878	58.00
0.69545	58.00
0.71212	58.00
0.72878	58.00
0.74545	58.00
0.76212	58.00
0.77878	58.00
0.79545	58.00
0.81212	58.00
0.82878	58.00
0.84545	58.00
0.86212	58.00
0.87878	58.00
0.89545	58.00
0.91212	58.00
0.92878	58.00
0.94545	58.00
0.96212	58.00
0.97878	58.00
0.99545	58.00
1.01212	58.00
1.02878	58.00
1.04545	58.00
1.06212	58.00
1.07878	58.00
1.09545	58.00
1.11212	58.00
1.12878	58.00
1.14545	58.00
1.16212	58.00
1.17878	58.00
1.19545	58.00
1.21212	58.00
1.22878	58.00
1.24545	58.00
1.26212	58.00
1.27878	58.00
1.29545	58.00
1.31212	58.00
1.32878	58.00
1.34545	58.00
1.36212	58.00
1.37878	58.00
1.39545	58.00
1.41212	58.00
1.42878	58.00
1.44545	58.00
1.46212	58.00
1.47878	58.00
1.49545	58.00
1.51212	58.00
1.52878	58.00
1.54545	58.00
1.56212	58.00
1.57878	58.00
1.59545	58.00
1.61212	58.00
1.62878	58.00
1.64545	58.00
1.66212	58.00
1.67878	58.01
1.69545	58.00
1.71212	58.00
1.72878	58.00
1.74545	58.00
1.76212	58.00
1.77878	58.00
1.79545	58.00
1.81212	58.00
1.82878	58.00
1.84545	58.00
1.86212	58.00
1.87878	58.00
1.89545	58.00
1.91212	58.00
1.92878	58.00
1.94545	58.00
1.96212	58.00
1.97878	58.00
1.99545	58.00
2.01212	58.00
2.02878	58.00
2.04545	58.00
2.06212	58.00
2.07878	58.00
2.09545	58.00
2.11212	58.00
2.12878	58.00
2.14545	58.00
2.16212	58.00
2.17878	58.00
2.19545	58.00
2.21212	58.00
2.22878	58.00
2.24545	58.00
2.26212	58.00
2.27878	58.00
2.29545	58.00
2.31212	58.00
2.32878	58.00
2.34545	58.00
2.36212	58.00
2.37878	58.00
2.39545	57.99
2.41212	57.99
2.42878	58.00
2.44545	58.00
2.46212	58.00
2.47878	58.00
2.49545	58.00
2.51212	57.99
2.52878	57.99
2.54545	58.00
2.56212	58.00
2.57878	58.00
2.59545	58.00
2.61212	58.00
2.62878	58.00
2.64545	58.00
2.66212	58.00
2.67878	58.00
2.69545	58.00
2.71212	58.00
2.72878	58.00
2.74545	58.00
2.76212	58.00
2.77878	58.00
2.79545	58.00
2.81212	58.00
2.82878	58.00
2.84545	58.00
2.86212	58.00
2.87878	58.00
2.89545	58.00
2.91212	58.00
2.92878	58.00
2.94545	58.00
2.96212	58.00
2.97878	58.00
2.99545	58.00
3.01212	58.00
3.02878	58.00
3.04545	58.00
3.06212	58.00
3.07878	58.00
3.09545	58.00
3.11212	58.00
3.12878	58.00
3.14545	58.00
3.16212	58.00
3.17878	58.00
3.19545	58.00
3.21212	58.00
3.22878	58.00
3.24545	58.00
3.26212	58.00
3.27878	58.00
3.29545	58.00
3.31212	58.00
3.32878	58.00
3.34545	58.00
3.36212	58.00
3.37878	58.00
3.39545	58.00
3.41212	58.00
3.42878	58.00
3.44545	58.00
3.46212	58.00
3.47878	58.00
3.49545	58.00
3.51212	58.00
3.52878	58.00
3.54545	58.00
3.56212	58.00
3.57878	58.00
3.59545	58.00
3.61212	58.00
3.62878	58.00
3.64545	58.00
3.66212	58.00
3.67878	58.00
3.69545	58.00
3.71212	58.00
3.72878	58.00
3.74545	58.00
3.76212	58.00
3.77878	58.00
3.79545	58.00
3.81212	58.00
3.82878	58.00
3.84545	58.00
3.86212	58.00
3.87878	58.00
3.89545	58.00
3.91212	58.00
3.92878	58.00
3.94545	58.00
3.96212	58.00
3.97878	58.00
3.99545	58.00

[Status Trace (Carrier Gas Flow)]
Interval(msec)	1000
# of Points	240
Start Time(min)	0.012
End Time(min)	3.995
Intensity Units	
Intensity Multiplier	1
R.Time (min)	Intensity
0.01212	34.55
0.02878	34.54
0.04545	34.55
0.06212	34.53
0.07878	34.50
0.09545	34.52
0.11212	34.52
0.12878	34.52
0.14545	34.52
0.16212	34.52
0.17878	34.52
0.19545	34.52
0.21212	34.51
0.22878	34.52
0.24545	34.52
0.26212	34.52
0.27878	34.52
0.29545	34.52
0.31212	34.52
0.32878	34.51
0.34545	34.52
0.36212	34.52
0.37878	34.52
0.39545	34.51
0.41212	34.52
0.42878	34.52
0.44545	34.52
0.46212	34.52
0.47878	34.52
0.49545	34.52
0.51212	34.52
0.52878	34.52
0.54545	34.52
0.56212	34.52
0.57878	34.52
0.59545	34.52
0.61212	34.52
0.62878	34.52
0.64545	34.52
0.66212	34.52
0.67878	34.52
0.69545	34.52
0.71212	34.52
0.72878	34.52
0.74545	34.52
0.76212	34.52
0.77878	34.52
0.79545	34.52
0.81212	34.52
0.82878	34.52
0.84545	34.52
0.86212	34.52
0.87878	34.52
0.89545	34.52
0.91212	34.52
0.92878	34.52
0.94545	34.52
0.96212	34.52
0.97878	34.52
0.99545	34.52
1.01212	34.52
1.02878	34.52
1.04545	34.52
1.06212	34.52
1.07878	34.52
1.09545	34.52
1.11212	34.52
1.12878	34.52
1.14545	34.52
1.16212	34.52
1.17878	34.52
1.19545	34.53
1.21212	34.52
1.22878	34.52
1.24545	34.52
1.26212	34.52
1.27878	34.52
1.29545	34.51
1.31212	34.52
1.32878	34.52
1.34545	34.52
1.36212	34.51
1.37878	34.52
1.39545	34.52
1.41212	34.52
1.42878	34.52
1.44545	34.52
1.46212	34.52
1.47878	34.52
1.49545	34.52
1.51212	34.52
1.52878	34.52
1.54545	34.52
1.56212	34.52
1.57878	34.52
1.59545	34.51
1.61212	34.51
1.62878	34.51
1.64545	34.52
1.66212	34.53
1.67878	34.52
1.69545	34.52
1.71212	34.52
1.72878	34.52
1.74545	34.52
1.76212	34.52
1.77878	34.52
1.79545	34.51
1.81212	34.52
1.82878	34.51
1.84545	34.52
1.86212	34.52
1.87878	34.52
1.89545	34.52
1.91212	34.52
1.92878	34.52
1.94545	34.52
1.96212	34.52
1.97878	34.52
1.99545	34.52
2.01212	34.52
2.02878	34.52
2.04545	34.52
2.06212	34.52
2.07878	34.51
2.09545	34.52
2.11212	34.52
2.12878	34.52
2.14545	34.52
2.16212	34.52
2.17878	34.52
2.19545	34.52
2.21212	34.51
2.22878	34.52
2.24545	34.51
2.26212	34.51
2.27878	34.52
2.29545	34.52
2.31212	34.52
2.32878	34.51
2.34545	34.52
2.36212	34.52
2.37878	34.52
2.39545	34.52
2.41212	34.52
2.42878	34.52
2.44545	34.52
2.46212	34.51
2.47878	34.52
2.49545	34.52
2.51212	34.51
2.52878	34.51
2.54545	34.52
2.56212	34.52
2.57878	34.52
2.59545	34.52
2.61212	34.52
2.62878	34.52
2.64545	34.52
2.66212	34.52
2.67878	34.52
2.69545	34.52
2.71212	34.51
2.72878	34.51
2.74545	34.52
2.76212	34.52
2.77878	34.52
2.79545	34.52
2.81212	34.52
2.82878	34.52
2.84545	34.51
2.86212	34.52
2.87878	34.52
2.89545	34.51
2.91212	34.52
2.92878	34.52
2.94545	34.52
2.96212	34.52
2.97878	34.52
2.99545	34.52
3.01212	34.52
3.02878	34.52
3.04545	34.52
3.06212	34.52
3.07878	34.52
3.09545	34.52
3.11212	34.52
3.12878	34.52
3.14545	34.52
3.16212	34.52
3.17878	34.52
3.19545	34.52
3.21212	34.52
3.22878	34.52
3.24545	34.52
3.26212	34.52
3.27878	34.52
3.29545	34.52
3.31212	34.52
3.32878	34.52
3.34545	34.52
3.36212	34.52
3.37878	34.52
3.39545	34.52
3.41212	34.52
3.42878	34.51
3.44545	34.51
3.46212	34.52
3.47878	34.51
3.49545	34.52
3.51212	34.52
3.52878	34.52
3.54545	34.51
3.56212	34.52
3.57878	34.52
3.59545	34.52
3.61212	34.52
3.62878	34.52
3.64545	34.52
3.66212	34.53
3.67878	34.52
3.69545	34.52
3.71212	34.52
3.72878	34.52
3.74545	34.52
3.76212	34.53
3.77878	34.52
3.79545	34.52
3.81212	34.52
3.82878	34.52
3.84545	34.53
3.86212	34.52
3.87878	34.52
3.89545	34.52
3.91212	34.52
3.92878	34.52
3.94545	34.51
3.96212	34.52
3.97878	34.53
3.99545	34.52

[Status Trace (Column Flow)]
Interval(msec)	1000
# of Points	240
Start Time(min)	0.012
End Time(min)	3.995
Intensity Units	
Intensity Multiplier	1
R.Time (min)	Intensity
0.01212	5.52
0.02878	5.17
0.04545	5.48
0.06212	5.72
0.07878	5.62
0.09545	5.52
0.11212	5.52
0.12878	5.52
0.14545	5.52
0.16212	5.52
0.17878	5.52
0.19545	5.52
0.21212	5.52
0.22878	5.52
0.24545	5.52
0.26212	5.52
0.27878	5.52
0.29545	5.52
0.31212	5.52
0.32878	5.52
0.34545	5.52
0.36212	5.52
0.37878	5.52
0.39545	5.52
0.41212	5.52
0.42878	5.52
0.44545	5.52
0.46212	5.52
0.47878	5.52
0.49545	5.52
0.51212	5.52
0.52878	5.52
0.54545	5.52
0.56212	5.52
0.57878	5.52
0.59545	5.52
0.61212	5.52
0.62878	5.52
0.64545	5.52
0.66212	5.52
0.67878	5.52
0.69545	5.52
0.71212	5.52
0.72878	5.52
0.74545	5.52
0.76212	5.52
0.77878	5.52
0.79545	5.52
0.81212	5.52
0.82878	5.52
0.84545	5.52
0.86212	5.52
0.87878	5.52
0.89545	5.52
0.91212	5.52
0.92878	5.52
0.94545	5.52
0.96212	5.52
0.97878	5.52
0.99545	5.52
1.01212	5.52
1.02878	5.52
1.04545	5.52
1.06212	5.52
1.07878	5.52
1.09545	5.52
1.11212	5.52
1.12878	5.52
1.14545	5.52
1.16212	5.52
1.17878	5.52
1.19545	5.52
1.21212	5.52
1.22878	5.52
1.24545	5.52
1.26212	5.52
1.27878	5.52
1.29545	5.52
1.31212	5.52
1.32878	5.52
1.34545	5.52
1.36212	5.52
1.37878	5.52
1.39545	5.52
1.41212	5.52
1.42878	5.52
1.44545	5.52
1.46212	5.52
1.47878	5.52
1.49545	5.52
1.51212	5.52
1.52878	5.52
1.54545	5.52
1.56212	5.52
1.57878	5.52
1.59545	5.52
1.61212	5.52
1.62878	5.52
1.64545	5.51
1.66212	5.50
1.67878	5.49
1.69545	5.48
1.71212	5.47
1.72878	5.46
1.74545	5.45
1.76212	5.44
1.77878	5.43
1.79545	5.42
1.81212	5.41
1.82878	5.40
1.84545	5.39
1.86212	5.38
1.87878	5.37
1.89545	5.36
1.91212	5.35
1.92878	5.34
1.94545	5.33
1.96212	5.32
1.97878	5.31
1.99545	5.30
2.01212	5.29
2.02878	5.28
2.04545	5.27
2.06212	5.26
2.07878	5.25
2.09545	5.24
2.11212	5.23
2.12878	5.22
2.14545	5.21
2.16212	5.20
2.17878	5.19
2.19545	5.18
2.21212	5.17
2.22878	5.16
2.24545	5.16
2.26212	5.15
2.27878	5.14
2.29545	5.13
2.31212	5.12
2.32878	5.11
2.34545	5.10
2.36212	5.09
2.37878	5.09
2.39545	5.09
2.41212	5.09
2.42878	5.09
2.44545	5.09
2.46212	5.09
2.47878	5.09
2.49545	5.09
2.51212	5.09
2.52878	5.09
2.54545	5.09
2.56212	5.09
2.57878	5.09
2.59545	5.09
2.61212	5.08
2.62878	5.08
2.64545	5.08
2.66212	5.08
2.67878	5.08
2.69545	5.08
2.71212	5.08
2.72878	5.08
2.74545	5.08
2.76212	5.08
2.77878	5.08
2.79545	5.08
2.81212	5.08
2.82878	5.08
2.84545	5.08
2.86212	5.08
2.87878	5.08
2.89545	5.08
2.91212	5.08
2.92878	5.08
2.94545	5.08
2.96212	5.08
2.97878	5.08
2.99545	5.08
3.01212	5.08
3.02878	5.08
3.04545	5.08
3.06212	5.08
3.07878	5.08
3.09545	5.08
3.11212	5.08
3.12878	5.08
3.14545	5.08
3.16212	5.08
3.17878	5.08
3.19545	5.08
3.21212	5.08
3.22878	5.08
3.24545	5.08
3.26212	5.08
3.27878	5.08
3.29545	5.08
3.31212	5.08
3.32878	5.08
3.34545	5.08
3.36212	5.08
3.37878	5.08
3.39545	5.08
3.41212	5.08
3.42878	5.08
3.44545	5.08
3.46212	5.08
3.47878	5.08
3.49545	5.08
3.51212	5.08
3.52878	5.08
3.54545	5.08
3.56212	5.08
3.57878	5.08
3.59545	5.08
3.61212	5.08
3.62878	5.08
3.64545	5.08
3.66212	5.08
3.67878	5.08
3.69545	5.08
3.71212	5.08
3.72878	5.08
3.74545	5.08
3.76212	5.08
3.77878	5.08
3.79545	5.08
3.81212	5.08
3.82878	5.08
3.84545	5.08
3.86212	5.08
3.87878	5.08
3.89545	5.08
3.91212	5.08
3.92878	5.08
3.94545	5.08
3.96212	5.08
3.97878	5.08
3.99545	5.08

[Status Trace (Linear Velocity)]
Interval(msec)	1000
# of Points	240
Start Time(min)	0.012
End Time(min)	3.995
Intensity Units	
Intensity Multiplier	1
R.Time (min)	Intensity
0.01212	39.00
0.02878	37.02
0.04545	38.78
0.06212	40.13
0.07878	39.57
0.09545	39.01
0.11212	39.01
0.12878	39.02
0.14545	39.02
0.16212	39.02
0.17878	39.02
0.19545	39.01
0.21212	39.01
0.22878	39.01
0.24545	39.02
0.26212	39.02
0.27878	39.01
0.29545	39.02
0.31212	39.02
0.32878	39.02
0.34545	39.02
0.36212	39.02
0.37878	39.02
0.39545	39.02
0.41212	39.02
0.42878	39.02
0.44545	39.02
0.46212	39.02
0.47878	39.02
0.49545	39.02
0.51212	39.02
0.52878	39.02
0.54545	39.02
0.56212	39.02
0.57878	39.02
0.59545	39.02
0.61212	39.02
0.62878	39.02
0.64545	39.02
0.66212	39.02
0.67878	39.02
0.69545	39.02
0.71212	39.02
0.72878	39.02
0.74545	39.02
0.76212	39.02
0.77878	39.02
0.79545	39.02
0.81212	39.01
0.82878	39.02
0.84545	39.02
0.86212	39.02
0.87878	39.02
0.89545	39.02
0.91212	39.02
0.92878	39.01
0.94545	39.01
0.96212	39.01
0.97878	39.01
0.99545	39.02
1.01212	39.02
1.02878	39.02
1.04545	39.02
1.06212	39.02
1.07878	39.02
1.09545	39.02
1.11212	39.02
1.12878	39.02
1.14545	39.02
1.16212	39.02
1.17878	39.02
1.19545	39.02
1.21212	39.02
1.22878	39.02
1.24545	39.02
1.26212	39.02
1.27878	39.02
1.29545	39.02
1.31212	39.02
1.32878	39.02
1.34545	39.02
1.36212	39.02
1.37878	39.02
1.39545	39.02
1.41212	39.02
1.42878	39.02
1.44545	39.02
1.46212	39.02
1.47878	39.02
1.49545	39.02
1.51212	39.02
1.52878	39.02
1.54545	39.02
1.56212	39.02
1.57878	39.02
1.59545	39.02
1.61212	39.01
1.62878	39.00
1.64545	38.98
1.66212	38.95
1.67878	38.92
1.69545	38.89
1.71212	38.85
1.72878	38.82
1.74545	38.79
1.76212	38.75
1.77878	38.72
1.79545	38.70
1.81212	38.66
1.82878	38.63
1.84545	38.60
1.86212	38.57
1.87878	38.53
1.89545	38.51
1.91212	38.47
1.92878	38.44
1.94545	38.42
1.96212	38.38
1.97878	38.35
1.99545	38.33
2.01212	38.29
2.02878	38.26
2.04545	38.23
2.06212	38.20
2.07878	38.17
2.09545	38.14
2.11212	38.11
2.12878	38.08
2.14545	38.06
2.16212	38.02
2.17878	37.99
2.19545	37.97
2.21212	37.93
2.22878	37.90
2.24545	37.88
2.26212	37.85
2.27878	37.82
2.29545	37.79
2.31212	37.76
2.32878	37.73
2.34545	37.70
2.36212	37.68
2.37878	37.66
2.39545	37.66
2.41212	37.66
2.42878	37.66
2.44545	37.66
2.46212	37.66
2.47878	37.66
2.49545	37.66
2.51212	37.65
2.52878	37.65
2.54545	37.65
2.56212	37.65
2.57878	37.65
2.59545	37.65
2.61212	37.65
2.62878	37.65
2.64545	37.65
2.66212	37.65
2.67878	37.65
2.69545	37.65
2.71212	37.65
2.72878	37.64
2.74545	37.64
2.76212	37.64
2.77878	37.64
2.79545	37.65
2.81212	37.65
2.82878	37.65
2.84545	37.64
2.86212	37.64
2.87878	37.64
2.89545	37.64
2.91212	37.64
2.92878	37.64
2.94545	37.64
2.96212	37.64
2.97878	37.64
2.99545	37.64
3.01212	37.64
3.02878	37.63
3.04545	37.63
3.06212	37.63
3.07878	37.63
3.09545	37.63
3.11212	37.63
3.12878	37.63
3.14545	37.63
3.16212	37.63
3.17878	37.63
3.19545	37.63
3.21212	37.63
3.22878	37.63
3.24545	37.63
3.26212	37.63
3.27878	37.63
3.29545	37.63
3.31212	37.63
3.32878	37.62
3.34545	37.62
3.36212	37.62
3.37878	37.62
3.39545	37.62
3.41212	37.62
3.42878	37.62
3.44545	37.62
3.46212	37.62
3.47878	37.63
3.49545	37.63
3.51212	37.63
3.52878	37.63
3.54545	37.63
3.56212	37.63
3.57878	37.63
3.59545	37.63
3.61212	37.63
3.62878	37.63
3.64545	37.63
3.66212	37.63
3.67878	37.63
3.69545	37.63
3.71212	37.63
3.72878	37.63
3.74545	37.63
3.76212	37.63
3.77878	37.63
3.79545	37.63
3.81212	37.63
3.82878	37.63
3.84545	37.63
3.86212	37.63
3.87878	37.63
3.89545	37.63
3.91212	37.63
3.92878	37.63
3.94545	37.63
3.96212	37.63
3.97878	37.63
3.99545	37.63

