[Header]
Application Name	LabSolutions
Version	5.110
Data File Name	C:\Users\User\Desktop\GC Analyses\Jack\Nachusa Grasslands Sampling\T2 Timepoint July 12th\T2_07122022_001.gcd
Output Date	3/14/2023
Output Time	3:42:29 PM

[File Information]
Type	Data File
Generated	3/10/2023 12:26:17 PM
Generated by	System Administrator
Modified	3/10/2023 12:30:32 PM
Modified by	System Administrator

[Sample Information]
Operator Name	System Administrator
Acquired	3/10/2023 12:26:32 PM
Sample Type	0:Unknown
Level	0
Sample Name	001
Sample ID	001
ISTD Amount1	1
ISTD Amount2	1
ISTD Amount3	1
ISTD Amount4	1
ISTD Amount5	1
ISTD Amount6	1
ISTD Amount7	1
ISTD Amount8	1
ISTD Amount9	1
ISTD Amount10	1
ISTD Amount11	1
ISTD Amount12	1
ISTD Amount13	1
ISTD Amount14	1
ISTD Amount15	1
ISTD Amount16	1
ISTD Amount17	1
ISTD Amount18	1
ISTD Amount19	1
ISTD Amount20	1
ISTD Amount21	1
ISTD Amount22	1
ISTD Amount23	1
ISTD Amount24	1
ISTD Amount25	1
ISTD Amount26	1
ISTD Amount27	1
ISTD Amount28	1
ISTD Amount29	1
ISTD Amount30	1
ISTD Amount31	1
ISTD Amount32	1
Sample Amount	1
Dilution Factor	1
Vial#	0
Injection Volume	1
Injection Count	1
Bar Code	

[Original Files]
Data File	C:\Users\User\Desktop\GC Analyses\Jack\Nachusa Grasslands Sampling\T1 Timepoint July 12th\T2_07122022_001.gcd
Method File	C:\LabSolutions\Data\GHG_4min_2022\ghg3_togas_w_acet_4 min_new_int.gcm
Batch File	C:\LabSolutions\Data\AutoSamplerTesting\T2_07122022.gcb
Report Format File	c:\LabSolutions\System\DEFAULT.lsr

[File Description]


[Configuration]
Instrument Name	C0B7VH3-Instrument1
Instrument #	1
Line #	1
# of Detectors	3
Detector ID	DET#1	DET#2	DET#3
Detector Name	FID	PTCD	ECD
# of Channels	1	1	1

[Peak Table(Ch1)]
# of Peaks	3
Peak#	R.Time	I.Time	F.Time	Area	Height	A/H	Conc.	Mark	ID#	Name	k'	Plate #	Plate Ht.	Tailing	Resolution	Sep.Factor	Area Ratio	Height Ratio	Conc. %	Norm Conc.
1	1.446	1.424	1.523	11915	5035	2.367	84.119	   	1	CO	0.000	9433	15.902	0.000	0.000	0.000	0	0	6.126	6.126
2	1.564	1.523	1.644	28762	11395	2.524	556.141	 V 	2	CH4	0.081	7823	19.175	1.081	1.801	0.000	0	0	40.499	40.499
3	1.993	1.938	2.532	2920466	1165079	2.507	732.958	   	3	CO2	0.378	12997	11.542	1.159	6.101	4.656	0	0	53.375	53.375

[Peak Table(Ch2)]
# of Peaks	0

[Peak Table(Ch3)]
# of Peaks	5
Peak#	R.Time	I.Time	F.Time	Area	Height	A/H	Conc.	Mark	ID#	Name	k'	Plate #	Plate Ht.	Tailing	Resolution	Sep.Factor	Area Ratio	Height Ratio	Conc. %	Norm Conc.
1	2.462	2.323	2.517	1760	470	3.747	0.000	   			0.000	6729	22.290	0.000	0.000	0.000	0	0	0.000	0.000
2	2.543	2.517	2.631	1356	314	4.323	0.000	 V 			0.033	3066	48.916	0.000	0.531	0.000	0	0	0.000	0.000
3	2.697	2.642	2.741	435	98	4.423	0.000	   			0.095	668	224.481	0.000	0.513	2.909	0	0	0.000	0.000
4	2.873	2.741	3.419	83115	19759	4.206	2.123	 V 	1	N2O	0.167	11257	13.325	1.554	0.670	1.750	0	0	100.000	100.000
5	3.701	3.489	3.866	302	24	12.644	0.000	   			0.503	5708	26.280	0.890	5.447	3.018	0	0	0.000	0.000

[Compound Results(Ch1)]
# of IDs	6
ID#	Name	R.Time	Area	Height	Conc.	Curve	3rd	2nd	1st	Constant	Area Ratio	Height Ratio	Conc. %	Norm Conc.
1	CO	1.446	11915	5035	84.119	Linear	0.000000e+00	0.000000e+00	1.416423e+002	0.000000e+00	0	0	6.126	6.126
2	CH4	1.564	28762	11395	556.141	Linear	0.000000e+00	0.000000e+00	5.171738e+001	0.000000e+00	0	0	40.499	40.499
3	CO2	1.993	2920466	1165079	732.958	Linear	0.000000e+00	0.000000e+00	3.984494e+003	0.000000e+00	0	0	53.375	53.375
4	Ethylene	0.000	0	0	0.000	Linear	0.000000e+00	0.000000e+00	0.000000e+00	0.000000e+00	0	0	0.000	0.000
5	Acetylene	0.000	0	0	0.000	Linear	0.000000e+00	0.000000e+00	0.000000e+00	0.000000e+00	0	0	0.000	0.000
6	Ethane	0.000	0	0	0.000	Linear	0.000000e+00	0.000000e+00	0.000000e+00	0.000000e+00	0	0	0.000	0.000

[Compound Results(Ch2)]
# of IDs	5
ID#	Name	R.Time	Area	Height	Conc.	Curve	3rd	2nd	1st	Constant	Area Ratio	Height Ratio	Conc. %	Norm Conc.
1	Hydrogen	0.000	0	0	0.000	Linear	0.000000e+00	0.000000e+00	0.000000e+00	0.000000e+00	0	0	0.000	0.000
2	Oxygen	0.000	0	0	0.000	Linear	0.000000e+00	0.000000e+00	0.000000e+00	0.000000e+00	0	0	0.000	0.000
3	Nitrogen	0.000	0	0	0.000	Linear	0.000000e+00	0.000000e+00	0.000000e+00	0.000000e+00	0	0	0.000	0.000
4	Methane	0.000	0	0	0.000	Linear	0.000000e+00	0.000000e+00	0.000000e+00	0.000000e+00	0	0	0.000	0.000
5	Carbon Monoxide	0.000	0	0	0.000	Linear	0.000000e+00	0.000000e+00	0.000000e+00	0.000000e+00	0	0	0.000	0.000

[Compound Results(Ch3)]
# of IDs	2
ID#	Name	R.Time	Area	Height	Conc.	Curve	3rd	2nd	1st	Constant	Area Ratio	Height Ratio	Conc. %	Norm Conc.
1	N2O	2.873	83115	19759	2.123	Linear	0.000000e+00	0.000000e+00	3.915173e+004	0.000000e+00	0	0	100.000	100.000
2	SF6	0.000	0	0	0.000	Linear	0.000000e+00	0.000000e+00	0.000000e+00	0.000000e+00	0	0	0.000	0.000

[Group Results(Ch1)]
# of Groups	0

[Group Results(Ch2)]
# of Groups	0

[Group Results(Ch3)]
# of Groups	0

[Chromatogram (Ch1)]
Interval(msec)	220
# of Points	1091
Start Time(min)	0.002
End Time(min)	3.998
R.Time (min)	Intensity
0.00167	-6
0.00533	-1
0.00900	3
0.01267	3
0.01633	-2
0.02000	-8
0.02367	-9
0.02733	-5
0.03100	-2
0.03467	-3
0.03833	-7
0.04200	-9
0.04567	-9
0.04933	-12
0.05300	-14
0.05667	-16
0.06033	-17
0.06400	-18
0.06767	-15
0.07133	-10
0.07500	-2
0.07867	4
0.08233	5
0.08600	1
0.08967	-3
0.09333	-5
0.09700	-7
0.10067	-11
0.10433	-15
0.10800	-13
0.11167	-9
0.11533	-5
0.11900	-6
0.12267	-6
0.12633	-3
0.13000	-4
0.13367	-10
0.13733	-14
0.14100	-15
0.14467	-12
0.14833	-9
0.15200	-7
0.15567	-8
0.15933	-7
0.16300	-5
0.16667	-0
0.17033	6
0.17400	4
0.17767	-2
0.18133	-6
0.18500	-7
0.18867	-6
0.19233	-7
0.19600	-8
0.19967	-5
0.20333	2
0.20700	6
0.21067	7
0.21433	5
0.21800	3
0.22167	3
0.22533	4
0.22900	6
0.23267	4
0.23633	2
0.24000	2
0.24367	4
0.24733	7
0.25100	5
0.25467	2
0.25833	-2
0.26200	-5
0.26567	-5
0.26933	-3
0.27300	-2
0.27667	-0
0.28033	6
0.28400	10
0.28767	9
0.29133	7
0.29500	2
0.29867	-11
0.30233	-28
0.30600	-39
0.30967	-41
0.31333	-35
0.31700	-25
0.32067	-17
0.32433	-12
0.32800	-8
0.33167	-7
0.33533	-7
0.33900	-7
0.34267	-10
0.34633	-16
0.35000	-24
0.35367	-26
0.35733	-22
0.36100	-14
0.36467	-9
0.36833	-10
0.37200	-10
0.37567	-11
0.37933	-16
0.38300	-18
0.38667	-14
0.39033	-9
0.39400	-6
0.39767	-5
0.40133	-4
0.40500	-5
0.40867	-8
0.41233	-6
0.41600	-1
0.41967	8
0.42333	8
0.42700	3
0.43067	4
0.43433	7
0.43800	4
0.44167	-2
0.44533	-8
0.44900	-12
0.45267	-16
0.45633	-18
0.46000	-18
0.46367	-18
0.46733	-18
0.47100	-15
0.47467	-9
0.47833	-5
0.48200	-3
0.48567	1
0.48933	8
0.49300	18
0.49667	20
0.50033	9
0.50400	-9
0.50767	-29
0.51133	-44
0.51500	-49
0.51867	-43
0.52233	-31
0.52600	-24
0.52967	-22
0.53333	-23
0.53700	-24
0.54067	-25
0.54433	-26
0.54800	-29
0.55167	-30
0.55533	-30
0.55900	-30
0.56267	-22
0.56633	-13
0.57000	-8
0.57367	-7
0.57733	-4
0.58100	-3
0.58467	-6
0.58833	-12
0.59200	-15
0.59567	-16
0.59933	-19
0.60300	-22
0.60667	-20
0.61033	-12
0.61400	-6
0.61767	-5
0.62133	-3
0.62500	2
0.62867	11
0.63233	22
0.63600	32
0.63967	33
0.64333	26
0.64700	13
0.65067	-1
0.65433	-12
0.65800	-20
0.66167	-22
0.66533	-15
0.66900	-5
0.67267	-2
0.67633	-10
0.68000	-23
0.68367	-35
0.68733	-41
0.69100	-37
0.69467	-25
0.69833	-7
0.70200	6
0.70567	13
0.70933	16
0.71300	14
0.71667	9
0.72033	-3
0.72400	-15
0.72767	-20
0.73133	-19
0.73500	-14
0.73867	-7
0.74233	-2
0.74600	-2
0.74967	-3
0.75333	-5
0.75700	-6
0.76067	-6
0.76433	-7
0.76800	-10
0.77167	-12
0.77533	-14
0.77900	-13
0.78267	-11
0.78633	-9
0.79000	-8
0.79367	-9
0.79733	-9
0.80100	-13
0.80467	-20
0.80833	-26
0.81200	-28
0.81567	-22
0.81933	-9
0.82300	3
0.82667	8
0.83033	10
0.83400	13
0.83767	14
0.84133	10
0.84500	1
0.84867	-8
0.85233	-18
0.85600	-28
0.85967	-32
0.86333	-27
0.86700	-19
0.87067	-13
0.87433	-10
0.87800	-10
0.88167	-13
0.88533	-17
0.88900	-22
0.89267	-21
0.89633	-22
0.90000	-21
0.90367	-22
0.90733	-21
0.91100	-15
0.91467	-9
0.91833	-2
0.92200	2
0.92567	5
0.92933	6
0.93300	10
0.93667	20
0.94033	29
0.94400	32
0.94767	28
0.95133	21
0.95500	11
0.95867	-2
0.96233	-15
0.96600	-25
0.96967	-31
0.97333	-34
0.97700	-37
0.98067	-40
0.98433	-42
0.98800	-41
0.99167	-37
0.99533	-31
0.99900	-24
1.00267	-18
1.00633	-16
1.01000	-14
1.01367	-11
1.01733	-10
1.02100	-5
1.02467	3
1.02833	9
1.03200	14
1.03567	12
1.03933	9
1.04300	5
1.04667	0
1.05033	-1
1.05400	1
1.05767	-0
1.06133	-2
1.06500	-2
1.06867	1
1.07233	6
1.07600	10
1.07967	12
1.08333	7
1.08700	2
1.09067	-8
1.09433	-18
1.09800	-23
1.10167	-22
1.10533	-21
1.10900	-21
1.11267	-21
1.11633	-20
1.12000	-13
1.12367	-7
1.12733	-3
1.13100	-1
1.13467	4
1.13833	13
1.14200	21
1.14567	22
1.14933	19
1.15300	12
1.15667	4
1.16033	-3
1.16400	-6
1.16767	-3
1.17133	2
1.17500	3
1.17867	-0
1.18233	1
1.18600	6
1.18967	12
1.19333	14
1.19700	12
1.20067	9
1.20433	5
1.20800	-1
1.21167	-8
1.21533	-10
1.21900	-7
1.22267	2
1.22633	16
1.23000	30
1.23367	42
1.23733	48
1.24100	47
1.24467	35
1.24833	15
1.25200	-11
1.25567	-34
1.25933	-48
1.26300	-51
1.26667	-51
1.27033	-47
1.27400	-45
1.27767	-46
1.28133	-41
1.28500	-31
1.28867	-24
1.29233	-23
1.29600	-25
1.29967	-25
1.30333	-21
1.30700	-14
1.31067	-6
1.31433	-0
1.31800	4
1.32167	9
1.32533	16
1.32900	25
1.33267	30
1.33633	30
1.34000	23
1.34367	14
1.34733	4
1.35100	-1
1.35467	-4
1.35833	-2
1.36200	1
1.36567	6
1.36933	13
1.37300	20
1.37667	25
1.38033	27
1.38400	29
1.38767	27
1.39133	22
1.39500	20
1.39867	21
1.40233	20
1.40600	13
1.40967	3
1.41333	-6
1.41700	-11
1.42067	-12
1.42433	4
1.42800	159
1.43167	926
1.43533	2569
1.43900	4171
1.44267	4963
1.44633	5051
1.45000	4728
1.45367	4237
1.45733	3731
1.46100	3265
1.46467	2858
1.46833	2516
1.47200	2231
1.47567	1996
1.47933	1798
1.48300	1616
1.48667	1429
1.49033	1238
1.49400	1057
1.49767	903
1.50133	775
1.50500	666
1.50867	573
1.51233	502
1.51600	452
1.51967	417
1.52333	406
1.52700	508
1.53067	937
1.53433	1944
1.53800	3547
1.54167	5448
1.54533	7265
1.54900	8768
1.55267	9895
1.55633	10686
1.56000	11207
1.56367	11478
1.56733	11414
1.57100	10835
1.57467	9648
1.57833	7999
1.58200	6202
1.58567	4555
1.58933	3220
1.59300	2227
1.59667	1525
1.60033	1047
1.60400	733
1.60767	530
1.61133	400
1.61500	314
1.61867	256
1.62233	216
1.62600	190
1.62967	169
1.63333	154
1.63700	141
1.64067	132
1.64433	129
1.64800	129
1.65167	129
1.65533	133
1.65900	137
1.66267	137
1.66633	131
1.67000	123
1.67367	115
1.67733	109
1.68100	107
1.68467	108
1.68833	109
1.69200	110
1.69567	107
1.69933	99
1.70300	91
1.70667	92
1.71033	99
1.71400	103
1.71767	105
1.72133	102
1.72500	102
1.72867	106
1.73233	106
1.73600	101
1.73967	95
1.74333	90
1.74700	88
1.75067	88
1.75433	89
1.75800	93
1.76167	96
1.76533	93
1.76900	83
1.77267	77
1.77633	78
1.78000	82
1.78367	89
1.78733	97
1.79100	103
1.79467	106
1.79833	107
1.80200	104
1.80567	101
1.80933	97
1.81300	96
1.81667	93
1.82033	84
1.82400	74
1.82767	71
1.83133	77
1.83500	86
1.83867	92
1.84233	94
1.84600	94
1.84967	90
1.85333	83
1.85700	77
1.86067	71
1.86433	64
1.86800	59
1.87167	57
1.87533	56
1.87900	58
1.88267	64
1.88633	75
1.89000	85
1.89367	90
1.89733	88
1.90100	82
1.90467	77
1.90833	75
1.91200	70
1.91567	67
1.91933	67
1.92300	68
1.92667	73
1.93033	80
1.93400	85
1.93767	90
1.94133	117
1.94500	298
1.94867	1376
1.95233	6209
1.95600	22541
1.95967	65060
1.96333	151005
1.96700	287816
1.97067	463586
1.97433	651558
1.97800	825027
1.98167	967371
1.98533	1072636
1.98900	1139661
1.99267	1165218
1.99633	1143542
2.00000	1070745
2.00367	950721
2.00733	798159
2.01100	634733
2.01467	481073
2.01833	350755
2.02200	248771
2.02567	173613
2.02933	120536
2.03300	84114
2.03667	59542
2.04033	43091
2.04400	32079
2.04767	24657
2.05133	19582
2.05500	16034
2.05867	13493
2.06233	11624
2.06600	10211
2.06967	9113
2.07333	8230
2.07700	7502
2.08067	6894
2.08433	6377
2.08800	5932
2.09167	5547
2.09533	5210
2.09900	4912
2.10267	4649
2.10633	4415
2.11000	4204
2.11367	4018
2.11733	3847
2.12100	3688
2.12467	3537
2.12833	3394
2.13200	3261
2.13567	3137
2.13933	3021
2.14300	2910
2.14667	2806
2.15033	2710
2.15400	2621
2.15767	2537
2.16133	2456
2.16500	2379
2.16867	2306
2.17233	2235
2.17600	2166
2.17967	2107
2.18333	2054
2.18700	2005
2.19067	1959
2.19433	1911
2.19800	1860
2.20167	1805
2.20533	1749
2.20900	1702
2.21267	1661
2.21633	1623
2.22000	1588
2.22367	1559
2.22733	1536
2.23100	1517
2.23467	1495
2.23833	1469
2.24200	1442
2.24567	1414
2.24933	1387
2.25300	1360
2.25667	1334
2.26033	1309
2.26400	1283
2.26767	1261
2.27133	1242
2.27500	1218
2.27867	1193
2.28233	1169
2.28600	1146
2.28967	1126
2.29333	1111
2.29700	1101
2.30067	1091
2.30433	1078
2.30800	1065
2.31167	1051
2.31533	1037
2.31900	1022
2.32267	1007
2.32633	991
2.33000	974
2.33367	959
2.33733	945
2.34100	932
2.34467	923
2.34833	916
2.35200	904
2.35567	887
2.35933	873
2.36300	857
2.36667	841
2.37033	828
2.37400	822
2.37767	818
2.38133	818
2.38500	821
2.38867	822
2.39233	818
2.39600	810
2.39967	801
2.40333	791
2.40700	778
2.41067	765
2.41433	751
2.41800	739
2.42167	734
2.42533	730
2.42900	724
2.43267	717
2.43633	711
2.44000	706
2.44367	704
2.44733	707
2.45100	718
2.45467	731
2.45833	737
2.46200	733
2.46567	722
2.46933	706
2.47300	690
2.47667	677
2.48033	665
2.48400	652
2.48767	642
2.49133	638
2.49500	640
2.49867	640
2.50233	636
2.50600	632
2.50967	629
2.51333	628
2.51700	627
2.52067	629
2.52433	630
2.52800	627
2.53167	622
2.53533	618
2.53900	618
2.54267	619
2.54633	622
2.55000	625
2.55367	628
2.55733	628
2.56100	624
2.56467	617
2.56833	609
2.57200	602
2.57567	596
2.57933	592
2.58300	581
2.58667	564
2.59033	553
2.59400	550
2.59767	551
2.60133	554
2.60500	559
2.60867	564
2.61233	570
2.61600	568
2.61967	564
2.62333	561
2.62700	557
2.63067	552
2.63433	549
2.63800	548
2.64167	549
2.64533	549
2.64900	547
2.65267	546
2.65633	547
2.66000	552
2.66367	559
2.66733	559
2.67100	553
2.67467	548
2.67833	543
2.68200	538
2.68567	534
2.68933	534
2.69300	536
2.69667	541
2.70033	548
2.70400	553
2.70767	555
2.71133	557
2.71500	555
2.71867	546
2.72233	537
2.72600	532
2.72967	533
2.73333	529
2.73700	524
2.74067	527
2.74433	533
2.74800	538
2.75167	542
2.75533	540
2.75900	536
2.76267	539
2.76633	543
2.77000	543
2.77367	540
2.77733	535
2.78100	529
2.78467	524
2.78833	517
2.79200	514
2.79567	514
2.79933	517
2.80300	521
2.80667	523
2.81033	526
2.81400	529
2.81767	535
2.82133	542
2.82500	541
2.82867	536
2.83233	530
2.83600	526
2.83967	523
2.84333	518
2.84700	516
2.85067	516
2.85433	515
2.85800	513
2.86167	518
2.86533	523
2.86900	527
2.87267	530
2.87633	539
2.88000	549
2.88367	556
2.88733	558
2.89100	554
2.89467	547
2.89833	542
2.90200	544
2.90567	552
2.90933	560
2.91300	561
2.91667	554
2.92033	540
2.92400	523
2.92767	508
2.93133	500
2.93500	497
2.93867	496
2.94233	497
2.94600	503
2.94967	512
2.95333	520
2.95700	525
2.96067	531
2.96433	535
2.96800	537
2.97167	543
2.97533	550
2.97900	552
2.98267	548
2.98633	542
2.99000	538
2.99367	539
2.99733	543
3.00100	549
3.00467	553
3.00833	559
3.01200	565
3.01567	564
3.01933	557
3.02300	543
3.02667	526
3.03033	512
3.03400	502
3.03767	498
3.04133	498
3.04500	503
3.04867	512
3.05233	519
3.05600	521
3.05967	519
3.06333	516
3.06700	514
3.07067	514
3.07433	517
3.07800	522
3.08167	524
3.08533	525
3.08900	524
3.09267	525
3.09633	531
3.10000	538
3.10367	543
3.10733	547
3.11100	549
3.11467	546
3.11833	545
3.12200	555
3.12567	571
3.12933	580
3.13300	579
3.13667	569
3.14033	558
3.14400	551
3.14767	552
3.15133	557
3.15500	559
3.15867	558
3.16233	548
3.16600	536
3.16967	524
3.17333	516
3.17700	516
3.18067	516
3.18433	514
3.18800	513
3.19167	518
3.19533	526
3.19900	536
3.20267	545
3.20633	546
3.21000	547
3.21367	546
3.21733	547
3.22100	553
3.22467	561
3.22833	567
3.23200	572
3.23567	577
3.23933	577
3.24300	569
3.24667	557
3.25033	546
3.25400	540
3.25767	534
3.26133	533
3.26500	544
3.26867	555
3.27233	562
3.27600	566
3.27967	569
3.28333	572
3.28700	573
3.29067	570
3.29433	565
3.29800	559
3.30167	556
3.30533	556
3.30900	554
3.31267	557
3.31633	559
3.32000	563
3.32367	566
3.32733	565
3.33100	564
3.33467	563
3.33833	561
3.34200	561
3.34567	562
3.34933	567
3.35300	578
3.35667	596
3.36033	617
3.36400	626
3.36767	624
3.37133	614
3.37500	595
3.37867	568
3.38233	541
3.38600	520
3.38967	508
3.39333	502
3.39700	500
3.40067	499
3.40433	502
3.40800	506
3.41167	512
3.41533	517
3.41900	523
3.42267	530
3.42633	536
3.43000	541
3.43367	545
3.43733	549
3.44100	554
3.44467	560
3.44833	566
3.45200	570
3.45567	569
3.45933	567
3.46300	571
3.46667	579
3.47033	584
3.47400	581
3.47767	575
3.48133	568
3.48500	563
3.48867	558
3.49233	555
3.49600	557
3.49967	559
3.50333	562
3.50700	561
3.51067	557
3.51433	551
3.51800	549
3.52167	553
3.52533	554
3.52900	552
3.53267	550
3.53633	546
3.54000	543
3.54367	542
3.54733	542
3.55100	548
3.55467	554
3.55833	558
3.56200	563
3.56567	564
3.56933	557
3.57300	552
3.57667	549
3.58033	550
3.58400	552
3.58767	556
3.59133	565
3.59500	572
3.59867	571
3.60233	566
3.60600	563
3.60967	566
3.61333	573
3.61700	576
3.62067	572
3.62433	562
3.62800	554
3.63167	548
3.63533	540
3.63900	531
3.64267	524
3.64633	521
3.65000	526
3.65367	537
3.65733	547
3.66100	553
3.66467	556
3.66833	555
3.67200	549
3.67567	543
3.67933	539
3.68300	538
3.68667	541
3.69033	544
3.69400	547
3.69767	543
3.70133	533
3.70500	525
3.70867	522
3.71233	525
3.71600	528
3.71967	529
3.72333	536
3.72700	550
3.73067	562
3.73433	566
3.73800	566
3.74167	567
3.74533	567
3.74900	564
3.75267	562
3.75633	567
3.76000	571
3.76367	571
3.76733	564
3.77100	552
3.77467	538
3.77833	526
3.78200	518
3.78567	514
3.78933	517
3.79300	519
3.79667	528
3.80033	534
3.80400	533
3.80767	530
3.81133	531
3.81500	528
3.81867	528
3.82233	531
3.82600	535
3.82967	539
3.83333	540
3.83700	540
3.84067	541
3.84433	539
3.84800	540
3.85167	544
3.85533	548
3.85900	551
3.86267	551
3.86633	549
3.87000	547
3.87367	547
3.87733	547
3.88100	543
3.88467	540
3.88833	538
3.89200	538
3.89567	541
3.89933	549
3.90300	555
3.90667	558
3.91033	554
3.91400	546
3.91767	540
3.92133	540
3.92500	541
3.92867	539
3.93233	534
3.93600	529
3.93967	526
3.94333	522
3.94700	516
3.95067	512
3.95433	516
3.95800	524
3.96167	533
3.96533	536
3.96900	533
3.97267	527
3.97633	524
3.98000	527
3.98367	530
3.98733	527
3.99100	526
3.99467	526
3.99833	526

[Chromatogram (Ch2)]
Interval(msec)	220
# of Points	1091
Start Time(min)	0.002
End Time(min)	3.998
R.Time (min)	Intensity
0.00167	-0
0.00533	-0
0.00900	0
0.01267	0
0.01633	1
0.02000	1
0.02367	1
0.02733	1
0.03100	0
0.03467	0
0.03833	0
0.04200	-0
0.04567	-0
0.04933	-0
0.05300	-0
0.05667	0
0.06033	1
0.06400	1
0.06767	1
0.07133	1
0.07500	1
0.07867	1
0.08233	2
0.08600	2
0.08967	2
0.09333	3
0.09700	3
0.10067	3
0.10433	2
0.10800	2
0.11167	1
0.11533	1
0.11900	1
0.12267	1
0.12633	0
0.13000	0
0.13367	-0
0.13733	-0
0.14100	0
0.14467	0
0.14833	0
0.15200	0
0.15567	0
0.15933	0
0.16300	-0
0.16667	-1
0.17033	-1
0.17400	-2
0.17767	-2
0.18133	-3
0.18500	-3
0.18867	-3
0.19233	-3
0.19600	-2
0.19967	-2
0.20333	-2
0.20700	-2
0.21067	-1
0.21433	-1
0.21800	-1
0.22167	-1
0.22533	-1
0.22900	-2
0.23267	-2
0.23633	-2
0.24000	-2
0.24367	-2
0.24733	-2
0.25100	-2
0.25467	-1
0.25833	-1
0.26200	-1
0.26567	-1
0.26933	-1
0.27300	-1
0.27667	-1
0.28033	-1
0.28400	-1
0.28767	-0
0.29133	0
0.29500	1
0.29867	1
0.30233	2
0.30600	3
0.30967	3
0.31333	4
0.31700	4
0.32067	4
0.32433	4
0.32800	3
0.33167	3
0.33533	2
0.33900	1
0.34267	0
0.34633	-0
0.35000	-1
0.35367	-1
0.35733	-1
0.36100	-2
0.36467	-1
0.36833	-1
0.37200	-1
0.37567	-1
0.37933	-1
0.38300	-0
0.38667	-0
0.39033	-0
0.39400	0
0.39767	0
0.40133	0
0.40500	0
0.40867	0
0.41233	1
0.41600	1
0.41967	1
0.42333	1
0.42700	1
0.43067	1
0.43433	1
0.43800	1
0.44167	1
0.44533	0
0.44900	0
0.45267	1
0.45633	1
0.46000	1
0.46367	1
0.46733	1
0.47100	1
0.47467	1
0.47833	0
0.48200	0
0.48567	0
0.48933	1
0.49300	1
0.49667	1
0.50033	1
0.50400	1
0.50767	1
0.51133	1
0.51500	1
0.51867	1
0.52233	1
0.52600	1
0.52967	1
0.53333	1
0.53700	1
0.54067	1
0.54433	1
0.54800	2
0.55167	2
0.55533	1
0.55900	2
0.56267	2
0.56633	2
0.57000	2
0.57367	2
0.57733	1
0.58100	1
0.58467	1
0.58833	1
0.59200	1
0.59567	1
0.59933	1
0.60300	1
0.60667	2
0.61033	2
0.61400	2
0.61767	2
0.62133	1
0.62500	1
0.62867	1
0.63233	1
0.63600	0
0.63967	-0
0.64333	-1
0.64700	-1
0.65067	-1
0.65433	-1
0.65800	-2
0.66167	-2
0.66533	-1
0.66900	-1
0.67267	-1
0.67633	-1
0.68000	-1
0.68367	-1
0.68733	-1
0.69100	-1
0.69467	-2
0.69833	-2
0.70200	-2
0.70567	-2
0.70933	-2
0.71300	-2
0.71667	-2
0.72033	-2
0.72400	-1
0.72767	-1
0.73133	-0
0.73500	-0
0.73867	0
0.74233	0
0.74600	0
0.74967	1
0.75333	1
0.75700	1
0.76067	1
0.76433	0
0.76800	0
0.77167	0
0.77533	0
0.77900	0
0.78267	0
0.78633	0
0.79000	0
0.79367	1
0.79733	1
0.80100	1
0.80467	1
0.80833	2
0.81200	2
0.81567	2
0.81933	3
0.82300	3
0.82667	3
0.83033	4
0.83400	4
0.83767	4
0.84133	4
0.84500	4
0.84867	4
0.85233	3
0.85600	3
0.85967	3
0.86333	2
0.86700	2
0.87067	1
0.87433	1
0.87800	0
0.88167	-0
0.88533	-1
0.88900	-1
0.89267	-1
0.89633	-1
0.90000	-1
0.90367	-1
0.90733	-1
0.91100	-0
0.91467	-0
0.91833	-0
0.92200	-1
0.92567	-1
0.92933	-1
0.93300	-1
0.93667	-1
0.94033	-1
0.94400	-1
0.94767	-1
0.95133	-1
0.95500	-1
0.95867	-0
0.96233	0
0.96600	1
0.96967	1
0.97333	1
0.97700	2
0.98067	2
0.98433	2
0.98800	3
0.99167	3
0.99533	3
0.99900	3
1.00267	3
1.00633	3
1.01000	3
1.01367	2
1.01733	2
1.02100	2
1.02467	2
1.02833	1
1.03200	1
1.03567	1
1.03933	1
1.04300	1
1.04667	1
1.05033	0
1.05400	0
1.05767	0
1.06133	0
1.06500	0
1.06867	0
1.07233	0
1.07600	0
1.07967	0
1.08333	0
1.08700	-0
1.09067	-1
1.09433	-1
1.09800	-0
1.10167	-0
1.10533	0
1.10900	1
1.11267	2
1.11633	2
1.12000	3
1.12367	3
1.12733	3
1.13100	4
1.13467	4
1.13833	3
1.14200	3
1.14567	3
1.14933	3
1.15300	3
1.15667	3
1.16033	3
1.16400	3
1.16767	3
1.17133	3
1.17500	3
1.17867	3
1.18233	3
1.18600	3
1.18967	3
1.19333	2
1.19700	2
1.20067	2
1.20433	1
1.20800	1
1.21167	1
1.21533	1
1.21900	1
1.22267	1
1.22633	1
1.23000	1
1.23367	2
1.23733	2
1.24100	2
1.24467	3
1.24833	3
1.25200	3
1.25567	3
1.25933	3
1.26300	4
1.26667	4
1.27033	4
1.27400	5
1.27767	5
1.28133	5
1.28500	5
1.28867	6
1.29233	6
1.29600	6
1.29967	6
1.30333	6
1.30700	5
1.31067	5
1.31433	4
1.31800	3
1.32167	3
1.32533	2
1.32900	2
1.33267	1
1.33633	1
1.34000	1
1.34367	1
1.34733	1
1.35100	1
1.35467	1
1.35833	1
1.36200	1
1.36567	1
1.36933	1
1.37300	1
1.37667	1
1.38033	1
1.38400	0
1.38767	0
1.39133	-0
1.39500	-0
1.39867	-1
1.40233	-1
1.40600	-0
1.40967	-0
1.41333	-0
1.41700	-0
1.42067	-0
1.42433	-0
1.42800	-0
1.43167	-0
1.43533	0
1.43900	0
1.44267	1
1.44633	1
1.45000	1
1.45367	1
1.45733	1
1.46100	1
1.46467	1
1.46833	1
1.47200	1
1.47567	1
1.47933	0
1.48300	-0
1.48667	-0
1.49033	-0
1.49400	-0
1.49767	-0
1.50133	0
1.50500	0
1.50867	1
1.51233	1
1.51600	1
1.51967	1
1.52333	1
1.52700	1
1.53067	1
1.53433	2
1.53800	2
1.54167	3
1.54533	4
1.54900	4
1.55267	4
1.55633	4
1.56000	4
1.56367	4
1.56733	4
1.57100	4
1.57467	4
1.57833	4
1.58200	4
1.58567	4
1.58933	3
1.59300	3
1.59667	2
1.60033	1
1.60400	0
1.60767	-1
1.61133	-3
1.61500	-5
1.61867	-7
1.62233	-9
1.62600	-12
1.62967	-15
1.63333	-19
1.63700	-22
1.64067	-26
1.64433	-30
1.64800	-34
1.65167	-38
1.65533	-42
1.65900	-46
1.66267	-50
1.66633	-55
1.67000	-59
1.67367	-64
1.67733	-69
1.68100	-74
1.68467	-78
1.68833	-82
1.69200	-86
1.69567	-89
1.69933	-92
1.70300	-94
1.70667	-96
1.71033	-98
1.71400	-99
1.71767	-99
1.72133	-100
1.72500	-100
1.72867	-100
1.73233	-100
1.73600	-100
1.73967	-101
1.74333	-102
1.74700	-102
1.75067	-103
1.75433	-104
1.75800	-105
1.76167	-105
1.76533	-106
1.76900	-107
1.77267	-107
1.77633	-107
1.78000	-107
1.78367	-107
1.78733	-106
1.79100	-106
1.79467	-106
1.79833	-106
1.80200	-107
1.80567	-107
1.80933	-107
1.81300	-107
1.81667	-107
1.82033	-106
1.82400	-106
1.82767	-106
1.83133	-106
1.83500	-106
1.83867	-107
1.84233	-108
1.84600	-109
1.84967	-109
1.85333	-110
1.85700	-110
1.86067	-110
1.86433	-109
1.86800	-109
1.87167	-109
1.87533	-109
1.87900	-108
1.88267	-108
1.88633	-108
1.89000	-109
1.89367	-109
1.89733	-109
1.90100	-109
1.90467	-109
1.90833	-108
1.91200	-108
1.91567	-107
1.91933	-107
1.92300	-107
1.92667	-107
1.93033	-107
1.93400	-107
1.93767	-106
1.94133	-106
1.94500	-106
1.94867	-106
1.95233	-106
1.95600	-106
1.95967	-106
1.96333	-107
1.96700	-107
1.97067	-107
1.97433	-107
1.97800	-107
1.98167	-107
1.98533	-106
1.98900	-106
1.99267	-104
1.99633	-103
2.00000	-102
2.00367	-101
2.00733	-101
2.01100	-100
2.01467	-100
2.01833	-100
2.02200	-100
2.02567	-100
2.02933	-100
2.03300	-99
2.03667	-99
2.04033	-99
2.04400	-98
2.04767	-98
2.05133	-98
2.05500	-98
2.05867	-98
2.06233	-97
2.06600	-97
2.06967	-97
2.07333	-97
2.07700	-97
2.08067	-96
2.08433	-96
2.08800	-96
2.09167	-95
2.09533	-95
2.09900	-94
2.10267	-93
2.10633	-93
2.11000	-93
2.11367	-93
2.11733	-92
2.12100	-92
2.12467	-91
2.12833	-91
2.13200	-91
2.13567	-91
2.13933	-90
2.14300	-90
2.14667	-91
2.15033	-91
2.15400	-91
2.15767	-91
2.16133	-91
2.16500	-91
2.16867	-91
2.17233	-90
2.17600	-90
2.17967	-90
2.18333	-89
2.18700	-89
2.19067	-88
2.19433	-87
2.19800	-87
2.20167	-86
2.20533	-86
2.20900	-86
2.21267	-85
2.21633	-84
2.22000	-83
2.22367	-83
2.22733	-82
2.23100	-81
2.23467	-81
2.23833	-80
2.24200	-79
2.24567	-79
2.24933	-79
2.25300	-79
2.25667	-79
2.26033	-79
2.26400	-78
2.26767	-78
2.27133	-78
2.27500	-77
2.27867	-77
2.28233	-77
2.28600	-77
2.28967	-77
2.29333	-77
2.29700	-77
2.30067	-77
2.30433	-77
2.30800	-77
2.31167	-77
2.31533	-77
2.31900	-77
2.32267	-77
2.32633	-76
2.33000	-75
2.33367	-74
2.33733	-74
2.34100	-73
2.34467	-72
2.34833	-71
2.35200	-70
2.35567	-69
2.35933	-68
2.36300	-66
2.36667	-64
2.37033	-62
2.37400	-59
2.37767	-56
2.38133	-52
2.38500	-48
2.38867	-44
2.39233	-40
2.39600	-35
2.39967	-31
2.40333	-26
2.40700	-22
2.41067	-19
2.41433	-16
2.41800	-14
2.42167	-12
2.42533	-11
2.42900	-9
2.43267	-8
2.43633	-7
2.44000	-6
2.44367	-6
2.44733	-5
2.45100	-4
2.45467	-3
2.45833	-3
2.46200	-2
2.46567	-2
2.46933	-1
2.47300	0
2.47667	1
2.48033	2
2.48400	3
2.48767	5
2.49133	6
2.49500	8
2.49867	9
2.50233	10
2.50600	11
2.50967	11
2.51333	12
2.51700	13
2.52067	13
2.52433	14
2.52800	14
2.53167	15
2.53533	16
2.53900	16
2.54267	17
2.54633	17
2.55000	18
2.55367	19
2.55733	19
2.56100	19
2.56467	19
2.56833	19
2.57200	19
2.57567	20
2.57933	20
2.58300	21
2.58667	22
2.59033	23
2.59400	23
2.59767	24
2.60133	24
2.60500	24
2.60867	24
2.61233	24
2.61600	23
2.61967	23
2.62333	23
2.62700	23
2.63067	23
2.63433	23
2.63800	23
2.64167	23
2.64533	23
2.64900	24
2.65267	24
2.65633	24
2.66000	25
2.66367	25
2.66733	26
2.67100	26
2.67467	27
2.67833	27
2.68200	28
2.68567	28
2.68933	29
2.69300	29
2.69667	30
2.70033	30
2.70400	30
2.70767	29
2.71133	29
2.71500	29
2.71867	28
2.72233	28
2.72600	28
2.72967	28
2.73333	29
2.73700	29
2.74067	30
2.74433	30
2.74800	31
2.75167	31
2.75533	32
2.75900	32
2.76267	32
2.76633	32
2.77000	32
2.77367	32
2.77733	31
2.78100	31
2.78467	30
2.78833	30
2.79200	30
2.79567	30
2.79933	29
2.80300	30
2.80667	30
2.81033	30
2.81400	30
2.81767	30
2.82133	30
2.82500	29
2.82867	28
2.83233	25
2.83600	20
2.83967	12
2.84333	1
2.84700	-15
2.85067	-36
2.85433	-62
2.85800	-93
2.86167	-130
2.86533	-173
2.86900	-221
2.87267	-275
2.87633	-333
2.88000	-396
2.88367	-463
2.88733	-533
2.89100	-607
2.89467	-684
2.89833	-763
2.90200	-845
2.90567	-928
2.90933	-1013
2.91300	-1100
2.91667	-1188
2.92033	-1277
2.92400	-1368
2.92767	-1459
2.93133	-1552
2.93500	-1645
2.93867	-1741
2.94233	-1833
2.94600	-1908
2.94967	-1952
2.95333	-1954
2.95700	-1914
2.96067	-1835
2.96433	-1727
2.96800	-1600
2.97167	-1461
2.97533	-1319
2.97900	-1179
2.98267	-1046
2.98633	-921
2.99000	-806
2.99367	-701
2.99733	-608
3.00100	-525
3.00467	-452
3.00833	-388
3.01200	-332
3.01567	-283
3.01933	-241
3.02300	-205
3.02667	-174
3.03033	-148
3.03400	-125
3.03767	-106
3.04133	-89
3.04500	-75
3.04867	-62
3.05233	-52
3.05600	-43
3.05967	-35
3.06333	-29
3.06700	-23
3.07067	-19
3.07433	-14
3.07800	-11
3.08167	-8
3.08533	-5
3.08900	-2
3.09267	-0
3.09633	1
3.10000	3
3.10367	4
3.10733	5
3.11100	6
3.11467	7
3.11833	8
3.12200	8
3.12567	10
3.12933	10
3.13300	11
3.13667	12
3.14033	13
3.14400	14
3.14767	15
3.15133	16
3.15500	17
3.15867	18
3.16233	18
3.16600	19
3.16967	20
3.17333	20
3.17700	21
3.18067	21
3.18433	22
3.18800	22
3.19167	22
3.19533	23
3.19900	23
3.20267	23
3.20633	24
3.21000	24
3.21367	25
3.21733	25
3.22100	25
3.22467	26
3.22833	26
3.23200	27
3.23567	27
3.23933	27
3.24300	27
3.24667	27
3.25033	28
3.25400	28
3.25767	28
3.26133	28
3.26500	28
3.26867	28
3.27233	29
3.27600	29
3.27967	29
3.28333	29
3.28700	29
3.29067	29
3.29433	29
3.29800	29
3.30167	30
3.30533	30
3.30900	30
3.31267	30
3.31633	30
3.32000	31
3.32367	31
3.32733	31
3.33100	31
3.33467	31
3.33833	31
3.34200	31
3.34567	31
3.34933	31
3.35300	31
3.35667	31
3.36033	31
3.36400	32
3.36767	32
3.37133	33
3.37500	33
3.37867	34
3.38233	34
3.38600	35
3.38967	35
3.39333	35
3.39700	36
3.40067	36
3.40433	36
3.40800	36
3.41167	36
3.41533	36
3.41900	36
3.42267	37
3.42633	37
3.43000	37
3.43367	37
3.43733	37
3.44100	37
3.44467	37
3.44833	37
3.45200	37
3.45567	37
3.45933	38
3.46300	38
3.46667	38
3.47033	38
3.47400	37
3.47767	37
3.48133	37
3.48500	37
3.48867	36
3.49233	36
3.49600	36
3.49967	36
3.50333	35
3.50700	35
3.51067	35
3.51433	35
3.51800	34
3.52167	34
3.52533	34
3.52900	34
3.53267	34
3.53633	34
3.54000	34
3.54367	34
3.54733	34
3.55100	34
3.55467	34
3.55833	34
3.56200	34
3.56567	35
3.56933	35
3.57300	35
3.57667	35
3.58033	35
3.58400	35
3.58767	35
3.59133	35
3.59500	35
3.59867	35
3.60233	35
3.60600	35
3.60967	35
3.61333	35
3.61700	35
3.62067	35
3.62433	35
3.62800	35
3.63167	35
3.63533	35
3.63900	35
3.64267	35
3.64633	35
3.65000	35
3.65367	35
3.65733	35
3.66100	35
3.66467	35
3.66833	35
3.67200	35
3.67567	35
3.67933	34
3.68300	34
3.68667	34
3.69033	34
3.69400	34
3.69767	34
3.70133	34
3.70500	34
3.70867	34
3.71233	34
3.71600	34
3.71967	34
3.72333	34
3.72700	34
3.73067	34
3.73433	34
3.73800	34
3.74167	34
3.74533	34
3.74900	34
3.75267	34
3.75633	35
3.76000	35
3.76367	35
3.76733	35
3.77100	35
3.77467	35
3.77833	35
3.78200	35
3.78567	35
3.78933	35
3.79300	35
3.79667	35
3.80033	35
3.80400	35
3.80767	34
3.81133	34
3.81500	34
3.81867	34
3.82233	34
3.82600	34
3.82967	34
3.83333	35
3.83700	35
3.84067	35
3.84433	34
3.84800	34
3.85167	34
3.85533	34
3.85900	34
3.86267	34
3.86633	34
3.87000	34
3.87367	34
3.87733	35
3.88100	35
3.88467	34
3.88833	34
3.89200	34
3.89567	34
3.89933	34
3.90300	34
3.90667	34
3.91033	34
3.91400	33
3.91767	33
3.92133	33
3.92500	34
3.92867	34
3.93233	34
3.93600	34
3.93967	34
3.94333	34
3.94700	34
3.95067	34
3.95433	34
3.95800	35
3.96167	35
3.96533	35
3.96900	35
3.97267	35
3.97633	35
3.98000	35
3.98367	35
3.98733	35
3.99100	35
3.99467	34
3.99833	34

[Chromatogram (Ch3)]
Interval(msec)	220
# of Points	1091
Start Time(min)	0.002
End Time(min)	3.998
R.Time (min)	Intensity
0.00167	-1
0.00533	-1
0.00900	-2
0.01267	0
0.01633	0
0.02000	-3
0.02367	-5
0.02733	-6
0.03100	-5
0.03467	-4
0.03833	-5
0.04200	-5
0.04567	-5
0.04933	-4
0.05300	-3
0.05667	-2
0.06033	-2
0.06400	-2
0.06767	-3
0.07133	-3
0.07500	-3
0.07867	-3
0.08233	-2
0.08600	0
0.08967	2
0.09333	1
0.09700	2
0.10067	2
0.10433	-0
0.10800	-2
0.11167	-2
0.11533	-1
0.11900	0
0.12267	-0
0.12633	-1
0.13000	-1
0.13367	-1
0.13733	-3
0.14100	-4
0.14467	-4
0.14833	-3
0.15200	-3
0.15567	-2
0.15933	-1
0.16300	-1
0.16667	-3
0.17033	-5
0.17400	-5
0.17767	-7
0.18133	-10
0.18500	-9
0.18867	-8
0.19233	-7
0.19600	-4
0.19967	-1
0.20333	0
0.20700	-0
0.21067	-1
0.21433	-3
0.21800	-2
0.22167	-1
0.22533	-2
0.22900	-5
0.23267	-5
0.23633	-5
0.24000	-5
0.24367	-6
0.24733	-6
0.25100	-2
0.25467	1
0.25833	0
0.26200	-1
0.26567	-1
0.26933	-1
0.27300	-2
0.27667	-3
0.28033	-2
0.28400	-1
0.28767	1
0.29133	-1
0.29500	-4
0.29867	-4
0.30233	-2
0.30600	-0
0.30967	-0
0.31333	-1
0.31700	-1
0.32067	-2
0.32433	-2
0.32800	-2
0.33167	-2
0.33533	-3
0.33900	-3
0.34267	-2
0.34633	-3
0.35000	-3
0.35367	-3
0.35733	-4
0.36100	-5
0.36467	-5
0.36833	-4
0.37200	-3
0.37567	-2
0.37933	-1
0.38300	1
0.38667	1
0.39033	0
0.39400	-0
0.39767	-1
0.40133	-0
0.40500	-1
0.40867	-1
0.41233	1
0.41600	1
0.41967	-0
0.42333	-2
0.42700	-4
0.43067	-3
0.43433	-3
0.43800	-2
0.44167	2
0.44533	1
0.44900	-2
0.45267	-3
0.45633	-3
0.46000	-2
0.46367	-0
0.46733	-1
0.47100	0
0.47467	2
0.47833	4
0.48200	5
0.48567	3
0.48933	2
0.49300	0
0.49667	-0
0.50033	1
0.50400	4
0.50767	4
0.51133	3
0.51500	2
0.51867	1
0.52233	1
0.52600	2
0.52967	3
0.53333	2
0.53700	1
0.54067	-0
0.54433	-0
0.54800	0
0.55167	1
0.55533	2
0.55900	1
0.56267	-1
0.56633	-2
0.57000	-2
0.57367	-2
0.57733	-0
0.58100	1
0.58467	3
0.58833	5
0.59200	6
0.59567	6
0.59933	6
0.60300	5
0.60667	4
0.61033	4
0.61400	2
0.61767	1
0.62133	1
0.62500	-1
0.62867	-1
0.63233	-0
0.63600	0
0.63967	2
0.64333	3
0.64700	4
0.65067	4
0.65433	6
0.65800	8
0.66167	7
0.66533	7
0.66900	6
0.67267	5
0.67633	4
0.68000	3
0.68367	3
0.68733	2
0.69100	1
0.69467	-2
0.69833	-2
0.70200	-3
0.70567	-2
0.70933	0
0.71300	2
0.71667	2
0.72033	2
0.72400	2
0.72767	1
0.73133	-1
0.73500	-2
0.73867	-0
0.74233	0
0.74600	-1
0.74967	-1
0.75333	-1
0.75700	-0
0.76067	2
0.76433	3
0.76800	4
0.77167	3
0.77533	2
0.77900	1
0.78267	0
0.78633	1
0.79000	2
0.79367	4
0.79733	6
0.80100	7
0.80467	7
0.80833	6
0.81200	6
0.81567	6
0.81933	6
0.82300	6
0.82667	6
0.83033	5
0.83400	4
0.83767	0
0.84133	-2
0.84500	-2
0.84867	-2
0.85233	-0
0.85600	1
0.85967	1
0.86333	3
0.86700	4
0.87067	5
0.87433	4
0.87800	1
0.88167	1
0.88533	1
0.88900	1
0.89267	-0
0.89633	1
0.90000	2
0.90367	2
0.90733	4
0.91100	3
0.91467	3
0.91833	3
0.92200	2
0.92567	2
0.92933	2
0.93300	2
0.93667	5
0.94033	6
0.94400	5
0.94767	3
0.95133	2
0.95500	4
0.95867	6
0.96233	7
0.96600	8
0.96967	9
0.97333	9
0.97700	10
0.98067	11
0.98433	9
0.98800	7
0.99167	5
0.99533	5
0.99900	5
1.00267	5
1.00633	3
1.01000	1
1.01367	-1
1.01733	-3
1.02100	-2
1.02467	0
1.02833	1
1.03200	1
1.03567	-1
1.03933	-2
1.04300	-2
1.04667	-2
1.05033	-1
1.05400	1
1.05767	4
1.06133	5
1.06500	5
1.06867	3
1.07233	5
1.07600	4
1.07967	3
1.08333	2
1.08700	2
1.09067	1
1.09433	0
1.09800	0
1.10167	-1
1.10533	-2
1.10900	-3
1.11267	-2
1.11633	-2
1.12000	-3
1.12367	-0
1.12733	4
1.13100	5
1.13467	6
1.13833	5
1.14200	4
1.14567	3
1.14933	5
1.15300	5
1.15667	2
1.16033	1
1.16400	2
1.16767	2
1.17133	3
1.17500	5
1.17867	4
1.18233	3
1.18600	2
1.18967	1
1.19333	1
1.19700	0
1.20067	1
1.20433	3
1.20800	4
1.21167	4
1.21533	2
1.21900	0
1.22267	-2
1.22633	-0
1.23000	2
1.23367	3
1.23733	3
1.24100	3
1.24467	1
1.24833	1
1.25200	2
1.25567	3
1.25933	1
1.26300	-1
1.26667	-1
1.27033	-2
1.27400	-2
1.27767	-3
1.28133	-4
1.28500	-3
1.28867	-3
1.29233	-3
1.29600	-3
1.29967	-3
1.30333	-1
1.30700	-1
1.31067	-1
1.31433	-2
1.31800	-2
1.32167	-2
1.32533	-3
1.32900	-1
1.33267	2
1.33633	3
1.34000	4
1.34367	2
1.34733	-1
1.35100	-2
1.35467	-1
1.35833	-1
1.36200	-1
1.36567	-2
1.36933	-3
1.37300	-3
1.37667	-3
1.38033	-0
1.38400	2
1.38767	4
1.39133	4
1.39500	4
1.39867	3
1.40233	0
1.40600	0
1.40967	2
1.41333	1
1.41700	0
1.42067	-1
1.42433	-0
1.42800	1
1.43167	3
1.43533	3
1.43900	2
1.44267	1
1.44633	-0
1.45000	-2
1.45367	-3
1.45733	0
1.46100	6
1.46467	9
1.46833	6
1.47200	4
1.47567	1
1.47933	-1
1.48300	-1
1.48667	1
1.49033	3
1.49400	3
1.49767	3
1.50133	2
1.50500	-1
1.50867	-2
1.51233	-2
1.51600	-3
1.51967	-1
1.52333	-0
1.52700	-2
1.53067	-4
1.53433	-5
1.53800	-5
1.54167	-4
1.54533	-3
1.54900	0
1.55267	6
1.55633	8
1.56000	5
1.56367	3
1.56733	3
1.57100	3
1.57467	4
1.57833	6
1.58200	6
1.58567	5
1.58933	3
1.59300	2
1.59667	-0
1.60033	-1
1.60400	-4
1.60767	-3
1.61133	-2
1.61500	0
1.61867	2
1.62233	3
1.62600	0
1.62967	-2
1.63333	0
1.63700	4
1.64067	5
1.64433	4
1.64800	4
1.65167	3
1.65533	3
1.65900	4
1.66267	6
1.66633	6
1.67000	6
1.67367	4
1.67733	5
1.68100	8
1.68467	9
1.68833	11
1.69200	12
1.69567	9
1.69933	7
1.70300	7
1.70667	9
1.71033	10
1.71400	12
1.71767	11
1.72133	12
1.72500	12
1.72867	11
1.73233	11
1.73600	14
1.73967	15
1.74333	14
1.74700	12
1.75067	11
1.75433	11
1.75800	14
1.76167	16
1.76533	15
1.76900	15
1.77267	16
1.77633	16
1.78000	18
1.78367	18
1.78733	18
1.79100	17
1.79467	16
1.79833	13
1.80200	13
1.80567	17
1.80933	19
1.81300	19
1.81667	18
1.82033	19
1.82400	20
1.82767	21
1.83133	19
1.83500	19
1.83867	18
1.84233	16
1.84600	17
1.84967	18
1.85333	19
1.85700	19
1.86067	18
1.86433	18
1.86800	16
1.87167	15
1.87533	15
1.87900	16
1.88267	15
1.88633	15
1.89000	16
1.89367	19
1.89733	21
1.90100	21
1.90467	21
1.90833	19
1.91200	18
1.91567	18
1.91933	18
1.92300	19
1.92667	20
1.93033	21
1.93400	21
1.93767	24
1.94133	25
1.94500	23
1.94867	20
1.95233	20
1.95600	22
1.95967	23
1.96333	23
1.96700	25
1.97067	25
1.97433	25
1.97800	25
1.98167	25
1.98533	25
1.98900	25
1.99267	25
1.99633	24
2.00000	25
2.00367	25
2.00733	26
2.01100	28
2.01467	30
2.01833	31
2.02200	32
2.02567	32
2.02933	30
2.03300	29
2.03667	28
2.04033	29
2.04400	32
2.04767	32
2.05133	30
2.05500	29
2.05867	31
2.06233	31
2.06600	31
2.06967	32
2.07333	33
2.07700	33
2.08067	34
2.08433	35
2.08800	37
2.09167	37
2.09533	35
2.09900	31
2.10267	31
2.10633	32
2.11000	35
2.11367	37
2.11733	37
2.12100	37
2.12467	36
2.12833	35
2.13200	35
2.13567	34
2.13933	34
2.14300	34
2.14667	34
2.15033	37
2.15400	39
2.15767	40
2.16133	41
2.16500	42
2.16867	43
2.17233	44
2.17600	45
2.17967	44
2.18333	45
2.18700	45
2.19067	45
2.19433	48
2.19800	49
2.20167	50
2.20533	50
2.20900	49
2.21267	48
2.21633	48
2.22000	50
2.22367	54
2.22733	53
2.23100	50
2.23467	48
2.23833	47
2.24200	47
2.24567	47
2.24933	47
2.25300	47
2.25667	49
2.26033	53
2.26400	56
2.26767	60
2.27133	61
2.27500	62
2.27867	62
2.28233	62
2.28600	60
2.28967	60
2.29333	61
2.29700	61
2.30067	61
2.30433	62
2.30800	62
2.31167	62
2.31533	62
2.31900	60
2.32267	62
2.32633	63
2.33000	64
2.33367	64
2.33733	62
2.34100	60
2.34467	61
2.34833	62
2.35200	65
2.35567	67
2.35933	67
2.36300	68
2.36667	69
2.37033	69
2.37400	67
2.37767	68
2.38133	70
2.38500	71
2.38867	71
2.39233	74
2.39600	74
2.39967	75
2.40333	76
2.40700	77
2.41067	75
2.41433	75
2.41800	75
2.42167	75
2.42533	76
2.42900	77
2.43267	80
2.43633	82
2.44000	85
2.44367	121
2.44733	215
2.45100	317
2.45467	404
2.45833	462
2.46200	476
2.46567	460
2.46933	432
2.47300	410
2.47667	398
2.48033	396
2.48400	392
2.48767	376
2.49133	351
2.49500	324
2.49867	296
2.50233	272
2.50600	255
2.50967	244
2.51333	235
2.51700	231
2.52067	234
2.52433	242
2.52800	254
2.53167	268
2.53533	281
2.53900	287
2.54267	289
2.54633	284
2.55000	274
2.55367	258
2.55733	241
2.56100	223
2.56467	206
2.56833	190
2.57200	180
2.57567	173
2.57933	168
2.58300	163
2.58667	155
2.59033	147
2.59400	136
2.59767	120
2.60133	101
2.60500	78
2.60867	52
2.61233	27
2.61600	1
2.61967	-21
2.62333	-38
2.62700	-51
2.63067	-60
2.63433	-66
2.63800	-68
2.64167	-65
2.64533	-60
2.64900	-52
2.65267	-42
2.65633	-33
2.66000	-24
2.66367	-13
2.66733	-0
2.67100	11
2.67467	19
2.67833	23
2.68200	27
2.68567	33
2.68933	38
2.69300	43
2.69667	45
2.70033	45
2.70400	44
2.70767	42
2.71133	42
2.71500	43
2.71867	44
2.72233	44
2.72600	45
2.72967	47
2.73333	48
2.73700	46
2.74067	45
2.74433	47
2.74800	47
2.75167	49
2.75533	52
2.75900	55
2.76267	57
2.76633	61
2.77000	64
2.77367	65
2.77733	67
2.78100	69
2.78467	72
2.78833	75
2.79200	78
2.79567	81
2.79933	84
2.80300	86
2.80667	93
2.81033	111
2.81400	159
2.81767	272
2.82133	509
2.82500	941
2.82867	1641
2.83233	2663
2.83600	4024
2.83967	5699
2.84333	7624
2.84700	9706
2.85067	11833
2.85433	13896
2.85800	15781
2.86167	17384
2.86533	18615
2.86900	19411
2.87267	19742
2.87633	19621
2.88000	19093
2.88367	18235
2.88733	17132
2.89100	15871
2.89467	14533
2.89833	13182
2.90200	11865
2.90567	10614
2.90933	9446
2.91300	8370
2.91667	7391
2.92033	6512
2.92400	5724
2.92767	5024
2.93133	4405
2.93500	3858
2.93867	3377
2.94233	2954
2.94600	2584
2.94967	2261
2.95333	1979
2.95700	1732
2.96067	1518
2.96433	1333
2.96800	1172
2.97167	1034
2.97533	914
2.97900	811
2.98267	721
2.98633	645
2.99000	578
2.99367	521
2.99733	470
3.00100	428
3.00467	393
3.00833	364
3.01200	335
3.01567	309
3.01933	288
3.02300	270
3.02667	254
3.03033	240
3.03400	228
3.03767	215
3.04133	204
3.04500	193
3.04867	185
3.05233	180
3.05600	176
3.05967	170
3.06333	165
3.06700	161
3.07067	158
3.07433	155
3.07800	152
3.08167	148
3.08533	144
3.08900	142
3.09267	139
3.09633	137
3.10000	136
3.10367	136
3.10733	136
3.11100	134
3.11467	133
3.11833	134
3.12200	135
3.12567	134
3.12933	133
3.13300	131
3.13667	130
3.14033	128
3.14400	126
3.14767	123
3.15133	122
3.15500	122
3.15867	121
3.16233	122
3.16600	122
3.16967	123
3.17333	122
3.17700	121
3.18067	120
3.18433	120
3.18800	120
3.19167	121
3.19533	122
3.19900	123
3.20267	122
3.20633	119
3.21000	117
3.21367	118
3.21733	119
3.22100	119
3.22467	120
3.22833	122
3.23200	122
3.23567	120
3.23933	120
3.24300	118
3.24667	118
3.25033	118
3.25400	121
3.25767	122
3.26133	120
3.26500	117
3.26867	115
3.27233	116
3.27600	117
3.27967	116
3.28333	118
3.28700	119
3.29067	119
3.29433	117
3.29800	114
3.30167	111
3.30533	109
3.30900	108
3.31267	108
3.31633	107
3.32000	107
3.32367	109
3.32733	111
3.33100	112
3.33467	111
3.33833	110
3.34200	109
3.34567	109
3.34933	108
3.35300	107
3.35667	107
3.36033	106
3.36400	105
3.36767	105
3.37133	105
3.37500	105
3.37867	105
3.38233	104
3.38600	103
3.38967	105
3.39333	105
3.39700	104
3.40067	106
3.40433	109
3.40800	111
3.41167	108
3.41533	104
3.41900	99
3.42267	98
3.42633	99
3.43000	101
3.43367	105
3.43733	107
3.44100	107
3.44467	107
3.44833	107
3.45200	108
3.45567	107
3.45933	108
3.46300	108
3.46667	105
3.47033	105
3.47400	105
3.47767	103
3.48133	102
3.48500	103
3.48867	105
3.49233	105
3.49600	107
3.49967	108
3.50333	110
3.50700	113
3.51067	113
3.51433	114
3.51800	114
3.52167	114
3.52533	114
3.52900	114
3.53267	113
3.53633	113
3.54000	115
3.54367	115
3.54733	116
3.55100	116
3.55467	115
3.55833	117
3.56200	120
3.56567	119
3.56933	117
3.57300	115
3.57667	115
3.58033	116
3.58400	118
3.58767	121
3.59133	121
3.59500	121
3.59867	122
3.60233	123
3.60600	123
3.60967	121
3.61333	118
3.61700	115
3.62067	114
3.62433	115
3.62800	118
3.63167	119
3.63533	120
3.63900	121
3.64267	121
3.64633	121
3.65000	119
3.65367	119
3.65733	120
3.66100	119
3.66467	118
3.66833	117
3.67200	116
3.67567	117
3.67933	117
3.68300	113
3.68667	112
3.69033	115
3.69400	117
3.69767	121
3.70133	121
3.70500	119
3.70867	118
3.71233	115
3.71600	113
3.71967	113
3.72333	110
3.72700	110
3.73067	110
3.73433	109
3.73800	108
3.74167	109
3.74533	111
3.74900	111
3.75267	110
3.75633	110
3.76000	108
3.76367	106
3.76733	107
3.77100	106
3.77467	106
3.77833	107
3.78200	108
3.78567	109
3.78933	111
3.79300	111
3.79667	110
3.80033	109
3.80400	107
3.80767	104
3.81133	100
3.81500	97
3.81867	96
3.82233	95
3.82600	95
3.82967	95
3.83333	94
3.83700	95
3.84067	95
3.84433	95
3.84800	95
3.85167	95
3.85533	95
3.85900	95
3.86267	94
3.86633	91
3.87000	92
3.87367	94
3.87733	92
3.88100	89
3.88467	88
3.88833	88
3.89200	89
3.89567	90
3.89933	89
3.90300	89
3.90667	91
3.91033	91
3.91400	93
3.91767	92
3.92133	89
3.92500	87
3.92867	87
3.93233	86
3.93600	85
3.93967	85
3.94333	84
3.94700	85
3.95067	85
3.95433	85
3.95800	84
3.96167	84
3.96533	83
3.96900	83
3.97267	82
3.97633	82
3.98000	82
3.98367	83
3.98733	81
3.99100	80
3.99467	80
3.99833	82

[Status Trace (Column Oven Temperature)]
Interval(msec)	1000
# of Points	240
Start Time(min)	0.004
End Time(min)	3.987
Intensity Units	
Intensity Multiplier	1
R.Time (min)	Intensity
0.00372	34.98
0.02038	34.99
0.03705	34.99
0.05372	34.99
0.07038	34.98
0.08705	34.97
0.10372	34.97
0.12038	34.97
0.13705	34.97
0.15372	34.97
0.17038	34.99
0.18705	35.00
0.20372	35.00
0.22038	35.01
0.23705	35.01
0.25372	35.02
0.27038	35.01
0.28705	35.01
0.30372	34.99
0.32038	34.98
0.33705	34.99
0.35372	35.00
0.37038	35.00
0.38705	35.00
0.40372	35.01
0.42038	34.99
0.43705	34.99
0.45372	34.98
0.47038	34.98
0.48705	34.99
0.50372	34.98
0.52038	34.98
0.53705	34.97
0.55372	34.97
0.57038	34.96
0.58705	34.96
0.60372	34.96
0.62038	34.96
0.63705	34.96
0.65372	34.97
0.67038	34.98
0.68705	35.00
0.70372	35.01
0.72038	35.00
0.73705	35.00
0.75372	35.01
0.77038	35.01
0.78705	35.00
0.80372	35.00
0.82038	34.98
0.83705	34.98
0.85372	34.98
0.87038	35.00
0.88705	35.01
0.90372	35.02
0.92038	35.03
0.93705	35.03
0.95372	35.03
0.97038	35.02
0.98705	35.02
1.00372	35.01
1.02038	35.01
1.03705	35.02
1.05372	35.01
1.07038	35.02
1.08705	35.04
1.10372	35.03
1.12038	35.02
1.13705	35.01
1.15372	35.00
1.17038	35.00
1.18705	35.00
1.20372	35.00
1.22038	35.01
1.23705	35.00
1.25372	34.99
1.27038	34.98
1.28705	34.96
1.30372	34.95
1.32038	34.96
1.33705	34.96
1.35372	34.97
1.37038	34.98
1.38705	34.99
1.40372	34.99
1.42038	34.99
1.43705	35.00
1.45372	35.00
1.47038	35.01
1.48705	35.01
1.50372	35.02
1.52038	35.01
1.53705	34.99
1.55372	34.98
1.57038	34.97
1.58705	34.98
1.60372	35.02
1.62038	35.12
1.63705	35.30
1.65372	35.55
1.67038	35.89
1.68705	36.26
1.70372	36.61
1.72038	36.93
1.73705	37.26
1.75372	37.60
1.77038	37.94
1.78705	38.25
1.80372	38.60
1.82038	38.92
1.83705	39.26
1.85372	39.59
1.87038	39.92
1.88705	40.25
1.90372	40.58
1.92038	40.92
1.93705	41.23
1.95372	41.57
1.97038	41.91
1.98705	42.21
2.00372	42.52
2.02038	42.86
2.03705	43.19
2.05372	43.51
2.07038	43.84
2.08705	44.18
2.10372	44.51
2.12038	44.82
2.13705	45.16
2.15372	45.49
2.17038	45.81
2.18705	46.15
2.20372	46.47
2.22038	46.79
2.23705	47.11
2.25372	47.46
2.27038	47.78
2.28705	48.11
2.30372	48.47
2.32038	48.81
2.33705	49.12
2.35372	49.41
2.37038	49.61
2.38705	49.68
2.40372	49.66
2.42038	49.67
2.43705	49.68
2.45372	49.70
2.47038	49.72
2.48705	49.72
2.50372	49.74
2.52038	49.74
2.53705	49.77
2.55372	49.78
2.57038	49.80
2.58705	49.79
2.60372	49.80
2.62038	49.83
2.63705	49.84
2.65372	49.85
2.67038	49.85
2.68705	49.84
2.70372	49.85
2.72038	49.86
2.73705	49.85
2.75372	49.85
2.77038	49.86
2.78705	49.87
2.80372	49.89
2.82038	49.90
2.83705	49.90
2.85372	49.90
2.87038	49.89
2.88705	49.88
2.90372	49.88
2.92038	49.89
2.93705	49.90
2.95372	49.91
2.97038	49.94
2.98705	49.95
3.00372	49.96
3.02038	49.98
3.03705	49.99
3.05372	50.00
3.07038	50.01
3.08705	50.03
3.10372	50.06
3.12038	50.08
3.13705	50.08
3.15372	50.09
3.17038	50.09
3.18705	50.09
3.20372	50.10
3.22038	50.09
3.23705	50.09
3.25372	50.09
3.27038	50.09
3.28705	50.09
3.30372	50.09
3.32038	50.10
3.33705	50.12
3.35372	50.12
3.37038	50.11
3.38705	50.08
3.40372	50.06
3.42038	50.04
3.43705	50.02
3.45372	50.00
3.47038	49.99
3.48705	49.99
3.50372	49.99
3.52038	50.00
3.53705	50.00
3.55372	50.00
3.57038	50.00
3.58705	50.00
3.60372	50.00
3.62038	50.00
3.63705	50.01
3.65372	50.00
3.67038	50.01
3.68705	50.02
3.70372	50.02
3.72038	50.03
3.73705	50.03
3.75372	50.03
3.77038	50.03
3.78705	50.03
3.80372	50.03
3.82038	50.03
3.83705	50.03
3.85372	50.03
3.87038	50.03
3.88705	50.03
3.90372	50.04
3.92038	50.04
3.93705	50.04
3.95372	50.04
3.97038	50.05
3.98705	50.07

[Status Trace (Injection Unit Temperature)]
Interval(msec)	1000
# of Points	240
Start Time(min)	0.004
End Time(min)	3.987
Intensity Units	
Intensity Multiplier	1
R.Time (min)	Intensity
0.00372	100.00
0.02038	100.00
0.03705	100.00
0.05372	100.01
0.07038	100.00
0.08705	100.00
0.10372	100.01
0.12038	100.00
0.13705	100.00
0.15372	100.00
0.17038	100.00
0.18705	100.00
0.20372	100.00
0.22038	100.00
0.23705	100.00
0.25372	100.00
0.27038	100.00
0.28705	100.00
0.30372	100.01
0.32038	100.01
0.33705	100.00
0.35372	100.00
0.37038	100.00
0.38705	100.00
0.40372	100.00
0.42038	100.00
0.43705	100.00
0.45372	100.01
0.47038	100.00
0.48705	100.00
0.50372	100.01
0.52038	100.00
0.53705	100.00
0.55372	100.01
0.57038	100.00
0.58705	100.00
0.60372	100.00
0.62038	100.00
0.63705	100.00
0.65372	100.00
0.67038	100.00
0.68705	100.00
0.70372	100.00
0.72038	100.00
0.73705	100.00
0.75372	100.00
0.77038	100.01
0.78705	100.01
0.80372	100.00
0.82038	100.00
0.83705	100.00
0.85372	100.00
0.87038	100.01
0.88705	100.00
0.90372	100.00
0.92038	100.00
0.93705	100.01
0.95372	100.00
0.97038	100.01
0.98705	100.01
1.00372	100.00
1.02038	100.00
1.03705	100.00
1.05372	100.00
1.07038	100.01
1.08705	100.00
1.10372	100.00
1.12038	99.99
1.13705	100.01
1.15372	100.00
1.17038	100.00
1.18705	100.00
1.20372	100.00
1.22038	100.01
1.23705	100.00
1.25372	100.01
1.27038	100.01
1.28705	100.00
1.30372	100.00
1.32038	100.00
1.33705	100.01
1.35372	100.00
1.37038	100.01
1.38705	100.01
1.40372	100.01
1.42038	100.01
1.43705	100.00
1.45372	100.01
1.47038	100.01
1.48705	100.00
1.50372	100.00
1.52038	100.00
1.53705	100.00
1.55372	100.00
1.57038	100.01
1.58705	100.00
1.60372	100.00
1.62038	100.00
1.63705	100.00
1.65372	100.00
1.67038	100.00
1.68705	100.00
1.70372	100.00
1.72038	100.00
1.73705	100.00
1.75372	100.00
1.77038	100.00
1.78705	100.00
1.80372	100.00
1.82038	100.00
1.83705	100.00
1.85372	100.00
1.87038	100.00
1.88705	100.00
1.90372	99.99
1.92038	99.99
1.93705	100.00
1.95372	100.00
1.97038	99.99
1.98705	99.99
2.00372	99.99
2.02038	99.99
2.03705	100.00
2.05372	99.99
2.07038	99.99
2.08705	99.99
2.10372	99.99
2.12038	99.99
2.13705	99.99
2.15372	99.99
2.17038	99.98
2.18705	99.99
2.20372	99.99
2.22038	99.98
2.23705	99.99
2.25372	99.98
2.27038	99.98
2.28705	99.98
2.30372	99.99
2.32038	99.98
2.33705	99.99
2.35372	99.99
2.37038	99.99
2.38705	99.98
2.40372	99.98
2.42038	99.98
2.43705	99.99
2.45372	99.98
2.47038	99.99
2.48705	99.98
2.50372	99.99
2.52038	99.99
2.53705	99.99
2.55372	99.99
2.57038	99.99
2.58705	99.98
2.60372	99.99
2.62038	99.99
2.63705	99.99
2.65372	99.99
2.67038	99.99
2.68705	99.99
2.70372	99.99
2.72038	99.99
2.73705	100.00
2.75372	100.00
2.77038	100.00
2.78705	100.00
2.80372	100.00
2.82038	100.00
2.83705	100.00
2.85372	100.01
2.87038	100.01
2.88705	100.00
2.90372	100.01
2.92038	100.01
2.93705	100.02
2.95372	100.01
2.97038	100.01
2.98705	100.01
3.00372	100.02
3.02038	100.02
3.03705	100.02
3.05372	100.02
3.07038	100.02
3.08705	100.02
3.10372	100.02
3.12038	100.03
3.13705	100.02
3.15372	100.02
3.17038	100.03
3.18705	100.03
3.20372	100.03
3.22038	100.03
3.23705	100.03
3.25372	100.03
3.27038	100.04
3.28705	100.04
3.30372	100.04
3.32038	100.04
3.33705	100.04
3.35372	100.04
3.37038	100.04
3.38705	100.04
3.40372	100.04
3.42038	100.04
3.43705	100.04
3.45372	100.04
3.47038	100.04
3.48705	100.04
3.50372	100.05
3.52038	100.05
3.53705	100.04
3.55372	100.04
3.57038	100.04
3.58705	100.05
3.60372	100.05
3.62038	100.05
3.63705	100.05
3.65372	100.05
3.67038	100.05
3.68705	100.05
3.70372	100.05
3.72038	100.05
3.73705	100.05
3.75372	100.05
3.77038	100.05
3.78705	100.05
3.80372	100.05
3.82038	100.05
3.83705	100.05
3.85372	100.04
3.87038	100.05
3.88705	100.05
3.90372	100.05
3.92038	100.05
3.93705	100.05
3.95372	100.05
3.97038	100.05
3.98705	100.05

[Status Trace (Carrier Gas Pressure)]
Interval(msec)	1000
# of Points	240
Start Time(min)	0.004
End Time(min)	3.987
Intensity Units	
Intensity Multiplier	1
R.Time (min)	Intensity
0.00372	58.00
0.02038	56.93
0.03705	57.99
0.05372	58.89
0.07038	58.03
0.08705	57.97
0.10372	58.00
0.12038	58.01
0.13705	58.00
0.15372	58.00
0.17038	58.00
0.18705	58.00
0.20372	58.00
0.22038	58.00
0.23705	58.00
0.25372	58.00
0.27038	58.00
0.28705	58.00
0.30372	58.00
0.32038	58.00
0.33705	58.00
0.35372	58.00
0.37038	58.00
0.38705	58.00
0.40372	58.00
0.42038	58.00
0.43705	58.00
0.45372	58.00
0.47038	58.00
0.48705	58.00
0.50372	58.00
0.52038	58.00
0.53705	58.00
0.55372	58.00
0.57038	58.00
0.58705	58.00
0.60372	58.00
0.62038	58.00
0.63705	58.00
0.65372	58.00
0.67038	58.00
0.68705	58.00
0.70372	58.00
0.72038	58.00
0.73705	58.00
0.75372	58.00
0.77038	58.00
0.78705	58.00
0.80372	58.00
0.82038	58.00
0.83705	58.00
0.85372	58.00
0.87038	58.00
0.88705	58.00
0.90372	58.00
0.92038	58.00
0.93705	58.00
0.95372	58.00
0.97038	58.00
0.98705	58.00
1.00372	58.00
1.02038	58.00
1.03705	58.00
1.05372	58.00
1.07038	58.00
1.08705	58.00
1.10372	58.00
1.12038	58.00
1.13705	58.00
1.15372	58.00
1.17038	58.00
1.18705	58.00
1.20372	58.00
1.22038	58.00
1.23705	58.00
1.25372	58.00
1.27038	58.00
1.28705	58.00
1.30372	58.00
1.32038	58.00
1.33705	58.00
1.35372	58.00
1.37038	58.00
1.38705	58.00
1.40372	58.00
1.42038	58.00
1.43705	58.00
1.45372	58.00
1.47038	58.00
1.48705	58.00
1.50372	58.00
1.52038	58.00
1.53705	58.00
1.55372	58.00
1.57038	58.00
1.58705	58.00
1.60372	58.00
1.62038	58.00
1.63705	58.01
1.65372	58.00
1.67038	58.01
1.68705	58.01
1.70372	58.00
1.72038	58.00
1.73705	58.00
1.75372	58.00
1.77038	58.00
1.78705	58.00
1.80372	58.00
1.82038	58.00
1.83705	58.00
1.85372	58.00
1.87038	58.00
1.88705	58.00
1.90372	58.00
1.92038	58.00
1.93705	58.00
1.95372	58.00
1.97038	58.00
1.98705	58.00
2.00372	58.00
2.02038	58.00
2.03705	58.00
2.05372	58.00
2.07038	58.00
2.08705	58.00
2.10372	58.00
2.12038	58.00
2.13705	58.00
2.15372	58.00
2.17038	58.00
2.18705	58.00
2.20372	58.00
2.22038	58.00
2.23705	58.00
2.25372	58.00
2.27038	58.00
2.28705	58.00
2.30372	58.00
2.32038	58.00
2.33705	58.00
2.35372	58.00
2.37038	58.00
2.38705	57.99
2.40372	57.99
2.42038	58.00
2.43705	58.00
2.45372	58.00
2.47038	58.00
2.48705	58.00
2.50372	57.98
2.52038	57.98
2.53705	57.99
2.55372	58.00
2.57038	58.00
2.58705	58.00
2.60372	58.00
2.62038	58.00
2.63705	58.00
2.65372	58.00
2.67038	58.00
2.68705	58.00
2.70372	58.00
2.72038	58.00
2.73705	58.00
2.75372	58.00
2.77038	58.00
2.78705	58.00
2.80372	58.00
2.82038	58.00
2.83705	58.00
2.85372	58.00
2.87038	58.00
2.88705	58.00
2.90372	58.00
2.92038	58.00
2.93705	58.00
2.95372	58.00
2.97038	58.00
2.98705	58.00
3.00372	58.00
3.02038	58.00
3.03705	58.00
3.05372	58.00
3.07038	58.00
3.08705	58.00
3.10372	58.00
3.12038	58.00
3.13705	58.00
3.15372	58.00
3.17038	58.00
3.18705	58.00
3.20372	58.00
3.22038	58.00
3.23705	58.00
3.25372	58.00
3.27038	58.00
3.28705	58.00
3.30372	58.00
3.32038	58.00
3.33705	58.00
3.35372	58.00
3.37038	58.00
3.38705	58.00
3.40372	58.00
3.42038	58.00
3.43705	58.00
3.45372	58.00
3.47038	58.00
3.48705	58.00
3.50372	58.00
3.52038	58.00
3.53705	58.00
3.55372	58.00
3.57038	58.00
3.58705	58.00
3.60372	58.00
3.62038	58.00
3.63705	58.00
3.65372	58.00
3.67038	58.00
3.68705	58.00
3.70372	58.00
3.72038	58.00
3.73705	58.00
3.75372	58.00
3.77038	58.00
3.78705	58.00
3.80372	58.00
3.82038	58.00
3.83705	58.00
3.85372	58.00
3.87038	58.00
3.88705	58.00
3.90372	58.00
3.92038	58.00
3.93705	58.00
3.95372	58.00
3.97038	58.00
3.98705	58.00

[Status Trace (Carrier Gas Flow)]
Interval(msec)	1000
# of Points	240
Start Time(min)	0.004
End Time(min)	3.987
Intensity Units	
Intensity Multiplier	1
R.Time (min)	Intensity
0.00372	34.52
0.02038	34.55
0.03705	34.55
0.05372	34.50
0.07038	34.52
0.08705	34.52
0.10372	34.51
0.12038	34.52
0.13705	34.52
0.15372	34.52
0.17038	34.52
0.18705	34.52
0.20372	34.52
0.22038	34.52
0.23705	34.52
0.25372	34.52
0.27038	34.52
0.28705	34.52
0.30372	34.52
0.32038	34.52
0.33705	34.52
0.35372	34.52
0.37038	34.52
0.38705	34.52
0.40372	34.52
0.42038	34.52
0.43705	34.52
0.45372	34.52
0.47038	34.52
0.48705	34.52
0.50372	34.52
0.52038	34.52
0.53705	34.51
0.55372	34.52
0.57038	34.52
0.58705	34.52
0.60372	34.51
0.62038	34.53
0.63705	34.52
0.65372	34.51
0.67038	34.52
0.68705	34.53
0.70372	34.53
0.72038	34.52
0.73705	34.51
0.75372	34.51
0.77038	34.52
0.78705	34.53
0.80372	34.53
0.82038	34.52
0.83705	34.52
0.85372	34.53
0.87038	34.52
0.88705	34.51
0.90372	34.53
0.92038	34.52
0.93705	34.51
0.95372	34.52
0.97038	34.51
0.98705	34.52
1.00372	34.51
1.02038	34.53
1.03705	34.52
1.05372	34.52
1.07038	34.52
1.08705	34.52
1.10372	34.52
1.12038	34.52
1.13705	34.52
1.15372	34.52
1.17038	34.52
1.18705	34.52
1.20372	34.51
1.22038	34.52
1.23705	34.52
1.25372	34.52
1.27038	34.53
1.28705	34.52
1.30372	34.52
1.32038	34.52
1.33705	34.51
1.35372	34.52
1.37038	34.52
1.38705	34.51
1.40372	34.52
1.42038	34.51
1.43705	34.52
1.45372	34.52
1.47038	34.52
1.48705	34.52
1.50372	34.51
1.52038	34.52
1.53705	34.52
1.55372	34.52
1.57038	34.51
1.58705	34.52
1.60372	34.51
1.62038	34.52
1.63705	34.52
1.65372	34.52
1.67038	34.53
1.68705	34.51
1.70372	34.52
1.72038	34.52
1.73705	34.53
1.75372	34.52
1.77038	34.51
1.78705	34.52
1.80372	34.52
1.82038	34.52
1.83705	34.52
1.85372	34.51
1.87038	34.52
1.88705	34.52
1.90372	34.52
1.92038	34.52
1.93705	34.52
1.95372	34.51
1.97038	34.52
1.98705	34.52
2.00372	34.51
2.02038	34.52
2.03705	34.52
2.05372	34.52
2.07038	34.53
2.08705	34.51
2.10372	34.52
2.12038	34.52
2.13705	34.52
2.15372	34.52
2.17038	34.52
2.18705	34.52
2.20372	34.51
2.22038	34.52
2.23705	34.52
2.25372	34.52
2.27038	34.51
2.28705	34.52
2.30372	34.52
2.32038	34.52
2.33705	34.52
2.35372	34.52
2.37038	34.52
2.38705	34.52
2.40372	34.52
2.42038	34.51
2.43705	34.52
2.45372	34.52
2.47038	34.51
2.48705	34.51
2.50372	34.65
2.52038	34.52
2.53705	34.52
2.55372	34.52
2.57038	34.52
2.58705	34.52
2.60372	34.52
2.62038	34.52
2.63705	34.52
2.65372	34.52
2.67038	34.52
2.68705	34.52
2.70372	34.51
2.72038	34.51
2.73705	34.52
2.75372	34.52
2.77038	34.52
2.78705	34.51
2.80372	34.52
2.82038	34.52
2.83705	34.52
2.85372	34.52
2.87038	34.52
2.88705	34.52
2.90372	34.52
2.92038	34.52
2.93705	34.51
2.95372	34.52
2.97038	34.52
2.98705	34.52
3.00372	34.52
3.02038	34.52
3.03705	34.52
3.05372	34.52
3.07038	34.52
3.08705	34.52
3.10372	34.52
3.12038	34.52
3.13705	34.52
3.15372	34.52
3.17038	34.52
3.18705	34.52
3.20372	34.52
3.22038	34.52
3.23705	34.52
3.25372	34.52
3.27038	34.52
3.28705	34.52
3.30372	34.52
3.32038	34.52
3.33705	34.52
3.35372	34.52
3.37038	34.52
3.38705	34.51
3.40372	34.52
3.42038	34.52
3.43705	34.52
3.45372	34.51
3.47038	34.52
3.48705	34.52
3.50372	34.52
3.52038	34.52
3.53705	34.52
3.55372	34.52
3.57038	34.52
3.58705	34.52
3.60372	34.52
3.62038	34.52
3.63705	34.52
3.65372	34.52
3.67038	34.52
3.68705	34.52
3.70372	34.52
3.72038	34.52
3.73705	34.52
3.75372	34.52
3.77038	34.52
3.78705	34.51
3.80372	34.51
3.82038	34.52
3.83705	34.52
3.85372	34.52
3.87038	34.52
3.88705	34.52
3.90372	34.51
3.92038	34.53
3.93705	34.52
3.95372	34.51
3.97038	34.52
3.98705	34.52

[Status Trace (Column Flow)]
Interval(msec)	1000
# of Points	240
Start Time(min)	0.004
End Time(min)	3.987
Intensity Units	
Intensity Multiplier	1
R.Time (min)	Intensity
0.00372	5.51
0.02038	5.38
0.03705	5.51
0.05372	5.61
0.07038	5.51
0.08705	5.51
0.10372	5.51
0.12038	5.51
0.13705	5.51
0.15372	5.51
0.17038	5.51
0.18705	5.51
0.20372	5.51
0.22038	5.51
0.23705	5.51
0.25372	5.51
0.27038	5.51
0.28705	5.51
0.30372	5.51
0.32038	5.51
0.33705	5.51
0.35372	5.51
0.37038	5.51
0.38705	5.51
0.40372	5.51
0.42038	5.51
0.43705	5.51
0.45372	5.51
0.47038	5.51
0.48705	5.51
0.50372	5.51
0.52038	5.51
0.53705	5.51
0.55372	5.51
0.57038	5.51
0.58705	5.51
0.60372	5.51
0.62038	5.51
0.63705	5.51
0.65372	5.51
0.67038	5.51
0.68705	5.51
0.70372	5.51
0.72038	5.51
0.73705	5.51
0.75372	5.51
0.77038	5.51
0.78705	5.51
0.80372	5.51
0.82038	5.51
0.83705	5.51
0.85372	5.51
0.87038	5.51
0.88705	5.51
0.90372	5.51
0.92038	5.51
0.93705	5.51
0.95372	5.51
0.97038	5.51
0.98705	5.51
1.00372	5.51
1.02038	5.51
1.03705	5.51
1.05372	5.51
1.07038	5.51
1.08705	5.51
1.10372	5.51
1.12038	5.51
1.13705	5.51
1.15372	5.51
1.17038	5.51
1.18705	5.51
1.20372	5.51
1.22038	5.51
1.23705	5.51
1.25372	5.51
1.27038	5.51
1.28705	5.51
1.30372	5.51
1.32038	5.51
1.33705	5.51
1.35372	5.51
1.37038	5.51
1.38705	5.51
1.40372	5.51
1.42038	5.51
1.43705	5.51
1.45372	5.51
1.47038	5.51
1.48705	5.51
1.50372	5.51
1.52038	5.51
1.53705	5.51
1.55372	5.51
1.57038	5.51
1.58705	5.51
1.60372	5.51
1.62038	5.51
1.63705	5.50
1.65372	5.49
1.67038	5.48
1.68705	5.47
1.70372	5.46
1.72038	5.45
1.73705	5.44
1.75372	5.43
1.77038	5.42
1.78705	5.41
1.80372	5.40
1.82038	5.39
1.83705	5.38
1.85372	5.37
1.87038	5.36
1.88705	5.35
1.90372	5.34
1.92038	5.33
1.93705	5.32
1.95372	5.31
1.97038	5.30
1.98705	5.29
2.00372	5.28
2.02038	5.27
2.03705	5.26
2.05372	5.25
2.07038	5.24
2.08705	5.23
2.10372	5.22
2.12038	5.21
2.13705	5.20
2.15372	5.19
2.17038	5.19
2.18705	5.18
2.20372	5.17
2.22038	5.16
2.23705	5.15
2.25372	5.14
2.27038	5.13
2.28705	5.12
2.30372	5.11
2.32038	5.10
2.33705	5.09
2.35372	5.08
2.37038	5.08
2.38705	5.08
2.40372	5.08
2.42038	5.08
2.43705	5.08
2.45372	5.08
2.47038	5.07
2.48705	5.07
2.50372	5.07
2.52038	5.07
2.53705	5.07
2.55372	5.07
2.57038	5.07
2.58705	5.07
2.60372	5.07
2.62038	5.07
2.63705	5.07
2.65372	5.07
2.67038	5.07
2.68705	5.07
2.70372	5.07
2.72038	5.07
2.73705	5.07
2.75372	5.07
2.77038	5.07
2.78705	5.07
2.80372	5.07
2.82038	5.07
2.83705	5.07
2.85372	5.07
2.87038	5.07
2.88705	5.07
2.90372	5.07
2.92038	5.07
2.93705	5.07
2.95372	5.07
2.97038	5.07
2.98705	5.07
3.00372	5.07
3.02038	5.07
3.03705	5.07
3.05372	5.07
3.07038	5.07
3.08705	5.07
3.10372	5.07
3.12038	5.07
3.13705	5.06
3.15372	5.06
3.17038	5.06
3.18705	5.06
3.20372	5.06
3.22038	5.06
3.23705	5.06
3.25372	5.06
3.27038	5.06
3.28705	5.06
3.30372	5.06
3.32038	5.06
3.33705	5.06
3.35372	5.06
3.37038	5.06
3.38705	5.06
3.40372	5.07
3.42038	5.07
3.43705	5.07
3.45372	5.07
3.47038	5.07
3.48705	5.07
3.50372	5.07
3.52038	5.07
3.53705	5.07
3.55372	5.07
3.57038	5.07
3.58705	5.07
3.60372	5.07
3.62038	5.07
3.63705	5.07
3.65372	5.07
3.67038	5.07
3.68705	5.07
3.70372	5.07
3.72038	5.07
3.73705	5.07
3.75372	5.07
3.77038	5.07
3.78705	5.07
3.80372	5.07
3.82038	5.07
3.83705	5.07
3.85372	5.07
3.87038	5.07
3.88705	5.07
3.90372	5.07
3.92038	5.07
3.93705	5.07
3.95372	5.07
3.97038	5.07
3.98705	5.07

[Status Trace (Linear Velocity)]
Interval(msec)	1000
# of Points	240
Start Time(min)	0.004
End Time(min)	3.987
Intensity Units	
Intensity Multiplier	1
R.Time (min)	Intensity
0.00372	39.02
0.02038	38.31
0.03705	39.01
0.05372	39.60
0.07038	39.04
0.08705	38.99
0.10372	39.02
0.12038	39.02
0.13705	39.02
0.15372	39.02
0.17038	39.02
0.18705	39.01
0.20372	39.01
0.22038	39.01
0.23705	39.01
0.25372	39.01
0.27038	39.01
0.28705	39.01
0.30372	39.01
0.32038	39.02
0.33705	39.02
0.35372	39.01
0.37038	39.01
0.38705	39.01
0.40372	39.01
0.42038	39.01
0.43705	39.01
0.45372	39.02
0.47038	39.02
0.48705	39.01
0.50372	39.02
0.52038	39.02
0.53705	39.02
0.55372	39.02
0.57038	39.02
0.58705	39.02
0.60372	39.02
0.62038	39.02
0.63705	39.02
0.65372	39.02
0.67038	39.02
0.68705	39.01
0.70372	39.01
0.72038	39.01
0.73705	39.01
0.75372	39.01
0.77038	39.01
0.78705	39.01
0.80372	39.01
0.82038	39.02
0.83705	39.02
0.85372	39.02
0.87038	39.01
0.88705	39.01
0.90372	39.01
0.92038	39.01
0.93705	39.01
0.95372	39.01
0.97038	39.01
0.98705	39.01
1.00372	39.01
1.02038	39.01
1.03705	39.01
1.05372	39.01
1.07038	39.01
1.08705	39.01
1.10372	39.01
1.12038	39.01
1.13705	39.01
1.15372	39.01
1.17038	39.01
1.18705	39.01
1.20372	39.01
1.22038	39.01
1.23705	39.01
1.25372	39.02
1.27038	39.02
1.28705	39.02
1.30372	39.02
1.32038	39.02
1.33705	39.02
1.35372	39.02
1.37038	39.02
1.38705	39.02
1.40372	39.01
1.42038	39.01
1.43705	39.01
1.45372	39.01
1.47038	39.01
1.48705	39.01
1.50372	39.01
1.52038	39.01
1.53705	39.01
1.55372	39.02
1.57038	39.02
1.58705	39.02
1.60372	39.01
1.62038	39.00
1.63705	38.99
1.65372	38.96
1.67038	38.93
1.68705	38.90
1.70372	38.86
1.72038	38.83
1.73705	38.80
1.75372	38.77
1.77038	38.73
1.78705	38.71
1.80372	38.67
1.82038	38.64
1.83705	38.61
1.85372	38.58
1.87038	38.55
1.88705	38.52
1.90372	38.49
1.92038	38.45
1.93705	38.43
1.95372	38.39
1.97038	38.36
1.98705	38.34
2.00372	38.30
2.02038	38.27
2.03705	38.25
2.05372	38.21
2.07038	38.18
2.08705	38.16
2.10372	38.12
2.12038	38.09
2.13705	38.07
2.15372	38.03
2.17038	38.00
2.18705	37.98
2.20372	37.94
2.22038	37.92
2.23705	37.89
2.25372	37.86
2.27038	37.83
2.28705	37.80
2.30372	37.77
2.32038	37.74
2.33705	37.71
2.35372	37.68
2.37038	37.66
2.38705	37.65
2.40372	37.66
2.42038	37.66
2.43705	37.66
2.45372	37.66
2.47038	37.65
2.48705	37.65
2.50372	37.64
2.52038	37.64
2.53705	37.65
2.55372	37.65
2.57038	37.65
2.58705	37.65
2.60372	37.65
2.62038	37.65
2.63705	37.64
2.65372	37.64
2.67038	37.64
2.68705	37.64
2.70372	37.64
2.72038	37.64
2.73705	37.64
2.75372	37.64
2.77038	37.64
2.78705	37.64
2.80372	37.64
2.82038	37.64
2.83705	37.64
2.85372	37.64
2.87038	37.64
2.88705	37.64
2.90372	37.64
2.92038	37.64
2.93705	37.64
2.95372	37.64
2.97038	37.64
2.98705	37.63
3.00372	37.63
3.02038	37.63
3.03705	37.63
3.05372	37.63
3.07038	37.63
3.08705	37.63
3.10372	37.63
3.12038	37.62
3.13705	37.62
3.15372	37.62
3.17038	37.62
3.18705	37.62
3.20372	37.62
3.22038	37.62
3.23705	37.62
3.25372	37.62
3.27038	37.62
3.28705	37.62
3.30372	37.62
3.32038	37.62
3.33705	37.62
3.35372	37.62
3.37038	37.62
3.38705	37.62
3.40372	37.62
3.42038	37.63
3.43705	37.63
3.45372	37.63
3.47038	37.63
3.48705	37.63
3.50372	37.63
3.52038	37.63
3.53705	37.63
3.55372	37.63
3.57038	37.63
3.58705	37.63
3.60372	37.63
3.62038	37.63
3.63705	37.63
3.65372	37.63
3.67038	37.63
3.68705	37.63
3.70372	37.63
3.72038	37.63
3.73705	37.63
3.75372	37.63
3.77038	37.63
3.78705	37.63
3.80372	37.63
3.82038	37.63
3.83705	37.63
3.85372	37.63
3.87038	37.63
3.88705	37.63
3.90372	37.63
3.92038	37.63
3.93705	37.63
3.95372	37.63
3.97038	37.63
3.98705	37.62

