[Header]
Application Name	LabSolutions
Version	5.110
Data File Name	C:\Users\User\Desktop\GC Analyses\Jack\Nachusa Grasslands Sampling\T2 Timepoint July 12th\T2_07122022_053.gcd
Output Date	3/14/2023
Output Time	3:42:33 PM

[File Information]
Type	Data File
Generated	3/10/2023 6:18:36 PM
Generated by	System Administrator
Modified	3/10/2023 6:25:24 PM
Modified by	System Administrator

[Sample Information]
Operator Name	System Administrator
Acquired	3/10/2023 6:21:23 PM
Sample Type	0:Unknown
Level	0
Sample Name	053
Sample ID	053
ISTD Amount1	1
ISTD Amount2	1
ISTD Amount3	1
ISTD Amount4	1
ISTD Amount5	1
ISTD Amount6	1
ISTD Amount7	1
ISTD Amount8	1
ISTD Amount9	1
ISTD Amount10	1
ISTD Amount11	1
ISTD Amount12	1
ISTD Amount13	1
ISTD Amount14	1
ISTD Amount15	1
ISTD Amount16	1
ISTD Amount17	1
ISTD Amount18	1
ISTD Amount19	1
ISTD Amount20	1
ISTD Amount21	1
ISTD Amount22	1
ISTD Amount23	1
ISTD Amount24	1
ISTD Amount25	1
ISTD Amount26	1
ISTD Amount27	1
ISTD Amount28	1
ISTD Amount29	1
ISTD Amount30	1
ISTD Amount31	1
ISTD Amount32	1
Sample Amount	1
Dilution Factor	1
Vial#	52
Injection Volume	1
Injection Count	1
Bar Code	

[Original Files]
Data File	C:\Users\User\Desktop\GC Analyses\Jack\Nachusa Grasslands Sampling\T1 Timepoint July 12th\T2_07122022_053.gcd
Method File	C:\LabSolutions\Data\GHG_4min_2022\ghg3_togas_w_acet_4 min_new_int.gcm
Batch File	C:\LabSolutions\Data\AutoSamplerTesting\T2_07122022.gcb
Report Format File	c:\LabSolutions\System\DEFAULT.lsr

[File Description]


[Configuration]
Instrument Name	C0B7VH3-Instrument1
Instrument #	1
Line #	1
# of Detectors	3
Detector ID	DET#1	DET#2	DET#3
Detector Name	FID	PTCD	ECD
# of Channels	1	1	1

[Peak Table(Ch1)]
# of Peaks	3
Peak#	R.Time	I.Time	F.Time	Area	Height	A/H	Conc.	Mark	ID#	Name	k'	Plate #	Plate Ht.	Tailing	Resolution	Sep.Factor	Area Ratio	Height Ratio	Conc. %	Norm Conc.
1	1.483	1.439	1.531	2452	723	3.394	17.313	   	1	CO	0.000	4821	31.113	0.000	0.000	0.000	0	0	1.929	1.929
2	1.567	1.531	1.648	19469	9856	1.975	376.447	 V 	2	CH4	0.057	11452	13.098	1.212	1.171	0.000	0	0	41.945	41.945
3	1.996	1.949	2.447	2007067	958362	2.094	503.719	   	3	CO2	0.346	17165	8.739	1.256	7.178	6.087	0	0	56.126	56.126

[Peak Table(Ch2)]
# of Peaks	0

[Peak Table(Ch3)]
# of Peaks	4
Peak#	R.Time	I.Time	F.Time	Area	Height	A/H	Conc.	Mark	ID#	Name	k'	Plate #	Plate Ht.	Tailing	Resolution	Sep.Factor	Area Ratio	Height Ratio	Conc. %	Norm Conc.
1	2.462	2.396	2.510	1686	607	2.780	0.000	   			0.000	11475	13.072	0.000	0.000	0.000	0	0	0.000	0.000
2	2.535	2.510	2.627	1040	303	3.438	0.000	 V 			0.030	6075	24.693	0.000	0.661	0.000	0	0	0.000	0.000
3	2.876	2.777	3.049	58344	15131	3.856	1.490	   	1	N2O	0.168	12649	11.859	1.602	2.934	5.650	0	0	100.000	100.000
4	3.283	3.052	3.995	16778	495	33.862	0.000	   	2	SF6	0.334	125	1201.674	2.013	0.637	1.982	0	0	0.000	0.000

[Compound Results(Ch1)]
# of IDs	6
ID#	Name	R.Time	Area	Height	Conc.	Curve	3rd	2nd	1st	Constant	Area Ratio	Height Ratio	Conc. %	Norm Conc.
1	CO	1.483	2452	723	17.313	Linear	0.000000e+00	0.000000e+00	1.416423e+002	0.000000e+00	0	0	1.929	1.929
2	CH4	1.567	19469	9856	376.447	Linear	0.000000e+00	0.000000e+00	5.171738e+001	0.000000e+00	0	0	41.945	41.945
3	CO2	1.996	2007067	958362	503.719	Linear	0.000000e+00	0.000000e+00	3.984494e+003	0.000000e+00	0	0	56.126	56.126
4	Ethylene	0.000	0	0	0.000	Linear	0.000000e+00	0.000000e+00	0.000000e+00	0.000000e+00	0	0	0.000	0.000
5	Acetylene	0.000	0	0	0.000	Linear	0.000000e+00	0.000000e+00	0.000000e+00	0.000000e+00	0	0	0.000	0.000
6	Ethane	0.000	0	0	0.000	Linear	0.000000e+00	0.000000e+00	0.000000e+00	0.000000e+00	0	0	0.000	0.000

[Compound Results(Ch2)]
# of IDs	5
ID#	Name	R.Time	Area	Height	Conc.	Curve	3rd	2nd	1st	Constant	Area Ratio	Height Ratio	Conc. %	Norm Conc.
1	Hydrogen	0.000	0	0	0.000	Linear	0.000000e+00	0.000000e+00	0.000000e+00	0.000000e+00	0	0	0.000	0.000
2	Oxygen	0.000	0	0	0.000	Linear	0.000000e+00	0.000000e+00	0.000000e+00	0.000000e+00	0	0	0.000	0.000
3	Nitrogen	0.000	0	0	0.000	Linear	0.000000e+00	0.000000e+00	0.000000e+00	0.000000e+00	0	0	0.000	0.000
4	Methane	0.000	0	0	0.000	Linear	0.000000e+00	0.000000e+00	0.000000e+00	0.000000e+00	0	0	0.000	0.000
5	Carbon Monoxide	0.000	0	0	0.000	Linear	0.000000e+00	0.000000e+00	0.000000e+00	0.000000e+00	0	0	0.000	0.000

[Compound Results(Ch3)]
# of IDs	2
ID#	Name	R.Time	Area	Height	Conc.	Curve	3rd	2nd	1st	Constant	Area Ratio	Height Ratio	Conc. %	Norm Conc.
1	N2O	2.876	58344	15131	1.490	Linear	0.000000e+00	0.000000e+00	3.915173e+004	0.000000e+00	0	0	100.000	100.000
2	SF6	3.283	16778	495	0.000	Linear	0.000000e+00	0.000000e+00	0.000000e+00	0.000000e+00	0	0	0.000	0.000

[Group Results(Ch1)]
# of Groups	0

[Group Results(Ch2)]
# of Groups	0

[Group Results(Ch3)]
# of Groups	0

[Chromatogram (Ch1)]
Interval(msec)	220
# of Points	1091
Start Time(min)	0.002
End Time(min)	3.998
R.Time (min)	Intensity
0.00167	6
0.00533	9
0.00900	12
0.01267	15
0.01633	21
0.02000	26
0.02367	25
0.02733	17
0.03100	10
0.03467	7
0.03833	10
0.04200	12
0.04567	18
0.04933	25
0.05300	30
0.05667	32
0.06033	34
0.06400	35
0.06767	40
0.07133	50
0.07500	57
0.07867	59
0.08233	58
0.08600	59
0.08967	63
0.09333	73
0.09700	88
0.10067	106
0.10433	121
0.10800	128
0.11167	126
0.11533	117
0.11900	106
0.12267	98
0.12633	93
0.13000	91
0.13367	94
0.13733	98
0.14100	101
0.14467	108
0.14833	114
0.15200	118
0.15567	122
0.15933	122
0.16300	122
0.16667	127
0.17033	133
0.17400	138
0.17767	139
0.18133	137
0.18500	131
0.18867	123
0.19233	117
0.19600	109
0.19967	99
0.20333	88
0.20700	77
0.21067	66
0.21433	57
0.21800	49
0.22167	44
0.22533	44
0.22900	48
0.23267	52
0.23633	56
0.24000	57
0.24367	56
0.24733	55
0.25100	56
0.25467	60
0.25833	60
0.26200	50
0.26567	40
0.26933	28
0.27300	12
0.27667	1
0.28033	-4
0.28400	1
0.28767	14
0.29133	24
0.29500	27
0.29867	25
0.30233	20
0.30600	14
0.30967	13
0.31333	16
0.31700	20
0.32067	22
0.32433	19
0.32800	13
0.33167	8
0.33533	4
0.33900	4
0.34267	0
0.34633	-6
0.35000	-8
0.35367	-5
0.35733	-1
0.36100	2
0.36467	-1
0.36833	-6
0.37200	-9
0.37567	-9
0.37933	-7
0.38300	-3
0.38667	6
0.39033	13
0.39400	10
0.39767	6
0.40133	1
0.40500	-4
0.40867	-8
0.41233	-11
0.41600	-10
0.41967	-10
0.42333	-12
0.42700	-13
0.43067	-12
0.43433	-10
0.43800	-10
0.44167	-8
0.44533	-5
0.44900	-5
0.45267	-6
0.45633	-6
0.46000	-0
0.46367	4
0.46733	8
0.47100	17
0.47467	23
0.47833	22
0.48200	18
0.48567	12
0.48933	6
0.49300	-0
0.49667	-5
0.50033	-9
0.50400	-13
0.50767	-16
0.51133	-18
0.51500	-19
0.51867	-16
0.52233	-8
0.52600	1
0.52967	9
0.53333	12
0.53700	11
0.54067	6
0.54433	-1
0.54800	-4
0.55167	-10
0.55533	-19
0.55900	-29
0.56267	-35
0.56633	-36
0.57000	-33
0.57367	-26
0.57733	-20
0.58100	-16
0.58467	-12
0.58833	-9
0.59200	-9
0.59567	-9
0.59933	-13
0.60300	-19
0.60667	-15
0.61033	-9
0.61400	-3
0.61767	1
0.62133	1
0.62500	2
0.62867	4
0.63233	8
0.63600	9
0.63967	7
0.64333	6
0.64700	5
0.65067	3
0.65433	-1
0.65800	-7
0.66167	-13
0.66533	-21
0.66900	-27
0.67267	-29
0.67633	-28
0.68000	-25
0.68367	-21
0.68733	-18
0.69100	-18
0.69467	-17
0.69833	-14
0.70200	-10
0.70567	-8
0.70933	-8
0.71300	-9
0.71667	-8
0.72033	-8
0.72400	-10
0.72767	-10
0.73133	-12
0.73500	-14
0.73867	-16
0.74233	-17
0.74600	-14
0.74967	-13
0.75333	-13
0.75700	-14
0.76067	-15
0.76433	-18
0.76800	-23
0.77167	-29
0.77533	-30
0.77900	-29
0.78267	-29
0.78633	-31
0.79000	-32
0.79367	-37
0.79733	-42
0.80100	-42
0.80467	-38
0.80833	-37
0.81200	-37
0.81567	-34
0.81933	-28
0.82300	-21
0.82667	-12
0.83033	-5
0.83400	0
0.83767	4
0.84133	8
0.84500	13
0.84867	9
0.85233	5
0.85600	6
0.85967	5
0.86333	5
0.86700	1
0.87067	-5
0.87433	-5
0.87800	1
0.88167	4
0.88533	8
0.88900	16
0.89267	25
0.89633	29
0.90000	30
0.90367	27
0.90733	27
0.91100	30
0.91467	24
0.91833	8
0.92200	-6
0.92567	-14
0.92933	-15
0.93300	-19
0.93667	-24
0.94033	-27
0.94400	-29
0.94767	-29
0.95133	-30
0.95500	-27
0.95867	-19
0.96233	-18
0.96600	-22
0.96967	-30
0.97333	-36
0.97700	-38
0.98067	-36
0.98433	-30
0.98800	-22
0.99167	-15
0.99533	-9
0.99900	-4
1.00267	-0
1.00633	4
1.01000	8
1.01367	13
1.01733	12
1.02100	9
1.02467	5
1.02833	4
1.03200	3
1.03567	4
1.03933	8
1.04300	10
1.04667	8
1.05033	5
1.05400	1
1.05767	-4
1.06133	-3
1.06500	5
1.06867	12
1.07233	13
1.07600	8
1.07967	5
1.08333	7
1.08700	12
1.09067	15
1.09433	9
1.09800	-1
1.10167	-11
1.10533	-19
1.10900	-23
1.11267	-20
1.11633	-17
1.12000	-15
1.12367	-10
1.12733	-5
1.13100	1
1.13467	4
1.13833	4
1.14200	1
1.14567	-2
1.14933	-4
1.15300	-8
1.15667	-16
1.16033	-24
1.16400	-24
1.16767	-17
1.17133	-7
1.17500	-0
1.17867	2
1.18233	-0
1.18600	-3
1.18967	-5
1.19333	-3
1.19700	-0
1.20067	-1
1.20433	-2
1.20800	0
1.21167	4
1.21533	10
1.21900	11
1.22267	4
1.22633	-7
1.23000	-18
1.23367	-27
1.23733	-33
1.24100	-35
1.24467	-39
1.24833	-44
1.25200	-50
1.25567	-52
1.25933	-48
1.26300	-42
1.26667	-37
1.27033	-33
1.27400	-30
1.27767	-24
1.28133	-20
1.28500	-17
1.28867	-16
1.29233	-19
1.29600	-24
1.29967	-29
1.30333	-31
1.30700	-29
1.31067	-25
1.31433	-25
1.31800	-26
1.32167	-27
1.32533	-25
1.32900	-25
1.33267	-26
1.33633	-25
1.34000	-22
1.34367	-23
1.34733	-30
1.35100	-33
1.35467	-31
1.35833	-27
1.36200	-27
1.36567	-33
1.36933	-34
1.37300	-33
1.37667	-35
1.38033	-39
1.38400	-38
1.38767	-32
1.39133	-27
1.39500	-28
1.39867	-32
1.40233	-35
1.40600	-37
1.40967	-37
1.41333	-37
1.41700	-38
1.42067	-38
1.42433	-39
1.42800	-42
1.43167	-45
1.43533	-40
1.43900	-6
1.44267	102
1.44633	277
1.45000	449
1.45367	570
1.45733	633
1.46100	652
1.46467	651
1.46833	650
1.47200	662
1.47567	687
1.47933	712
1.48300	715
1.48667	682
1.49033	622
1.49400	550
1.49767	475
1.50133	404
1.50500	337
1.50867	276
1.51233	224
1.51600	186
1.51967	157
1.52333	130
1.52700	108
1.53067	94
1.53433	100
1.53800	196
1.54167	590
1.54533	1554
1.54900	3141
1.55267	5057
1.55633	6896
1.56000	8395
1.56367	9419
1.56733	9846
1.57100	9555
1.57467	8556
1.57833	7071
1.58200	5446
1.58567	3971
1.58933	2785
1.59300	1902
1.59667	1276
1.60033	844
1.60400	551
1.60767	354
1.61133	227
1.61500	144
1.61867	88
1.62233	52
1.62600	28
1.62967	16
1.63333	11
1.63700	8
1.64067	3
1.64433	-6
1.64800	-14
1.65167	-17
1.65533	-14
1.65900	-10
1.66267	-10
1.66633	-14
1.67000	-19
1.67367	-23
1.67733	-28
1.68100	-30
1.68467	-27
1.68833	-21
1.69200	-23
1.69567	-28
1.69933	-29
1.70300	-27
1.70667	-20
1.71033	-14
1.71400	-13
1.71767	-14
1.72133	-20
1.72500	-29
1.72867	-37
1.73233	-39
1.73600	-38
1.73967	-39
1.74333	-43
1.74700	-47
1.75067	-52
1.75433	-56
1.75800	-59
1.76167	-60
1.76533	-61
1.76900	-60
1.77267	-58
1.77633	-52
1.78000	-47
1.78367	-44
1.78733	-43
1.79100	-42
1.79467	-38
1.79833	-29
1.80200	-26
1.80567	-27
1.80933	-28
1.81300	-29
1.81667	-30
1.82033	-33
1.82400	-35
1.82767	-35
1.83133	-34
1.83500	-31
1.83867	-30
1.84233	-32
1.84600	-36
1.84967	-38
1.85333	-37
1.85700	-35
1.86067	-34
1.86433	-30
1.86800	-24
1.87167	-18
1.87533	-11
1.87900	-8
1.88267	-6
1.88633	-6
1.89000	-9
1.89367	-13
1.89733	-16
1.90100	-17
1.90467	-17
1.90833	-18
1.91200	-19
1.91567	-23
1.91933	-26
1.92300	-29
1.92667	-31
1.93033	-34
1.93400	-40
1.93767	-46
1.94133	-45
1.94500	-41
1.94867	-33
1.95233	8
1.95600	255
1.95967	1603
1.96333	7390
1.96700	26338
1.97067	74135
1.97433	167666
1.97800	311455
1.98167	489020
1.98533	669613
1.98900	822190
1.99267	923086
1.99633	958382
2.00000	925369
2.00367	833889
2.00733	704499
2.01100	561688
2.01467	426518
2.01833	311876
2.02200	222132
2.02567	155813
2.02933	108733
2.03300	76194
2.03667	54064
2.04033	39130
2.04400	29055
2.04767	22214
2.05133	17512
2.05500	14225
2.05867	11876
2.06233	10153
2.06600	8855
2.06967	7854
2.07333	7067
2.07700	6427
2.08067	5890
2.08433	5437
2.08800	5044
2.09167	4698
2.09533	4396
2.09900	4132
2.10267	3899
2.10633	3693
2.11000	3506
2.11367	3337
2.11733	3186
2.12100	3043
2.12467	2909
2.12833	2787
2.13200	2674
2.13567	2568
2.13933	2469
2.14300	2376
2.14667	2288
2.15033	2202
2.15400	2121
2.15767	2049
2.16133	1985
2.16500	1925
2.16867	1870
2.17233	1813
2.17600	1753
2.17967	1698
2.18333	1652
2.18700	1612
2.19067	1574
2.19433	1537
2.19800	1500
2.20167	1461
2.20533	1423
2.20900	1387
2.21267	1352
2.21633	1320
2.22000	1294
2.22367	1269
2.22733	1241
2.23100	1214
2.23467	1189
2.23833	1167
2.24200	1145
2.24567	1118
2.24933	1090
2.25300	1062
2.25667	1034
2.26033	1007
2.26400	982
2.26767	961
2.27133	942
2.27500	920
2.27867	903
2.28233	897
2.28600	890
2.28967	876
2.29333	860
2.29700	849
2.30067	837
2.30433	821
2.30800	808
2.31167	798
2.31533	789
2.31900	778
2.32267	772
2.32633	764
2.33000	753
2.33367	741
2.33733	727
2.34100	713
2.34467	700
2.34833	685
2.35200	675
2.35567	667
2.35933	656
2.36300	645
2.36667	636
2.37033	628
2.37400	618
2.37767	607
2.38133	598
2.38500	591
2.38867	585
2.39233	582
2.39600	581
2.39967	582
2.40333	584
2.40700	581
2.41067	571
2.41433	563
2.41800	559
2.42167	558
2.42533	554
2.42900	552
2.43267	551
2.43633	547
2.44000	540
2.44367	529
2.44733	518
2.45100	509
2.45467	505
2.45833	508
2.46200	516
2.46567	522
2.46933	525
2.47300	523
2.47667	517
2.48033	507
2.48400	491
2.48767	478
2.49133	466
2.49500	456
2.49867	446
2.50233	438
2.50600	431
2.50967	430
2.51333	436
2.51700	440
2.52067	440
2.52433	435
2.52800	424
2.53167	414
2.53533	411
2.53900	411
2.54267	409
2.54633	412
2.55000	414
2.55367	407
2.55733	398
2.56100	393
2.56467	392
2.56833	395
2.57200	402
2.57567	413
2.57933	418
2.58300	414
2.58667	404
2.59033	391
2.59400	379
2.59767	369
2.60133	362
2.60500	361
2.60867	366
2.61233	374
2.61600	380
2.61967	384
2.62333	385
2.62700	386
2.63067	387
2.63433	387
2.63800	387
2.64167	387
2.64533	391
2.64900	395
2.65267	397
2.65633	397
2.66000	394
2.66367	390
2.66733	387
2.67100	381
2.67467	377
2.67833	380
2.68200	384
2.68567	383
2.68933	382
2.69300	382
2.69667	376
2.70033	366
2.70400	362
2.70767	364
2.71133	367
2.71500	369
2.71867	364
2.72233	352
2.72600	339
2.72967	334
2.73333	335
2.73700	339
2.74067	347
2.74433	356
2.74800	364
2.75167	371
2.75533	374
2.75900	371
2.76267	365
2.76633	357
2.77000	348
2.77367	343
2.77733	340
2.78100	343
2.78467	348
2.78833	353
2.79200	356
2.79567	355
2.79933	351
2.80300	348
2.80667	349
2.81033	353
2.81400	363
2.81767	368
2.82133	368
2.82500	365
2.82867	356
2.83233	349
2.83600	345
2.83967	344
2.84333	342
2.84700	339
2.85067	340
2.85433	342
2.85800	339
2.86167	336
2.86533	332
2.86900	329
2.87267	328
2.87633	332
2.88000	338
2.88367	343
2.88733	347
2.89100	345
2.89467	339
2.89833	333
2.90200	331
2.90567	334
2.90933	339
2.91300	343
2.91667	346
2.92033	350
2.92400	354
2.92767	356
2.93133	360
2.93500	367
2.93867	369
2.94233	366
2.94600	360
2.94967	355
2.95333	348
2.95700	338
2.96067	335
2.96433	339
2.96800	344
2.97167	345
2.97533	341
2.97900	334
2.98267	334
2.98633	342
2.99000	351
2.99367	359
2.99733	361
3.00100	356
3.00467	346
3.00833	332
3.01200	320
3.01567	312
3.01933	309
3.02300	311
3.02667	314
3.03033	315
3.03400	313
3.03767	309
3.04133	307
3.04500	308
3.04867	310
3.05233	313
3.05600	316
3.05967	317
3.06333	317
3.06700	317
3.07067	319
3.07433	321
3.07800	322
3.08167	322
3.08533	324
3.08900	328
3.09267	328
3.09633	324
3.10000	323
3.10367	324
3.10733	327
3.11100	328
3.11467	321
3.11833	310
3.12200	300
3.12567	297
3.12933	299
3.13300	306
3.13667	311
3.14033	314
3.14400	312
3.14767	310
3.15133	312
3.15500	315
3.15867	312
3.16233	305
3.16600	304
3.16967	308
3.17333	311
3.17700	313
3.18067	310
3.18433	300
3.18800	294
3.19167	295
3.19533	299
3.19900	296
3.20267	290
3.20633	283
3.21000	277
3.21367	274
3.21733	273
3.22100	275
3.22467	280
3.22833	284
3.23200	289
3.23567	294
3.23933	299
3.24300	300
3.24667	297
3.25033	290
3.25400	287
3.25767	287
3.26133	291
3.26500	295
3.26867	298
3.27233	296
3.27600	290
3.27967	284
3.28333	281
3.28700	282
3.29067	285
3.29433	292
3.29800	300
3.30167	307
3.30533	310
3.30900	306
3.31267	296
3.31633	282
3.32000	267
3.32367	252
3.32733	244
3.33100	242
3.33467	241
3.33833	242
3.34200	243
3.34567	244
3.34933	247
3.35300	250
3.35667	251
3.36033	249
3.36400	247
3.36767	248
3.37133	252
3.37500	257
3.37867	258
3.38233	261
3.38600	265
3.38967	272
3.39333	276
3.39700	275
3.40067	269
3.40433	257
3.40800	245
3.41167	237
3.41533	234
3.41900	237
3.42267	242
3.42633	243
3.43000	245
3.43367	250
3.43733	259
3.44100	266
3.44467	266
3.44833	262
3.45200	251
3.45567	236
3.45933	227
3.46300	223
3.46667	227
3.47033	233
3.47400	238
3.47767	244
3.48133	246
3.48500	242
3.48867	237
3.49233	237
3.49600	238
3.49967	239
3.50333	239
3.50700	239
3.51067	237
3.51433	235
3.51800	233
3.52167	228
3.52533	231
3.52900	238
3.53267	239
3.53633	239
3.54000	239
3.54367	238
3.54733	238
3.55100	237
3.55467	234
3.55833	232
3.56200	232
3.56567	233
3.56933	232
3.57300	237
3.57667	245
3.58033	245
3.58400	237
3.58767	227
3.59133	216
3.59500	202
3.59867	192
3.60233	187
3.60600	185
3.60967	189
3.61333	195
3.61700	203
3.62067	208
3.62433	208
3.62800	207
3.63167	206
3.63533	208
3.63900	216
3.64267	227
3.64633	238
3.65000	246
3.65367	249
3.65733	246
3.66100	238
3.66467	228
3.66833	220
3.67200	216
3.67567	212
3.67933	206
3.68300	200
3.68667	191
3.69033	182
3.69400	181
3.69767	185
3.70133	190
3.70500	194
3.70867	196
3.71233	192
3.71600	190
3.71967	194
3.72333	198
3.72700	200
3.73067	205
3.73433	210
3.73800	215
3.74167	221
3.74533	223
3.74900	220
3.75267	213
3.75633	209
3.76000	207
3.76367	199
3.76733	185
3.77100	176
3.77467	177
3.77833	180
3.78200	178
3.78567	175
3.78933	178
3.79300	187
3.79667	192
3.80033	191
3.80400	186
3.80767	180
3.81133	178
3.81500	179
3.81867	181
3.82233	180
3.82600	175
3.82967	169
3.83333	164
3.83700	163
3.84067	166
3.84433	170
3.84800	175
3.85167	182
3.85533	187
3.85900	194
3.86267	201
3.86633	200
3.87000	191
3.87367	181
3.87733	176
3.88100	174
3.88467	174
3.88833	172
3.89200	169
3.89567	170
3.89933	171
3.90300	171
3.90667	168
3.91033	164
3.91400	163
3.91767	163
3.92133	163
3.92500	161
3.92867	155
3.93233	148
3.93600	140
3.93967	136
3.94333	141
3.94700	148
3.95067	155
3.95433	162
3.95800	170
3.96167	174
3.96533	172
3.96900	172
3.97267	178
3.97633	185
3.98000	184
3.98367	181
3.98733	181
3.99100	177
3.99467	167
3.99833	160

[Chromatogram (Ch2)]
Interval(msec)	220
# of Points	1091
Start Time(min)	0.002
End Time(min)	3.998
R.Time (min)	Intensity
0.00167	1
0.00533	1
0.00900	1
0.01267	1
0.01633	1
0.02000	1
0.02367	1
0.02733	1
0.03100	1
0.03467	1
0.03833	1
0.04200	1
0.04567	1
0.04933	1
0.05300	1
0.05667	1
0.06033	2
0.06400	2
0.06767	2
0.07133	3
0.07500	3
0.07867	3
0.08233	3
0.08600	3
0.08967	4
0.09333	4
0.09700	4
0.10067	4
0.10433	4
0.10800	4
0.11167	4
0.11533	4
0.11900	4
0.12267	4
0.12633	4
0.13000	4
0.13367	4
0.13733	4
0.14100	4
0.14467	3
0.14833	3
0.15200	3
0.15567	3
0.15933	2
0.16300	2
0.16667	2
0.17033	1
0.17400	1
0.17767	1
0.18133	1
0.18500	1
0.18867	1
0.19233	1
0.19600	0
0.19967	-0
0.20333	-1
0.20700	-1
0.21067	-1
0.21433	-1
0.21800	-1
0.22167	-1
0.22533	-1
0.22900	-2
0.23267	-1
0.23633	-1
0.24000	-1
0.24367	-1
0.24733	-1
0.25100	-1
0.25467	-1
0.25833	-0
0.26200	-0
0.26567	0
0.26933	1
0.27300	1
0.27667	1
0.28033	1
0.28400	1
0.28767	1
0.29133	1
0.29500	1
0.29867	1
0.30233	1
0.30600	1
0.30967	1
0.31333	1
0.31700	1
0.32067	2
0.32433	2
0.32800	2
0.33167	2
0.33533	2
0.33900	2
0.34267	1
0.34633	1
0.35000	1
0.35367	1
0.35733	0
0.36100	0
0.36467	1
0.36833	1
0.37200	1
0.37567	2
0.37933	2
0.38300	2
0.38667	2
0.39033	2
0.39400	2
0.39767	2
0.40133	2
0.40500	3
0.40867	3
0.41233	3
0.41600	4
0.41967	4
0.42333	4
0.42700	4
0.43067	3
0.43433	3
0.43800	3
0.44167	2
0.44533	2
0.44900	1
0.45267	1
0.45633	0
0.46000	-1
0.46367	-1
0.46733	-1
0.47100	-2
0.47467	-2
0.47833	-2
0.48200	-2
0.48567	-2
0.48933	-2
0.49300	-2
0.49667	-2
0.50033	-1
0.50400	-1
0.50767	-1
0.51133	-1
0.51500	-1
0.51867	-0
0.52233	-0
0.52600	0
0.52967	0
0.53333	0
0.53700	1
0.54067	1
0.54433	1
0.54800	1
0.55167	1
0.55533	1
0.55900	2
0.56267	2
0.56633	2
0.57000	3
0.57367	3
0.57733	3
0.58100	3
0.58467	3
0.58833	3
0.59200	2
0.59567	2
0.59933	2
0.60300	1
0.60667	1
0.61033	1
0.61400	1
0.61767	1
0.62133	1
0.62500	1
0.62867	1
0.63233	1
0.63600	1
0.63967	0
0.64333	-0
0.64700	-1
0.65067	-1
0.65433	-1
0.65800	-2
0.66167	-2
0.66533	-2
0.66900	-2
0.67267	-2
0.67633	-2
0.68000	-2
0.68367	-2
0.68733	-2
0.69100	-2
0.69467	-2
0.69833	-1
0.70200	-1
0.70567	-1
0.70933	-1
0.71300	-0
0.71667	-0
0.72033	-0
0.72400	-1
0.72767	-1
0.73133	-1
0.73500	-1
0.73867	-1
0.74233	-1
0.74600	-1
0.74967	-0
0.75333	-0
0.75700	-1
0.76067	-1
0.76433	-1
0.76800	-1
0.77167	-0
0.77533	0
0.77900	0
0.78267	1
0.78633	1
0.79000	1
0.79367	0
0.79733	0
0.80100	0
0.80467	0
0.80833	0
0.81200	1
0.81567	1
0.81933	1
0.82300	1
0.82667	1
0.83033	0
0.83400	0
0.83767	0
0.84133	0
0.84500	-0
0.84867	-0
0.85233	-0
0.85600	-0
0.85967	-1
0.86333	-1
0.86700	-1
0.87067	-1
0.87433	-1
0.87800	-1
0.88167	-1
0.88533	-1
0.88900	-1
0.89267	-1
0.89633	-1
0.90000	-1
0.90367	-1
0.90733	-1
0.91100	-1
0.91467	-1
0.91833	-1
0.92200	-0
0.92567	-0
0.92933	0
0.93300	0
0.93667	0
0.94033	0
0.94400	-0
0.94767	-0
0.95133	-0
0.95500	-1
0.95867	-1
0.96233	-1
0.96600	-1
0.96967	-0
0.97333	-0
0.97700	0
0.98067	0
0.98433	1
0.98800	1
0.99167	1
0.99533	2
0.99900	2
1.00267	3
1.00633	3
1.01000	3
1.01367	3
1.01733	3
1.02100	3
1.02467	4
1.02833	4
1.03200	4
1.03567	5
1.03933	5
1.04300	5
1.04667	5
1.05033	4
1.05400	4
1.05767	3
1.06133	3
1.06500	3
1.06867	2
1.07233	2
1.07600	1
1.07967	1
1.08333	1
1.08700	1
1.09067	1
1.09433	1
1.09800	1
1.10167	2
1.10533	2
1.10900	2
1.11267	2
1.11633	1
1.12000	1
1.12367	1
1.12733	1
1.13100	0
1.13467	0
1.13833	-0
1.14200	-0
1.14567	-1
1.14933	-1
1.15300	-1
1.15667	-1
1.16033	-1
1.16400	-1
1.16767	-1
1.17133	-1
1.17500	-1
1.17867	-1
1.18233	-2
1.18600	-2
1.18967	-2
1.19333	-2
1.19700	-2
1.20067	-3
1.20433	-3
1.20800	-3
1.21167	-3
1.21533	-3
1.21900	-3
1.22267	-3
1.22633	-3
1.23000	-3
1.23367	-3
1.23733	-2
1.24100	-2
1.24467	-1
1.24833	-1
1.25200	-0
1.25567	0
1.25933	0
1.26300	1
1.26667	1
1.27033	1
1.27400	1
1.27767	0
1.28133	-0
1.28500	-1
1.28867	-1
1.29233	-2
1.29600	-2
1.29967	-2
1.30333	-2
1.30700	-2
1.31067	-2
1.31433	-3
1.31800	-3
1.32167	-3
1.32533	-3
1.32900	-3
1.33267	-4
1.33633	-4
1.34000	-4
1.34367	-4
1.34733	-4
1.35100	-3
1.35467	-3
1.35833	-3
1.36200	-2
1.36567	-2
1.36933	-2
1.37300	-2
1.37667	-2
1.38033	-2
1.38400	-2
1.38767	-2
1.39133	-1
1.39500	-1
1.39867	-1
1.40233	-0
1.40600	-0
1.40967	0
1.41333	1
1.41700	1
1.42067	1
1.42433	1
1.42800	1
1.43167	1
1.43533	1
1.43900	2
1.44267	2
1.44633	2
1.45000	2
1.45367	3
1.45733	3
1.46100	3
1.46467	3
1.46833	3
1.47200	3
1.47567	4
1.47933	4
1.48300	4
1.48667	4
1.49033	4
1.49400	4
1.49767	3
1.50133	3
1.50500	2
1.50867	2
1.51233	1
1.51600	0
1.51967	-1
1.52333	-1
1.52700	-2
1.53067	-3
1.53433	-4
1.53800	-4
1.54167	-4
1.54533	-4
1.54900	-4
1.55267	-4
1.55633	-4
1.56000	-4
1.56367	-4
1.56733	-5
1.57100	-5
1.57467	-5
1.57833	-4
1.58200	-4
1.58567	-4
1.58933	-4
1.59300	-4
1.59667	-4
1.60033	-5
1.60400	-6
1.60767	-7
1.61133	-9
1.61500	-11
1.61867	-13
1.62233	-15
1.62600	-18
1.62967	-21
1.63333	-24
1.63700	-27
1.64067	-31
1.64433	-34
1.64800	-37
1.65167	-40
1.65533	-43
1.65900	-47
1.66267	-50
1.66633	-53
1.67000	-58
1.67367	-62
1.67733	-67
1.68100	-72
1.68467	-77
1.68833	-82
1.69200	-86
1.69567	-90
1.69933	-93
1.70300	-96
1.70667	-98
1.71033	-100
1.71400	-101
1.71767	-103
1.72133	-104
1.72500	-106
1.72867	-108
1.73233	-109
1.73600	-110
1.73967	-111
1.74333	-111
1.74700	-111
1.75067	-111
1.75433	-110
1.75800	-109
1.76167	-109
1.76533	-108
1.76900	-107
1.77267	-106
1.77633	-105
1.78000	-105
1.78367	-105
1.78733	-105
1.79100	-106
1.79467	-107
1.79833	-108
1.80200	-109
1.80567	-110
1.80933	-111
1.81300	-112
1.81667	-113
1.82033	-113
1.82400	-113
1.82767	-113
1.83133	-113
1.83500	-112
1.83867	-112
1.84233	-111
1.84600	-111
1.84967	-111
1.85333	-111
1.85700	-111
1.86067	-111
1.86433	-111
1.86800	-112
1.87167	-112
1.87533	-112
1.87900	-112
1.88267	-112
1.88633	-112
1.89000	-112
1.89367	-111
1.89733	-111
1.90100	-111
1.90467	-110
1.90833	-110
1.91200	-110
1.91567	-110
1.91933	-110
1.92300	-111
1.92667	-111
1.93033	-111
1.93400	-111
1.93767	-110
1.94133	-110
1.94500	-110
1.94867	-110
1.95233	-109
1.95600	-109
1.95967	-109
1.96333	-108
1.96700	-108
1.97067	-108
1.97433	-108
1.97800	-107
1.98167	-107
1.98533	-107
1.98900	-107
1.99267	-107
1.99633	-106
2.00000	-106
2.00367	-106
2.00733	-106
2.01100	-106
2.01467	-107
2.01833	-107
2.02200	-107
2.02567	-107
2.02933	-106
2.03300	-105
2.03667	-104
2.04033	-103
2.04400	-102
2.04767	-101
2.05133	-100
2.05500	-99
2.05867	-99
2.06233	-98
2.06600	-98
2.06967	-99
2.07333	-99
2.07700	-99
2.08067	-99
2.08433	-99
2.08800	-98
2.09167	-97
2.09533	-97
2.09900	-97
2.10267	-97
2.10633	-97
2.11000	-97
2.11367	-97
2.11733	-97
2.12100	-97
2.12467	-97
2.12833	-97
2.13200	-97
2.13567	-97
2.13933	-98
2.14300	-97
2.14667	-97
2.15033	-97
2.15400	-96
2.15767	-95
2.16133	-94
2.16500	-93
2.16867	-93
2.17233	-92
2.17600	-92
2.17967	-92
2.18333	-91
2.18700	-91
2.19067	-91
2.19433	-91
2.19800	-91
2.20167	-90
2.20533	-90
2.20900	-90
2.21267	-90
2.21633	-89
2.22000	-88
2.22367	-88
2.22733	-87
2.23100	-86
2.23467	-86
2.23833	-85
2.24200	-85
2.24567	-85
2.24933	-84
2.25300	-84
2.25667	-83
2.26033	-83
2.26400	-82
2.26767	-82
2.27133	-82
2.27500	-83
2.27867	-83
2.28233	-83
2.28600	-83
2.28967	-83
2.29333	-83
2.29700	-82
2.30067	-82
2.30433	-82
2.30800	-82
2.31167	-82
2.31533	-82
2.31900	-82
2.32267	-81
2.32633	-81
2.33000	-80
2.33367	-79
2.33733	-78
2.34100	-77
2.34467	-76
2.34833	-75
2.35200	-74
2.35567	-73
2.35933	-73
2.36300	-71
2.36667	-70
2.37033	-68
2.37400	-66
2.37767	-64
2.38133	-61
2.38500	-57
2.38867	-53
2.39233	-49
2.39600	-45
2.39967	-41
2.40333	-36
2.40700	-32
2.41067	-28
2.41433	-24
2.41800	-21
2.42167	-19
2.42533	-16
2.42900	-14
2.43267	-12
2.43633	-11
2.44000	-10
2.44367	-9
2.44733	-8
2.45100	-7
2.45467	-6
2.45833	-5
2.46200	-4
2.46567	-3
2.46933	-2
2.47300	-1
2.47667	-1
2.48033	0
2.48400	1
2.48767	3
2.49133	5
2.49500	6
2.49867	8
2.50233	9
2.50600	10
2.50967	11
2.51333	11
2.51700	11
2.52067	11
2.52433	12
2.52800	12
2.53167	12
2.53533	13
2.53900	14
2.54267	14
2.54633	15
2.55000	15
2.55367	16
2.55733	17
2.56100	17
2.56467	18
2.56833	18
2.57200	19
2.57567	19
2.57933	19
2.58300	19
2.58667	19
2.59033	19
2.59400	19
2.59767	19
2.60133	19
2.60500	19
2.60867	19
2.61233	19
2.61600	19
2.61967	19
2.62333	19
2.62700	20
2.63067	21
2.63433	22
2.63800	23
2.64167	23
2.64533	24
2.64900	24
2.65267	24
2.65633	23
2.66000	23
2.66367	23
2.66733	23
2.67100	24
2.67467	24
2.67833	24
2.68200	24
2.68567	25
2.68933	25
2.69300	25
2.69667	25
2.70033	25
2.70400	26
2.70767	26
2.71133	26
2.71500	25
2.71867	25
2.72233	25
2.72600	24
2.72967	25
2.73333	25
2.73700	25
2.74067	26
2.74433	27
2.74800	27
2.75167	28
2.75533	28
2.75900	29
2.76267	29
2.76633	29
2.77000	29
2.77367	29
2.77733	29
2.78100	28
2.78467	28
2.78833	27
2.79200	26
2.79567	25
2.79933	25
2.80300	25
2.80667	25
2.81033	25
2.81400	25
2.81767	25
2.82133	26
2.82500	26
2.82867	26
2.83233	27
2.83600	27
2.83967	26
2.84333	24
2.84700	20
2.85067	14
2.85433	4
2.85800	-10
2.86167	-28
2.86533	-52
2.86900	-80
2.87267	-115
2.87633	-154
2.88000	-200
2.88367	-250
2.88733	-305
2.89100	-365
2.89467	-430
2.89833	-498
2.90200	-569
2.90567	-644
2.90933	-721
2.91300	-801
2.91667	-884
2.92033	-969
2.92400	-1055
2.92767	-1143
2.93133	-1233
2.93500	-1324
2.93867	-1411
2.94233	-1481
2.94600	-1522
2.94967	-1529
2.95333	-1499
2.95700	-1439
2.96067	-1355
2.96433	-1255
2.96800	-1146
2.97167	-1035
2.97533	-926
2.97900	-821
2.98267	-723
2.98633	-633
2.99000	-551
2.99367	-477
2.99733	-412
3.00100	-355
3.00467	-304
3.00833	-260
3.01200	-222
3.01567	-189
3.01933	-160
3.02300	-136
3.02667	-115
3.03033	-97
3.03400	-81
3.03767	-68
3.04133	-56
3.04500	-47
3.04867	-38
3.05233	-31
3.05600	-25
3.05967	-20
3.06333	-15
3.06700	-11
3.07067	-7
3.07433	-4
3.07800	-1
3.08167	1
3.08533	3
3.08900	5
3.09267	6
3.09633	8
3.10000	9
3.10367	10
3.10733	11
3.11100	12
3.11467	13
3.11833	14
3.12200	15
3.12567	15
3.12933	16
3.13300	16
3.13667	16
3.14033	17
3.14400	17
3.14767	17
3.15133	17
3.15500	18
3.15867	18
3.16233	18
3.16600	18
3.16967	18
3.17333	18
3.17700	18
3.18067	18
3.18433	18
3.18800	18
3.19167	18
3.19533	18
3.19900	18
3.20267	18
3.20633	18
3.21000	18
3.21367	19
3.21733	19
3.22100	20
3.22467	20
3.22833	20
3.23200	21
3.23567	21
3.23933	22
3.24300	22
3.24667	22
3.25033	22
3.25400	22
3.25767	22
3.26133	22
3.26500	23
3.26867	23
3.27233	23
3.27600	23
3.27967	23
3.28333	23
3.28700	23
3.29067	23
3.29433	23
3.29800	24
3.30167	24
3.30533	24
3.30900	24
3.31267	23
3.31633	24
3.32000	24
3.32367	24
3.32733	24
3.33100	25
3.33467	25
3.33833	25
3.34200	25
3.34567	25
3.34933	26
3.35300	26
3.35667	26
3.36033	26
3.36400	26
3.36767	26
3.37133	26
3.37500	26
3.37867	26
3.38233	26
3.38600	26
3.38967	26
3.39333	26
3.39700	26
3.40067	25
3.40433	26
3.40800	26
3.41167	26
3.41533	26
3.41900	26
3.42267	26
3.42633	26
3.43000	26
3.43367	26
3.43733	26
3.44100	26
3.44467	27
3.44833	27
3.45200	27
3.45567	27
3.45933	28
3.46300	28
3.46667	28
3.47033	28
3.47400	29
3.47767	29
3.48133	29
3.48500	29
3.48867	30
3.49233	30
3.49600	30
3.49967	31
3.50333	31
3.50700	31
3.51067	31
3.51433	30
3.51800	30
3.52167	30
3.52533	30
3.52900	30
3.53267	30
3.53633	30
3.54000	30
3.54367	30
3.54733	30
3.55100	30
3.55467	30
3.55833	30
3.56200	30
3.56567	30
3.56933	30
3.57300	30
3.57667	30
3.58033	30
3.58400	30
3.58767	30
3.59133	30
3.59500	29
3.59867	29
3.60233	29
3.60600	28
3.60967	28
3.61333	28
3.61700	27
3.62067	27
3.62433	27
3.62800	27
3.63167	28
3.63533	28
3.63900	28
3.64267	28
3.64633	28
3.65000	28
3.65367	28
3.65733	29
3.66100	29
3.66467	29
3.66833	29
3.67200	29
3.67567	28
3.67933	28
3.68300	27
3.68667	27
3.69033	27
3.69400	27
3.69767	27
3.70133	27
3.70500	26
3.70867	27
3.71233	26
3.71600	26
3.71967	26
3.72333	26
3.72700	26
3.73067	26
3.73433	26
3.73800	27
3.74167	27
3.74533	27
3.74900	27
3.75267	27
3.75633	27
3.76000	27
3.76367	28
3.76733	28
3.77100	28
3.77467	28
3.77833	29
3.78200	29
3.78567	29
3.78933	30
3.79300	30
3.79667	30
3.80033	30
3.80400	30
3.80767	29
3.81133	29
3.81500	29
3.81867	29
3.82233	29
3.82600	29
3.82967	29
3.83333	29
3.83700	29
3.84067	28
3.84433	28
3.84800	28
3.85167	27
3.85533	27
3.85900	27
3.86267	27
3.86633	27
3.87000	27
3.87367	27
3.87733	27
3.88100	27
3.88467	27
3.88833	27
3.89200	27
3.89567	27
3.89933	27
3.90300	27
3.90667	27
3.91033	27
3.91400	27
3.91767	27
3.92133	27
3.92500	28
3.92867	28
3.93233	28
3.93600	28
3.93967	28
3.94333	28
3.94700	28
3.95067	28
3.95433	27
3.95800	28
3.96167	28
3.96533	28
3.96900	28
3.97267	28
3.97633	28
3.98000	28
3.98367	28
3.98733	28
3.99100	28
3.99467	28
3.99833	28

[Chromatogram (Ch3)]
Interval(msec)	220
# of Points	1091
Start Time(min)	0.002
End Time(min)	3.998
R.Time (min)	Intensity
0.00167	1
0.00533	1
0.00900	0
0.01267	-2
0.01633	-3
0.02000	-2
0.02367	-2
0.02733	-3
0.03100	-4
0.03467	-3
0.03833	-3
0.04200	-1
0.04567	-1
0.04933	-1
0.05300	-2
0.05667	-2
0.06033	0
0.06400	2
0.06767	4
0.07133	4
0.07500	1
0.07867	-1
0.08233	-2
0.08600	-1
0.08967	1
0.09333	-0
0.09700	-0
0.10067	2
0.10433	2
0.10800	0
0.11167	-1
0.11533	-3
0.11900	-4
0.12267	-3
0.12633	-4
0.13000	-6
0.13367	-7
0.13733	-7
0.14100	-7
0.14467	-8
0.14833	-9
0.15200	-10
0.15567	-11
0.15933	-9
0.16300	-6
0.16667	-6
0.17033	-6
0.17400	-5
0.17767	-4
0.18133	-3
0.18500	-3
0.18867	-2
0.19233	-3
0.19600	-2
0.19967	1
0.20333	3
0.20700	3
0.21067	-0
0.21433	-1
0.21800	-1
0.22167	-1
0.22533	-3
0.22900	-5
0.23267	-5
0.23633	-4
0.24000	-2
0.24367	-2
0.24733	-1
0.25100	-2
0.25467	-3
0.25833	-3
0.26200	-3
0.26567	-3
0.26933	-2
0.27300	-2
0.27667	-2
0.28033	-1
0.28400	-3
0.28767	-6
0.29133	-7
0.29500	-8
0.29867	-9
0.30233	-8
0.30600	-7
0.30967	-7
0.31333	-5
0.31700	-3
0.32067	-1
0.32433	0
0.32800	-0
0.33167	-0
0.33533	2
0.33900	4
0.34267	5
0.34633	5
0.35000	3
0.35367	1
0.35733	2
0.36100	2
0.36467	4
0.36833	6
0.37200	4
0.37567	2
0.37933	2
0.38300	2
0.38667	2
0.39033	3
0.39400	2
0.39767	-1
0.40133	-3
0.40500	-4
0.40867	-4
0.41233	-2
0.41600	1
0.41967	2
0.42333	2
0.42700	2
0.43067	2
0.43433	2
0.43800	2
0.44167	1
0.44533	-0
0.44900	2
0.45267	4
0.45633	4
0.46000	6
0.46367	7
0.46733	4
0.47100	3
0.47467	2
0.47833	-1
0.48200	-1
0.48567	-0
0.48933	0
0.49300	1
0.49667	2
0.50033	2
0.50400	2
0.50767	4
0.51133	5
0.51500	5
0.51867	5
0.52233	3
0.52600	1
0.52967	1
0.53333	0
0.53700	-0
0.54067	-0
0.54433	-1
0.54800	-2
0.55167	-2
0.55533	0
0.55900	1
0.56267	4
0.56633	5
0.57000	5
0.57367	4
0.57733	2
0.58100	-0
0.58467	-3
0.58833	-3
0.59200	-2
0.59567	0
0.59933	1
0.60300	1
0.60667	3
0.61033	5
0.61400	5
0.61767	4
0.62133	1
0.62500	-1
0.62867	2
0.63233	2
0.63600	-1
0.63967	-3
0.64333	-1
0.64700	2
0.65067	2
0.65433	2
0.65800	1
0.66167	1
0.66533	1
0.66900	-1
0.67267	-2
0.67633	-2
0.68000	-1
0.68367	-0
0.68733	1
0.69100	2
0.69467	2
0.69833	2
0.70200	-1
0.70567	-5
0.70933	-8
0.71300	-8
0.71667	-7
0.72033	-7
0.72400	-5
0.72767	-5
0.73133	-3
0.73500	-1
0.73867	-1
0.74233	-2
0.74600	-4
0.74967	-4
0.75333	-4
0.75700	-3
0.76067	-4
0.76433	-4
0.76800	-3
0.77167	-3
0.77533	-2
0.77900	-2
0.78267	-2
0.78633	-3
0.79000	-2
0.79367	-1
0.79733	-1
0.80100	-2
0.80467	-2
0.80833	1
0.81200	2
0.81567	2
0.81933	5
0.82300	5
0.82667	5
0.83033	4
0.83400	3
0.83767	3
0.84133	2
0.84500	2
0.84867	3
0.85233	5
0.85600	6
0.85967	7
0.86333	8
0.86700	8
0.87067	9
0.87433	8
0.87800	6
0.88167	5
0.88533	5
0.88900	6
0.89267	6
0.89633	6
0.90000	6
0.90367	6
0.90733	5
0.91100	2
0.91467	0
0.91833	1
0.92200	-1
0.92567	-0
0.92933	1
0.93300	2
0.93667	2
0.94033	3
0.94400	4
0.94767	3
0.95133	-0
0.95500	-2
0.95867	-2
0.96233	0
0.96600	1
0.96967	1
0.97333	3
0.97700	5
0.98067	7
0.98433	7
0.98800	6
0.99167	6
0.99533	5
0.99900	5
1.00267	5
1.00633	5
1.01000	3
1.01367	4
1.01733	6
1.02100	7
1.02467	7
1.02833	8
1.03200	9
1.03567	6
1.03933	4
1.04300	4
1.04667	3
1.05033	3
1.05400	4
1.05767	4
1.06133	5
1.06500	7
1.06867	7
1.07233	8
1.07600	9
1.07967	9
1.08333	8
1.08700	11
1.09067	11
1.09433	9
1.09800	7
1.10167	6
1.10533	4
1.10900	3
1.11267	3
1.11633	6
1.12000	9
1.12367	11
1.12733	10
1.13100	9
1.13467	8
1.13833	7
1.14200	5
1.14567	4
1.14933	4
1.15300	4
1.15667	5
1.16033	7
1.16400	8
1.16767	7
1.17133	8
1.17500	8
1.17867	8
1.18233	8
1.18600	8
1.18967	8
1.19333	7
1.19700	7
1.20067	8
1.20433	9
1.20800	10
1.21167	11
1.21533	11
1.21900	12
1.22267	12
1.22633	13
1.23000	14
1.23367	12
1.23733	9
1.24100	6
1.24467	6
1.24833	6
1.25200	5
1.25567	6
1.25933	7
1.26300	8
1.26667	8
1.27033	8
1.27400	9
1.27767	10
1.28133	11
1.28500	11
1.28867	12
1.29233	12
1.29600	12
1.29967	13
1.30333	13
1.30700	11
1.31067	10
1.31433	12
1.31800	12
1.32167	11
1.32533	11
1.32900	8
1.33267	8
1.33633	9
1.34000	8
1.34367	6
1.34733	6
1.35100	7
1.35467	7
1.35833	7
1.36200	8
1.36567	8
1.36933	9
1.37300	10
1.37667	13
1.38033	14
1.38400	14
1.38767	15
1.39133	14
1.39500	13
1.39867	11
1.40233	10
1.40600	11
1.40967	14
1.41333	13
1.41700	12
1.42067	12
1.42433	12
1.42800	12
1.43167	13
1.43533	13
1.43900	12
1.44267	13
1.44633	13
1.45000	14
1.45367	15
1.45733	14
1.46100	14
1.46467	13
1.46833	12
1.47200	12
1.47567	14
1.47933	15
1.48300	14
1.48667	11
1.49033	8
1.49400	7
1.49767	6
1.50133	7
1.50500	9
1.50867	10
1.51233	13
1.51600	15
1.51967	16
1.52333	15
1.52700	14
1.53067	12
1.53433	11
1.53800	11
1.54167	11
1.54533	12
1.54900	13
1.55267	15
1.55633	12
1.56000	9
1.56367	8
1.56733	9
1.57100	10
1.57467	11
1.57833	14
1.58200	17
1.58567	17
1.58933	21
1.59300	24
1.59667	26
1.60033	26
1.60400	25
1.60767	24
1.61133	22
1.61500	20
1.61867	20
1.62233	20
1.62600	19
1.62967	19
1.63333	22
1.63700	24
1.64067	24
1.64433	23
1.64800	21
1.65167	19
1.65533	18
1.65900	18
1.66267	18
1.66633	18
1.67000	19
1.67367	25
1.67733	30
1.68100	32
1.68467	32
1.68833	31
1.69200	30
1.69567	29
1.69933	27
1.70300	26
1.70667	27
1.71033	27
1.71400	26
1.71767	28
1.72133	30
1.72500	30
1.72867	31
1.73233	32
1.73600	34
1.73967	33
1.74333	30
1.74700	28
1.75067	26
1.75433	27
1.75800	29
1.76167	30
1.76533	31
1.76900	32
1.77267	32
1.77633	31
1.78000	34
1.78367	35
1.78733	38
1.79100	42
1.79467	42
1.79833	40
1.80200	37
1.80567	36
1.80933	38
1.81300	38
1.81667	38
1.82033	39
1.82400	40
1.82767	41
1.83133	41
1.83500	40
1.83867	38
1.84233	37
1.84600	37
1.84967	38
1.85333	40
1.85700	42
1.86067	43
1.86433	45
1.86800	46
1.87167	47
1.87533	46
1.87900	44
1.88267	42
1.88633	43
1.89000	45
1.89367	45
1.89733	46
1.90100	50
1.90467	50
1.90833	50
1.91200	51
1.91567	52
1.91933	53
1.92300	54
1.92667	56
1.93033	58
1.93400	59
1.93767	59
1.94133	61
1.94500	62
1.94867	63
1.95233	63
1.95600	62
1.95967	61
1.96333	61
1.96700	63
1.97067	63
1.97433	64
1.97800	66
1.98167	67
1.98533	71
1.98900	75
1.99267	77
1.99633	76
2.00000	74
2.00367	73
2.00733	74
2.01100	78
2.01467	81
2.01833	81
2.02200	81
2.02567	81
2.02933	82
2.03300	84
2.03667	83
2.04033	82
2.04400	83
2.04767	85
2.05133	86
2.05500	87
2.05867	88
2.06233	89
2.06600	91
2.06967	91
2.07333	93
2.07700	97
2.08067	98
2.08433	100
2.08800	103
2.09167	105
2.09533	106
2.09900	106
2.10267	107
2.10633	108
2.11000	106
2.11367	106
2.11733	108
2.12100	109
2.12467	111
2.12833	114
2.13200	115
2.13567	116
2.13933	118
2.14300	121
2.14667	123
2.15033	124
2.15400	127
2.15767	128
2.16133	130
2.16500	133
2.16867	135
2.17233	135
2.17600	136
2.17967	136
2.18333	138
2.18700	140
2.19067	140
2.19433	140
2.19800	141
2.20167	143
2.20533	146
2.20900	150
2.21267	153
2.21633	155
2.22000	156
2.22367	158
2.22733	160
2.23100	162
2.23467	165
2.23833	165
2.24200	164
2.24567	165
2.24933	166
2.25300	168
2.25667	171
2.26033	171
2.26400	170
2.26767	170
2.27133	172
2.27500	179
2.27867	184
2.28233	184
2.28600	184
2.28967	187
2.29333	187
2.29700	186
2.30067	186
2.30433	187
2.30800	190
2.31167	193
2.31533	196
2.31900	198
2.32267	199
2.32633	202
2.33000	206
2.33367	208
2.33733	209
2.34100	209
2.34467	212
2.34833	215
2.35200	217
2.35567	222
2.35933	226
2.36300	229
2.36667	230
2.37033	231
2.37400	233
2.37767	235
2.38133	234
2.38500	234
2.38867	232
2.39233	231
2.39600	233
2.39967	239
2.40333	244
2.40700	249
2.41067	251
2.41433	252
2.41800	254
2.42167	256
2.42533	258
2.42900	260
2.43267	262
2.43633	265
2.44000	271
2.44367	332
2.44733	478
2.45100	635
2.45467	763
2.45833	836
2.46200	847
2.46567	817
2.46933	777
2.47300	745
2.47667	725
2.48033	712
2.48400	690
2.48767	650
2.49133	603
2.49500	559
2.49867	522
2.50233	493
2.50600	476
2.50967	471
2.51333	474
2.51700	483
2.52067	499
2.52433	517
2.52800	535
2.53167	547
2.53533	550
2.53900	540
2.54267	518
2.54633	491
2.55000	462
2.55367	433
2.55733	408
2.56100	386
2.56467	369
2.56833	357
2.57200	348
2.57567	345
2.57933	344
2.58300	343
2.58667	343
2.59033	341
2.59400	339
2.59767	335
2.60133	328
2.60500	321
2.60867	312
2.61233	298
2.61600	285
2.61967	274
2.62333	264
2.62700	257
2.63067	251
2.63433	249
2.63800	251
2.64167	254
2.64533	259
2.64900	264
2.65267	266
2.65633	263
2.66000	261
2.66367	258
2.66733	253
2.67100	246
2.67467	237
2.67833	227
2.68200	218
2.68567	209
2.68933	202
2.69300	195
2.69667	187
2.70033	182
2.70400	179
2.70767	174
2.71133	170
2.71500	167
2.71867	165
2.72233	165
2.72600	166
2.72967	168
2.73333	168
2.73700	169
2.74067	170
2.74433	173
2.74800	177
2.75167	180
2.75533	182
2.75900	184
2.76267	186
2.76633	186
2.77000	186
2.77367	186
2.77733	185
2.78100	185
2.78467	188
2.78833	190
2.79200	193
2.79567	196
2.79933	198
2.80300	199
2.80667	199
2.81033	201
2.81400	208
2.81767	225
2.82133	267
2.82500	359
2.82867	548
2.83233	895
2.83600	1466
2.83967	2320
2.84333	3482
2.84700	4942
2.85067	6640
2.85433	8470
2.85800	10300
2.86167	11996
2.86533	13424
2.86900	14479
2.87267	15108
2.87633	15307
2.88000	15109
2.88367	14582
2.88733	13808
2.89100	12871
2.89467	11843
2.89833	10784
2.90200	9736
2.90567	8732
2.90933	7791
2.91300	6923
2.91667	6130
2.92033	5414
2.92400	4775
2.92767	4206
2.93133	3701
2.93500	3257
2.93867	2866
2.94233	2522
2.94600	2218
2.94967	1953
2.95333	1725
2.95700	1523
2.96067	1349
2.96433	1199
2.96800	1066
2.97167	952
2.97533	852
2.97900	765
2.98267	691
2.98633	630
2.99000	575
2.99367	526
2.99733	482
3.00100	446
3.00467	414
3.00833	384
3.01200	358
3.01567	336
3.01933	320
3.02300	305
3.02667	293
3.03033	279
3.03400	266
3.03767	243
3.04133	202
3.04500	171
3.04867	159
3.05233	168
3.05600	188
3.05967	217
3.06333	252
3.06700	292
3.07067	333
3.07433	371
3.07800	405
3.08167	435
3.08533	462
3.08900	487
3.09267	508
3.09633	523
3.10000	538
3.10367	553
3.10733	565
3.11100	577
3.11467	587
3.11833	595
3.12200	602
3.12567	605
3.12933	607
3.13300	612
3.13667	617
3.14033	621
3.14400	624
3.14767	629
3.15133	633
3.15500	639
3.15867	643
3.16233	646
3.16600	646
3.16967	647
3.17333	649
3.17700	652
3.18067	655
3.18433	659
3.18800	660
3.19167	661
3.19533	667
3.19900	674
3.20267	680
3.20633	684
3.21000	687
3.21367	692
3.21733	697
3.22100	699
3.22467	702
3.22833	705
3.23200	710
3.23567	715
3.23933	722
3.24300	727
3.24667	731
3.25033	734
3.25400	738
3.25767	741
3.26133	744
3.26500	747
3.26867	750
3.27233	753
3.27600	755
3.27967	758
3.28333	762
3.28700	763
3.29067	763
3.29433	764
3.29800	765
3.30167	766
3.30533	767
3.30900	767
3.31267	766
3.31633	765
3.32000	766
3.32367	767
3.32733	766
3.33100	767
3.33467	767
3.33833	767
3.34200	766
3.34567	766
3.34933	766
3.35300	766
3.35667	764
3.36033	762
3.36400	763
3.36767	764
3.37133	761
3.37500	757
3.37867	753
3.38233	750
3.38600	750
3.38967	750
3.39333	748
3.39700	747
3.40067	748
3.40433	747
3.40800	747
3.41167	746
3.41533	745
3.41900	742
3.42267	739
3.42633	737
3.43000	737
3.43367	737
3.43733	736
3.44100	734
3.44467	732
3.44833	732
3.45200	729
3.45567	727
3.45933	723
3.46300	721
3.46667	719
3.47033	719
3.47400	717
3.47767	714
3.48133	712
3.48500	710
3.48867	709
3.49233	708
3.49600	708
3.49967	707
3.50333	706
3.50700	705
3.51067	707
3.51433	708
3.51800	707
3.52167	706
3.52533	704
3.52900	703
3.53267	701
3.53633	696
3.54000	693
3.54367	692
3.54733	690
3.55100	689
3.55467	690
3.55833	690
3.56200	688
3.56567	689
3.56933	690
3.57300	693
3.57667	694
3.58033	695
3.58400	693
3.58767	690
3.59133	690
3.59500	691
3.59867	693
3.60233	695
3.60600	696
3.60967	694
3.61333	692
3.61700	694
3.62067	696
3.62433	696
3.62800	694
3.63167	691
3.63533	689
3.63900	690
3.64267	693
3.64633	693
3.65000	694
3.65367	692
3.65733	690
3.66100	689
3.66467	689
3.66833	688
3.67200	689
3.67567	688
3.67933	690
3.68300	689
3.68667	686
3.69033	683
3.69400	681
3.69767	681
3.70133	682
3.70500	682
3.70867	682
3.71233	679
3.71600	675
3.71967	673
3.72333	672
3.72700	673
3.73067	675
3.73433	678
3.73800	679
3.74167	676
3.74533	675
3.74900	674
3.75267	674
3.75633	675
3.76000	677
3.76367	676
3.76733	674
3.77100	672
3.77467	671
3.77833	669
3.78200	665
3.78567	661
3.78933	660
3.79300	661
3.79667	658
3.80033	655
3.80400	652
3.80767	649
3.81133	648
3.81500	648
3.81867	648
3.82233	645
3.82600	640
3.82967	638
3.83333	637
3.83700	636
3.84067	633
3.84433	633
3.84800	636
3.85167	637
3.85533	636
3.85900	634
3.86267	632
3.86633	629
3.87000	628
3.87367	627
3.87733	625
3.88100	621
3.88467	616
3.88833	614
3.89200	612
3.89567	611
3.89933	610
3.90300	608
3.90667	606
3.91033	604
3.91400	604
3.91767	604
3.92133	603
3.92500	601
3.92867	599
3.93233	597
3.93600	596
3.93967	596
3.94333	596
3.94700	593
3.95067	593
3.95433	591
3.95800	587
3.96167	586
3.96533	585
3.96900	583
3.97267	581
3.97633	581
3.98000	579
3.98367	578
3.98733	574
3.99100	571
3.99467	570
3.99833	565

[Status Trace (Column Oven Temperature)]
Interval(msec)	1000
# of Points	240
Start Time(min)	0.004
End Time(min)	3.987
Intensity Units	
Intensity Multiplier	1
R.Time (min)	Intensity
0.00362	35.04
0.02028	35.04
0.03695	35.04
0.05362	35.04
0.07028	35.03
0.08695	35.01
0.10362	35.01
0.12028	35.01
0.13695	35.01
0.15362	35.00
0.17028	35.01
0.18695	35.01
0.20362	35.02
0.22028	35.03
0.23695	35.02
0.25362	35.02
0.27028	35.03
0.28695	35.02
0.30362	35.02
0.32028	35.02
0.33695	35.03
0.35362	35.03
0.37028	35.02
0.38695	35.00
0.40362	35.00
0.42028	34.99
0.43695	34.99
0.45362	35.01
0.47028	35.01
0.48695	35.03
0.50362	35.03
0.52028	35.02
0.53695	35.02
0.55362	35.01
0.57028	35.00
0.58695	34.99
0.60362	34.99
0.62028	34.99
0.63695	34.99
0.65362	35.01
0.67028	35.02
0.68695	35.02
0.70362	35.00
0.72028	35.01
0.73695	35.02
0.75362	35.01
0.77028	35.01
0.78695	35.01
0.80362	35.01
0.82028	35.02
0.83695	35.01
0.85362	35.01
0.87028	35.01
0.88695	35.02
0.90362	35.02
0.92028	35.03
0.93695	35.02
0.95362	35.02
0.97028	35.01
0.98695	35.00
1.00362	34.99
1.02028	34.98
1.03695	34.96
1.05362	34.97
1.07028	34.97
1.08695	34.97
1.10362	34.96
1.12028	34.97
1.13695	34.98
1.15362	34.97
1.17028	34.99
1.18695	34.99
1.20362	35.01
1.22028	35.02
1.23695	35.01
1.25362	35.00
1.27028	35.00
1.28695	35.00
1.30362	35.00
1.32028	35.02
1.33695	35.01
1.35362	35.02
1.37028	35.02
1.38695	35.01
1.40362	35.00
1.42028	34.99
1.43695	34.97
1.45362	34.96
1.47028	34.94
1.48695	34.92
1.50362	34.93
1.52028	34.95
1.53695	34.97
1.55362	34.98
1.57028	34.99
1.58695	35.01
1.60362	35.06
1.62028	35.18
1.63695	35.34
1.65362	35.55
1.67028	35.86
1.68695	36.23
1.70362	36.58
1.72028	36.94
1.73695	37.29
1.75362	37.60
1.77028	37.90
1.78695	38.21
1.80362	38.57
1.82028	38.90
1.83695	39.22
1.85362	39.54
1.87028	39.88
1.88695	40.23
1.90362	40.55
1.92028	40.89
1.93695	41.21
1.95362	41.53
1.97028	41.86
1.98695	42.19
2.00362	42.53
2.02028	42.85
2.03695	43.15
2.05362	43.45
2.07028	43.80
2.08695	44.11
2.10362	44.45
2.12028	44.78
2.13695	45.12
2.15362	45.45
2.17028	45.77
2.18695	46.10
2.20362	46.44
2.22028	46.75
2.23695	47.08
2.25362	47.40
2.27028	47.74
2.28695	48.07
2.30362	48.41
2.32028	48.77
2.33695	49.07
2.35362	49.37
2.37028	49.60
2.38695	49.71
2.40362	49.71
2.42028	49.73
2.43695	49.72
2.45362	49.73
2.47028	49.74
2.48695	49.74
2.50362	49.74
2.52028	49.76
2.53695	49.77
2.55362	49.78
2.57028	49.78
2.58695	49.81
2.60362	49.83
2.62028	49.84
2.63695	49.82
2.65362	49.84
2.67028	49.84
2.68695	49.85
2.70362	49.85
2.72028	49.87
2.73695	49.86
2.75362	49.84
2.77028	49.83
2.78695	49.87
2.80362	49.89
2.82028	49.90
2.83695	49.90
2.85362	49.88
2.87028	49.89
2.88695	49.89
2.90362	49.89
2.92028	49.89
2.93695	49.90
2.95362	49.91
2.97028	49.93
2.98695	49.94
3.00362	49.96
3.02028	49.98
3.03695	49.99
3.05362	49.99
3.07028	49.99
3.08695	49.99
3.10362	49.99
3.12028	49.99
3.13695	49.99
3.15362	50.00
3.17028	50.02
3.18695	50.03
3.20362	50.04
3.22028	50.05
3.23695	50.05
3.25362	50.06
3.27028	50.07
3.28695	50.07
3.30362	50.08
3.32028	50.09
3.33695	50.08
3.35362	50.08
3.37028	50.08
3.38695	50.09
3.40362	50.10
3.42028	50.11
3.43695	50.12
3.45362	50.11
3.47028	50.10
3.48695	50.08
3.50362	50.06
3.52028	50.06
3.53695	50.06
3.55362	50.04
3.57028	50.03
3.58695	50.03
3.60362	50.04
3.62028	50.04
3.63695	50.03
3.65362	50.02
3.67028	50.02
3.68695	50.04
3.70362	50.05
3.72028	50.05
3.73695	50.07
3.75362	50.07
3.77028	50.07
3.78695	50.05
3.80362	50.04
3.82028	50.03
3.83695	50.04
3.85362	50.04
3.87028	50.04
3.88695	50.03
3.90362	50.05
3.92028	50.06
3.93695	50.06
3.95362	50.07
3.97028	50.06
3.98695	50.06

[Status Trace (Injection Unit Temperature)]
Interval(msec)	1000
# of Points	240
Start Time(min)	0.004
End Time(min)	3.987
Intensity Units	
Intensity Multiplier	1
R.Time (min)	Intensity
0.00362	99.98
0.02028	99.98
0.03695	99.98
0.05362	99.98
0.07028	99.97
0.08695	99.97
0.10362	99.98
0.12028	99.98
0.13695	99.98
0.15362	99.97
0.17028	99.98
0.18695	99.98
0.20362	99.97
0.22028	99.97
0.23695	99.98
0.25362	99.98
0.27028	99.97
0.28695	99.98
0.30362	99.98
0.32028	99.98
0.33695	99.97
0.35362	99.98
0.37028	99.98
0.38695	99.97
0.40362	99.97
0.42028	99.98
0.43695	99.98
0.45362	99.98
0.47028	99.97
0.48695	99.97
0.50362	99.97
0.52028	99.98
0.53695	99.98
0.55362	99.98
0.57028	99.98
0.58695	99.98
0.60362	99.98
0.62028	99.98
0.63695	99.98
0.65362	99.98
0.67028	99.97
0.68695	99.98
0.70362	99.98
0.72028	99.98
0.73695	99.98
0.75362	99.98
0.77028	99.98
0.78695	99.98
0.80362	99.98
0.82028	99.98
0.83695	99.98
0.85362	99.98
0.87028	99.98
0.88695	99.98
0.90362	99.98
0.92028	99.98
0.93695	99.98
0.95362	99.98
0.97028	99.98
0.98695	99.98
1.00362	99.98
1.02028	99.98
1.03695	99.98
1.05362	99.96
1.07028	99.98
1.08695	99.98
1.10362	99.98
1.12028	99.98
1.13695	99.98
1.15362	99.98
1.17028	99.98
1.18695	99.98
1.20362	99.98
1.22028	99.98
1.23695	99.98
1.25362	99.97
1.27028	99.98
1.28695	99.98
1.30362	99.98
1.32028	99.98
1.33695	99.98
1.35362	99.98
1.37028	99.98
1.38695	99.98
1.40362	99.97
1.42028	99.98
1.43695	99.98
1.45362	99.98
1.47028	99.98
1.48695	99.97
1.50362	99.98
1.52028	99.98
1.53695	99.98
1.55362	99.98
1.57028	99.98
1.58695	99.98
1.60362	99.98
1.62028	99.98
1.63695	99.98
1.65362	99.98
1.67028	99.98
1.68695	99.98
1.70362	99.98
1.72028	99.98
1.73695	99.98
1.75362	99.98
1.77028	99.98
1.78695	99.98
1.80362	99.97
1.82028	99.98
1.83695	99.98
1.85362	99.98
1.87028	99.98
1.88695	99.98
1.90362	99.98
1.92028	99.98
1.93695	99.98
1.95362	99.98
1.97028	99.98
1.98695	99.97
2.00362	99.98
2.02028	99.97
2.03695	99.97
2.05362	99.98
2.07028	99.97
2.08695	99.97
2.10362	99.97
2.12028	99.97
2.13695	99.97
2.15362	99.97
2.17028	99.96
2.18695	99.96
2.20362	99.97
2.22028	99.95
2.23695	99.96
2.25362	99.96
2.27028	99.96
2.28695	99.96
2.30362	99.97
2.32028	99.95
2.33695	99.96
2.35362	99.96
2.37028	99.96
2.38695	99.96
2.40362	99.97
2.42028	99.97
2.43695	99.96
2.45362	99.96
2.47028	99.96
2.48695	99.97
2.50362	99.97
2.52028	99.97
2.53695	99.97
2.55362	99.97
2.57028	99.98
2.58695	99.98
2.60362	99.97
2.62028	99.98
2.63695	99.98
2.65362	99.98
2.67028	99.98
2.68695	99.98
2.70362	99.99
2.72028	99.99
2.73695	99.99
2.75362	99.99
2.77028	99.99
2.78695	100.00
2.80362	100.00
2.82028	100.00
2.83695	100.00
2.85362	100.01
2.87028	100.01
2.88695	100.01
2.90362	100.01
2.92028	100.01
2.93695	100.01
2.95362	100.01
2.97028	100.02
2.98695	100.02
3.00362	100.02
3.02028	100.02
3.03695	100.02
3.05362	100.02
3.07028	100.02
3.08695	100.02
3.10362	100.02
3.12028	100.02
3.13695	100.03
3.15362	100.03
3.17028	100.03
3.18695	100.03
3.20362	100.03
3.22028	100.03
3.23695	100.03
3.25362	100.03
3.27028	100.03
3.28695	100.03
3.30362	100.03
3.32028	100.03
3.33695	100.03
3.35362	100.03
3.37028	100.03
3.38695	100.03
3.40362	100.03
3.42028	100.03
3.43695	100.03
3.45362	100.04
3.47028	100.03
3.48695	100.03
3.50362	100.03
3.52028	100.03
3.53695	100.03
3.55362	100.04
3.57028	100.03
3.58695	100.04
3.60362	100.04
3.62028	100.04
3.63695	100.04
3.65362	100.04
3.67028	100.04
3.68695	100.04
3.70362	100.03
3.72028	100.04
3.73695	100.04
3.75362	100.04
3.77028	100.04
3.78695	100.04
3.80362	100.03
3.82028	100.04
3.83695	100.03
3.85362	100.04
3.87028	100.03
3.88695	100.04
3.90362	100.04
3.92028	100.04
3.93695	100.04
3.95362	100.04
3.97028	100.04
3.98695	100.04

[Status Trace (Carrier Gas Pressure)]
Interval(msec)	1000
# of Points	240
Start Time(min)	0.004
End Time(min)	3.987
Intensity Units	
Intensity Multiplier	1
R.Time (min)	Intensity
0.00362	58.00
0.02028	55.99
0.03695	56.45
0.05362	58.72
0.07028	59.79
0.08695	58.25
0.10362	57.97
0.12028	58.01
0.13695	58.01
0.15362	58.01
0.17028	58.00
0.18695	58.00
0.20362	58.00
0.22028	58.00
0.23695	58.00
0.25362	58.00
0.27028	58.00
0.28695	58.00
0.30362	58.00
0.32028	58.00
0.33695	58.00
0.35362	58.00
0.37028	58.00
0.38695	58.00
0.40362	58.00
0.42028	58.00
0.43695	58.00
0.45362	58.00
0.47028	58.00
0.48695	58.00
0.50362	58.00
0.52028	58.00
0.53695	58.00
0.55362	58.00
0.57028	58.00
0.58695	58.00
0.60362	58.00
0.62028	58.00
0.63695	58.00
0.65362	58.00
0.67028	58.00
0.68695	58.00
0.70362	58.00
0.72028	58.00
0.73695	58.00
0.75362	58.00
0.77028	58.00
0.78695	58.00
0.80362	58.00
0.82028	58.00
0.83695	58.00
0.85362	58.00
0.87028	58.00
0.88695	58.00
0.90362	58.00
0.92028	58.00
0.93695	58.00
0.95362	58.00
0.97028	58.00
0.98695	58.00
1.00362	58.00
1.02028	58.00
1.03695	58.00
1.05362	58.00
1.07028	58.00
1.08695	58.00
1.10362	58.00
1.12028	58.00
1.13695	58.00
1.15362	58.00
1.17028	58.00
1.18695	58.00
1.20362	58.00
1.22028	58.00
1.23695	58.00
1.25362	58.00
1.27028	58.00
1.28695	58.00
1.30362	58.00
1.32028	58.00
1.33695	58.00
1.35362	58.00
1.37028	58.00
1.38695	58.00
1.40362	58.00
1.42028	58.00
1.43695	58.00
1.45362	58.00
1.47028	58.00
1.48695	58.00
1.50362	58.00
1.52028	58.00
1.53695	58.00
1.55362	58.00
1.57028	58.00
1.58695	58.00
1.60362	58.00
1.62028	58.00
1.63695	58.00
1.65362	58.00
1.67028	58.01
1.68695	58.01
1.70362	58.00
1.72028	58.00
1.73695	58.00
1.75362	58.00
1.77028	58.00
1.78695	58.00
1.80362	58.00
1.82028	58.00
1.83695	58.00
1.85362	58.00
1.87028	58.00
1.88695	58.00
1.90362	58.00
1.92028	58.00
1.93695	58.00
1.95362	58.00
1.97028	58.00
1.98695	58.00
2.00362	58.00
2.02028	58.00
2.03695	58.00
2.05362	58.00
2.07028	58.00
2.08695	58.00
2.10362	58.00
2.12028	58.00
2.13695	58.00
2.15362	58.00
2.17028	58.00
2.18695	58.00
2.20362	58.00
2.22028	58.00
2.23695	58.00
2.25362	58.00
2.27028	58.00
2.28695	58.00
2.30362	58.00
2.32028	58.00
2.33695	58.00
2.35362	58.00
2.37028	58.00
2.38695	57.99
2.40362	57.99
2.42028	58.00
2.43695	58.00
2.45362	58.00
2.47028	58.00
2.48695	58.00
2.50362	57.97
2.52028	58.00
2.53695	58.00
2.55362	58.00
2.57028	58.00
2.58695	58.00
2.60362	58.00
2.62028	58.00
2.63695	58.00
2.65362	58.00
2.67028	58.00
2.68695	58.00
2.70362	58.00
2.72028	58.00
2.73695	58.00
2.75362	58.00
2.77028	58.00
2.78695	58.00
2.80362	58.00
2.82028	58.00
2.83695	58.00
2.85362	58.00
2.87028	58.00
2.88695	58.00
2.90362	58.00
2.92028	58.00
2.93695	58.00
2.95362	58.00
2.97028	58.00
2.98695	58.00
3.00362	58.00
3.02028	58.00
3.03695	58.00
3.05362	58.00
3.07028	58.00
3.08695	58.00
3.10362	58.00
3.12028	58.00
3.13695	58.00
3.15362	58.00
3.17028	58.00
3.18695	58.00
3.20362	58.00
3.22028	58.00
3.23695	58.00
3.25362	58.00
3.27028	58.00
3.28695	58.00
3.30362	58.00
3.32028	58.00
3.33695	58.00
3.35362	58.00
3.37028	58.00
3.38695	58.00
3.40362	58.00
3.42028	58.00
3.43695	58.00
3.45362	58.00
3.47028	58.00
3.48695	58.00
3.50362	58.00
3.52028	58.00
3.53695	58.00
3.55362	58.00
3.57028	58.00
3.58695	58.00
3.60362	58.00
3.62028	58.00
3.63695	58.00
3.65362	58.00
3.67028	58.00
3.68695	58.00
3.70362	58.00
3.72028	58.00
3.73695	58.00
3.75362	58.00
3.77028	58.00
3.78695	58.00
3.80362	58.00
3.82028	58.00
3.83695	58.00
3.85362	58.00
3.87028	58.00
3.88695	58.00
3.90362	58.00
3.92028	58.00
3.93695	58.00
3.95362	58.00
3.97028	58.00
3.98695	58.00

[Status Trace (Carrier Gas Flow)]
Interval(msec)	1000
# of Points	240
Start Time(min)	0.004
End Time(min)	3.987
Intensity Units	
Intensity Multiplier	1
R.Time (min)	Intensity
0.00362	34.52
0.02028	34.58
0.03695	34.54
0.05362	34.55
0.07028	34.49
0.08695	34.52
0.10362	34.52
0.12028	34.52
0.13695	34.52
0.15362	34.52
0.17028	34.52
0.18695	34.52
0.20362	34.51
0.22028	34.52
0.23695	34.52
0.25362	34.52
0.27028	34.52
0.28695	34.52
0.30362	34.52
0.32028	34.52
0.33695	34.51
0.35362	34.52
0.37028	34.52
0.38695	34.52
0.40362	34.52
0.42028	34.51
0.43695	34.52
0.45362	34.52
0.47028	34.52
0.48695	34.52
0.50362	34.52
0.52028	34.51
0.53695	34.53
0.55362	34.52
0.57028	34.52
0.58695	34.52
0.60362	34.52
0.62028	34.52
0.63695	34.52
0.65362	34.52
0.67028	34.52
0.68695	34.52
0.70362	34.52
0.72028	34.52
0.73695	34.52
0.75362	34.52
0.77028	34.52
0.78695	34.52
0.80362	34.52
0.82028	34.52
0.83695	34.52
0.85362	34.52
0.87028	34.52
0.88695	34.52
0.90362	34.52
0.92028	34.52
0.93695	34.52
0.95362	34.52
0.97028	34.52
0.98695	34.52
1.00362	34.52
1.02028	34.52
1.03695	34.52
1.05362	34.52
1.07028	34.52
1.08695	34.52
1.10362	34.52
1.12028	34.51
1.13695	34.52
1.15362	34.52
1.17028	34.52
1.18695	34.52
1.20362	34.52
1.22028	34.52
1.23695	34.53
1.25362	34.52
1.27028	34.52
1.28695	34.52
1.30362	34.52
1.32028	34.52
1.33695	34.52
1.35362	34.52
1.37028	34.52
1.38695	34.52
1.40362	34.52
1.42028	34.52
1.43695	34.52
1.45362	34.52
1.47028	34.52
1.48695	34.52
1.50362	34.51
1.52028	34.53
1.53695	34.52
1.55362	34.52
1.57028	34.52
1.58695	34.52
1.60362	34.52
1.62028	34.51
1.63695	34.52
1.65362	34.52
1.67028	34.52
1.68695	34.52
1.70362	34.52
1.72028	34.52
1.73695	34.51
1.75362	34.51
1.77028	34.52
1.78695	34.52
1.80362	34.52
1.82028	34.52
1.83695	34.52
1.85362	34.52
1.87028	34.52
1.88695	34.52
1.90362	34.52
1.92028	34.52
1.93695	34.52
1.95362	34.52
1.97028	34.52
1.98695	34.52
2.00362	34.51
2.02028	34.51
2.03695	34.52
2.05362	34.52
2.07028	34.52
2.08695	34.52
2.10362	34.52
2.12028	34.52
2.13695	34.51
2.15362	34.51
2.17028	34.52
2.18695	34.52
2.20362	34.52
2.22028	34.51
2.23695	34.52
2.25362	34.52
2.27028	34.52
2.28695	34.52
2.30362	34.51
2.32028	34.52
2.33695	34.52
2.35362	34.52
2.37028	34.51
2.38695	34.53
2.40362	34.52
2.42028	34.52
2.43695	34.52
2.45362	34.51
2.47028	34.52
2.48695	34.51
2.50362	34.66
2.52028	34.52
2.53695	34.52
2.55362	34.52
2.57028	34.52
2.58695	34.52
2.60362	34.52
2.62028	34.52
2.63695	34.52
2.65362	34.52
2.67028	34.52
2.68695	34.52
2.70362	34.52
2.72028	34.51
2.73695	34.52
2.75362	34.52
2.77028	34.52
2.78695	34.51
2.80362	34.52
2.82028	34.52
2.83695	34.52
2.85362	34.52
2.87028	34.52
2.88695	34.52
2.90362	34.52
2.92028	34.51
2.93695	34.52
2.95362	34.52
2.97028	34.53
2.98695	34.52
3.00362	34.53
3.02028	34.52
3.03695	34.51
3.05362	34.52
3.07028	34.53
3.08695	34.52
3.10362	34.51
3.12028	34.52
3.13695	34.52
3.15362	34.52
3.17028	34.52
3.18695	34.52
3.20362	34.52
3.22028	34.52
3.23695	34.52
3.25362	34.52
3.27028	34.51
3.28695	34.52
3.30362	34.52
3.32028	34.51
3.33695	34.52
3.35362	34.52
3.37028	34.52
3.38695	34.52
3.40362	34.52
3.42028	34.52
3.43695	34.52
3.45362	34.52
3.47028	34.52
3.48695	34.53
3.50362	34.51
3.52028	34.52
3.53695	34.52
3.55362	34.52
3.57028	34.52
3.58695	34.52
3.60362	34.52
3.62028	34.52
3.63695	34.51
3.65362	34.51
3.67028	34.52
3.68695	34.52
3.70362	34.52
3.72028	34.52
3.73695	34.52
3.75362	34.52
3.77028	34.52
3.78695	34.51
3.80362	34.52
3.82028	34.53
3.83695	34.51
3.85362	34.52
3.87028	34.52
3.88695	34.52
3.90362	34.52
3.92028	34.52
3.93695	34.52
3.95362	34.52
3.97028	34.51
3.98695	34.52

[Status Trace (Column Flow)]
Interval(msec)	1000
# of Points	240
Start Time(min)	0.004
End Time(min)	3.987
Intensity Units	
Intensity Multiplier	1
R.Time (min)	Intensity
0.00362	5.52
0.02028	5.29
0.03695	5.34
0.05362	5.61
0.07028	5.73
0.08695	5.55
0.10362	5.52
0.12028	5.52
0.13695	5.52
0.15362	5.52
0.17028	5.52
0.18695	5.52
0.20362	5.52
0.22028	5.52
0.23695	5.52
0.25362	5.52
0.27028	5.52
0.28695	5.52
0.30362	5.52
0.32028	5.52
0.33695	5.52
0.35362	5.52
0.37028	5.52
0.38695	5.52
0.40362	5.52
0.42028	5.52
0.43695	5.52
0.45362	5.52
0.47028	5.52
0.48695	5.52
0.50362	5.52
0.52028	5.52
0.53695	5.52
0.55362	5.52
0.57028	5.52
0.58695	5.52
0.60362	5.52
0.62028	5.52
0.63695	5.52
0.65362	5.52
0.67028	5.52
0.68695	5.52
0.70362	5.52
0.72028	5.52
0.73695	5.52
0.75362	5.52
0.77028	5.52
0.78695	5.52
0.80362	5.52
0.82028	5.52
0.83695	5.52
0.85362	5.52
0.87028	5.52
0.88695	5.52
0.90362	5.52
0.92028	5.52
0.93695	5.52
0.95362	5.52
0.97028	5.52
0.98695	5.52
1.00362	5.52
1.02028	5.52
1.03695	5.52
1.05362	5.52
1.07028	5.52
1.08695	5.52
1.10362	5.52
1.12028	5.52
1.13695	5.52
1.15362	5.52
1.17028	5.52
1.18695	5.52
1.20362	5.52
1.22028	5.52
1.23695	5.52
1.25362	5.52
1.27028	5.52
1.28695	5.52
1.30362	5.52
1.32028	5.52
1.33695	5.52
1.35362	5.52
1.37028	5.52
1.38695	5.52
1.40362	5.52
1.42028	5.52
1.43695	5.52
1.45362	5.52
1.47028	5.52
1.48695	5.52
1.50362	5.52
1.52028	5.52
1.53695	5.52
1.55362	5.52
1.57028	5.52
1.58695	5.52
1.60362	5.52
1.62028	5.52
1.63695	5.51
1.65362	5.50
1.67028	5.50
1.68695	5.49
1.70362	5.47
1.72028	5.46
1.73695	5.45
1.75362	5.44
1.77028	5.43
1.78695	5.42
1.80362	5.41
1.82028	5.40
1.83695	5.39
1.85362	5.38
1.87028	5.37
1.88695	5.36
1.90362	5.35
1.92028	5.34
1.93695	5.33
1.95362	5.32
1.97028	5.31
1.98695	5.30
2.00362	5.29
2.02028	5.28
2.03695	5.27
2.05362	5.26
2.07028	5.26
2.08695	5.25
2.10362	5.24
2.12028	5.23
2.13695	5.22
2.15362	5.21
2.17028	5.20
2.18695	5.19
2.20362	5.18
2.22028	5.17
2.23695	5.16
2.25362	5.15
2.27028	5.14
2.28695	5.13
2.30362	5.12
2.32028	5.11
2.33695	5.11
2.35362	5.10
2.37028	5.09
2.38695	5.09
2.40362	5.09
2.42028	5.09
2.43695	5.09
2.45362	5.09
2.47028	5.09
2.48695	5.09
2.50362	5.08
2.52028	5.09
2.53695	5.08
2.55362	5.09
2.57028	5.08
2.58695	5.08
2.60362	5.08
2.62028	5.08
2.63695	5.08
2.65362	5.08
2.67028	5.08
2.68695	5.08
2.70362	5.08
2.72028	5.08
2.73695	5.08
2.75362	5.08
2.77028	5.08
2.78695	5.08
2.80362	5.08
2.82028	5.08
2.83695	5.08
2.85362	5.08
2.87028	5.08
2.88695	5.08
2.90362	5.08
2.92028	5.08
2.93695	5.08
2.95362	5.08
2.97028	5.08
2.98695	5.08
3.00362	5.08
3.02028	5.08
3.03695	5.08
3.05362	5.08
3.07028	5.08
3.08695	5.08
3.10362	5.08
3.12028	5.08
3.13695	5.08
3.15362	5.08
3.17028	5.08
3.18695	5.08
3.20362	5.08
3.22028	5.08
3.23695	5.08
3.25362	5.08
3.27028	5.08
3.28695	5.08
3.30362	5.08
3.32028	5.08
3.33695	5.08
3.35362	5.08
3.37028	5.08
3.38695	5.08
3.40362	5.08
3.42028	5.08
3.43695	5.08
3.45362	5.08
3.47028	5.08
3.48695	5.08
3.50362	5.08
3.52028	5.08
3.53695	5.08
3.55362	5.08
3.57028	5.08
3.58695	5.08
3.60362	5.08
3.62028	5.08
3.63695	5.08
3.65362	5.08
3.67028	5.08
3.68695	5.08
3.70362	5.08
3.72028	5.08
3.73695	5.08
3.75362	5.08
3.77028	5.08
3.78695	5.08
3.80362	5.08
3.82028	5.08
3.83695	5.08
3.85362	5.08
3.87028	5.08
3.88695	5.08
3.90362	5.08
3.92028	5.08
3.93695	5.08
3.95362	5.08
3.97028	5.08
3.98695	5.08

[Status Trace (Linear Velocity)]
Interval(msec)	1000
# of Points	240
Start Time(min)	0.004
End Time(min)	3.987
Intensity Units	
Intensity Multiplier	1
R.Time (min)	Intensity
0.00362	39.01
0.02028	37.69
0.03695	38.00
0.05362	39.49
0.07028	40.19
0.08695	39.18
0.10362	39.00
0.12028	39.02
0.13695	39.02
0.15362	39.02
0.17028	39.02
0.18695	39.02
0.20362	39.02
0.22028	39.02
0.23695	39.02
0.25362	39.02
0.27028	39.01
0.28695	39.02
0.30362	39.02
0.32028	39.02
0.33695	39.01
0.35362	39.01
0.37028	39.01
0.38695	39.02
0.40362	39.02
0.42028	39.02
0.43695	39.02
0.45362	39.02
0.47028	39.02
0.48695	39.01
0.50362	39.01
0.52028	39.01
0.53695	39.02
0.55362	39.02
0.57028	39.02
0.58695	39.02
0.60362	39.02
0.62028	39.02
0.63695	39.02
0.65362	39.02
0.67028	39.02
0.68695	39.01
0.70362	39.02
0.72028	39.02
0.73695	39.02
0.75362	39.02
0.77028	39.02
0.78695	39.02
0.80362	39.02
0.82028	39.01
0.83695	39.02
0.85362	39.02
0.87028	39.02
0.88695	39.01
0.90362	39.01
0.92028	39.01
0.93695	39.01
0.95362	39.02
0.97028	39.02
0.98695	39.02
1.00362	39.02
1.02028	39.02
1.03695	39.02
1.05362	39.02
1.07028	39.02
1.08695	39.02
1.10362	39.02
1.12028	39.02
1.13695	39.02
1.15362	39.02
1.17028	39.02
1.18695	39.02
1.20362	39.02
1.22028	39.02
1.23695	39.02
1.25362	39.02
1.27028	39.02
1.28695	39.02
1.30362	39.02
1.32028	39.01
1.33695	39.02
1.35362	39.02
1.37028	39.01
1.38695	39.02
1.40362	39.02
1.42028	39.02
1.43695	39.02
1.45362	39.02
1.47028	39.02
1.48695	39.02
1.50362	39.02
1.52028	39.02
1.53695	39.02
1.55362	39.02
1.57028	39.02
1.58695	39.02
1.60362	39.01
1.62028	39.00
1.63695	38.99
1.65362	38.97
1.67028	38.94
1.68695	38.91
1.70362	38.87
1.72028	38.83
1.73695	38.80
1.75362	38.77
1.77028	38.74
1.78695	38.71
1.80362	38.68
1.82028	38.65
1.83695	38.62
1.85362	38.59
1.87028	38.55
1.88695	38.52
1.90362	38.49
1.92028	38.46
1.93695	38.43
1.95362	38.40
1.97028	38.37
1.98695	38.34
2.00362	38.31
2.02028	38.28
2.03695	38.25
2.05362	38.22
2.07028	38.19
2.08695	38.16
2.10362	38.13
2.12028	38.10
2.13695	38.07
2.15362	38.04
2.17028	38.01
2.18695	37.98
2.20362	37.95
2.22028	37.92
2.23695	37.90
2.25362	37.86
2.27028	37.83
2.28695	37.81
2.30362	37.77
2.32028	37.74
2.33695	37.72
2.35362	37.69
2.37028	37.67
2.38695	37.65
2.40362	37.65
2.42028	37.66
2.43695	37.66
2.45362	37.66
2.47028	37.66
2.48695	37.65
2.50362	37.64
2.52028	37.65
2.53695	37.65
2.55362	37.65
2.57028	37.65
2.58695	37.65
2.60362	37.65
2.62028	37.65
2.63695	37.65
2.65362	37.65
2.67028	37.65
2.68695	37.65
2.70362	37.65
2.72028	37.65
2.73695	37.64
2.75362	37.65
2.77028	37.65
2.78695	37.65
2.80362	37.64
2.82028	37.64
2.83695	37.64
2.85362	37.64
2.87028	37.64
2.88695	37.64
2.90362	37.64
2.92028	37.64
2.93695	37.64
2.95362	37.64
2.97028	37.64
2.98695	37.64
3.00362	37.64
3.02028	37.63
3.03695	37.63
3.05362	37.63
3.07028	37.63
3.08695	37.63
3.10362	37.63
3.12028	37.63
3.13695	37.63
3.15362	37.63
3.17028	37.63
3.18695	37.63
3.20362	37.63
3.22028	37.63
3.23695	37.63
3.25362	37.63
3.27028	37.63
3.28695	37.63
3.30362	37.63
3.32028	37.62
3.33695	37.63
3.35362	37.63
3.37028	37.63
3.38695	37.62
3.40362	37.62
3.42028	37.62
3.43695	37.62
3.45362	37.62
3.47028	37.62
3.48695	37.63
3.50362	37.63
3.52028	37.63
3.53695	37.63
3.55362	37.63
3.57028	37.63
3.58695	37.63
3.60362	37.63
3.62028	37.63
3.63695	37.63
3.65362	37.63
3.67028	37.63
3.68695	37.63
3.70362	37.63
3.72028	37.63
3.73695	37.63
3.75362	37.63
3.77028	37.63
3.78695	37.63
3.80362	37.63
3.82028	37.63
3.83695	37.63
3.85362	37.63
3.87028	37.63
3.88695	37.63
3.90362	37.63
3.92028	37.63
3.93695	37.63
3.95362	37.63
3.97028	37.63
3.98695	37.63

