[Header]
Application Name	LabSolutions
Version	5.110
Data File Name	C:\Users\User\Desktop\GC Analyses\Jack\Nachusa Grasslands Sampling\T2 Timepoint July 12th\T2_07122022_046.gcd
Output Date	3/14/2023
Output Time	3:42:32 PM

[File Information]
Type	Data File
Generated	3/10/2023 5:30:47 PM
Generated by	System Administrator
Modified	3/10/2023 5:37:30 PM
Modified by	System Administrator

[Sample Information]
Operator Name	System Administrator
Acquired	3/10/2023 5:33:29 PM
Sample Type	0:Unknown
Level	0
Sample Name	046
Sample ID	046
ISTD Amount1	1
ISTD Amount2	1
ISTD Amount3	1
ISTD Amount4	1
ISTD Amount5	1
ISTD Amount6	1
ISTD Amount7	1
ISTD Amount8	1
ISTD Amount9	1
ISTD Amount10	1
ISTD Amount11	1
ISTD Amount12	1
ISTD Amount13	1
ISTD Amount14	1
ISTD Amount15	1
ISTD Amount16	1
ISTD Amount17	1
ISTD Amount18	1
ISTD Amount19	1
ISTD Amount20	1
ISTD Amount21	1
ISTD Amount22	1
ISTD Amount23	1
ISTD Amount24	1
ISTD Amount25	1
ISTD Amount26	1
ISTD Amount27	1
ISTD Amount28	1
ISTD Amount29	1
ISTD Amount30	1
ISTD Amount31	1
ISTD Amount32	1
Sample Amount	1
Dilution Factor	1
Vial#	45
Injection Volume	1
Injection Count	1
Bar Code	

[Original Files]
Data File	C:\Users\User\Desktop\GC Analyses\Jack\Nachusa Grasslands Sampling\T1 Timepoint July 12th\T2_07122022_046.gcd
Method File	C:\LabSolutions\Data\GHG_4min_2022\ghg3_togas_w_acet_4 min_new_int.gcm
Batch File	C:\LabSolutions\Data\AutoSamplerTesting\T2_07122022.gcb
Report Format File	c:\LabSolutions\System\DEFAULT.lsr

[File Description]


[Configuration]
Instrument Name	C0B7VH3-Instrument1
Instrument #	1
Line #	1
# of Detectors	3
Detector ID	DET#1	DET#2	DET#3
Detector Name	FID	PTCD	ECD
# of Channels	1	1	1

[Peak Table(Ch1)]
# of Peaks	3
Peak#	R.Time	I.Time	F.Time	Area	Height	A/H	Conc.	Mark	ID#	Name	k'	Plate #	Plate Ht.	Tailing	Resolution	Sep.Factor	Area Ratio	Height Ratio	Conc. %	Norm Conc.
1	1.476	1.435	1.538	25303	11988	2.111	178.637	   	1	CO	0.000	9348	16.046	1.280	0.000	0.000	0	0	28.247	28.247
2	1.567	1.538	1.619	4419	2178	2.029	85.448	 V 	2	CH4	0.062	10454	14.348	0.000	1.498	0.000	0	0	13.511	13.511
3	1.996	1.949	2.451	1467637	701862	2.091	368.337	   	3	CO2	0.353	17354	8.643	1.270	7.037	5.680	0	0	58.242	58.242

[Peak Table(Ch2)]
# of Peaks	0

[Peak Table(Ch3)]
# of Peaks	6
Peak#	R.Time	I.Time	F.Time	Area	Height	A/H	Conc.	Mark	ID#	Name	k'	Plate #	Plate Ht.	Tailing	Resolution	Sep.Factor	Area Ratio	Height Ratio	Conc. %	Norm Conc.
1	2.462	2.286	2.513	2241	642	3.491	0.000	   			0.000	9316	16.102	0.000	0.000	0.000	0	0	0.000	0.000
2	2.535	2.513	2.642	1483	356	4.167	0.000	 V 			0.030	5247	28.586	0.000	0.606	0.000	0	0	0.000	0.000
3	2.656	2.642	2.719	250	101	2.466	0.000	 V 			0.079	6259	23.964	0.000	0.882	2.650	0	0	0.000	0.000
4	2.876	2.807	3.115	19759	5077	3.892	0.505	S  	1	N2O	0.168	13228	11.339	1.671	1.878	2.132	0	0	100.000	100.000
5	3.104	3.096	3.111	14	26	0.540	0.000	T  	2	SF6	0.261	475691	0.315	1.010	3.852	1.549	0	0	0.000	0.000
6	3.327	3.122	3.995	16033	512	31.303	0.000	   	2	SF6	0.351	221	677.799	2.075	0.490	1.349	0	0	0.000	0.000

[Compound Results(Ch1)]
# of IDs	6
ID#	Name	R.Time	Area	Height	Conc.	Curve	3rd	2nd	1st	Constant	Area Ratio	Height Ratio	Conc. %	Norm Conc.
1	CO	1.476	25303	11988	178.637	Linear	0.000000e+00	0.000000e+00	1.416423e+002	0.000000e+00	0	0	28.247	28.247
2	CH4	1.567	4419	2178	85.448	Linear	0.000000e+00	0.000000e+00	5.171738e+001	0.000000e+00	0	0	13.511	13.511
3	CO2	1.996	1467637	701862	368.337	Linear	0.000000e+00	0.000000e+00	3.984494e+003	0.000000e+00	0	0	58.242	58.242
4	Ethylene	0.000	0	0	0.000	Linear	0.000000e+00	0.000000e+00	0.000000e+00	0.000000e+00	0	0	0.000	0.000
5	Acetylene	0.000	0	0	0.000	Linear	0.000000e+00	0.000000e+00	0.000000e+00	0.000000e+00	0	0	0.000	0.000
6	Ethane	0.000	0	0	0.000	Linear	0.000000e+00	0.000000e+00	0.000000e+00	0.000000e+00	0	0	0.000	0.000

[Compound Results(Ch2)]
# of IDs	5
ID#	Name	R.Time	Area	Height	Conc.	Curve	3rd	2nd	1st	Constant	Area Ratio	Height Ratio	Conc. %	Norm Conc.
1	Hydrogen	0.000	0	0	0.000	Linear	0.000000e+00	0.000000e+00	0.000000e+00	0.000000e+00	0	0	0.000	0.000
2	Oxygen	0.000	0	0	0.000	Linear	0.000000e+00	0.000000e+00	0.000000e+00	0.000000e+00	0	0	0.000	0.000
3	Nitrogen	0.000	0	0	0.000	Linear	0.000000e+00	0.000000e+00	0.000000e+00	0.000000e+00	0	0	0.000	0.000
4	Methane	0.000	0	0	0.000	Linear	0.000000e+00	0.000000e+00	0.000000e+00	0.000000e+00	0	0	0.000	0.000
5	Carbon Monoxide	0.000	0	0	0.000	Linear	0.000000e+00	0.000000e+00	0.000000e+00	0.000000e+00	0	0	0.000	0.000

[Compound Results(Ch3)]
# of IDs	2
ID#	Name	R.Time	Area	Height	Conc.	Curve	3rd	2nd	1st	Constant	Area Ratio	Height Ratio	Conc. %	Norm Conc.
1	N2O	2.876	19759	5077	0.505	Linear	0.000000e+00	0.000000e+00	3.915173e+004	0.000000e+00	0	0	100.000	100.000
2	SF6	3.327	16047	538	0.000	Linear	0.000000e+00	0.000000e+00	0.000000e+00	0.000000e+00	0	0	0.000	0.000

[Group Results(Ch1)]
# of Groups	0

[Group Results(Ch2)]
# of Groups	0

[Group Results(Ch3)]
# of Groups	0

[Chromatogram (Ch1)]
Interval(msec)	220
# of Points	1091
Start Time(min)	0.002
End Time(min)	3.998
R.Time (min)	Intensity
0.00167	19
0.00533	20
0.00900	18
0.01267	15
0.01633	12
0.02000	6
0.02367	3
0.02733	2
0.03100	1
0.03467	-1
0.03833	-3
0.04200	-1
0.04567	3
0.04933	4
0.05300	5
0.05667	6
0.06033	5
0.06400	7
0.06767	9
0.07133	12
0.07500	14
0.07867	16
0.08233	20
0.08600	22
0.08967	17
0.09333	9
0.09700	4
0.10067	1
0.10433	-1
0.10800	-1
0.11167	3
0.11533	7
0.11900	10
0.12267	11
0.12633	10
0.13000	8
0.13367	6
0.13733	4
0.14100	2
0.14467	4
0.14833	1
0.15200	-3
0.15567	-2
0.15933	3
0.16300	13
0.16667	20
0.17033	23
0.17400	27
0.17767	28
0.18133	28
0.18500	28
0.18867	29
0.19233	31
0.19600	35
0.19967	42
0.20333	50
0.20700	54
0.21067	52
0.21433	48
0.21800	41
0.22167	37
0.22533	39
0.22900	40
0.23267	40
0.23633	44
0.24000	55
0.24367	62
0.24733	62
0.25100	60
0.25467	58
0.25833	56
0.26200	61
0.26567	67
0.26933	68
0.27300	61
0.27667	49
0.28033	40
0.28400	35
0.28767	31
0.29133	29
0.29500	34
0.29867	40
0.30233	44
0.30600	45
0.30967	43
0.31333	41
0.31700	40
0.32067	37
0.32433	33
0.32800	26
0.33167	17
0.33533	10
0.33900	8
0.34267	12
0.34633	16
0.35000	17
0.35367	17
0.35733	18
0.36100	18
0.36467	19
0.36833	19
0.37200	16
0.37567	10
0.37933	3
0.38300	-2
0.38667	-5
0.39033	-8
0.39400	-12
0.39767	-10
0.40133	-8
0.40500	-6
0.40867	-3
0.41233	2
0.41600	5
0.41967	6
0.42333	4
0.42700	4
0.43067	11
0.43433	19
0.43800	22
0.44167	18
0.44533	12
0.44900	3
0.45267	-4
0.45633	-9
0.46000	-10
0.46367	-7
0.46733	-7
0.47100	-6
0.47467	-1
0.47833	5
0.48200	8
0.48567	8
0.48933	7
0.49300	4
0.49667	1
0.50033	-1
0.50400	0
0.50767	4
0.51133	8
0.51500	6
0.51867	1
0.52233	-8
0.52600	-17
0.52967	-24
0.53333	-21
0.53700	-9
0.54067	2
0.54433	7
0.54800	8
0.55167	5
0.55533	1
0.55900	-5
0.56267	-9
0.56633	-11
0.57000	-13
0.57367	-13
0.57733	-9
0.58100	-9
0.58467	-11
0.58833	-11
0.59200	-6
0.59567	-3
0.59933	-5
0.60300	-6
0.60667	-4
0.61033	-3
0.61400	-4
0.61767	-5
0.62133	-4
0.62500	-5
0.62867	-5
0.63233	-5
0.63600	-8
0.63967	-12
0.64333	-18
0.64700	-26
0.65067	-32
0.65433	-33
0.65800	-32
0.66167	-32
0.66533	-32
0.66900	-28
0.67267	-23
0.67633	-18
0.68000	-16
0.68367	-15
0.68733	-17
0.69100	-16
0.69467	-9
0.69833	-4
0.70200	-1
0.70567	-2
0.70933	-4
0.71300	-6
0.71667	-8
0.72033	-11
0.72400	-15
0.72767	-13
0.73133	-9
0.73500	-8
0.73867	-10
0.74233	-14
0.74600	-17
0.74967	-13
0.75333	-10
0.75700	-10
0.76067	-12
0.76433	-13
0.76800	-11
0.77167	-6
0.77533	-2
0.77900	-3
0.78267	-4
0.78633	2
0.79000	10
0.79367	13
0.79733	12
0.80100	8
0.80467	2
0.80833	-1
0.81200	-3
0.81567	-7
0.81933	-12
0.82300	-10
0.82667	-2
0.83033	10
0.83400	17
0.83767	18
0.84133	16
0.84500	13
0.84867	10
0.85233	12
0.85600	18
0.85967	22
0.86333	18
0.86700	11
0.87067	6
0.87433	5
0.87800	7
0.88167	7
0.88533	9
0.88900	9
0.89267	8
0.89633	10
0.90000	14
0.90367	18
0.90733	20
0.91100	18
0.91467	15
0.91833	12
0.92200	7
0.92567	-0
0.92933	-4
0.93300	-4
0.93667	2
0.94033	6
0.94400	5
0.94767	-2
0.95133	-10
0.95500	-14
0.95867	-9
0.96233	2
0.96600	14
0.96967	17
0.97333	10
0.97700	0
0.98067	-9
0.98433	-13
0.98800	-14
0.99167	-14
0.99533	-8
0.99900	6
1.00267	22
1.00633	31
1.01000	32
1.01367	32
1.01733	28
1.02100	18
1.02467	5
1.02833	-7
1.03200	-20
1.03567	-32
1.03933	-44
1.04300	-52
1.04667	-50
1.05033	-40
1.05400	-26
1.05767	-15
1.06133	-8
1.06500	-4
1.06867	-3
1.07233	-7
1.07600	-12
1.07967	-13
1.08333	-14
1.08700	-15
1.09067	-19
1.09433	-26
1.09800	-29
1.10167	-27
1.10533	-26
1.10900	-27
1.11267	-30
1.11633	-32
1.12000	-31
1.12367	-31
1.12733	-28
1.13100	-22
1.13467	-16
1.13833	-10
1.14200	-9
1.14567	-11
1.14933	-12
1.15300	-16
1.15667	-23
1.16033	-29
1.16400	-37
1.16767	-45
1.17133	-50
1.17500	-50
1.17867	-43
1.18233	-34
1.18600	-25
1.18967	-12
1.19333	-1
1.19700	5
1.20067	4
1.20433	-1
1.20800	-6
1.21167	-9
1.21533	-13
1.21900	-12
1.22267	-5
1.22633	3
1.23000	7
1.23367	13
1.23733	18
1.24100	16
1.24467	8
1.24833	-4
1.25200	-16
1.25567	-29
1.25933	-41
1.26300	-44
1.26667	-44
1.27033	-43
1.27400	-45
1.27767	-50
1.28133	-53
1.28500	-54
1.28867	-53
1.29233	-50
1.29600	-41
1.29967	-28
1.30333	-20
1.30700	-16
1.31067	-17
1.31433	-23
1.31800	-27
1.32167	-29
1.32533	-33
1.32900	-38
1.33267	-42
1.33633	-46
1.34000	-44
1.34367	-40
1.34733	-34
1.35100	-26
1.35467	-19
1.35833	-17
1.36200	-18
1.36567	-26
1.36933	-37
1.37300	-48
1.37667	-59
1.38033	-64
1.38400	-63
1.38767	-58
1.39133	-54
1.39500	-49
1.39867	-38
1.40233	-29
1.40600	-27
1.40967	-30
1.41333	-39
1.41700	-52
1.42067	-65
1.42433	-71
1.42800	-72
1.43167	-70
1.43533	-59
1.43900	-19
1.44267	97
1.44633	350
1.45000	940
1.45367	2231
1.45733	4247
1.46100	6563
1.46467	8707
1.46833	10406
1.47200	11526
1.47567	11945
1.47933	11568
1.48300	10439
1.48667	8797
1.49033	6984
1.49400	5297
1.49767	3893
1.50133	2810
1.50500	2013
1.50867	1441
1.51233	1041
1.51600	764
1.51967	567
1.52333	429
1.52700	333
1.53067	264
1.53433	218
1.53800	205
1.54167	264
1.54533	446
1.54900	762
1.55267	1154
1.55633	1537
1.56000	1855
1.56367	2077
1.56733	2171
1.57100	2114
1.57467	1906
1.57833	1593
1.58200	1241
1.58567	917
1.58933	652
1.59300	449
1.59667	299
1.60033	196
1.60400	127
1.60767	80
1.61133	49
1.61500	27
1.61867	13
1.62233	9
1.62600	14
1.62967	20
1.63333	20
1.63700	14
1.64067	3
1.64433	-9
1.64800	-20
1.65167	-27
1.65533	-33
1.65900	-39
1.66267	-43
1.66633	-45
1.67000	-41
1.67367	-34
1.67733	-31
1.68100	-32
1.68467	-36
1.68833	-43
1.69200	-49
1.69567	-52
1.69933	-55
1.70300	-52
1.70667	-45
1.71033	-38
1.71400	-37
1.71767	-43
1.72133	-54
1.72500	-64
1.72867	-72
1.73233	-74
1.73600	-71
1.73967	-62
1.74333	-51
1.74700	-44
1.75067	-39
1.75433	-36
1.75800	-38
1.76167	-44
1.76533	-48
1.76900	-55
1.77267	-64
1.77633	-68
1.78000	-64
1.78367	-61
1.78733	-65
1.79100	-70
1.79467	-74
1.79833	-78
1.80200	-81
1.80567	-82
1.80933	-80
1.81300	-74
1.81667	-63
1.82033	-51
1.82400	-41
1.82767	-35
1.83133	-40
1.83500	-51
1.83867	-61
1.84233	-69
1.84600	-77
1.84967	-81
1.85333	-81
1.85700	-76
1.86067	-66
1.86433	-56
1.86800	-48
1.87167	-46
1.87533	-48
1.87900	-52
1.88267	-54
1.88633	-55
1.89000	-54
1.89367	-55
1.89733	-59
1.90100	-65
1.90467	-73
1.90833	-80
1.91200	-83
1.91567	-81
1.91933	-75
1.92300	-66
1.92667	-56
1.93033	-51
1.93400	-50
1.93767	-52
1.94133	-54
1.94500	-50
1.94867	-45
1.95233	-28
1.95600	129
1.95967	1023
1.96333	4901
1.96700	17715
1.97067	50343
1.97433	115001
1.97800	216047
1.98167	343453
1.98533	476315
1.98900	591494
1.99267	670522
1.99633	701853
2.00000	682447
2.00367	618698
2.00733	525128
2.01100	420060
2.01467	319692
2.01833	234112
2.02200	166902
2.02567	117138
2.02933	81765
2.03300	57298
2.03667	40656
2.04033	29425
2.04400	21846
2.04767	16692
2.05133	13142
2.05500	10654
2.05867	8873
2.06233	7572
2.06600	6592
2.06967	5833
2.07333	5237
2.07700	4755
2.08067	4360
2.08433	4031
2.08800	3743
2.09167	3484
2.09533	3254
2.09900	3053
2.10267	2876
2.10633	2720
2.11000	2584
2.11367	2459
2.11733	2339
2.12100	2229
2.12467	2131
2.12833	2042
2.13200	1960
2.13567	1887
2.13933	1822
2.14300	1762
2.14667	1698
2.15033	1632
2.15400	1567
2.15767	1506
2.16133	1451
2.16500	1398
2.16867	1351
2.17233	1304
2.17600	1260
2.17967	1225
2.18333	1194
2.18700	1162
2.19067	1130
2.19433	1101
2.19800	1076
2.20167	1052
2.20533	1028
2.20900	1004
2.21267	979
2.21633	954
2.22000	929
2.22367	906
2.22733	883
2.23100	859
2.23467	834
2.23833	809
2.24200	786
2.24567	764
2.24933	742
2.25300	726
2.25667	715
2.26033	707
2.26400	698
2.26767	690
2.27133	678
2.27500	663
2.27867	652
2.28233	642
2.28600	634
2.28967	629
2.29333	621
2.29700	603
2.30067	582
2.30433	563
2.30800	549
2.31167	541
2.31533	538
2.31900	538
2.32267	536
2.32633	524
2.33000	507
2.33367	496
2.33733	490
2.34100	484
2.34467	479
2.34833	477
2.35200	475
2.35567	473
2.35933	473
2.36300	468
2.36667	452
2.37033	431
2.37400	414
2.37767	399
2.38133	392
2.38500	396
2.38867	404
2.39233	405
2.39600	401
2.39967	398
2.40333	396
2.40700	391
2.41067	379
2.41433	366
2.41800	356
2.42167	352
2.42533	347
2.42900	343
2.43267	340
2.43633	342
2.44000	346
2.44367	349
2.44733	347
2.45100	341
2.45467	336
2.45833	332
2.46200	328
2.46567	327
2.46933	334
2.47300	342
2.47667	347
2.48033	351
2.48400	354
2.48767	354
2.49133	348
2.49500	338
2.49867	326
2.50233	318
2.50600	315
2.50967	313
2.51333	311
2.51700	304
2.52067	295
2.52433	289
2.52800	289
2.53167	294
2.53533	297
2.53900	295
2.54267	290
2.54633	286
2.55000	283
2.55367	278
2.55733	276
2.56100	275
2.56467	277
2.56833	283
2.57200	293
2.57567	303
2.57933	307
2.58300	302
2.58667	293
2.59033	285
2.59400	279
2.59767	275
2.60133	272
2.60500	269
2.60867	269
2.61233	271
2.61600	272
2.61967	275
2.62333	279
2.62700	280
2.63067	279
2.63433	281
2.63800	280
2.64167	279
2.64533	275
2.64900	273
2.65267	275
2.65633	277
2.66000	277
2.66367	274
2.66733	269
2.67100	265
2.67467	263
2.67833	265
2.68200	269
2.68567	272
2.68933	273
2.69300	274
2.69667	273
2.70033	273
2.70400	272
2.70767	270
2.71133	270
2.71500	272
2.71867	275
2.72233	281
2.72600	284
2.72967	287
2.73333	288
2.73700	285
2.74067	278
2.74433	267
2.74800	257
2.75167	250
2.75533	254
2.75900	263
2.76267	270
2.76633	274
2.77000	274
2.77367	274
2.77733	275
2.78100	276
2.78467	277
2.78833	280
2.79200	275
2.79567	267
2.79933	264
2.80300	260
2.80667	256
2.81033	253
2.81400	251
2.81767	250
2.82133	254
2.82500	259
2.82867	265
2.83233	267
2.83600	269
2.83967	273
2.84333	276
2.84700	277
2.85067	277
2.85433	282
2.85800	285
2.86167	286
2.86533	285
2.86900	284
2.87267	280
2.87633	272
2.88000	265
2.88367	260
2.88733	256
2.89100	253
2.89467	255
2.89833	268
2.90200	283
2.90567	287
2.90933	283
2.91300	277
2.91667	269
2.92033	260
2.92400	257
2.92767	260
2.93133	265
2.93500	271
2.93867	274
2.94233	276
2.94600	278
2.94967	274
2.95333	267
2.95700	261
2.96067	261
2.96433	265
2.96800	273
2.97167	281
2.97533	283
2.97900	284
2.98267	278
2.98633	270
2.99000	269
2.99367	274
2.99733	280
3.00100	281
3.00467	282
3.00833	282
3.01200	280
3.01567	276
3.01933	275
3.02300	276
3.02667	275
3.03033	270
3.03400	268
3.03767	267
3.04133	267
3.04500	268
3.04867	264
3.05233	259
3.05600	258
3.05967	255
3.06333	260
3.06700	272
3.07067	284
3.07433	287
3.07800	285
3.08167	279
3.08533	268
3.08900	258
3.09267	253
3.09633	253
3.10000	249
3.10367	244
3.10733	242
3.11100	250
3.11467	265
3.11833	277
3.12200	284
3.12567	288
3.12933	289
3.13300	284
3.13667	276
3.14033	267
3.14400	259
3.14767	252
3.15133	247
3.15500	248
3.15867	250
3.16233	251
3.16600	252
3.16967	256
3.17333	264
3.17700	277
3.18067	287
3.18433	291
3.18800	288
3.19167	278
3.19533	266
3.19900	252
3.20267	240
3.20633	230
3.21000	226
3.21367	227
3.21733	235
3.22100	246
3.22467	259
3.22833	271
3.23200	274
3.23567	273
3.23933	273
3.24300	264
3.24667	249
3.25033	242
3.25400	244
3.25767	248
3.26133	254
3.26500	257
3.26867	256
3.27233	256
3.27600	259
3.27967	263
3.28333	267
3.28700	270
3.29067	268
3.29433	267
3.29800	267
3.30167	269
3.30533	271
3.30900	269
3.31267	264
3.31633	258
3.32000	255
3.32367	253
3.32733	252
3.33100	253
3.33467	251
3.33833	241
3.34200	231
3.34567	226
3.34933	227
3.35300	229
3.35667	231
3.36033	233
3.36400	236
3.36767	241
3.37133	244
3.37500	244
3.37867	244
3.38233	243
3.38600	242
3.38967	241
3.39333	238
3.39700	234
3.40067	230
3.40433	229
3.40800	229
3.41167	234
3.41533	244
3.41900	250
3.42267	248
3.42633	244
3.43000	240
3.43367	235
3.43733	234
3.44100	234
3.44467	238
3.44833	243
3.45200	245
3.45567	243
3.45933	243
3.46300	243
3.46667	243
3.47033	245
3.47400	249
3.47767	253
3.48133	256
3.48500	254
3.48867	248
3.49233	241
3.49600	240
3.49967	238
3.50333	229
3.50700	218
3.51067	209
3.51433	206
3.51800	206
3.52167	210
3.52533	217
3.52900	221
3.53267	222
3.53633	224
3.54000	227
3.54367	230
3.54733	228
3.55100	223
3.55467	224
3.55833	228
3.56200	226
3.56567	218
3.56933	209
3.57300	200
3.57667	193
3.58033	187
3.58400	185
3.58767	189
3.59133	194
3.59500	200
3.59867	204
3.60233	203
3.60600	205
3.60967	204
3.61333	197
3.61700	191
3.62067	188
3.62433	188
3.62800	191
3.63167	186
3.63533	178
3.63900	175
3.64267	181
3.64633	185
3.65000	187
3.65367	196
3.65733	206
3.66100	213
3.66467	218
3.66833	222
3.67200	225
3.67567	223
3.67933	221
3.68300	218
3.68667	215
3.69033	206
3.69400	196
3.69767	187
3.70133	184
3.70500	186
3.70867	188
3.71233	190
3.71600	192
3.71967	194
3.72333	197
3.72700	198
3.73067	196
3.73433	190
3.73800	183
3.74167	185
3.74533	192
3.74900	195
3.75267	192
3.75633	189
3.76000	186
3.76367	182
3.76733	183
3.77100	190
3.77467	197
3.77833	202
3.78200	202
3.78567	199
3.78933	195
3.79300	190
3.79667	186
3.80033	180
3.80400	177
3.80767	178
3.81133	179
3.81500	181
3.81867	180
3.82233	177
3.82600	173
3.82967	167
3.83333	162
3.83700	162
3.84067	165
3.84433	168
3.84800	168
3.85167	169
3.85533	173
3.85900	180
3.86267	187
3.86633	194
3.87000	200
3.87367	202
3.87733	199
3.88100	192
3.88467	182
3.88833	170
3.89200	158
3.89567	154
3.89933	155
3.90300	157
3.90667	158
3.91033	156
3.91400	153
3.91767	152
3.92133	155
3.92500	159
3.92867	158
3.93233	157
3.93600	159
3.93967	165
3.94333	173
3.94700	179
3.95067	178
3.95433	176
3.95800	172
3.96167	170
3.96533	170
3.96900	171
3.97267	173
3.97633	174
3.98000	174
3.98367	174
3.98733	171
3.99100	170
3.99467	172
3.99833	170

[Chromatogram (Ch2)]
Interval(msec)	220
# of Points	1091
Start Time(min)	0.002
End Time(min)	3.998
R.Time (min)	Intensity
0.00167	1
0.00533	1
0.00900	1
0.01267	0
0.01633	-0
0.02000	-1
0.02367	-1
0.02733	-1
0.03100	-2
0.03467	-2
0.03833	-2
0.04200	-1
0.04567	-1
0.04933	-1
0.05300	-2
0.05667	-2
0.06033	-2
0.06400	-2
0.06767	-1
0.07133	-1
0.07500	-0
0.07867	-0
0.08233	0
0.08600	1
0.08967	1
0.09333	1
0.09700	2
0.10067	2
0.10433	1
0.10800	1
0.11167	1
0.11533	1
0.11900	0
0.12267	0
0.12633	0
0.13000	-0
0.13367	-0
0.13733	-0
0.14100	-0
0.14467	-0
0.14833	-0
0.15200	0
0.15567	1
0.15933	1
0.16300	1
0.16667	1
0.17033	1
0.17400	0
0.17767	0
0.18133	-0
0.18500	-1
0.18867	-1
0.19233	-1
0.19600	-2
0.19967	-3
0.20333	-3
0.20700	-3
0.21067	-4
0.21433	-4
0.21800	-4
0.22167	-4
0.22533	-4
0.22900	-4
0.23267	-4
0.23633	-4
0.24000	-4
0.24367	-4
0.24733	-4
0.25100	-5
0.25467	-5
0.25833	-5
0.26200	-6
0.26567	-6
0.26933	-6
0.27300	-6
0.27667	-6
0.28033	-6
0.28400	-5
0.28767	-5
0.29133	-5
0.29500	-5
0.29867	-4
0.30233	-4
0.30600	-4
0.30967	-4
0.31333	-4
0.31700	-4
0.32067	-4
0.32433	-4
0.32800	-3
0.33167	-3
0.33533	-3
0.33900	-3
0.34267	-2
0.34633	-2
0.35000	-2
0.35367	-2
0.35733	-2
0.36100	-2
0.36467	-1
0.36833	-1
0.37200	-1
0.37567	-1
0.37933	-1
0.38300	-1
0.38667	-1
0.39033	-1
0.39400	-1
0.39767	-1
0.40133	-1
0.40500	-2
0.40867	-2
0.41233	-2
0.41600	-3
0.41967	-3
0.42333	-3
0.42700	-3
0.43067	-3
0.43433	-2
0.43800	-2
0.44167	-2
0.44533	-1
0.44900	-1
0.45267	-1
0.45633	-0
0.46000	-0
0.46367	-0
0.46733	-1
0.47100	-1
0.47467	-1
0.47833	-1
0.48200	-2
0.48567	-2
0.48933	-2
0.49300	-2
0.49667	-1
0.50033	-1
0.50400	-1
0.50767	-1
0.51133	-1
0.51500	-1
0.51867	-1
0.52233	-1
0.52600	-1
0.52967	-2
0.53333	-2
0.53700	-3
0.54067	-3
0.54433	-3
0.54800	-3
0.55167	-3
0.55533	-3
0.55900	-3
0.56267	-4
0.56633	-4
0.57000	-4
0.57367	-4
0.57733	-4
0.58100	-4
0.58467	-5
0.58833	-5
0.59200	-5
0.59567	-5
0.59933	-4
0.60300	-4
0.60667	-4
0.61033	-4
0.61400	-4
0.61767	-4
0.62133	-4
0.62500	-4
0.62867	-4
0.63233	-4
0.63600	-4
0.63967	-4
0.64333	-4
0.64700	-4
0.65067	-4
0.65433	-4
0.65800	-4
0.66167	-5
0.66533	-5
0.66900	-6
0.67267	-6
0.67633	-6
0.68000	-6
0.68367	-6
0.68733	-5
0.69100	-5
0.69467	-5
0.69833	-5
0.70200	-5
0.70567	-5
0.70933	-5
0.71300	-5
0.71667	-5
0.72033	-5
0.72400	-5
0.72767	-5
0.73133	-4
0.73500	-4
0.73867	-4
0.74233	-3
0.74600	-3
0.74967	-2
0.75333	-2
0.75700	-2
0.76067	-2
0.76433	-2
0.76800	-2
0.77167	-2
0.77533	-2
0.77900	-2
0.78267	-3
0.78633	-3
0.79000	-3
0.79367	-3
0.79733	-3
0.80100	-3
0.80467	-3
0.80833	-3
0.81200	-4
0.81567	-4
0.81933	-4
0.82300	-4
0.82667	-5
0.83033	-5
0.83400	-5
0.83767	-5
0.84133	-5
0.84500	-5
0.84867	-5
0.85233	-5
0.85600	-5
0.85967	-4
0.86333	-4
0.86700	-4
0.87067	-4
0.87433	-4
0.87800	-4
0.88167	-4
0.88533	-4
0.88900	-4
0.89267	-4
0.89633	-5
0.90000	-5
0.90367	-5
0.90733	-6
0.91100	-6
0.91467	-6
0.91833	-7
0.92200	-7
0.92567	-7
0.92933	-6
0.93300	-6
0.93667	-6
0.94033	-6
0.94400	-6
0.94767	-6
0.95133	-6
0.95500	-5
0.95867	-5
0.96233	-4
0.96600	-4
0.96967	-4
0.97333	-4
0.97700	-3
0.98067	-3
0.98433	-3
0.98800	-3
0.99167	-3
0.99533	-2
0.99900	-2
1.00267	-2
1.00633	-1
1.01000	-1
1.01367	-0
1.01733	-0
1.02100	-0
1.02467	0
1.02833	-0
1.03200	-0
1.03567	-0
1.03933	-0
1.04300	-1
1.04667	-1
1.05033	-1
1.05400	-1
1.05767	-1
1.06133	-2
1.06500	-2
1.06867	-3
1.07233	-4
1.07600	-4
1.07967	-5
1.08333	-5
1.08700	-5
1.09067	-6
1.09433	-6
1.09800	-5
1.10167	-5
1.10533	-5
1.10900	-4
1.11267	-4
1.11633	-3
1.12000	-3
1.12367	-3
1.12733	-3
1.13100	-2
1.13467	-2
1.13833	-2
1.14200	-2
1.14567	-2
1.14933	-1
1.15300	-1
1.15667	-1
1.16033	-1
1.16400	-2
1.16767	-2
1.17133	-2
1.17500	-3
1.17867	-4
1.18233	-4
1.18600	-5
1.18967	-5
1.19333	-5
1.19700	-6
1.20067	-6
1.20433	-6
1.20800	-6
1.21167	-6
1.21533	-6
1.21900	-5
1.22267	-5
1.22633	-5
1.23000	-5
1.23367	-5
1.23733	-5
1.24100	-6
1.24467	-6
1.24833	-7
1.25200	-8
1.25567	-8
1.25933	-8
1.26300	-8
1.26667	-8
1.27033	-8
1.27400	-8
1.27767	-8
1.28133	-8
1.28500	-8
1.28867	-8
1.29233	-7
1.29600	-7
1.29967	-7
1.30333	-6
1.30700	-6
1.31067	-6
1.31433	-5
1.31800	-5
1.32167	-5
1.32533	-4
1.32900	-4
1.33267	-4
1.33633	-5
1.34000	-5
1.34367	-5
1.34733	-5
1.35100	-6
1.35467	-6
1.35833	-6
1.36200	-6
1.36567	-6
1.36933	-6
1.37300	-6
1.37667	-6
1.38033	-5
1.38400	-5
1.38767	-5
1.39133	-5
1.39500	-5
1.39867	-5
1.40233	-5
1.40600	-5
1.40967	-4
1.41333	-4
1.41700	-4
1.42067	-3
1.42433	-3
1.42800	-3
1.43167	-3
1.43533	-3
1.43900	-3
1.44267	-3
1.44633	-3
1.45000	-3
1.45367	-3
1.45733	-3
1.46100	-3
1.46467	-3
1.46833	-4
1.47200	-4
1.47567	-4
1.47933	-4
1.48300	-4
1.48667	-4
1.49033	-4
1.49400	-4
1.49767	-4
1.50133	-4
1.50500	-4
1.50867	-4
1.51233	-5
1.51600	-5
1.51967	-5
1.52333	-5
1.52700	-5
1.53067	-6
1.53433	-6
1.53800	-6
1.54167	-6
1.54533	-6
1.54900	-6
1.55267	-6
1.55633	-6
1.56000	-6
1.56367	-6
1.56733	-6
1.57100	-6
1.57467	-6
1.57833	-6
1.58200	-5
1.58567	-5
1.58933	-5
1.59300	-5
1.59667	-6
1.60033	-6
1.60400	-7
1.60767	-9
1.61133	-11
1.61500	-13
1.61867	-16
1.62233	-19
1.62600	-22
1.62967	-25
1.63333	-28
1.63700	-31
1.64067	-35
1.64433	-38
1.64800	-42
1.65167	-46
1.65533	-50
1.65900	-53
1.66267	-57
1.66633	-61
1.67000	-66
1.67367	-70
1.67733	-74
1.68100	-79
1.68467	-83
1.68833	-87
1.69200	-91
1.69567	-94
1.69933	-97
1.70300	-100
1.70667	-102
1.71033	-104
1.71400	-105
1.71767	-106
1.72133	-107
1.72500	-108
1.72867	-108
1.73233	-108
1.73600	-109
1.73967	-109
1.74333	-110
1.74700	-111
1.75067	-112
1.75433	-113
1.75800	-113
1.76167	-114
1.76533	-114
1.76900	-115
1.77267	-115
1.77633	-115
1.78000	-114
1.78367	-114
1.78733	-114
1.79100	-114
1.79467	-114
1.79833	-115
1.80200	-115
1.80567	-116
1.80933	-117
1.81300	-117
1.81667	-117
1.82033	-117
1.82400	-116
1.82767	-115
1.83133	-115
1.83500	-114
1.83867	-115
1.84233	-115
1.84600	-115
1.84967	-116
1.85333	-117
1.85700	-117
1.86067	-118
1.86433	-118
1.86800	-118
1.87167	-117
1.87533	-117
1.87900	-116
1.88267	-116
1.88633	-116
1.89000	-115
1.89367	-115
1.89733	-114
1.90100	-114
1.90467	-114
1.90833	-114
1.91200	-115
1.91567	-115
1.91933	-115
1.92300	-116
1.92667	-116
1.93033	-116
1.93400	-115
1.93767	-115
1.94133	-115
1.94500	-115
1.94867	-115
1.95233	-115
1.95600	-115
1.95967	-115
1.96333	-115
1.96700	-114
1.97067	-114
1.97433	-114
1.97800	-113
1.98167	-113
1.98533	-112
1.98900	-111
1.99267	-111
1.99633	-110
2.00000	-110
2.00367	-109
2.00733	-109
2.01100	-109
2.01467	-108
2.01833	-108
2.02200	-109
2.02567	-109
2.02933	-110
2.03300	-110
2.03667	-110
2.04033	-110
2.04400	-110
2.04767	-109
2.05133	-109
2.05500	-108
2.05867	-108
2.06233	-107
2.06600	-107
2.06967	-107
2.07333	-107
2.07700	-106
2.08067	-106
2.08433	-105
2.08800	-105
2.09167	-104
2.09533	-102
2.09900	-102
2.10267	-101
2.10633	-100
2.11000	-100
2.11367	-99
2.11733	-99
2.12100	-98
2.12467	-98
2.12833	-98
2.13200	-98
2.13567	-98
2.13933	-98
2.14300	-97
2.14667	-96
2.15033	-96
2.15400	-95
2.15767	-95
2.16133	-95
2.16500	-95
2.16867	-95
2.17233	-96
2.17600	-96
2.17967	-96
2.18333	-96
2.18700	-96
2.19067	-96
2.19433	-95
2.19800	-95
2.20167	-95
2.20533	-95
2.20900	-95
2.21267	-95
2.21633	-94
2.22000	-93
2.22367	-93
2.22733	-92
2.23100	-91
2.23467	-90
2.23833	-90
2.24200	-90
2.24567	-90
2.24933	-89
2.25300	-89
2.25667	-89
2.26033	-88
2.26400	-88
2.26767	-88
2.27133	-87
2.27500	-87
2.27867	-88
2.28233	-88
2.28600	-88
2.28967	-88
2.29333	-87
2.29700	-87
2.30067	-87
2.30433	-86
2.30800	-85
2.31167	-84
2.31533	-83
2.31900	-83
2.32267	-82
2.32633	-81
2.33000	-80
2.33367	-80
2.33733	-80
2.34100	-79
2.34467	-79
2.34833	-79
2.35200	-78
2.35567	-77
2.35933	-76
2.36300	-75
2.36667	-73
2.37033	-71
2.37400	-69
2.37767	-66
2.38133	-63
2.38500	-59
2.38867	-55
2.39233	-51
2.39600	-46
2.39967	-42
2.40333	-38
2.40700	-33
2.41067	-29
2.41433	-25
2.41800	-22
2.42167	-19
2.42533	-17
2.42900	-16
2.43267	-14
2.43633	-13
2.44000	-12
2.44367	-12
2.44733	-11
2.45100	-11
2.45467	-10
2.45833	-10
2.46200	-9
2.46567	-9
2.46933	-8
2.47300	-8
2.47667	-7
2.48033	-6
2.48400	-4
2.48767	-2
2.49133	-1
2.49500	0
2.49867	2
2.50233	3
2.50600	4
2.50967	5
2.51333	6
2.51700	7
2.52067	8
2.52433	9
2.52800	10
2.53167	10
2.53533	10
2.53900	10
2.54267	10
2.54633	11
2.55000	11
2.55367	11
2.55733	12
2.56100	12
2.56467	12
2.56833	13
2.57200	13
2.57567	13
2.57933	12
2.58300	12
2.58667	12
2.59033	12
2.59400	12
2.59767	13
2.60133	13
2.60500	14
2.60867	14
2.61233	15
2.61600	15
2.61967	15
2.62333	15
2.62700	16
2.63067	16
2.63433	16
2.63800	16
2.64167	16
2.64533	16
2.64900	16
2.65267	16
2.65633	16
2.66000	16
2.66367	17
2.66733	17
2.67100	17
2.67467	17
2.67833	18
2.68200	18
2.68567	18
2.68933	18
2.69300	19
2.69667	19
2.70033	19
2.70400	19
2.70767	19
2.71133	20
2.71500	20
2.71867	20
2.72233	21
2.72600	21
2.72967	22
2.73333	22
2.73700	22
2.74067	23
2.74433	23
2.74800	22
2.75167	22
2.75533	22
2.75900	22
2.76267	22
2.76633	22
2.77000	22
2.77367	22
2.77733	23
2.78100	23
2.78467	23
2.78833	24
2.79200	24
2.79567	24
2.79933	24
2.80300	24
2.80667	24
2.81033	25
2.81400	24
2.81767	24
2.82133	24
2.82500	24
2.82867	24
2.83233	24
2.83600	23
2.83967	22
2.84333	20
2.84700	17
2.85067	11
2.85433	3
2.85800	-9
2.86167	-25
2.86533	-45
2.86900	-69
2.87267	-98
2.87633	-131
2.88000	-168
2.88367	-209
2.88733	-254
2.89100	-301
2.89467	-352
2.89833	-404
2.90200	-458
2.90567	-513
2.90933	-568
2.91300	-623
2.91667	-679
2.92033	-733
2.92400	-786
2.92767	-837
2.93133	-889
2.93500	-944
2.93867	-1003
2.94233	-1057
2.94600	-1095
2.94967	-1111
2.95333	-1100
2.95700	-1065
2.96067	-1010
2.96433	-941
2.96800	-864
2.97167	-783
2.97533	-702
2.97900	-624
2.98267	-550
2.98633	-482
2.99000	-420
2.99367	-364
2.99733	-314
3.00100	-270
3.00467	-232
3.00833	-198
3.01200	-169
3.01567	-143
3.01933	-121
3.02300	-103
3.02667	-86
3.03033	-73
3.03400	-61
3.03767	-51
3.04133	-42
3.04500	-35
3.04867	-28
3.05233	-23
3.05600	-18
3.05967	-14
3.06333	-10
3.06700	-7
3.07067	-4
3.07433	-2
3.07800	0
3.08167	2
3.08533	4
3.08900	5
3.09267	7
3.09633	8
3.10000	8
3.10367	9
3.10733	10
3.11100	11
3.11467	11
3.11833	11
3.12200	12
3.12567	12
3.12933	13
3.13300	13
3.13667	13
3.14033	13
3.14400	14
3.14767	14
3.15133	14
3.15500	14
3.15867	14
3.16233	15
3.16600	15
3.16967	15
3.17333	15
3.17700	16
3.18067	16
3.18433	16
3.18800	16
3.19167	16
3.19533	17
3.19900	17
3.20267	17
3.20633	18
3.21000	18
3.21367	18
3.21733	19
3.22100	19
3.22467	19
3.22833	19
3.23200	19
3.23567	19
3.23933	19
3.24300	20
3.24667	20
3.25033	20
3.25400	20
3.25767	21
3.26133	21
3.26500	21
3.26867	21
3.27233	22
3.27600	22
3.27967	22
3.28333	22
3.28700	22
3.29067	23
3.29433	23
3.29800	24
3.30167	24
3.30533	25
3.30900	25
3.31267	25
3.31633	25
3.32000	25
3.32367	25
3.32733	25
3.33100	25
3.33467	25
3.33833	25
3.34200	25
3.34567	25
3.34933	25
3.35300	25
3.35667	25
3.36033	25
3.36400	25
3.36767	24
3.37133	24
3.37500	24
3.37867	24
3.38233	24
3.38600	24
3.38967	24
3.39333	24
3.39700	24
3.40067	24
3.40433	24
3.40800	24
3.41167	24
3.41533	24
3.41900	25
3.42267	25
3.42633	25
3.43000	25
3.43367	25
3.43733	25
3.44100	25
3.44467	25
3.44833	25
3.45200	25
3.45567	25
3.45933	25
3.46300	25
3.46667	25
3.47033	25
3.47400	25
3.47767	25
3.48133	25
3.48500	25
3.48867	25
3.49233	25
3.49600	25
3.49967	24
3.50333	24
3.50700	24
3.51067	24
3.51433	24
3.51800	24
3.52167	23
3.52533	23
3.52900	23
3.53267	23
3.53633	22
3.54000	22
3.54367	22
3.54733	22
3.55100	22
3.55467	22
3.55833	22
3.56200	23
3.56567	23
3.56933	23
3.57300	23
3.57667	23
3.58033	23
3.58400	23
3.58767	23
3.59133	22
3.59500	22
3.59867	22
3.60233	22
3.60600	22
3.60967	22
3.61333	22
3.61700	22
3.62067	22
3.62433	22
3.62800	22
3.63167	22
3.63533	22
3.63900	22
3.64267	22
3.64633	22
3.65000	22
3.65367	22
3.65733	22
3.66100	22
3.66467	22
3.66833	22
3.67200	22
3.67567	21
3.67933	21
3.68300	21
3.68667	21
3.69033	21
3.69400	21
3.69767	21
3.70133	21
3.70500	21
3.70867	21
3.71233	21
3.71600	21
3.71967	21
3.72333	21
3.72700	21
3.73067	22
3.73433	22
3.73800	22
3.74167	22
3.74533	22
3.74900	22
3.75267	23
3.75633	23
3.76000	23
3.76367	23
3.76733	23
3.77100	23
3.77467	23
3.77833	23
3.78200	23
3.78567	23
3.78933	23
3.79300	23
3.79667	23
3.80033	23
3.80400	24
3.80767	24
3.81133	24
3.81500	24
3.81867	25
3.82233	25
3.82600	25
3.82967	25
3.83333	25
3.83700	25
3.84067	25
3.84433	25
3.84800	25
3.85167	25
3.85533	25
3.85900	25
3.86267	25
3.86633	25
3.87000	25
3.87367	25
3.87733	25
3.88100	25
3.88467	25
3.88833	25
3.89200	25
3.89567	25
3.89933	25
3.90300	24
3.90667	24
3.91033	24
3.91400	24
3.91767	24
3.92133	24
3.92500	24
3.92867	24
3.93233	24
3.93600	24
3.93967	24
3.94333	24
3.94700	24
3.95067	24
3.95433	24
3.95800	24
3.96167	24
3.96533	24
3.96900	24
3.97267	24
3.97633	24
3.98000	24
3.98367	24
3.98733	25
3.99100	25
3.99467	24
3.99833	24

[Chromatogram (Ch3)]
Interval(msec)	220
# of Points	1091
Start Time(min)	0.002
End Time(min)	3.998
R.Time (min)	Intensity
0.00167	1
0.00533	2
0.00900	2
0.01267	1
0.01633	-0
0.02000	-1
0.02367	0
0.02733	-0
0.03100	-2
0.03467	-4
0.03833	-6
0.04200	-8
0.04567	-9
0.04933	-9
0.05300	-8
0.05667	-6
0.06033	-2
0.06400	-0
0.06767	-2
0.07133	-2
0.07500	-1
0.07867	-1
0.08233	-3
0.08600	-5
0.08967	-5
0.09333	-5
0.09700	-6
0.10067	-8
0.10433	-8
0.10800	-10
0.11167	-14
0.11533	-16
0.11900	-14
0.12267	-10
0.12633	-9
0.13000	-10
0.13367	-11
0.13733	-12
0.14100	-9
0.14467	-7
0.14833	-7
0.15200	-8
0.15567	-8
0.15933	-10
0.16300	-12
0.16667	-13
0.17033	-14
0.17400	-13
0.17767	-10
0.18133	-10
0.18500	-11
0.18867	-9
0.19233	-7
0.19600	-5
0.19967	-2
0.20333	-1
0.20700	-1
0.21067	-2
0.21433	-3
0.21800	-6
0.22167	-9
0.22533	-9
0.22900	-7
0.23267	-8
0.23633	-8
0.24000	-9
0.24367	-9
0.24733	-11
0.25100	-13
0.25467	-15
0.25833	-15
0.26200	-14
0.26567	-14
0.26933	-13
0.27300	-13
0.27667	-11
0.28033	-8
0.28400	-5
0.28767	-4
0.29133	-4
0.29500	-4
0.29867	-4
0.30233	-3
0.30600	-2
0.30967	-5
0.31333	-3
0.31700	-2
0.32067	-3
0.32433	-4
0.32800	-4
0.33167	-4
0.33533	-5
0.33900	-7
0.34267	-8
0.34633	-5
0.35000	-2
0.35367	-1
0.35733	-1
0.36100	1
0.36467	2
0.36833	-1
0.37200	-4
0.37567	-3
0.37933	-3
0.38300	-3
0.38667	-3
0.39033	-2
0.39400	-2
0.39767	-5
0.40133	-6
0.40500	-6
0.40867	-9
0.41233	-10
0.41600	-9
0.41967	-8
0.42333	-6
0.42700	-6
0.43067	-7
0.43433	-6
0.43800	-7
0.44167	-11
0.44533	-13
0.44900	-11
0.45267	-7
0.45633	-7
0.46000	-5
0.46367	-4
0.46733	-2
0.47100	-2
0.47467	-2
0.47833	-4
0.48200	-4
0.48567	-6
0.48933	-7
0.49300	-7
0.49667	-8
0.50033	-8
0.50400	-7
0.50767	-4
0.51133	-1
0.51500	-2
0.51867	-3
0.52233	-4
0.52600	-4
0.52967	-5
0.53333	-6
0.53700	-5
0.54067	-6
0.54433	-6
0.54800	-5
0.55167	-5
0.55533	-4
0.55900	-1
0.56267	-2
0.56633	-5
0.57000	-6
0.57367	-5
0.57733	-3
0.58100	-2
0.58467	-2
0.58833	-2
0.59200	-2
0.59567	-3
0.59933	-4
0.60300	-4
0.60667	-2
0.61033	-2
0.61400	-1
0.61767	1
0.62133	2
0.62500	2
0.62867	1
0.63233	1
0.63600	2
0.63967	3
0.64333	2
0.64700	1
0.65067	-1
0.65433	-1
0.65800	2
0.66167	5
0.66533	5
0.66900	3
0.67267	3
0.67633	4
0.68000	3
0.68367	2
0.68733	1
0.69100	0
0.69467	1
0.69833	1
0.70200	5
0.70567	8
0.70933	7
0.71300	6
0.71667	6
0.72033	5
0.72400	3
0.72767	3
0.73133	3
0.73500	2
0.73867	2
0.74233	2
0.74600	4
0.74967	3
0.75333	2
0.75700	4
0.76067	6
0.76433	7
0.76800	6
0.77167	4
0.77533	2
0.77900	1
0.78267	2
0.78633	5
0.79000	6
0.79367	6
0.79733	7
0.80100	8
0.80467	7
0.80833	6
0.81200	4
0.81567	2
0.81933	3
0.82300	3
0.82667	2
0.83033	3
0.83400	4
0.83767	3
0.84133	3
0.84500	3
0.84867	3
0.85233	4
0.85600	6
0.85967	6
0.86333	6
0.86700	4
0.87067	0
0.87433	1
0.87800	3
0.88167	5
0.88533	6
0.88900	6
0.89267	9
0.89633	10
0.90000	10
0.90367	10
0.90733	8
0.91100	5
0.91467	3
0.91833	3
0.92200	3
0.92567	1
0.92933	-1
0.93300	-1
0.93667	0
0.94033	1
0.94400	3
0.94767	6
0.95133	9
0.95500	8
0.95867	6
0.96233	5
0.96600	6
0.96967	6
0.97333	6
0.97700	7
0.98067	8
0.98433	8
0.98800	6
0.99167	4
0.99533	2
0.99900	0
1.00267	1
1.00633	2
1.01000	4
1.01367	6
1.01733	3
1.02100	1
1.02467	1
1.02833	2
1.03200	4
1.03567	6
1.03933	7
1.04300	6
1.04667	3
1.05033	3
1.05400	4
1.05767	5
1.06133	5
1.06500	6
1.06867	6
1.07233	8
1.07600	9
1.07967	6
1.08333	3
1.08700	3
1.09067	3
1.09433	3
1.09800	4
1.10167	5
1.10533	5
1.10900	4
1.11267	4
1.11633	6
1.12000	9
1.12367	11
1.12733	11
1.13100	10
1.13467	8
1.13833	7
1.14200	6
1.14567	6
1.14933	7
1.15300	7
1.15667	8
1.16033	7
1.16400	6
1.16767	6
1.17133	6
1.17500	8
1.17867	9
1.18233	9
1.18600	8
1.18967	9
1.19333	9
1.19700	8
1.20067	7
1.20433	6
1.20800	6
1.21167	8
1.21533	9
1.21900	10
1.22267	12
1.22633	12
1.23000	13
1.23367	13
1.23733	11
1.24100	10
1.24467	9
1.24833	7
1.25200	6
1.25567	5
1.25933	8
1.26300	10
1.26667	11
1.27033	11
1.27400	11
1.27767	12
1.28133	12
1.28500	12
1.28867	12
1.29233	12
1.29600	10
1.29967	10
1.30333	10
1.30700	10
1.31067	11
1.31433	10
1.31800	10
1.32167	11
1.32533	12
1.32900	13
1.33267	12
1.33633	13
1.34000	13
1.34367	12
1.34733	12
1.35100	13
1.35467	11
1.35833	10
1.36200	11
1.36567	12
1.36933	10
1.37300	9
1.37667	9
1.38033	8
1.38400	7
1.38767	7
1.39133	11
1.39500	13
1.39867	12
1.40233	9
1.40600	10
1.40967	11
1.41333	10
1.41700	11
1.42067	13
1.42433	13
1.42800	12
1.43167	11
1.43533	11
1.43900	12
1.44267	14
1.44633	15
1.45000	15
1.45367	16
1.45733	15
1.46100	14
1.46467	17
1.46833	18
1.47200	19
1.47567	18
1.47933	15
1.48300	13
1.48667	13
1.49033	14
1.49400	16
1.49767	17
1.50133	18
1.50500	20
1.50867	21
1.51233	21
1.51600	17
1.51967	16
1.52333	17
1.52700	18
1.53067	21
1.53433	22
1.53800	21
1.54167	21
1.54533	23
1.54900	23
1.55267	22
1.55633	23
1.56000	22
1.56367	21
1.56733	18
1.57100	16
1.57467	17
1.57833	18
1.58200	18
1.58567	16
1.58933	14
1.59300	15
1.59667	15
1.60033	15
1.60400	17
1.60767	19
1.61133	21
1.61500	22
1.61867	21
1.62233	20
1.62600	20
1.62967	21
1.63333	24
1.63700	24
1.64067	22
1.64433	21
1.64800	23
1.65167	24
1.65533	24
1.65900	23
1.66267	22
1.66633	22
1.67000	22
1.67367	23
1.67733	25
1.68100	27
1.68467	25
1.68833	23
1.69200	22
1.69567	23
1.69933	25
1.70300	27
1.70667	28
1.71033	29
1.71400	29
1.71767	29
1.72133	30
1.72500	29
1.72867	30
1.73233	30
1.73600	30
1.73967	32
1.74333	32
1.74700	31
1.75067	32
1.75433	33
1.75800	34
1.76167	36
1.76533	37
1.76900	35
1.77267	34
1.77633	33
1.78000	32
1.78367	33
1.78733	36
1.79100	38
1.79467	40
1.79833	42
1.80200	40
1.80567	35
1.80933	32
1.81300	32
1.81667	32
1.82033	34
1.82400	37
1.82767	39
1.83133	40
1.83500	42
1.83867	45
1.84233	48
1.84600	50
1.84967	49
1.85333	47
1.85700	44
1.86067	43
1.86433	43
1.86800	43
1.87167	44
1.87533	46
1.87900	47
1.88267	47
1.88633	48
1.89000	48
1.89367	47
1.89733	47
1.90100	47
1.90467	48
1.90833	49
1.91200	50
1.91567	50
1.91933	49
1.92300	48
1.92667	49
1.93033	52
1.93400	54
1.93767	54
1.94133	56
1.94500	58
1.94867	59
1.95233	57
1.95600	56
1.95967	56
1.96333	58
1.96700	60
1.97067	62
1.97433	64
1.97800	66
1.98167	68
1.98533	69
1.98900	70
1.99267	71
1.99633	72
2.00000	73
2.00367	74
2.00733	70
2.01100	67
2.01467	67
2.01833	69
2.02200	72
2.02567	74
2.02933	78
2.03300	81
2.03667	85
2.04033	86
2.04400	86
2.04767	86
2.05133	84
2.05500	82
2.05867	85
2.06233	88
2.06600	90
2.06967	92
2.07333	95
2.07700	98
2.08067	101
2.08433	101
2.08800	99
2.09167	98
2.09533	98
2.09900	98
2.10267	99
2.10633	101
2.11000	102
2.11367	103
2.11733	108
2.12100	113
2.12467	115
2.12833	116
2.13200	117
2.13567	116
2.13933	116
2.14300	116
2.14667	121
2.15033	124
2.15400	126
2.15767	126
2.16133	127
2.16500	128
2.16867	129
2.17233	132
2.17600	134
2.17967	136
2.18333	135
2.18700	136
2.19067	137
2.19433	140
2.19800	140
2.20167	140
2.20533	139
2.20900	141
2.21267	144
2.21633	146
2.22000	149
2.22367	148
2.22733	149
2.23100	151
2.23467	154
2.23833	157
2.24200	159
2.24567	160
2.24933	160
2.25300	164
2.25667	168
2.26033	170
2.26400	173
2.26767	174
2.27133	175
2.27500	176
2.27867	177
2.28233	178
2.28600	179
2.28967	182
2.29333	184
2.29700	186
2.30067	187
2.30433	188
2.30800	186
2.31167	187
2.31533	189
2.31900	193
2.32267	196
2.32633	197
2.33000	198
2.33367	200
2.33733	203
2.34100	208
2.34467	211
2.34833	214
2.35200	215
2.35567	215
2.35933	215
2.36300	217
2.36667	219
2.37033	220
2.37400	223
2.37767	226
2.38133	229
2.38500	230
2.38867	228
2.39233	228
2.39600	230
2.39967	235
2.40333	241
2.40700	247
2.41067	253
2.41433	258
2.41800	258
2.42167	258
2.42533	259
2.42900	260
2.43267	262
2.43633	264
2.44000	270
2.44367	328
2.44733	470
2.45100	622
2.45467	749
2.45833	820
2.46200	826
2.46567	794
2.46933	755
2.47300	726
2.47667	710
2.48033	697
2.48400	674
2.48767	639
2.49133	596
2.49500	552
2.49867	517
2.50233	490
2.50600	473
2.50967	464
2.51333	465
2.51700	473
2.52067	488
2.52433	507
2.52800	527
2.53167	540
2.53533	542
2.53900	534
2.54267	515
2.54633	488
2.55000	458
2.55367	429
2.55733	405
2.56100	383
2.56467	366
2.56833	354
2.57200	346
2.57567	339
2.57933	334
2.58300	333
2.58667	334
2.59033	335
2.59400	335
2.59767	331
2.60133	325
2.60500	320
2.60867	313
2.61233	305
2.61600	299
2.61967	292
2.62333	285
2.62700	279
2.63067	273
2.63433	270
2.63800	272
2.64167	274
2.64533	277
2.64900	282
2.65267	287
2.65633	291
2.66000	290
2.66367	286
2.66733	278
2.67100	269
2.67467	259
2.67833	250
2.68200	243
2.68567	236
2.68933	228
2.69300	220
2.69667	212
2.70033	205
2.70400	200
2.70767	196
2.71133	196
2.71500	195
2.71867	191
2.72233	188
2.72600	187
2.72967	189
2.73333	189
2.73700	192
2.74067	193
2.74433	194
2.74800	192
2.75167	192
2.75533	191
2.75900	192
2.76267	195
2.76633	196
2.77000	195
2.77367	197
2.77733	201
2.78100	204
2.78467	205
2.78833	206
2.79200	206
2.79567	206
2.79933	207
2.80300	209
2.80667	210
2.81033	211
2.81400	212
2.81767	217
2.82133	231
2.82500	259
2.82867	316
2.83233	419
2.83600	594
2.83967	863
2.84333	1239
2.84700	1725
2.85067	2298
2.85433	2922
2.85800	3552
2.86167	4134
2.86533	4626
2.86900	4991
2.87267	5205
2.87633	5265
2.88000	5187
2.88367	4997
2.88733	4719
2.89100	4386
2.89467	4027
2.89833	3661
2.90200	3303
2.90567	2963
2.90933	2646
2.91300	2358
2.91667	2100
2.92033	1867
2.92400	1660
2.92767	1476
2.93133	1313
2.93500	1171
2.93867	1047
2.94233	943
2.94600	852
2.94967	770
2.95333	697
2.95700	632
2.96067	578
2.96433	533
2.96800	494
2.97167	459
2.97533	427
2.97900	399
2.98267	376
2.98633	356
2.99000	340
2.99367	322
2.99733	307
3.00100	293
3.00467	279
3.00833	268
3.01200	257
3.01567	248
3.01933	241
3.02300	235
3.02667	229
3.03033	225
3.03400	221
3.03767	218
3.04133	216
3.04500	213
3.04867	210
3.05233	205
3.05600	202
3.05967	202
3.06333	203
3.06700	201
3.07067	202
3.07433	201
3.07800	200
3.08167	199
3.08533	195
3.08900	191
3.09267	188
3.09633	189
3.10000	190
3.10367	189
3.10733	174
3.11100	137
3.11467	112
3.11833	111
3.12200	128
3.12567	157
3.12933	195
3.13300	238
3.13667	280
3.14033	321
3.14400	360
3.14767	397
3.15133	430
3.15500	460
3.15867	484
3.16233	506
3.16600	526
3.16967	540
3.17333	552
3.17700	565
3.18067	576
3.18433	586
3.18800	596
3.19167	607
3.19533	614
3.19900	620
3.20267	627
3.20633	634
3.21000	640
3.21367	641
3.21733	642
3.22100	644
3.22467	646
3.22833	652
3.23200	659
3.23567	664
3.23933	668
3.24300	671
3.24667	672
3.25033	674
3.25400	677
3.25767	681
3.26133	687
3.26500	693
3.26867	695
3.27233	696
3.27600	698
3.27967	703
3.28333	705
3.28700	707
3.29067	710
3.29433	714
3.29800	719
3.30167	724
3.30533	729
3.30900	733
3.31267	737
3.31633	740
3.32000	742
3.32367	745
3.32733	747
3.33100	749
3.33467	751
3.33833	751
3.34200	750
3.34567	751
3.34933	753
3.35300	757
3.35667	761
3.36033	763
3.36400	764
3.36767	764
3.37133	765
3.37500	762
3.37867	761
3.38233	763
3.38600	765
3.38967	765
3.39333	764
3.39700	763
3.40067	760
3.40433	757
3.40800	756
3.41167	754
3.41533	751
3.41900	748
3.42267	744
3.42633	742
3.43000	739
3.43367	739
3.43733	740
3.44100	738
3.44467	737
3.44833	736
3.45200	736
3.45567	734
3.45933	733
3.46300	731
3.46667	729
3.47033	728
3.47400	726
3.47767	723
3.48133	719
3.48500	717
3.48867	717
3.49233	715
3.49600	712
3.49967	711
3.50333	709
3.50700	707
3.51067	705
3.51433	702
3.51800	701
3.52167	701
3.52533	701
3.52900	700
3.53267	701
3.53633	702
3.54000	702
3.54367	697
3.54733	694
3.55100	695
3.55467	694
3.55833	692
3.56200	689
3.56567	687
3.56933	688
3.57300	690
3.57667	689
3.58033	688
3.58400	686
3.58767	684
3.59133	683
3.59500	684
3.59867	686
3.60233	688
3.60600	687
3.60967	685
3.61333	686
3.61700	686
3.62067	686
3.62433	687
3.62800	686
3.63167	685
3.63533	684
3.63900	685
3.64267	686
3.64633	685
3.65000	683
3.65367	684
3.65733	685
3.66100	685
3.66467	684
3.66833	682
3.67200	679
3.67567	680
3.67933	682
3.68300	682
3.68667	682
3.69033	681
3.69400	681
3.69767	679
3.70133	678
3.70500	679
3.70867	679
3.71233	679
3.71600	677
3.71967	677
3.72333	675
3.72700	675
3.73067	671
3.73433	670
3.73800	670
3.74167	669
3.74533	670
3.74900	670
3.75267	670
3.75633	670
3.76000	668
3.76367	668
3.76733	669
3.77100	668
3.77467	667
3.77833	668
3.78200	669
3.78567	668
3.78933	668
3.79300	666
3.79667	664
3.80033	663
3.80400	662
3.80767	662
3.81133	661
3.81500	659
3.81867	657
3.82233	655
3.82600	652
3.82967	652
3.83333	651
3.83700	649
3.84067	647
3.84433	645
3.84800	643
3.85167	643
3.85533	645
3.85900	645
3.86267	643
3.86633	641
3.87000	637
3.87367	633
3.87733	630
3.88100	629
3.88467	630
3.88833	629
3.89200	628
3.89567	626
3.89933	623
3.90300	622
3.90667	621
3.91033	619
3.91400	616
3.91767	614
3.92133	612
3.92500	611
3.92867	610
3.93233	611
3.93600	610
3.93967	611
3.94333	612
3.94700	610
3.95067	606
3.95433	600
3.95800	596
3.96167	594
3.96533	592
3.96900	592
3.97267	591
3.97633	590
3.98000	590
3.98367	588
3.98733	586
3.99100	585
3.99467	584
3.99833	580

[Status Trace (Column Oven Temperature)]
Interval(msec)	1000
# of Points	240
Start Time(min)	0.012
End Time(min)	3.996
Intensity Units	
Intensity Multiplier	1
R.Time (min)	Intensity
0.01228	35.04
0.02895	35.05
0.04562	35.05
0.06228	35.04
0.07895	35.01
0.09562	35.00
0.11228	35.01
0.12895	35.01
0.14562	35.01
0.16228	35.00
0.17895	35.00
0.19562	35.00
0.21228	35.01
0.22895	35.01
0.24562	35.03
0.26228	35.04
0.27895	35.04
0.29562	35.04
0.31228	35.05
0.32895	35.03
0.34562	35.02
0.36228	35.01
0.37895	35.00
0.39562	34.99
0.41228	34.99
0.42895	34.98
0.44562	34.98
0.46228	34.97
0.47895	34.97
0.49562	34.97
0.51228	34.97
0.52895	34.98
0.54562	34.98
0.56228	34.98
0.57895	34.99
0.59562	35.00
0.61228	35.00
0.62895	35.00
0.64562	35.00
0.66228	35.01
0.67895	35.01
0.69562	35.01
0.71228	35.01
0.72895	35.01
0.74562	35.00
0.76228	34.99
0.77895	34.99
0.79562	35.00
0.81228	35.01
0.82895	35.01
0.84562	35.01
0.86228	35.01
0.87895	35.01
0.89562	35.02
0.91228	35.03
0.92895	35.03
0.94562	35.04
0.96228	35.02
0.97895	35.02
0.99562	35.01
1.01228	34.99
1.02895	34.97
1.04562	34.97
1.06228	34.98
1.07895	34.99
1.09562	34.99
1.11228	34.97
1.12895	34.96
1.14562	34.95
1.16228	34.95
1.17895	34.97
1.19562	34.98
1.21228	34.98
1.22895	34.98
1.24562	34.99
1.26228	35.01
1.27895	35.02
1.29562	35.01
1.31228	35.00
1.32895	35.01
1.34562	35.01
1.36228	35.00
1.37895	35.00
1.39562	35.00
1.41228	34.99
1.42895	34.98
1.44562	34.97
1.46228	34.97
1.47895	34.98
1.49562	34.97
1.51228	34.98
1.52895	34.99
1.54562	34.99
1.56228	34.99
1.57895	34.99
1.59562	35.01
1.61228	35.11
1.62895	35.25
1.64562	35.46
1.66228	35.72
1.67895	36.07
1.69562	36.44
1.71228	36.77
1.72895	37.10
1.74562	37.43
1.76228	37.78
1.77895	38.09
1.79562	38.44
1.81228	38.78
1.82895	39.08
1.84562	39.42
1.86228	39.76
1.87895	40.07
1.89562	40.39
1.91228	40.74
1.92895	41.06
1.94562	41.39
1.96228	41.73
1.97895	42.05
1.99562	42.37
2.01228	42.69
2.02895	43.03
2.04562	43.36
2.06228	43.69
2.07895	44.03
2.09562	44.34
2.11228	44.66
2.12895	45.00
2.14562	45.32
2.16228	45.66
2.17895	45.99
2.19562	46.33
2.21228	46.65
2.22895	46.97
2.24562	47.31
2.26228	47.62
2.27895	47.96
2.29562	48.28
2.31228	48.60
2.32895	48.90
2.34562	49.24
2.36228	49.50
2.37895	49.66
2.39562	49.69
2.41228	49.68
2.42895	49.69
2.44562	49.69
2.46228	49.72
2.47895	49.73
2.49562	49.74
2.51228	49.75
2.52895	49.76
2.54562	49.78
2.56228	49.78
2.57895	49.82
2.59562	49.82
2.61228	49.82
2.62895	49.83
2.64562	49.84
2.66228	49.84
2.67895	49.85
2.69562	49.86
2.71228	49.86
2.72895	49.84
2.74562	49.85
2.76228	49.86
2.77895	49.86
2.79562	49.85
2.81228	49.86
2.82895	49.87
2.84562	49.88
2.86228	49.90
2.87895	49.92
2.89562	49.93
2.91228	49.93
2.92895	49.94
2.94562	49.94
2.96228	49.94
2.97895	49.96
2.99562	49.98
3.01228	50.01
3.02895	50.02
3.04562	50.03
3.06228	50.04
3.07895	50.04
3.09562	50.04
3.11228	50.05
3.12895	50.06
3.14562	50.08
3.16228	50.08
3.17895	50.09
3.19562	50.09
3.21228	50.10
3.22895	50.11
3.24562	50.11
3.26228	50.11
3.27895	50.10
3.29562	50.09
3.31228	50.07
3.32895	50.05
3.34562	50.04
3.36228	50.03
3.37895	50.03
3.39562	50.02
3.41228	50.01
3.42895	50.00
3.44562	49.99
3.46228	49.98
3.47895	49.98
3.49562	49.98
3.51228	49.99
3.52895	50.00
3.54562	50.00
3.56228	50.00
3.57895	50.01
3.59562	50.00
3.61228	50.01
3.62895	50.03
3.64562	50.03
3.66228	50.04
3.67895	50.05
3.69562	50.06
3.71228	50.08
3.72895	50.08
3.74562	50.08
3.76228	50.09
3.77895	50.08
3.79562	50.08
3.81228	50.07
3.82895	50.07
3.84562	50.05
3.86228	50.04
3.87895	50.03
3.89562	50.04
3.91228	50.04
3.92895	50.03
3.94562	50.03
3.96228	50.02
3.97895	50.02
3.99562	50.03

[Status Trace (Injection Unit Temperature)]
Interval(msec)	1000
# of Points	240
Start Time(min)	0.012
End Time(min)	3.996
Intensity Units	
Intensity Multiplier	1
R.Time (min)	Intensity
0.01228	99.98
0.02895	99.98
0.04562	99.98
0.06228	99.98
0.07895	99.98
0.09562	99.99
0.11228	99.98
0.12895	99.99
0.14562	99.98
0.16228	99.98
0.17895	99.99
0.19562	99.98
0.21228	99.98
0.22895	99.98
0.24562	99.98
0.26228	99.98
0.27895	99.99
0.29562	99.98
0.31228	99.98
0.32895	99.98
0.34562	99.98
0.36228	99.98
0.37895	99.98
0.39562	99.98
0.41228	99.98
0.42895	99.98
0.44562	99.98
0.46228	99.98
0.47895	99.98
0.49562	99.98
0.51228	99.98
0.52895	99.98
0.54562	99.98
0.56228	99.98
0.57895	99.98
0.59562	99.98
0.61228	99.98
0.62895	99.98
0.64562	99.98
0.66228	99.98
0.67895	99.98
0.69562	99.98
0.71228	99.98
0.72895	99.98
0.74562	99.98
0.76228	99.97
0.77895	99.98
0.79562	99.97
0.81228	99.98
0.82895	99.98
0.84562	99.98
0.86228	99.98
0.87895	99.98
0.89562	99.98
0.91228	99.98
0.92895	99.98
0.94562	99.98
0.96228	99.98
0.97895	99.98
0.99562	99.98
1.01228	99.98
1.02895	99.98
1.04562	99.98
1.06228	99.98
1.07895	99.98
1.09562	99.98
1.11228	99.98
1.12895	99.98
1.14562	99.98
1.16228	99.98
1.17895	99.98
1.19562	99.98
1.21228	99.98
1.22895	99.98
1.24562	99.98
1.26228	99.98
1.27895	99.98
1.29562	99.98
1.31228	99.99
1.32895	99.98
1.34562	99.98
1.36228	99.98
1.37895	99.98
1.39562	99.98
1.41228	99.98
1.42895	99.98
1.44562	99.98
1.46228	99.98
1.47895	99.98
1.49562	99.99
1.51228	99.98
1.52895	99.98
1.54562	99.98
1.56228	99.99
1.57895	99.99
1.59562	99.98
1.61228	99.98
1.62895	99.99
1.64562	99.98
1.66228	99.99
1.67895	99.98
1.69562	99.98
1.71228	99.98
1.72895	99.98
1.74562	99.98
1.76228	99.98
1.77895	99.99
1.79562	99.98
1.81228	99.98
1.82895	99.98
1.84562	99.98
1.86228	99.98
1.87895	99.98
1.89562	99.98
1.91228	99.98
1.92895	99.98
1.94562	99.98
1.96228	99.98
1.97895	99.97
1.99562	99.97
2.01228	99.97
2.02895	99.97
2.04562	99.97
2.06228	99.97
2.07895	99.97
2.09562	99.97
2.11228	99.97
2.12895	99.97
2.14562	99.97
2.16228	99.97
2.17895	99.96
2.19562	99.96
2.21228	99.96
2.22895	99.96
2.24562	99.97
2.26228	99.96
2.27895	99.96
2.29562	99.95
2.31228	99.96
2.32895	99.96
2.34562	99.95
2.36228	99.96
2.37895	99.96
2.39562	99.96
2.41228	99.96
2.42895	99.96
2.44562	99.96
2.46228	99.97
2.47895	99.96
2.49562	99.96
2.51228	99.97
2.52895	99.97
2.54562	99.97
2.56228	99.97
2.57895	99.97
2.59562	99.97
2.61228	99.97
2.62895	99.98
2.64562	99.98
2.66228	99.97
2.67895	99.98
2.69562	99.98
2.71228	99.98
2.72895	99.98
2.74562	99.99
2.76228	99.99
2.77895	99.99
2.79562	99.99
2.81228	99.99
2.82895	100.00
2.84562	99.99
2.86228	100.00
2.87895	100.00
2.89562	100.00
2.91228	100.00
2.92895	100.00
2.94562	100.01
2.96228	100.01
2.97895	100.01
2.99562	100.01
3.01228	100.01
3.02895	100.02
3.04562	100.01
3.06228	100.02
3.07895	100.02
3.09562	100.01
3.11228	100.02
3.12895	100.02
3.14562	100.02
3.16228	100.02
3.17895	100.02
3.19562	100.03
3.21228	100.03
3.22895	100.03
3.24562	100.03
3.26228	100.03
3.27895	100.03
3.29562	100.03
3.31228	100.03
3.32895	100.03
3.34562	100.03
3.36228	100.03
3.37895	100.04
3.39562	100.04
3.41228	100.04
3.42895	100.04
3.44562	100.04
3.46228	100.04
3.47895	100.04
3.49562	100.04
3.51228	100.04
3.52895	100.04
3.54562	100.04
3.56228	100.04
3.57895	100.04
3.59562	100.04
3.61228	100.05
3.62895	100.04
3.64562	100.04
3.66228	100.04
3.67895	100.04
3.69562	100.04
3.71228	100.05
3.72895	100.04
3.74562	100.04
3.76228	100.04
3.77895	100.05
3.79562	100.04
3.81228	100.04
3.82895	100.05
3.84562	100.05
3.86228	100.04
3.87895	100.04
3.89562	100.04
3.91228	100.05
3.92895	100.04
3.94562	100.04
3.96228	100.04
3.97895	100.04
3.99562	100.03

[Status Trace (Carrier Gas Pressure)]
Interval(msec)	1000
# of Points	240
Start Time(min)	0.012
End Time(min)	3.996
Intensity Units	
Intensity Multiplier	1
R.Time (min)	Intensity
0.01228	57.98
0.02895	54.99
0.04562	57.65
0.06228	59.71
0.07895	58.87
0.09562	57.99
0.11228	57.99
0.12895	58.01
0.14562	58.01
0.16228	58.00
0.17895	58.00
0.19562	58.00
0.21228	58.00
0.22895	58.00
0.24562	58.00
0.26228	58.00
0.27895	58.00
0.29562	58.00
0.31228	58.00
0.32895	58.00
0.34562	58.00
0.36228	58.00
0.37895	58.00
0.39562	58.00
0.41228	58.00
0.42895	58.00
0.44562	58.00
0.46228	58.00
0.47895	58.00
0.49562	58.00
0.51228	58.00
0.52895	58.00
0.54562	58.00
0.56228	58.00
0.57895	58.00
0.59562	58.00
0.61228	58.00
0.62895	58.00
0.64562	58.00
0.66228	58.00
0.67895	58.00
0.69562	58.00
0.71228	58.00
0.72895	58.00
0.74562	58.00
0.76228	58.00
0.77895	58.00
0.79562	58.00
0.81228	58.00
0.82895	58.00
0.84562	58.00
0.86228	58.00
0.87895	58.00
0.89562	58.00
0.91228	58.00
0.92895	58.00
0.94562	58.00
0.96228	58.00
0.97895	58.00
0.99562	58.00
1.01228	58.00
1.02895	58.00
1.04562	58.00
1.06228	58.00
1.07895	58.00
1.09562	58.00
1.11228	58.00
1.12895	58.00
1.14562	58.00
1.16228	58.00
1.17895	58.00
1.19562	58.00
1.21228	58.00
1.22895	58.00
1.24562	58.00
1.26228	58.00
1.27895	58.00
1.29562	58.00
1.31228	58.00
1.32895	58.00
1.34562	58.00
1.36228	58.00
1.37895	58.00
1.39562	58.00
1.41228	58.00
1.42895	58.00
1.44562	58.00
1.46228	58.00
1.47895	58.00
1.49562	58.00
1.51228	58.00
1.52895	58.00
1.54562	58.00
1.56228	58.00
1.57895	58.00
1.59562	58.00
1.61228	58.00
1.62895	58.00
1.64562	58.00
1.66228	58.00
1.67895	58.01
1.69562	58.00
1.71228	58.00
1.72895	58.00
1.74562	58.00
1.76228	58.00
1.77895	58.00
1.79562	58.00
1.81228	58.00
1.82895	58.00
1.84562	58.00
1.86228	58.00
1.87895	58.00
1.89562	58.00
1.91228	58.00
1.92895	58.00
1.94562	58.00
1.96228	58.00
1.97895	58.00
1.99562	58.00
2.01228	58.00
2.02895	58.00
2.04562	58.00
2.06228	58.00
2.07895	58.00
2.09562	58.00
2.11228	58.00
2.12895	58.00
2.14562	58.00
2.16228	58.00
2.17895	58.00
2.19562	58.00
2.21228	58.00
2.22895	58.00
2.24562	58.00
2.26228	58.00
2.27895	58.00
2.29562	58.00
2.31228	58.00
2.32895	58.00
2.34562	58.00
2.36228	58.00
2.37895	57.99
2.39562	57.99
2.41228	57.99
2.42895	58.00
2.44562	58.00
2.46228	58.00
2.47895	58.00
2.49562	58.00
2.51228	57.99
2.52895	57.99
2.54562	58.00
2.56228	58.00
2.57895	58.00
2.59562	58.00
2.61228	58.00
2.62895	58.00
2.64562	58.00
2.66228	58.00
2.67895	58.00
2.69562	58.00
2.71228	58.00
2.72895	58.00
2.74562	58.00
2.76228	58.00
2.77895	58.00
2.79562	58.00
2.81228	58.00
2.82895	58.00
2.84562	58.00
2.86228	58.00
2.87895	58.00
2.89562	58.00
2.91228	58.00
2.92895	58.00
2.94562	58.00
2.96228	58.00
2.97895	58.00
2.99562	58.00
3.01228	58.00
3.02895	58.00
3.04562	58.00
3.06228	58.00
3.07895	58.00
3.09562	58.00
3.11228	58.00
3.12895	58.00
3.14562	58.00
3.16228	58.00
3.17895	58.00
3.19562	58.00
3.21228	58.00
3.22895	58.00
3.24562	58.00
3.26228	58.00
3.27895	58.00
3.29562	58.00
3.31228	58.00
3.32895	58.00
3.34562	58.00
3.36228	58.00
3.37895	58.00
3.39562	58.00
3.41228	58.00
3.42895	58.00
3.44562	58.00
3.46228	58.00
3.47895	58.00
3.49562	58.00
3.51228	58.00
3.52895	58.00
3.54562	58.00
3.56228	58.00
3.57895	58.00
3.59562	58.00
3.61228	58.00
3.62895	58.00
3.64562	58.00
3.66228	58.00
3.67895	58.00
3.69562	58.00
3.71228	58.00
3.72895	58.00
3.74562	58.00
3.76228	58.00
3.77895	58.00
3.79562	58.00
3.81228	58.00
3.82895	58.00
3.84562	58.00
3.86228	58.00
3.87895	58.00
3.89562	58.00
3.91228	58.00
3.92895	58.00
3.94562	58.00
3.96228	58.00
3.97895	58.00
3.99562	58.00

[Status Trace (Carrier Gas Flow)]
Interval(msec)	1000
# of Points	240
Start Time(min)	0.012
End Time(min)	3.996
Intensity Units	
Intensity Multiplier	1
R.Time (min)	Intensity
0.01228	34.57
0.02895	34.54
0.04562	34.54
0.06228	34.53
0.07895	34.50
0.09562	34.52
0.11228	34.52
0.12895	34.52
0.14562	34.52
0.16228	34.52
0.17895	34.52
0.19562	34.51
0.21228	34.52
0.22895	34.51
0.24562	34.51
0.26228	34.52
0.27895	34.52
0.29562	34.52
0.31228	34.52
0.32895	34.52
0.34562	34.51
0.36228	34.52
0.37895	34.52
0.39562	34.52
0.41228	34.52
0.42895	34.52
0.44562	34.52
0.46228	34.51
0.47895	34.52
0.49562	34.52
0.51228	34.52
0.52895	34.52
0.54562	34.52
0.56228	34.52
0.57895	34.52
0.59562	34.52
0.61228	34.52
0.62895	34.52
0.64562	34.52
0.66228	34.52
0.67895	34.52
0.69562	34.52
0.71228	34.52
0.72895	34.52
0.74562	34.52
0.76228	34.52
0.77895	34.52
0.79562	34.52
0.81228	34.52
0.82895	34.52
0.84562	34.52
0.86228	34.52
0.87895	34.52
0.89562	34.52
0.91228	34.52
0.92895	34.52
0.94562	34.52
0.96228	34.52
0.97895	34.52
0.99562	34.52
1.01228	34.52
1.02895	34.52
1.04562	34.52
1.06228	34.52
1.07895	34.52
1.09562	34.52
1.11228	34.52
1.12895	34.52
1.14562	34.52
1.16228	34.51
1.17895	34.52
1.19562	34.52
1.21228	34.52
1.22895	34.52
1.24562	34.52
1.26228	34.51
1.27895	34.52
1.29562	34.52
1.31228	34.52
1.32895	34.52
1.34562	34.52
1.36228	34.52
1.37895	34.52
1.39562	34.51
1.41228	34.52
1.42895	34.51
1.44562	34.52
1.46228	34.52
1.47895	34.52
1.49562	34.52
1.51228	34.52
1.52895	34.52
1.54562	34.52
1.56228	34.52
1.57895	34.52
1.59562	34.52
1.61228	34.52
1.62895	34.52
1.64562	34.52
1.66228	34.52
1.67895	34.51
1.69562	34.51
1.71228	34.51
1.72895	34.52
1.74562	34.51
1.76228	34.51
1.77895	34.51
1.79562	34.52
1.81228	34.52
1.82895	34.51
1.84562	34.51
1.86228	34.51
1.87895	34.51
1.89562	34.52
1.91228	34.52
1.92895	34.52
1.94562	34.52
1.96228	34.51
1.97895	34.52
1.99562	34.52
2.01228	34.52
2.02895	34.52
2.04562	34.52
2.06228	34.52
2.07895	34.51
2.09562	34.52
2.11228	34.52
2.12895	34.52
2.14562	34.52
2.16228	34.52
2.17895	34.51
2.19562	34.52
2.21228	34.52
2.22895	34.51
2.24562	34.52
2.26228	34.52
2.27895	34.52
2.29562	34.52
2.31228	34.52
2.32895	34.52
2.34562	34.52
2.36228	34.52
2.37895	34.52
2.39562	34.52
2.41228	34.51
2.42895	34.52
2.44562	34.53
2.46228	34.52
2.47895	34.52
2.49562	34.52
2.51228	34.51
2.52895	34.52
2.54562	34.52
2.56228	34.52
2.57895	34.52
2.59562	34.52
2.61228	34.52
2.62895	34.52
2.64562	34.52
2.66228	34.52
2.67895	34.52
2.69562	34.51
2.71228	34.52
2.72895	34.52
2.74562	34.52
2.76228	34.51
2.77895	34.52
2.79562	34.52
2.81228	34.52
2.82895	34.52
2.84562	34.52
2.86228	34.52
2.87895	34.53
2.89562	34.52
2.91228	34.51
2.92895	34.52
2.94562	34.52
2.96228	34.52
2.97895	34.51
2.99562	34.52
3.01228	34.52
3.02895	34.52
3.04562	34.52
3.06228	34.52
3.07895	34.52
3.09562	34.52
3.11228	34.52
3.12895	34.52
3.14562	34.52
3.16228	34.51
3.17895	34.52
3.19562	34.52
3.21228	34.52
3.22895	34.52
3.24562	34.52
3.26228	34.52
3.27895	34.52
3.29562	34.52
3.31228	34.51
3.32895	34.52
3.34562	34.52
3.36228	34.52
3.37895	34.51
3.39562	34.53
3.41228	34.52
3.42895	34.52
3.44562	34.52
3.46228	34.52
3.47895	34.52
3.49562	34.52
3.51228	34.52
3.52895	34.52
3.54562	34.52
3.56228	34.52
3.57895	34.52
3.59562	34.52
3.61228	34.52
3.62895	34.52
3.64562	34.51
3.66228	34.52
3.67895	34.51
3.69562	34.52
3.71228	34.52
3.72895	34.52
3.74562	34.52
3.76228	34.51
3.77895	34.51
3.79562	34.52
3.81228	34.52
3.82895	34.52
3.84562	34.52
3.86228	34.52
3.87895	34.52
3.89562	34.52
3.91228	34.51
3.92895	34.52
3.94562	34.52
3.96228	34.52
3.97895	34.51
3.99562	34.53

[Status Trace (Column Flow)]
Interval(msec)	1000
# of Points	240
Start Time(min)	0.012
End Time(min)	3.996
Intensity Units	
Intensity Multiplier	1
R.Time (min)	Intensity
0.01228	5.52
0.02895	5.17
0.04562	5.48
0.06228	5.72
0.07895	5.62
0.09562	5.52
0.11228	5.52
0.12895	5.52
0.14562	5.52
0.16228	5.52
0.17895	5.52
0.19562	5.52
0.21228	5.52
0.22895	5.52
0.24562	5.52
0.26228	5.52
0.27895	5.52
0.29562	5.52
0.31228	5.52
0.32895	5.52
0.34562	5.52
0.36228	5.52
0.37895	5.52
0.39562	5.52
0.41228	5.52
0.42895	5.52
0.44562	5.52
0.46228	5.52
0.47895	5.52
0.49562	5.52
0.51228	5.52
0.52895	5.52
0.54562	5.52
0.56228	5.52
0.57895	5.52
0.59562	5.52
0.61228	5.52
0.62895	5.52
0.64562	5.52
0.66228	5.52
0.67895	5.52
0.69562	5.52
0.71228	5.52
0.72895	5.52
0.74562	5.52
0.76228	5.52
0.77895	5.52
0.79562	5.52
0.81228	5.52
0.82895	5.52
0.84562	5.52
0.86228	5.52
0.87895	5.52
0.89562	5.52
0.91228	5.52
0.92895	5.52
0.94562	5.52
0.96228	5.52
0.97895	5.52
0.99562	5.52
1.01228	5.52
1.02895	5.52
1.04562	5.52
1.06228	5.52
1.07895	5.52
1.09562	5.52
1.11228	5.52
1.12895	5.52
1.14562	5.52
1.16228	5.52
1.17895	5.52
1.19562	5.52
1.21228	5.52
1.22895	5.52
1.24562	5.52
1.26228	5.52
1.27895	5.52
1.29562	5.52
1.31228	5.52
1.32895	5.52
1.34562	5.52
1.36228	5.52
1.37895	5.52
1.39562	5.52
1.41228	5.52
1.42895	5.52
1.44562	5.52
1.46228	5.52
1.47895	5.52
1.49562	5.52
1.51228	5.52
1.52895	5.52
1.54562	5.52
1.56228	5.52
1.57895	5.52
1.59562	5.52
1.61228	5.52
1.62895	5.51
1.64562	5.51
1.66228	5.50
1.67895	5.49
1.69562	5.48
1.71228	5.47
1.72895	5.46
1.74562	5.45
1.76228	5.43
1.77895	5.42
1.79562	5.42
1.81228	5.40
1.82895	5.39
1.84562	5.39
1.86228	5.37
1.87895	5.36
1.89562	5.36
1.91228	5.34
1.92895	5.33
1.94562	5.33
1.96228	5.31
1.97895	5.30
1.99562	5.30
2.01228	5.29
2.02895	5.28
2.04562	5.27
2.06228	5.26
2.07895	5.25
2.09562	5.24
2.11228	5.23
2.12895	5.22
2.14562	5.21
2.16228	5.20
2.17895	5.19
2.19562	5.18
2.21228	5.17
2.22895	5.16
2.24562	5.15
2.26228	5.14
2.27895	5.13
2.29562	5.13
2.31228	5.12
2.32895	5.11
2.34562	5.10
2.36228	5.09
2.37895	5.09
2.39562	5.09
2.41228	5.09
2.42895	5.09
2.44562	5.09
2.46228	5.09
2.47895	5.08
2.49562	5.08
2.51228	5.08
2.52895	5.08
2.54562	5.08
2.56228	5.08
2.57895	5.08
2.59562	5.08
2.61228	5.08
2.62895	5.08
2.64562	5.08
2.66228	5.08
2.67895	5.08
2.69562	5.08
2.71228	5.08
2.72895	5.08
2.74562	5.08
2.76228	5.08
2.77895	5.08
2.79562	5.08
2.81228	5.08
2.82895	5.08
2.84562	5.08
2.86228	5.08
2.87895	5.08
2.89562	5.08
2.91228	5.08
2.92895	5.08
2.94562	5.08
2.96228	5.08
2.97895	5.08
2.99562	5.08
3.01228	5.08
3.02895	5.08
3.04562	5.08
3.06228	5.08
3.07895	5.08
3.09562	5.08
3.11228	5.08
3.12895	5.08
3.14562	5.08
3.16228	5.08
3.17895	5.08
3.19562	5.07
3.21228	5.07
3.22895	5.07
3.24562	5.07
3.26228	5.07
3.27895	5.07
3.29562	5.07
3.31228	5.08
3.32895	5.08
3.34562	5.08
3.36228	5.08
3.37895	5.08
3.39562	5.08
3.41228	5.08
3.42895	5.08
3.44562	5.08
3.46228	5.08
3.47895	5.08
3.49562	5.08
3.51228	5.08
3.52895	5.08
3.54562	5.08
3.56228	5.08
3.57895	5.08
3.59562	5.08
3.61228	5.08
3.62895	5.08
3.64562	5.08
3.66228	5.08
3.67895	5.08
3.69562	5.08
3.71228	5.08
3.72895	5.08
3.74562	5.08
3.76228	5.08
3.77895	5.08
3.79562	5.08
3.81228	5.08
3.82895	5.08
3.84562	5.08
3.86228	5.08
3.87895	5.08
3.89562	5.08
3.91228	5.08
3.92895	5.08
3.94562	5.08
3.96228	5.08
3.97895	5.08
3.99562	5.08

[Status Trace (Linear Velocity)]
Interval(msec)	1000
# of Points	240
Start Time(min)	0.012
End Time(min)	3.996
Intensity Units	
Intensity Multiplier	1
R.Time (min)	Intensity
0.01228	39.00
0.02895	37.03
0.04562	38.78
0.06228	40.13
0.07895	39.59
0.09562	39.01
0.11228	39.01
0.12895	39.02
0.14562	39.02
0.16228	39.02
0.17895	39.02
0.19562	39.02
0.21228	39.02
0.22895	39.02
0.24562	39.01
0.26228	39.01
0.27895	39.01
0.29562	39.01
0.31228	39.01
0.32895	39.01
0.34562	39.01
0.36228	39.01
0.37895	39.02
0.39562	39.02
0.41228	39.02
0.42895	39.02
0.44562	39.02
0.46228	39.02
0.47895	39.02
0.49562	39.02
0.51228	39.02
0.52895	39.02
0.54562	39.02
0.56228	39.02
0.57895	39.02
0.59562	39.02
0.61228	39.02
0.62895	39.02
0.64562	39.02
0.66228	39.02
0.67895	39.02
0.69562	39.02
0.71228	39.02
0.72895	39.02
0.74562	39.02
0.76228	39.02
0.77895	39.02
0.79562	39.02
0.81228	39.02
0.82895	39.02
0.84562	39.02
0.86228	39.02
0.87895	39.02
0.89562	39.01
0.91228	39.01
0.92895	39.01
0.94562	39.01
0.96228	39.01
0.97895	39.01
0.99562	39.02
1.01228	39.02
1.02895	39.02
1.04562	39.02
1.06228	39.02
1.07895	39.02
1.09562	39.02
1.11228	39.02
1.12895	39.02
1.14562	39.02
1.16228	39.02
1.17895	39.02
1.19562	39.02
1.21228	39.02
1.22895	39.02
1.24562	39.02
1.26228	39.02
1.27895	39.01
1.29562	39.01
1.31228	39.02
1.32895	39.02
1.34562	39.02
1.36228	39.02
1.37895	39.02
1.39562	39.02
1.41228	39.02
1.42895	39.02
1.44562	39.02
1.46228	39.02
1.47895	39.02
1.49562	39.02
1.51228	39.02
1.52895	39.02
1.54562	39.02
1.56228	39.02
1.57895	39.02
1.59562	39.02
1.61228	39.01
1.62895	39.00
1.64562	38.98
1.66228	38.95
1.67895	38.92
1.69562	38.89
1.71228	38.85
1.72895	38.82
1.74562	38.79
1.76228	38.75
1.77895	38.72
1.79562	38.69
1.81228	38.66
1.82895	38.63
1.84562	38.60
1.86228	38.56
1.87895	38.53
1.89562	38.51
1.91228	38.47
1.92895	38.44
1.94562	38.42
1.96228	38.38
1.97895	38.35
1.99562	38.32
2.01228	38.29
2.02895	38.26
2.04562	38.23
2.06228	38.20
2.07895	38.17
2.09562	38.14
2.11228	38.11
2.12895	38.08
2.14562	38.05
2.16228	38.02
2.17895	37.99
2.19562	37.96
2.21228	37.93
2.22895	37.90
2.24562	37.87
2.26228	37.84
2.27895	37.81
2.29562	37.79
2.31228	37.76
2.32895	37.73
2.34562	37.70
2.36228	37.68
2.37895	37.66
2.39562	37.65
2.41228	37.66
2.42895	37.66
2.44562	37.66
2.46228	37.66
2.47895	37.66
2.49562	37.65
2.51228	37.65
2.52895	37.65
2.54562	37.65
2.56228	37.65
2.57895	37.65
2.59562	37.65
2.61228	37.65
2.62895	37.65
2.64562	37.65
2.66228	37.65
2.67895	37.65
2.69562	37.64
2.71228	37.64
2.72895	37.65
2.74562	37.65
2.76228	37.64
2.77895	37.64
2.79562	37.65
2.81228	37.64
2.82895	37.64
2.84562	37.64
2.86228	37.64
2.87895	37.64
2.89562	37.64
2.91228	37.64
2.92895	37.64
2.94562	37.64
2.96228	37.64
2.97895	37.64
2.99562	37.63
3.01228	37.63
3.02895	37.63
3.04562	37.63
3.06228	37.63
3.07895	37.63
3.09562	37.63
3.11228	37.63
3.12895	37.63
3.14562	37.63
3.16228	37.63
3.17895	37.62
3.19562	37.62
3.21228	37.62
3.22895	37.62
3.24562	37.62
3.26228	37.62
3.27895	37.62
3.29562	37.62
3.31228	37.63
3.32895	37.63
3.34562	37.63
3.36228	37.63
3.37895	37.63
3.39562	37.63
3.41228	37.63
3.42895	37.63
3.44562	37.63
3.46228	37.63
3.47895	37.63
3.49562	37.63
3.51228	37.63
3.52895	37.63
3.54562	37.63
3.56228	37.63
3.57895	37.63
3.59562	37.63
3.61228	37.63
3.62895	37.63
3.64562	37.63
3.66228	37.63
3.67895	37.63
3.69562	37.63
3.71228	37.63
3.72895	37.62
3.74562	37.63
3.76228	37.62
3.77895	37.63
3.79562	37.62
3.81228	37.63
3.82895	37.63
3.84562	37.63
3.86228	37.63
3.87895	37.63
3.89562	37.63
3.91228	37.63
3.92895	37.63
3.94562	37.63
3.96228	37.63
3.97895	37.63
3.99562	37.63

