[Header]
Application Name	LabSolutions
Version	5.110
Data File Name	C:\Users\User\Desktop\GC Analyses\Jack\Nachusa Grasslands Sampling\T2 Timepoint July 12th\T2_07122022_016.gcd
Output Date	3/14/2023
Output Time	3:42:30 PM

[File Information]
Type	Data File
Generated	3/10/2023 2:05:16 PM
Generated by	System Administrator
Modified	3/10/2023 2:12:00 PM
Modified by	System Administrator

[Sample Information]
Operator Name	System Administrator
Acquired	3/10/2023 2:07:59 PM
Sample Type	0:Unknown
Level	0
Sample Name	016
Sample ID	016
ISTD Amount1	1
ISTD Amount2	1
ISTD Amount3	1
ISTD Amount4	1
ISTD Amount5	1
ISTD Amount6	1
ISTD Amount7	1
ISTD Amount8	1
ISTD Amount9	1
ISTD Amount10	1
ISTD Amount11	1
ISTD Amount12	1
ISTD Amount13	1
ISTD Amount14	1
ISTD Amount15	1
ISTD Amount16	1
ISTD Amount17	1
ISTD Amount18	1
ISTD Amount19	1
ISTD Amount20	1
ISTD Amount21	1
ISTD Amount22	1
ISTD Amount23	1
ISTD Amount24	1
ISTD Amount25	1
ISTD Amount26	1
ISTD Amount27	1
ISTD Amount28	1
ISTD Amount29	1
ISTD Amount30	1
ISTD Amount31	1
ISTD Amount32	1
Sample Amount	1
Dilution Factor	1
Vial#	15
Injection Volume	1
Injection Count	1
Bar Code	

[Original Files]
Data File	C:\Users\User\Desktop\GC Analyses\Jack\Nachusa Grasslands Sampling\T1 Timepoint July 12th\T2_07122022_016.gcd
Method File	C:\LabSolutions\Data\GHG_4min_2022\ghg3_togas_w_acet_4 min_new_int.gcm
Batch File	C:\LabSolutions\Data\AutoSamplerTesting\T2_07122022.gcb
Report Format File	c:\LabSolutions\System\DEFAULT.lsr

[File Description]


[Configuration]
Instrument Name	C0B7VH3-Instrument1
Instrument #	1
Line #	1
# of Detectors	3
Detector ID	DET#1	DET#2	DET#3
Detector Name	FID	PTCD	ECD
# of Channels	1	1	1

[Peak Table(Ch1)]
# of Peaks	3
Peak#	R.Time	I.Time	F.Time	Area	Height	A/H	Conc.	Mark	ID#	Name	k'	Plate #	Plate Ht.	Tailing	Resolution	Sep.Factor	Area Ratio	Height Ratio	Conc. %	Norm Conc.
1	1.476	1.432	1.538	26353	12550	2.100	186.054	   	1	CO	0.000	9282	16.160	1.282	0.000	0.000	0	0	28.299	28.299
2	1.567	1.538	1.619	4321	2146	2.013	83.543	 V 	2	CH4	0.062	10409	14.411	0.000	1.494	0.000	0	0	12.707	12.707
3	1.996	1.949	2.392	1545453	741981	2.083	387.867	   	3	CO2	0.353	17373	8.634	1.263	7.031	5.680	0	0	58.994	58.994

[Peak Table(Ch2)]
# of Peaks	0

[Peak Table(Ch3)]
# of Peaks	5
Peak#	R.Time	I.Time	F.Time	Area	Height	A/H	Conc.	Mark	ID#	Name	k'	Plate #	Plate Ht.	Tailing	Resolution	Sep.Factor	Area Ratio	Height Ratio	Conc. %	Norm Conc.
1	2.462	2.279	2.513	2220	593	3.742	0.000	   			0.000	7408	20.248	0.000	0.000	0.000	0	0	0.000	0.000
2	2.539	2.513	2.638	1898	381	4.977	0.000	 V 			0.031	2646	56.687	0.000	0.494	0.000	0	0	0.000	0.000
3	2.667	2.638	2.733	715	151	4.721	0.000	 V 			0.083	46	3283.056	0.000	0.145	2.667	0	0	0.000	0.000
4	2.876	2.733	3.140	21362	5118	4.174	0.546	 V 	1	N2O	0.168	12942	11.590	1.711	0.249	2.018	0	0	100.000	100.000
5	3.316	3.144	3.995	14119	474	29.818	0.000	   	2	SF6	0.347	271	552.643	2.430	0.971	2.062	0	0	0.000	0.000

[Compound Results(Ch1)]
# of IDs	6
ID#	Name	R.Time	Area	Height	Conc.	Curve	3rd	2nd	1st	Constant	Area Ratio	Height Ratio	Conc. %	Norm Conc.
1	CO	1.476	26353	12550	186.054	Linear	0.000000e+00	0.000000e+00	1.416423e+002	0.000000e+00	0	0	28.299	28.299
2	CH4	1.567	4321	2146	83.543	Linear	0.000000e+00	0.000000e+00	5.171738e+001	0.000000e+00	0	0	12.707	12.707
3	CO2	1.996	1545453	741981	387.867	Linear	0.000000e+00	0.000000e+00	3.984494e+003	0.000000e+00	0	0	58.994	58.994
4	Ethylene	0.000	0	0	0.000	Linear	0.000000e+00	0.000000e+00	0.000000e+00	0.000000e+00	0	0	0.000	0.000
5	Acetylene	0.000	0	0	0.000	Linear	0.000000e+00	0.000000e+00	0.000000e+00	0.000000e+00	0	0	0.000	0.000
6	Ethane	0.000	0	0	0.000	Linear	0.000000e+00	0.000000e+00	0.000000e+00	0.000000e+00	0	0	0.000	0.000

[Compound Results(Ch2)]
# of IDs	5
ID#	Name	R.Time	Area	Height	Conc.	Curve	3rd	2nd	1st	Constant	Area Ratio	Height Ratio	Conc. %	Norm Conc.
1	Hydrogen	0.000	0	0	0.000	Linear	0.000000e+00	0.000000e+00	0.000000e+00	0.000000e+00	0	0	0.000	0.000
2	Oxygen	0.000	0	0	0.000	Linear	0.000000e+00	0.000000e+00	0.000000e+00	0.000000e+00	0	0	0.000	0.000
3	Nitrogen	0.000	0	0	0.000	Linear	0.000000e+00	0.000000e+00	0.000000e+00	0.000000e+00	0	0	0.000	0.000
4	Methane	0.000	0	0	0.000	Linear	0.000000e+00	0.000000e+00	0.000000e+00	0.000000e+00	0	0	0.000	0.000
5	Carbon Monoxide	0.000	0	0	0.000	Linear	0.000000e+00	0.000000e+00	0.000000e+00	0.000000e+00	0	0	0.000	0.000

[Compound Results(Ch3)]
# of IDs	2
ID#	Name	R.Time	Area	Height	Conc.	Curve	3rd	2nd	1st	Constant	Area Ratio	Height Ratio	Conc. %	Norm Conc.
1	N2O	2.876	21362	5118	0.546	Linear	0.000000e+00	0.000000e+00	3.915173e+004	0.000000e+00	0	0	100.000	100.000
2	SF6	3.316	14119	474	0.000	Linear	0.000000e+00	0.000000e+00	0.000000e+00	0.000000e+00	0	0	0.000	0.000

[Group Results(Ch1)]
# of Groups	0

[Group Results(Ch2)]
# of Groups	0

[Group Results(Ch3)]
# of Groups	0

[Chromatogram (Ch1)]
Interval(msec)	220
# of Points	1091
Start Time(min)	0.002
End Time(min)	3.998
R.Time (min)	Intensity
0.00167	10
0.00533	-1
0.00900	-8
0.01267	-12
0.01633	-12
0.02000	-13
0.02367	-14
0.02733	-12
0.03100	-6
0.03467	2
0.03833	7
0.04200	8
0.04567	8
0.04933	10
0.05300	14
0.05667	14
0.06033	11
0.06400	6
0.06767	7
0.07133	11
0.07500	12
0.07867	9
0.08233	6
0.08600	8
0.08967	8
0.09333	6
0.09700	2
0.10067	-3
0.10433	-5
0.10800	-9
0.11167	-18
0.11533	-26
0.11900	-27
0.12267	-20
0.12633	-14
0.13000	-10
0.13367	-7
0.13733	-5
0.14100	-3
0.14467	-5
0.14833	-8
0.15200	-8
0.15567	-5
0.15933	-1
0.16300	8
0.16667	17
0.17033	23
0.17400	25
0.17767	28
0.18133	32
0.18500	36
0.18867	39
0.19233	40
0.19600	42
0.19967	39
0.20333	35
0.20700	33
0.21067	35
0.21433	37
0.21800	38
0.22167	38
0.22533	38
0.22900	39
0.23267	39
0.23633	38
0.24000	39
0.24367	43
0.24733	51
0.25100	56
0.25467	56
0.25833	56
0.26200	54
0.26567	49
0.26933	48
0.27300	47
0.27667	49
0.28033	49
0.28400	47
0.28767	46
0.29133	47
0.29500	45
0.29867	41
0.30233	36
0.30600	29
0.30967	19
0.31333	8
0.31700	-0
0.32067	-5
0.32433	-7
0.32800	-13
0.33167	-19
0.33533	-24
0.33900	-24
0.34267	-19
0.34633	-15
0.35000	-17
0.35367	-20
0.35733	-21
0.36100	-20
0.36467	-12
0.36833	-3
0.37200	2
0.37567	2
0.37933	-1
0.38300	-2
0.38667	-5
0.39033	-11
0.39400	-15
0.39767	-17
0.40133	-17
0.40500	-17
0.40867	-20
0.41233	-28
0.41600	-35
0.41967	-40
0.42333	-44
0.42700	-41
0.43067	-39
0.43433	-39
0.43800	-44
0.44167	-44
0.44533	-43
0.44900	-39
0.45267	-36
0.45633	-33
0.46000	-34
0.46367	-42
0.46733	-48
0.47100	-50
0.47467	-48
0.47833	-43
0.48200	-37
0.48567	-29
0.48933	-25
0.49300	-26
0.49667	-28
0.50033	-29
0.50400	-29
0.50767	-30
0.51133	-29
0.51500	-27
0.51867	-24
0.52233	-25
0.52600	-30
0.52967	-33
0.53333	-36
0.53700	-39
0.54067	-42
0.54433	-47
0.54800	-47
0.55167	-45
0.55533	-40
0.55900	-38
0.56267	-41
0.56633	-46
0.57000	-50
0.57367	-52
0.57733	-53
0.58100	-51
0.58467	-50
0.58833	-49
0.59200	-46
0.59567	-39
0.59933	-32
0.60300	-27
0.60667	-23
0.61033	-19
0.61400	-15
0.61767	-16
0.62133	-21
0.62500	-31
0.62867	-40
0.63233	-45
0.63600	-49
0.63967	-51
0.64333	-50
0.64700	-52
0.65067	-56
0.65433	-60
0.65800	-61
0.66167	-59
0.66533	-56
0.66900	-53
0.67267	-50
0.67633	-49
0.68000	-45
0.68367	-43
0.68733	-45
0.69100	-47
0.69467	-46
0.69833	-44
0.70200	-43
0.70567	-43
0.70933	-45
0.71300	-52
0.71667	-55
0.72033	-54
0.72400	-51
0.72767	-49
0.73133	-50
0.73500	-49
0.73867	-43
0.74233	-34
0.74600	-26
0.74967	-22
0.75333	-21
0.75700	-25
0.76067	-29
0.76433	-34
0.76800	-40
0.77167	-44
0.77533	-42
0.77900	-39
0.78267	-43
0.78633	-47
0.79000	-44
0.79367	-39
0.79733	-40
0.80100	-43
0.80467	-45
0.80833	-38
0.81200	-20
0.81567	-7
0.81933	-6
0.82300	-10
0.82667	-16
0.83033	-25
0.83400	-31
0.83767	-36
0.84133	-37
0.84500	-33
0.84867	-25
0.85233	-17
0.85600	-10
0.85967	-8
0.86333	-11
0.86700	-18
0.87067	-26
0.87433	-31
0.87800	-29
0.88167	-24
0.88533	-20
0.88900	-22
0.89267	-29
0.89633	-37
0.90000	-39
0.90367	-39
0.90733	-37
0.91100	-30
0.91467	-22
0.91833	-19
0.92200	-24
0.92567	-32
0.92933	-36
0.93300	-37
0.93667	-33
0.94033	-26
0.94400	-17
0.94767	-9
0.95133	-8
0.95500	-11
0.95867	-15
0.96233	-18
0.96600	-21
0.96967	-22
0.97333	-19
0.97700	-12
0.98067	-4
0.98433	1
0.98800	-0
0.99167	-5
0.99533	-15
0.99900	-26
1.00267	-35
1.00633	-43
1.01000	-55
1.01367	-65
1.01733	-68
1.02100	-67
1.02467	-66
1.02833	-59
1.03200	-53
1.03567	-47
1.03933	-42
1.04300	-41
1.04667	-42
1.05033	-44
1.05400	-48
1.05767	-49
1.06133	-47
1.06500	-42
1.06867	-41
1.07233	-43
1.07600	-45
1.07967	-41
1.08333	-28
1.08700	-19
1.09067	-21
1.09433	-27
1.09800	-31
1.10167	-35
1.10533	-39
1.10900	-43
1.11267	-45
1.11633	-50
1.12000	-52
1.12367	-48
1.12733	-44
1.13100	-43
1.13467	-47
1.13833	-50
1.14200	-49
1.14567	-48
1.14933	-55
1.15300	-69
1.15667	-78
1.16033	-79
1.16400	-76
1.16767	-71
1.17133	-67
1.17500	-64
1.17867	-64
1.18233	-61
1.18600	-60
1.18967	-61
1.19333	-58
1.19700	-52
1.20067	-47
1.20433	-46
1.20800	-46
1.21167	-43
1.21533	-42
1.21900	-44
1.22267	-46
1.22633	-50
1.23000	-54
1.23367	-56
1.23733	-53
1.24100	-45
1.24467	-34
1.24833	-30
1.25200	-40
1.25567	-51
1.25933	-59
1.26300	-64
1.26667	-66
1.27033	-68
1.27400	-66
1.27767	-60
1.28133	-53
1.28500	-51
1.28867	-53
1.29233	-60
1.29600	-73
1.29967	-82
1.30333	-84
1.30700	-80
1.31067	-78
1.31433	-79
1.31800	-80
1.32167	-79
1.32533	-79
1.32900	-78
1.33267	-78
1.33633	-78
1.34000	-77
1.34367	-77
1.34733	-77
1.35100	-77
1.35467	-78
1.35833	-80
1.36200	-77
1.36567	-75
1.36933	-74
1.37300	-73
1.37667	-70
1.38033	-68
1.38400	-71
1.38767	-74
1.39133	-79
1.39500	-86
1.39867	-90
1.40233	-86
1.40600	-79
1.40967	-70
1.41333	-68
1.41700	-71
1.42067	-78
1.42433	-84
1.42800	-85
1.43167	-79
1.43533	-65
1.43900	-30
1.44267	71
1.44633	320
1.45000	937
1.45367	2299
1.45733	4423
1.46100	6863
1.46467	9118
1.46833	10902
1.47200	12067
1.47567	12485
1.47933	12055
1.48300	10839
1.48667	9105
1.49033	7207
1.49400	5447
1.49767	3992
1.50133	2873
1.50500	2047
1.50867	1455
1.51233	1041
1.51600	757
1.51967	559
1.52333	415
1.52700	311
1.53067	239
1.53433	191
1.53800	177
1.54167	230
1.54533	404
1.54900	719
1.55267	1114
1.55633	1495
1.56000	1806
1.56367	2019
1.56733	2108
1.57100	2046
1.57467	1833
1.57833	1516
1.58200	1164
1.58567	841
1.58933	579
1.59300	382
1.59667	246
1.60033	154
1.60400	92
1.60767	48
1.61133	16
1.61500	-8
1.61867	-22
1.62233	-30
1.62600	-32
1.62967	-29
1.63333	-30
1.63700	-37
1.64067	-45
1.64433	-52
1.64800	-56
1.65167	-57
1.65533	-57
1.65900	-60
1.66267	-65
1.66633	-69
1.67000	-69
1.67367	-72
1.67733	-71
1.68100	-64
1.68467	-59
1.68833	-53
1.69200	-49
1.69567	-52
1.69933	-62
1.70300	-74
1.70667	-82
1.71033	-86
1.71400	-90
1.71767	-89
1.72133	-88
1.72500	-85
1.72867	-83
1.73233	-84
1.73600	-85
1.73967	-84
1.74333	-81
1.74700	-80
1.75067	-80
1.75433	-82
1.75800	-82
1.76167	-79
1.76533	-72
1.76900	-61
1.77267	-51
1.77633	-48
1.78000	-49
1.78367	-55
1.78733	-62
1.79100	-72
1.79467	-82
1.79833	-87
1.80200	-89
1.80567	-93
1.80933	-97
1.81300	-99
1.81667	-97
1.82033	-94
1.82400	-92
1.82767	-89
1.83133	-85
1.83500	-80
1.83867	-76
1.84233	-73
1.84600	-77
1.84967	-87
1.85333	-94
1.85700	-98
1.86067	-101
1.86433	-104
1.86800	-105
1.87167	-104
1.87533	-104
1.87900	-102
1.88267	-103
1.88633	-104
1.89000	-104
1.89367	-99
1.89733	-86
1.90100	-81
1.90467	-89
1.90833	-97
1.91200	-100
1.91567	-102
1.91933	-104
1.92300	-103
1.92667	-104
1.93033	-103
1.93400	-97
1.93767	-93
1.94133	-90
1.94500	-87
1.94867	-79
1.95233	-57
1.95600	105
1.95967	1042
1.96333	5162
1.96700	18836
1.97067	53728
1.97433	123013
1.97800	231282
1.98167	367318
1.98533	508207
1.98900	629308
1.99267	711065
1.99633	741945
2.00000	719255
2.00367	650059
2.00733	550115
2.01100	438882
2.01467	333247
2.01833	243538
2.02200	173285
2.02567	121385
2.02933	84566
2.03300	59141
2.03667	41871
2.04033	30232
2.04400	22388
2.04767	17067
2.05133	13414
2.05500	10861
2.05867	9038
2.06233	7701
2.06600	6693
2.06967	5915
2.07333	5302
2.07700	4804
2.08067	4387
2.08433	4031
2.08800	3729
2.09167	3472
2.09533	3246
2.09900	3049
2.10267	2876
2.10633	2719
2.11000	2576
2.11367	2444
2.11733	2324
2.12100	2216
2.12467	2114
2.12833	2013
2.13200	1922
2.13567	1843
2.13933	1774
2.14300	1710
2.14667	1648
2.15033	1587
2.15400	1528
2.15767	1470
2.16133	1421
2.16500	1378
2.16867	1337
2.17233	1294
2.17600	1257
2.17967	1221
2.18333	1178
2.18700	1137
2.19067	1105
2.19433	1079
2.19800	1051
2.20167	1020
2.20533	987
2.20900	958
2.21267	932
2.21633	904
2.22000	878
2.22367	860
2.22733	846
2.23100	832
2.23467	814
2.23833	796
2.24200	781
2.24567	766
2.24933	753
2.25300	739
2.25667	724
2.26033	707
2.26400	682
2.26767	652
2.27133	626
2.27500	609
2.27867	597
2.28233	587
2.28600	575
2.28967	563
2.29333	553
2.29700	544
2.30067	534
2.30433	523
2.30800	514
2.31167	511
2.31533	509
2.31900	505
2.32267	503
2.32633	505
2.33000	505
2.33367	502
2.33733	495
2.34100	484
2.34467	473
2.34833	462
2.35200	451
2.35567	443
2.35933	434
2.36300	418
2.36667	400
2.37033	382
2.37400	367
2.37767	356
2.38133	347
2.38500	339
2.38867	330
2.39233	323
2.39600	322
2.39967	325
2.40333	336
2.40700	347
2.41067	351
2.41433	352
2.41800	351
2.42167	351
2.42533	352
2.42900	348
2.43267	340
2.43633	330
2.44000	322
2.44367	314
2.44733	306
2.45100	303
2.45467	300
2.45833	296
2.46200	292
2.46567	289
2.46933	290
2.47300	288
2.47667	283
2.48033	283
2.48400	286
2.48767	287
2.49133	291
2.49500	297
2.49867	299
2.50233	297
2.50600	296
2.50967	293
2.51333	285
2.51700	272
2.52067	264
2.52433	261
2.52800	268
2.53167	280
2.53533	289
2.53900	289
2.54267	282
2.54633	273
2.55000	266
2.55367	257
2.55733	251
2.56100	246
2.56467	243
2.56833	241
2.57200	239
2.57567	234
2.57933	231
2.58300	235
2.58667	239
2.59033	241
2.59400	236
2.59767	228
2.60133	222
2.60500	218
2.60867	218
2.61233	223
2.61600	232
2.61967	241
2.62333	245
2.62700	241
2.63067	234
2.63433	230
2.63800	228
2.64167	226
2.64533	217
2.64900	210
2.65267	210
2.65633	219
2.66000	229
2.66367	234
2.66733	234
2.67100	228
2.67467	219
2.67833	209
2.68200	202
2.68567	200
2.68933	204
2.69300	212
2.69667	217
2.70033	220
2.70400	223
2.70767	224
2.71133	227
2.71500	231
2.71867	229
2.72233	224
2.72600	218
2.72967	211
2.73333	205
2.73700	201
2.74067	202
2.74433	208
2.74800	215
2.75167	221
2.75533	225
2.75900	231
2.76267	234
2.76633	236
2.77000	236
2.77367	235
2.77733	237
2.78100	240
2.78467	243
2.78833	246
2.79200	249
2.79567	253
2.79933	257
2.80300	252
2.80667	242
2.81033	233
2.81400	230
2.81767	231
2.82133	231
2.82500	230
2.82867	231
2.83233	234
2.83600	235
2.83967	236
2.84333	239
2.84700	240
2.85067	240
2.85433	243
2.85800	248
2.86167	256
2.86533	259
2.86900	256
2.87267	250
2.87633	245
2.88000	242
2.88367	240
2.88733	240
2.89100	244
2.89467	251
2.89833	258
2.90200	263
2.90567	262
2.90933	259
2.91300	260
2.91667	262
2.92033	262
2.92400	259
2.92767	253
2.93133	242
2.93500	231
2.93867	223
2.94233	221
2.94600	224
2.94967	229
2.95333	234
2.95700	238
2.96067	236
2.96433	234
2.96800	231
2.97167	230
2.97533	234
2.97900	238
2.98267	236
2.98633	241
2.99000	255
2.99367	270
2.99733	276
3.00100	273
3.00467	264
3.00833	253
3.01200	246
3.01567	245
3.01933	247
3.02300	250
3.02667	254
3.03033	257
3.03400	259
3.03767	261
3.04133	260
3.04500	260
3.04867	262
3.05233	265
3.05600	265
3.05967	264
3.06333	263
3.06700	263
3.07067	259
3.07433	250
3.07800	242
3.08167	240
3.08533	242
3.08900	245
3.09267	250
3.09633	252
3.10000	257
3.10367	257
3.10733	255
3.11100	254
3.11467	254
3.11833	257
3.12200	263
3.12567	270
3.12933	276
3.13300	280
3.13667	281
3.14033	282
3.14400	281
3.14767	274
3.15133	271
3.15500	276
3.15867	282
3.16233	282
3.16600	275
3.16967	267
3.17333	260
3.17700	258
3.18067	260
3.18433	260
3.18800	255
3.19167	246
3.19533	239
3.19900	239
3.20267	244
3.20633	246
3.21000	245
3.21367	248
3.21733	254
3.22100	261
3.22467	268
3.22833	273
3.23200	272
3.23567	268
3.23933	264
3.24300	259
3.24667	255
3.25033	251
3.25400	249
3.25767	250
3.26133	253
3.26500	252
3.26867	250
3.27233	251
3.27600	255
3.27967	259
3.28333	257
3.28700	254
3.29067	253
3.29433	251
3.29800	248
3.30167	246
3.30533	250
3.30900	258
3.31267	263
3.31633	265
3.32000	263
3.32367	263
3.32733	264
3.33100	267
3.33467	276
3.33833	282
3.34200	279
3.34567	275
3.34933	272
3.35300	265
3.35667	256
3.36033	253
3.36400	252
3.36767	248
3.37133	243
3.37500	237
3.37867	231
3.38233	230
3.38600	238
3.38967	249
3.39333	257
3.39700	259
3.40067	258
3.40433	262
3.40800	267
3.41167	269
3.41533	263
3.41900	251
3.42267	246
3.42633	248
3.43000	251
3.43367	257
3.43733	262
3.44100	265
3.44467	260
3.44833	252
3.45200	245
3.45567	241
3.45933	242
3.46300	244
3.46667	245
3.47033	249
3.47400	254
3.47767	254
3.48133	252
3.48500	250
3.48867	250
3.49233	252
3.49600	247
3.49967	238
3.50333	231
3.50700	232
3.51067	240
3.51433	246
3.51800	248
3.52167	247
3.52533	243
3.52900	239
3.53267	239
3.53633	240
3.54000	237
3.54367	232
3.54733	229
3.55100	228
3.55467	231
3.55833	235
3.56200	236
3.56567	233
3.56933	229
3.57300	225
3.57667	226
3.58033	234
3.58400	241
3.58767	244
3.59133	246
3.59500	247
3.59867	247
3.60233	246
3.60600	241
3.60967	233
3.61333	223
3.61700	213
3.62067	206
3.62433	210
3.62800	221
3.63167	229
3.63533	227
3.63900	222
3.64267	217
3.64633	212
3.65000	210
3.65367	211
3.65733	216
3.66100	225
3.66467	233
3.66833	237
3.67200	240
3.67567	241
3.67933	237
3.68300	236
3.68667	233
3.69033	227
3.69400	223
3.69767	220
3.70133	217
3.70500	211
3.70867	210
3.71233	209
3.71600	206
3.71967	206
3.72333	210
3.72700	212
3.73067	212
3.73433	209
3.73800	212
3.74167	224
3.74533	233
3.74900	232
3.75267	224
3.75633	211
3.76000	193
3.76367	179
3.76733	169
3.77100	164
3.77467	167
3.77833	176
3.78200	187
3.78567	196
3.78933	202
3.79300	205
3.79667	208
3.80033	207
3.80400	209
3.80767	211
3.81133	210
3.81500	208
3.81867	205
3.82233	202
3.82600	200
3.82967	200
3.83333	201
3.83700	202
3.84067	202
3.84433	202
3.84800	201
3.85167	201
3.85533	204
3.85900	206
3.86267	203
3.86633	198
3.87000	190
3.87367	184
3.87733	182
3.88100	178
3.88467	173
3.88833	173
3.89200	175
3.89567	181
3.89933	185
3.90300	183
3.90667	177
3.91033	171
3.91400	173
3.91767	179
3.92133	182
3.92500	184
3.92867	183
3.93233	181
3.93600	174
3.93967	169
3.94333	166
3.94700	167
3.95067	173
3.95433	175
3.95800	175
3.96167	170
3.96533	165
3.96900	162
3.97267	162
3.97633	165
3.98000	170
3.98367	175
3.98733	180
3.99100	185
3.99467	192
3.99833	194

[Chromatogram (Ch2)]
Interval(msec)	220
# of Points	1091
Start Time(min)	0.002
End Time(min)	3.998
R.Time (min)	Intensity
0.00167	-1
0.00533	-2
0.00900	-2
0.01267	-3
0.01633	-4
0.02000	-4
0.02367	-4
0.02733	-4
0.03100	-4
0.03467	-4
0.03833	-4
0.04200	-3
0.04567	-3
0.04933	-3
0.05300	-2
0.05667	-2
0.06033	-2
0.06400	-2
0.06767	-2
0.07133	-2
0.07500	-2
0.07867	-2
0.08233	-2
0.08600	-1
0.08967	-1
0.09333	-1
0.09700	-1
0.10067	-1
0.10433	-1
0.10800	-1
0.11167	-0
0.11533	0
0.11900	1
0.12267	1
0.12633	2
0.13000	2
0.13367	2
0.13733	2
0.14100	2
0.14467	2
0.14833	2
0.15200	2
0.15567	2
0.15933	2
0.16300	2
0.16667	2
0.17033	3
0.17400	3
0.17767	3
0.18133	3
0.18500	3
0.18867	3
0.19233	3
0.19600	3
0.19967	3
0.20333	3
0.20700	2
0.21067	2
0.21433	2
0.21800	2
0.22167	2
0.22533	2
0.22900	2
0.23267	2
0.23633	1
0.24000	1
0.24367	1
0.24733	1
0.25100	1
0.25467	1
0.25833	0
0.26200	0
0.26567	0
0.26933	0
0.27300	1
0.27667	1
0.28033	2
0.28400	2
0.28767	2
0.29133	3
0.29500	3
0.29867	3
0.30233	3
0.30600	3
0.30967	3
0.31333	3
0.31700	3
0.32067	3
0.32433	3
0.32800	3
0.33167	3
0.33533	3
0.33900	2
0.34267	2
0.34633	2
0.35000	1
0.35367	1
0.35733	0
0.36100	-0
0.36467	-1
0.36833	-1
0.37200	-2
0.37567	-2
0.37933	-2
0.38300	-2
0.38667	-2
0.39033	-1
0.39400	-1
0.39767	-1
0.40133	-1
0.40500	-1
0.40867	-1
0.41233	-1
0.41600	-1
0.41967	-1
0.42333	-1
0.42700	-1
0.43067	-1
0.43433	-1
0.43800	-1
0.44167	-1
0.44533	-0
0.44900	0
0.45267	0
0.45633	0
0.46000	0
0.46367	0
0.46733	1
0.47100	1
0.47467	1
0.47833	2
0.48200	2
0.48567	2
0.48933	2
0.49300	2
0.49667	2
0.50033	2
0.50400	2
0.50767	2
0.51133	2
0.51500	2
0.51867	1
0.52233	1
0.52600	1
0.52967	1
0.53333	0
0.53700	0
0.54067	-0
0.54433	-0
0.54800	-1
0.55167	-1
0.55533	-1
0.55900	-1
0.56267	-1
0.56633	-1
0.57000	-1
0.57367	-1
0.57733	-1
0.58100	-1
0.58467	-1
0.58833	-1
0.59200	-1
0.59567	-1
0.59933	-0
0.60300	-0
0.60667	-0
0.61033	0
0.61400	0
0.61767	0
0.62133	0
0.62500	0
0.62867	0
0.63233	1
0.63600	1
0.63967	0
0.64333	0
0.64700	0
0.65067	0
0.65433	0
0.65800	1
0.66167	1
0.66533	1
0.66900	1
0.67267	1
0.67633	1
0.68000	2
0.68367	2
0.68733	2
0.69100	2
0.69467	2
0.69833	2
0.70200	2
0.70567	1
0.70933	1
0.71300	-0
0.71667	-1
0.72033	-2
0.72400	-2
0.72767	-3
0.73133	-3
0.73500	-3
0.73867	-3
0.74233	-3
0.74600	-3
0.74967	-3
0.75333	-3
0.75700	-3
0.76067	-3
0.76433	-4
0.76800	-4
0.77167	-4
0.77533	-4
0.77900	-4
0.78267	-4
0.78633	-4
0.79000	-4
0.79367	-4
0.79733	-4
0.80100	-4
0.80467	-4
0.80833	-3
0.81200	-3
0.81567	-2
0.81933	-2
0.82300	-2
0.82667	-2
0.83033	-2
0.83400	-2
0.83767	-2
0.84133	-2
0.84500	-2
0.84867	-2
0.85233	-2
0.85600	-2
0.85967	-1
0.86333	-1
0.86700	-1
0.87067	-1
0.87433	-1
0.87800	-1
0.88167	-1
0.88533	-1
0.88900	-1
0.89267	-1
0.89633	-1
0.90000	-0
0.90367	-0
0.90733	0
0.91100	0
0.91467	0
0.91833	-0
0.92200	-0
0.92567	-0
0.92933	-1
0.93300	-1
0.93667	-1
0.94033	-1
0.94400	-1
0.94767	-1
0.95133	-1
0.95500	-1
0.95867	-1
0.96233	-1
0.96600	-2
0.96967	-2
0.97333	-2
0.97700	-2
0.98067	-1
0.98433	-1
0.98800	-1
0.99167	-1
0.99533	-1
0.99900	-1
1.00267	-1
1.00633	-0
1.01000	0
1.01367	0
1.01733	1
1.02100	1
1.02467	1
1.02833	1
1.03200	1
1.03567	1
1.03933	1
1.04300	1
1.04667	1
1.05033	1
1.05400	1
1.05767	1
1.06133	0
1.06500	-0
1.06867	-0
1.07233	-1
1.07600	-1
1.07967	-1
1.08333	-1
1.08700	-1
1.09067	-2
1.09433	-2
1.09800	-2
1.10167	-2
1.10533	-2
1.10900	-1
1.11267	-1
1.11633	-1
1.12000	-0
1.12367	-0
1.12733	0
1.13100	1
1.13467	1
1.13833	1
1.14200	1
1.14567	1
1.14933	1
1.15300	0
1.15667	-0
1.16033	-1
1.16400	-1
1.16767	-1
1.17133	-1
1.17500	-1
1.17867	-1
1.18233	-1
1.18600	-1
1.18967	-2
1.19333	-2
1.19700	-2
1.20067	-2
1.20433	-2
1.20800	-2
1.21167	-2
1.21533	-2
1.21900	-2
1.22267	-2
1.22633	-2
1.23000	-2
1.23367	-1
1.23733	-1
1.24100	-1
1.24467	-1
1.24833	-1
1.25200	-1
1.25567	-1
1.25933	-2
1.26300	-2
1.26667	-2
1.27033	-2
1.27400	-1
1.27767	-1
1.28133	-1
1.28500	-1
1.28867	-1
1.29233	-1
1.29600	-1
1.29967	-1
1.30333	-1
1.30700	-2
1.31067	-2
1.31433	-2
1.31800	-2
1.32167	-2
1.32533	-2
1.32900	-2
1.33267	-2
1.33633	-2
1.34000	-2
1.34367	-2
1.34733	-2
1.35100	-2
1.35467	-2
1.35833	-2
1.36200	-2
1.36567	-2
1.36933	-2
1.37300	-2
1.37667	-2
1.38033	-2
1.38400	-3
1.38767	-3
1.39133	-3
1.39500	-3
1.39867	-3
1.40233	-3
1.40600	-3
1.40967	-2
1.41333	-2
1.41700	-1
1.42067	-1
1.42433	-0
1.42800	0
1.43167	0
1.43533	1
1.43900	1
1.44267	1
1.44633	1
1.45000	0
1.45367	0
1.45733	0
1.46100	-0
1.46467	-0
1.46833	-1
1.47200	-1
1.47567	-1
1.47933	-2
1.48300	-2
1.48667	-2
1.49033	-2
1.49400	-2
1.49767	-1
1.50133	-1
1.50500	-1
1.50867	-1
1.51233	-1
1.51600	-2
1.51967	-2
1.52333	-2
1.52700	-3
1.53067	-3
1.53433	-3
1.53800	-3
1.54167	-3
1.54533	-3
1.54900	-3
1.55267	-2
1.55633	-3
1.56000	-3
1.56367	-3
1.56733	-3
1.57100	-3
1.57467	-3
1.57833	-3
1.58200	-3
1.58567	-3
1.58933	-3
1.59300	-4
1.59667	-4
1.60033	-5
1.60400	-6
1.60767	-8
1.61133	-9
1.61500	-11
1.61867	-14
1.62233	-16
1.62600	-19
1.62967	-22
1.63333	-25
1.63700	-29
1.64067	-32
1.64433	-36
1.64800	-40
1.65167	-43
1.65533	-46
1.65900	-50
1.66267	-53
1.66633	-57
1.67000	-62
1.67367	-66
1.67733	-71
1.68100	-76
1.68467	-81
1.68833	-86
1.69200	-90
1.69567	-93
1.69933	-96
1.70300	-99
1.70667	-101
1.71033	-103
1.71400	-104
1.71767	-105
1.72133	-106
1.72500	-106
1.72867	-107
1.73233	-107
1.73600	-107
1.73967	-108
1.74333	-108
1.74700	-108
1.75067	-109
1.75433	-110
1.75800	-111
1.76167	-112
1.76533	-113
1.76900	-114
1.77267	-114
1.77633	-115
1.78000	-115
1.78367	-114
1.78733	-114
1.79100	-113
1.79467	-112
1.79833	-112
1.80200	-112
1.80567	-112
1.80933	-112
1.81300	-113
1.81667	-113
1.82033	-114
1.82400	-114
1.82767	-114
1.83133	-114
1.83500	-114
1.83867	-114
1.84233	-114
1.84600	-114
1.84967	-114
1.85333	-114
1.85700	-113
1.86067	-113
1.86433	-113
1.86800	-113
1.87167	-113
1.87533	-113
1.87900	-113
1.88267	-114
1.88633	-114
1.89000	-114
1.89367	-113
1.89733	-113
1.90100	-113
1.90467	-113
1.90833	-113
1.91200	-112
1.91567	-112
1.91933	-112
1.92300	-111
1.92667	-112
1.93033	-112
1.93400	-112
1.93767	-112
1.94133	-112
1.94500	-112
1.94867	-111
1.95233	-112
1.95600	-112
1.95967	-111
1.96333	-111
1.96700	-111
1.97067	-111
1.97433	-110
1.97800	-109
1.98167	-108
1.98533	-108
1.98900	-107
1.99267	-107
1.99633	-106
2.00000	-106
2.00367	-105
2.00733	-105
2.01100	-105
2.01467	-104
2.01833	-104
2.02200	-104
2.02567	-104
2.02933	-105
2.03300	-104
2.03667	-104
2.04033	-104
2.04400	-104
2.04767	-103
2.05133	-103
2.05500	-102
2.05867	-102
2.06233	-101
2.06600	-101
2.06967	-101
2.07333	-101
2.07700	-101
2.08067	-101
2.08433	-101
2.08800	-101
2.09167	-100
2.09533	-100
2.09900	-99
2.10267	-99
2.10633	-98
2.11000	-98
2.11367	-97
2.11733	-97
2.12100	-96
2.12467	-95
2.12833	-95
2.13200	-95
2.13567	-94
2.13933	-94
2.14300	-94
2.14667	-95
2.15033	-95
2.15400	-95
2.15767	-95
2.16133	-95
2.16500	-95
2.16867	-94
2.17233	-93
2.17600	-93
2.17967	-93
2.18333	-93
2.18700	-92
2.19067	-92
2.19433	-92
2.19800	-92
2.20167	-91
2.20533	-91
2.20900	-90
2.21267	-90
2.21633	-89
2.22000	-89
2.22367	-88
2.22733	-88
2.23100	-88
2.23467	-88
2.23833	-88
2.24200	-88
2.24567	-88
2.24933	-88
2.25300	-88
2.25667	-88
2.26033	-88
2.26400	-87
2.26767	-86
2.27133	-86
2.27500	-85
2.27867	-84
2.28233	-84
2.28600	-83
2.28967	-82
2.29333	-82
2.29700	-81
2.30067	-81
2.30433	-82
2.30800	-82
2.31167	-82
2.31533	-81
2.31900	-81
2.32267	-81
2.32633	-80
2.33000	-80
2.33367	-80
2.33733	-80
2.34100	-79
2.34467	-78
2.34833	-76
2.35200	-75
2.35567	-73
2.35933	-72
2.36300	-71
2.36667	-69
2.37033	-67
2.37400	-65
2.37767	-63
2.38133	-60
2.38500	-56
2.38867	-53
2.39233	-49
2.39600	-44
2.39967	-40
2.40333	-36
2.40700	-31
2.41067	-27
2.41433	-23
2.41800	-20
2.42167	-17
2.42533	-15
2.42900	-13
2.43267	-12
2.43633	-12
2.44000	-11
2.44367	-10
2.44733	-9
2.45100	-9
2.45467	-7
2.45833	-6
2.46200	-5
2.46567	-4
2.46933	-4
2.47300	-3
2.47667	-2
2.48033	-2
2.48400	-1
2.48767	0
2.49133	1
2.49500	3
2.49867	4
2.50233	5
2.50600	6
2.50967	7
2.51333	7
2.51700	8
2.52067	9
2.52433	9
2.52800	10
2.53167	11
2.53533	11
2.53900	12
2.54267	12
2.54633	12
2.55000	13
2.55367	13
2.55733	13
2.56100	13
2.56467	13
2.56833	13
2.57200	13
2.57567	14
2.57933	14
2.58300	15
2.58667	16
2.59033	16
2.59400	16
2.59767	16
2.60133	17
2.60500	17
2.60867	17
2.61233	17
2.61600	17
2.61967	17
2.62333	17
2.62700	18
2.63067	18
2.63433	18
2.63800	18
2.64167	19
2.64533	19
2.64900	19
2.65267	20
2.65633	20
2.66000	21
2.66367	22
2.66733	22
2.67100	22
2.67467	22
2.67833	22
2.68200	21
2.68567	21
2.68933	21
2.69300	22
2.69667	22
2.70033	22
2.70400	23
2.70767	23
2.71133	23
2.71500	23
2.71867	23
2.72233	23
2.72600	23
2.72967	23
2.73333	23
2.73700	24
2.74067	24
2.74433	25
2.74800	25
2.75167	25
2.75533	26
2.75900	26
2.76267	27
2.76633	27
2.77000	28
2.77367	28
2.77733	28
2.78100	27
2.78467	27
2.78833	27
2.79200	26
2.79567	26
2.79933	25
2.80300	25
2.80667	25
2.81033	25
2.81400	25
2.81767	26
2.82133	26
2.82500	26
2.82867	26
2.83233	26
2.83600	25
2.83967	25
2.84333	23
2.84700	20
2.85067	15
2.85433	6
2.85800	-5
2.86167	-21
2.86533	-40
2.86900	-63
2.87267	-91
2.87633	-124
2.88000	-160
2.88367	-201
2.88733	-245
2.89100	-292
2.89467	-342
2.89833	-394
2.90200	-448
2.90567	-502
2.90933	-557
2.91300	-613
2.91667	-668
2.92033	-722
2.92400	-775
2.92767	-827
2.93133	-880
2.93500	-936
2.93867	-995
2.94233	-1049
2.94600	-1087
2.94967	-1102
2.95333	-1090
2.95700	-1054
2.96067	-999
2.96433	-930
2.96800	-853
2.97167	-772
2.97533	-692
2.97900	-614
2.98267	-540
2.98633	-473
2.99000	-411
2.99367	-355
2.99733	-305
3.00100	-261
3.00467	-222
3.00833	-189
3.01200	-159
3.01567	-134
3.01933	-112
3.02300	-94
3.02667	-78
3.03033	-64
3.03400	-52
3.03767	-43
3.04133	-34
3.04500	-27
3.04867	-21
3.05233	-16
3.05600	-12
3.05967	-8
3.06333	-5
3.06700	-3
3.07067	-0
3.07433	2
3.07800	4
3.08167	6
3.08533	7
3.08900	8
3.09267	9
3.09633	11
3.10000	12
3.10367	13
3.10733	14
3.11100	15
3.11467	15
3.11833	16
3.12200	16
3.12567	16
3.12933	17
3.13300	17
3.13667	17
3.14033	17
3.14400	18
3.14767	18
3.15133	19
3.15500	19
3.15867	19
3.16233	20
3.16600	20
3.16967	20
3.17333	21
3.17700	21
3.18067	21
3.18433	22
3.18800	22
3.19167	22
3.19533	22
3.19900	23
3.20267	23
3.20633	23
3.21000	24
3.21367	24
3.21733	24
3.22100	25
3.22467	25
3.22833	25
3.23200	25
3.23567	25
3.23933	25
3.24300	25
3.24667	25
3.25033	25
3.25400	25
3.25767	25
3.26133	25
3.26500	25
3.26867	25
3.27233	25
3.27600	25
3.27967	25
3.28333	26
3.28700	26
3.29067	26
3.29433	26
3.29800	26
3.30167	26
3.30533	26
3.30900	26
3.31267	26
3.31633	25
3.32000	25
3.32367	25
3.32733	25
3.33100	24
3.33467	24
3.33833	24
3.34200	24
3.34567	24
3.34933	24
3.35300	24
3.35667	24
3.36033	24
3.36400	24
3.36767	24
3.37133	24
3.37500	24
3.37867	24
3.38233	24
3.38600	24
3.38967	24
3.39333	24
3.39700	24
3.40067	25
3.40433	25
3.40800	25
3.41167	26
3.41533	26
3.41900	26
3.42267	26
3.42633	27
3.43000	27
3.43367	27
3.43733	27
3.44100	27
3.44467	28
3.44833	28
3.45200	28
3.45567	28
3.45933	28
3.46300	28
3.46667	28
3.47033	28
3.47400	28
3.47767	28
3.48133	28
3.48500	28
3.48867	29
3.49233	29
3.49600	29
3.49967	29
3.50333	29
3.50700	29
3.51067	29
3.51433	29
3.51800	29
3.52167	29
3.52533	29
3.52900	29
3.53267	28
3.53633	28
3.54000	28
3.54367	28
3.54733	28
3.55100	28
3.55467	28
3.55833	28
3.56200	28
3.56567	28
3.56933	28
3.57300	28
3.57667	28
3.58033	29
3.58400	29
3.58767	29
3.59133	29
3.59500	29
3.59867	29
3.60233	29
3.60600	29
3.60967	29
3.61333	29
3.61700	29
3.62067	29
3.62433	29
3.62800	29
3.63167	29
3.63533	29
3.63900	29
3.64267	29
3.64633	29
3.65000	28
3.65367	28
3.65733	28
3.66100	27
3.66467	27
3.66833	27
3.67200	27
3.67567	27
3.67933	26
3.68300	26
3.68667	26
3.69033	27
3.69400	27
3.69767	27
3.70133	27
3.70500	27
3.70867	27
3.71233	27
3.71600	28
3.71967	28
3.72333	28
3.72700	28
3.73067	28
3.73433	29
3.73800	29
3.74167	29
3.74533	29
3.74900	29
3.75267	29
3.75633	29
3.76000	29
3.76367	29
3.76733	29
3.77100	28
3.77467	28
3.77833	29
3.78200	29
3.78567	29
3.78933	29
3.79300	29
3.79667	29
3.80033	29
3.80400	28
3.80767	28
3.81133	27
3.81500	27
3.81867	27
3.82233	26
3.82600	26
3.82967	26
3.83333	26
3.83700	25
3.84067	25
3.84433	25
3.84800	25
3.85167	25
3.85533	25
3.85900	25
3.86267	25
3.86633	25
3.87000	25
3.87367	26
3.87733	26
3.88100	26
3.88467	26
3.88833	26
3.89200	26
3.89567	27
3.89933	27
3.90300	27
3.90667	27
3.91033	27
3.91400	27
3.91767	27
3.92133	27
3.92500	27
3.92867	27
3.93233	27
3.93600	27
3.93967	27
3.94333	28
3.94700	28
3.95067	28
3.95433	28
3.95800	28
3.96167	28
3.96533	28
3.96900	28
3.97267	28
3.97633	27
3.98000	27
3.98367	27
3.98733	27
3.99100	27
3.99467	27
3.99833	27

[Chromatogram (Ch3)]
Interval(msec)	220
# of Points	1091
Start Time(min)	0.002
End Time(min)	3.998
R.Time (min)	Intensity
0.00167	-0
0.00533	-2
0.00900	-1
0.01267	1
0.01633	1
0.02000	0
0.02367	1
0.02733	1
0.03100	1
0.03467	1
0.03833	-0
0.04200	-2
0.04567	-3
0.04933	-3
0.05300	-3
0.05667	-3
0.06033	-3
0.06400	-4
0.06767	-6
0.07133	-5
0.07500	-3
0.07867	-4
0.08233	-6
0.08600	-8
0.08967	-8
0.09333	-8
0.09700	-7
0.10067	-6
0.10433	-5
0.10800	-5
0.11167	-7
0.11533	-8
0.11900	-8
0.12267	-6
0.12633	-3
0.13000	-5
0.13367	-9
0.13733	-11
0.14100	-10
0.14467	-8
0.14833	-5
0.15200	-3
0.15567	-2
0.15933	-1
0.16300	-1
0.16667	-4
0.17033	-8
0.17400	-12
0.17767	-12
0.18133	-10
0.18500	-9
0.18867	-8
0.19233	-8
0.19600	-7
0.19967	-6
0.20333	-5
0.20700	-3
0.21067	-2
0.21433	-2
0.21800	-3
0.22167	-4
0.22533	-5
0.22900	-6
0.23267	-6
0.23633	-6
0.24000	-6
0.24367	-7
0.24733	-7
0.25100	-6
0.25467	-7
0.25833	-9
0.26200	-9
0.26567	-9
0.26933	-7
0.27300	-4
0.27667	-3
0.28033	-3
0.28400	-4
0.28767	-7
0.29133	-11
0.29500	-13
0.29867	-12
0.30233	-11
0.30600	-12
0.30967	-12
0.31333	-11
0.31700	-9
0.32067	-6
0.32433	-5
0.32800	-4
0.33167	-3
0.33533	-2
0.33900	-2
0.34267	-2
0.34633	-1
0.35000	0
0.35367	2
0.35733	0
0.36100	-2
0.36467	-4
0.36833	-3
0.37200	-1
0.37567	1
0.37933	-0
0.38300	-4
0.38667	-7
0.39033	-8
0.39400	-7
0.39767	-6
0.40133	-7
0.40500	-7
0.40867	-6
0.41233	-6
0.41600	-6
0.41967	-6
0.42333	-5
0.42700	-5
0.43067	-5
0.43433	-5
0.43800	-6
0.44167	-6
0.44533	-7
0.44900	-8
0.45267	-8
0.45633	-8
0.46000	-8
0.46367	-6
0.46733	-5
0.47100	-4
0.47467	-4
0.47833	-6
0.48200	-9
0.48567	-11
0.48933	-11
0.49300	-9
0.49667	-8
0.50033	-9
0.50400	-11
0.50767	-13
0.51133	-13
0.51500	-10
0.51867	-8
0.52233	-8
0.52600	-8
0.52967	-10
0.53333	-10
0.53700	-12
0.54067	-13
0.54433	-12
0.54800	-10
0.55167	-7
0.55533	-7
0.55900	-6
0.56267	-4
0.56633	-4
0.57000	-4
0.57367	-4
0.57733	-4
0.58100	-4
0.58467	-5
0.58833	-4
0.59200	-3
0.59567	-5
0.59933	-8
0.60300	-9
0.60667	-9
0.61033	-7
0.61400	-8
0.61767	-8
0.62133	-7
0.62500	-5
0.62867	-4
0.63233	-4
0.63600	-7
0.63967	-8
0.64333	-7
0.64700	-5
0.65067	-4
0.65433	-4
0.65800	-5
0.66167	-6
0.66533	-6
0.66900	-6
0.67267	-7
0.67633	-7
0.68000	-7
0.68367	-6
0.68733	-4
0.69100	-4
0.69467	-6
0.69833	-8
0.70200	-8
0.70567	-9
0.70933	-7
0.71300	-5
0.71667	-6
0.72033	-7
0.72400	-8
0.72767	-8
0.73133	-7
0.73500	-8
0.73867	-8
0.74233	-6
0.74600	-7
0.74967	-7
0.75333	-6
0.75700	-3
0.76067	-2
0.76433	-3
0.76800	-4
0.77167	-5
0.77533	-5
0.77900	-4
0.78267	-2
0.78633	-1
0.79000	-0
0.79367	-1
0.79733	-3
0.80100	-5
0.80467	-7
0.80833	-7
0.81200	-4
0.81567	-3
0.81933	-7
0.82300	-9
0.82667	-9
0.83033	-7
0.83400	-4
0.83767	-2
0.84133	-2
0.84500	-1
0.84867	-0
0.85233	1
0.85600	3
0.85967	4
0.86333	3
0.86700	1
0.87067	-1
0.87433	-2
0.87800	-4
0.88167	-5
0.88533	-4
0.88900	-1
0.89267	1
0.89633	1
0.90000	-1
0.90367	-3
0.90733	-4
0.91100	-3
0.91467	-3
0.91833	-4
0.92200	-3
0.92567	-0
0.92933	2
0.93300	4
0.93667	4
0.94033	4
0.94400	3
0.94767	3
0.95133	0
0.95500	-2
0.95867	-3
0.96233	-3
0.96600	-2
0.96967	-2
0.97333	-1
0.97700	-0
0.98067	0
0.98433	2
0.98800	2
0.99167	1
0.99533	-1
0.99900	-2
1.00267	-1
1.00633	-1
1.01000	-1
1.01367	-1
1.01733	-1
1.02100	-2
1.02467	-2
1.02833	-1
1.03200	0
1.03567	3
1.03933	5
1.04300	5
1.04667	2
1.05033	0
1.05400	0
1.05767	0
1.06133	1
1.06500	1
1.06867	-0
1.07233	1
1.07600	2
1.07967	1
1.08333	-1
1.08700	-3
1.09067	-4
1.09433	-5
1.09800	-5
1.10167	-3
1.10533	-0
1.10900	0
1.11267	-1
1.11633	0
1.12000	2
1.12367	3
1.12733	2
1.13100	1
1.13467	-0
1.13833	0
1.14200	0
1.14567	1
1.14933	0
1.15300	0
1.15667	-0
1.16033	-2
1.16400	-2
1.16767	-1
1.17133	-0
1.17500	-0
1.17867	0
1.18233	-1
1.18600	1
1.18967	3
1.19333	3
1.19700	0
1.20067	-1
1.20433	-1
1.20800	-1
1.21167	-0
1.21533	1
1.21900	4
1.22267	5
1.22633	5
1.23000	4
1.23367	0
1.23733	0
1.24100	0
1.24467	-1
1.24833	-1
1.25200	-0
1.25567	0
1.25933	1
1.26300	1
1.26667	2
1.27033	1
1.27400	0
1.27767	1
1.28133	0
1.28500	-1
1.28867	-2
1.29233	-1
1.29600	-1
1.29967	-1
1.30333	1
1.30700	2
1.31067	1
1.31433	1
1.31800	1
1.32167	2
1.32533	1
1.32900	0
1.33267	-1
1.33633	-2
1.34000	-1
1.34367	2
1.34733	4
1.35100	4
1.35467	4
1.35833	4
1.36200	4
1.36567	3
1.36933	2
1.37300	1
1.37667	-1
1.38033	-1
1.38400	-0
1.38767	-2
1.39133	-2
1.39500	-1
1.39867	0
1.40233	0
1.40600	2
1.40967	3
1.41333	3
1.41700	5
1.42067	6
1.42433	5
1.42800	1
1.43167	1
1.43533	3
1.43900	2
1.44267	1
1.44633	3
1.45000	4
1.45367	3
1.45733	0
1.46100	-2
1.46467	-4
1.46833	-4
1.47200	-2
1.47567	-1
1.47933	-0
1.48300	2
1.48667	2
1.49033	1
1.49400	1
1.49767	0
1.50133	-2
1.50500	-2
1.50867	0
1.51233	2
1.51600	3
1.51967	2
1.52333	1
1.52700	2
1.53067	0
1.53433	-1
1.53800	-1
1.54167	-2
1.54533	-1
1.54900	1
1.55267	5
1.55633	7
1.56000	6
1.56367	5
1.56733	6
1.57100	7
1.57467	6
1.57833	7
1.58200	7
1.58567	6
1.58933	5
1.59300	8
1.59667	8
1.60033	6
1.60400	4
1.60767	4
1.61133	3
1.61500	3
1.61867	4
1.62233	3
1.62600	2
1.62967	2
1.63333	2
1.63700	2
1.64067	3
1.64433	6
1.64800	8
1.65167	9
1.65533	10
1.65900	8
1.66267	5
1.66633	6
1.67000	7
1.67367	8
1.67733	8
1.68100	7
1.68467	7
1.68833	9
1.69200	10
1.69567	12
1.69933	12
1.70300	12
1.70667	15
1.71033	16
1.71400	16
1.71767	15
1.72133	13
1.72500	12
1.72867	10
1.73233	9
1.73600	8
1.73967	8
1.74333	10
1.74700	13
1.75067	16
1.75433	16
1.75800	15
1.76167	15
1.76533	16
1.76900	15
1.77267	14
1.77633	15
1.78000	15
1.78367	15
1.78733	17
1.79100	17
1.79467	17
1.79833	17
1.80200	19
1.80567	21
1.80933	22
1.81300	22
1.81667	22
1.82033	24
1.82400	26
1.82767	26
1.83133	26
1.83500	24
1.83867	22
1.84233	22
1.84600	23
1.84967	25
1.85333	26
1.85700	26
1.86067	28
1.86433	27
1.86800	26
1.87167	24
1.87533	25
1.87900	27
1.88267	29
1.88633	29
1.89000	30
1.89367	30
1.89733	30
1.90100	30
1.90467	29
1.90833	28
1.91200	31
1.91567	32
1.91933	34
1.92300	36
1.92667	37
1.93033	36
1.93400	36
1.93767	36
1.94133	33
1.94500	33
1.94867	34
1.95233	34
1.95600	36
1.95967	37
1.96333	37
1.96700	39
1.97067	41
1.97433	41
1.97800	40
1.98167	39
1.98533	38
1.98900	39
1.99267	41
1.99633	43
2.00000	42
2.00367	42
2.00733	41
2.01100	44
2.01467	47
2.01833	51
2.02200	53
2.02567	53
2.02933	53
2.03300	51
2.03667	50
2.04033	52
2.04400	51
2.04767	52
2.05133	55
2.05500	59
2.05867	61
2.06233	61
2.06600	63
2.06967	63
2.07333	61
2.07700	61
2.08067	65
2.08433	68
2.08800	68
2.09167	68
2.09533	68
2.09900	69
2.10267	69
2.10633	70
2.11000	74
2.11367	74
2.11733	75
2.12100	78
2.12467	78
2.12833	81
2.13200	84
2.13567	84
2.13933	82
2.14300	82
2.14667	83
2.15033	86
2.15400	89
2.15767	90
2.16133	92
2.16500	95
2.16867	97
2.17233	96
2.17600	95
2.17967	97
2.18333	98
2.18700	101
2.19067	102
2.19433	101
2.19800	101
2.20167	101
2.20533	103
2.20900	105
2.21267	108
2.21633	110
2.22000	111
2.22367	113
2.22733	114
2.23100	114
2.23467	116
2.23833	120
2.24200	124
2.24567	126
2.24933	125
2.25300	125
2.25667	125
2.26033	125
2.26400	126
2.26767	129
2.27133	131
2.27500	132
2.27867	134
2.28233	138
2.28600	140
2.28967	142
2.29333	142
2.29700	141
2.30067	142
2.30433	143
2.30800	144
2.31167	145
2.31533	148
2.31900	149
2.32267	149
2.32633	149
2.33000	152
2.33367	155
2.33733	158
2.34100	161
2.34467	162
2.34833	163
2.35200	164
2.35567	167
2.35933	168
2.36300	168
2.36667	169
2.37033	172
2.37400	173
2.37767	175
2.38133	178
2.38500	179
2.38867	179
2.39233	180
2.39600	183
2.39967	186
2.40333	188
2.40700	191
2.41067	195
2.41433	199
2.41800	202
2.42167	207
2.42533	212
2.42900	212
2.43267	210
2.43633	211
2.44000	214
2.44367	263
2.44733	387
2.45100	523
2.45467	637
2.45833	708
2.46200	724
2.46567	706
2.46933	679
2.47300	657
2.47667	645
2.48033	639
2.48400	626
2.48767	600
2.49133	563
2.49500	526
2.49867	495
2.50233	472
2.50600	458
2.50967	448
2.51333	445
2.51700	450
2.52067	459
2.52433	474
2.52800	489
2.53167	503
2.53533	511
2.53900	511
2.54267	503
2.54633	485
2.55000	464
2.55367	442
2.55733	420
2.56100	401
2.56467	387
2.56833	377
2.57200	369
2.57567	363
2.57933	360
2.58300	359
2.58667	359
2.59033	359
2.59400	358
2.59767	357
2.60133	350
2.60500	340
2.60867	326
2.61233	309
2.61600	293
2.61967	279
2.62333	266
2.62700	255
2.63067	247
2.63433	243
2.63800	243
2.64167	245
2.64533	249
2.64900	255
2.65267	261
2.65633	267
2.66000	272
2.66367	276
2.66733	279
2.67100	278
2.67467	275
2.67833	272
2.68200	268
2.68567	265
2.68933	259
2.69300	253
2.69667	246
2.70033	241
2.70400	235
2.70767	231
2.71133	229
2.71500	231
2.71867	231
2.72233	232
2.72600	231
2.72967	230
2.73333	231
2.73700	232
2.74067	230
2.74433	229
2.74800	230
2.75167	231
2.75533	233
2.75900	235
2.76267	236
2.76633	237
2.77000	237
2.77367	236
2.77733	234
2.78100	234
2.78467	234
2.78833	237
2.79200	241
2.79567	241
2.79933	241
2.80300	239
2.80667	239
2.81033	241
2.81400	242
2.81767	246
2.82133	256
2.82500	279
2.82867	331
2.83233	427
2.83600	595
2.83967	856
2.84333	1221
2.84700	1693
2.85067	2251
2.85433	2867
2.85800	3495
2.86167	4082
2.86533	4580
2.86900	4949
2.87267	5169
2.87633	5241
2.88000	5173
2.88367	4988
2.88733	4716
2.89100	4387
2.89467	4032
2.89833	3668
2.90200	3311
2.90567	2971
2.90933	2654
2.91300	2366
2.91667	2107
2.92033	1873
2.92400	1663
2.92767	1480
2.93133	1319
2.93500	1180
2.93867	1060
2.94233	955
2.94600	863
2.94967	781
2.95333	711
2.95700	651
2.96067	597
2.96433	550
2.96800	511
2.97167	478
2.97533	449
2.97900	424
2.98267	399
2.98633	381
2.99000	367
2.99367	353
2.99733	339
3.00100	324
3.00467	312
3.00833	303
3.01200	292
3.01567	283
3.01933	276
3.02300	269
3.02667	264
3.03033	259
3.03400	254
3.03767	249
3.04133	248
3.04500	246
3.04867	243
3.05233	240
3.05600	237
3.05967	234
3.06333	230
3.06700	227
3.07067	225
3.07433	224
3.07800	223
3.08167	221
3.08533	221
3.08900	222
3.09267	223
3.09633	223
3.10000	222
3.10367	220
3.10733	220
3.11100	219
3.11467	216
3.11833	212
3.12200	211
3.12567	213
3.12933	208
3.13300	188
3.13667	150
3.14033	119
3.14400	115
3.14767	134
3.15133	166
3.15500	206
3.15867	249
3.16233	291
3.16600	332
3.16967	368
3.17333	398
3.17700	427
3.18067	451
3.18433	474
3.18800	493
3.19167	510
3.19533	525
3.19900	536
3.20267	546
3.20633	558
3.21000	569
3.21367	577
3.21733	584
3.22100	591
3.22467	595
3.22833	602
3.23200	608
3.23567	612
3.23933	614
3.24300	618
3.24667	622
3.25033	626
3.25400	632
3.25767	638
3.26133	641
3.26500	642
3.26867	646
3.27233	649
3.27600	652
3.27967	654
3.28333	657
3.28700	657
3.29067	659
3.29433	663
3.29800	667
3.30167	668
3.30533	668
3.30900	669
3.31267	673
3.31633	677
3.32000	678
3.32367	678
3.32733	678
3.33100	680
3.33467	681
3.33833	684
3.34200	685
3.34567	687
3.34933	690
3.35300	693
3.35667	691
3.36033	689
3.36400	688
3.36767	687
3.37133	690
3.37500	691
3.37867	694
3.38233	695
3.38600	692
3.38967	690
3.39333	689
3.39700	688
3.40067	686
3.40433	687
3.40800	688
3.41167	687
3.41533	686
3.41900	689
3.42267	691
3.42633	691
3.43000	693
3.43367	694
3.43733	693
3.44100	691
3.44467	687
3.44833	684
3.45200	682
3.45567	681
3.45933	681
3.46300	679
3.46667	678
3.47033	676
3.47400	673
3.47767	672
3.48133	670
3.48500	669
3.48867	669
3.49233	668
3.49600	666
3.49967	664
3.50333	662
3.50700	659
3.51067	657
3.51433	654
3.51800	650
3.52167	647
3.52533	644
3.52900	644
3.53267	644
3.53633	643
3.54000	642
3.54367	640
3.54733	637
3.55100	636
3.55467	636
3.55833	634
3.56200	633
3.56567	634
3.56933	632
3.57300	630
3.57667	629
3.58033	627
3.58400	627
3.58767	628
3.59133	630
3.59500	630
3.59867	629
3.60233	628
3.60600	627
3.60967	625
3.61333	622
3.61700	618
3.62067	615
3.62433	615
3.62800	617
3.63167	617
3.63533	616
3.63900	615
3.64267	616
3.64633	617
3.65000	618
3.65367	620
3.65733	619
3.66100	619
3.66467	616
3.66833	616
3.67200	617
3.67567	618
3.67933	619
3.68300	616
3.68667	616
3.69033	616
3.69400	615
3.69767	616
3.70133	616
3.70500	616
3.70867	614
3.71233	611
3.71600	609
3.71967	610
3.72333	611
3.72700	611
3.73067	611
3.73433	613
3.73800	613
3.74167	612
3.74533	609
3.74900	606
3.75267	603
3.75633	599
3.76000	600
3.76367	602
3.76733	603
3.77100	604
3.77467	603
3.77833	602
3.78200	602
3.78567	602
3.78933	602
3.79300	601
3.79667	600
3.80033	600
3.80400	601
3.80767	603
3.81133	603
3.81500	603
3.81867	602
3.82233	599
3.82600	598
3.82967	599
3.83333	599
3.83700	599
3.84067	601
3.84433	602
3.84800	602
3.85167	601
3.85533	599
3.85900	596
3.86267	594
3.86633	591
3.87000	588
3.87367	586
3.87733	587
3.88100	587
3.88467	587
3.88833	589
3.89200	589
3.89567	589
3.89933	586
3.90300	582
3.90667	579
3.91033	578
3.91400	577
3.91767	577
3.92133	576
3.92500	575
3.92867	573
3.93233	570
3.93600	570
3.93967	569
3.94333	567
3.94700	564
3.95067	561
3.95433	561
3.95800	561
3.96167	560
3.96533	559
3.96900	557
3.97267	556
3.97633	556
3.98000	554
3.98367	554
3.98733	554
3.99100	555
3.99467	551
3.99833	544

[Status Trace (Column Oven Temperature)]
Interval(msec)	1000
# of Points	240
Start Time(min)	0.016
End Time(min)	3.999
Intensity Units	
Intensity Multiplier	1
R.Time (min)	Intensity
0.01617	35.04
0.03283	35.05
0.04950	35.05
0.06617	35.06
0.08283	35.07
0.09950	35.07
0.11617	35.06
0.13283	35.05
0.14950	35.04
0.16617	35.03
0.18283	35.02
0.19950	35.01
0.21617	35.02
0.23283	35.02
0.24950	35.02
0.26617	35.02
0.28283	35.01
0.29950	35.00
0.31617	34.99
0.33283	34.99
0.34950	34.99
0.36617	35.00
0.38283	34.99
0.39950	35.00
0.41617	35.00
0.43283	35.00
0.44950	34.99
0.46617	34.99
0.48283	34.99
0.49950	34.99
0.51617	34.99
0.53283	34.99
0.54950	35.00
0.56617	35.00
0.58283	35.00
0.59950	35.00
0.61617	35.00
0.63283	35.01
0.64950	35.00
0.66617	34.98
0.68283	34.96
0.69950	34.96
0.71617	34.97
0.73283	34.98
0.74950	35.00
0.76617	35.01
0.78283	35.03
0.79950	35.04
0.81617	35.04
0.83283	35.05
0.84950	35.05
0.86617	35.04
0.88283	35.03
0.89950	35.03
0.91617	35.03
0.93283	35.03
0.94950	35.03
0.96617	35.03
0.98283	35.03
0.99950	35.03
1.01617	35.01
1.03283	35.00
1.04950	34.99
1.06617	35.00
1.08283	34.99
1.09950	35.01
1.11617	35.00
1.13283	34.99
1.14950	34.99
1.16617	35.00
1.18283	34.99
1.19950	34.99
1.21617	35.00
1.23283	35.00
1.24950	35.00
1.26617	34.99
1.28283	34.98
1.29950	34.99
1.31617	34.99
1.33283	34.98
1.34950	34.99
1.36617	35.00
1.38283	34.99
1.39950	34.99
1.41617	34.97
1.43283	34.97
1.44950	34.97
1.46617	34.96
1.48283	34.96
1.49950	34.96
1.51617	34.97
1.53283	34.97
1.54950	34.97
1.56617	34.97
1.58283	34.98
1.59950	35.01
1.61617	35.10
1.63283	35.26
1.64950	35.48
1.66617	35.77
1.68283	36.14
1.69950	36.50
1.71617	36.84
1.73283	37.18
1.74950	37.51
1.76617	37.86
1.78283	38.17
1.79950	38.49
1.81617	38.82
1.83283	39.16
1.84950	39.50
1.86617	39.82
1.88283	40.16
1.89950	40.49
1.91617	40.82
1.93283	41.14
1.94950	41.48
1.96617	41.81
1.98283	42.13
1.99950	42.45
2.01617	42.77
2.03283	43.10
2.04950	43.42
2.06617	43.75
2.08283	44.08
2.09950	44.40
2.11617	44.73
2.13283	45.04
2.14950	45.39
2.16617	45.70
2.18283	46.03
2.19950	46.36
2.21617	46.68
2.23283	47.01
2.24950	47.35
2.26617	47.68
2.28283	48.00
2.29950	48.33
2.31617	48.68
2.33283	49.02
2.34950	49.29
2.36617	49.53
2.38283	49.65
2.39950	49.67
2.41617	49.66
2.43283	49.69
2.44950	49.69
2.46617	49.70
2.48283	49.73
2.49950	49.74
2.51617	49.75
2.53283	49.77
2.54950	49.79
2.56617	49.80
2.58283	49.81
2.59950	49.81
2.61617	49.82
2.63283	49.83
2.64950	49.82
2.66617	49.82
2.68283	49.84
2.69950	49.85
2.71617	49.86
2.73283	49.87
2.74950	49.86
2.76617	49.84
2.78283	49.85
2.79950	49.86
2.81617	49.88
2.83283	49.88
2.84950	49.88
2.86617	49.88
2.88283	49.89
2.89950	49.90
2.91617	49.92
2.93283	49.94
2.94950	49.96
2.96617	49.97
2.98283	49.97
2.99950	49.97
3.01617	49.97
3.03283	49.98
3.04950	50.00
3.06617	50.01
3.08283	50.02
3.09950	50.02
3.11617	50.04
3.13283	50.04
3.14950	50.04
3.16617	50.04
3.18283	50.04
3.19950	50.04
3.21617	50.03
3.23283	50.03
3.24950	50.04
3.26617	50.05
3.28283	50.04
3.29950	50.04
3.31617	50.05
3.33283	50.06
3.34950	50.08
3.36617	50.09
3.38283	50.11
3.39950	50.11
3.41617	50.11
3.43283	50.10
3.44950	50.09
3.46617	50.09
3.48283	50.08
3.49950	50.07
3.51617	50.06
3.53283	50.06
3.54950	50.06
3.56617	50.05
3.58283	50.05
3.59950	50.05
3.61617	50.04
3.63283	50.04
3.64950	50.05
3.66617	50.06
3.68283	50.06
3.69950	50.06
3.71617	50.06
3.73283	50.05
3.74950	50.04
3.76617	50.04
3.78283	50.04
3.79950	50.04
3.81617	50.05
3.83283	50.06
3.84950	50.07
3.86617	50.08
3.88283	50.08
3.89950	50.08
3.91617	50.08
3.93283	50.08
3.94950	50.07
3.96617	50.08
3.98283	50.08
3.99950	50.08

[Status Trace (Injection Unit Temperature)]
Interval(msec)	1000
# of Points	240
Start Time(min)	0.016
End Time(min)	3.999
Intensity Units	
Intensity Multiplier	1
R.Time (min)	Intensity
0.01617	99.98
0.03283	99.98
0.04950	99.98
0.06617	99.98
0.08283	99.98
0.09950	99.98
0.11617	99.98
0.13283	99.98
0.14950	99.98
0.16617	99.98
0.18283	99.98
0.19950	99.97
0.21617	99.98
0.23283	99.98
0.24950	99.97
0.26617	99.98
0.28283	99.98
0.29950	99.98
0.31617	99.98
0.33283	99.98
0.34950	99.98
0.36617	99.98
0.38283	99.98
0.39950	99.98
0.41617	99.98
0.43283	99.98
0.44950	99.98
0.46617	99.98
0.48283	99.98
0.49950	99.98
0.51617	99.98
0.53283	99.98
0.54950	99.98
0.56617	99.98
0.58283	99.98
0.59950	99.98
0.61617	99.97
0.63283	99.99
0.64950	99.99
0.66617	99.98
0.68283	99.98
0.69950	99.99
0.71617	99.98
0.73283	99.98
0.74950	99.98
0.76617	99.98
0.78283	99.99
0.79950	99.98
0.81617	99.98
0.83283	99.99
0.84950	99.98
0.86617	99.99
0.88283	99.98
0.89950	99.98
0.91617	99.98
0.93283	99.98
0.94950	99.99
0.96617	99.98
0.98283	99.99
0.99950	99.98
1.01617	99.99
1.03283	99.99
1.04950	99.98
1.06617	99.98
1.08283	99.98
1.09950	99.98
1.11617	99.98
1.13283	99.98
1.14950	99.98
1.16617	99.98
1.18283	99.99
1.19950	99.98
1.21617	99.98
1.23283	99.99
1.24950	99.98
1.26617	99.98
1.28283	99.98
1.29950	99.98
1.31617	99.98
1.33283	99.98
1.34950	99.98
1.36617	99.98
1.38283	99.98
1.39950	99.98
1.41617	99.98
1.43283	99.98
1.44950	99.98
1.46617	99.98
1.48283	99.98
1.49950	99.98
1.51617	99.98
1.53283	99.98
1.54950	99.97
1.56617	99.98
1.58283	99.98
1.59950	99.98
1.61617	99.98
1.63283	99.98
1.64950	99.98
1.66617	99.98
1.68283	99.98
1.69950	99.98
1.71617	99.98
1.73283	99.98
1.74950	99.98
1.76617	99.97
1.78283	99.98
1.79950	99.98
1.81617	99.98
1.83283	99.98
1.84950	99.98
1.86617	99.98
1.88283	99.98
1.89950	99.97
1.91617	99.98
1.93283	99.97
1.94950	99.98
1.96617	99.98
1.98283	99.98
1.99950	99.98
2.01617	99.98
2.03283	99.98
2.04950	99.97
2.06617	99.97
2.08283	99.97
2.09950	99.97
2.11617	99.96
2.13283	99.97
2.14950	99.97
2.16617	99.97
2.18283	99.97
2.19950	99.97
2.21617	99.97
2.23283	99.97
2.24950	99.97
2.26617	99.97
2.28283	99.97
2.29950	99.96
2.31617	99.97
2.33283	99.96
2.34950	99.96
2.36617	99.97
2.38283	99.97
2.39950	99.97
2.41617	99.97
2.43283	99.97
2.44950	99.97
2.46617	99.97
2.48283	99.97
2.49950	99.97
2.51617	99.97
2.53283	99.97
2.54950	99.97
2.56617	99.97
2.58283	99.97
2.59950	99.97
2.61617	99.97
2.63283	99.97
2.64950	99.98
2.66617	99.97
2.68283	99.98
2.69950	99.98
2.71617	99.98
2.73283	99.98
2.74950	99.98
2.76617	99.98
2.78283	99.99
2.79950	99.99
2.81617	99.99
2.83283	99.99
2.84950	99.99
2.86617	99.99
2.88283	99.99
2.89950	100.00
2.91617	100.00
2.93283	100.00
2.94950	100.00
2.96617	100.00
2.98283	100.00
2.99950	100.00
3.01617	100.00
3.03283	100.00
3.04950	100.00
3.06617	100.01
3.08283	100.01
3.09950	100.01
3.11617	100.01
3.13283	100.01
3.14950	100.01
3.16617	100.01
3.18283	100.01
3.19950	100.01
3.21617	100.01
3.23283	100.02
3.24950	100.02
3.26617	100.02
3.28283	100.02
3.29950	100.02
3.31617	100.02
3.33283	100.02
3.34950	100.02
3.36617	100.02
3.38283	100.03
3.39950	100.03
3.41617	100.03
3.43283	100.03
3.44950	100.03
3.46617	100.03
3.48283	100.02
3.49950	100.03
3.51617	100.03
3.53283	100.03
3.54950	100.03
3.56617	100.03
3.58283	100.04
3.59950	100.03
3.61617	100.04
3.63283	100.04
3.64950	100.03
3.66617	100.04
3.68283	100.04
3.69950	100.04
3.71617	100.04
3.73283	100.04
3.74950	100.04
3.76617	100.04
3.78283	100.04
3.79950	100.04
3.81617	100.04
3.83283	100.04
3.84950	100.04
3.86617	100.04
3.88283	100.05
3.89950	100.05
3.91617	100.04
3.93283	100.05
3.94950	100.05
3.96617	100.05
3.98283	100.04
3.99950	100.05

[Status Trace (Carrier Gas Pressure)]
Interval(msec)	1000
# of Points	240
Start Time(min)	0.016
End Time(min)	3.999
Intensity Units	
Intensity Multiplier	1
R.Time (min)	Intensity
0.01617	56.81
0.03283	55.80
0.04950	58.21
0.06617	59.91
0.08283	58.54
0.09950	57.97
0.11617	58.00
0.13283	58.01
0.14950	58.01
0.16617	58.00
0.18283	58.00
0.19950	58.00
0.21617	58.00
0.23283	58.00
0.24950	58.00
0.26617	58.00
0.28283	58.00
0.29950	58.00
0.31617	58.00
0.33283	58.00
0.34950	58.00
0.36617	58.00
0.38283	58.00
0.39950	58.00
0.41617	58.00
0.43283	58.00
0.44950	58.00
0.46617	58.00
0.48283	58.00
0.49950	58.00
0.51617	58.00
0.53283	58.00
0.54950	58.00
0.56617	58.00
0.58283	58.00
0.59950	58.00
0.61617	58.00
0.63283	58.00
0.64950	58.00
0.66617	58.00
0.68283	58.00
0.69950	58.00
0.71617	58.00
0.73283	58.00
0.74950	58.00
0.76617	58.00
0.78283	58.00
0.79950	58.00
0.81617	58.00
0.83283	58.00
0.84950	58.00
0.86617	58.00
0.88283	58.00
0.89950	58.00
0.91617	58.00
0.93283	58.00
0.94950	58.00
0.96617	58.00
0.98283	58.00
0.99950	58.00
1.01617	58.00
1.03283	58.00
1.04950	58.00
1.06617	58.00
1.08283	58.00
1.09950	58.00
1.11617	58.00
1.13283	58.00
1.14950	58.00
1.16617	58.00
1.18283	58.00
1.19950	58.00
1.21617	58.00
1.23283	58.00
1.24950	58.00
1.26617	58.00
1.28283	58.00
1.29950	58.00
1.31617	58.00
1.33283	58.00
1.34950	58.00
1.36617	58.00
1.38283	58.00
1.39950	58.00
1.41617	58.00
1.43283	58.00
1.44950	58.00
1.46617	58.00
1.48283	58.00
1.49950	58.00
1.51617	58.00
1.53283	58.00
1.54950	58.00
1.56617	58.00
1.58283	58.00
1.59950	58.00
1.61617	58.00
1.63283	58.00
1.64950	58.00
1.66617	58.00
1.68283	58.01
1.69950	58.00
1.71617	58.00
1.73283	58.00
1.74950	58.00
1.76617	58.00
1.78283	58.00
1.79950	58.00
1.81617	58.00
1.83283	58.00
1.84950	58.00
1.86617	58.00
1.88283	58.00
1.89950	58.00
1.91617	58.00
1.93283	58.00
1.94950	58.00
1.96617	58.00
1.98283	58.00
1.99950	58.00
2.01617	58.00
2.03283	58.00
2.04950	58.00
2.06617	58.00
2.08283	58.00
2.09950	58.00
2.11617	58.00
2.13283	58.00
2.14950	58.00
2.16617	58.00
2.18283	58.00
2.19950	58.00
2.21617	58.00
2.23283	58.00
2.24950	58.00
2.26617	58.00
2.28283	58.00
2.29950	58.00
2.31617	58.00
2.33283	58.00
2.34950	58.00
2.36617	58.00
2.38283	57.99
2.39950	57.99
2.41617	58.00
2.43283	58.00
2.44950	58.00
2.46617	58.00
2.48283	58.00
2.49950	58.00
2.51617	57.99
2.53283	57.99
2.54950	58.00
2.56617	58.00
2.58283	58.00
2.59950	58.00
2.61617	58.00
2.63283	58.00
2.64950	58.00
2.66617	58.00
2.68283	58.00
2.69950	58.00
2.71617	58.00
2.73283	58.00
2.74950	58.00
2.76617	58.00
2.78283	58.00
2.79950	58.00
2.81617	58.00
2.83283	58.00
2.84950	58.00
2.86617	58.00
2.88283	58.00
2.89950	58.00
2.91617	58.00
2.93283	58.00
2.94950	58.00
2.96617	58.00
2.98283	58.00
2.99950	58.00
3.01617	58.00
3.03283	58.00
3.04950	58.00
3.06617	58.00
3.08283	58.00
3.09950	58.00
3.11617	58.00
3.13283	58.00
3.14950	58.00
3.16617	58.00
3.18283	58.00
3.19950	58.00
3.21617	58.00
3.23283	58.00
3.24950	58.00
3.26617	58.00
3.28283	58.00
3.29950	58.00
3.31617	58.00
3.33283	58.00
3.34950	58.00
3.36617	58.00
3.38283	58.00
3.39950	58.00
3.41617	58.00
3.43283	58.00
3.44950	58.00
3.46617	58.00
3.48283	58.00
3.49950	58.00
3.51617	58.00
3.53283	58.00
3.54950	58.00
3.56617	58.00
3.58283	58.00
3.59950	58.00
3.61617	58.00
3.63283	58.00
3.64950	58.00
3.66617	58.00
3.68283	58.00
3.69950	58.00
3.71617	58.00
3.73283	58.00
3.74950	58.00
3.76617	58.00
3.78283	58.00
3.79950	58.00
3.81617	58.00
3.83283	58.00
3.84950	58.00
3.86617	58.00
3.88283	58.00
3.89950	58.00
3.91617	58.00
3.93283	58.00
3.94950	58.00
3.96617	58.00
3.98283	58.00
3.99950	58.00

[Status Trace (Carrier Gas Flow)]
Interval(msec)	1000
# of Points	240
Start Time(min)	0.016
End Time(min)	3.999
Intensity Units	
Intensity Multiplier	1
R.Time (min)	Intensity
0.01617	33.79
0.03283	34.54
0.04950	34.55
0.06617	34.50
0.08283	34.51
0.09950	34.52
0.11617	34.52
0.13283	34.52
0.14950	34.52
0.16617	34.51
0.18283	34.51
0.19950	34.52
0.21617	34.53
0.23283	34.52
0.24950	34.52
0.26617	34.52
0.28283	34.52
0.29950	34.52
0.31617	34.52
0.33283	34.51
0.34950	34.52
0.36617	34.52
0.38283	34.53
0.39950	34.51
0.41617	34.52
0.43283	34.52
0.44950	34.51
0.46617	34.52
0.48283	34.52
0.49950	34.52
0.51617	34.52
0.53283	34.52
0.54950	34.52
0.56617	34.52
0.58283	34.52
0.59950	34.52
0.61617	34.52
0.63283	34.52
0.64950	34.52
0.66617	34.52
0.68283	34.52
0.69950	34.51
0.71617	34.52
0.73283	34.52
0.74950	34.52
0.76617	34.51
0.78283	34.52
0.79950	34.52
0.81617	34.51
0.83283	34.52
0.84950	34.52
0.86617	34.52
0.88283	34.52
0.89950	34.52
0.91617	34.52
0.93283	34.51
0.94950	34.51
0.96617	34.52
0.98283	34.53
0.99950	34.52
1.01617	34.52
1.03283	34.52
1.04950	34.51
1.06617	34.52
1.08283	34.52
1.09950	34.53
1.11617	34.52
1.13283	34.52
1.14950	34.52
1.16617	34.52
1.18283	34.52
1.19950	34.52
1.21617	34.52
1.23283	34.52
1.24950	34.52
1.26617	34.52
1.28283	34.52
1.29950	34.52
1.31617	34.52
1.33283	34.52
1.34950	34.52
1.36617	34.52
1.38283	34.52
1.39950	34.52
1.41617	34.52
1.43283	34.52
1.44950	34.52
1.46617	34.52
1.48283	34.52
1.49950	34.52
1.51617	34.52
1.53283	34.51
1.54950	34.52
1.56617	34.52
1.58283	34.52
1.59950	34.51
1.61617	34.52
1.63283	34.52
1.64950	34.52
1.66617	34.52
1.68283	34.52
1.69950	34.52
1.71617	34.52
1.73283	34.52
1.74950	34.52
1.76617	34.52
1.78283	34.51
1.79950	34.52
1.81617	34.52
1.83283	34.51
1.84950	34.52
1.86617	34.52
1.88283	34.52
1.89950	34.52
1.91617	34.52
1.93283	34.53
1.94950	34.53
1.96617	34.51
1.98283	34.52
1.99950	34.52
2.01617	34.52
2.03283	34.52
2.04950	34.52
2.06617	34.51
2.08283	34.53
2.09950	34.52
2.11617	34.52
2.13283	34.52
2.14950	34.52
2.16617	34.52
2.18283	34.52
2.19950	34.52
2.21617	34.52
2.23283	34.52
2.24950	34.52
2.26617	34.52
2.28283	34.52
2.29950	34.51
2.31617	34.52
2.33283	34.52
2.34950	34.51
2.36617	34.52
2.38283	34.52
2.39950	34.52
2.41617	34.52
2.43283	34.52
2.44950	34.52
2.46617	34.51
2.48283	34.52
2.49950	34.52
2.51617	34.52
2.53283	34.52
2.54950	34.52
2.56617	34.52
2.58283	34.52
2.59950	34.52
2.61617	34.52
2.63283	34.52
2.64950	34.52
2.66617	34.51
2.68283	34.52
2.69950	34.51
2.71617	34.52
2.73283	34.52
2.74950	34.52
2.76617	34.52
2.78283	34.52
2.79950	34.52
2.81617	34.52
2.83283	34.52
2.84950	34.52
2.86617	34.52
2.88283	34.52
2.89950	34.52
2.91617	34.52
2.93283	34.52
2.94950	34.52
2.96617	34.52
2.98283	34.52
2.99950	34.52
3.01617	34.52
3.03283	34.52
3.04950	34.52
3.06617	34.52
3.08283	34.52
3.09950	34.52
3.11617	34.52
3.13283	34.52
3.14950	34.52
3.16617	34.52
3.18283	34.52
3.19950	34.52
3.21617	34.52
3.23283	34.52
3.24950	34.52
3.26617	34.52
3.28283	34.52
3.29950	34.51
3.31617	34.52
3.33283	34.51
3.34950	34.52
3.36617	34.51
3.38283	34.52
3.39950	34.52
3.41617	34.52
3.43283	34.52
3.44950	34.52
3.46617	34.52
3.48283	34.52
3.49950	34.52
3.51617	34.52
3.53283	34.52
3.54950	34.52
3.56617	34.52
3.58283	34.52
3.59950	34.52
3.61617	34.52
3.63283	34.52
3.64950	34.52
3.66617	34.52
3.68283	34.52
3.69950	34.52
3.71617	34.52
3.73283	34.51
3.74950	34.52
3.76617	34.52
3.78283	34.52
3.79950	34.51
3.81617	34.52
3.83283	34.52
3.84950	34.52
3.86617	34.52
3.88283	34.52
3.89950	34.52
3.91617	34.52
3.93283	34.52
3.94950	34.52
3.96617	34.51
3.98283	34.52
3.99950	34.52

[Status Trace (Column Flow)]
Interval(msec)	1000
# of Points	240
Start Time(min)	0.016
End Time(min)	3.999
Intensity Units	
Intensity Multiplier	1
R.Time (min)	Intensity
0.01617	5.37
0.03283	5.26
0.04950	5.54
0.06617	5.73
0.08283	5.57
0.09950	5.51
0.11617	5.51
0.13283	5.51
0.14950	5.51
0.16617	5.51
0.18283	5.51
0.19950	5.51
0.21617	5.51
0.23283	5.51
0.24950	5.51
0.26617	5.51
0.28283	5.51
0.29950	5.51
0.31617	5.51
0.33283	5.51
0.34950	5.51
0.36617	5.51
0.38283	5.51
0.39950	5.51
0.41617	5.51
0.43283	5.51
0.44950	5.51
0.46617	5.51
0.48283	5.51
0.49950	5.51
0.51617	5.51
0.53283	5.51
0.54950	5.51
0.56617	5.51
0.58283	5.51
0.59950	5.51
0.61617	5.51
0.63283	5.51
0.64950	5.51
0.66617	5.51
0.68283	5.51
0.69950	5.51
0.71617	5.51
0.73283	5.51
0.74950	5.51
0.76617	5.51
0.78283	5.51
0.79950	5.51
0.81617	5.51
0.83283	5.51
0.84950	5.51
0.86617	5.51
0.88283	5.51
0.89950	5.51
0.91617	5.51
0.93283	5.51
0.94950	5.51
0.96617	5.51
0.98283	5.51
0.99950	5.51
1.01617	5.51
1.03283	5.51
1.04950	5.51
1.06617	5.51
1.08283	5.51
1.09950	5.51
1.11617	5.51
1.13283	5.51
1.14950	5.51
1.16617	5.51
1.18283	5.51
1.19950	5.51
1.21617	5.51
1.23283	5.51
1.24950	5.51
1.26617	5.51
1.28283	5.51
1.29950	5.51
1.31617	5.51
1.33283	5.51
1.34950	5.51
1.36617	5.51
1.38283	5.51
1.39950	5.51
1.41617	5.51
1.43283	5.51
1.44950	5.51
1.46617	5.51
1.48283	5.51
1.49950	5.51
1.51617	5.51
1.53283	5.51
1.54950	5.51
1.56617	5.51
1.58283	5.51
1.59950	5.51
1.61617	5.51
1.63283	5.51
1.64950	5.50
1.66617	5.49
1.68283	5.48
1.69950	5.47
1.71617	5.46
1.73283	5.45
1.74950	5.43
1.76617	5.42
1.78283	5.42
1.79950	5.40
1.81617	5.39
1.83283	5.39
1.84950	5.37
1.86617	5.36
1.88283	5.36
1.89950	5.34
1.91617	5.33
1.93283	5.33
1.94950	5.31
1.96617	5.30
1.98283	5.30
1.99950	5.29
2.01617	5.28
2.03283	5.27
2.04950	5.26
2.06617	5.25
2.08283	5.24
2.09950	5.23
2.11617	5.22
2.13283	5.21
2.14950	5.20
2.16617	5.19
2.18283	5.18
2.19950	5.17
2.21617	5.16
2.23283	5.16
2.24950	5.15
2.26617	5.14
2.28283	5.13
2.29950	5.12
2.31617	5.11
2.33283	5.10
2.34950	5.09
2.36617	5.08
2.38283	5.08
2.39950	5.08
2.41617	5.08
2.43283	5.08
2.44950	5.08
2.46617	5.08
2.48283	5.08
2.49950	5.08
2.51617	5.08
2.53283	5.08
2.54950	5.08
2.56617	5.08
2.58283	5.08
2.59950	5.08
2.61617	5.08
2.63283	5.08
2.64950	5.08
2.66617	5.08
2.68283	5.08
2.69950	5.07
2.71617	5.07
2.73283	5.07
2.74950	5.07
2.76617	5.08
2.78283	5.08
2.79950	5.07
2.81617	5.07
2.83283	5.07
2.84950	5.07
2.86617	5.07
2.88283	5.07
2.89950	5.07
2.91617	5.07
2.93283	5.07
2.94950	5.07
2.96617	5.07
2.98283	5.07
2.99950	5.07
3.01617	5.07
3.03283	5.07
3.04950	5.07
3.06617	5.07
3.08283	5.07
3.09950	5.07
3.11617	5.07
3.13283	5.07
3.14950	5.07
3.16617	5.07
3.18283	5.07
3.19950	5.07
3.21617	5.07
3.23283	5.07
3.24950	5.07
3.26617	5.07
3.28283	5.07
3.29950	5.07
3.31617	5.07
3.33283	5.07
3.34950	5.07
3.36617	5.07
3.38283	5.07
3.39950	5.07
3.41617	5.07
3.43283	5.07
3.44950	5.07
3.46617	5.07
3.48283	5.07
3.49950	5.07
3.51617	5.07
3.53283	5.07
3.54950	5.07
3.56617	5.07
3.58283	5.07
3.59950	5.07
3.61617	5.07
3.63283	5.07
3.64950	5.07
3.66617	5.07
3.68283	5.07
3.69950	5.07
3.71617	5.07
3.73283	5.07
3.74950	5.07
3.76617	5.07
3.78283	5.07
3.79950	5.07
3.81617	5.07
3.83283	5.07
3.84950	5.07
3.86617	5.07
3.88283	5.07
3.89950	5.07
3.91617	5.07
3.93283	5.07
3.94950	5.07
3.96617	5.07
3.98283	5.07
3.99950	5.07

[Status Trace (Linear Velocity)]
Interval(msec)	1000
# of Points	240
Start Time(min)	0.016
End Time(min)	3.999
Intensity Units	
Intensity Multiplier	1
R.Time (min)	Intensity
0.01617	38.23
0.03283	37.57
0.04950	39.14
0.06617	40.26
0.08283	39.36
0.09950	38.99
0.11617	39.01
0.13283	39.02
0.14950	39.01
0.16617	39.01
0.18283	39.01
0.19950	39.02
0.21617	39.01
0.23283	39.01
0.24950	39.01
0.26617	39.01
0.28283	39.01
0.29950	39.02
0.31617	39.02
0.33283	39.02
0.34950	39.02
0.36617	39.01
0.38283	39.01
0.39950	39.02
0.41617	39.02
0.43283	39.02
0.44950	39.02
0.46617	39.02
0.48283	39.02
0.49950	39.02
0.51617	39.02
0.53283	39.02
0.54950	39.01
0.56617	39.01
0.58283	39.01
0.59950	39.01
0.61617	39.01
0.63283	39.01
0.64950	39.02
0.66617	39.02
0.68283	39.02
0.69950	39.02
0.71617	39.02
0.73283	39.02
0.74950	39.01
0.76617	39.01
0.78283	39.01
0.79950	39.01
0.81617	39.01
0.83283	39.01
0.84950	39.01
0.86617	39.01
0.88283	39.01
0.89950	39.01
0.91617	39.01
0.93283	39.01
0.94950	39.01
0.96617	39.01
0.98283	39.01
0.99950	39.01
1.01617	39.01
1.03283	39.02
1.04950	39.02
1.06617	39.01
1.08283	39.02
1.09950	39.01
1.11617	39.01
1.13283	39.02
1.14950	39.02
1.16617	39.01
1.18283	39.01
1.19950	39.02
1.21617	39.01
1.23283	39.01
1.24950	39.01
1.26617	39.02
1.28283	39.02
1.29950	39.02
1.31617	39.02
1.33283	39.02
1.34950	39.02
1.36617	39.01
1.38283	39.02
1.39950	39.02
1.41617	39.02
1.43283	39.02
1.44950	39.02
1.46617	39.02
1.48283	39.02
1.49950	39.02
1.51617	39.02
1.53283	39.02
1.54950	39.02
1.56617	39.02
1.58283	39.02
1.59950	39.02
1.61617	39.01
1.63283	38.99
1.64950	38.97
1.66617	38.94
1.68283	38.91
1.69950	38.87
1.71617	38.84
1.73283	38.81
1.74950	38.77
1.76617	38.74
1.78283	38.72
1.79950	38.68
1.81617	38.65
1.83283	38.62
1.84950	38.59
1.86617	38.56
1.88283	38.53
1.89950	38.49
1.91617	38.46
1.93283	38.44
1.94950	38.40
1.96617	38.37
1.98283	38.34
1.99950	38.31
2.01617	38.28
2.03283	38.26
2.04950	38.22
2.06617	38.19
2.08283	38.17
2.09950	38.13
2.11617	38.10
2.13283	38.08
2.14950	38.04
2.16617	38.01
2.18283	37.99
2.19950	37.96
2.21617	37.93
2.23283	37.90
2.24950	37.87
2.26617	37.84
2.28283	37.81
2.29950	37.78
2.31617	37.75
2.33283	37.72
2.34950	37.69
2.36617	37.67
2.38283	37.66
2.39950	37.65
2.41617	37.66
2.43283	37.66
2.44950	37.66
2.46617	37.66
2.48283	37.65
2.49950	37.65
2.51617	37.65
2.53283	37.65
2.54950	37.65
2.56617	37.65
2.58283	37.65
2.59950	37.65
2.61617	37.65
2.63283	37.65
2.64950	37.65
2.66617	37.65
2.68283	37.65
2.69950	37.64
2.71617	37.64
2.73283	37.64
2.74950	37.64
2.76617	37.64
2.78283	37.65
2.79950	37.64
2.81617	37.64
2.83283	37.64
2.84950	37.64
2.86617	37.64
2.88283	37.64
2.89950	37.64
2.91617	37.64
2.93283	37.64
2.94950	37.63
2.96617	37.63
2.98283	37.63
2.99950	37.63
3.01617	37.63
3.03283	37.63
3.04950	37.63
3.06617	37.63
3.08283	37.63
3.09950	37.63
3.11617	37.63
3.13283	37.63
3.14950	37.63
3.16617	37.63
3.18283	37.63
3.19950	37.63
3.21617	37.63
3.23283	37.63
3.24950	37.63
3.26617	37.63
3.28283	37.63
3.29950	37.63
3.31617	37.63
3.33283	37.63
3.34950	37.62
3.36617	37.62
3.38283	37.62
3.39950	37.62
3.41617	37.62
3.43283	37.62
3.44950	37.62
3.46617	37.62
3.48283	37.62
3.49950	37.62
3.51617	37.63
3.53283	37.63
3.54950	37.63
3.56617	37.63
3.58283	37.63
3.59950	37.63
3.61617	37.63
3.63283	37.63
3.64950	37.63
3.66617	37.63
3.68283	37.63
3.69950	37.62
3.71617	37.63
3.73283	37.63
3.74950	37.63
3.76617	37.63
3.78283	37.63
3.79950	37.63
3.81617	37.63
3.83283	37.63
3.84950	37.62
3.86617	37.62
3.88283	37.62
3.89950	37.62
3.91617	37.62
3.93283	37.62
3.94950	37.62
3.96617	37.62
3.98283	37.62
3.99950	37.62

