[Header]
Application Name	LabSolutions
Version	5.110
Data File Name	C:\Users\User\Desktop\GC Analyses\Jack\Nachusa Grasslands Sampling\T2 Timepoint July 12th\T2_07122022_039.gcd
Output Date	3/14/2023
Output Time	3:42:32 PM

[File Information]
Type	Data File
Generated	3/10/2023 4:43:00 PM
Generated by	System Administrator
Modified	3/10/2023 4:49:37 PM
Modified by	System Administrator

[Sample Information]
Operator Name	System Administrator
Acquired	3/10/2023 4:45:37 PM
Sample Type	0:Unknown
Level	0
Sample Name	039
Sample ID	039
ISTD Amount1	1
ISTD Amount2	1
ISTD Amount3	1
ISTD Amount4	1
ISTD Amount5	1
ISTD Amount6	1
ISTD Amount7	1
ISTD Amount8	1
ISTD Amount9	1
ISTD Amount10	1
ISTD Amount11	1
ISTD Amount12	1
ISTD Amount13	1
ISTD Amount14	1
ISTD Amount15	1
ISTD Amount16	1
ISTD Amount17	1
ISTD Amount18	1
ISTD Amount19	1
ISTD Amount20	1
ISTD Amount21	1
ISTD Amount22	1
ISTD Amount23	1
ISTD Amount24	1
ISTD Amount25	1
ISTD Amount26	1
ISTD Amount27	1
ISTD Amount28	1
ISTD Amount29	1
ISTD Amount30	1
ISTD Amount31	1
ISTD Amount32	1
Sample Amount	1
Dilution Factor	1
Vial#	38
Injection Volume	1
Injection Count	1
Bar Code	

[Original Files]
Data File	C:\Users\User\Desktop\GC Analyses\Jack\Nachusa Grasslands Sampling\T1 Timepoint July 12th\T2_07122022_039.gcd
Method File	C:\LabSolutions\Data\GHG_4min_2022\ghg3_togas_w_acet_4 min_new_int.gcm
Batch File	C:\LabSolutions\Data\AutoSamplerTesting\T2_07122022.gcb
Report Format File	c:\LabSolutions\System\DEFAULT.lsr

[File Description]


[Configuration]
Instrument Name	C0B7VH3-Instrument1
Instrument #	1
Line #	1
# of Detectors	3
Detector ID	DET#1	DET#2	DET#3
Detector Name	FID	PTCD	ECD
# of Channels	1	1	1

[Peak Table(Ch1)]
# of Peaks	3
Peak#	R.Time	I.Time	F.Time	Area	Height	A/H	Conc.	Mark	ID#	Name	k'	Plate #	Plate Ht.	Tailing	Resolution	Sep.Factor	Area Ratio	Height Ratio	Conc. %	Norm Conc.
1	1.476	1.435	1.538	25965	12304	2.110	183.310	   	1	CO	0.000	9379	15.993	1.292	0.000	0.000	0	0	26.855	26.855
2	1.567	1.538	1.630	4380	2153	2.034	84.690	 V 	2	CH4	0.062	10609	14.139	0.000	1.505	0.000	0	0	12.407	12.407
3	1.996	1.949	2.495	1651953	789266	2.093	414.595	   	3	CO2	0.353	17373	8.634	1.277	7.065	5.680	0	0	60.738	60.738

[Peak Table(Ch2)]
# of Peaks	0

[Peak Table(Ch3)]
# of Peaks	6
Peak#	R.Time	I.Time	F.Time	Area	Height	A/H	Conc.	Mark	ID#	Name	k'	Plate #	Plate Ht.	Tailing	Resolution	Sep.Factor	Area Ratio	Height Ratio	Conc. %	Norm Conc.
1	2.462	2.436	2.513	1686	589	2.862	0.000	   			0.000	10765	13.934	0.000	0.000	0.000	0	0	0.000	0.000
2	2.535	2.513	2.634	1260	318	3.965	0.000	 V 			0.030	5154	29.106	0.000	0.621	0.000	0	0	0.000	0.000
3	2.660	2.634	2.697	191	71	2.678	0.000	 V 			0.080	10555	14.212	0.000	1.018	2.700	0	0	0.000	0.000
4	2.876	2.807	3.034	18955	5075	3.735	0.484	   	1	N2O	0.168	13348	11.237	1.604	2.130	2.093	0	0	100.000	100.000
5	3.195	3.078	3.206	258	79	3.284	0.000	   	2	SF6	0.298	20109	7.460	0.548	3.363	1.770	0	0	0.000	0.000
6	3.382	3.214	3.995	13740	518	26.549	0.000	   	2	SF6	0.374	336	446.123	2.267	0.452	1.255	0	0	0.000	0.000

[Compound Results(Ch1)]
# of IDs	6
ID#	Name	R.Time	Area	Height	Conc.	Curve	3rd	2nd	1st	Constant	Area Ratio	Height Ratio	Conc. %	Norm Conc.
1	CO	1.476	25965	12304	183.310	Linear	0.000000e+00	0.000000e+00	1.416423e+002	0.000000e+00	0	0	26.855	26.855
2	CH4	1.567	4380	2153	84.690	Linear	0.000000e+00	0.000000e+00	5.171738e+001	0.000000e+00	0	0	12.407	12.407
3	CO2	1.996	1651953	789266	414.595	Linear	0.000000e+00	0.000000e+00	3.984494e+003	0.000000e+00	0	0	60.738	60.738
4	Ethylene	0.000	0	0	0.000	Linear	0.000000e+00	0.000000e+00	0.000000e+00	0.000000e+00	0	0	0.000	0.000
5	Acetylene	0.000	0	0	0.000	Linear	0.000000e+00	0.000000e+00	0.000000e+00	0.000000e+00	0	0	0.000	0.000
6	Ethane	0.000	0	0	0.000	Linear	0.000000e+00	0.000000e+00	0.000000e+00	0.000000e+00	0	0	0.000	0.000

[Compound Results(Ch2)]
# of IDs	5
ID#	Name	R.Time	Area	Height	Conc.	Curve	3rd	2nd	1st	Constant	Area Ratio	Height Ratio	Conc. %	Norm Conc.
1	Hydrogen	0.000	0	0	0.000	Linear	0.000000e+00	0.000000e+00	0.000000e+00	0.000000e+00	0	0	0.000	0.000
2	Oxygen	0.000	0	0	0.000	Linear	0.000000e+00	0.000000e+00	0.000000e+00	0.000000e+00	0	0	0.000	0.000
3	Nitrogen	0.000	0	0	0.000	Linear	0.000000e+00	0.000000e+00	0.000000e+00	0.000000e+00	0	0	0.000	0.000
4	Methane	0.000	0	0	0.000	Linear	0.000000e+00	0.000000e+00	0.000000e+00	0.000000e+00	0	0	0.000	0.000
5	Carbon Monoxide	0.000	0	0	0.000	Linear	0.000000e+00	0.000000e+00	0.000000e+00	0.000000e+00	0	0	0.000	0.000

[Compound Results(Ch3)]
# of IDs	2
ID#	Name	R.Time	Area	Height	Conc.	Curve	3rd	2nd	1st	Constant	Area Ratio	Height Ratio	Conc. %	Norm Conc.
1	N2O	2.876	18955	5075	0.484	Linear	0.000000e+00	0.000000e+00	3.915173e+004	0.000000e+00	0	0	100.000	100.000
2	SF6	3.382	13998	596	0.000	Linear	0.000000e+00	0.000000e+00	0.000000e+00	0.000000e+00	0	0	0.000	0.000

[Group Results(Ch1)]
# of Groups	0

[Group Results(Ch2)]
# of Groups	0

[Group Results(Ch3)]
# of Groups	0

[Chromatogram (Ch1)]
Interval(msec)	220
# of Points	1091
Start Time(min)	0.002
End Time(min)	3.998
R.Time (min)	Intensity
0.00167	-10
0.00533	-9
0.00900	-4
0.01267	4
0.01633	8
0.02000	8
0.02367	6
0.02733	0
0.03100	-6
0.03467	-6
0.03833	1
0.04200	12
0.04567	23
0.04933	28
0.05300	28
0.05667	24
0.06033	15
0.06400	5
0.06767	-2
0.07133	-10
0.07500	-13
0.07867	-11
0.08233	-5
0.08600	1
0.08967	4
0.09333	8
0.09700	14
0.10067	26
0.10433	37
0.10800	36
0.11167	30
0.11533	26
0.11900	20
0.12267	10
0.12633	1
0.13000	-4
0.13367	-4
0.13733	-2
0.14100	2
0.14467	11
0.14833	19
0.15200	18
0.15567	13
0.15933	6
0.16300	0
0.16667	1
0.17033	3
0.17400	1
0.17767	-5
0.18133	-11
0.18500	-12
0.18867	-15
0.19233	-18
0.19600	-15
0.19967	-5
0.20333	6
0.20700	12
0.21067	15
0.21433	18
0.21800	23
0.22167	24
0.22533	20
0.22900	17
0.23267	19
0.23633	21
0.24000	22
0.24367	22
0.24733	27
0.25100	30
0.25467	29
0.25833	27
0.26200	28
0.26567	34
0.26933	40
0.27300	50
0.27667	64
0.28033	72
0.28400	72
0.28767	72
0.29133	73
0.29500	71
0.29867	66
0.30233	62
0.30600	60
0.30967	62
0.31333	68
0.31700	79
0.32067	94
0.32433	109
0.32800	116
0.33167	116
0.33533	111
0.33900	107
0.34267	102
0.34633	96
0.35000	88
0.35367	80
0.35733	75
0.36100	73
0.36467	69
0.36833	64
0.37200	58
0.37567	53
0.37933	47
0.38300	44
0.38667	45
0.39033	45
0.39400	39
0.39767	33
0.40133	31
0.40500	30
0.40867	27
0.41233	26
0.41600	25
0.41967	25
0.42333	27
0.42700	32
0.43067	34
0.43433	36
0.43800	39
0.44167	41
0.44533	36
0.44900	28
0.45267	20
0.45633	11
0.46000	5
0.46367	2
0.46733	-1
0.47100	-4
0.47467	-6
0.47833	-11
0.48200	-15
0.48567	-14
0.48933	-8
0.49300	-1
0.49667	4
0.50033	6
0.50400	2
0.50767	-6
0.51133	-15
0.51500	-22
0.51867	-29
0.52233	-37
0.52600	-42
0.52967	-45
0.53333	-45
0.53700	-42
0.54067	-41
0.54433	-42
0.54800	-40
0.55167	-37
0.55533	-33
0.55900	-24
0.56267	-13
0.56633	-10
0.57000	-14
0.57367	-18
0.57733	-19
0.58100	-15
0.58467	-6
0.58833	1
0.59200	5
0.59567	4
0.59933	-1
0.60300	-5
0.60667	-9
0.61033	-12
0.61400	-14
0.61767	-12
0.62133	-13
0.62500	-18
0.62867	-24
0.63233	-26
0.63600	-21
0.63967	-15
0.64333	-13
0.64700	-15
0.65067	-17
0.65433	-14
0.65800	-8
0.66167	0
0.66533	6
0.66900	7
0.67267	2
0.67633	-7
0.68000	-21
0.68367	-35
0.68733	-43
0.69100	-45
0.69467	-45
0.69833	-51
0.70200	-61
0.70567	-67
0.70933	-65
0.71300	-58
0.71667	-49
0.72033	-36
0.72400	-27
0.72767	-28
0.73133	-29
0.73500	-35
0.73867	-42
0.74233	-42
0.74600	-38
0.74967	-32
0.75333	-28
0.75700	-29
0.76067	-31
0.76433	-30
0.76800	-28
0.77167	-29
0.77533	-31
0.77900	-32
0.78267	-32
0.78633	-34
0.79000	-38
0.79367	-40
0.79733	-40
0.80100	-36
0.80467	-33
0.80833	-33
0.81200	-31
0.81567	-29
0.81933	-29
0.82300	-27
0.82667	-29
0.83033	-34
0.83400	-42
0.83767	-50
0.84133	-51
0.84500	-53
0.84867	-56
0.85233	-60
0.85600	-63
0.85967	-64
0.86333	-65
0.86700	-68
0.87067	-68
0.87433	-62
0.87800	-56
0.88167	-58
0.88533	-63
0.88900	-64
0.89267	-58
0.89633	-49
0.90000	-40
0.90367	-35
0.90733	-32
0.91100	-30
0.91467	-28
0.91833	-27
0.92200	-27
0.92567	-27
0.92933	-22
0.93300	-21
0.93667	-24
0.94033	-27
0.94400	-28
0.94767	-26
0.95133	-25
0.95500	-26
0.95867	-29
0.96233	-28
0.96600	-27
0.96967	-27
0.97333	-25
0.97700	-21
0.98067	-18
0.98433	-17
0.98800	-16
0.99167	-16
0.99533	-15
0.99900	-12
1.00267	-8
1.00633	-5
1.01000	-6
1.01367	-12
1.01733	-17
1.02100	-21
1.02467	-26
1.02833	-28
1.03200	-26
1.03567	-22
1.03933	-22
1.04300	-23
1.04667	-24
1.05033	-25
1.05400	-30
1.05767	-35
1.06133	-31
1.06500	-29
1.06867	-30
1.07233	-36
1.07600	-45
1.07967	-51
1.08333	-52
1.08700	-49
1.09067	-43
1.09433	-35
1.09800	-27
1.10167	-23
1.10533	-22
1.10900	-20
1.11267	-18
1.11633	-21
1.12000	-23
1.12367	-20
1.12733	-13
1.13100	-9
1.13467	-6
1.13833	-8
1.14200	-16
1.14567	-26
1.14933	-33
1.15300	-34
1.15667	-26
1.16033	-20
1.16400	-17
1.16767	-18
1.17133	-20
1.17500	-23
1.17867	-29
1.18233	-37
1.18600	-47
1.18967	-56
1.19333	-63
1.19700	-63
1.20067	-58
1.20433	-44
1.20800	-29
1.21167	-23
1.21533	-21
1.21900	-27
1.22267	-35
1.22633	-44
1.23000	-52
1.23367	-56
1.23733	-53
1.24100	-42
1.24467	-33
1.24833	-30
1.25200	-30
1.25567	-32
1.25933	-33
1.26300	-31
1.26667	-28
1.27033	-29
1.27400	-35
1.27767	-41
1.28133	-45
1.28500	-44
1.28867	-42
1.29233	-44
1.29600	-45
1.29967	-47
1.30333	-49
1.30700	-55
1.31067	-59
1.31433	-60
1.31800	-59
1.32167	-59
1.32533	-58
1.32900	-56
1.33267	-51
1.33633	-47
1.34000	-41
1.34367	-35
1.34733	-30
1.35100	-25
1.35467	-24
1.35833	-27
1.36200	-32
1.36567	-39
1.36933	-50
1.37300	-61
1.37667	-67
1.38033	-65
1.38400	-61
1.38767	-61
1.39133	-65
1.39500	-67
1.39867	-65
1.40233	-61
1.40600	-61
1.40967	-62
1.41333	-60
1.41700	-59
1.42067	-58
1.42433	-58
1.42800	-59
1.43167	-59
1.43533	-49
1.43900	-14
1.44267	96
1.44633	337
1.45000	910
1.45367	2196
1.45733	4240
1.46100	6619
1.46467	8845
1.46833	10625
1.47200	11806
1.47567	12264
1.47933	11914
1.48300	10789
1.48667	9120
1.49033	7263
1.49400	5522
1.49767	4066
1.50133	2936
1.50500	2101
1.50867	1502
1.51233	1081
1.51600	790
1.51967	590
1.52333	452
1.52700	351
1.53067	274
1.53433	220
1.53800	202
1.54167	252
1.54533	418
1.54900	722
1.55267	1111
1.55633	1495
1.56000	1812
1.56367	2033
1.56733	2134
1.57100	2089
1.57467	1892
1.57833	1580
1.58200	1223
1.58567	888
1.58933	619
1.59300	417
1.59667	271
1.60033	171
1.60400	105
1.60767	65
1.61133	44
1.61500	32
1.61867	23
1.62233	12
1.62600	2
1.62967	-6
1.63333	-10
1.63700	-13
1.64067	-17
1.64433	-22
1.64800	-28
1.65167	-36
1.65533	-44
1.65900	-49
1.66267	-46
1.66633	-38
1.67000	-29
1.67367	-22
1.67733	-17
1.68100	-15
1.68467	-20
1.68833	-27
1.69200	-32
1.69567	-40
1.69933	-52
1.70300	-66
1.70667	-76
1.71033	-77
1.71400	-74
1.71767	-76
1.72133	-79
1.72500	-84
1.72867	-86
1.73233	-85
1.73600	-85
1.73967	-86
1.74333	-85
1.74700	-81
1.75067	-77
1.75433	-73
1.75800	-68
1.76167	-61
1.76533	-53
1.76900	-49
1.77267	-47
1.77633	-44
1.78000	-40
1.78367	-36
1.78733	-35
1.79100	-37
1.79467	-42
1.79833	-48
1.80200	-49
1.80567	-45
1.80933	-43
1.81300	-45
1.81667	-43
1.82033	-37
1.82400	-32
1.82767	-34
1.83133	-42
1.83500	-50
1.83867	-50
1.84233	-47
1.84600	-46
1.84967	-50
1.85333	-53
1.85700	-53
1.86067	-50
1.86433	-46
1.86800	-43
1.87167	-43
1.87533	-44
1.87900	-43
1.88267	-40
1.88633	-37
1.89000	-37
1.89367	-39
1.89733	-40
1.90100	-43
1.90467	-46
1.90833	-48
1.91200	-49
1.91567	-49
1.91933	-45
1.92300	-43
1.92667	-43
1.93033	-45
1.93400	-45
1.93767	-45
1.94133	-46
1.94500	-46
1.94867	-44
1.95233	-23
1.95600	136
1.95967	1048
1.96333	5092
1.96700	18734
1.97067	54089
1.97433	125313
1.97800	238146
1.98167	381759
1.98533	532055
1.98900	662584
1.99267	752560
1.99633	789256
2.00000	768971
2.00367	698463
2.00733	593995
2.01100	476127
2.01467	363064
2.01833	266273
2.02200	190008
2.02567	133397
2.02933	93096
2.03300	65197
2.03667	46208
2.04033	33386
2.04400	24732
2.04767	18857
2.05133	14817
2.05500	11994
2.05867	9981
2.06233	8507
2.06600	7404
2.06967	6555
2.07333	5886
2.07700	5340
2.08067	4886
2.08433	4505
2.08800	4176
2.09167	3884
2.09533	3629
2.09900	3405
2.10267	3210
2.10633	3039
2.11000	2885
2.11367	2745
2.11733	2622
2.12100	2512
2.12467	2410
2.12833	2315
2.13200	2226
2.13567	2141
2.13933	2058
2.14300	1979
2.14667	1905
2.15033	1831
2.15400	1762
2.15767	1698
2.16133	1633
2.16500	1573
2.16867	1524
2.17233	1483
2.17600	1446
2.17967	1414
2.18333	1375
2.18700	1326
2.19067	1278
2.19433	1239
2.19800	1207
2.20167	1180
2.20533	1154
2.20900	1128
2.21267	1101
2.21633	1077
2.22000	1054
2.22367	1033
2.22733	1010
2.23100	988
2.23467	963
2.23833	942
2.24200	925
2.24567	905
2.24933	885
2.25300	865
2.25667	843
2.26033	820
2.26400	799
2.26767	784
2.27133	773
2.27500	760
2.27867	747
2.28233	732
2.28600	715
2.28967	705
2.29333	697
2.29700	686
2.30067	676
2.30433	668
2.30800	657
2.31167	644
2.31533	634
2.31900	625
2.32267	620
2.32633	617
2.33000	613
2.33367	606
2.33733	596
2.34100	589
2.34467	580
2.34833	564
2.35200	545
2.35567	531
2.35933	526
2.36300	526
2.36667	525
2.37033	522
2.37400	519
2.37767	513
2.38133	507
2.38500	500
2.38867	494
2.39233	487
2.39600	477
2.39967	469
2.40333	466
2.40700	464
2.41067	457
2.41433	443
2.41800	430
2.42167	424
2.42533	426
2.42900	434
2.43267	443
2.43633	448
2.44000	446
2.44367	439
2.44733	429
2.45100	421
2.45467	414
2.45833	410
2.46200	407
2.46567	398
2.46933	391
2.47300	387
2.47667	381
2.48033	379
2.48400	376
2.48767	367
2.49133	354
2.49500	341
2.49867	330
2.50233	328
2.50600	330
2.50967	334
2.51333	341
2.51700	352
2.52067	360
2.52433	361
2.52800	359
2.53167	353
2.53533	346
2.53900	345
2.54267	347
2.54633	349
2.55000	350
2.55367	351
2.55733	349
2.56100	347
2.56467	345
2.56833	340
2.57200	330
2.57567	320
2.57933	312
2.58300	309
2.58667	308
2.59033	309
2.59400	312
2.59767	315
2.60133	316
2.60500	313
2.60867	306
2.61233	301
2.61600	298
2.61967	298
2.62333	302
2.62700	309
2.63067	312
2.63433	313
2.63800	313
2.64167	311
2.64533	311
2.64900	317
2.65267	321
2.65633	325
2.66000	323
2.66367	315
2.66733	308
2.67100	302
2.67467	297
2.67833	297
2.68200	301
2.68567	299
2.68933	290
2.69300	283
2.69667	278
2.70033	274
2.70400	271
2.70767	270
2.71133	272
2.71500	276
2.71867	279
2.72233	282
2.72600	284
2.72967	282
2.73333	283
2.73700	287
2.74067	293
2.74433	296
2.74800	297
2.75167	298
2.75533	299
2.75900	298
2.76267	294
2.76633	285
2.77000	277
2.77367	271
2.77733	266
2.78100	263
2.78467	260
2.78833	258
2.79200	256
2.79567	256
2.79933	259
2.80300	264
2.80667	272
2.81033	278
2.81400	283
2.81767	286
2.82133	287
2.82500	284
2.82867	279
2.83233	275
2.83600	274
2.83967	278
2.84333	281
2.84700	282
2.85067	286
2.85433	287
2.85800	286
2.86167	286
2.86533	285
2.86900	288
2.87267	292
2.87633	296
2.88000	297
2.88367	300
2.88733	300
2.89100	296
2.89467	287
2.89833	281
2.90200	276
2.90567	273
2.90933	275
2.91300	273
2.91667	271
2.92033	267
2.92400	265
2.92767	268
2.93133	273
2.93500	273
2.93867	267
2.94233	262
2.94600	260
2.94967	263
2.95333	271
2.95700	280
2.96067	284
2.96433	284
2.96800	282
2.97167	283
2.97533	286
2.97900	287
2.98267	286
2.98633	283
2.99000	278
2.99367	274
2.99733	274
3.00100	272
3.00467	267
3.00833	264
3.01200	263
3.01567	264
3.01933	269
3.02300	274
3.02667	279
3.03033	282
3.03400	287
3.03767	292
3.04133	293
3.04500	291
3.04867	283
3.05233	272
3.05600	264
3.05967	262
3.06333	265
3.06700	266
3.07067	263
3.07433	258
3.07800	254
3.08167	249
3.08533	245
3.08900	241
3.09267	234
3.09633	233
3.10000	236
3.10367	241
3.10733	247
3.11100	251
3.11467	253
3.11833	254
3.12200	258
3.12567	264
3.12933	269
3.13300	269
3.13667	268
3.14033	266
3.14400	264
3.14767	260
3.15133	253
3.15500	249
3.15867	251
3.16233	258
3.16600	263
3.16967	267
3.17333	269
3.17700	269
3.18067	266
3.18433	261
3.18800	254
3.19167	250
3.19533	247
3.19900	246
3.20267	245
3.20633	245
3.21000	246
3.21367	248
3.21733	247
3.22100	240
3.22467	231
3.22833	220
3.23200	213
3.23567	212
3.23933	213
3.24300	214
3.24667	214
3.25033	216
3.25400	222
3.25767	233
3.26133	245
3.26500	252
3.26867	250
3.27233	241
3.27600	233
3.27967	231
3.28333	236
3.28700	243
3.29067	249
3.29433	249
3.29800	246
3.30167	244
3.30533	241
3.30900	236
3.31267	232
3.31633	229
3.32000	229
3.32367	230
3.32733	232
3.33100	235
3.33467	236
3.33833	240
3.34200	246
3.34567	249
3.34933	247
3.35300	241
3.35667	234
3.36033	229
3.36400	224
3.36767	221
3.37133	220
3.37500	220
3.37867	224
3.38233	231
3.38600	238
3.38967	240
3.39333	238
3.39700	235
3.40067	226
3.40433	217
3.40800	213
3.41167	210
3.41533	207
3.41900	205
3.42267	204
3.42633	202
3.43000	203
3.43367	204
3.43733	202
3.44100	201
3.44467	205
3.44833	209
3.45200	208
3.45567	205
3.45933	203
3.46300	202
3.46667	199
3.47033	199
3.47400	201
3.47767	202
3.48133	203
3.48500	207
3.48867	209
3.49233	205
3.49600	195
3.49967	188
3.50333	183
3.50700	181
3.51067	181
3.51433	185
3.51800	188
3.52167	191
3.52533	192
3.52900	194
3.53267	198
3.53633	198
3.54000	197
3.54367	196
3.54733	199
3.55100	200
3.55467	195
3.55833	187
3.56200	184
3.56567	182
3.56933	179
3.57300	182
3.57667	185
3.58033	183
3.58400	174
3.58767	170
3.59133	175
3.59500	184
3.59867	188
3.60233	188
3.60600	184
3.60967	178
3.61333	169
3.61700	165
3.62067	167
3.62433	174
3.62800	181
3.63167	186
3.63533	189
3.63900	193
3.64267	193
3.64633	189
3.65000	181
3.65367	174
3.65733	170
3.66100	173
3.66467	182
3.66833	188
3.67200	190
3.67567	187
3.67933	182
3.68300	175
3.68667	170
3.69033	169
3.69400	169
3.69767	168
3.70133	168
3.70500	172
3.70867	173
3.71233	169
3.71600	167
3.71967	172
3.72333	178
3.72700	178
3.73067	174
3.73433	168
3.73800	160
3.74167	153
3.74533	146
3.74900	137
3.75267	130
3.75633	125
3.76000	123
3.76367	123
3.76733	128
3.77100	133
3.77467	135
3.77833	136
3.78200	137
3.78567	139
3.78933	139
3.79300	135
3.79667	130
3.80033	129
3.80400	131
3.80767	138
3.81133	145
3.81500	147
3.81867	147
3.82233	146
3.82600	144
3.82967	142
3.83333	142
3.83700	145
3.84067	147
3.84433	148
3.84800	148
3.85167	147
3.85533	150
3.85900	156
3.86267	159
3.86633	161
3.87000	158
3.87367	152
3.87733	144
3.88100	136
3.88467	130
3.88833	125
3.89200	122
3.89567	126
3.89933	132
3.90300	140
3.90667	148
3.91033	149
3.91400	146
3.91767	142
3.92133	133
3.92500	123
3.92867	114
3.93233	107
3.93600	103
3.93967	106
3.94333	109
3.94700	108
3.95067	105
3.95433	103
3.95800	105
3.96167	109
3.96533	110
3.96900	109
3.97267	108
3.97633	108
3.98000	110
3.98367	114
3.98733	118
3.99100	123
3.99467	124
3.99833	124

[Chromatogram (Ch2)]
Interval(msec)	220
# of Points	1091
Start Time(min)	0.002
End Time(min)	3.998
R.Time (min)	Intensity
0.00167	1
0.00533	1
0.00900	1
0.01267	1
0.01633	2
0.02000	2
0.02367	2
0.02733	2
0.03100	2
0.03467	2
0.03833	2
0.04200	2
0.04567	2
0.04933	2
0.05300	2
0.05667	2
0.06033	2
0.06400	1
0.06767	1
0.07133	1
0.07500	1
0.07867	1
0.08233	1
0.08600	1
0.08967	1
0.09333	2
0.09700	2
0.10067	2
0.10433	3
0.10800	3
0.11167	4
0.11533	4
0.11900	4
0.12267	4
0.12633	4
0.13000	4
0.13367	4
0.13733	4
0.14100	3
0.14467	3
0.14833	3
0.15200	3
0.15567	3
0.15933	3
0.16300	3
0.16667	2
0.17033	2
0.17400	2
0.17767	2
0.18133	2
0.18500	1
0.18867	1
0.19233	1
0.19600	0
0.19967	-0
0.20333	-1
0.20700	-1
0.21067	-1
0.21433	-2
0.21800	-2
0.22167	-2
0.22533	-2
0.22900	-2
0.23267	-2
0.23633	-2
0.24000	-2
0.24367	-2
0.24733	-2
0.25100	-1
0.25467	-1
0.25833	-1
0.26200	-1
0.26567	-1
0.26933	-1
0.27300	-1
0.27667	-1
0.28033	-0
0.28400	0
0.28767	0
0.29133	0
0.29500	0
0.29867	0
0.30233	-0
0.30600	-1
0.30967	-1
0.31333	-2
0.31700	-2
0.32067	-2
0.32433	-3
0.32800	-3
0.33167	-4
0.33533	-4
0.33900	-5
0.34267	-5
0.34633	-6
0.35000	-6
0.35367	-6
0.35733	-6
0.36100	-5
0.36467	-5
0.36833	-5
0.37200	-5
0.37567	-5
0.37933	-4
0.38300	-4
0.38667	-3
0.39033	-3
0.39400	-2
0.39767	-2
0.40133	-1
0.40500	-1
0.40867	-1
0.41233	-0
0.41600	-0
0.41967	0
0.42333	0
0.42700	-0
0.43067	-0
0.43433	-0
0.43800	-0
0.44167	-0
0.44533	-0
0.44900	-0
0.45267	-0
0.45633	-0
0.46000	-0
0.46367	-1
0.46733	-1
0.47100	-1
0.47467	-0
0.47833	-0
0.48200	0
0.48567	0
0.48933	1
0.49300	1
0.49667	1
0.50033	1
0.50400	1
0.50767	1
0.51133	1
0.51500	1
0.51867	1
0.52233	1
0.52600	1
0.52967	1
0.53333	1
0.53700	1
0.54067	1
0.54433	1
0.54800	1
0.55167	1
0.55533	1
0.55900	1
0.56267	1
0.56633	1
0.57000	1
0.57367	1
0.57733	1
0.58100	1
0.58467	1
0.58833	1
0.59200	1
0.59567	1
0.59933	1
0.60300	1
0.60667	1
0.61033	1
0.61400	1
0.61767	1
0.62133	1
0.62500	0
0.62867	0
0.63233	0
0.63600	-0
0.63967	-0
0.64333	-1
0.64700	-1
0.65067	-1
0.65433	-1
0.65800	-1
0.66167	-1
0.66533	-0
0.66900	-0
0.67267	-1
0.67633	-1
0.68000	-1
0.68367	-1
0.68733	-2
0.69100	-2
0.69467	-2
0.69833	-2
0.70200	-2
0.70567	-3
0.70933	-3
0.71300	-3
0.71667	-3
0.72033	-3
0.72400	-3
0.72767	-3
0.73133	-3
0.73500	-3
0.73867	-2
0.74233	-2
0.74600	-2
0.74967	-2
0.75333	-2
0.75700	-3
0.76067	-3
0.76433	-3
0.76800	-3
0.77167	-3
0.77533	-3
0.77900	-3
0.78267	-3
0.78633	-3
0.79000	-2
0.79367	-2
0.79733	-2
0.80100	-2
0.80467	-1
0.80833	-1
0.81200	-1
0.81567	-1
0.81933	-1
0.82300	-1
0.82667	-1
0.83033	-1
0.83400	-2
0.83767	-2
0.84133	-2
0.84500	-2
0.84867	-2
0.85233	-2
0.85600	-1
0.85967	-1
0.86333	-1
0.86700	-2
0.87067	-2
0.87433	-2
0.87800	-2
0.88167	-2
0.88533	-1
0.88900	-1
0.89267	-1
0.89633	-1
0.90000	-1
0.90367	-1
0.90733	-1
0.91100	-0
0.91467	-0
0.91833	0
0.92200	0
0.92567	0
0.92933	0
0.93300	0
0.93667	0
0.94033	-0
0.94400	-1
0.94767	-1
0.95133	-2
0.95500	-2
0.95867	-2
0.96233	-1
0.96600	-1
0.96967	-1
0.97333	-1
0.97700	-1
0.98067	-2
0.98433	-2
0.98800	-2
0.99167	-3
0.99533	-3
0.99900	-3
1.00267	-3
1.00633	-3
1.01000	-3
1.01367	-3
1.01733	-4
1.02100	-4
1.02467	-3
1.02833	-3
1.03200	-3
1.03567	-4
1.03933	-4
1.04300	-3
1.04667	-3
1.05033	-3
1.05400	-3
1.05767	-3
1.06133	-3
1.06500	-2
1.06867	-2
1.07233	-2
1.07600	-2
1.07967	-2
1.08333	-2
1.08700	-2
1.09067	-2
1.09433	-2
1.09800	-2
1.10167	-2
1.10533	-2
1.10900	-2
1.11267	-2
1.11633	-2
1.12000	-1
1.12367	-1
1.12733	-1
1.13100	-0
1.13467	-0
1.13833	0
1.14200	1
1.14567	1
1.14933	1
1.15300	1
1.15667	0
1.16033	-0
1.16400	-0
1.16767	-0
1.17133	-1
1.17500	-0
1.17867	-0
1.18233	-0
1.18600	-0
1.18967	-0
1.19333	-0
1.19700	-0
1.20067	-0
1.20433	-1
1.20800	-1
1.21167	-1
1.21533	-2
1.21900	-2
1.22267	-3
1.22633	-3
1.23000	-4
1.23367	-4
1.23733	-4
1.24100	-4
1.24467	-3
1.24833	-3
1.25200	-3
1.25567	-3
1.25933	-3
1.26300	-2
1.26667	-2
1.27033	-2
1.27400	-2
1.27767	-2
1.28133	-2
1.28500	-2
1.28867	-2
1.29233	-2
1.29600	-2
1.29967	-2
1.30333	-2
1.30700	-2
1.31067	-2
1.31433	-1
1.31800	-1
1.32167	-1
1.32533	-1
1.32900	-1
1.33267	-1
1.33633	-0
1.34000	-0
1.34367	-1
1.34733	-1
1.35100	-1
1.35467	-1
1.35833	-1
1.36200	-0
1.36567	-1
1.36933	-1
1.37300	-1
1.37667	-1
1.38033	-1
1.38400	-1
1.38767	-0
1.39133	-0
1.39500	-0
1.39867	-0
1.40233	-0
1.40600	-0
1.40967	-1
1.41333	-1
1.41700	-1
1.42067	-2
1.42433	-2
1.42800	-2
1.43167	-2
1.43533	-2
1.43900	-2
1.44267	-2
1.44633	-2
1.45000	-1
1.45367	-1
1.45733	-1
1.46100	-1
1.46467	-1
1.46833	-1
1.47200	-1
1.47567	-1
1.47933	-1
1.48300	-1
1.48667	-1
1.49033	-1
1.49400	-2
1.49767	-2
1.50133	-2
1.50500	-3
1.50867	-3
1.51233	-4
1.51600	-4
1.51967	-5
1.52333	-5
1.52700	-5
1.53067	-6
1.53433	-6
1.53800	-6
1.54167	-6
1.54533	-6
1.54900	-6
1.55267	-6
1.55633	-6
1.56000	-5
1.56367	-5
1.56733	-5
1.57100	-4
1.57467	-4
1.57833	-4
1.58200	-3
1.58567	-3
1.58933	-3
1.59300	-3
1.59667	-3
1.60033	-4
1.60400	-5
1.60767	-6
1.61133	-8
1.61500	-10
1.61867	-13
1.62233	-15
1.62600	-19
1.62967	-22
1.63333	-26
1.63700	-29
1.64067	-33
1.64433	-37
1.64800	-41
1.65167	-45
1.65533	-48
1.65900	-52
1.66267	-55
1.66633	-59
1.67000	-62
1.67367	-66
1.67733	-70
1.68100	-74
1.68467	-79
1.68833	-83
1.69200	-87
1.69567	-90
1.69933	-94
1.70300	-96
1.70667	-99
1.71033	-100
1.71400	-102
1.71767	-103
1.72133	-104
1.72500	-105
1.72867	-106
1.73233	-107
1.73600	-108
1.73967	-109
1.74333	-109
1.74700	-110
1.75067	-110
1.75433	-110
1.75800	-109
1.76167	-109
1.76533	-109
1.76900	-109
1.77267	-109
1.77633	-109
1.78000	-109
1.78367	-110
1.78733	-110
1.79100	-111
1.79467	-112
1.79833	-113
1.80200	-113
1.80567	-114
1.80933	-114
1.81300	-115
1.81667	-115
1.82033	-114
1.82400	-113
1.82767	-112
1.83133	-111
1.83500	-111
1.83867	-111
1.84233	-111
1.84600	-111
1.84967	-111
1.85333	-112
1.85700	-112
1.86067	-113
1.86433	-113
1.86800	-113
1.87167	-113
1.87533	-114
1.87900	-114
1.88267	-114
1.88633	-114
1.89000	-114
1.89367	-114
1.89733	-114
1.90100	-113
1.90467	-113
1.90833	-112
1.91200	-112
1.91567	-112
1.91933	-112
1.92300	-112
1.92667	-112
1.93033	-111
1.93400	-111
1.93767	-110
1.94133	-110
1.94500	-111
1.94867	-111
1.95233	-111
1.95600	-111
1.95967	-111
1.96333	-110
1.96700	-110
1.97067	-110
1.97433	-109
1.97800	-109
1.98167	-109
1.98533	-108
1.98900	-109
1.99267	-109
1.99633	-109
2.00000	-109
2.00367	-109
2.00733	-109
2.01100	-108
2.01467	-107
2.01833	-106
2.02200	-106
2.02567	-105
2.02933	-105
2.03300	-104
2.03667	-104
2.04033	-104
2.04400	-104
2.04767	-103
2.05133	-103
2.05500	-102
2.05867	-101
2.06233	-101
2.06600	-100
2.06967	-100
2.07333	-100
2.07700	-100
2.08067	-100
2.08433	-100
2.08800	-100
2.09167	-101
2.09533	-101
2.09900	-100
2.10267	-100
2.10633	-100
2.11000	-99
2.11367	-99
2.11733	-99
2.12100	-98
2.12467	-98
2.12833	-98
2.13200	-97
2.13567	-97
2.13933	-96
2.14300	-95
2.14667	-95
2.15033	-94
2.15400	-94
2.15767	-94
2.16133	-94
2.16500	-93
2.16867	-93
2.17233	-93
2.17600	-92
2.17967	-92
2.18333	-91
2.18700	-91
2.19067	-90
2.19433	-89
2.19800	-89
2.20167	-89
2.20533	-89
2.20900	-89
2.21267	-89
2.21633	-90
2.22000	-90
2.22367	-90
2.22733	-90
2.23100	-89
2.23467	-89
2.23833	-88
2.24200	-88
2.24567	-87
2.24933	-86
2.25300	-85
2.25667	-84
2.26033	-84
2.26400	-83
2.26767	-83
2.27133	-82
2.27500	-82
2.27867	-82
2.28233	-81
2.28600	-81
2.28967	-80
2.29333	-80
2.29700	-80
2.30067	-80
2.30433	-79
2.30800	-79
2.31167	-79
2.31533	-80
2.31900	-81
2.32267	-81
2.32633	-82
2.33000	-82
2.33367	-82
2.33733	-81
2.34100	-81
2.34467	-80
2.34833	-79
2.35200	-78
2.35567	-76
2.35933	-74
2.36300	-72
2.36667	-70
2.37033	-67
2.37400	-64
2.37767	-61
2.38133	-57
2.38500	-53
2.38867	-49
2.39233	-45
2.39600	-40
2.39967	-36
2.40333	-31
2.40700	-27
2.41067	-24
2.41433	-20
2.41800	-18
2.42167	-15
2.42533	-13
2.42900	-12
2.43267	-10
2.43633	-10
2.44000	-9
2.44367	-9
2.44733	-8
2.45100	-7
2.45467	-7
2.45833	-6
2.46200	-5
2.46567	-4
2.46933	-3
2.47300	-2
2.47667	-1
2.48033	0
2.48400	2
2.48767	3
2.49133	3
2.49500	4
2.49867	5
2.50233	6
2.50600	7
2.50967	8
2.51333	9
2.51700	9
2.52067	10
2.52433	10
2.52800	11
2.53167	11
2.53533	12
2.53900	12
2.54267	12
2.54633	13
2.55000	13
2.55367	13
2.55733	14
2.56100	14
2.56467	15
2.56833	15
2.57200	15
2.57567	16
2.57933	16
2.58300	16
2.58667	16
2.59033	16
2.59400	16
2.59767	16
2.60133	16
2.60500	15
2.60867	15
2.61233	15
2.61600	15
2.61967	15
2.62333	15
2.62700	15
2.63067	15
2.63433	15
2.63800	15
2.64167	14
2.64533	14
2.64900	14
2.65267	15
2.65633	15
2.66000	16
2.66367	16
2.66733	17
2.67100	18
2.67467	18
2.67833	19
2.68200	19
2.68567	19
2.68933	19
2.69300	19
2.69667	20
2.70033	20
2.70400	21
2.70767	21
2.71133	21
2.71500	22
2.71867	22
2.72233	22
2.72600	22
2.72967	22
2.73333	22
2.73700	22
2.74067	23
2.74433	23
2.74800	23
2.75167	24
2.75533	24
2.75900	25
2.76267	25
2.76633	26
2.77000	26
2.77367	27
2.77733	27
2.78100	27
2.78467	27
2.78833	27
2.79200	27
2.79567	27
2.79933	27
2.80300	27
2.80667	27
2.81033	27
2.81400	27
2.81767	27
2.82133	27
2.82500	27
2.82867	28
2.83233	28
2.83600	27
2.83967	26
2.84333	24
2.84700	20
2.85067	14
2.85433	5
2.85800	-7
2.86167	-24
2.86533	-44
2.86900	-69
2.87267	-98
2.87633	-132
2.88000	-169
2.88367	-211
2.88733	-256
2.89100	-305
2.89467	-356
2.89833	-408
2.90200	-463
2.90567	-518
2.90933	-574
2.91300	-630
2.91667	-685
2.92033	-740
2.92400	-792
2.92767	-844
2.93133	-896
2.93500	-952
2.93867	-1011
2.94233	-1063
2.94600	-1099
2.94967	-1109
2.95333	-1094
2.95700	-1055
2.96067	-997
2.96433	-926
2.96800	-847
2.97167	-765
2.97533	-684
2.97900	-606
2.98267	-533
2.98633	-466
2.99000	-404
2.99367	-349
2.99733	-300
3.00100	-256
3.00467	-219
3.00833	-185
3.01200	-157
3.01567	-132
3.01933	-110
3.02300	-92
3.02667	-76
3.03033	-63
3.03400	-51
3.03767	-42
3.04133	-33
3.04500	-26
3.04867	-20
3.05233	-15
3.05600	-11
3.05967	-7
3.06333	-4
3.06700	-2
3.07067	1
3.07433	3
3.07800	4
3.08167	6
3.08533	7
3.08900	8
3.09267	9
3.09633	10
3.10000	11
3.10367	12
3.10733	13
3.11100	14
3.11467	14
3.11833	15
3.12200	15
3.12567	16
3.12933	17
3.13300	17
3.13667	17
3.14033	18
3.14400	18
3.14767	19
3.15133	19
3.15500	19
3.15867	20
3.16233	20
3.16600	20
3.16967	20
3.17333	21
3.17700	21
3.18067	21
3.18433	21
3.18800	21
3.19167	21
3.19533	21
3.19900	21
3.20267	21
3.20633	21
3.21000	21
3.21367	21
3.21733	21
3.22100	21
3.22467	21
3.22833	21
3.23200	21
3.23567	20
3.23933	21
3.24300	21
3.24667	21
3.25033	22
3.25400	22
3.25767	23
3.26133	23
3.26500	23
3.26867	24
3.27233	24
3.27600	24
3.27967	24
3.28333	24
3.28700	24
3.29067	24
3.29433	24
3.29800	25
3.30167	25
3.30533	24
3.30900	24
3.31267	24
3.31633	24
3.32000	23
3.32367	23
3.32733	23
3.33100	23
3.33467	23
3.33833	23
3.34200	23
3.34567	23
3.34933	23
3.35300	23
3.35667	23
3.36033	23
3.36400	23
3.36767	23
3.37133	23
3.37500	24
3.37867	24
3.38233	25
3.38600	25
3.38967	26
3.39333	26
3.39700	27
3.40067	27
3.40433	28
3.40800	28
3.41167	28
3.41533	29
3.41900	29
3.42267	29
3.42633	29
3.43000	29
3.43367	29
3.43733	29
3.44100	29
3.44467	29
3.44833	28
3.45200	28
3.45567	28
3.45933	28
3.46300	28
3.46667	28
3.47033	28
3.47400	28
3.47767	28
3.48133	27
3.48500	27
3.48867	27
3.49233	28
3.49600	28
3.49967	28
3.50333	28
3.50700	28
3.51067	29
3.51433	29
3.51800	30
3.52167	30
3.52533	30
3.52900	30
3.53267	30
3.53633	29
3.54000	29
3.54367	29
3.54733	28
3.55100	28
3.55467	28
3.55833	28
3.56200	28
3.56567	28
3.56933	28
3.57300	28
3.57667	28
3.58033	28
3.58400	28
3.58767	28
3.59133	28
3.59500	28
3.59867	28
3.60233	28
3.60600	27
3.60967	27
3.61333	27
3.61700	27
3.62067	26
3.62433	26
3.62800	25
3.63167	25
3.63533	25
3.63900	24
3.64267	24
3.64633	24
3.65000	25
3.65367	25
3.65733	25
3.66100	25
3.66467	25
3.66833	25
3.67200	24
3.67567	24
3.67933	24
3.68300	24
3.68667	24
3.69033	24
3.69400	24
3.69767	24
3.70133	24
3.70500	25
3.70867	25
3.71233	25
3.71600	25
3.71967	25
3.72333	26
3.72700	26
3.73067	26
3.73433	27
3.73800	27
3.74167	27
3.74533	28
3.74900	28
3.75267	28
3.75633	28
3.76000	28
3.76367	28
3.76733	28
3.77100	28
3.77467	28
3.77833	28
3.78200	27
3.78567	27
3.78933	27
3.79300	27
3.79667	27
3.80033	28
3.80400	28
3.80767	28
3.81133	28
3.81500	28
3.81867	28
3.82233	28
3.82600	28
3.82967	28
3.83333	28
3.83700	28
3.84067	28
3.84433	28
3.84800	27
3.85167	27
3.85533	27
3.85900	27
3.86267	27
3.86633	27
3.87000	27
3.87367	26
3.87733	26
3.88100	26
3.88467	26
3.88833	25
3.89200	25
3.89567	25
3.89933	25
3.90300	25
3.90667	25
3.91033	25
3.91400	25
3.91767	25
3.92133	25
3.92500	25
3.92867	25
3.93233	25
3.93600	25
3.93967	25
3.94333	25
3.94700	25
3.95067	26
3.95433	26
3.95800	26
3.96167	27
3.96533	27
3.96900	27
3.97267	28
3.97633	28
3.98000	28
3.98367	28
3.98733	29
3.99100	29
3.99467	29
3.99833	29

[Chromatogram (Ch3)]
Interval(msec)	220
# of Points	1091
Start Time(min)	0.002
End Time(min)	3.998
R.Time (min)	Intensity
0.00167	-1
0.00533	-3
0.00900	-3
0.01267	-2
0.01633	-2
0.02000	-2
0.02367	-3
0.02733	-3
0.03100	-3
0.03467	-0
0.03833	2
0.04200	3
0.04567	5
0.04933	5
0.05300	5
0.05667	5
0.06033	3
0.06400	0
0.06767	-2
0.07133	-2
0.07500	-3
0.07867	-2
0.08233	1
0.08600	3
0.08967	3
0.09333	3
0.09700	4
0.10067	2
0.10433	1
0.10800	-1
0.11167	-3
0.11533	-3
0.11900	-2
0.12267	-1
0.12633	0
0.13000	0
0.13367	-2
0.13733	-3
0.14100	-3
0.14467	-2
0.14833	-2
0.15200	-1
0.15567	1
0.15933	-0
0.16300	-2
0.16667	-2
0.17033	-1
0.17400	1
0.17767	0
0.18133	-2
0.18500	-5
0.18867	-6
0.19233	-8
0.19600	-7
0.19967	-4
0.20333	-3
0.20700	-2
0.21067	-2
0.21433	-3
0.21800	-2
0.22167	-1
0.22533	-3
0.22900	-6
0.23267	-7
0.23633	-7
0.24000	-7
0.24367	-7
0.24733	-6
0.25100	-4
0.25467	-1
0.25833	-1
0.26200	-2
0.26567	-2
0.26933	-2
0.27300	-1
0.27667	-0
0.28033	-0
0.28400	-1
0.28767	-3
0.29133	-6
0.29500	-8
0.29867	-10
0.30233	-11
0.30600	-13
0.30967	-14
0.31333	-12
0.31700	-10
0.32067	-9
0.32433	-7
0.32800	-6
0.33167	-4
0.33533	-2
0.33900	-1
0.34267	1
0.34633	1
0.35000	0
0.35367	1
0.35733	-1
0.36100	-1
0.36467	-3
0.36833	-7
0.37200	-9
0.37567	-8
0.37933	-6
0.38300	-4
0.38667	-2
0.39033	-2
0.39400	-4
0.39767	-4
0.40133	-4
0.40500	-6
0.40867	-6
0.41233	-4
0.41600	-5
0.41967	-8
0.42333	-9
0.42700	-8
0.43067	-9
0.43433	-9
0.43800	-8
0.44167	-6
0.44533	-4
0.44900	-3
0.45267	-5
0.45633	-6
0.46000	-6
0.46367	-5
0.46733	-4
0.47100	-3
0.47467	-3
0.47833	-4
0.48200	-4
0.48567	-5
0.48933	-6
0.49300	-4
0.49667	-3
0.50033	-3
0.50400	-3
0.50767	-3
0.51133	-2
0.51500	-3
0.51867	-4
0.52233	-4
0.52600	-4
0.52967	-5
0.53333	-6
0.53700	-4
0.54067	-6
0.54433	-7
0.54800	-7
0.55167	-6
0.55533	-6
0.55900	-6
0.56267	-5
0.56633	-4
0.57000	-3
0.57367	-2
0.57733	-2
0.58100	-3
0.58467	-2
0.58833	-2
0.59200	-1
0.59567	1
0.59933	2
0.60300	3
0.60667	3
0.61033	-0
0.61400	-3
0.61767	-4
0.62133	-4
0.62500	-6
0.62867	-6
0.63233	-6
0.63600	-4
0.63967	-2
0.64333	-3
0.64700	-5
0.65067	-6
0.65433	-6
0.65800	-5
0.66167	-6
0.66533	-5
0.66900	-5
0.67267	-4
0.67633	-3
0.68000	-2
0.68367	1
0.68733	3
0.69100	5
0.69467	4
0.69833	2
0.70200	3
0.70567	6
0.70933	5
0.71300	2
0.71667	2
0.72033	3
0.72400	5
0.72767	6
0.73133	6
0.73500	5
0.73867	4
0.74233	4
0.74600	4
0.74967	4
0.75333	3
0.75700	4
0.76067	4
0.76433	1
0.76800	1
0.77167	2
0.77533	2
0.77900	1
0.78267	0
0.78633	1
0.79000	3
0.79367	5
0.79733	5
0.80100	5
0.80467	3
0.80833	2
0.81200	1
0.81567	-1
0.81933	-2
0.82300	-1
0.82667	-1
0.83033	-1
0.83400	0
0.83767	2
0.84133	4
0.84500	4
0.84867	5
0.85233	6
0.85600	6
0.85967	7
0.86333	7
0.86700	8
0.87067	4
0.87433	4
0.87800	2
0.88167	3
0.88533	3
0.88900	4
0.89267	6
0.89633	7
0.90000	7
0.90367	5
0.90733	5
0.91100	4
0.91467	2
0.91833	-1
0.92200	-2
0.92567	-0
0.92933	1
0.93300	2
0.93667	2
0.94033	3
0.94400	4
0.94767	4
0.95133	3
0.95500	2
0.95867	1
0.96233	0
0.96600	-1
0.96967	-1
0.97333	0
0.97700	1
0.98067	0
0.98433	0
0.98800	1
0.99167	-0
0.99533	-1
0.99900	-1
1.00267	-3
1.00633	-3
1.01000	-3
1.01367	-3
1.01733	-2
1.02100	1
1.02467	4
1.02833	5
1.03200	4
1.03567	5
1.03933	6
1.04300	5
1.04667	3
1.05033	2
1.05400	2
1.05767	5
1.06133	7
1.06500	8
1.06867	7
1.07233	5
1.07600	3
1.07967	3
1.08333	4
1.08700	3
1.09067	3
1.09433	2
1.09800	1
1.10167	1
1.10533	1
1.10900	4
1.11267	4
1.11633	2
1.12000	0
1.12367	-0
1.12733	2
1.13100	2
1.13467	3
1.13833	6
1.14200	6
1.14567	5
1.14933	4
1.15300	5
1.15667	7
1.16033	6
1.16400	4
1.16767	5
1.17133	7
1.17500	8
1.17867	7
1.18233	5
1.18600	3
1.18967	1
1.19333	0
1.19700	-1
1.20067	-1
1.20433	0
1.20800	5
1.21167	7
1.21533	7
1.21900	6
1.22267	6
1.22633	7
1.23000	6
1.23367	4
1.23733	3
1.24100	2
1.24467	4
1.24833	4
1.25200	4
1.25567	4
1.25933	6
1.26300	7
1.26667	9
1.27033	11
1.27400	10
1.27767	8
1.28133	7
1.28500	6
1.28867	7
1.29233	7
1.29600	7
1.29967	11
1.30333	12
1.30700	12
1.31067	12
1.31433	11
1.31800	10
1.32167	10
1.32533	10
1.32900	10
1.33267	9
1.33633	10
1.34000	10
1.34367	10
1.34733	8
1.35100	6
1.35467	7
1.35833	8
1.36200	7
1.36567	9
1.36933	9
1.37300	10
1.37667	10
1.38033	12
1.38400	10
1.38767	7
1.39133	6
1.39500	5
1.39867	3
1.40233	4
1.40600	6
1.40967	7
1.41333	8
1.41700	9
1.42067	10
1.42433	12
1.42800	12
1.43167	12
1.43533	10
1.43900	10
1.44267	11
1.44633	11
1.45000	10
1.45367	11
1.45733	13
1.46100	13
1.46467	12
1.46833	13
1.47200	14
1.47567	14
1.47933	13
1.48300	12
1.48667	9
1.49033	7
1.49400	5
1.49767	4
1.50133	2
1.50500	0
1.50867	0
1.51233	-0
1.51600	-1
1.51967	1
1.52333	4
1.52700	6
1.53067	7
1.53433	7
1.53800	8
1.54167	8
1.54533	7
1.54900	5
1.55267	5
1.55633	5
1.56000	3
1.56367	5
1.56733	10
1.57100	11
1.57467	9
1.57833	8
1.58200	8
1.58567	7
1.58933	8
1.59300	9
1.59667	9
1.60033	9
1.60400	10
1.60767	12
1.61133	12
1.61500	12
1.61867	10
1.62233	9
1.62600	8
1.62967	7
1.63333	6
1.63700	7
1.64067	6
1.64433	7
1.64800	8
1.65167	9
1.65533	9
1.65900	9
1.66267	10
1.66633	10
1.67000	12
1.67367	12
1.67733	12
1.68100	14
1.68467	17
1.68833	17
1.69200	17
1.69567	15
1.69933	14
1.70300	14
1.70667	16
1.71033	17
1.71400	18
1.71767	20
1.72133	21
1.72500	22
1.72867	20
1.73233	17
1.73600	18
1.73967	21
1.74333	23
1.74700	24
1.75067	24
1.75433	25
1.75800	25
1.76167	25
1.76533	26
1.76900	28
1.77267	29
1.77633	31
1.78000	30
1.78367	29
1.78733	27
1.79100	25
1.79467	26
1.79833	27
1.80200	26
1.80567	24
1.80933	25
1.81300	24
1.81667	22
1.82033	21
1.82400	25
1.82767	27
1.83133	28
1.83500	29
1.83867	30
1.84233	30
1.84600	32
1.84967	33
1.85333	35
1.85700	38
1.86067	38
1.86433	38
1.86800	38
1.87167	38
1.87533	38
1.87900	38
1.88267	39
1.88633	38
1.89000	39
1.89367	40
1.89733	40
1.90100	42
1.90467	45
1.90833	47
1.91200	48
1.91567	46
1.91933	45
1.92300	44
1.92667	44
1.93033	43
1.93400	44
1.93767	45
1.94133	44
1.94500	44
1.94867	46
1.95233	47
1.95600	48
1.95967	48
1.96333	49
1.96700	52
1.97067	53
1.97433	54
1.97800	56
1.98167	58
1.98533	60
1.98900	60
1.99267	62
1.99633	63
2.00000	64
2.00367	64
2.00733	63
2.01100	63
2.01467	64
2.01833	65
2.02200	65
2.02567	66
2.02933	69
2.03300	72
2.03667	73
2.04033	74
2.04400	75
2.04767	74
2.05133	71
2.05500	71
2.05867	73
2.06233	77
2.06600	79
2.06967	80
2.07333	81
2.07700	82
2.08067	83
2.08433	84
2.08800	85
2.09167	84
2.09533	86
2.09900	90
2.10267	92
2.10633	92
2.11000	91
2.11367	89
2.11733	92
2.12100	94
2.12467	94
2.12833	94
2.13200	94
2.13567	96
2.13933	98
2.14300	101
2.14667	104
2.15033	107
2.15400	110
2.15767	109
2.16133	109
2.16500	108
2.16867	109
2.17233	111
2.17600	114
2.17967	117
2.18333	118
2.18700	118
2.19067	118
2.19433	119
2.19800	121
2.20167	122
2.20533	123
2.20900	125
2.21267	128
2.21633	129
2.22000	128
2.22367	130
2.22733	132
2.23100	133
2.23467	135
2.23833	137
2.24200	139
2.24567	142
2.24933	145
2.25300	146
2.25667	146
2.26033	145
2.26400	147
2.26767	149
2.27133	150
2.27500	152
2.27867	156
2.28233	158
2.28600	160
2.28967	163
2.29333	164
2.29700	166
2.30067	166
2.30433	166
2.30800	166
2.31167	166
2.31533	170
2.31900	173
2.32267	175
2.32633	178
2.33000	179
2.33367	179
2.33733	182
2.34100	185
2.34467	187
2.34833	189
2.35200	192
2.35567	194
2.35933	196
2.36300	198
2.36667	200
2.37033	201
2.37400	202
2.37767	205
2.38133	208
2.38500	209
2.38867	206
2.39233	204
2.39600	207
2.39967	212
2.40333	218
2.40700	224
2.41067	230
2.41433	236
2.41800	239
2.42167	238
2.42533	238
2.42900	240
2.43267	239
2.43633	239
2.44000	245
2.44367	303
2.44733	449
2.45100	607
2.45467	737
2.45833	816
2.46200	829
2.46567	804
2.46933	772
2.47300	744
2.47667	727
2.48033	714
2.48400	693
2.48767	660
2.49133	621
2.49500	579
2.49867	543
2.50233	517
2.50600	498
2.50967	489
2.51333	486
2.51700	491
2.52067	505
2.52433	523
2.52800	540
2.53167	553
2.53533	560
2.53900	555
2.54267	539
2.54633	517
2.55000	490
2.55367	465
2.55733	443
2.56100	424
2.56467	408
2.56833	396
2.57200	386
2.57567	378
2.57933	374
2.58300	371
2.58667	369
2.59033	368
2.59400	369
2.59767	370
2.60133	366
2.60500	359
2.60867	349
2.61233	338
2.61600	328
2.61967	318
2.62333	307
2.62700	300
2.63067	295
2.63433	294
2.63800	296
2.64167	299
2.64533	305
2.64900	310
2.65267	313
2.65633	315
2.66000	317
2.66367	317
2.66733	314
2.67100	311
2.67467	304
2.67833	295
2.68200	284
2.68567	273
2.68933	264
2.69300	254
2.69667	246
2.70033	240
2.70400	237
2.70767	236
2.71133	232
2.71500	231
2.71867	230
2.72233	231
2.72600	232
2.72967	230
2.73333	229
2.73700	230
2.74067	233
2.74433	236
2.74800	236
2.75167	237
2.75533	237
2.75900	237
2.76267	239
2.76633	240
2.77000	240
2.77367	240
2.77733	241
2.78100	243
2.78467	245
2.78833	246
2.79200	249
2.79567	250
2.79933	250
2.80300	250
2.80667	251
2.81033	255
2.81400	259
2.81767	266
2.82133	277
2.82500	301
2.82867	354
2.83233	453
2.83600	621
2.83967	882
2.84333	1253
2.84700	1732
2.85067	2299
2.85433	2926
2.85800	3566
2.86167	4162
2.86533	4665
2.86900	5040
2.87267	5262
2.87633	5333
2.88000	5264
2.88367	5079
2.88733	4811
2.89100	4485
2.89467	4127
2.89833	3759
2.90200	3397
2.90567	3052
2.90933	2730
2.91300	2435
2.91667	2169
2.92033	1930
2.92400	1718
2.92767	1531
2.93133	1370
2.93500	1228
2.93867	1103
2.94233	995
2.94600	902
2.94967	821
2.95333	752
2.95700	691
2.96067	638
2.96433	591
2.96800	548
2.97167	511
2.97533	479
2.97900	451
2.98267	427
2.98633	405
2.99000	385
2.99367	366
2.99733	348
3.00100	333
3.00467	320
3.00833	311
3.01200	301
3.01567	295
3.01933	291
3.02300	283
3.02667	277
3.03033	273
3.03400	271
3.03767	267
3.04133	262
3.04500	259
3.04867	256
3.05233	254
3.05600	253
3.05967	250
3.06333	247
3.06700	246
3.07067	243
3.07433	240
3.07800	239
3.08167	238
3.08533	238
3.08900	238
3.09267	238
3.09633	237
3.10000	235
3.10367	234
3.10733	231
3.11100	230
3.11467	228
3.11833	227
3.12200	230
3.12567	232
3.12933	231
3.13300	231
3.13667	230
3.14033	230
3.14400	230
3.14767	230
3.15133	230
3.15500	230
3.15867	232
3.16233	234
3.16600	234
3.16967	236
3.17333	239
3.17700	241
3.18067	240
3.18433	240
3.18800	242
3.19167	244
3.19533	244
3.19900	230
3.20267	191
3.20633	159
3.21000	151
3.21367	166
3.21733	195
3.22100	230
3.22467	269
3.22833	311
3.23200	354
3.23567	393
3.23933	430
3.24300	465
3.24667	496
3.25033	522
3.25400	546
3.25767	567
3.26133	584
3.26500	598
3.26867	611
3.27233	622
3.27600	631
3.27967	639
3.28333	645
3.28700	652
3.29067	658
3.29433	664
3.29800	669
3.30167	676
3.30533	685
3.30900	694
3.31267	697
3.31633	701
3.32000	706
3.32367	710
3.32733	715
3.33100	722
3.33467	730
3.33833	735
3.34200	738
3.34567	740
3.34933	743
3.35300	749
3.35667	756
3.36033	761
3.36400	765
3.36767	768
3.37133	773
3.37500	778
3.37867	782
3.38233	787
3.38600	789
3.38967	788
3.39333	787
3.39700	788
3.40067	787
3.40433	787
3.40800	786
3.41167	784
3.41533	784
3.41900	788
3.42267	791
3.42633	793
3.43000	794
3.43367	793
3.43733	792
3.44100	792
3.44467	790
3.44833	788
3.45200	787
3.45567	783
3.45933	783
3.46300	782
3.46667	779
3.47033	773
3.47400	771
3.47767	770
3.48133	770
3.48500	771
3.48867	767
3.49233	764
3.49600	762
3.49967	762
3.50333	761
3.50700	757
3.51067	755
3.51433	752
3.51800	749
3.52167	747
3.52533	746
3.52900	744
3.53267	743
3.53633	743
3.54000	740
3.54367	737
3.54733	738
3.55100	739
3.55467	739
3.55833	737
3.56200	736
3.56567	734
3.56933	732
3.57300	728
3.57667	725
3.58033	722
3.58400	722
3.58767	723
3.59133	723
3.59500	723
3.59867	723
3.60233	725
3.60600	725
3.60967	722
3.61333	720
3.61700	718
3.62067	718
3.62433	717
3.62800	718
3.63167	720
3.63533	722
3.63900	723
3.64267	720
3.64633	717
3.65000	717
3.65367	718
3.65733	718
3.66100	718
3.66467	718
3.66833	719
3.67200	719
3.67567	719
3.67933	719
3.68300	719
3.68667	717
3.69033	717
3.69400	717
3.69767	716
3.70133	715
3.70500	716
3.70867	718
3.71233	718
3.71600	718
3.71967	718
3.72333	717
3.72700	714
3.73067	713
3.73433	712
3.73800	714
3.74167	713
3.74533	713
3.74900	714
3.75267	713
3.75633	712
3.76000	713
3.76367	714
3.76733	714
3.77100	715
3.77467	714
3.77833	712
3.78200	710
3.78567	710
3.78933	710
3.79300	711
3.79667	712
3.80033	713
3.80400	712
3.80767	709
3.81133	707
3.81500	707
3.81867	704
3.82233	700
3.82600	701
3.82967	701
3.83333	700
3.83700	700
3.84067	700
3.84433	698
3.84800	697
3.85167	697
3.85533	696
3.85900	693
3.86267	691
3.86633	689
3.87000	686
3.87367	685
3.87733	684
3.88100	682
3.88467	683
3.88833	683
3.89200	682
3.89567	679
3.89933	676
3.90300	675
3.90667	678
3.91033	681
3.91400	680
3.91767	678
3.92133	675
3.92500	672
3.92867	668
3.93233	665
3.93600	663
3.93967	662
3.94333	660
3.94700	661
3.95067	661
3.95433	659
3.95800	657
3.96167	654
3.96533	652
3.96900	649
3.97267	647
3.97633	650
3.98000	652
3.98367	651
3.98733	650
3.99100	647
3.99467	644
3.99833	637

[Status Trace (Column Oven Temperature)]
Interval(msec)	1000
# of Points	240
Start Time(min)	0.012
End Time(min)	3.996
Intensity Units	
Intensity Multiplier	1
R.Time (min)	Intensity
0.01228	35.06
0.02895	35.06
0.04562	35.04
0.06228	35.04
0.07895	35.04
0.09562	35.02
0.11228	35.00
0.12895	34.99
0.14562	34.98
0.16228	34.97
0.17895	34.97
0.19562	35.00
0.21228	35.01
0.22895	35.00
0.24562	35.00
0.26228	35.00
0.27895	34.99
0.29562	34.99
0.31228	35.00
0.32895	35.02
0.34562	35.04
0.36228	35.05
0.37895	35.05
0.39562	35.05
0.41228	35.04
0.42895	35.04
0.44562	35.04
0.46228	35.04
0.47895	35.01
0.49562	35.01
0.51228	35.00
0.52895	35.00
0.54562	34.99
0.56228	34.98
0.57895	34.98
0.59562	34.98
0.61228	34.98
0.62895	34.97
0.64562	34.97
0.66228	34.97
0.67895	34.98
0.69562	34.97
0.71228	34.98
0.72895	34.98
0.74562	34.99
0.76228	34.99
0.77895	34.99
0.79562	34.98
0.81228	34.98
0.82895	34.99
0.84562	34.99
0.86228	34.99
0.87895	34.99
0.89562	34.98
0.91228	34.98
0.92895	34.98
0.94562	34.99
0.96228	34.99
0.97895	34.99
0.99562	34.99
1.01228	35.01
1.02895	35.02
1.04562	35.01
1.06228	35.01
1.07895	35.02
1.09562	35.02
1.11228	35.02
1.12895	35.01
1.14562	35.00
1.16228	35.00
1.17895	35.00
1.19562	35.01
1.21228	35.01
1.22895	35.01
1.24562	35.01
1.26228	35.01
1.27895	35.02
1.29562	35.02
1.31228	35.02
1.32895	35.01
1.34562	35.00
1.36228	35.00
1.37895	34.99
1.39562	34.98
1.41228	34.99
1.42895	34.98
1.44562	34.97
1.46228	34.96
1.47895	34.96
1.49562	34.97
1.51228	34.99
1.52895	35.00
1.54562	35.01
1.56228	35.01
1.57895	35.00
1.59562	35.01
1.61228	35.09
1.62895	35.25
1.64562	35.46
1.66228	35.72
1.67895	36.06
1.69562	36.42
1.71228	36.77
1.72895	37.11
1.74562	37.44
1.76228	37.76
1.77895	38.09
1.79562	38.44
1.81228	38.78
1.82895	39.08
1.84562	39.41
1.86228	39.75
1.87895	40.09
1.89562	40.41
1.91228	40.74
1.92895	41.06
1.94562	41.40
1.96228	41.73
1.97895	42.07
1.99562	42.41
2.01228	42.73
2.02895	43.05
2.04562	43.37
2.06228	43.68
2.07895	44.02
2.09562	44.34
2.11228	44.69
2.12895	45.00
2.14562	45.32
2.16228	45.65
2.17895	45.98
2.19562	46.31
2.21228	46.65
2.22895	46.98
2.24562	47.30
2.26228	47.62
2.27895	47.95
2.29562	48.25
2.31228	48.60
2.32895	48.96
2.34562	49.25
2.36228	49.48
2.37895	49.60
2.39562	49.62
2.41228	49.62
2.42895	49.62
2.44562	49.64
2.46228	49.65
2.47895	49.67
2.49562	49.69
2.51228	49.69
2.52895	49.71
2.54562	49.72
2.56228	49.72
2.57895	49.73
2.59562	49.74
2.61228	49.76
2.62895	49.79
2.64562	49.82
2.66228	49.82
2.67895	49.85
2.69562	49.84
2.71228	49.86
2.72895	49.88
2.74562	49.87
2.76228	49.86
2.77895	49.85
2.79562	49.86
2.81228	49.86
2.82895	49.85
2.84562	49.86
2.86228	49.89
2.87895	49.92
2.89562	49.93
2.91228	49.96
2.92895	49.97
2.94562	49.98
2.96228	49.98
2.97895	49.98
2.99562	49.97
3.01228	49.97
3.02895	49.98
3.04562	49.98
3.06228	50.00
3.07895	50.02
3.09562	50.03
3.11228	50.03
3.12895	50.03
3.14562	50.02
3.16228	50.03
3.17895	50.03
3.19562	50.04
3.21228	50.04
3.22895	50.05
3.24562	50.06
3.26228	50.06
3.27895	50.06
3.29562	50.07
3.31228	50.09
3.32895	50.10
3.34562	50.11
3.36228	50.12
3.37895	50.11
3.39562	50.09
3.41228	50.08
3.42895	50.07
3.44562	50.07
3.46228	50.06
3.47895	50.05
3.49562	50.04
3.51228	50.02
3.52895	50.01
3.54562	50.01
3.56228	50.00
3.57895	50.00
3.59562	50.00
3.61228	50.01
3.62895	50.02
3.64562	50.03
3.66228	50.04
3.67895	50.05
3.69562	50.06
3.71228	50.06
3.72895	50.05
3.74562	50.03
3.76228	50.03
3.77895	50.04
3.79562	50.03
3.81228	50.02
3.82895	50.03
3.84562	50.03
3.86228	50.03
3.87895	50.04
3.89562	50.04
3.91228	50.05
3.92895	50.05
3.94562	50.06
3.96228	50.05
3.97895	50.04
3.99562	50.03

[Status Trace (Injection Unit Temperature)]
Interval(msec)	1000
# of Points	240
Start Time(min)	0.012
End Time(min)	3.996
Intensity Units	
Intensity Multiplier	1
R.Time (min)	Intensity
0.01228	99.98
0.02895	99.98
0.04562	99.98
0.06228	99.97
0.07895	99.98
0.09562	99.98
0.11228	99.98
0.12895	99.97
0.14562	99.97
0.16228	99.97
0.17895	99.98
0.19562	99.97
0.21228	99.97
0.22895	99.97
0.24562	99.98
0.26228	99.97
0.27895	99.98
0.29562	99.97
0.31228	99.97
0.32895	99.98
0.34562	99.97
0.36228	99.97
0.37895	99.97
0.39562	99.98
0.41228	99.98
0.42895	99.97
0.44562	99.98
0.46228	99.98
0.47895	99.98
0.49562	99.98
0.51228	99.97
0.52895	99.98
0.54562	99.98
0.56228	99.98
0.57895	99.98
0.59562	99.98
0.61228	99.97
0.62895	99.98
0.64562	99.98
0.66228	99.98
0.67895	99.98
0.69562	99.98
0.71228	99.98
0.72895	99.98
0.74562	99.98
0.76228	99.98
0.77895	99.99
0.79562	99.99
0.81228	99.98
0.82895	99.98
0.84562	99.98
0.86228	99.99
0.87895	99.98
0.89562	99.98
0.91228	99.98
0.92895	99.98
0.94562	99.98
0.96228	99.98
0.97895	99.98
0.99562	99.98
1.01228	99.98
1.02895	99.99
1.04562	99.98
1.06228	99.98
1.07895	99.98
1.09562	99.99
1.11228	99.98
1.12895	99.98
1.14562	99.98
1.16228	99.98
1.17895	99.98
1.19562	99.98
1.21228	99.98
1.22895	99.98
1.24562	99.98
1.26228	99.98
1.27895	99.98
1.29562	99.98
1.31228	99.98
1.32895	99.97
1.34562	99.98
1.36228	99.98
1.37895	99.98
1.39562	99.97
1.41228	99.98
1.42895	99.98
1.44562	99.98
1.46228	99.98
1.47895	99.98
1.49562	99.97
1.51228	99.98
1.52895	99.97
1.54562	99.97
1.56228	99.98
1.57895	99.97
1.59562	99.98
1.61228	99.98
1.62895	99.98
1.64562	99.98
1.66228	99.98
1.67895	99.98
1.69562	99.98
1.71228	99.97
1.72895	99.98
1.74562	99.97
1.76228	99.98
1.77895	99.98
1.79562	99.97
1.81228	99.97
1.82895	99.98
1.84562	99.98
1.86228	99.97
1.87895	99.97
1.89562	99.97
1.91228	99.98
1.92895	99.98
1.94562	99.97
1.96228	99.97
1.97895	99.97
1.99562	99.97
2.01228	99.97
2.02895	99.97
2.04562	99.97
2.06228	99.97
2.07895	99.98
2.09562	99.97
2.11228	99.97
2.12895	99.97
2.14562	99.97
2.16228	99.97
2.17895	99.98
2.19562	99.97
2.21228	99.97
2.22895	99.97
2.24562	99.97
2.26228	99.97
2.27895	99.97
2.29562	99.97
2.31228	99.97
2.32895	99.97
2.34562	99.97
2.36228	99.97
2.37895	99.97
2.39562	99.97
2.41228	99.97
2.42895	99.97
2.44562	99.97
2.46228	99.98
2.47895	99.98
2.49562	99.98
2.51228	99.97
2.52895	99.97
2.54562	99.97
2.56228	99.98
2.57895	99.98
2.59562	99.98
2.61228	99.98
2.62895	99.98
2.64562	99.98
2.66228	99.99
2.67895	99.99
2.69562	99.99
2.71228	99.99
2.72895	99.99
2.74562	99.99
2.76228	99.99
2.77895	100.00
2.79562	99.99
2.81228	99.99
2.82895	100.00
2.84562	100.00
2.86228	100.00
2.87895	100.00
2.89562	100.00
2.91228	100.01
2.92895	100.01
2.94562	100.01
2.96228	100.01
2.97895	100.01
2.99562	100.01
3.01228	100.01
3.02895	100.01
3.04562	100.01
3.06228	100.01
3.07895	100.01
3.09562	100.01
3.11228	100.01
3.12895	100.02
3.14562	100.01
3.16228	100.01
3.17895	100.02
3.19562	100.02
3.21228	100.02
3.22895	100.02
3.24562	100.02
3.26228	100.03
3.27895	100.02
3.29562	100.03
3.31228	100.02
3.32895	100.03
3.34562	100.02
3.36228	100.03
3.37895	100.02
3.39562	100.03
3.41228	100.03
3.42895	100.03
3.44562	100.03
3.46228	100.03
3.47895	100.03
3.49562	100.04
3.51228	100.03
3.52895	100.04
3.54562	100.04
3.56228	100.04
3.57895	100.04
3.59562	100.03
3.61228	100.04
3.62895	100.04
3.64562	100.04
3.66228	100.04
3.67895	100.04
3.69562	100.04
3.71228	100.04
3.72895	100.04
3.74562	100.04
3.76228	100.04
3.77895	100.04
3.79562	100.04
3.81228	100.04
3.82895	100.04
3.84562	100.04
3.86228	100.05
3.87895	100.04
3.89562	100.05
3.91228	100.04
3.92895	100.05
3.94562	100.04
3.96228	100.04
3.97895	100.05
3.99562	100.04

[Status Trace (Carrier Gas Pressure)]
Interval(msec)	1000
# of Points	240
Start Time(min)	0.012
End Time(min)	3.996
Intensity Units	
Intensity Multiplier	1
R.Time (min)	Intensity
0.01228	57.99
0.02895	54.92
0.04562	57.73
0.06228	59.67
0.07895	58.94
0.09562	57.99
0.11228	57.99
0.12895	58.01
0.14562	58.01
0.16228	58.00
0.17895	58.00
0.19562	58.00
0.21228	58.00
0.22895	58.00
0.24562	58.00
0.26228	58.00
0.27895	58.00
0.29562	58.00
0.31228	58.00
0.32895	58.00
0.34562	58.00
0.36228	58.00
0.37895	58.00
0.39562	58.00
0.41228	58.00
0.42895	58.00
0.44562	58.00
0.46228	58.00
0.47895	58.00
0.49562	58.00
0.51228	58.00
0.52895	58.00
0.54562	58.00
0.56228	58.00
0.57895	58.00
0.59562	58.00
0.61228	58.00
0.62895	58.00
0.64562	58.00
0.66228	58.00
0.67895	58.00
0.69562	58.00
0.71228	58.00
0.72895	58.00
0.74562	58.00
0.76228	58.00
0.77895	58.00
0.79562	58.00
0.81228	58.00
0.82895	58.00
0.84562	58.00
0.86228	58.00
0.87895	58.00
0.89562	58.00
0.91228	58.00
0.92895	58.00
0.94562	58.00
0.96228	58.00
0.97895	58.00
0.99562	58.00
1.01228	58.00
1.02895	58.00
1.04562	58.00
1.06228	58.00
1.07895	58.00
1.09562	58.00
1.11228	58.00
1.12895	58.00
1.14562	58.00
1.16228	58.00
1.17895	58.00
1.19562	58.00
1.21228	58.00
1.22895	58.00
1.24562	58.00
1.26228	58.00
1.27895	58.00
1.29562	58.00
1.31228	58.00
1.32895	58.00
1.34562	58.00
1.36228	58.00
1.37895	58.00
1.39562	58.00
1.41228	58.00
1.42895	58.00
1.44562	58.00
1.46228	58.00
1.47895	58.00
1.49562	58.00
1.51228	58.00
1.52895	58.00
1.54562	58.00
1.56228	58.00
1.57895	58.00
1.59562	58.00
1.61228	58.00
1.62895	58.00
1.64562	58.00
1.66228	58.00
1.67895	58.01
1.69562	58.00
1.71228	58.00
1.72895	58.00
1.74562	58.00
1.76228	58.00
1.77895	58.00
1.79562	58.00
1.81228	58.00
1.82895	58.00
1.84562	58.00
1.86228	58.00
1.87895	58.00
1.89562	58.00
1.91228	58.00
1.92895	58.00
1.94562	58.00
1.96228	58.00
1.97895	58.00
1.99562	58.00
2.01228	58.00
2.02895	58.00
2.04562	58.00
2.06228	58.00
2.07895	58.00
2.09562	58.00
2.11228	58.00
2.12895	58.00
2.14562	58.00
2.16228	58.00
2.17895	58.00
2.19562	58.00
2.21228	58.00
2.22895	58.00
2.24562	58.00
2.26228	58.00
2.27895	58.00
2.29562	58.00
2.31228	58.00
2.32895	58.00
2.34562	58.00
2.36228	58.00
2.37895	57.99
2.39562	57.99
2.41228	58.00
2.42895	58.00
2.44562	58.00
2.46228	58.00
2.47895	58.00
2.49562	58.00
2.51228	57.99
2.52895	57.99
2.54562	58.00
2.56228	58.00
2.57895	58.00
2.59562	58.00
2.61228	58.00
2.62895	58.00
2.64562	58.00
2.66228	58.00
2.67895	58.00
2.69562	58.00
2.71228	58.00
2.72895	58.00
2.74562	58.00
2.76228	58.00
2.77895	58.00
2.79562	58.00
2.81228	58.00
2.82895	58.00
2.84562	58.00
2.86228	58.00
2.87895	58.00
2.89562	58.00
2.91228	58.00
2.92895	58.00
2.94562	58.00
2.96228	58.00
2.97895	58.00
2.99562	58.00
3.01228	58.00
3.02895	58.00
3.04562	58.00
3.06228	58.00
3.07895	58.00
3.09562	58.00
3.11228	58.00
3.12895	58.00
3.14562	58.00
3.16228	58.00
3.17895	58.00
3.19562	58.00
3.21228	58.00
3.22895	58.00
3.24562	58.00
3.26228	58.00
3.27895	58.00
3.29562	58.00
3.31228	58.00
3.32895	58.00
3.34562	58.00
3.36228	58.00
3.37895	58.00
3.39562	58.00
3.41228	58.00
3.42895	58.00
3.44562	58.00
3.46228	58.00
3.47895	58.00
3.49562	58.00
3.51228	58.00
3.52895	58.00
3.54562	58.00
3.56228	58.00
3.57895	58.00
3.59562	58.00
3.61228	58.00
3.62895	58.00
3.64562	58.00
3.66228	58.00
3.67895	58.00
3.69562	58.00
3.71228	58.00
3.72895	58.00
3.74562	58.00
3.76228	58.00
3.77895	58.00
3.79562	58.00
3.81228	58.00
3.82895	58.00
3.84562	58.00
3.86228	58.00
3.87895	58.00
3.89562	58.00
3.91228	58.00
3.92895	58.00
3.94562	58.00
3.96228	58.00
3.97895	58.00
3.99562	58.00

[Status Trace (Carrier Gas Flow)]
Interval(msec)	1000
# of Points	240
Start Time(min)	0.012
End Time(min)	3.996
Intensity Units	
Intensity Multiplier	1
R.Time (min)	Intensity
0.01228	34.54
0.02895	34.53
0.04562	34.54
0.06228	34.54
0.07895	34.51
0.09562	34.52
0.11228	34.51
0.12895	34.52
0.14562	34.52
0.16228	34.52
0.17895	34.52
0.19562	34.52
0.21228	34.52
0.22895	34.52
0.24562	34.52
0.26228	34.52
0.27895	34.52
0.29562	34.51
0.31228	34.53
0.32895	34.52
0.34562	34.52
0.36228	34.52
0.37895	34.52
0.39562	34.52
0.41228	34.52
0.42895	34.51
0.44562	34.52
0.46228	34.52
0.47895	34.52
0.49562	34.52
0.51228	34.52
0.52895	34.52
0.54562	34.52
0.56228	34.52
0.57895	34.52
0.59562	34.51
0.61228	34.51
0.62895	34.52
0.64562	34.52
0.66228	34.52
0.67895	34.52
0.69562	34.52
0.71228	34.52
0.72895	34.51
0.74562	34.51
0.76228	34.53
0.77895	34.53
0.79562	34.52
0.81228	34.52
0.82895	34.52
0.84562	34.51
0.86228	34.52
0.87895	34.52
0.89562	34.52
0.91228	34.52
0.92895	34.52
0.94562	34.51
0.96228	34.52
0.97895	34.51
0.99562	34.52
1.01228	34.53
1.02895	34.52
1.04562	34.52
1.06228	34.51
1.07895	34.52
1.09562	34.52
1.11228	34.52
1.12895	34.52
1.14562	34.52
1.16228	34.52
1.17895	34.52
1.19562	34.52
1.21228	34.52
1.22895	34.52
1.24562	34.51
1.26228	34.52
1.27895	34.51
1.29562	34.52
1.31228	34.51
1.32895	34.52
1.34562	34.52
1.36228	34.51
1.37895	34.52
1.39562	34.52
1.41228	34.52
1.42895	34.52
1.44562	34.52
1.46228	34.52
1.47895	34.52
1.49562	34.52
1.51228	34.51
1.52895	34.51
1.54562	34.52
1.56228	34.52
1.57895	34.52
1.59562	34.52
1.61228	34.52
1.62895	34.52
1.64562	34.52
1.66228	34.52
1.67895	34.52
1.69562	34.52
1.71228	34.52
1.72895	34.51
1.74562	34.51
1.76228	34.51
1.77895	34.52
1.79562	34.52
1.81228	34.52
1.82895	34.52
1.84562	34.52
1.86228	34.52
1.87895	34.52
1.89562	34.52
1.91228	34.52
1.92895	34.53
1.94562	34.52
1.96228	34.51
1.97895	34.52
1.99562	34.53
2.01228	34.52
2.02895	34.52
2.04562	34.52
2.06228	34.51
2.07895	34.52
2.09562	34.51
2.11228	34.52
2.12895	34.52
2.14562	34.52
2.16228	34.51
2.17895	34.52
2.19562	34.52
2.21228	34.52
2.22895	34.52
2.24562	34.52
2.26228	34.52
2.27895	34.52
2.29562	34.52
2.31228	34.52
2.32895	34.52
2.34562	34.52
2.36228	34.52
2.37895	34.52
2.39562	34.52
2.41228	34.52
2.42895	34.52
2.44562	34.52
2.46228	34.52
2.47895	34.52
2.49562	34.52
2.51228	34.52
2.52895	34.52
2.54562	34.52
2.56228	34.52
2.57895	34.51
2.59562	34.51
2.61228	34.52
2.62895	34.52
2.64562	34.51
2.66228	34.52
2.67895	34.52
2.69562	34.52
2.71228	34.52
2.72895	34.52
2.74562	34.52
2.76228	34.52
2.77895	34.52
2.79562	34.52
2.81228	34.51
2.82895	34.52
2.84562	34.52
2.86228	34.52
2.87895	34.52
2.89562	34.52
2.91228	34.52
2.92895	34.52
2.94562	34.52
2.96228	34.52
2.97895	34.52
2.99562	34.51
3.01228	34.52
3.02895	34.52
3.04562	34.52
3.06228	34.52
3.07895	34.51
3.09562	34.52
3.11228	34.52
3.12895	34.52
3.14562	34.52
3.16228	34.52
3.17895	34.52
3.19562	34.52
3.21228	34.52
3.22895	34.52
3.24562	34.52
3.26228	34.52
3.27895	34.52
3.29562	34.52
3.31228	34.52
3.32895	34.52
3.34562	34.52
3.36228	34.53
3.37895	34.52
3.39562	34.52
3.41228	34.52
3.42895	34.52
3.44562	34.52
3.46228	34.52
3.47895	34.52
3.49562	34.52
3.51228	34.52
3.52895	34.52
3.54562	34.51
3.56228	34.53
3.57895	34.52
3.59562	34.52
3.61228	34.52
3.62895	34.52
3.64562	34.52
3.66228	34.52
3.67895	34.51
3.69562	34.52
3.71228	34.52
3.72895	34.52
3.74562	34.52
3.76228	34.52
3.77895	34.52
3.79562	34.53
3.81228	34.52
3.82895	34.52
3.84562	34.52
3.86228	34.52
3.87895	34.51
3.89562	34.52
3.91228	34.52
3.92895	34.51
3.94562	34.52
3.96228	34.51
3.97895	34.52
3.99562	34.53

[Status Trace (Column Flow)]
Interval(msec)	1000
# of Points	240
Start Time(min)	0.012
End Time(min)	3.996
Intensity Units	
Intensity Multiplier	1
R.Time (min)	Intensity
0.01228	5.51
0.02895	5.16
0.04562	5.48
0.06228	5.71
0.07895	5.62
0.09562	5.51
0.11228	5.51
0.12895	5.52
0.14562	5.52
0.16228	5.52
0.17895	5.52
0.19562	5.52
0.21228	5.52
0.22895	5.52
0.24562	5.52
0.26228	5.52
0.27895	5.52
0.29562	5.52
0.31228	5.52
0.32895	5.52
0.34562	5.51
0.36228	5.51
0.37895	5.51
0.39562	5.51
0.41228	5.51
0.42895	5.51
0.44562	5.51
0.46228	5.51
0.47895	5.52
0.49562	5.52
0.51228	5.52
0.52895	5.52
0.54562	5.52
0.56228	5.52
0.57895	5.52
0.59562	5.52
0.61228	5.52
0.62895	5.52
0.64562	5.52
0.66228	5.52
0.67895	5.52
0.69562	5.52
0.71228	5.52
0.72895	5.52
0.74562	5.52
0.76228	5.52
0.77895	5.52
0.79562	5.52
0.81228	5.52
0.82895	5.52
0.84562	5.52
0.86228	5.52
0.87895	5.52
0.89562	5.52
0.91228	5.52
0.92895	5.52
0.94562	5.52
0.96228	5.52
0.97895	5.52
0.99562	5.52
1.01228	5.52
1.02895	5.52
1.04562	5.52
1.06228	5.52
1.07895	5.52
1.09562	5.52
1.11228	5.52
1.12895	5.52
1.14562	5.52
1.16228	5.52
1.17895	5.52
1.19562	5.52
1.21228	5.52
1.22895	5.52
1.24562	5.52
1.26228	5.52
1.27895	5.52
1.29562	5.52
1.31228	5.52
1.32895	5.52
1.34562	5.52
1.36228	5.52
1.37895	5.52
1.39562	5.52
1.41228	5.52
1.42895	5.52
1.44562	5.52
1.46228	5.52
1.47895	5.52
1.49562	5.52
1.51228	5.52
1.52895	5.52
1.54562	5.52
1.56228	5.52
1.57895	5.52
1.59562	5.52
1.61228	5.51
1.62895	5.51
1.64562	5.50
1.66228	5.49
1.67895	5.48
1.69562	5.47
1.71228	5.46
1.72895	5.45
1.74562	5.44
1.76228	5.43
1.77895	5.42
1.79562	5.41
1.81228	5.40
1.82895	5.39
1.84562	5.38
1.86228	5.37
1.87895	5.36
1.89562	5.35
1.91228	5.34
1.92895	5.33
1.94562	5.32
1.96228	5.31
1.97895	5.30
1.99562	5.29
2.01228	5.28
2.02895	5.27
2.04562	5.26
2.06228	5.25
2.07895	5.24
2.09562	5.23
2.11228	5.22
2.12895	5.21
2.14562	5.21
2.16228	5.20
2.17895	5.19
2.19562	5.18
2.21228	5.17
2.22895	5.16
2.24562	5.15
2.26228	5.14
2.27895	5.13
2.29562	5.12
2.31228	5.11
2.32895	5.10
2.34562	5.09
2.36228	5.09
2.37895	5.08
2.39562	5.08
2.41228	5.08
2.42895	5.08
2.44562	5.08
2.46228	5.08
2.47895	5.08
2.49562	5.08
2.51228	5.08
2.52895	5.08
2.54562	5.08
2.56228	5.08
2.57895	5.08
2.59562	5.08
2.61228	5.08
2.62895	5.08
2.64562	5.08
2.66228	5.08
2.67895	5.08
2.69562	5.08
2.71228	5.08
2.72895	5.08
2.74562	5.08
2.76228	5.08
2.77895	5.08
2.79562	5.08
2.81228	5.08
2.82895	5.08
2.84562	5.08
2.86228	5.08
2.87895	5.08
2.89562	5.08
2.91228	5.07
2.92895	5.07
2.94562	5.07
2.96228	5.07
2.97895	5.07
2.99562	5.07
3.01228	5.07
3.02895	5.07
3.04562	5.07
3.06228	5.07
3.07895	5.07
3.09562	5.07
3.11228	5.07
3.12895	5.07
3.14562	5.07
3.16228	5.07
3.17895	5.07
3.19562	5.07
3.21228	5.07
3.22895	5.07
3.24562	5.07
3.26228	5.07
3.27895	5.07
3.29562	5.07
3.31228	5.07
3.32895	5.07
3.34562	5.07
3.36228	5.07
3.37895	5.07
3.39562	5.07
3.41228	5.07
3.42895	5.07
3.44562	5.07
3.46228	5.07
3.47895	5.07
3.49562	5.07
3.51228	5.07
3.52895	5.07
3.54562	5.07
3.56228	5.07
3.57895	5.07
3.59562	5.07
3.61228	5.07
3.62895	5.07
3.64562	5.07
3.66228	5.07
3.67895	5.07
3.69562	5.07
3.71228	5.07
3.72895	5.07
3.74562	5.07
3.76228	5.07
3.77895	5.07
3.79562	5.07
3.81228	5.07
3.82895	5.07
3.84562	5.07
3.86228	5.07
3.87895	5.07
3.89562	5.07
3.91228	5.07
3.92895	5.07
3.94562	5.07
3.96228	5.07
3.97895	5.07
3.99562	5.07

[Status Trace (Linear Velocity)]
Interval(msec)	1000
# of Points	240
Start Time(min)	0.012
End Time(min)	3.996
Intensity Units	
Intensity Multiplier	1
R.Time (min)	Intensity
0.01228	39.00
0.02895	36.99
0.04562	38.83
0.06228	40.10
0.07895	39.62
0.09562	39.01
0.11228	39.01
0.12895	39.02
0.14562	39.02
0.16228	39.02
0.17895	39.02
0.19562	39.02
0.21228	39.02
0.22895	39.02
0.24562	39.02
0.26228	39.02
0.27895	39.02
0.29562	39.02
0.31228	39.02
0.32895	39.01
0.34562	39.01
0.36228	39.01
0.37895	39.01
0.39562	39.01
0.41228	39.01
0.42895	39.01
0.44562	39.01
0.46228	39.01
0.47895	39.01
0.49562	39.01
0.51228	39.02
0.52895	39.02
0.54562	39.02
0.56228	39.02
0.57895	39.02
0.59562	39.02
0.61228	39.02
0.62895	39.02
0.64562	39.02
0.66228	39.02
0.67895	39.02
0.69562	39.02
0.71228	39.02
0.72895	39.02
0.74562	39.02
0.76228	39.02
0.77895	39.02
0.79562	39.02
0.81228	39.02
0.82895	39.02
0.84562	39.02
0.86228	39.02
0.87895	39.02
0.89562	39.02
0.91228	39.02
0.92895	39.02
0.94562	39.02
0.96228	39.02
0.97895	39.02
0.99562	39.02
1.01228	39.01
1.02895	39.01
1.04562	39.01
1.06228	39.01
1.07895	39.01
1.09562	39.01
1.11228	39.01
1.12895	39.01
1.14562	39.01
1.16228	39.02
1.17895	39.02
1.19562	39.02
1.21228	39.01
1.22895	39.01
1.24562	39.01
1.26228	39.01
1.27895	39.01
1.29562	39.01
1.31228	39.01
1.32895	39.01
1.34562	39.02
1.36228	39.02
1.37895	39.02
1.39562	39.02
1.41228	39.02
1.42895	39.02
1.44562	39.02
1.46228	39.02
1.47895	39.02
1.49562	39.02
1.51228	39.02
1.52895	39.01
1.54562	39.01
1.56228	39.01
1.57895	39.02
1.59562	39.01
1.61228	39.01
1.62895	38.99
1.64562	38.97
1.66228	38.95
1.67895	38.92
1.69562	38.88
1.71228	38.85
1.72895	38.82
1.74562	38.78
1.76228	38.75
1.77895	38.72
1.79562	38.69
1.81228	38.66
1.82895	38.63
1.84562	38.60
1.86228	38.57
1.87895	38.53
1.89562	38.50
1.91228	38.47
1.92895	38.44
1.94562	38.41
1.96228	38.38
1.97895	38.35
1.99562	38.32
2.01228	38.29
2.02895	38.26
2.04562	38.23
2.06228	38.20
2.07895	38.17
2.09562	38.14
2.11228	38.11
2.12895	38.08
2.14562	38.05
2.16228	38.02
2.17895	37.99
2.19562	37.96
2.21228	37.93
2.22895	37.90
2.24562	37.87
2.26228	37.85
2.27895	37.81
2.29562	37.79
2.31228	37.76
2.32895	37.72
2.34562	37.70
2.36228	37.68
2.37895	37.66
2.39562	37.66
2.41228	37.66
2.42895	37.66
2.44562	37.66
2.46228	37.66
2.47895	37.66
2.49562	37.66
2.51228	37.66
2.52895	37.65
2.54562	37.66
2.56228	37.66
2.57895	37.65
2.59562	37.65
2.61228	37.65
2.62895	37.65
2.64562	37.65
2.66228	37.65
2.67895	37.64
2.69562	37.64
2.71228	37.64
2.72895	37.64
2.74562	37.64
2.76228	37.64
2.77895	37.64
2.79562	37.64
2.81228	37.64
2.82895	37.64
2.84562	37.64
2.86228	37.64
2.87895	37.64
2.89562	37.64
2.91228	37.64
2.92895	37.63
2.94562	37.63
2.96228	37.63
2.97895	37.63
2.99562	37.63
3.01228	37.63
3.02895	37.63
3.04562	37.63
3.06228	37.63
3.07895	37.63
3.09562	37.63
3.11228	37.63
3.12895	37.63
3.14562	37.63
3.16228	37.63
3.17895	37.63
3.19562	37.63
3.21228	37.63
3.22895	37.63
3.24562	37.63
3.26228	37.63
3.27895	37.63
3.29562	37.63
3.31228	37.62
3.32895	37.62
3.34562	37.62
3.36228	37.62
3.37895	37.62
3.39562	37.62
3.41228	37.62
3.42895	37.63
3.44562	37.63
3.46228	37.63
3.47895	37.63
3.49562	37.63
3.51228	37.63
3.52895	37.63
3.54562	37.63
3.56228	37.63
3.57895	37.63
3.59562	37.63
3.61228	37.63
3.62895	37.63
3.64562	37.63
3.66228	37.63
3.67895	37.63
3.69562	37.63
3.71228	37.63
3.72895	37.63
3.74562	37.63
3.76228	37.63
3.77895	37.63
3.79562	37.63
3.81228	37.63
3.82895	37.63
3.84562	37.63
3.86228	37.63
3.87895	37.63
3.89562	37.63
3.91228	37.63
3.92895	37.63
3.94562	37.63
3.96228	37.63
3.97895	37.63
3.99562	37.63

