[Header]
Application Name	LabSolutions
Version	5.110
Data File Name	C:\Users\User\Desktop\GC Analyses\Jack\Nachusa Grasslands Sampling\T2 Timepoint July 12th\T2_07122022_017.gcd
Output Date	3/14/2023
Output Time	3:42:30 PM

[File Information]
Type	Data File
Generated	3/10/2023 2:12:06 PM
Generated by	System Administrator
Modified	3/10/2023 2:18:43 PM
Modified by	System Administrator

[Sample Information]
Operator Name	System Administrator
Acquired	3/10/2023 2:14:41 PM
Sample Type	0:Unknown
Level	0
Sample Name	017
Sample ID	017
ISTD Amount1	1
ISTD Amount2	1
ISTD Amount3	1
ISTD Amount4	1
ISTD Amount5	1
ISTD Amount6	1
ISTD Amount7	1
ISTD Amount8	1
ISTD Amount9	1
ISTD Amount10	1
ISTD Amount11	1
ISTD Amount12	1
ISTD Amount13	1
ISTD Amount14	1
ISTD Amount15	1
ISTD Amount16	1
ISTD Amount17	1
ISTD Amount18	1
ISTD Amount19	1
ISTD Amount20	1
ISTD Amount21	1
ISTD Amount22	1
ISTD Amount23	1
ISTD Amount24	1
ISTD Amount25	1
ISTD Amount26	1
ISTD Amount27	1
ISTD Amount28	1
ISTD Amount29	1
ISTD Amount30	1
ISTD Amount31	1
ISTD Amount32	1
Sample Amount	1
Dilution Factor	1
Vial#	16
Injection Volume	1
Injection Count	1
Bar Code	

[Original Files]
Data File	C:\Users\User\Desktop\GC Analyses\Jack\Nachusa Grasslands Sampling\T1 Timepoint July 12th\T2_07122022_017.gcd
Method File	C:\LabSolutions\Data\GHG_4min_2022\ghg3_togas_w_acet_4 min_new_int.gcm
Batch File	C:\LabSolutions\Data\AutoSamplerTesting\T2_07122022.gcb
Report Format File	c:\LabSolutions\System\DEFAULT.lsr

[File Description]


[Configuration]
Instrument Name	C0B7VH3-Instrument1
Instrument #	1
Line #	1
# of Detectors	3
Detector ID	DET#1	DET#2	DET#3
Detector Name	FID	PTCD	ECD
# of Channels	1	1	1

[Peak Table(Ch1)]
# of Peaks	3
Peak#	R.Time	I.Time	F.Time	Area	Height	A/H	Conc.	Mark	ID#	Name	k'	Plate #	Plate Ht.	Tailing	Resolution	Sep.Factor	Area Ratio	Height Ratio	Conc. %	Norm Conc.
1	1.479	1.435	1.531	2572	740	3.474	18.161	   	1	CO	0.000	4630	32.400	0.000	0.000	0.000	0	0	2.046	2.046
2	1.567	1.531	1.641	19123	9689	1.974	369.761	 V 	2	CH4	0.059	11368	13.195	1.234	1.207	0.000	0	0	41.661	41.661
3	1.996	1.949	2.411	1990760	951733	2.092	499.627	   	3	CO2	0.349	17259	8.691	1.271	7.175	5.875	0	0	56.293	56.293

[Peak Table(Ch2)]
# of Peaks	0

[Peak Table(Ch3)]
# of Peaks	6
Peak#	R.Time	I.Time	F.Time	Area	Height	A/H	Conc.	Mark	ID#	Name	k'	Plate #	Plate Ht.	Tailing	Resolution	Sep.Factor	Area Ratio	Height Ratio	Conc. %	Norm Conc.
1	2.462	2.238	2.513	2496	619	4.031	0.000	   			0.000	6473	23.172	0.000	0.000	0.000	0	0	0.000	0.000
2	2.535	2.513	2.638	2055	413	4.981	0.000	 V 			0.030	2673	56.115	0.000	0.460	0.000	0	0	0.000	0.000
3	2.671	2.638	2.733	775	161	4.816	0.000	 V 			0.085	1023	146.565	0.000	0.512	2.850	0	0	0.000	0.000
4	2.876	2.733	3.184	60841	15164	4.012	1.554	SV 	1	N2O	0.168	12530	11.971	1.636	0.940	1.982	0	0	100.000	100.000
5	3.173	3.155	3.181	45	49	0.915	0.000	T  	2	SF6	0.289	222662	0.674	0.699	4.580	1.717	0	0	0.000	0.000
6	3.404	3.188	3.980	13443	492	27.321	0.000	   	2	SF6	0.383	464	323.137	1.804	0.701	1.325	0	0	0.000	0.000

[Compound Results(Ch1)]
# of IDs	6
ID#	Name	R.Time	Area	Height	Conc.	Curve	3rd	2nd	1st	Constant	Area Ratio	Height Ratio	Conc. %	Norm Conc.
1	CO	1.479	2572	740	18.161	Linear	0.000000e+00	0.000000e+00	1.416423e+002	0.000000e+00	0	0	2.046	2.046
2	CH4	1.567	19123	9689	369.761	Linear	0.000000e+00	0.000000e+00	5.171738e+001	0.000000e+00	0	0	41.661	41.661
3	CO2	1.996	1990760	951733	499.627	Linear	0.000000e+00	0.000000e+00	3.984494e+003	0.000000e+00	0	0	56.293	56.293
4	Ethylene	0.000	0	0	0.000	Linear	0.000000e+00	0.000000e+00	0.000000e+00	0.000000e+00	0	0	0.000	0.000
5	Acetylene	0.000	0	0	0.000	Linear	0.000000e+00	0.000000e+00	0.000000e+00	0.000000e+00	0	0	0.000	0.000
6	Ethane	0.000	0	0	0.000	Linear	0.000000e+00	0.000000e+00	0.000000e+00	0.000000e+00	0	0	0.000	0.000

[Compound Results(Ch2)]
# of IDs	5
ID#	Name	R.Time	Area	Height	Conc.	Curve	3rd	2nd	1st	Constant	Area Ratio	Height Ratio	Conc. %	Norm Conc.
1	Hydrogen	0.000	0	0	0.000	Linear	0.000000e+00	0.000000e+00	0.000000e+00	0.000000e+00	0	0	0.000	0.000
2	Oxygen	0.000	0	0	0.000	Linear	0.000000e+00	0.000000e+00	0.000000e+00	0.000000e+00	0	0	0.000	0.000
3	Nitrogen	0.000	0	0	0.000	Linear	0.000000e+00	0.000000e+00	0.000000e+00	0.000000e+00	0	0	0.000	0.000
4	Methane	0.000	0	0	0.000	Linear	0.000000e+00	0.000000e+00	0.000000e+00	0.000000e+00	0	0	0.000	0.000
5	Carbon Monoxide	0.000	0	0	0.000	Linear	0.000000e+00	0.000000e+00	0.000000e+00	0.000000e+00	0	0	0.000	0.000

[Compound Results(Ch3)]
# of IDs	2
ID#	Name	R.Time	Area	Height	Conc.	Curve	3rd	2nd	1st	Constant	Area Ratio	Height Ratio	Conc. %	Norm Conc.
1	N2O	2.876	60841	15164	1.554	Linear	0.000000e+00	0.000000e+00	3.915173e+004	0.000000e+00	0	0	100.000	100.000
2	SF6	3.404	13488	541	0.000	Linear	0.000000e+00	0.000000e+00	0.000000e+00	0.000000e+00	0	0	0.000	0.000

[Group Results(Ch1)]
# of Groups	0

[Group Results(Ch2)]
# of Groups	0

[Group Results(Ch3)]
# of Groups	0

[Chromatogram (Ch1)]
Interval(msec)	220
# of Points	1091
Start Time(min)	0.002
End Time(min)	3.998
R.Time (min)	Intensity
0.00167	8
0.00533	3
0.00900	-1
0.01267	-5
0.01633	-10
0.02000	-14
0.02367	-14
0.02733	-10
0.03100	-3
0.03467	6
0.03833	8
0.04200	8
0.04567	9
0.04933	7
0.05300	3
0.05667	3
0.06033	2
0.06400	-0
0.06767	-4
0.07133	-5
0.07500	-2
0.07867	4
0.08233	9
0.08600	13
0.08967	11
0.09333	6
0.09700	3
0.10067	3
0.10433	5
0.10800	7
0.11167	9
0.11533	11
0.11900	12
0.12267	12
0.12633	12
0.13000	7
0.13367	3
0.13733	3
0.14100	2
0.14467	1
0.14833	-1
0.15200	-1
0.15567	2
0.15933	8
0.16300	13
0.16667	16
0.17033	17
0.17400	15
0.17767	11
0.18133	8
0.18500	5
0.18867	4
0.19233	6
0.19600	11
0.19967	17
0.20333	22
0.20700	23
0.21067	21
0.21433	16
0.21800	8
0.22167	-2
0.22533	-9
0.22900	-10
0.23267	-6
0.23633	-1
0.24000	4
0.24367	5
0.24733	8
0.25100	11
0.25467	14
0.25833	17
0.26200	19
0.26567	23
0.26933	30
0.27300	41
0.27667	48
0.28033	49
0.28400	51
0.28767	50
0.29133	48
0.29500	45
0.29867	46
0.30233	50
0.30600	54
0.30967	57
0.31333	57
0.31700	62
0.32067	71
0.32433	81
0.32800	88
0.33167	91
0.33533	97
0.33900	103
0.34267	109
0.34633	117
0.35000	123
0.35367	121
0.35733	113
0.36100	107
0.36467	104
0.36833	102
0.37200	94
0.37567	80
0.37933	64
0.38300	51
0.38667	47
0.39033	48
0.39400	50
0.39767	54
0.40133	57
0.40500	58
0.40867	57
0.41233	58
0.41600	57
0.41967	50
0.42333	43
0.42700	35
0.43067	29
0.43433	28
0.43800	31
0.44167	37
0.44533	43
0.44900	46
0.45267	42
0.45633	34
0.46000	26
0.46367	18
0.46733	12
0.47100	11
0.47467	14
0.47833	15
0.48200	16
0.48567	19
0.48933	23
0.49300	20
0.49667	11
0.50033	1
0.50400	-3
0.50767	-1
0.51133	3
0.51500	10
0.51867	12
0.52233	10
0.52600	2
0.52967	2
0.53333	8
0.53700	16
0.54067	18
0.54433	11
0.54800	1
0.55167	-6
0.55533	-8
0.55900	-9
0.56267	-12
0.56633	-13
0.57000	-8
0.57367	-0
0.57733	5
0.58100	9
0.58467	13
0.58833	18
0.59200	23
0.59567	28
0.59933	31
0.60300	32
0.60667	26
0.61033	15
0.61400	1
0.61767	-16
0.62133	-28
0.62500	-30
0.62867	-23
0.63233	-14
0.63600	-13
0.63967	-17
0.64333	-20
0.64700	-21
0.65067	-19
0.65433	-12
0.65800	-3
0.66167	2
0.66533	-3
0.66900	-9
0.67267	-10
0.67633	-13
0.68000	-15
0.68367	-13
0.68733	-10
0.69100	-5
0.69467	-3
0.69833	-6
0.70200	-6
0.70567	-6
0.70933	-9
0.71300	-12
0.71667	-10
0.72033	-12
0.72400	-16
0.72767	-16
0.73133	-11
0.73500	-6
0.73867	-3
0.74233	-1
0.74600	-0
0.74967	4
0.75333	8
0.75700	9
0.76067	9
0.76433	12
0.76800	12
0.77167	10
0.77533	11
0.77900	16
0.78267	19
0.78633	18
0.79000	17
0.79367	16
0.79733	13
0.80100	8
0.80467	3
0.80833	-3
0.81200	-11
0.81567	-14
0.81933	-15
0.82300	-13
0.82667	-8
0.83033	-5
0.83400	-11
0.83767	-20
0.84133	-23
0.84500	-24
0.84867	-30
0.85233	-35
0.85600	-34
0.85967	-29
0.86333	-20
0.86700	-13
0.87067	-8
0.87433	-2
0.87800	1
0.88167	3
0.88533	4
0.88900	7
0.89267	11
0.89633	16
0.90000	17
0.90367	13
0.90733	5
0.91100	-7
0.91467	-18
0.91833	-22
0.92200	-21
0.92567	-18
0.92933	-15
0.93300	-17
0.93667	-23
0.94033	-27
0.94400	-28
0.94767	-29
0.95133	-31
0.95500	-32
0.95867	-33
0.96233	-36
0.96600	-39
0.96967	-37
0.97333	-34
0.97700	-29
0.98067	-23
0.98433	-19
0.98800	-18
0.99167	-18
0.99533	-14
0.99900	-6
1.00267	-1
1.00633	1
1.01000	0
1.01367	0
1.01733	2
1.02100	5
1.02467	13
1.02833	18
1.03200	13
1.03567	2
1.03933	-11
1.04300	-26
1.04667	-40
1.05033	-49
1.05400	-54
1.05767	-55
1.06133	-50
1.06500	-41
1.06867	-28
1.07233	-20
1.07600	-23
1.07967	-30
1.08333	-35
1.08700	-34
1.09067	-30
1.09433	-29
1.09800	-27
1.10167	-26
1.10533	-21
1.10900	-12
1.11267	-5
1.11633	1
1.12000	4
1.12367	-1
1.12733	-11
1.13100	-18
1.13467	-23
1.13833	-29
1.14200	-29
1.14567	-26
1.14933	-22
1.15300	-19
1.15667	-15
1.16033	-13
1.16400	-8
1.16767	-8
1.17133	-12
1.17500	-14
1.17867	-14
1.18233	-10
1.18600	-10
1.18967	-13
1.19333	-15
1.19700	-13
1.20067	-8
1.20433	-3
1.20800	2
1.21167	6
1.21533	5
1.21900	-1
1.22267	-8
1.22633	-15
1.23000	-21
1.23367	-26
1.23733	-28
1.24100	-31
1.24467	-31
1.24833	-25
1.25200	-15
1.25567	-3
1.25933	5
1.26300	12
1.26667	12
1.27033	9
1.27400	7
1.27767	1
1.28133	-4
1.28500	-8
1.28867	-8
1.29233	-6
1.29600	-4
1.29967	-2
1.30333	1
1.30700	5
1.31067	6
1.31433	7
1.31800	12
1.32167	24
1.32533	35
1.32900	39
1.33267	36
1.33633	28
1.34000	19
1.34367	11
1.34733	6
1.35100	2
1.35467	1
1.35833	-1
1.36200	-0
1.36567	8
1.36933	18
1.37300	29
1.37667	40
1.38033	44
1.38400	38
1.38767	28
1.39133	18
1.39500	16
1.39867	21
1.40233	23
1.40600	25
1.40967	27
1.41333	25
1.41700	22
1.42067	17
1.42433	13
1.42800	12
1.43167	18
1.43533	26
1.43900	52
1.44267	143
1.44633	304
1.45000	477
1.45367	616
1.45733	702
1.46100	743
1.46467	756
1.46833	756
1.47200	755
1.47567	761
1.47933	768
1.48300	764
1.48667	735
1.49033	680
1.49400	607
1.49767	530
1.50133	455
1.50500	386
1.50867	327
1.51233	276
1.51600	231
1.51967	195
1.52333	172
1.52700	153
1.53067	139
1.53433	141
1.53800	214
1.54167	546
1.54533	1413
1.54900	2912
1.55267	4787
1.55633	6632
1.56000	8157
1.56367	9225
1.56733	9722
1.57100	9520
1.57467	8605
1.57833	7181
1.58200	5587
1.58567	4112
1.58933	2902
1.59300	1990
1.59667	1338
1.60033	893
1.60400	597
1.60767	406
1.61133	282
1.61500	200
1.61867	144
1.62233	109
1.62600	85
1.62967	62
1.63333	47
1.63700	41
1.64067	37
1.64433	36
1.64800	37
1.65167	39
1.65533	43
1.65900	42
1.66267	39
1.66633	35
1.67000	33
1.67367	35
1.67733	36
1.68100	33
1.68467	29
1.68833	23
1.69200	19
1.69567	19
1.69933	19
1.70300	20
1.70667	22
1.71033	24
1.71400	22
1.71767	12
1.72133	-1
1.72500	-8
1.72867	-2
1.73233	12
1.73600	20
1.73967	22
1.74333	20
1.74700	21
1.75067	22
1.75433	20
1.75800	15
1.76167	6
1.76533	2
1.76900	3
1.77267	9
1.77633	20
1.78000	32
1.78367	39
1.78733	40
1.79100	37
1.79467	31
1.79833	26
1.80200	25
1.80567	29
1.80933	33
1.81300	33
1.81667	35
1.82033	35
1.82400	34
1.82767	33
1.83133	31
1.83500	32
1.83867	31
1.84233	29
1.84600	28
1.84967	29
1.85333	29
1.85700	28
1.86067	26
1.86433	25
1.86800	27
1.87167	29
1.87533	30
1.87900	32
1.88267	34
1.88633	36
1.89000	40
1.89367	46
1.89733	49
1.90100	48
1.90467	46
1.90833	42
1.91200	41
1.91567	39
1.91933	39
1.92300	40
1.92667	41
1.93033	42
1.93400	46
1.93767	51
1.94133	50
1.94500	45
1.94867	43
1.95233	75
1.95600	275
1.95967	1390
1.96333	6366
1.96700	23243
1.97067	67155
1.97433	155574
1.97800	295012
1.98167	470836
1.98533	652385
1.98900	807498
1.99267	911954
1.99633	951840
2.00000	924130
2.00367	837670
2.00733	711651
2.01100	570164
2.01467	434641
2.01833	318660
2.02200	227275
2.02567	159451
2.02933	111181
2.03300	77773
2.03667	55045
2.04033	39714
2.04400	29387
2.04767	22389
2.05133	17588
2.05500	14234
2.05867	11837
2.06233	10082
2.06600	8762
2.06967	7748
2.07333	6947
2.07700	6292
2.08067	5747
2.08433	5297
2.08800	4926
2.09167	4612
2.09533	4337
2.09900	4085
2.10267	3857
2.10633	3653
2.11000	3467
2.11367	3298
2.11733	3143
2.12100	2999
2.12467	2864
2.12833	2744
2.13200	2637
2.13567	2541
2.13933	2450
2.14300	2360
2.14667	2275
2.15033	2197
2.15400	2127
2.15767	2065
2.16133	2008
2.16500	1949
2.16867	1894
2.17233	1841
2.17600	1790
2.17967	1745
2.18333	1701
2.18700	1657
2.19067	1614
2.19433	1573
2.19800	1531
2.20167	1488
2.20533	1449
2.20900	1414
2.21267	1379
2.21633	1347
2.22000	1320
2.22367	1297
2.22733	1271
2.23100	1242
2.23467	1215
2.23833	1195
2.24200	1178
2.24567	1161
2.24933	1139
2.25300	1115
2.25667	1093
2.26033	1072
2.26400	1053
2.26767	1036
2.27133	1018
2.27500	998
2.27867	980
2.28233	963
2.28600	949
2.28967	939
2.29333	931
2.29700	922
2.30067	909
2.30433	892
2.30800	870
2.31167	847
2.31533	828
2.31900	816
2.32267	811
2.32633	805
2.33000	796
2.33367	783
2.33733	764
2.34100	744
2.34467	727
2.34833	720
2.35200	719
2.35567	717
2.35933	711
2.36300	705
2.36667	700
2.37033	691
2.37400	687
2.37767	684
2.38133	682
2.38500	684
2.38867	685
2.39233	683
2.39600	681
2.39967	676
2.40333	672
2.40700	666
2.41067	658
2.41433	647
2.41800	634
2.42167	616
2.42533	598
2.42900	588
2.43267	588
2.43633	592
2.44000	597
2.44367	596
2.44733	589
2.45100	578
2.45467	566
2.45833	560
2.46200	555
2.46567	552
2.46933	550
2.47300	548
2.47667	545
2.48033	543
2.48400	545
2.48767	544
2.49133	541
2.49500	537
2.49867	536
2.50233	535
2.50600	530
2.50967	527
2.51333	525
2.51700	520
2.52067	513
2.52433	508
2.52800	508
2.53167	514
2.53533	518
2.53900	516
2.54267	510
2.54633	503
2.55000	498
2.55367	495
2.55733	493
2.56100	492
2.56467	489
2.56833	483
2.57200	475
2.57567	471
2.57933	472
2.58300	473
2.58667	473
2.59033	475
2.59400	478
2.59767	482
2.60133	480
2.60500	471
2.60867	460
2.61233	452
2.61600	453
2.61967	457
2.62333	461
2.62700	464
2.63067	466
2.63433	465
2.63800	464
2.64167	460
2.64533	456
2.64900	444
2.65267	430
2.65633	424
2.66000	426
2.66367	436
2.66733	451
2.67100	460
2.67467	463
2.67833	464
2.68200	463
2.68567	455
2.68933	447
2.69300	442
2.69667	440
2.70033	438
2.70400	438
2.70767	438
2.71133	436
2.71500	437
2.71867	439
2.72233	434
2.72600	428
2.72967	428
2.73333	429
2.73700	428
2.74067	427
2.74433	424
2.74800	419
2.75167	415
2.75533	413
2.75900	415
2.76267	421
2.76633	426
2.77000	430
2.77367	434
2.77733	435
2.78100	432
2.78467	426
2.78833	419
2.79200	416
2.79567	420
2.79933	423
2.80300	426
2.80667	429
2.81033	432
2.81400	433
2.81767	434
2.82133	435
2.82500	436
2.82867	438
2.83233	442
2.83600	444
2.83967	446
2.84333	445
2.84700	440
2.85067	435
2.85433	432
2.85800	425
2.86167	419
2.86533	419
2.86900	423
2.87267	431
2.87633	435
2.88000	434
2.88367	433
2.88733	434
2.89100	436
2.89467	438
2.89833	440
2.90200	443
2.90567	448
2.90933	453
2.91300	454
2.91667	449
2.92033	440
2.92400	430
2.92767	426
2.93133	424
2.93500	423
2.93867	424
2.94233	430
2.94600	435
2.94967	437
2.95333	437
2.95700	436
2.96067	432
2.96433	427
2.96800	425
2.97167	428
2.97533	432
2.97900	437
2.98267	441
2.98633	451
2.99000	459
2.99367	463
2.99733	462
3.00100	457
3.00467	452
3.00833	448
3.01200	446
3.01567	445
3.01933	440
3.02300	432
3.02667	424
3.03033	419
3.03400	418
3.03767	420
3.04133	423
3.04500	423
3.04867	422
3.05233	421
3.05600	416
3.05967	410
3.06333	407
3.06700	410
3.07067	419
3.07433	430
3.07800	434
3.08167	430
3.08533	426
3.08900	423
3.09267	426
3.09633	433
3.10000	436
3.10367	435
3.10733	433
3.11100	426
3.11467	419
3.11833	416
3.12200	417
3.12567	422
3.12933	427
3.13300	433
3.13667	433
3.14033	428
3.14400	417
3.14767	407
3.15133	403
3.15500	401
3.15867	397
3.16233	392
3.16600	392
3.16967	394
3.17333	396
3.17700	398
3.18067	400
3.18433	403
3.18800	404
3.19167	402
3.19533	401
3.19900	401
3.20267	399
3.20633	397
3.21000	397
3.21367	401
3.21733	409
3.22100	414
3.22467	414
3.22833	410
3.23200	405
3.23567	402
3.23933	404
3.24300	407
3.24667	406
3.25033	403
3.25400	401
3.25767	403
3.26133	410
3.26500	420
3.26867	432
3.27233	439
3.27600	444
3.27967	443
3.28333	437
3.28700	429
3.29067	421
3.29433	416
3.29800	410
3.30167	406
3.30533	401
3.30900	394
3.31267	383
3.31633	371
3.32000	360
3.32367	353
3.32733	351
3.33100	354
3.33467	356
3.33833	359
3.34200	360
3.34567	358
3.34933	354
3.35300	353
3.35667	357
3.36033	362
3.36400	364
3.36767	367
3.37133	372
3.37500	376
3.37867	383
3.38233	388
3.38600	391
3.38967	395
3.39333	398
3.39700	398
3.40067	390
3.40433	381
3.40800	373
3.41167	369
3.41533	371
3.41900	376
3.42267	378
3.42633	376
3.43000	374
3.43367	373
3.43733	376
3.44100	379
3.44467	382
3.44833	382
3.45200	380
3.45567	382
3.45933	386
3.46300	385
3.46667	385
3.47033	381
3.47400	373
3.47767	365
3.48133	359
3.48500	359
3.48867	367
3.49233	377
3.49600	385
3.49967	393
3.50333	397
3.50700	400
3.51067	399
3.51433	396
3.51800	390
3.52167	380
3.52533	374
3.52900	371
3.53267	369
3.53633	366
3.54000	367
3.54367	365
3.54733	356
3.55100	351
3.55467	350
3.55833	350
3.56200	351
3.56567	353
3.56933	356
3.57300	359
3.57667	361
3.58033	363
3.58400	364
3.58767	361
3.59133	354
3.59500	350
3.59867	347
3.60233	347
3.60600	348
3.60967	349
3.61333	350
3.61700	350
3.62067	345
3.62433	340
3.62800	336
3.63167	332
3.63533	327
3.63900	326
3.64267	329
3.64633	333
3.65000	336
3.65367	336
3.65733	334
3.66100	331
3.66467	328
3.66833	329
3.67200	332
3.67567	336
3.67933	340
3.68300	341
3.68667	343
3.69033	344
3.69400	342
3.69767	338
3.70133	335
3.70500	335
3.70867	339
3.71233	343
3.71600	341
3.71967	333
3.72333	328
3.72700	329
3.73067	335
3.73433	339
3.73800	345
3.74167	343
3.74533	338
3.74900	332
3.75267	326
3.75633	314
3.76000	297
3.76367	283
3.76733	277
3.77100	277
3.77467	281
3.77833	285
3.78200	289
3.78567	295
3.78933	299
3.79300	300
3.79667	296
3.80033	291
3.80400	287
3.80767	285
3.81133	286
3.81500	289
3.81867	293
3.82233	297
3.82600	297
3.82967	301
3.83333	308
3.83700	315
3.84067	320
3.84433	322
3.84800	320
3.85167	317
3.85533	310
3.85900	304
3.86267	303
3.86633	301
3.87000	302
3.87367	310
3.87733	317
3.88100	320
3.88467	317
3.88833	311
3.89200	310
3.89567	310
3.89933	311
3.90300	309
3.90667	304
3.91033	299
3.91400	295
3.91767	295
3.92133	297
3.92500	302
3.92867	306
3.93233	305
3.93600	302
3.93967	301
3.94333	299
3.94700	294
3.95067	289
3.95433	288
3.95800	289
3.96167	289
3.96533	290
3.96900	287
3.97267	278
3.97633	272
3.98000	266
3.98367	261
3.98733	260
3.99100	264
3.99467	270
3.99833	276

[Chromatogram (Ch2)]
Interval(msec)	220
# of Points	1091
Start Time(min)	0.002
End Time(min)	3.998
R.Time (min)	Intensity
0.00167	1
0.00533	1
0.00900	1
0.01267	1
0.01633	1
0.02000	1
0.02367	1
0.02733	1
0.03100	1
0.03467	1
0.03833	1
0.04200	1
0.04567	1
0.04933	1
0.05300	1
0.05667	1
0.06033	1
0.06400	1
0.06767	1
0.07133	0
0.07500	-0
0.07867	-1
0.08233	-1
0.08600	-1
0.08967	-2
0.09333	-2
0.09700	-1
0.10067	-1
0.10433	-1
0.10800	-0
0.11167	-0
0.11533	-0
0.11900	-0
0.12267	-0
0.12633	-1
0.13000	-1
0.13367	-1
0.13733	-1
0.14100	-1
0.14467	-1
0.14833	-1
0.15200	-1
0.15567	-1
0.15933	-0
0.16300	0
0.16667	1
0.17033	1
0.17400	1
0.17767	1
0.18133	1
0.18500	1
0.18867	1
0.19233	1
0.19600	1
0.19967	1
0.20333	0
0.20700	0
0.21067	0
0.21433	-0
0.21800	-0
0.22167	-0
0.22533	-1
0.22900	-1
0.23267	-1
0.23633	-1
0.24000	-1
0.24367	-1
0.24733	-1
0.25100	-1
0.25467	-1
0.25833	-2
0.26200	-2
0.26567	-2
0.26933	-3
0.27300	-3
0.27667	-3
0.28033	-3
0.28400	-3
0.28767	-3
0.29133	-3
0.29500	-3
0.29867	-3
0.30233	-3
0.30600	-4
0.30967	-4
0.31333	-4
0.31700	-5
0.32067	-5
0.32433	-5
0.32800	-5
0.33167	-4
0.33533	-3
0.33900	-3
0.34267	-2
0.34633	-2
0.35000	-2
0.35367	-2
0.35733	-2
0.36100	-2
0.36467	-1
0.36833	-1
0.37200	-1
0.37567	-1
0.37933	-1
0.38300	-1
0.38667	-1
0.39033	-1
0.39400	-1
0.39767	-1
0.40133	-1
0.40500	-1
0.40867	-1
0.41233	-1
0.41600	-2
0.41967	-2
0.42333	-2
0.42700	-2
0.43067	-2
0.43433	-2
0.43800	-2
0.44167	-2
0.44533	-2
0.44900	-3
0.45267	-3
0.45633	-3
0.46000	-3
0.46367	-3
0.46733	-3
0.47100	-3
0.47467	-2
0.47833	-2
0.48200	-2
0.48567	-1
0.48933	-1
0.49300	-1
0.49667	-0
0.50033	0
0.50400	1
0.50767	1
0.51133	1
0.51500	1
0.51867	1
0.52233	1
0.52600	1
0.52967	1
0.53333	1
0.53700	1
0.54067	1
0.54433	1
0.54800	0
0.55167	0
0.55533	-0
0.55900	-0
0.56267	-0
0.56633	-0
0.57000	-0
0.57367	-0
0.57733	-1
0.58100	-1
0.58467	-1
0.58833	-1
0.59200	-2
0.59567	-2
0.59933	-2
0.60300	-2
0.60667	-1
0.61033	-1
0.61400	-1
0.61767	-0
0.62133	-0
0.62500	-0
0.62867	-0
0.63233	-0
0.63600	-0
0.63967	-0
0.64333	-0
0.64700	-0
0.65067	-1
0.65433	-1
0.65800	-1
0.66167	-2
0.66533	-2
0.66900	-2
0.67267	-2
0.67633	-2
0.68000	-2
0.68367	-2
0.68733	-2
0.69100	-3
0.69467	-3
0.69833	-3
0.70200	-3
0.70567	-3
0.70933	-2
0.71300	-2
0.71667	-2
0.72033	-2
0.72400	-2
0.72767	-2
0.73133	-1
0.73500	-1
0.73867	-1
0.74233	-1
0.74600	-1
0.74967	-1
0.75333	-1
0.75700	-2
0.76067	-1
0.76433	-1
0.76800	-1
0.77167	-1
0.77533	-1
0.77900	-0
0.78267	0
0.78633	0
0.79000	-0
0.79367	-0
0.79733	-1
0.80100	-1
0.80467	-1
0.80833	-2
0.81200	-2
0.81567	-2
0.81933	-2
0.82300	-2
0.82667	-1
0.83033	-1
0.83400	-1
0.83767	-0
0.84133	0
0.84500	0
0.84867	1
0.85233	1
0.85600	1
0.85967	1
0.86333	1
0.86700	0
0.87067	0
0.87433	-0
0.87800	-1
0.88167	-1
0.88533	-1
0.88900	-1
0.89267	-2
0.89633	-2
0.90000	-2
0.90367	-3
0.90733	-3
0.91100	-4
0.91467	-4
0.91833	-4
0.92200	-4
0.92567	-4
0.92933	-3
0.93300	-3
0.93667	-3
0.94033	-2
0.94400	-2
0.94767	-2
0.95133	-2
0.95500	-2
0.95867	-2
0.96233	-1
0.96600	-1
0.96967	-1
0.97333	-0
0.97700	-0
0.98067	0
0.98433	0
0.98800	1
0.99167	1
0.99533	1
0.99900	1
1.00267	1
1.00633	1
1.01000	1
1.01367	0
1.01733	0
1.02100	-0
1.02467	-0
1.02833	-1
1.03200	-1
1.03567	-2
1.03933	-2
1.04300	-2
1.04667	-3
1.05033	-3
1.05400	-3
1.05767	-3
1.06133	-3
1.06500	-3
1.06867	-2
1.07233	-2
1.07600	-2
1.07967	-2
1.08333	-2
1.08700	-2
1.09067	-1
1.09433	-1
1.09800	-1
1.10167	-1
1.10533	-1
1.10900	-1
1.11267	-1
1.11633	-1
1.12000	-1
1.12367	-1
1.12733	-1
1.13100	-1
1.13467	-1
1.13833	-1
1.14200	-2
1.14567	-2
1.14933	-3
1.15300	-3
1.15667	-4
1.16033	-4
1.16400	-4
1.16767	-4
1.17133	-4
1.17500	-4
1.17867	-4
1.18233	-4
1.18600	-4
1.18967	-4
1.19333	-4
1.19700	-4
1.20067	-4
1.20433	-3
1.20800	-3
1.21167	-3
1.21533	-3
1.21900	-3
1.22267	-3
1.22633	-3
1.23000	-3
1.23367	-3
1.23733	-3
1.24100	-3
1.24467	-3
1.24833	-3
1.25200	-3
1.25567	-3
1.25933	-3
1.26300	-3
1.26667	-2
1.27033	-2
1.27400	-1
1.27767	-1
1.28133	-0
1.28500	0
1.28867	1
1.29233	1
1.29600	1
1.29967	1
1.30333	1
1.30700	1
1.31067	1
1.31433	0
1.31800	0
1.32167	-0
1.32533	-0
1.32900	-0
1.33267	-1
1.33633	-1
1.34000	-1
1.34367	-2
1.34733	-2
1.35100	-2
1.35467	-2
1.35833	-3
1.36200	-3
1.36567	-4
1.36933	-4
1.37300	-4
1.37667	-4
1.38033	-5
1.38400	-5
1.38767	-5
1.39133	-5
1.39500	-4
1.39867	-4
1.40233	-3
1.40600	-2
1.40967	-2
1.41333	-1
1.41700	-1
1.42067	-1
1.42433	-1
1.42800	-1
1.43167	-0
1.43533	-0
1.43900	-0
1.44267	0
1.44633	0
1.45000	0
1.45367	0
1.45733	0
1.46100	1
1.46467	1
1.46833	1
1.47200	2
1.47567	2
1.47933	2
1.48300	2
1.48667	2
1.49033	2
1.49400	2
1.49767	1
1.50133	1
1.50500	1
1.50867	1
1.51233	1
1.51600	1
1.51967	1
1.52333	1
1.52700	1
1.53067	1
1.53433	1
1.53800	0
1.54167	-0
1.54533	-1
1.54900	-2
1.55267	-3
1.55633	-3
1.56000	-4
1.56367	-4
1.56733	-4
1.57100	-4
1.57467	-4
1.57833	-4
1.58200	-4
1.58567	-4
1.58933	-5
1.59300	-5
1.59667	-6
1.60033	-7
1.60400	-8
1.60767	-9
1.61133	-10
1.61500	-12
1.61867	-13
1.62233	-15
1.62600	-18
1.62967	-20
1.63333	-23
1.63700	-27
1.64067	-30
1.64433	-34
1.64800	-38
1.65167	-42
1.65533	-45
1.65900	-50
1.66267	-54
1.66633	-60
1.67000	-65
1.67367	-70
1.67733	-76
1.68100	-81
1.68467	-85
1.68833	-89
1.69200	-92
1.69567	-95
1.69933	-98
1.70300	-99
1.70667	-101
1.71033	-102
1.71400	-104
1.71767	-105
1.72133	-106
1.72500	-106
1.72867	-107
1.73233	-107
1.73600	-107
1.73967	-107
1.74333	-107
1.74700	-106
1.75067	-106
1.75433	-106
1.75800	-107
1.76167	-107
1.76533	-108
1.76900	-109
1.77267	-110
1.77633	-110
1.78000	-111
1.78367	-112
1.78733	-112
1.79100	-113
1.79467	-114
1.79833	-114
1.80200	-115
1.80567	-115
1.80933	-115
1.81300	-115
1.81667	-116
1.82033	-116
1.82400	-116
1.82767	-116
1.83133	-115
1.83500	-114
1.83867	-114
1.84233	-114
1.84600	-114
1.84967	-114
1.85333	-115
1.85700	-116
1.86067	-116
1.86433	-116
1.86800	-116
1.87167	-115
1.87533	-115
1.87900	-115
1.88267	-114
1.88633	-114
1.89000	-114
1.89367	-113
1.89733	-113
1.90100	-113
1.90467	-113
1.90833	-112
1.91200	-112
1.91567	-111
1.91933	-111
1.92300	-110
1.92667	-110
1.93033	-110
1.93400	-110
1.93767	-110
1.94133	-110
1.94500	-110
1.94867	-109
1.95233	-109
1.95600	-109
1.95967	-108
1.96333	-108
1.96700	-108
1.97067	-108
1.97433	-109
1.97800	-109
1.98167	-109
1.98533	-110
1.98900	-109
1.99267	-109
1.99633	-109
2.00000	-108
2.00367	-108
2.00733	-107
2.01100	-107
2.01467	-106
2.01833	-106
2.02200	-105
2.02567	-104
2.02933	-104
2.03300	-103
2.03667	-103
2.04033	-102
2.04400	-102
2.04767	-102
2.05133	-101
2.05500	-101
2.05867	-101
2.06233	-101
2.06600	-101
2.06967	-101
2.07333	-101
2.07700	-101
2.08067	-100
2.08433	-100
2.08800	-100
2.09167	-100
2.09533	-99
2.09900	-99
2.10267	-99
2.10633	-99
2.11000	-99
2.11367	-99
2.11733	-98
2.12100	-98
2.12467	-97
2.12833	-96
2.13200	-95
2.13567	-94
2.13933	-93
2.14300	-93
2.14667	-93
2.15033	-92
2.15400	-92
2.15767	-92
2.16133	-91
2.16500	-91
2.16867	-91
2.17233	-91
2.17600	-91
2.17967	-91
2.18333	-91
2.18700	-91
2.19067	-91
2.19433	-91
2.19800	-90
2.20167	-90
2.20533	-90
2.20900	-90
2.21267	-89
2.21633	-88
2.22000	-88
2.22367	-87
2.22733	-86
2.23100	-85
2.23467	-85
2.23833	-85
2.24200	-85
2.24567	-85
2.24933	-84
2.25300	-85
2.25667	-85
2.26033	-85
2.26400	-85
2.26767	-84
2.27133	-84
2.27500	-84
2.27867	-84
2.28233	-84
2.28600	-84
2.28967	-84
2.29333	-83
2.29700	-83
2.30067	-82
2.30433	-81
2.30800	-81
2.31167	-80
2.31533	-80
2.31900	-80
2.32267	-81
2.32633	-81
2.33000	-81
2.33367	-81
2.33733	-80
2.34100	-80
2.34467	-79
2.34833	-78
2.35200	-77
2.35567	-76
2.35933	-75
2.36300	-74
2.36667	-73
2.37033	-71
2.37400	-69
2.37767	-67
2.38133	-64
2.38500	-60
2.38867	-57
2.39233	-53
2.39600	-48
2.39967	-43
2.40333	-39
2.40700	-34
2.41067	-30
2.41433	-26
2.41800	-22
2.42167	-19
2.42533	-17
2.42900	-15
2.43267	-13
2.43633	-12
2.44000	-11
2.44367	-10
2.44733	-10
2.45100	-9
2.45467	-8
2.45833	-7
2.46200	-6
2.46567	-5
2.46933	-4
2.47300	-3
2.47667	-2
2.48033	-1
2.48400	1
2.48767	2
2.49133	3
2.49500	4
2.49867	6
2.50233	7
2.50600	7
2.50967	8
2.51333	9
2.51700	10
2.52067	10
2.52433	11
2.52800	11
2.53167	12
2.53533	12
2.53900	12
2.54267	13
2.54633	13
2.55000	13
2.55367	14
2.55733	14
2.56100	14
2.56467	15
2.56833	15
2.57200	15
2.57567	15
2.57933	15
2.58300	15
2.58667	16
2.59033	16
2.59400	17
2.59767	18
2.60133	19
2.60500	20
2.60867	20
2.61233	21
2.61600	21
2.61967	21
2.62333	20
2.62700	20
2.63067	20
2.63433	21
2.63800	21
2.64167	21
2.64533	21
2.64900	21
2.65267	21
2.65633	21
2.66000	21
2.66367	21
2.66733	21
2.67100	21
2.67467	21
2.67833	21
2.68200	21
2.68567	22
2.68933	22
2.69300	22
2.69667	22
2.70033	22
2.70400	22
2.70767	22
2.71133	22
2.71500	22
2.71867	22
2.72233	23
2.72600	23
2.72967	23
2.73333	24
2.73700	24
2.74067	24
2.74433	25
2.74800	26
2.75167	26
2.75533	26
2.75900	27
2.76267	28
2.76633	28
2.77000	28
2.77367	28
2.77733	28
2.78100	27
2.78467	27
2.78833	26
2.79200	25
2.79567	25
2.79933	25
2.80300	24
2.80667	24
2.81033	24
2.81400	24
2.81767	24
2.82133	24
2.82500	24
2.82867	24
2.83233	24
2.83600	24
2.83967	23
2.84333	21
2.84700	17
2.85067	10
2.85433	0
2.85800	-14
2.86167	-32
2.86533	-56
2.86900	-85
2.87267	-119
2.87633	-159
2.88000	-205
2.88367	-255
2.88733	-311
2.89100	-371
2.89467	-435
2.89833	-503
2.90200	-575
2.90567	-649
2.90933	-726
2.91300	-806
2.91667	-888
2.92033	-971
2.92400	-1057
2.92767	-1143
2.93133	-1231
2.93500	-1321
2.93867	-1405
2.94233	-1472
2.94600	-1509
2.94967	-1511
2.95333	-1479
2.95700	-1416
2.96067	-1331
2.96433	-1231
2.96800	-1123
2.97167	-1012
2.97533	-904
2.97900	-801
2.98267	-704
2.98633	-615
2.99000	-535
2.99367	-463
2.99733	-399
3.00100	-343
3.00467	-294
3.00833	-252
3.01200	-215
3.01567	-183
3.01933	-156
3.02300	-132
3.02667	-112
3.03033	-94
3.03400	-79
3.03767	-67
3.04133	-56
3.04500	-46
3.04867	-38
3.05233	-31
3.05600	-25
3.05967	-20
3.06333	-15
3.06700	-11
3.07067	-8
3.07433	-5
3.07800	-2
3.08167	0
3.08533	2
3.08900	4
3.09267	5
3.09633	7
3.10000	8
3.10367	9
3.10733	9
3.11100	10
3.11467	11
3.11833	11
3.12200	12
3.12567	13
3.12933	13
3.13300	14
3.13667	14
3.14033	15
3.14400	15
3.14767	16
3.15133	16
3.15500	16
3.15867	17
3.16233	17
3.16600	17
3.16967	17
3.17333	17
3.17700	17
3.18067	17
3.18433	17
3.18800	18
3.19167	18
3.19533	18
3.19900	18
3.20267	19
3.20633	19
3.21000	20
3.21367	21
3.21733	21
3.22100	22
3.22467	22
3.22833	22
3.23200	23
3.23567	23
3.23933	23
3.24300	23
3.24667	23
3.25033	23
3.25400	23
3.25767	22
3.26133	22
3.26500	22
3.26867	22
3.27233	21
3.27600	21
3.27967	21
3.28333	21
3.28700	21
3.29067	21
3.29433	22
3.29800	22
3.30167	22
3.30533	23
3.30900	23
3.31267	23
3.31633	24
3.32000	24
3.32367	24
3.32733	24
3.33100	24
3.33467	24
3.33833	24
3.34200	25
3.34567	25
3.34933	25
3.35300	25
3.35667	26
3.36033	26
3.36400	26
3.36767	25
3.37133	25
3.37500	25
3.37867	25
3.38233	25
3.38600	25
3.38967	25
3.39333	25
3.39700	25
3.40067	25
3.40433	25
3.40800	25
3.41167	25
3.41533	26
3.41900	26
3.42267	26
3.42633	26
3.43000	27
3.43367	27
3.43733	28
3.44100	28
3.44467	28
3.44833	28
3.45200	29
3.45567	29
3.45933	29
3.46300	29
3.46667	29
3.47033	30
3.47400	29
3.47767	29
3.48133	29
3.48500	29
3.48867	29
3.49233	29
3.49600	29
3.49967	29
3.50333	29
3.50700	29
3.51067	29
3.51433	30
3.51800	30
3.52167	30
3.52533	30
3.52900	30
3.53267	29
3.53633	29
3.54000	29
3.54367	29
3.54733	29
3.55100	29
3.55467	29
3.55833	29
3.56200	28
3.56567	28
3.56933	28
3.57300	28
3.57667	28
3.58033	28
3.58400	28
3.58767	28
3.59133	28
3.59500	28
3.59867	28
3.60233	28
3.60600	27
3.60967	28
3.61333	28
3.61700	27
3.62067	27
3.62433	27
3.62800	27
3.63167	27
3.63533	27
3.63900	27
3.64267	27
3.64633	27
3.65000	27
3.65367	27
3.65733	27
3.66100	26
3.66467	26
3.66833	26
3.67200	26
3.67567	25
3.67933	25
3.68300	25
3.68667	25
3.69033	26
3.69400	26
3.69767	26
3.70133	26
3.70500	26
3.70867	26
3.71233	26
3.71600	26
3.71967	26
3.72333	25
3.72700	25
3.73067	25
3.73433	25
3.73800	25
3.74167	25
3.74533	24
3.74900	24
3.75267	25
3.75633	25
3.76000	25
3.76367	25
3.76733	26
3.77100	26
3.77467	27
3.77833	27
3.78200	27
3.78567	28
3.78933	28
3.79300	28
3.79667	28
3.80033	28
3.80400	28
3.80767	27
3.81133	27
3.81500	27
3.81867	26
3.82233	26
3.82600	26
3.82967	26
3.83333	25
3.83700	25
3.84067	25
3.84433	25
3.84800	25
3.85167	25
3.85533	25
3.85900	25
3.86267	26
3.86633	26
3.87000	27
3.87367	27
3.87733	27
3.88100	27
3.88467	27
3.88833	28
3.89200	27
3.89567	27
3.89933	27
3.90300	27
3.90667	27
3.91033	27
3.91400	27
3.91767	27
3.92133	27
3.92500	28
3.92867	28
3.93233	28
3.93600	28
3.93967	28
3.94333	28
3.94700	28
3.95067	28
3.95433	28
3.95800	28
3.96167	28
3.96533	28
3.96900	28
3.97267	27
3.97633	27
3.98000	27
3.98367	27
3.98733	27
3.99100	27
3.99467	28
3.99833	28

[Chromatogram (Ch3)]
Interval(msec)	220
# of Points	1091
Start Time(min)	0.002
End Time(min)	3.998
R.Time (min)	Intensity
0.00167	-0
0.00533	-1
0.00900	-1
0.01267	0
0.01633	2
0.02000	4
0.02367	5
0.02733	5
0.03100	3
0.03467	1
0.03833	1
0.04200	2
0.04567	3
0.04933	2
0.05300	0
0.05667	-1
0.06033	-0
0.06400	0
0.06767	-2
0.07133	-3
0.07500	-2
0.07867	-0
0.08233	0
0.08600	2
0.08967	4
0.09333	6
0.09700	5
0.10067	6
0.10433	8
0.10800	8
0.11167	5
0.11533	3
0.11900	2
0.12267	3
0.12633	6
0.13000	5
0.13367	1
0.13733	1
0.14100	3
0.14467	3
0.14833	3
0.15200	3
0.15567	3
0.15933	1
0.16300	2
0.16667	2
0.17033	1
0.17400	1
0.17767	3
0.18133	4
0.18500	4
0.18867	2
0.19233	-1
0.19600	-2
0.19967	-2
0.20333	-2
0.20700	-0
0.21067	0
0.21433	0
0.21800	0
0.22167	-1
0.22533	-0
0.22900	0
0.23267	1
0.23633	1
0.24000	2
0.24367	6
0.24733	6
0.25100	3
0.25467	1
0.25833	1
0.26200	3
0.26567	4
0.26933	4
0.27300	3
0.27667	3
0.28033	3
0.28400	3
0.28767	4
0.29133	3
0.29500	1
0.29867	3
0.30233	5
0.30600	6
0.30967	5
0.31333	5
0.31700	5
0.32067	6
0.32433	8
0.32800	9
0.33167	9
0.33533	8
0.33900	8
0.34267	8
0.34633	8
0.35000	7
0.35367	7
0.35733	7
0.36100	4
0.36467	1
0.36833	1
0.37200	4
0.37567	5
0.37933	6
0.38300	7
0.38667	7
0.39033	8
0.39400	10
0.39767	12
0.40133	12
0.40500	10
0.40867	9
0.41233	9
0.41600	10
0.41967	11
0.42333	8
0.42700	5
0.43067	5
0.43433	6
0.43800	5
0.44167	5
0.44533	6
0.44900	7
0.45267	6
0.45633	3
0.46000	2
0.46367	1
0.46733	4
0.47100	5
0.47467	5
0.47833	4
0.48200	4
0.48567	5
0.48933	6
0.49300	4
0.49667	0
0.50033	-2
0.50400	-2
0.50767	-1
0.51133	1
0.51500	3
0.51867	6
0.52233	7
0.52600	7
0.52967	5
0.53333	2
0.53700	2
0.54067	1
0.54433	2
0.54800	4
0.55167	5
0.55533	6
0.55900	8
0.56267	10
0.56633	10
0.57000	7
0.57367	4
0.57733	3
0.58100	1
0.58467	1
0.58833	0
0.59200	-0
0.59567	2
0.59933	4
0.60300	5
0.60667	5
0.61033	5
0.61400	4
0.61767	3
0.62133	3
0.62500	4
0.62867	4
0.63233	3
0.63600	2
0.63967	2
0.64333	4
0.64700	6
0.65067	7
0.65433	7
0.65800	6
0.66167	5
0.66533	6
0.66900	4
0.67267	2
0.67633	-2
0.68000	-5
0.68367	-7
0.68733	-7
0.69100	-5
0.69467	-5
0.69833	-4
0.70200	-2
0.70567	-0
0.70933	2
0.71300	4
0.71667	5
0.72033	4
0.72400	2
0.72767	5
0.73133	9
0.73500	9
0.73867	6
0.74233	5
0.74600	4
0.74967	1
0.75333	-3
0.75700	-4
0.76067	-1
0.76433	-0
0.76800	-1
0.77167	-1
0.77533	1
0.77900	3
0.78267	3
0.78633	5
0.79000	6
0.79367	8
0.79733	10
0.80100	10
0.80467	8
0.80833	7
0.81200	7
0.81567	6
0.81933	6
0.82300	6
0.82667	7
0.83033	8
0.83400	10
0.83767	9
0.84133	10
0.84500	12
0.84867	14
0.85233	15
0.85600	14
0.85967	13
0.86333	12
0.86700	11
0.87067	10
0.87433	9
0.87800	6
0.88167	6
0.88533	6
0.88900	6
0.89267	4
0.89633	3
0.90000	2
0.90367	4
0.90733	6
0.91100	6
0.91467	5
0.91833	7
0.92200	8
0.92567	9
0.92933	8
0.93300	9
0.93667	10
0.94033	12
0.94400	12
0.94767	11
0.95133	9
0.95500	8
0.95867	9
0.96233	10
0.96600	9
0.96967	11
0.97333	10
0.97700	9
0.98067	8
0.98433	7
0.98800	9
0.99167	10
0.99533	10
0.99900	13
1.00267	16
1.00633	16
1.01000	15
1.01367	13
1.01733	12
1.02100	13
1.02467	12
1.02833	8
1.03200	5
1.03567	4
1.03933	6
1.04300	7
1.04667	9
1.05033	10
1.05400	12
1.05767	14
1.06133	14
1.06500	14
1.06867	14
1.07233	14
1.07600	16
1.07967	16
1.08333	15
1.08700	12
1.09067	11
1.09433	11
1.09800	10
1.10167	9
1.10533	8
1.10900	6
1.11267	7
1.11633	5
1.12000	5
1.12367	4
1.12733	3
1.13100	4
1.13467	5
1.13833	4
1.14200	4
1.14567	6
1.14933	8
1.15300	8
1.15667	8
1.16033	7
1.16400	7
1.16767	9
1.17133	11
1.17500	14
1.17867	17
1.18233	18
1.18600	16
1.18967	13
1.19333	12
1.19700	11
1.20067	10
1.20433	9
1.20800	9
1.21167	10
1.21533	10
1.21900	9
1.22267	8
1.22633	9
1.23000	9
1.23367	10
1.23733	12
1.24100	14
1.24467	13
1.24833	11
1.25200	10
1.25567	8
1.25933	7
1.26300	6
1.26667	7
1.27033	7
1.27400	7
1.27767	6
1.28133	6
1.28500	7
1.28867	9
1.29233	12
1.29600	12
1.29967	10
1.30333	9
1.30700	10
1.31067	11
1.31433	13
1.31800	14
1.32167	12
1.32533	9
1.32900	8
1.33267	11
1.33633	14
1.34000	13
1.34367	11
1.34733	9
1.35100	7
1.35467	8
1.35833	9
1.36200	10
1.36567	12
1.36933	12
1.37300	13
1.37667	12
1.38033	8
1.38400	8
1.38767	7
1.39133	7
1.39500	8
1.39867	8
1.40233	6
1.40600	5
1.40967	3
1.41333	4
1.41700	8
1.42067	10
1.42433	10
1.42800	8
1.43167	8
1.43533	10
1.43900	12
1.44267	13
1.44633	11
1.45000	11
1.45367	10
1.45733	10
1.46100	9
1.46467	8
1.46833	8
1.47200	8
1.47567	8
1.47933	9
1.48300	9
1.48667	10
1.49033	10
1.49400	10
1.49767	10
1.50133	10
1.50500	9
1.50867	8
1.51233	9
1.51600	11
1.51967	13
1.52333	12
1.52700	10
1.53067	9
1.53433	9
1.53800	8
1.54167	7
1.54533	5
1.54900	6
1.55267	5
1.55633	4
1.56000	4
1.56367	4
1.56733	2
1.57100	2
1.57467	3
1.57833	5
1.58200	7
1.58567	10
1.58933	11
1.59300	10
1.59667	7
1.60033	7
1.60400	8
1.60767	10
1.61133	11
1.61500	10
1.61867	9
1.62233	8
1.62600	9
1.62967	12
1.63333	13
1.63700	13
1.64067	13
1.64433	13
1.64800	12
1.65167	13
1.65533	13
1.65900	13
1.66267	14
1.66633	14
1.67000	14
1.67367	13
1.67733	12
1.68100	15
1.68467	18
1.68833	19
1.69200	19
1.69567	19
1.69933	19
1.70300	21
1.70667	21
1.71033	20
1.71400	22
1.71767	23
1.72133	22
1.72500	20
1.72867	20
1.73233	20
1.73600	20
1.73967	20
1.74333	20
1.74700	22
1.75067	24
1.75433	23
1.75800	22
1.76167	21
1.76533	21
1.76900	20
1.77267	18
1.77633	19
1.78000	21
1.78367	23
1.78733	25
1.79100	26
1.79467	27
1.79833	27
1.80200	25
1.80567	26
1.80933	27
1.81300	27
1.81667	26
1.82033	27
1.82400	30
1.82767	30
1.83133	30
1.83500	30
1.83867	32
1.84233	33
1.84600	33
1.84967	32
1.85333	32
1.85700	32
1.86067	32
1.86433	33
1.86800	34
1.87167	36
1.87533	37
1.87900	36
1.88267	35
1.88633	34
1.89000	32
1.89367	33
1.89733	35
1.90100	35
1.90467	35
1.90833	38
1.91200	42
1.91567	44
1.91933	42
1.92300	40
1.92667	40
1.93033	41
1.93400	43
1.93767	44
1.94133	45
1.94500	46
1.94867	47
1.95233	46
1.95600	45
1.95967	45
1.96333	44
1.96700	43
1.97067	44
1.97433	45
1.97800	47
1.98167	48
1.98533	47
1.98900	47
1.99267	49
1.99633	50
2.00000	52
2.00367	52
2.00733	54
2.01100	57
2.01467	60
2.01833	61
2.02200	60
2.02567	59
2.02933	60
2.03300	62
2.03667	64
2.04033	64
2.04400	65
2.04767	67
2.05133	67
2.05500	66
2.05867	67
2.06233	68
2.06600	71
2.06967	74
2.07333	73
2.07700	70
2.08067	68
2.08433	68
2.08800	72
2.09167	74
2.09533	75
2.09900	76
2.10267	77
2.10633	79
2.11000	82
2.11367	82
2.11733	80
2.12100	79
2.12467	80
2.12833	82
2.13200	85
2.13567	84
2.13933	84
2.14300	84
2.14667	86
2.15033	88
2.15400	88
2.15767	88
2.16133	88
2.16500	91
2.16867	93
2.17233	94
2.17600	95
2.17967	97
2.18333	100
2.18700	103
2.19067	105
2.19433	107
2.19800	108
2.20167	111
2.20533	115
2.20900	117
2.21267	117
2.21633	118
2.22000	118
2.22367	117
2.22733	118
2.23100	121
2.23467	124
2.23833	124
2.24200	125
2.24567	125
2.24933	127
2.25300	127
2.25667	127
2.26033	128
2.26400	131
2.26767	133
2.27133	134
2.27500	136
2.27867	139
2.28233	142
2.28600	142
2.28967	143
2.29333	144
2.29700	145
2.30067	145
2.30433	147
2.30800	148
2.31167	152
2.31533	156
2.31900	160
2.32267	163
2.32633	164
2.33000	163
2.33367	164
2.33733	163
2.34100	162
2.34467	163
2.34833	165
2.35200	167
2.35567	170
2.35933	173
2.36300	176
2.36667	180
2.37033	183
2.37400	185
2.37767	187
2.38133	188
2.38500	190
2.38867	190
2.39233	189
2.39600	191
2.39967	195
2.40333	201
2.40700	205
2.41067	207
2.41433	212
2.41800	216
2.42167	216
2.42533	217
2.42900	218
2.43267	220
2.43633	224
2.44000	228
2.44367	274
2.44733	396
2.45100	530
2.45467	646
2.45833	722
2.46200	742
2.46567	723
2.46933	694
2.47300	673
2.47667	659
2.48033	649
2.48400	634
2.48767	609
2.49133	579
2.49500	546
2.49867	516
2.50233	493
2.50600	476
2.50967	465
2.51333	462
2.51700	467
2.52067	477
2.52433	496
2.52800	515
2.53167	529
2.53533	535
2.53900	533
2.54267	520
2.54633	502
2.55000	479
2.55367	457
2.55733	437
2.56100	420
2.56467	405
2.56833	393
2.57200	384
2.57567	377
2.57933	374
2.58300	372
2.58667	373
2.59033	372
2.59400	369
2.59767	365
2.60133	357
2.60500	345
2.60867	332
2.61233	318
2.61600	303
2.61967	289
2.62333	276
2.62700	264
2.63067	255
2.63433	251
2.63800	249
2.64167	251
2.64533	256
2.64900	260
2.65267	266
2.65633	271
2.66000	275
2.66367	279
2.66733	282
2.67100	283
2.67467	280
2.67833	274
2.68200	269
2.68567	266
2.68933	263
2.69300	259
2.69667	255
2.70033	250
2.70400	249
2.70767	247
2.71133	242
2.71500	240
2.71867	236
2.72233	233
2.72600	230
2.72967	228
2.73333	228
2.73700	233
2.74067	237
2.74433	240
2.74800	244
2.75167	245
2.75533	245
2.75900	245
2.76267	246
2.76633	248
2.77000	249
2.77367	248
2.77733	250
2.78100	251
2.78467	251
2.78833	253
2.79200	255
2.79567	255
2.79933	256
2.80300	258
2.80667	260
2.81033	260
2.81400	266
2.81767	280
2.82133	313
2.82500	392
2.82867	561
2.83233	881
2.83600	1418
2.83967	2229
2.84333	3345
2.84700	4761
2.85067	6423
2.85433	8239
2.85800	10076
2.86167	11794
2.86533	13256
2.86900	14358
2.87267	15040
2.87633	15285
2.88000	15128
2.88367	14641
2.88733	13900
2.89100	12984
2.89467	11966
2.89833	10910
2.90200	9862
2.90567	8852
2.90933	7906
2.91300	7030
2.91667	6232
2.92033	5510
2.92400	4862
2.92767	4285
2.93133	3775
2.93500	3326
2.93867	2930
2.94233	2580
2.94600	2277
2.94967	2011
2.95333	1779
2.95700	1576
2.96067	1402
2.96433	1247
2.96800	1113
2.97167	999
2.97533	901
2.97900	815
2.98267	738
2.98633	671
2.99000	613
2.99367	565
2.99733	525
3.00100	490
3.00467	455
3.00833	425
3.01200	402
3.01567	384
3.01933	365
3.02300	347
3.02667	331
3.03033	317
3.03400	305
3.03767	295
3.04133	288
3.04500	281
3.04867	276
3.05233	270
3.05600	262
3.05967	257
3.06333	254
3.06700	250
3.07067	246
3.07433	243
3.07800	241
3.08167	241
3.08533	240
3.08900	238
3.09267	237
3.09633	236
3.10000	232
3.10367	231
3.10733	229
3.11100	227
3.11467	227
3.11833	228
3.12200	229
3.12567	230
3.12933	231
3.13300	229
3.13667	229
3.14033	229
3.14400	227
3.14767	226
3.15133	226
3.15500	226
3.15867	227
3.16233	227
3.16600	227
3.16967	224
3.17333	212
3.17700	180
3.18067	139
3.18433	118
3.18800	124
3.19167	150
3.19533	187
3.19900	230
3.20267	275
3.20633	318
3.21000	357
3.21367	393
3.21733	428
3.22100	458
3.22467	483
3.22833	505
3.23200	523
3.23567	539
3.23933	550
3.24300	559
3.24667	567
3.25033	577
3.25400	587
3.25767	595
3.26133	601
3.26500	604
3.26867	608
3.27233	612
3.27600	617
3.27967	621
3.28333	625
3.28700	630
3.29067	635
3.29433	640
3.29800	642
3.30167	644
3.30533	646
3.30900	650
3.31267	655
3.31633	660
3.32000	663
3.32367	664
3.32733	667
3.33100	673
3.33467	678
3.33833	683
3.34200	688
3.34567	692
3.34933	697
3.35300	701
3.35667	706
3.36033	708
3.36400	712
3.36767	714
3.37133	716
3.37500	715
3.37867	717
3.38233	720
3.38600	726
3.38967	732
3.39333	735
3.39700	737
3.40067	739
3.40433	742
3.40800	744
3.41167	741
3.41533	740
3.41900	743
3.42267	744
3.42633	743
3.43000	742
3.43367	740
3.43733	739
3.44100	739
3.44467	737
3.44833	734
3.45200	730
3.45567	726
3.45933	725
3.46300	722
3.46667	718
3.47033	715
3.47400	713
3.47767	710
3.48133	709
3.48500	705
3.48867	702
3.49233	699
3.49600	697
3.49967	695
3.50333	695
3.50700	695
3.51067	695
3.51433	693
3.51800	691
3.52167	690
3.52533	687
3.52900	686
3.53267	683
3.53633	680
3.54000	679
3.54367	678
3.54733	678
3.55100	677
3.55467	674
3.55833	672
3.56200	669
3.56567	668
3.56933	666
3.57300	665
3.57667	665
3.58033	664
3.58400	663
3.58767	663
3.59133	664
3.59500	666
3.59867	662
3.60233	657
3.60600	653
3.60967	651
3.61333	649
3.61700	647
3.62067	645
3.62433	645
3.62800	649
3.63167	651
3.63533	652
3.63900	651
3.64267	648
3.64633	647
3.65000	647
3.65367	647
3.65733	649
3.66100	649
3.66467	647
3.66833	647
3.67200	648
3.67567	651
3.67933	653
3.68300	651
3.68667	647
3.69033	644
3.69400	642
3.69767	641
3.70133	641
3.70500	640
3.70867	639
3.71233	639
3.71600	639
3.71967	638
3.72333	639
3.72700	641
3.73067	644
3.73433	644
3.73800	644
3.74167	645
3.74533	645
3.74900	644
3.75267	645
3.75633	645
3.76000	643
3.76367	643
3.76733	643
3.77100	640
3.77467	639
3.77833	638
3.78200	640
3.78567	642
3.78933	645
3.79300	647
3.79667	645
3.80033	644
3.80400	641
3.80767	637
3.81133	635
3.81500	633
3.81867	630
3.82233	628
3.82600	629
3.82967	629
3.83333	630
3.83700	630
3.84067	630
3.84433	631
3.84800	631
3.85167	633
3.85533	631
3.85900	630
3.86267	628
3.86633	625
3.87000	623
3.87367	620
3.87733	618
3.88100	616
3.88467	616
3.88833	616
3.89200	615
3.89567	615
3.89933	616
3.90300	613
3.90667	612
3.91033	610
3.91400	608
3.91767	607
3.92133	605
3.92500	604
3.92867	603
3.93233	602
3.93600	603
3.93967	603
3.94333	600
3.94700	599
3.95067	599
3.95433	599
3.95800	598
3.96167	597
3.96533	595
3.96900	591
3.97267	589
3.97633	587
3.98000	586
3.98367	584
3.98733	582
3.99100	581
3.99467	580
3.99833	577

[Status Trace (Column Oven Temperature)]
Interval(msec)	1000
# of Points	240
Start Time(min)	0.001
End Time(min)	3.984
Intensity Units	
Intensity Multiplier	1
R.Time (min)	Intensity
0.00078	35.03
0.01745	35.02
0.03412	35.00
0.05078	34.99
0.06745	35.00
0.08412	35.02
0.10078	35.02
0.11745	35.02
0.13412	35.03
0.15078	35.03
0.16745	35.01
0.18412	35.00
0.20078	35.00
0.21745	35.00
0.23412	34.99
0.25078	35.01
0.26745	35.01
0.28412	35.00
0.30078	35.02
0.31745	35.03
0.33412	35.02
0.35078	35.01
0.36745	35.01
0.38412	35.00
0.40078	35.01
0.41745	35.00
0.43412	35.01
0.45078	35.03
0.46745	35.04
0.48412	35.03
0.50078	35.01
0.51745	35.01
0.53412	35.00
0.55078	35.00
0.56745	35.01
0.58412	35.00
0.60078	35.00
0.61745	34.99
0.63412	34.99
0.65078	34.99
0.66745	35.00
0.68412	35.01
0.70078	35.01
0.71745	35.00
0.73412	34.99
0.75078	34.98
0.76745	34.97
0.78412	34.97
0.80078	34.98
0.81745	34.97
0.83412	34.97
0.85078	34.97
0.86745	34.97
0.88412	34.98
0.90078	35.00
0.91745	35.00
0.93412	35.00
0.95078	35.00
0.96745	34.98
0.98412	34.98
1.00078	34.98
1.01745	34.98
1.03412	34.98
1.05078	34.99
1.06745	34.99
1.08412	34.99
1.10078	34.99
1.11745	34.97
1.13412	34.98
1.15078	35.00
1.16745	35.00
1.18412	35.02
1.20078	35.01
1.21745	35.02
1.23412	35.04
1.25078	35.04
1.26745	35.02
1.28412	35.01
1.30078	35.00
1.31745	34.99
1.33412	34.99
1.35078	35.00
1.36745	35.01
1.38412	35.02
1.40078	35.01
1.41745	35.01
1.43412	35.00
1.45078	35.00
1.46745	34.98
1.48412	34.97
1.50078	34.95
1.51745	34.95
1.53412	34.95
1.55078	34.96
1.56745	34.97
1.58412	34.98
1.60078	35.03
1.61745	35.12
1.63412	35.28
1.65078	35.50
1.66745	35.82
1.68412	36.19
1.70078	36.54
1.71745	36.89
1.73412	37.21
1.75078	37.52
1.76745	37.86
1.78412	38.19
1.80078	38.54
1.81745	38.88
1.83412	39.19
1.85078	39.53
1.86745	39.87
1.88412	40.19
1.90078	40.52
1.91745	40.84
1.93412	41.16
1.95078	41.49
1.96745	41.82
1.98412	42.15
2.00078	42.48
2.01745	42.81
2.03412	43.12
2.05078	43.45
2.06745	43.77
2.08412	44.11
2.10078	44.45
2.11745	44.76
2.13412	45.06
2.15078	45.37
2.16745	45.70
2.18412	46.05
2.20078	46.38
2.21745	46.69
2.23412	47.01
2.25078	47.35
2.26745	47.67
2.28412	48.02
2.30078	48.34
2.31745	48.69
2.33412	49.01
2.35078	49.32
2.36745	49.58
2.38412	49.73
2.40078	49.75
2.41745	49.74
2.43412	49.75
2.45078	49.75
2.46745	49.76
2.48412	49.76
2.50078	49.77
2.51745	49.77
2.53412	49.79
2.55078	49.80
2.56745	49.82
2.58412	49.83
2.60078	49.82
2.61745	49.82
2.63412	49.82
2.65078	49.83
2.66745	49.84
2.68412	49.84
2.70078	49.87
2.71745	49.87
2.73412	49.87
2.75078	49.85
2.76745	49.85
2.78412	49.87
2.80078	49.89
2.81745	49.90
2.83412	49.92
2.85078	49.92
2.86745	49.93
2.88412	49.94
2.90078	49.95
2.91745	49.94
2.93412	49.94
2.95078	49.94
2.96745	49.94
2.98412	49.94
3.00078	49.95
3.01745	49.97
3.03412	50.00
3.05078	50.00
3.06745	50.01
3.08412	50.01
3.10078	50.02
3.11745	50.03
3.13412	50.02
3.15078	50.02
3.16745	50.02
3.18412	50.04
3.20078	50.04
3.21745	50.04
3.23412	50.04
3.25078	50.05
3.26745	50.07
3.28412	50.09
3.30078	50.09
3.31745	50.10
3.33412	50.10
3.35078	50.09
3.36745	50.10
3.38412	50.11
3.40078	50.10
3.41745	50.09
3.43412	50.08
3.45078	50.06
3.46745	50.04
3.48412	50.03
3.50078	50.02
3.51745	50.01
3.53412	50.01
3.55078	50.00
3.56745	50.01
3.58412	50.00
3.60078	50.01
3.61745	50.01
3.63412	50.01
3.65078	50.03
3.66745	50.04
3.68412	50.04
3.70078	50.04
3.71745	50.06
3.73412	50.08
3.75078	50.08
3.76745	50.08
3.78412	50.06
3.80078	50.07
3.81745	50.07
3.83412	50.08
3.85078	50.10
3.86745	50.08
3.88412	50.08
3.90078	50.09
3.91745	50.08
3.93412	50.07
3.95078	50.07
3.96745	50.09
3.98412	50.09

[Status Trace (Injection Unit Temperature)]
Interval(msec)	1000
# of Points	240
Start Time(min)	0.001
End Time(min)	3.984
Intensity Units	
Intensity Multiplier	1
R.Time (min)	Intensity
0.00078	99.98
0.01745	99.98
0.03412	99.97
0.05078	99.98
0.06745	99.97
0.08412	99.97
0.10078	99.98
0.11745	99.98
0.13412	99.98
0.15078	99.98
0.16745	99.98
0.18412	99.98
0.20078	99.98
0.21745	99.98
0.23412	99.98
0.25078	99.98
0.26745	99.98
0.28412	99.98
0.30078	99.98
0.31745	99.99
0.33412	99.97
0.35078	99.99
0.36745	99.98
0.38412	99.98
0.40078	99.98
0.41745	99.98
0.43412	99.98
0.45078	99.98
0.46745	99.98
0.48412	99.98
0.50078	99.98
0.51745	99.98
0.53412	99.98
0.55078	99.98
0.56745	99.98
0.58412	99.98
0.60078	99.98
0.61745	99.98
0.63412	99.98
0.65078	99.98
0.66745	99.98
0.68412	99.98
0.70078	99.98
0.71745	99.98
0.73412	99.97
0.75078	99.98
0.76745	99.98
0.78412	99.97
0.80078	99.98
0.81745	99.98
0.83412	99.98
0.85078	99.98
0.86745	99.98
0.88412	99.98
0.90078	99.98
0.91745	99.98
0.93412	99.98
0.95078	99.98
0.96745	99.98
0.98412	99.98
1.00078	99.98
1.01745	99.98
1.03412	99.98
1.05078	99.98
1.06745	99.98
1.08412	99.98
1.10078	99.97
1.11745	99.98
1.13412	99.98
1.15078	99.98
1.16745	99.97
1.18412	99.98
1.20078	99.98
1.21745	99.98
1.23412	99.98
1.25078	99.98
1.26745	99.98
1.28412	99.98
1.30078	99.98
1.31745	99.98
1.33412	99.98
1.35078	99.98
1.36745	99.98
1.38412	99.98
1.40078	99.98
1.41745	99.98
1.43412	99.98
1.45078	99.98
1.46745	99.99
1.48412	99.98
1.50078	99.98
1.51745	99.98
1.53412	99.99
1.55078	99.98
1.56745	99.98
1.58412	99.98
1.60078	99.98
1.61745	99.98
1.63412	99.98
1.65078	99.98
1.66745	99.98
1.68412	99.97
1.70078	99.98
1.71745	99.99
1.73412	99.98
1.75078	99.98
1.76745	99.99
1.78412	99.98
1.80078	99.98
1.81745	99.97
1.83412	99.98
1.85078	99.98
1.86745	99.98
1.88412	99.98
1.90078	99.98
1.91745	99.98
1.93412	99.98
1.95078	99.98
1.96745	99.97
1.98412	99.97
2.00078	99.97
2.01745	99.97
2.03412	99.97
2.05078	99.97
2.06745	99.97
2.08412	99.96
2.10078	99.98
2.11745	99.98
2.13412	99.97
2.15078	99.97
2.16745	99.97
2.18412	99.97
2.20078	99.97
2.21745	99.97
2.23412	99.97
2.25078	99.97
2.26745	99.97
2.28412	99.97
2.30078	99.97
2.31745	99.97
2.33412	99.97
2.35078	99.97
2.36745	99.97
2.38412	99.97
2.40078	99.97
2.41745	99.97
2.43412	99.97
2.45078	99.97
2.46745	99.97
2.48412	99.97
2.50078	99.97
2.51745	99.96
2.53412	99.97
2.55078	99.97
2.56745	99.97
2.58412	99.97
2.60078	99.97
2.61745	99.98
2.63412	99.98
2.65078	99.98
2.66745	99.98
2.68412	99.98
2.70078	99.98
2.71745	99.99
2.73412	99.99
2.75078	99.99
2.76745	99.99
2.78412	99.99
2.80078	99.99
2.81745	99.99
2.83412	99.99
2.85078	100.00
2.86745	99.99
2.88412	100.00
2.90078	99.99
2.91745	100.00
2.93412	100.00
2.95078	100.00
2.96745	100.00
2.98412	100.01
3.00078	100.01
3.01745	100.01
3.03412	100.01
3.05078	100.01
3.06745	100.01
3.08412	100.02
3.10078	100.02
3.11745	100.02
3.13412	100.02
3.15078	100.02
3.16745	100.01
3.18412	100.02
3.20078	100.02
3.21745	100.02
3.23412	100.02
3.25078	100.02
3.26745	100.02
3.28412	100.02
3.30078	100.03
3.31745	100.03
3.33412	100.03
3.35078	100.03
3.36745	100.03
3.38412	100.03
3.40078	100.03
3.41745	100.03
3.43412	100.03
3.45078	100.04
3.46745	100.04
3.48412	100.04
3.50078	100.04
3.51745	100.04
3.53412	100.04
3.55078	100.04
3.56745	100.03
3.58412	100.04
3.60078	100.04
3.61745	100.04
3.63412	100.04
3.65078	100.04
3.66745	100.04
3.68412	100.04
3.70078	100.04
3.71745	100.04
3.73412	100.04
3.75078	100.04
3.76745	100.04
3.78412	100.04
3.80078	100.04
3.81745	100.05
3.83412	100.04
3.85078	100.04
3.86745	100.04
3.88412	100.04
3.90078	100.04
3.91745	100.04
3.93412	100.04
3.95078	100.05
3.96745	100.05
3.98412	100.04

[Status Trace (Carrier Gas Pressure)]
Interval(msec)	1000
# of Points	240
Start Time(min)	0.001
End Time(min)	3.984
Intensity Units	
Intensity Multiplier	1
R.Time (min)	Intensity
0.00078	58.00
0.01745	56.51
0.03412	56.02
0.05078	58.36
0.06745	59.91
0.08412	58.44
0.10078	57.97
0.11745	58.00
0.13412	58.01
0.15078	58.01
0.16745	58.00
0.18412	58.00
0.20078	58.00
0.21745	58.00
0.23412	58.00
0.25078	58.00
0.26745	58.00
0.28412	58.00
0.30078	58.00
0.31745	58.00
0.33412	58.00
0.35078	58.00
0.36745	58.00
0.38412	58.00
0.40078	58.00
0.41745	58.00
0.43412	58.00
0.45078	58.00
0.46745	58.00
0.48412	58.00
0.50078	58.00
0.51745	58.00
0.53412	58.00
0.55078	58.00
0.56745	58.00
0.58412	58.00
0.60078	58.00
0.61745	58.00
0.63412	58.00
0.65078	58.00
0.66745	58.00
0.68412	58.00
0.70078	58.00
0.71745	58.00
0.73412	58.00
0.75078	58.00
0.76745	58.00
0.78412	58.00
0.80078	58.00
0.81745	58.00
0.83412	58.00
0.85078	58.00
0.86745	58.00
0.88412	58.00
0.90078	58.00
0.91745	58.00
0.93412	58.00
0.95078	58.00
0.96745	58.00
0.98412	58.00
1.00078	58.00
1.01745	58.00
1.03412	58.00
1.05078	58.00
1.06745	58.00
1.08412	58.00
1.10078	58.00
1.11745	58.00
1.13412	58.00
1.15078	58.00
1.16745	58.00
1.18412	58.00
1.20078	58.00
1.21745	58.00
1.23412	58.00
1.25078	58.00
1.26745	58.00
1.28412	58.00
1.30078	58.00
1.31745	58.00
1.33412	58.00
1.35078	58.00
1.36745	58.00
1.38412	58.00
1.40078	58.00
1.41745	58.00
1.43412	58.00
1.45078	58.00
1.46745	58.00
1.48412	58.00
1.50078	58.00
1.51745	58.00
1.53412	58.00
1.55078	58.00
1.56745	58.00
1.58412	58.00
1.60078	58.00
1.61745	58.00
1.63412	58.00
1.65078	58.01
1.66745	58.01
1.68412	58.01
1.70078	58.00
1.71745	58.00
1.73412	58.00
1.75078	58.00
1.76745	58.00
1.78412	58.00
1.80078	58.00
1.81745	58.00
1.83412	58.00
1.85078	58.00
1.86745	58.00
1.88412	58.00
1.90078	58.00
1.91745	58.00
1.93412	58.00
1.95078	58.00
1.96745	58.00
1.98412	58.00
2.00078	58.00
2.01745	58.00
2.03412	58.00
2.05078	58.00
2.06745	58.00
2.08412	58.00
2.10078	58.00
2.11745	58.00
2.13412	58.00
2.15078	58.00
2.16745	58.00
2.18412	58.00
2.20078	58.00
2.21745	58.00
2.23412	58.00
2.25078	58.00
2.26745	58.00
2.28412	58.00
2.30078	58.00
2.31745	58.00
2.33412	58.00
2.35078	58.00
2.36745	58.00
2.38412	57.99
2.40078	57.99
2.41745	58.00
2.43412	58.00
2.45078	58.00
2.46745	58.00
2.48412	58.00
2.50078	58.00
2.51745	57.99
2.53412	57.99
2.55078	58.00
2.56745	58.00
2.58412	58.00
2.60078	58.00
2.61745	58.00
2.63412	58.00
2.65078	58.00
2.66745	58.00
2.68412	58.00
2.70078	58.00
2.71745	58.00
2.73412	58.00
2.75078	58.00
2.76745	58.00
2.78412	58.00
2.80078	58.00
2.81745	58.00
2.83412	58.00
2.85078	58.00
2.86745	58.00
2.88412	58.00
2.90078	58.00
2.91745	58.00
2.93412	58.00
2.95078	58.00
2.96745	58.00
2.98412	58.00
3.00078	58.00
3.01745	58.00
3.03412	58.00
3.05078	58.00
3.06745	58.00
3.08412	58.00
3.10078	58.00
3.11745	58.00
3.13412	58.00
3.15078	58.00
3.16745	58.00
3.18412	58.00
3.20078	58.00
3.21745	58.00
3.23412	58.00
3.25078	58.00
3.26745	58.00
3.28412	58.00
3.30078	58.00
3.31745	58.00
3.33412	58.00
3.35078	58.00
3.36745	58.00
3.38412	58.00
3.40078	58.00
3.41745	58.00
3.43412	58.00
3.45078	58.00
3.46745	58.00
3.48412	58.00
3.50078	58.00
3.51745	58.00
3.53412	58.00
3.55078	58.00
3.56745	58.00
3.58412	58.00
3.60078	58.00
3.61745	58.00
3.63412	58.00
3.65078	58.00
3.66745	58.00
3.68412	58.00
3.70078	58.00
3.71745	58.00
3.73412	58.00
3.75078	58.00
3.76745	58.00
3.78412	58.00
3.80078	58.00
3.81745	58.00
3.83412	58.00
3.85078	58.00
3.86745	58.00
3.88412	58.00
3.90078	58.00
3.91745	58.00
3.93412	58.00
3.95078	58.00
3.96745	58.00
3.98412	58.00

[Status Trace (Carrier Gas Flow)]
Interval(msec)	1000
# of Points	240
Start Time(min)	0.001
End Time(min)	3.984
Intensity Units	
Intensity Multiplier	1
R.Time (min)	Intensity
0.00078	34.52
0.01745	34.19
0.03412	34.54
0.05078	34.55
0.06745	34.50
0.08412	34.51
0.10078	34.52
0.11745	34.52
0.13412	34.52
0.15078	34.52
0.16745	34.52
0.18412	34.52
0.20078	34.52
0.21745	34.52
0.23412	34.51
0.25078	34.52
0.26745	34.52
0.28412	34.52
0.30078	34.52
0.31745	34.52
0.33412	34.52
0.35078	34.53
0.36745	34.52
0.38412	34.52
0.40078	34.52
0.41745	34.52
0.43412	34.52
0.45078	34.52
0.46745	34.51
0.48412	34.52
0.50078	34.52
0.51745	34.52
0.53412	34.52
0.55078	34.52
0.56745	34.52
0.58412	34.52
0.60078	34.52
0.61745	34.52
0.63412	34.52
0.65078	34.52
0.66745	34.52
0.68412	34.52
0.70078	34.52
0.71745	34.52
0.73412	34.52
0.75078	34.52
0.76745	34.52
0.78412	34.52
0.80078	34.52
0.81745	34.52
0.83412	34.52
0.85078	34.52
0.86745	34.52
0.88412	34.51
0.90078	34.52
0.91745	34.52
0.93412	34.51
0.95078	34.51
0.96745	34.52
0.98412	34.52
1.00078	34.52
1.01745	34.52
1.03412	34.51
1.05078	34.52
1.06745	34.52
1.08412	34.52
1.10078	34.52
1.11745	34.52
1.13412	34.52
1.15078	34.52
1.16745	34.52
1.18412	34.52
1.20078	34.52
1.21745	34.52
1.23412	34.52
1.25078	34.52
1.26745	34.52
1.28412	34.52
1.30078	34.52
1.31745	34.52
1.33412	34.52
1.35078	34.52
1.36745	34.51
1.38412	34.52
1.40078	34.52
1.41745	34.52
1.43412	34.51
1.45078	34.51
1.46745	34.52
1.48412	34.52
1.50078	34.52
1.51745	34.51
1.53412	34.52
1.55078	34.52
1.56745	34.52
1.58412	34.52
1.60078	34.52
1.61745	34.52
1.63412	34.51
1.65078	34.52
1.66745	34.52
1.68412	34.52
1.70078	34.52
1.71745	34.52
1.73412	34.52
1.75078	34.52
1.76745	34.52
1.78412	34.52
1.80078	34.52
1.81745	34.52
1.83412	34.52
1.85078	34.52
1.86745	34.52
1.88412	34.52
1.90078	34.52
1.91745	34.52
1.93412	34.52
1.95078	34.52
1.96745	34.52
1.98412	34.52
2.00078	34.52
2.01745	34.52
2.03412	34.52
2.05078	34.52
2.06745	34.52
2.08412	34.52
2.10078	34.52
2.11745	34.52
2.13412	34.52
2.15078	34.52
2.16745	34.52
2.18412	34.52
2.20078	34.52
2.21745	34.51
2.23412	34.52
2.25078	34.52
2.26745	34.52
2.28412	34.52
2.30078	34.52
2.31745	34.52
2.33412	34.52
2.35078	34.52
2.36745	34.52
2.38412	34.53
2.40078	34.52
2.41745	34.52
2.43412	34.52
2.45078	34.52
2.46745	34.52
2.48412	34.51
2.50078	34.51
2.51745	34.52
2.53412	34.52
2.55078	34.51
2.56745	34.52
2.58412	34.52
2.60078	34.52
2.61745	34.52
2.63412	34.52
2.65078	34.52
2.66745	34.52
2.68412	34.52
2.70078	34.51
2.71745	34.52
2.73412	34.52
2.75078	34.52
2.76745	34.52
2.78412	34.52
2.80078	34.52
2.81745	34.52
2.83412	34.52
2.85078	34.52
2.86745	34.52
2.88412	34.52
2.90078	34.52
2.91745	34.51
2.93412	34.53
2.95078	34.52
2.96745	34.52
2.98412	34.52
3.00078	34.52
3.01745	34.52
3.03412	34.52
3.05078	34.52
3.06745	34.52
3.08412	34.52
3.10078	34.51
3.11745	34.52
3.13412	34.52
3.15078	34.51
3.16745	34.52
3.18412	34.52
3.20078	34.52
3.21745	34.52
3.23412	34.52
3.25078	34.52
3.26745	34.51
3.28412	34.52
3.30078	34.52
3.31745	34.52
3.33412	34.52
3.35078	34.52
3.36745	34.52
3.38412	34.52
3.40078	34.51
3.41745	34.52
3.43412	34.51
3.45078	34.52
3.46745	34.52
3.48412	34.52
3.50078	34.52
3.51745	34.52
3.53412	34.52
3.55078	34.51
3.56745	34.52
3.58412	34.52
3.60078	34.52
3.61745	34.52
3.63412	34.52
3.65078	34.52
3.66745	34.52
3.68412	34.52
3.70078	34.52
3.71745	34.52
3.73412	34.52
3.75078	34.52
3.76745	34.51
3.78412	34.52
3.80078	34.52
3.81745	34.52
3.83412	34.52
3.85078	34.51
3.86745	34.52
3.88412	34.52
3.90078	34.53
3.91745	34.52
3.93412	34.52
3.95078	34.52
3.96745	34.52
3.98412	34.52

[Status Trace (Column Flow)]
Interval(msec)	1000
# of Points	240
Start Time(min)	0.001
End Time(min)	3.984
Intensity Units	
Intensity Multiplier	1
R.Time (min)	Intensity
0.00078	5.51
0.01745	5.34
0.03412	5.28
0.05078	5.56
0.06745	5.74
0.08412	5.56
0.10078	5.51
0.11745	5.51
0.13412	5.51
0.15078	5.51
0.16745	5.51
0.18412	5.51
0.20078	5.51
0.21745	5.51
0.23412	5.51
0.25078	5.51
0.26745	5.51
0.28412	5.51
0.30078	5.51
0.31745	5.51
0.33412	5.51
0.35078	5.51
0.36745	5.51
0.38412	5.51
0.40078	5.51
0.41745	5.51
0.43412	5.51
0.45078	5.51
0.46745	5.51
0.48412	5.51
0.50078	5.51
0.51745	5.51
0.53412	5.51
0.55078	5.51
0.56745	5.51
0.58412	5.51
0.60078	5.51
0.61745	5.51
0.63412	5.51
0.65078	5.51
0.66745	5.51
0.68412	5.51
0.70078	5.51
0.71745	5.51
0.73412	5.51
0.75078	5.51
0.76745	5.51
0.78412	5.51
0.80078	5.51
0.81745	5.51
0.83412	5.51
0.85078	5.51
0.86745	5.51
0.88412	5.51
0.90078	5.51
0.91745	5.51
0.93412	5.51
0.95078	5.51
0.96745	5.51
0.98412	5.51
1.00078	5.51
1.01745	5.51
1.03412	5.51
1.05078	5.51
1.06745	5.51
1.08412	5.51
1.10078	5.51
1.11745	5.51
1.13412	5.51
1.15078	5.51
1.16745	5.51
1.18412	5.51
1.20078	5.51
1.21745	5.51
1.23412	5.51
1.25078	5.51
1.26745	5.51
1.28412	5.51
1.30078	5.51
1.31745	5.51
1.33412	5.51
1.35078	5.51
1.36745	5.51
1.38412	5.51
1.40078	5.51
1.41745	5.51
1.43412	5.51
1.45078	5.51
1.46745	5.51
1.48412	5.51
1.50078	5.52
1.51745	5.52
1.53412	5.52
1.55078	5.52
1.56745	5.51
1.58412	5.51
1.60078	5.51
1.61745	5.51
1.63412	5.51
1.65078	5.50
1.66745	5.49
1.68412	5.48
1.70078	5.47
1.71745	5.45
1.73412	5.45
1.75078	5.44
1.76745	5.43
1.78412	5.42
1.80078	5.40
1.81745	5.39
1.83412	5.39
1.85078	5.37
1.86745	5.36
1.88412	5.36
1.90078	5.34
1.91745	5.33
1.93412	5.33
1.95078	5.32
1.96745	5.31
1.98412	5.30
2.00078	5.29
2.01745	5.28
2.03412	5.27
2.05078	5.26
2.06745	5.25
2.08412	5.24
2.10078	5.23
2.11745	5.22
2.13412	5.21
2.15078	5.20
2.16745	5.19
2.18412	5.18
2.20078	5.17
2.21745	5.16
2.23412	5.16
2.25078	5.15
2.26745	5.14
2.28412	5.13
2.30078	5.12
2.31745	5.11
2.33412	5.10
2.35078	5.09
2.36745	5.08
2.38412	5.08
2.40078	5.08
2.41745	5.08
2.43412	5.08
2.45078	5.08
2.46745	5.08
2.48412	5.08
2.50078	5.08
2.51745	5.08
2.53412	5.08
2.55078	5.08
2.56745	5.08
2.58412	5.08
2.60078	5.08
2.61745	5.08
2.63412	5.08
2.65078	5.08
2.66745	5.08
2.68412	5.08
2.70078	5.08
2.71745	5.08
2.73412	5.07
2.75078	5.08
2.76745	5.08
2.78412	5.08
2.80078	5.07
2.81745	5.07
2.83412	5.07
2.85078	5.07
2.86745	5.07
2.88412	5.07
2.90078	5.07
2.91745	5.07
2.93412	5.07
2.95078	5.07
2.96745	5.07
2.98412	5.07
3.00078	5.07
3.01745	5.07
3.03412	5.07
3.05078	5.07
3.06745	5.07
3.08412	5.07
3.10078	5.07
3.11745	5.07
3.13412	5.07
3.15078	5.07
3.16745	5.07
3.18412	5.07
3.20078	5.07
3.21745	5.07
3.23412	5.07
3.25078	5.07
3.26745	5.07
3.28412	5.07
3.30078	5.07
3.31745	5.07
3.33412	5.07
3.35078	5.07
3.36745	5.07
3.38412	5.07
3.40078	5.07
3.41745	5.07
3.43412	5.07
3.45078	5.07
3.46745	5.07
3.48412	5.07
3.50078	5.07
3.51745	5.07
3.53412	5.07
3.55078	5.07
3.56745	5.07
3.58412	5.07
3.60078	5.07
3.61745	5.07
3.63412	5.07
3.65078	5.07
3.66745	5.07
3.68412	5.07
3.70078	5.07
3.71745	5.07
3.73412	5.07
3.75078	5.07
3.76745	5.07
3.78412	5.07
3.80078	5.07
3.81745	5.07
3.83412	5.07
3.85078	5.07
3.86745	5.07
3.88412	5.07
3.90078	5.07
3.91745	5.07
3.93412	5.07
3.95078	5.07
3.96745	5.07
3.98412	5.07

[Status Trace (Linear Velocity)]
Interval(msec)	1000
# of Points	240
Start Time(min)	0.001
End Time(min)	3.984
Intensity Units	
Intensity Multiplier	1
R.Time (min)	Intensity
0.00078	39.01
0.01745	38.04
0.03412	37.71
0.05078	39.25
0.06745	40.26
0.08412	39.30
0.10078	38.99
0.11745	39.01
0.13412	39.02
0.15078	39.02
0.16745	39.02
0.18412	39.02
0.20078	39.02
0.21745	39.02
0.23412	39.02
0.25078	39.02
0.26745	39.01
0.28412	39.02
0.30078	39.01
0.31745	39.01
0.33412	39.01
0.35078	39.01
0.36745	39.01
0.38412	39.01
0.40078	39.02
0.41745	39.01
0.43412	39.01
0.45078	39.01
0.46745	39.01
0.48412	39.01
0.50078	39.01
0.51745	39.01
0.53412	39.01
0.55078	39.01
0.56745	39.01
0.58412	39.02
0.60078	39.01
0.61745	39.02
0.63412	39.02
0.65078	39.02
0.66745	39.01
0.68412	39.01
0.70078	39.01
0.71745	39.01
0.73412	39.02
0.75078	39.02
0.76745	39.02
0.78412	39.02
0.80078	39.02
0.81745	39.02
0.83412	39.02
0.85078	39.02
0.86745	39.02
0.88412	39.02
0.90078	39.02
0.91745	39.01
0.93412	39.01
0.95078	39.02
0.96745	39.02
0.98412	39.02
1.00078	39.02
1.01745	39.02
1.03412	39.02
1.05078	39.02
1.06745	39.02
1.08412	39.02
1.10078	39.02
1.11745	39.02
1.13412	39.02
1.15078	39.02
1.16745	39.01
1.18412	39.01
1.20078	39.01
1.21745	39.01
1.23412	39.01
1.25078	39.01
1.26745	39.01
1.28412	39.01
1.30078	39.01
1.31745	39.02
1.33412	39.02
1.35078	39.02
1.36745	39.01
1.38412	39.01
1.40078	39.01
1.41745	39.01
1.43412	39.01
1.45078	39.02
1.46745	39.02
1.48412	39.02
1.50078	39.02
1.51745	39.02
1.53412	39.02
1.55078	39.02
1.56745	39.02
1.58412	39.02
1.60078	39.01
1.61745	39.01
1.63412	38.99
1.65078	38.97
1.66745	38.94
1.68412	38.91
1.70078	38.87
1.71745	38.83
1.73412	38.81
1.75078	38.77
1.76745	38.74
1.78412	38.71
1.80078	38.68
1.81745	38.65
1.83412	38.62
1.85078	38.58
1.86745	38.55
1.88412	38.52
1.90078	38.49
1.91745	38.46
1.93412	38.44
1.95078	38.40
1.96745	38.37
1.98412	38.34
2.00078	38.31
2.01745	38.28
2.03412	38.25
2.05078	38.22
2.06745	38.19
2.08412	38.16
2.10078	38.13
2.11745	38.10
2.13412	38.08
2.15078	38.05
2.16745	38.02
2.18412	37.99
2.20078	37.95
2.21745	37.93
2.23412	37.90
2.25078	37.87
2.26745	37.84
2.28412	37.81
2.30078	37.78
2.31745	37.75
2.33412	37.72
2.35078	37.69
2.36745	37.67
2.38412	37.65
2.40078	37.65
2.41745	37.65
2.43412	37.65
2.45078	37.65
2.46745	37.65
2.48412	37.65
2.50078	37.65
2.51745	37.65
2.53412	37.65
2.55078	37.65
2.56745	37.65
2.58412	37.65
2.60078	37.65
2.61745	37.65
2.63412	37.65
2.65078	37.65
2.66745	37.65
2.68412	37.64
2.70078	37.64
2.71745	37.64
2.73412	37.64
2.75078	37.64
2.76745	37.64
2.78412	37.64
2.80078	37.64
2.81745	37.64
2.83412	37.64
2.85078	37.64
2.86745	37.64
2.88412	37.64
2.90078	37.64
2.91745	37.64
2.93412	37.64
2.95078	37.64
2.96745	37.64
2.98412	37.64
3.00078	37.64
3.01745	37.63
3.03412	37.63
3.05078	37.63
3.06745	37.63
3.08412	37.63
3.10078	37.63
3.11745	37.63
3.13412	37.63
3.15078	37.63
3.16745	37.63
3.18412	37.63
3.20078	37.63
3.21745	37.63
3.23412	37.63
3.25078	37.63
3.26745	37.63
3.28412	37.62
3.30078	37.62
3.31745	37.62
3.33412	37.62
3.35078	37.62
3.36745	37.62
3.38412	37.62
3.40078	37.62
3.41745	37.62
3.43412	37.62
3.45078	37.63
3.46745	37.63
3.48412	37.63
3.50078	37.63
3.51745	37.63
3.53412	37.63
3.55078	37.63
3.56745	37.63
3.58412	37.63
3.60078	37.63
3.61745	37.63
3.63412	37.63
3.65078	37.63
3.66745	37.63
3.68412	37.63
3.70078	37.63
3.71745	37.63
3.73412	37.62
3.75078	37.62
3.76745	37.62
3.78412	37.62
3.80078	37.63
3.81745	37.62
3.83412	37.62
3.85078	37.62
3.86745	37.62
3.88412	37.62
3.90078	37.62
3.91745	37.62
3.93412	37.62
3.95078	37.62
3.96745	37.62
3.98412	37.62

