[Header]
Application Name	LabSolutions
Version	5.110
Data File Name	C:\Users\User\Desktop\GC Analyses\Jack\Nachusa Grasslands Sampling\T2 Timepoint July 12th\T2_07122022_034.gcd
Output Date	3/14/2023
Output Time	3:42:31 PM

[File Information]
Type	Data File
Generated	3/10/2023 4:08:19 PM
Generated by	System Administrator
Modified	3/10/2023 4:15:02 PM
Modified by	System Administrator

[Sample Information]
Operator Name	System Administrator
Acquired	3/10/2023 4:11:01 PM
Sample Type	0:Unknown
Level	0
Sample Name	034
Sample ID	034
ISTD Amount1	1
ISTD Amount2	1
ISTD Amount3	1
ISTD Amount4	1
ISTD Amount5	1
ISTD Amount6	1
ISTD Amount7	1
ISTD Amount8	1
ISTD Amount9	1
ISTD Amount10	1
ISTD Amount11	1
ISTD Amount12	1
ISTD Amount13	1
ISTD Amount14	1
ISTD Amount15	1
ISTD Amount16	1
ISTD Amount17	1
ISTD Amount18	1
ISTD Amount19	1
ISTD Amount20	1
ISTD Amount21	1
ISTD Amount22	1
ISTD Amount23	1
ISTD Amount24	1
ISTD Amount25	1
ISTD Amount26	1
ISTD Amount27	1
ISTD Amount28	1
ISTD Amount29	1
ISTD Amount30	1
ISTD Amount31	1
ISTD Amount32	1
Sample Amount	1
Dilution Factor	1
Vial#	33
Injection Volume	1
Injection Count	1
Bar Code	

[Original Files]
Data File	C:\Users\User\Desktop\GC Analyses\Jack\Nachusa Grasslands Sampling\T1 Timepoint July 12th\T2_07122022_034.gcd
Method File	C:\LabSolutions\Data\GHG_4min_2022\ghg3_togas_w_acet_4 min_new_int.gcm
Batch File	C:\LabSolutions\Data\AutoSamplerTesting\T2_07122022.gcb
Report Format File	c:\LabSolutions\System\DEFAULT.lsr

[File Description]


[Configuration]
Instrument Name	C0B7VH3-Instrument1
Instrument #	1
Line #	1
# of Detectors	3
Detector ID	DET#1	DET#2	DET#3
Detector Name	FID	PTCD	ECD
# of Channels	1	1	1

[Peak Table(Ch1)]
# of Peaks	3
Peak#	R.Time	I.Time	F.Time	Area	Height	A/H	Conc.	Mark	ID#	Name	k'	Plate #	Plate Ht.	Tailing	Resolution	Sep.Factor	Area Ratio	Height Ratio	Conc. %	Norm Conc.
1	1.476	1.435	1.538	26447	12531	2.111	186.715	   	1	CO	0.000	9363	16.020	1.283	0.000	0.000	0	0	27.796	27.796
2	1.567	1.538	1.630	4366	2106	2.073	84.416	 V 	2	CH4	0.062	10143	14.789	0.000	1.487	0.000	0	0	12.567	12.567
3	1.996	1.949	2.506	1596164	763344	2.091	400.594	   	3	CO2	0.353	17278	8.682	1.256	6.976	5.680	0	0	59.637	59.637

[Peak Table(Ch2)]
# of Peaks	0

[Peak Table(Ch3)]
# of Peaks	5
Peak#	R.Time	I.Time	F.Time	Area	Height	A/H	Conc.	Mark	ID#	Name	k'	Plate #	Plate Ht.	Tailing	Resolution	Sep.Factor	Area Ratio	Height Ratio	Conc. %	Norm Conc.
1	2.462	2.297	2.513	2026	615	3.296	0.000	   			0.000	9689	15.482	0.000	0.000	0.000	0	0	0.000	0.000
2	2.535	2.513	2.634	1339	327	4.096	0.000	 V 			0.030	4857	30.884	0.000	0.597	0.000	0	0	0.000	0.000
3	2.664	2.634	2.733	231	79	2.914	0.000	 V 			0.082	9255	16.207	0.000	1.002	2.750	0	0	0.000	0.000
4	2.876	2.814	3.023	18539	4991	3.714	0.474	   	1	N2O	0.168	13407	11.189	1.589	2.024	2.055	0	0	100.000	100.000
5	3.342	3.126	3.995	15157	510	29.728	0.000	   	2	SF6	0.357	379	395.393	1.964	1.185	2.124	0	0	0.000	0.000

[Compound Results(Ch1)]
# of IDs	6
ID#	Name	R.Time	Area	Height	Conc.	Curve	3rd	2nd	1st	Constant	Area Ratio	Height Ratio	Conc. %	Norm Conc.
1	CO	1.476	26447	12531	186.715	Linear	0.000000e+00	0.000000e+00	1.416423e+002	0.000000e+00	0	0	27.796	27.796
2	CH4	1.567	4366	2106	84.416	Linear	0.000000e+00	0.000000e+00	5.171738e+001	0.000000e+00	0	0	12.567	12.567
3	CO2	1.996	1596164	763344	400.594	Linear	0.000000e+00	0.000000e+00	3.984494e+003	0.000000e+00	0	0	59.637	59.637
4	Ethylene	0.000	0	0	0.000	Linear	0.000000e+00	0.000000e+00	0.000000e+00	0.000000e+00	0	0	0.000	0.000
5	Acetylene	0.000	0	0	0.000	Linear	0.000000e+00	0.000000e+00	0.000000e+00	0.000000e+00	0	0	0.000	0.000
6	Ethane	0.000	0	0	0.000	Linear	0.000000e+00	0.000000e+00	0.000000e+00	0.000000e+00	0	0	0.000	0.000

[Compound Results(Ch2)]
# of IDs	5
ID#	Name	R.Time	Area	Height	Conc.	Curve	3rd	2nd	1st	Constant	Area Ratio	Height Ratio	Conc. %	Norm Conc.
1	Hydrogen	0.000	0	0	0.000	Linear	0.000000e+00	0.000000e+00	0.000000e+00	0.000000e+00	0	0	0.000	0.000
2	Oxygen	0.000	0	0	0.000	Linear	0.000000e+00	0.000000e+00	0.000000e+00	0.000000e+00	0	0	0.000	0.000
3	Nitrogen	0.000	0	0	0.000	Linear	0.000000e+00	0.000000e+00	0.000000e+00	0.000000e+00	0	0	0.000	0.000
4	Methane	0.000	0	0	0.000	Linear	0.000000e+00	0.000000e+00	0.000000e+00	0.000000e+00	0	0	0.000	0.000
5	Carbon Monoxide	0.000	0	0	0.000	Linear	0.000000e+00	0.000000e+00	0.000000e+00	0.000000e+00	0	0	0.000	0.000

[Compound Results(Ch3)]
# of IDs	2
ID#	Name	R.Time	Area	Height	Conc.	Curve	3rd	2nd	1st	Constant	Area Ratio	Height Ratio	Conc. %	Norm Conc.
1	N2O	2.876	18539	4991	0.474	Linear	0.000000e+00	0.000000e+00	3.915173e+004	0.000000e+00	0	0	100.000	100.000
2	SF6	3.342	15157	510	0.000	Linear	0.000000e+00	0.000000e+00	0.000000e+00	0.000000e+00	0	0	0.000	0.000

[Group Results(Ch1)]
# of Groups	0

[Group Results(Ch2)]
# of Groups	0

[Group Results(Ch3)]
# of Groups	0

[Chromatogram (Ch1)]
Interval(msec)	220
# of Points	1091
Start Time(min)	0.002
End Time(min)	3.998
R.Time (min)	Intensity
0.00167	31
0.00533	34
0.00900	35
0.01267	34
0.01633	35
0.02000	36
0.02367	38
0.02733	37
0.03100	35
0.03467	35
0.03833	33
0.04200	34
0.04567	39
0.04933	44
0.05300	44
0.05667	42
0.06033	40
0.06400	43
0.06767	44
0.07133	44
0.07500	40
0.07867	35
0.08233	33
0.08600	30
0.08967	26
0.09333	26
0.09700	28
0.10067	30
0.10433	31
0.10800	29
0.11167	29
0.11533	29
0.11900	28
0.12267	30
0.12633	35
0.13000	45
0.13367	55
0.13733	59
0.14100	58
0.14467	63
0.14833	70
0.15200	73
0.15567	77
0.15933	83
0.16300	94
0.16667	105
0.17033	115
0.17400	122
0.17767	120
0.18133	113
0.18500	109
0.18867	110
0.19233	114
0.19600	120
0.19967	125
0.20333	128
0.20700	130
0.21067	133
0.21433	138
0.21800	142
0.22167	142
0.22533	140
0.22900	136
0.23267	139
0.23633	150
0.24000	157
0.24367	152
0.24733	138
0.25100	123
0.25467	111
0.25833	109
0.26200	114
0.26567	123
0.26933	128
0.27300	128
0.27667	127
0.28033	128
0.28400	126
0.28767	127
0.29133	125
0.29500	123
0.29867	121
0.30233	123
0.30600	129
0.30967	131
0.31333	124
0.31700	111
0.32067	99
0.32433	91
0.32800	84
0.33167	74
0.33533	66
0.33900	63
0.34267	62
0.34633	57
0.35000	51
0.35367	45
0.35733	42
0.36100	39
0.36467	38
0.36833	40
0.37200	44
0.37567	48
0.37933	50
0.38300	48
0.38667	42
0.39033	37
0.39400	37
0.39767	42
0.40133	48
0.40500	52
0.40867	54
0.41233	56
0.41600	58
0.41967	58
0.42333	57
0.42700	56
0.43067	56
0.43433	55
0.43800	50
0.44167	43
0.44533	34
0.44900	28
0.45267	27
0.45633	24
0.46000	16
0.46367	14
0.46733	21
0.47100	30
0.47467	38
0.47833	46
0.48200	48
0.48567	44
0.48933	39
0.49300	36
0.49667	34
0.50033	33
0.50400	30
0.50767	27
0.51133	29
0.51500	38
0.51867	47
0.52233	47
0.52600	40
0.52967	33
0.53333	33
0.53700	37
0.54067	37
0.54433	37
0.54800	38
0.55167	41
0.55533	42
0.55900	44
0.56267	48
0.56633	55
0.57000	58
0.57367	55
0.57733	48
0.58100	45
0.58467	44
0.58833	40
0.59200	36
0.59567	35
0.59933	34
0.60300	31
0.60667	26
0.61033	19
0.61400	19
0.61767	24
0.62133	26
0.62500	22
0.62867	17
0.63233	13
0.63600	14
0.63967	16
0.64333	15
0.64700	18
0.65067	23
0.65433	32
0.65800	46
0.66167	54
0.66533	53
0.66900	51
0.67267	49
0.67633	47
0.68000	46
0.68367	43
0.68733	43
0.69100	46
0.69467	44
0.69833	40
0.70200	32
0.70567	21
0.70933	11
0.71300	1
0.71667	-10
0.72033	-25
0.72400	-35
0.72767	-40
0.73133	-42
0.73500	-38
0.73867	-36
0.74233	-34
0.74600	-30
0.74967	-22
0.75333	-8
0.75700	5
0.76067	13
0.76433	18
0.76800	16
0.77167	9
0.77533	-1
0.77900	-8
0.78267	-6
0.78633	1
0.79000	9
0.79367	14
0.79733	15
0.80100	11
0.80467	1
0.80833	-5
0.81200	0
0.81567	7
0.81933	10
0.82300	15
0.82667	25
0.83033	33
0.83400	31
0.83767	17
0.84133	-2
0.84500	-19
0.84867	-30
0.85233	-34
0.85600	-33
0.85967	-23
0.86333	-13
0.86700	-6
0.87067	-2
0.87433	2
0.87800	1
0.88167	-4
0.88533	-7
0.88900	-9
0.89267	-13
0.89633	-19
0.90000	-21
0.90367	-19
0.90733	-13
0.91100	-5
0.91467	5
0.91833	9
0.92200	11
0.92567	11
0.92933	10
0.93300	9
0.93667	11
0.94033	16
0.94400	21
0.94767	18
0.95133	9
0.95500	-4
0.95867	-14
0.96233	-17
0.96600	-18
0.96967	-19
0.97333	-18
0.97700	-18
0.98067	-19
0.98433	-17
0.98800	-12
0.99167	-8
0.99533	-3
0.99900	2
1.00267	3
1.00633	2
1.01000	-1
1.01367	-5
1.01733	-12
1.02100	-16
1.02467	-14
1.02833	-8
1.03200	-5
1.03567	-4
1.03933	-5
1.04300	-6
1.04667	-3
1.05033	-4
1.05400	-7
1.05767	-5
1.06133	1
1.06500	5
1.06867	4
1.07233	-2
1.07600	-11
1.07967	-19
1.08333	-22
1.08700	-23
1.09067	-21
1.09433	-22
1.09800	-28
1.10167	-35
1.10533	-41
1.10900	-42
1.11267	-35
1.11633	-29
1.12000	-23
1.12367	-18
1.12733	-11
1.13100	-2
1.13467	13
1.13833	23
1.14200	25
1.14567	21
1.14933	15
1.15300	6
1.15667	0
1.16033	-2
1.16400	-2
1.16767	2
1.17133	6
1.17500	3
1.17867	-5
1.18233	-13
1.18600	-18
1.18967	-21
1.19333	-18
1.19700	-13
1.20067	-9
1.20433	-4
1.20800	4
1.21167	13
1.21533	19
1.21900	17
1.22267	14
1.22633	11
1.23000	5
1.23367	4
1.23733	6
1.24100	6
1.24467	6
1.24833	9
1.25200	16
1.25567	19
1.25933	18
1.26300	14
1.26667	10
1.27033	9
1.27400	12
1.27767	19
1.28133	25
1.28500	27
1.28867	26
1.29233	27
1.29600	27
1.29967	24
1.30333	17
1.30700	9
1.31067	-2
1.31433	-7
1.31800	-3
1.32167	0
1.32533	1
1.32900	0
1.33267	-1
1.33633	1
1.34000	2
1.34367	3
1.34733	4
1.35100	4
1.35467	5
1.35833	2
1.36200	-4
1.36567	-10
1.36933	-13
1.37300	-14
1.37667	-16
1.38033	-19
1.38400	-20
1.38767	-18
1.39133	-15
1.39500	-14
1.39867	-13
1.40233	-10
1.40600	-7
1.40967	-3
1.41333	1
1.41700	3
1.42067	4
1.42433	5
1.42800	-0
1.43167	-7
1.43533	-1
1.43900	35
1.44267	151
1.44633	412
1.45000	1033
1.45367	2388
1.45733	4506
1.46100	6938
1.46467	9185
1.46833	10958
1.47200	12110
1.47567	12530
1.47933	12123
1.48300	10930
1.48667	9206
1.49033	7312
1.49400	5551
1.49767	4085
1.50133	2956
1.50500	2125
1.50867	1533
1.51233	1116
1.51600	825
1.51967	625
1.52333	486
1.52700	387
1.53067	316
1.53433	263
1.53800	234
1.54167	272
1.54533	438
1.54900	745
1.55267	1130
1.55633	1502
1.56000	1807
1.56367	2017
1.56733	2107
1.57100	2049
1.57467	1842
1.57833	1533
1.58200	1199
1.58567	892
1.58933	641
1.59300	454
1.59667	322
1.60033	233
1.60400	175
1.60767	135
1.61133	105
1.61500	75
1.61867	47
1.62233	26
1.62600	11
1.62967	2
1.63333	-2
1.63700	-2
1.64067	-0
1.64433	4
1.64800	15
1.65167	24
1.65533	26
1.65900	23
1.66267	21
1.66633	17
1.67000	10
1.67367	1
1.67733	-8
1.68100	-11
1.68467	-7
1.68833	-5
1.69200	-8
1.69567	-16
1.69933	-20
1.70300	-18
1.70667	-21
1.71033	-26
1.71400	-28
1.71767	-24
1.72133	-18
1.72500	-11
1.72867	-2
1.73233	3
1.73600	-0
1.73967	-5
1.74333	-9
1.74700	-8
1.75067	-4
1.75433	-0
1.75800	1
1.76167	3
1.76533	2
1.76900	-6
1.77267	-12
1.77633	-14
1.78000	-13
1.78367	-13
1.78733	-12
1.79100	-11
1.79467	-9
1.79833	-10
1.80200	-15
1.80567	-15
1.80933	-14
1.81300	-14
1.81667	-13
1.82033	-9
1.82400	-7
1.82767	-8
1.83133	-5
1.83500	0
1.83867	-2
1.84233	-6
1.84600	-11
1.84967	-13
1.85333	-12
1.85700	-11
1.86067	-14
1.86433	-21
1.86800	-22
1.87167	-18
1.87533	-14
1.87900	-12
1.88267	-16
1.88633	-24
1.89000	-27
1.89367	-25
1.89733	-25
1.90100	-30
1.90467	-36
1.90833	-41
1.91200	-44
1.91567	-46
1.91933	-44
1.92300	-40
1.92667	-36
1.93033	-32
1.93400	-23
1.93767	-16
1.94133	-15
1.94500	-13
1.94867	-7
1.95233	22
1.95600	211
1.95967	1262
1.96333	5807
1.96700	20689
1.97067	58161
1.97433	131458
1.97800	244600
1.98167	385359
1.98533	529503
1.98900	652043
1.99267	733774
1.99633	763369
2.00000	738255
2.00367	665777
2.00733	562238
2.01100	447774
2.01467	339580
2.01833	247998
2.02200	176446
2.02567	123671
2.02933	86272
2.03300	60458
2.03667	42923
2.04033	31097
2.04400	23115
2.04767	17691
2.05133	13959
2.05500	11343
2.05867	9475
2.06233	8108
2.06600	7075
2.06967	6271
2.07333	5636
2.07700	5123
2.08067	4699
2.08433	4337
2.08800	4024
2.09167	3755
2.09533	3524
2.09900	3321
2.10267	3135
2.10633	2962
2.11000	2806
2.11367	2666
2.11733	2541
2.12100	2430
2.12467	2326
2.12833	2227
2.13200	2135
2.13567	2048
2.13933	1965
2.14300	1890
2.14667	1825
2.15033	1762
2.15400	1701
2.15767	1648
2.16133	1602
2.16500	1558
2.16867	1512
2.17233	1463
2.17600	1416
2.17967	1371
2.18333	1328
2.18700	1287
2.19067	1251
2.19433	1219
2.19800	1185
2.20167	1146
2.20533	1108
2.20900	1077
2.21267	1053
2.21633	1034
2.22000	1016
2.22367	995
2.22733	972
2.23100	953
2.23467	936
2.23833	917
2.24200	898
2.24567	880
2.24933	861
2.25300	842
2.25667	826
2.26033	814
2.26400	803
2.26767	792
2.27133	780
2.27500	768
2.27867	753
2.28233	734
2.28600	717
2.28967	702
2.29333	688
2.29700	676
2.30067	665
2.30433	655
2.30800	645
2.31167	634
2.31533	621
2.31900	609
2.32267	598
2.32633	589
2.33000	580
2.33367	569
2.33733	558
2.34100	552
2.34467	553
2.34833	555
2.35200	550
2.35567	539
2.35933	527
2.36300	516
2.36667	505
2.37033	496
2.37400	490
2.37767	486
2.38133	489
2.38500	495
2.38867	497
2.39233	491
2.39600	481
2.39967	470
2.40333	461
2.40700	456
2.41067	452
2.41433	452
2.41800	458
2.42167	462
2.42533	459
2.42900	453
2.43267	448
2.43633	443
2.44000	441
2.44367	436
2.44733	425
2.45100	419
2.45467	416
2.45833	413
2.46200	411
2.46567	412
2.46933	413
2.47300	416
2.47667	415
2.48033	412
2.48400	408
2.48767	403
2.49133	395
2.49500	388
2.49867	381
2.50233	374
2.50600	367
2.50967	360
2.51333	354
2.51700	351
2.52067	351
2.52433	352
2.52800	356
2.53167	362
2.53533	370
2.53900	378
2.54267	382
2.54633	383
2.55000	380
2.55367	373
2.55733	363
2.56100	359
2.56467	361
2.56833	366
2.57200	362
2.57567	353
2.57933	341
2.58300	334
2.58667	329
2.59033	324
2.59400	322
2.59767	322
2.60133	326
2.60500	332
2.60867	341
2.61233	347
2.61600	345
2.61967	341
2.62333	340
2.62700	347
2.63067	351
2.63433	353
2.63800	352
2.64167	351
2.64533	353
2.64900	356
2.65267	351
2.65633	339
2.66000	327
2.66367	326
2.66733	334
2.67100	344
2.67467	353
2.67833	353
2.68200	349
2.68567	346
2.68933	349
2.69300	353
2.69667	351
2.70033	348
2.70400	349
2.70767	347
2.71133	340
2.71500	329
2.71867	319
2.72233	309
2.72600	299
2.72967	294
2.73333	296
2.73700	301
2.74067	310
2.74433	319
2.74800	325
2.75167	328
2.75533	325
2.75900	326
2.76267	328
2.76633	331
2.77000	335
2.77367	335
2.77733	333
2.78100	333
2.78467	334
2.78833	335
2.79200	333
2.79567	329
2.79933	328
2.80300	332
2.80667	339
2.81033	346
2.81400	351
2.81767	349
2.82133	340
2.82500	329
2.82867	323
2.83233	326
2.83600	327
2.83967	323
2.84333	323
2.84700	327
2.85067	332
2.85433	335
2.85800	335
2.86167	334
2.86533	332
2.86900	331
2.87267	334
2.87633	333
2.88000	329
2.88367	326
2.88733	326
2.89100	328
2.89467	332
2.89833	333
2.90200	330
2.90567	327
2.90933	325
2.91300	323
2.91667	319
2.92033	316
2.92400	316
2.92767	320
2.93133	327
2.93500	334
2.93867	338
2.94233	340
2.94600	339
2.94967	341
2.95333	340
2.95700	336
2.96067	330
2.96433	327
2.96800	324
2.97167	324
2.97533	324
2.97900	326
2.98267	334
2.98633	346
2.99000	357
2.99367	365
2.99733	372
3.00100	377
3.00467	379
3.00833	374
3.01200	365
3.01567	356
3.01933	347
3.02300	339
3.02667	335
3.03033	337
3.03400	347
3.03767	355
3.04133	356
3.04500	353
3.04867	351
3.05233	352
3.05600	356
3.05967	357
3.06333	357
3.06700	355
3.07067	353
3.07433	352
3.07800	351
3.08167	349
3.08533	347
3.08900	344
3.09267	340
3.09633	338
3.10000	337
3.10367	335
3.10733	338
3.11100	346
3.11467	359
3.11833	371
3.12200	376
3.12567	378
3.12933	377
3.13300	376
3.13667	373
3.14033	369
3.14400	370
3.14767	372
3.15133	364
3.15500	348
3.15867	333
3.16233	322
3.16600	312
3.16967	307
3.17333	309
3.17700	314
3.18067	318
3.18433	319
3.18800	320
3.19167	323
3.19533	322
3.19900	321
3.20267	318
3.20633	316
3.21000	316
3.21367	319
3.21733	322
3.22100	325
3.22467	329
3.22833	333
3.23200	337
3.23567	342
3.23933	343
3.24300	340
3.24667	337
3.25033	337
3.25400	341
3.25767	346
3.26133	353
3.26500	358
3.26867	357
3.27233	354
3.27600	351
3.27967	345
3.28333	334
3.28700	329
3.29067	328
3.29433	328
3.29800	331
3.30167	332
3.30533	333
3.30900	334
3.31267	337
3.31633	342
3.32000	342
3.32367	332
3.32733	319
3.33100	313
3.33467	315
3.33833	321
3.34200	326
3.34567	333
3.34933	337
3.35300	335
3.35667	328
3.36033	320
3.36400	316
3.36767	314
3.37133	314
3.37500	314
3.37867	316
3.38233	321
3.38600	328
3.38967	331
3.39333	330
3.39700	326
3.40067	322
3.40433	322
3.40800	327
3.41167	331
3.41533	328
3.41900	321
3.42267	316
3.42633	313
3.43000	313
3.43367	315
3.43733	313
3.44100	308
3.44467	302
3.44833	302
3.45200	307
3.45567	310
3.45933	310
3.46300	309
3.46667	311
3.47033	314
3.47400	316
3.47767	315
3.48133	314
3.48500	314
3.48867	315
3.49233	317
3.49600	323
3.49967	327
3.50333	327
3.50700	327
3.51067	329
3.51433	331
3.51800	330
3.52167	325
3.52533	318
3.52900	311
3.53267	301
3.53633	287
3.54000	276
3.54367	271
3.54733	276
3.55100	285
3.55467	291
3.55833	296
3.56200	304
3.56567	308
3.56933	306
3.57300	303
3.57667	302
3.58033	301
3.58400	303
3.58767	306
3.59133	303
3.59500	302
3.59867	302
3.60233	303
3.60600	302
3.60967	294
3.61333	287
3.61700	284
3.62067	280
3.62433	274
3.62800	270
3.63167	271
3.63533	276
3.63900	283
3.64267	295
3.64633	302
3.65000	305
3.65367	307
3.65733	306
3.66100	301
3.66467	292
3.66833	285
3.67200	283
3.67567	283
3.67933	286
3.68300	293
3.68667	300
3.69033	301
3.69400	299
3.69767	293
3.70133	287
3.70500	280
3.70867	274
3.71233	271
3.71600	274
3.71967	282
3.72333	283
3.72700	276
3.73067	270
3.73433	269
3.73800	268
3.74167	267
3.74533	268
3.74900	269
3.75267	269
3.75633	269
3.76000	274
3.76367	277
3.76733	275
3.77100	267
3.77467	259
3.77833	254
3.78200	250
3.78567	247
3.78933	245
3.79300	244
3.79667	242
3.80033	242
3.80400	243
3.80767	240
3.81133	237
3.81500	238
3.81867	242
3.82233	248
3.82600	254
3.82967	259
3.83333	265
3.83700	269
3.84067	269
3.84433	267
3.84800	264
3.85167	262
3.85533	263
3.85900	261
3.86267	259
3.86633	257
3.87000	255
3.87367	251
3.87733	247
3.88100	249
3.88467	254
3.88833	262
3.89200	268
3.89567	272
3.89933	271
3.90300	271
3.90667	273
3.91033	274
3.91400	274
3.91767	275
3.92133	279
3.92500	279
3.92867	272
3.93233	262
3.93600	253
3.93967	246
3.94333	240
3.94700	238
3.95067	240
3.95433	242
3.95800	236
3.96167	227
3.96533	222
3.96900	223
3.97267	223
3.97633	224
3.98000	227
3.98367	231
3.98733	234
3.99100	237
3.99467	239
3.99833	241

[Chromatogram (Ch2)]
Interval(msec)	220
# of Points	1091
Start Time(min)	0.002
End Time(min)	3.998
R.Time (min)	Intensity
0.00167	-1
0.00533	-1
0.00900	-1
0.01267	-0
0.01633	-0
0.02000	-0
0.02367	-0
0.02733	-0
0.03100	0
0.03467	0
0.03833	0
0.04200	0
0.04567	0
0.04933	0
0.05300	0
0.05667	0
0.06033	0
0.06400	0
0.06767	-0
0.07133	-0
0.07500	-0
0.07867	-0
0.08233	-0
0.08600	0
0.08967	0
0.09333	0
0.09700	0
0.10067	0
0.10433	0
0.10800	1
0.11167	1
0.11533	0
0.11900	0
0.12267	0
0.12633	0
0.13000	-0
0.13367	-0
0.13733	-1
0.14100	-1
0.14467	-1
0.14833	-1
0.15200	-0
0.15567	-0
0.15933	0
0.16300	0
0.16667	0
0.17033	0
0.17400	0
0.17767	-0
0.18133	-0
0.18500	0
0.18867	0
0.19233	0
0.19600	0
0.19967	1
0.20333	1
0.20700	1
0.21067	1
0.21433	1
0.21800	1
0.22167	1
0.22533	1
0.22900	0
0.23267	0
0.23633	-0
0.24000	-1
0.24367	-1
0.24733	-1
0.25100	-1
0.25467	-1
0.25833	-2
0.26200	-2
0.26567	-2
0.26933	-2
0.27300	-3
0.27667	-3
0.28033	-3
0.28400	-2
0.28767	-2
0.29133	-2
0.29500	-2
0.29867	-2
0.30233	-2
0.30600	-2
0.30967	-3
0.31333	-3
0.31700	-3
0.32067	-2
0.32433	-2
0.32800	-3
0.33167	-3
0.33533	-3
0.33900	-3
0.34267	-3
0.34633	-3
0.35000	-3
0.35367	-3
0.35733	-3
0.36100	-2
0.36467	-2
0.36833	-1
0.37200	-1
0.37567	-1
0.37933	-1
0.38300	-1
0.38667	-1
0.39033	-1
0.39400	-1
0.39767	-1
0.40133	-1
0.40500	-1
0.40867	-1
0.41233	-0
0.41600	-0
0.41967	-0
0.42333	-0
0.42700	-0
0.43067	-0
0.43433	-0
0.43800	0
0.44167	0
0.44533	-0
0.44900	-0
0.45267	-0
0.45633	-0
0.46000	-0
0.46367	-0
0.46733	-1
0.47100	-1
0.47467	-0
0.47833	-0
0.48200	-0
0.48567	-0
0.48933	0
0.49300	0
0.49667	1
0.50033	1
0.50400	1
0.50767	1
0.51133	1
0.51500	1
0.51867	1
0.52233	1
0.52600	1
0.52967	1
0.53333	1
0.53700	1
0.54067	0
0.54433	0
0.54800	-0
0.55167	-1
0.55533	-1
0.55900	-1
0.56267	-1
0.56633	-1
0.57000	-1
0.57367	-1
0.57733	-1
0.58100	-1
0.58467	-1
0.58833	-0
0.59200	0
0.59567	0
0.59933	0
0.60300	0
0.60667	-0
0.61033	-0
0.61400	-0
0.61767	-0
0.62133	-0
0.62500	-0
0.62867	-0
0.63233	-0
0.63600	0
0.63967	0
0.64333	-0
0.64700	-0
0.65067	-0
0.65433	-0
0.65800	-0
0.66167	-0
0.66533	-0
0.66900	-0
0.67267	-0
0.67633	-0
0.68000	-1
0.68367	-1
0.68733	-1
0.69100	-2
0.69467	-2
0.69833	-3
0.70200	-3
0.70567	-3
0.70933	-3
0.71300	-3
0.71667	-3
0.72033	-3
0.72400	-2
0.72767	-2
0.73133	-1
0.73500	-1
0.73867	-1
0.74233	-1
0.74600	-1
0.74967	-1
0.75333	-1
0.75700	-1
0.76067	-1
0.76433	-1
0.76800	-1
0.77167	-1
0.77533	-0
0.77900	-0
0.78267	-0
0.78633	-0
0.79000	-0
0.79367	-0
0.79733	-0
0.80100	-0
0.80467	-0
0.80833	-0
0.81200	-0
0.81567	-0
0.81933	-1
0.82300	-1
0.82667	-1
0.83033	-2
0.83400	-3
0.83767	-3
0.84133	-4
0.84500	-4
0.84867	-4
0.85233	-4
0.85600	-5
0.85967	-5
0.86333	-5
0.86700	-5
0.87067	-5
0.87433	-4
0.87800	-5
0.88167	-5
0.88533	-5
0.88900	-5
0.89267	-4
0.89633	-4
0.90000	-4
0.90367	-4
0.90733	-4
0.91100	-4
0.91467	-4
0.91833	-4
0.92200	-3
0.92567	-3
0.92933	-3
0.93300	-2
0.93667	-2
0.94033	-2
0.94400	-2
0.94767	-1
0.95133	-1
0.95500	-1
0.95867	-1
0.96233	-1
0.96600	-1
0.96967	-1
0.97333	-1
0.97700	-1
0.98067	-1
0.98433	-1
0.98800	-1
0.99167	-1
0.99533	-1
0.99900	-1
1.00267	-1
1.00633	-1
1.01000	-2
1.01367	-2
1.01733	-2
1.02100	-2
1.02467	-2
1.02833	-2
1.03200	-2
1.03567	-2
1.03933	-1
1.04300	-1
1.04667	-1
1.05033	-2
1.05400	-2
1.05767	-2
1.06133	-2
1.06500	-2
1.06867	-2
1.07233	-2
1.07600	-2
1.07967	-2
1.08333	-2
1.08700	-3
1.09067	-3
1.09433	-3
1.09800	-4
1.10167	-4
1.10533	-4
1.10900	-4
1.11267	-4
1.11633	-4
1.12000	-4
1.12367	-3
1.12733	-3
1.13100	-3
1.13467	-3
1.13833	-2
1.14200	-2
1.14567	-2
1.14933	-2
1.15300	-2
1.15667	-2
1.16033	-3
1.16400	-3
1.16767	-2
1.17133	-3
1.17500	-2
1.17867	-2
1.18233	-2
1.18600	-2
1.18967	-1
1.19333	-1
1.19700	-1
1.20067	-1
1.20433	-0
1.20800	-0
1.21167	-0
1.21533	0
1.21900	0
1.22267	0
1.22633	1
1.23000	1
1.23367	1
1.23733	1
1.24100	1
1.24467	1
1.24833	1
1.25200	1
1.25567	1
1.25933	1
1.26300	1
1.26667	1
1.27033	1
1.27400	1
1.27767	1
1.28133	1
1.28500	1
1.28867	0
1.29233	-1
1.29600	-1
1.29967	-2
1.30333	-2
1.30700	-3
1.31067	-3
1.31433	-3
1.31800	-4
1.32167	-4
1.32533	-4
1.32900	-4
1.33267	-5
1.33633	-5
1.34000	-5
1.34367	-5
1.34733	-4
1.35100	-4
1.35467	-4
1.35833	-5
1.36200	-4
1.36567	-4
1.36933	-4
1.37300	-4
1.37667	-4
1.38033	-4
1.38400	-3
1.38767	-3
1.39133	-3
1.39500	-3
1.39867	-3
1.40233	-2
1.40600	-2
1.40967	-3
1.41333	-3
1.41700	-3
1.42067	-3
1.42433	-3
1.42800	-3
1.43167	-3
1.43533	-3
1.43900	-3
1.44267	-2
1.44633	-2
1.45000	-1
1.45367	-0
1.45733	-0
1.46100	0
1.46467	1
1.46833	1
1.47200	1
1.47567	1
1.47933	1
1.48300	2
1.48667	2
1.49033	2
1.49400	2
1.49767	2
1.50133	2
1.50500	2
1.50867	1
1.51233	1
1.51600	0
1.51967	-0
1.52333	-1
1.52700	-1
1.53067	-2
1.53433	-3
1.53800	-3
1.54167	-4
1.54533	-5
1.54900	-5
1.55267	-6
1.55633	-6
1.56000	-6
1.56367	-6
1.56733	-5
1.57100	-5
1.57467	-5
1.57833	-5
1.58200	-5
1.58567	-5
1.58933	-5
1.59300	-5
1.59667	-6
1.60033	-7
1.60400	-8
1.60767	-10
1.61133	-11
1.61500	-13
1.61867	-15
1.62233	-18
1.62600	-20
1.62967	-23
1.63333	-26
1.63700	-30
1.64067	-33
1.64433	-37
1.64800	-40
1.65167	-43
1.65533	-47
1.65900	-50
1.66267	-53
1.66633	-57
1.67000	-61
1.67367	-65
1.67733	-70
1.68100	-74
1.68467	-79
1.68833	-83
1.69200	-87
1.69567	-91
1.69933	-94
1.70300	-96
1.70667	-99
1.71033	-100
1.71400	-102
1.71767	-103
1.72133	-104
1.72500	-105
1.72867	-106
1.73233	-106
1.73600	-106
1.73967	-107
1.74333	-106
1.74700	-106
1.75067	-107
1.75433	-107
1.75800	-108
1.76167	-108
1.76533	-109
1.76900	-110
1.77267	-111
1.77633	-112
1.78000	-112
1.78367	-113
1.78733	-114
1.79100	-114
1.79467	-115
1.79833	-115
1.80200	-115
1.80567	-115
1.80933	-115
1.81300	-114
1.81667	-113
1.82033	-112
1.82400	-112
1.82767	-111
1.83133	-111
1.83500	-112
1.83867	-112
1.84233	-113
1.84600	-113
1.84967	-114
1.85333	-114
1.85700	-115
1.86067	-115
1.86433	-115
1.86800	-115
1.87167	-114
1.87533	-114
1.87900	-114
1.88267	-113
1.88633	-113
1.89000	-112
1.89367	-112
1.89733	-111
1.90100	-111
1.90467	-111
1.90833	-111
1.91200	-111
1.91567	-112
1.91933	-111
1.92300	-111
1.92667	-111
1.93033	-111
1.93400	-111
1.93767	-111
1.94133	-111
1.94500	-111
1.94867	-111
1.95233	-111
1.95600	-110
1.95967	-110
1.96333	-109
1.96700	-109
1.97067	-108
1.97433	-108
1.97800	-108
1.98167	-107
1.98533	-107
1.98900	-108
1.99267	-108
1.99633	-108
2.00000	-108
2.00367	-108
2.00733	-108
2.01100	-107
2.01467	-106
2.01833	-106
2.02200	-105
2.02567	-105
2.02933	-104
2.03300	-104
2.03667	-104
2.04033	-105
2.04400	-105
2.04767	-105
2.05133	-105
2.05500	-106
2.05867	-105
2.06233	-105
2.06600	-105
2.06967	-104
2.07333	-104
2.07700	-103
2.08067	-102
2.08433	-102
2.08800	-101
2.09167	-100
2.09533	-100
2.09900	-99
2.10267	-98
2.10633	-98
2.11000	-97
2.11367	-97
2.11733	-96
2.12100	-96
2.12467	-96
2.12833	-96
2.13200	-95
2.13567	-94
2.13933	-94
2.14300	-93
2.14667	-93
2.15033	-93
2.15400	-93
2.15767	-93
2.16133	-93
2.16500	-93
2.16867	-93
2.17233	-92
2.17600	-92
2.17967	-92
2.18333	-91
2.18700	-91
2.19067	-91
2.19433	-91
2.19800	-92
2.20167	-92
2.20533	-91
2.20900	-91
2.21267	-91
2.21633	-90
2.22000	-89
2.22367	-89
2.22733	-88
2.23100	-87
2.23467	-86
2.23833	-85
2.24200	-85
2.24567	-85
2.24933	-85
2.25300	-85
2.25667	-86
2.26033	-86
2.26400	-86
2.26767	-85
2.27133	-85
2.27500	-85
2.27867	-85
2.28233	-85
2.28600	-84
2.28967	-84
2.29333	-84
2.29700	-83
2.30067	-83
2.30433	-83
2.30800	-82
2.31167	-82
2.31533	-82
2.31900	-81
2.32267	-81
2.32633	-80
2.33000	-80
2.33367	-79
2.33733	-79
2.34100	-78
2.34467	-78
2.34833	-78
2.35200	-77
2.35567	-76
2.35933	-75
2.36300	-73
2.36667	-72
2.37033	-70
2.37400	-68
2.37767	-65
2.38133	-61
2.38500	-58
2.38867	-54
2.39233	-50
2.39600	-45
2.39967	-41
2.40333	-37
2.40700	-33
2.41067	-29
2.41433	-25
2.41800	-22
2.42167	-19
2.42533	-16
2.42900	-15
2.43267	-13
2.43633	-12
2.44000	-12
2.44367	-11
2.44733	-9
2.45100	-8
2.45467	-6
2.45833	-5
2.46200	-5
2.46567	-4
2.46933	-3
2.47300	-2
2.47667	-1
2.48033	-0
2.48400	0
2.48767	1
2.49133	3
2.49500	4
2.49867	5
2.50233	6
2.50600	8
2.50967	9
2.51333	10
2.51700	12
2.52067	12
2.52433	13
2.52800	13
2.53167	13
2.53533	13
2.53900	13
2.54267	13
2.54633	14
2.55000	14
2.55367	15
2.55733	16
2.56100	16
2.56467	16
2.56833	16
2.57200	16
2.57567	16
2.57933	16
2.58300	16
2.58667	16
2.59033	15
2.59400	15
2.59767	15
2.60133	15
2.60500	15
2.60867	15
2.61233	15
2.61600	15
2.61967	15
2.62333	15
2.62700	15
2.63067	15
2.63433	15
2.63800	15
2.64167	15
2.64533	16
2.64900	17
2.65267	17
2.65633	18
2.66000	19
2.66367	19
2.66733	20
2.67100	20
2.67467	21
2.67833	21
2.68200	21
2.68567	20
2.68933	20
2.69300	20
2.69667	20
2.70033	21
2.70400	21
2.70767	21
2.71133	21
2.71500	22
2.71867	23
2.72233	24
2.72600	24
2.72967	25
2.73333	26
2.73700	26
2.74067	27
2.74433	27
2.74800	28
2.75167	28
2.75533	28
2.75900	27
2.76267	27
2.76633	26
2.77000	26
2.77367	26
2.77733	25
2.78100	25
2.78467	25
2.78833	25
2.79200	24
2.79567	24
2.79933	24
2.80300	24
2.80667	24
2.81033	25
2.81400	25
2.81767	25
2.82133	25
2.82500	26
2.82867	26
2.83233	26
2.83600	26
2.83967	25
2.84333	23
2.84700	19
2.85067	14
2.85433	5
2.85800	-6
2.86167	-22
2.86533	-42
2.86900	-66
2.87267	-95
2.87633	-128
2.88000	-165
2.88367	-205
2.88733	-249
2.89100	-297
2.89467	-346
2.89833	-399
2.90200	-452
2.90567	-507
2.90933	-562
2.91300	-617
2.91667	-672
2.92033	-727
2.92400	-780
2.92767	-831
2.93133	-884
2.93500	-940
2.93867	-999
2.94233	-1053
2.94600	-1091
2.94967	-1105
2.95333	-1093
2.95700	-1056
2.96067	-1001
2.96433	-931
2.96800	-854
2.97167	-774
2.97533	-693
2.97900	-615
2.98267	-542
2.98633	-474
2.99000	-412
2.99367	-357
2.99733	-307
3.00100	-263
3.00467	-225
3.00833	-191
3.01200	-162
3.01567	-137
3.01933	-115
3.02300	-97
3.02667	-81
3.03033	-67
3.03400	-55
3.03767	-45
3.04133	-37
3.04500	-29
3.04867	-23
3.05233	-17
3.05600	-13
3.05967	-9
3.06333	-5
3.06700	-3
3.07067	-0
3.07433	1
3.07800	3
3.08167	5
3.08533	6
3.08900	7
3.09267	8
3.09633	9
3.10000	10
3.10367	10
3.10733	11
3.11100	12
3.11467	12
3.11833	13
3.12200	14
3.12567	14
3.12933	15
3.13300	16
3.13667	16
3.14033	16
3.14400	17
3.14767	17
3.15133	17
3.15500	17
3.15867	17
3.16233	18
3.16600	18
3.16967	18
3.17333	18
3.17700	19
3.18067	19
3.18433	19
3.18800	20
3.19167	20
3.19533	20
3.19900	21
3.20267	21
3.20633	21
3.21000	21
3.21367	21
3.21733	22
3.22100	22
3.22467	22
3.22833	22
3.23200	22
3.23567	23
3.23933	23
3.24300	23
3.24667	23
3.25033	23
3.25400	23
3.25767	23
3.26133	23
3.26500	23
3.26867	24
3.27233	24
3.27600	24
3.27967	24
3.28333	24
3.28700	24
3.29067	24
3.29433	24
3.29800	24
3.30167	24
3.30533	24
3.30900	24
3.31267	24
3.31633	24
3.32000	24
3.32367	24
3.32733	24
3.33100	25
3.33467	25
3.33833	25
3.34200	26
3.34567	26
3.34933	26
3.35300	26
3.35667	26
3.36033	27
3.36400	27
3.36767	27
3.37133	27
3.37500	28
3.37867	28
3.38233	28
3.38600	29
3.38967	29
3.39333	29
3.39700	29
3.40067	29
3.40433	29
3.40800	28
3.41167	28
3.41533	28
3.41900	28
3.42267	28
3.42633	28
3.43000	28
3.43367	28
3.43733	28
3.44100	28
3.44467	28
3.44833	28
3.45200	28
3.45567	28
3.45933	27
3.46300	27
3.46667	27
3.47033	27
3.47400	27
3.47767	27
3.48133	27
3.48500	27
3.48867	27
3.49233	27
3.49600	26
3.49967	26
3.50333	26
3.50700	26
3.51067	26
3.51433	26
3.51800	26
3.52167	26
3.52533	26
3.52900	25
3.53267	25
3.53633	25
3.54000	25
3.54367	25
3.54733	25
3.55100	25
3.55467	25
3.55833	25
3.56200	25
3.56567	26
3.56933	26
3.57300	26
3.57667	26
3.58033	26
3.58400	26
3.58767	27
3.59133	27
3.59500	26
3.59867	26
3.60233	26
3.60600	26
3.60967	26
3.61333	26
3.61700	26
3.62067	26
3.62433	26
3.62800	26
3.63167	26
3.63533	26
3.63900	25
3.64267	25
3.64633	25
3.65000	25
3.65367	25
3.65733	26
3.66100	26
3.66467	26
3.66833	26
3.67200	26
3.67567	26
3.67933	26
3.68300	26
3.68667	26
3.69033	26
3.69400	26
3.69767	26
3.70133	26
3.70500	26
3.70867	26
3.71233	26
3.71600	26
3.71967	26
3.72333	26
3.72700	26
3.73067	26
3.73433	26
3.73800	26
3.74167	26
3.74533	26
3.74900	26
3.75267	26
3.75633	26
3.76000	26
3.76367	26
3.76733	26
3.77100	27
3.77467	27
3.77833	28
3.78200	28
3.78567	28
3.78933	28
3.79300	28
3.79667	28
3.80033	28
3.80400	28
3.80767	28
3.81133	28
3.81500	28
3.81867	28
3.82233	27
3.82600	27
3.82967	27
3.83333	27
3.83700	27
3.84067	27
3.84433	27
3.84800	27
3.85167	27
3.85533	27
3.85900	26
3.86267	26
3.86633	26
3.87000	25
3.87367	25
3.87733	25
3.88100	25
3.88467	25
3.88833	25
3.89200	25
3.89567	25
3.89933	25
3.90300	26
3.90667	26
3.91033	26
3.91400	26
3.91767	26
3.92133	27
3.92500	26
3.92867	26
3.93233	26
3.93600	26
3.93967	26
3.94333	26
3.94700	26
3.95067	26
3.95433	26
3.95800	26
3.96167	26
3.96533	26
3.96900	26
3.97267	26
3.97633	26
3.98000	26
3.98367	26
3.98733	27
3.99100	27
3.99467	27
3.99833	27

[Chromatogram (Ch3)]
Interval(msec)	220
# of Points	1091
Start Time(min)	0.002
End Time(min)	3.998
R.Time (min)	Intensity
0.00167	0
0.00533	1
0.00900	1
0.01267	2
0.01633	0
0.02000	-1
0.02367	-0
0.02733	3
0.03100	5
0.03467	6
0.03833	6
0.04200	5
0.04567	6
0.04933	6
0.05300	5
0.05667	4
0.06033	3
0.06400	2
0.06767	1
0.07133	1
0.07500	1
0.07867	1
0.08233	1
0.08600	2
0.08967	3
0.09333	3
0.09700	3
0.10067	2
0.10433	1
0.10800	1
0.11167	2
0.11533	4
0.11900	5
0.12267	2
0.12633	2
0.13000	1
0.13367	2
0.13733	3
0.14100	5
0.14467	6
0.14833	8
0.15200	9
0.15567	7
0.15933	7
0.16300	6
0.16667	5
0.17033	4
0.17400	4
0.17767	3
0.18133	1
0.18500	1
0.18867	2
0.19233	4
0.19600	4
0.19967	4
0.20333	5
0.20700	5
0.21067	3
0.21433	4
0.21800	6
0.22167	7
0.22533	9
0.22900	11
0.23267	10
0.23633	7
0.24000	5
0.24367	5
0.24733	5
0.25100	5
0.25467	1
0.25833	-2
0.26200	-3
0.26567	-4
0.26933	-4
0.27300	-4
0.27667	-1
0.28033	3
0.28400	3
0.28767	5
0.29133	6
0.29500	5
0.29867	4
0.30233	2
0.30600	1
0.30967	1
0.31333	0
0.31700	1
0.32067	1
0.32433	0
0.32800	3
0.33167	5
0.33533	4
0.33900	4
0.34267	3
0.34633	3
0.35000	3
0.35367	3
0.35733	5
0.36100	6
0.36467	7
0.36833	7
0.37200	6
0.37567	7
0.37933	9
0.38300	10
0.38667	11
0.39033	10
0.39400	9
0.39767	7
0.40133	4
0.40500	5
0.40867	8
0.41233	9
0.41600	9
0.41967	8
0.42333	6
0.42700	5
0.43067	5
0.43433	5
0.43800	5
0.44167	6
0.44533	4
0.44900	5
0.45267	5
0.45633	6
0.46000	8
0.46367	10
0.46733	11
0.47100	8
0.47467	6
0.47833	6
0.48200	7
0.48567	6
0.48933	5
0.49300	5
0.49667	4
0.50033	3
0.50400	5
0.50767	7
0.51133	7
0.51500	8
0.51867	8
0.52233	6
0.52600	7
0.52967	8
0.53333	9
0.53700	8
0.54067	7
0.54433	7
0.54800	7
0.55167	8
0.55533	6
0.55900	6
0.56267	7
0.56633	7
0.57000	5
0.57367	5
0.57733	7
0.58100	8
0.58467	10
0.58833	12
0.59200	10
0.59567	8
0.59933	6
0.60300	7
0.60667	7
0.61033	9
0.61400	10
0.61767	9
0.62133	9
0.62500	9
0.62867	11
0.63233	11
0.63600	11
0.63967	10
0.64333	9
0.64700	10
0.65067	9
0.65433	6
0.65800	7
0.66167	9
0.66533	11
0.66900	11
0.67267	9
0.67633	7
0.68000	5
0.68367	4
0.68733	5
0.69100	7
0.69467	7
0.69833	8
0.70200	9
0.70567	8
0.70933	9
0.71300	8
0.71667	7
0.72033	8
0.72400	9
0.72767	9
0.73133	9
0.73500	11
0.73867	12
0.74233	13
0.74600	14
0.74967	14
0.75333	12
0.75700	10
0.76067	10
0.76433	12
0.76800	12
0.77167	12
0.77533	11
0.77900	11
0.78267	12
0.78633	13
0.79000	14
0.79367	15
0.79733	15
0.80100	15
0.80467	14
0.80833	13
0.81200	13
0.81567	11
0.81933	9
0.82300	10
0.82667	12
0.83033	14
0.83400	15
0.83767	12
0.84133	10
0.84500	9
0.84867	10
0.85233	10
0.85600	10
0.85967	9
0.86333	8
0.86700	9
0.87067	8
0.87433	6
0.87800	7
0.88167	10
0.88533	14
0.88900	16
0.89267	16
0.89633	17
0.90000	16
0.90367	14
0.90733	12
0.91100	10
0.91467	10
0.91833	11
0.92200	13
0.92567	12
0.92933	9
0.93300	10
0.93667	11
0.94033	11
0.94400	12
0.94767	15
0.95133	17
0.95500	18
0.95867	18
0.96233	17
0.96600	19
0.96967	19
0.97333	19
0.97700	20
0.98067	18
0.98433	16
0.98800	15
0.99167	15
0.99533	17
0.99900	17
1.00267	17
1.00633	17
1.01000	18
1.01367	19
1.01733	18
1.02100	16
1.02467	16
1.02833	17
1.03200	18
1.03567	18
1.03933	17
1.04300	17
1.04667	15
1.05033	14
1.05400	13
1.05767	14
1.06133	14
1.06500	14
1.06867	17
1.07233	16
1.07600	14
1.07967	12
1.08333	11
1.08700	13
1.09067	13
1.09433	13
1.09800	14
1.10167	14
1.10533	14
1.10900	14
1.11267	16
1.11633	15
1.12000	14
1.12367	13
1.12733	14
1.13100	16
1.13467	18
1.13833	20
1.14200	19
1.14567	19
1.14933	19
1.15300	17
1.15667	18
1.16033	20
1.16400	20
1.16767	20
1.17133	20
1.17500	20
1.17867	19
1.18233	19
1.18600	18
1.18967	18
1.19333	15
1.19700	16
1.20067	18
1.20433	18
1.20800	18
1.21167	18
1.21533	19
1.21900	19
1.22267	19
1.22633	19
1.23000	20
1.23367	21
1.23733	20
1.24100	21
1.24467	22
1.24833	21
1.25200	22
1.25567	24
1.25933	22
1.26300	20
1.26667	18
1.27033	17
1.27400	16
1.27767	15
1.28133	14
1.28500	16
1.28867	17
1.29233	17
1.29600	17
1.29967	18
1.30333	19
1.30700	21
1.31067	21
1.31433	17
1.31800	13
1.32167	14
1.32533	16
1.32900	17
1.33267	19
1.33633	21
1.34000	23
1.34367	23
1.34733	22
1.35100	22
1.35467	21
1.35833	19
1.36200	18
1.36567	18
1.36933	18
1.37300	19
1.37667	18
1.38033	18
1.38400	18
1.38767	19
1.39133	19
1.39500	18
1.39867	18
1.40233	19
1.40600	21
1.40967	22
1.41333	21
1.41700	22
1.42067	22
1.42433	22
1.42800	22
1.43167	23
1.43533	22
1.43900	19
1.44267	16
1.44633	15
1.45000	16
1.45367	18
1.45733	17
1.46100	16
1.46467	16
1.46833	17
1.47200	15
1.47567	13
1.47933	14
1.48300	18
1.48667	20
1.49033	21
1.49400	20
1.49767	19
1.50133	20
1.50500	21
1.50867	22
1.51233	25
1.51600	25
1.51967	26
1.52333	25
1.52700	23
1.53067	22
1.53433	22
1.53800	22
1.54167	23
1.54533	24
1.54900	25
1.55267	25
1.55633	24
1.56000	26
1.56367	26
1.56733	27
1.57100	27
1.57467	25
1.57833	24
1.58200	22
1.58567	20
1.58933	20
1.59300	20
1.59667	22
1.60033	25
1.60400	25
1.60767	24
1.61133	25
1.61500	25
1.61867	24
1.62233	24
1.62600	24
1.62967	27
1.63333	30
1.63700	31
1.64067	32
1.64433	33
1.64800	34
1.65167	34
1.65533	34
1.65900	33
1.66267	31
1.66633	33
1.67000	34
1.67367	35
1.67733	35
1.68100	34
1.68467	32
1.68833	31
1.69200	31
1.69567	31
1.69933	33
1.70300	35
1.70667	37
1.71033	38
1.71400	39
1.71767	40
1.72133	39
1.72500	36
1.72867	36
1.73233	36
1.73600	37
1.73967	38
1.74333	39
1.74700	40
1.75067	40
1.75433	40
1.75800	39
1.76167	38
1.76533	38
1.76900	39
1.77267	38
1.77633	37
1.78000	39
1.78367	40
1.78733	40
1.79100	40
1.79467	38
1.79833	38
1.80200	38
1.80567	38
1.80933	41
1.81300	45
1.81667	47
1.82033	46
1.82400	45
1.82767	45
1.83133	46
1.83500	47
1.83867	46
1.84233	46
1.84600	46
1.84967	47
1.85333	47
1.85700	47
1.86067	49
1.86433	52
1.86800	52
1.87167	51
1.87533	51
1.87900	51
1.88267	53
1.88633	56
1.89000	56
1.89367	55
1.89733	54
1.90100	55
1.90467	56
1.90833	58
1.91200	60
1.91567	60
1.91933	62
1.92300	61
1.92667	61
1.93033	61
1.93400	61
1.93767	58
1.94133	56
1.94500	57
1.94867	58
1.95233	59
1.95600	62
1.95967	61
1.96333	60
1.96700	62
1.97067	66
1.97433	72
1.97800	75
1.98167	78
1.98533	78
1.98900	79
1.99267	82
1.99633	83
2.00000	84
2.00367	84
2.00733	82
2.01100	81
2.01467	81
2.01833	82
2.02200	82
2.02567	81
2.02933	80
2.03300	82
2.03667	86
2.04033	88
2.04400	88
2.04767	88
2.05133	88
2.05500	88
2.05867	89
2.06233	90
2.06600	92
2.06967	94
2.07333	95
2.07700	95
2.08067	96
2.08433	97
2.08800	98
2.09167	98
2.09533	101
2.09900	103
2.10267	103
2.10633	104
2.11000	104
2.11367	104
2.11733	106
2.12100	109
2.12467	112
2.12833	113
2.13200	113
2.13567	114
2.13933	116
2.14300	116
2.14667	117
2.15033	119
2.15400	119
2.15767	122
2.16133	124
2.16500	126
2.16867	128
2.17233	128
2.17600	129
2.17967	131
2.18333	132
2.18700	132
2.19067	132
2.19433	133
2.19800	134
2.20167	134
2.20533	134
2.20900	133
2.21267	135
2.21633	140
2.22000	145
2.22367	148
2.22733	148
2.23100	148
2.23467	151
2.23833	154
2.24200	156
2.24567	157
2.24933	161
2.25300	164
2.25667	166
2.26033	166
2.26400	165
2.26767	165
2.27133	168
2.27500	171
2.27867	172
2.28233	174
2.28600	175
2.28967	179
2.29333	182
2.29700	184
2.30067	184
2.30433	185
2.30800	188
2.31167	191
2.31533	194
2.31900	195
2.32267	193
2.32633	194
2.33000	195
2.33367	196
2.33733	197
2.34100	200
2.34467	202
2.34833	204
2.35200	206
2.35567	208
2.35933	210
2.36300	211
2.36667	214
2.37033	216
2.37400	218
2.37767	221
2.38133	223
2.38500	222
2.38867	220
2.39233	223
2.39600	227
2.39967	231
2.40333	235
2.40700	237
2.41067	241
2.41433	246
2.41800	249
2.42167	251
2.42533	253
2.42900	257
2.43267	260
2.43633	263
2.44000	269
2.44367	323
2.44733	463
2.45100	609
2.45467	729
2.45833	801
2.46200	812
2.46567	784
2.46933	746
2.47300	715
2.47667	695
2.48033	682
2.48400	664
2.48767	633
2.49133	593
2.49500	551
2.49867	513
2.50233	484
2.50600	466
2.50967	455
2.51333	453
2.51700	459
2.52067	470
2.52433	489
2.52800	508
2.53167	523
2.53533	530
2.53900	528
2.54267	515
2.54633	495
2.55000	470
2.55367	444
2.55733	419
2.56100	398
2.56467	381
2.56833	368
2.57200	360
2.57567	357
2.57933	353
2.58300	350
2.58667	348
2.59033	346
2.59400	345
2.59767	346
2.60133	342
2.60500	335
2.60867	325
2.61233	313
2.61600	301
2.61967	290
2.62333	280
2.62700	271
2.63067	264
2.63433	264
2.63800	266
2.64167	270
2.64533	275
2.64900	281
2.65267	288
2.65633	291
2.66000	291
2.66367	292
2.66733	290
2.67100	286
2.67467	279
2.67833	271
2.68200	263
2.68567	255
2.68933	246
2.69300	239
2.69667	232
2.70033	225
2.70400	221
2.70767	218
2.71133	217
2.71500	218
2.71867	221
2.72233	223
2.72600	222
2.72967	219
2.73333	219
2.73700	217
2.74067	218
2.74433	217
2.74800	217
2.75167	219
2.75533	220
2.75900	222
2.76267	223
2.76633	225
2.77000	227
2.77367	226
2.77733	224
2.78100	221
2.78467	219
2.78833	220
2.79200	222
2.79567	222
2.79933	222
2.80300	223
2.80667	225
2.81033	228
2.81400	232
2.81767	236
2.82133	247
2.82500	269
2.82867	321
2.83233	419
2.83600	591
2.83967	855
2.84333	1225
2.84700	1704
2.85067	2271
2.85433	2887
2.85800	3510
2.86167	4092
2.86533	4583
2.86900	4946
2.87267	5161
2.87633	5228
2.88000	5157
2.88367	4973
2.88733	4704
2.89100	4378
2.89467	4024
2.89833	3662
2.90200	3307
2.90567	2968
2.90933	2651
2.91300	2362
2.91667	2102
2.92033	1871
2.92400	1664
2.92767	1481
2.93133	1321
2.93500	1183
2.93867	1061
2.94233	954
2.94600	861
2.94967	780
2.95333	708
2.95700	646
2.96067	592
2.96433	544
2.96800	504
2.97167	468
2.97533	436
2.97900	408
2.98267	386
2.98633	364
2.99000	344
2.99367	326
2.99733	311
3.00100	299
3.00467	287
3.00833	275
3.01200	265
3.01567	257
3.01933	253
3.02300	247
3.02667	241
3.03033	236
3.03400	230
3.03767	226
3.04133	224
3.04500	220
3.04867	217
3.05233	212
3.05600	207
3.05967	205
3.06333	202
3.06700	199
3.07067	198
3.07433	198
3.07800	197
3.08167	196
3.08533	196
3.08900	195
3.09267	193
3.09633	189
3.10000	189
3.10367	188
3.10733	186
3.11100	177
3.11467	151
3.11833	129
3.12200	125
3.12567	143
3.12933	172
3.13300	210
3.13667	250
3.14033	289
3.14400	328
3.14767	363
3.15133	395
3.15500	425
3.15867	452
3.16233	476
3.16600	497
3.16967	516
3.17333	533
3.17700	549
3.18067	562
3.18433	573
3.18800	582
3.19167	591
3.19533	599
3.19900	605
3.20267	612
3.20633	618
3.21000	623
3.21367	626
3.21733	632
3.22100	637
3.22467	638
3.22833	641
3.23200	646
3.23567	649
3.23933	651
3.24300	652
3.24667	654
3.25033	657
3.25400	662
3.25767	668
3.26133	673
3.26500	678
3.26867	682
3.27233	684
3.27600	688
3.27967	694
3.28333	700
3.28700	705
3.29067	710
3.29433	714
3.29800	719
3.30167	725
3.30533	731
3.30900	736
3.31267	741
3.31633	744
3.32000	746
3.32367	748
3.32733	750
3.33100	752
3.33467	754
3.33833	756
3.34200	759
3.34567	759
3.34933	759
3.35300	758
3.35667	757
3.36033	755
3.36400	754
3.36767	754
3.37133	753
3.37500	751
3.37867	753
3.38233	754
3.38600	752
3.38967	752
3.39333	750
3.39700	745
3.40067	740
3.40433	737
3.40800	736
3.41167	733
3.41533	732
3.41900	729
3.42267	730
3.42633	733
3.43000	731
3.43367	728
3.43733	728
3.44100	725
3.44467	723
3.44833	720
3.45200	717
3.45567	715
3.45933	712
3.46300	707
3.46667	704
3.47033	702
3.47400	701
3.47767	700
3.48133	698
3.48500	698
3.48867	697
3.49233	692
3.49600	687
3.49967	688
3.50333	686
3.50700	683
3.51067	681
3.51433	681
3.51800	682
3.52167	683
3.52533	682
3.52900	679
3.53267	675
3.53633	671
3.54000	670
3.54367	668
3.54733	666
3.55100	665
3.55467	665
3.55833	664
3.56200	663
3.56567	663
3.56933	664
3.57300	666
3.57667	669
3.58033	669
3.58400	669
3.58767	668
3.59133	665
3.59500	663
3.59867	662
3.60233	662
3.60600	663
3.60967	665
3.61333	663
3.61700	661
3.62067	660
3.62433	661
3.62800	662
3.63167	662
3.63533	664
3.63900	664
3.64267	664
3.64633	665
3.65000	664
3.65367	662
3.65733	658
3.66100	655
3.66467	654
3.66833	655
3.67200	658
3.67567	660
3.67933	662
3.68300	663
3.68667	662
3.69033	660
3.69400	657
3.69767	658
3.70133	658
3.70500	656
3.70867	656
3.71233	657
3.71600	658
3.71967	657
3.72333	658
3.72700	659
3.73067	660
3.73433	659
3.73800	654
3.74167	649
3.74533	647
3.74900	648
3.75267	650
3.75633	652
3.76000	653
3.76367	652
3.76733	649
3.77100	649
3.77467	649
3.77833	649
3.78200	650
3.78567	650
3.78933	648
3.79300	646
3.79667	644
3.80033	642
3.80400	641
3.80767	639
3.81133	639
3.81500	640
3.81867	639
3.82233	639
3.82600	638
3.82967	639
3.83333	639
3.83700	639
3.84067	638
3.84433	636
3.84800	632
3.85167	630
3.85533	629
3.85900	628
3.86267	627
3.86633	628
3.87000	626
3.87367	624
3.87733	619
3.88100	616
3.88467	615
3.88833	612
3.89200	613
3.89567	614
3.89933	612
3.90300	611
3.90667	608
3.91033	606
3.91400	606
3.91767	603
3.92133	600
3.92500	596
3.92867	591
3.93233	588
3.93600	588
3.93967	590
3.94333	591
3.94700	590
3.95067	588
3.95433	586
3.95800	584
3.96167	581
3.96533	583
3.96900	584
3.97267	584
3.97633	584
3.98000	584
3.98367	582
3.98733	579
3.99100	576
3.99467	572
3.99833	565

[Status Trace (Column Oven Temperature)]
Interval(msec)	1000
# of Points	240
Start Time(min)	0.007
End Time(min)	3.991
Intensity Units	
Intensity Multiplier	1
R.Time (min)	Intensity
0.00745	35.07
0.02412	35.06
0.04078	35.06
0.05745	35.06
0.07412	35.05
0.09078	35.05
0.10745	35.05
0.12412	35.06
0.14078	35.06
0.15745	35.05
0.17412	35.04
0.19078	35.04
0.20745	35.04
0.22412	35.03
0.24078	35.03
0.25745	35.04
0.27412	35.05
0.29078	35.04
0.30745	35.04
0.32412	35.04
0.34078	35.04
0.35745	35.03
0.37412	35.03
0.39078	35.04
0.40745	35.03
0.42412	35.03
0.44078	35.04
0.45745	35.04
0.47412	35.03
0.49078	35.02
0.50745	35.02
0.52412	35.01
0.54078	35.01
0.55745	35.01
0.57412	35.00
0.59078	35.00
0.60745	34.99
0.62412	34.99
0.64078	34.99
0.65745	34.98
0.67412	34.99
0.69078	35.00
0.70745	35.00
0.72412	34.99
0.74078	34.98
0.75745	34.97
0.77412	34.97
0.79078	34.97
0.80745	34.96
0.82412	34.97
0.84078	34.99
0.85745	35.00
0.87412	35.01
0.89078	35.01
0.90745	35.02
0.92412	35.01
0.94078	35.01
0.95745	35.01
0.97412	35.00
0.99078	34.99
1.00745	34.99
1.02412	34.99
1.04078	34.98
1.05745	34.99
1.07412	34.99
1.09078	35.01
1.10745	35.01
1.12412	35.01
1.14078	35.01
1.15745	35.01
1.17412	35.01
1.19078	35.00
1.20745	34.99
1.22412	34.98
1.24078	34.97
1.25745	34.95
1.27412	34.96
1.29078	34.97
1.30745	34.98
1.32412	34.99
1.34078	35.00
1.35745	35.01
1.37412	35.02
1.39078	35.02
1.40745	35.01
1.42412	35.02
1.44078	35.01
1.45745	34.99
1.47412	34.97
1.49078	34.96
1.50745	34.95
1.52412	34.96
1.54078	34.98
1.55745	34.98
1.57412	34.99
1.59078	35.00
1.60745	35.07
1.62412	35.20
1.64078	35.40
1.65745	35.63
1.67412	35.95
1.69078	36.32
1.70745	36.68
1.72412	37.02
1.74078	37.33
1.75745	37.67
1.77412	38.00
1.79078	38.34
1.80745	38.67
1.82412	38.98
1.84078	39.33
1.85745	39.67
1.87412	39.99
1.89078	40.32
1.90745	40.64
1.92412	40.97
1.94078	41.30
1.95745	41.61
1.97412	41.94
1.99078	42.26
2.00745	42.58
2.02412	42.91
2.04078	43.25
2.05745	43.58
2.07412	43.91
2.09078	44.23
2.10745	44.55
2.12412	44.87
2.14078	45.19
2.15745	45.53
2.17412	45.84
2.19078	46.19
2.20745	46.52
2.22412	46.84
2.24078	47.15
2.25745	47.49
2.27412	47.82
2.29078	48.15
2.30745	48.49
2.32412	48.80
2.34078	49.13
2.35745	49.42
2.37412	49.61
2.39078	49.69
2.40745	49.69
2.42412	49.69
2.44078	49.70
2.45745	49.69
2.47412	49.72
2.49078	49.73
2.50745	49.73
2.52412	49.73
2.54078	49.75
2.55745	49.76
2.57412	49.77
2.59078	49.79
2.60745	49.80
2.62412	49.83
2.64078	49.83
2.65745	49.84
2.67412	49.85
2.69078	49.87
2.70745	49.88
2.72412	49.86
2.74078	49.84
2.75745	49.85
2.77412	49.88
2.79078	49.89
2.80745	49.89
2.82412	49.89
2.84078	49.90
2.85745	49.89
2.87412	49.90
2.89078	49.91
2.90745	49.92
2.92412	49.94
2.94078	49.95
2.95745	49.97
2.97412	49.98
2.99078	49.99
3.00745	49.99
3.02412	50.01
3.04078	50.02
3.05745	50.03
3.07412	50.04
3.09078	50.05
3.10745	50.06
3.12412	50.07
3.14078	50.07
3.15745	50.08
3.17412	50.08
3.19078	50.08
3.20745	50.09
3.22412	50.09
3.24078	50.09
3.25745	50.09
3.27412	50.10
3.29078	50.10
3.30745	50.11
3.32412	50.10
3.34078	50.09
3.35745	50.07
3.37412	50.06
3.39078	50.05
3.40745	50.04
3.42412	50.04
3.44078	50.03
3.45745	50.02
3.47412	50.03
3.49078	50.04
3.50745	50.04
3.52412	50.04
3.54078	50.06
3.55745	50.05
3.57412	50.06
3.59078	50.05
3.60745	50.06
3.62412	50.07
3.64078	50.07
3.65745	50.08
3.67412	50.08
3.69078	50.08
3.70745	50.08
3.72412	50.09
3.74078	50.08
3.75745	50.08
3.77412	50.06
3.79078	50.05
3.80745	50.05
3.82412	50.05
3.84078	50.05
3.85745	50.06
3.87412	50.08
3.89078	50.08
3.90745	50.08
3.92412	50.08
3.94078	50.08
3.95745	50.09
3.97412	50.08
3.99078	50.09

[Status Trace (Injection Unit Temperature)]
Interval(msec)	1000
# of Points	240
Start Time(min)	0.007
End Time(min)	3.991
Intensity Units	
Intensity Multiplier	1
R.Time (min)	Intensity
0.00745	99.98
0.02412	99.98
0.04078	99.98
0.05745	99.98
0.07412	99.98
0.09078	99.98
0.10745	99.98
0.12412	99.98
0.14078	99.99
0.15745	99.98
0.17412	99.98
0.19078	99.98
0.20745	99.97
0.22412	99.98
0.24078	99.98
0.25745	99.98
0.27412	99.98
0.29078	99.98
0.30745	99.98
0.32412	99.98
0.34078	99.98
0.35745	99.98
0.37412	99.98
0.39078	99.98
0.40745	99.98
0.42412	99.98
0.44078	99.98
0.45745	99.98
0.47412	99.98
0.49078	99.98
0.50745	99.98
0.52412	99.99
0.54078	99.98
0.55745	99.98
0.57412	99.98
0.59078	99.98
0.60745	99.98
0.62412	99.99
0.64078	99.98
0.65745	99.98
0.67412	99.99
0.69078	99.99
0.70745	99.99
0.72412	99.98
0.74078	99.98
0.75745	99.99
0.77412	99.99
0.79078	99.99
0.80745	99.98
0.82412	99.99
0.84078	99.99
0.85745	99.98
0.87412	99.98
0.89078	99.98
0.90745	99.98
0.92412	99.98
0.94078	99.99
0.95745	99.99
0.97412	99.99
0.99078	99.99
1.00745	99.98
1.02412	99.98
1.04078	99.98
1.05745	99.98
1.07412	99.98
1.09078	99.98
1.10745	99.98
1.12412	99.98
1.14078	99.98
1.15745	99.98
1.17412	99.98
1.19078	99.98
1.20745	99.98
1.22412	99.98
1.24078	99.98
1.25745	99.98
1.27412	99.98
1.29078	99.98
1.30745	99.98
1.32412	99.98
1.34078	99.98
1.35745	99.98
1.37412	99.98
1.39078	99.99
1.40745	99.98
1.42412	99.97
1.44078	99.99
1.45745	99.98
1.47412	99.98
1.49078	99.99
1.50745	99.99
1.52412	99.98
1.54078	99.98
1.55745	99.98
1.57412	99.98
1.59078	99.98
1.60745	99.98
1.62412	99.98
1.64078	99.98
1.65745	99.99
1.67412	99.99
1.69078	99.98
1.70745	99.98
1.72412	99.99
1.74078	99.98
1.75745	99.98
1.77412	99.98
1.79078	99.98
1.80745	99.98
1.82412	99.98
1.84078	99.98
1.85745	99.98
1.87412	99.99
1.89078	99.98
1.90745	99.98
1.92412	99.98
1.94078	99.99
1.95745	99.98
1.97412	99.98
1.99078	99.98
2.00745	99.98
2.02412	99.98
2.04078	99.98
2.05745	99.98
2.07412	99.98
2.09078	99.98
2.10745	99.98
2.12412	99.97
2.14078	99.98
2.15745	99.97
2.17412	99.97
2.19078	99.97
2.20745	99.98
2.22412	99.97
2.24078	99.97
2.25745	99.97
2.27412	99.97
2.29078	99.97
2.30745	99.97
2.32412	99.97
2.34078	99.97
2.35745	99.97
2.37412	99.97
2.39078	99.97
2.40745	99.97
2.42412	99.97
2.44078	99.98
2.45745	99.97
2.47412	99.97
2.49078	99.98
2.50745	99.98
2.52412	99.98
2.54078	99.98
2.55745	99.98
2.57412	99.98
2.59078	99.98
2.60745	99.98
2.62412	99.98
2.64078	99.98
2.65745	99.98
2.67412	99.98
2.69078	99.98
2.70745	99.98
2.72412	99.98
2.74078	99.99
2.75745	99.99
2.77412	99.99
2.79078	99.99
2.80745	99.99
2.82412	99.99
2.84078	100.00
2.85745	100.00
2.87412	100.00
2.89078	100.00
2.90745	100.00
2.92412	100.00
2.94078	100.01
2.95745	100.01
2.97412	100.01
2.99078	100.01
3.00745	100.01
3.02412	100.01
3.04078	100.01
3.05745	100.01
3.07412	100.01
3.09078	100.01
3.10745	100.02
3.12412	100.02
3.14078	100.02
3.15745	100.01
3.17412	100.02
3.19078	100.02
3.20745	100.02
3.22412	100.02
3.24078	100.02
3.25745	100.02
3.27412	100.02
3.29078	100.02
3.30745	100.03
3.32412	100.03
3.34078	100.03
3.35745	100.03
3.37412	100.03
3.39078	100.03
3.40745	100.03
3.42412	100.03
3.44078	100.03
3.45745	100.03
3.47412	100.03
3.49078	100.04
3.50745	100.03
3.52412	100.04
3.54078	100.04
3.55745	100.04
3.57412	100.04
3.59078	100.04
3.60745	100.04
3.62412	100.03
3.64078	100.04
3.65745	100.04
3.67412	100.04
3.69078	100.04
3.70745	100.04
3.72412	100.04
3.74078	100.04
3.75745	100.04
3.77412	100.04
3.79078	100.04
3.80745	100.04
3.82412	100.05
3.84078	100.05
3.85745	100.05
3.87412	100.05
3.89078	100.05
3.90745	100.05
3.92412	100.05
3.94078	100.05
3.95745	100.05
3.97412	100.05
3.99078	100.05

[Status Trace (Carrier Gas Pressure)]
Interval(msec)	1000
# of Points	240
Start Time(min)	0.007
End Time(min)	3.991
Intensity Units	
Intensity Multiplier	1
R.Time (min)	Intensity
0.00745	58.00
0.02412	55.40
0.04078	57.01
0.05745	59.20
0.07412	59.43
0.09078	58.08
0.10745	57.98
0.12412	58.01
0.14078	58.01
0.15745	58.00
0.17412	58.00
0.19078	58.00
0.20745	58.00
0.22412	58.00
0.24078	58.00
0.25745	58.00
0.27412	58.00
0.29078	58.00
0.30745	58.00
0.32412	58.00
0.34078	58.00
0.35745	58.00
0.37412	58.00
0.39078	58.00
0.40745	58.00
0.42412	58.00
0.44078	58.00
0.45745	58.00
0.47412	58.00
0.49078	58.00
0.50745	58.00
0.52412	58.00
0.54078	58.00
0.55745	58.00
0.57412	58.00
0.59078	58.00
0.60745	58.00
0.62412	58.00
0.64078	58.00
0.65745	58.00
0.67412	58.00
0.69078	58.00
0.70745	58.00
0.72412	58.00
0.74078	58.00
0.75745	58.00
0.77412	58.00
0.79078	58.00
0.80745	58.00
0.82412	58.00
0.84078	58.00
0.85745	58.00
0.87412	58.00
0.89078	58.00
0.90745	58.00
0.92412	58.00
0.94078	58.00
0.95745	58.00
0.97412	58.00
0.99078	58.00
1.00745	58.00
1.02412	58.00
1.04078	58.00
1.05745	58.00
1.07412	58.00
1.09078	58.00
1.10745	58.00
1.12412	58.00
1.14078	58.00
1.15745	58.00
1.17412	58.00
1.19078	58.00
1.20745	58.00
1.22412	58.00
1.24078	58.00
1.25745	58.00
1.27412	58.00
1.29078	58.00
1.30745	58.00
1.32412	58.00
1.34078	58.00
1.35745	58.00
1.37412	58.00
1.39078	58.00
1.40745	58.00
1.42412	58.00
1.44078	58.00
1.45745	58.00
1.47412	58.00
1.49078	58.00
1.50745	58.00
1.52412	58.00
1.54078	58.00
1.55745	58.00
1.57412	58.00
1.59078	58.00
1.60745	58.00
1.62412	58.00
1.64078	58.00
1.65745	58.00
1.67412	58.01
1.69078	58.01
1.70745	58.00
1.72412	58.00
1.74078	58.00
1.75745	58.00
1.77412	58.00
1.79078	58.00
1.80745	58.00
1.82412	58.00
1.84078	58.00
1.85745	58.00
1.87412	58.00
1.89078	58.00
1.90745	58.00
1.92412	58.00
1.94078	58.00
1.95745	58.00
1.97412	58.00
1.99078	58.00
2.00745	58.00
2.02412	58.00
2.04078	58.00
2.05745	58.00
2.07412	58.00
2.09078	58.00
2.10745	58.00
2.12412	58.00
2.14078	58.00
2.15745	58.00
2.17412	58.00
2.19078	58.00
2.20745	58.00
2.22412	58.00
2.24078	58.00
2.25745	58.00
2.27412	58.00
2.29078	58.00
2.30745	58.00
2.32412	58.00
2.34078	58.00
2.35745	58.00
2.37412	58.00
2.39078	57.99
2.40745	57.99
2.42412	58.00
2.44078	58.00
2.45745	58.00
2.47412	58.00
2.49078	58.00
2.50745	57.99
2.52412	57.99
2.54078	58.00
2.55745	58.00
2.57412	58.00
2.59078	58.00
2.60745	58.00
2.62412	58.00
2.64078	58.00
2.65745	58.00
2.67412	58.00
2.69078	58.00
2.70745	58.00
2.72412	58.00
2.74078	58.00
2.75745	58.00
2.77412	58.00
2.79078	58.00
2.80745	58.00
2.82412	58.00
2.84078	58.00
2.85745	58.00
2.87412	58.00
2.89078	58.00
2.90745	58.00
2.92412	58.00
2.94078	58.00
2.95745	58.00
2.97412	58.00
2.99078	58.00
3.00745	58.00
3.02412	58.00
3.04078	58.00
3.05745	58.00
3.07412	58.00
3.09078	58.00
3.10745	58.00
3.12412	58.00
3.14078	58.00
3.15745	58.00
3.17412	58.00
3.19078	58.00
3.20745	58.00
3.22412	58.00
3.24078	58.00
3.25745	58.00
3.27412	58.00
3.29078	58.00
3.30745	58.00
3.32412	58.00
3.34078	58.00
3.35745	58.00
3.37412	58.00
3.39078	58.00
3.40745	58.00
3.42412	58.00
3.44078	58.00
3.45745	58.00
3.47412	58.00
3.49078	58.00
3.50745	58.00
3.52412	58.00
3.54078	58.00
3.55745	58.00
3.57412	58.00
3.59078	58.00
3.60745	58.00
3.62412	58.00
3.64078	58.00
3.65745	58.00
3.67412	58.00
3.69078	58.00
3.70745	58.00
3.72412	58.00
3.74078	58.00
3.75745	58.00
3.77412	58.00
3.79078	58.00
3.80745	58.00
3.82412	58.00
3.84078	58.00
3.85745	58.00
3.87412	58.00
3.89078	58.00
3.90745	58.00
3.92412	58.00
3.94078	58.00
3.95745	58.00
3.97412	58.00
3.99078	58.00

[Status Trace (Carrier Gas Flow)]
Interval(msec)	1000
# of Points	240
Start Time(min)	0.007
End Time(min)	3.991
Intensity Units	
Intensity Multiplier	1
R.Time (min)	Intensity
0.00745	34.52
0.02412	34.54
0.04078	34.54
0.05745	34.54
0.07412	34.50
0.09078	34.52
0.10745	34.52
0.12412	34.52
0.14078	34.51
0.15745	34.51
0.17412	34.52
0.19078	34.52
0.20745	34.52
0.22412	34.52
0.24078	34.52
0.25745	34.51
0.27412	34.52
0.29078	34.52
0.30745	34.52
0.32412	34.52
0.34078	34.52
0.35745	34.52
0.37412	34.51
0.39078	34.51
0.40745	34.52
0.42412	34.51
0.44078	34.53
0.45745	34.52
0.47412	34.52
0.49078	34.52
0.50745	34.52
0.52412	34.52
0.54078	34.52
0.55745	34.51
0.57412	34.52
0.59078	34.52
0.60745	34.52
0.62412	34.52
0.64078	34.51
0.65745	34.52
0.67412	34.52
0.69078	34.52
0.70745	34.51
0.72412	34.53
0.74078	34.52
0.75745	34.52
0.77412	34.51
0.79078	34.52
0.80745	34.52
0.82412	34.52
0.84078	34.52
0.85745	34.52
0.87412	34.52
0.89078	34.52
0.90745	34.52
0.92412	34.52
0.94078	34.52
0.95745	34.52
0.97412	34.52
0.99078	34.52
1.00745	34.52
1.02412	34.52
1.04078	34.52
1.05745	34.53
1.07412	34.52
1.09078	34.51
1.10745	34.52
1.12412	34.52
1.14078	34.52
1.15745	34.52
1.17412	34.52
1.19078	34.52
1.20745	34.52
1.22412	34.52
1.24078	34.51
1.25745	34.51
1.27412	34.51
1.29078	34.52
1.30745	34.52
1.32412	34.52
1.34078	34.52
1.35745	34.51
1.37412	34.51
1.39078	34.52
1.40745	34.53
1.42412	34.52
1.44078	34.52
1.45745	34.52
1.47412	34.52
1.49078	34.52
1.50745	34.52
1.52412	34.52
1.54078	34.53
1.55745	34.51
1.57412	34.52
1.59078	34.52
1.60745	34.52
1.62412	34.52
1.64078	34.52
1.65745	34.52
1.67412	34.52
1.69078	34.52
1.70745	34.52
1.72412	34.52
1.74078	34.52
1.75745	34.52
1.77412	34.52
1.79078	34.53
1.80745	34.52
1.82412	34.52
1.84078	34.51
1.85745	34.51
1.87412	34.52
1.89078	34.52
1.90745	34.52
1.92412	34.53
1.94078	34.52
1.95745	34.52
1.97412	34.51
1.99078	34.52
2.00745	34.52
2.02412	34.52
2.04078	34.52
2.05745	34.52
2.07412	34.52
2.09078	34.52
2.10745	34.52
2.12412	34.51
2.14078	34.52
2.15745	34.53
2.17412	34.52
2.19078	34.52
2.20745	34.52
2.22412	34.52
2.24078	34.52
2.25745	34.51
2.27412	34.52
2.29078	34.52
2.30745	34.52
2.32412	34.51
2.34078	34.52
2.35745	34.52
2.37412	34.52
2.39078	34.51
2.40745	34.52
2.42412	34.53
2.44078	34.52
2.45745	34.52
2.47412	34.52
2.49078	34.52
2.50745	34.35
2.52412	34.51
2.54078	34.51
2.55745	34.52
2.57412	34.51
2.59078	34.51
2.60745	34.52
2.62412	34.51
2.64078	34.51
2.65745	34.52
2.67412	34.52
2.69078	34.52
2.70745	34.52
2.72412	34.52
2.74078	34.51
2.75745	34.52
2.77412	34.52
2.79078	34.52
2.80745	34.53
2.82412	34.52
2.84078	34.52
2.85745	34.52
2.87412	34.52
2.89078	34.52
2.90745	34.52
2.92412	34.52
2.94078	34.51
2.95745	34.52
2.97412	34.52
2.99078	34.52
3.00745	34.52
3.02412	34.52
3.04078	34.52
3.05745	34.52
3.07412	34.53
3.09078	34.51
3.10745	34.51
3.12412	34.52
3.14078	34.52
3.15745	34.52
3.17412	34.52
3.19078	34.52
3.20745	34.52
3.22412	34.52
3.24078	34.51
3.25745	34.52
3.27412	34.52
3.29078	34.52
3.30745	34.52
3.32412	34.52
3.34078	34.52
3.35745	34.52
3.37412	34.52
3.39078	34.52
3.40745	34.52
3.42412	34.52
3.44078	34.52
3.45745	34.52
3.47412	34.52
3.49078	34.52
3.50745	34.52
3.52412	34.52
3.54078	34.51
3.55745	34.52
3.57412	34.52
3.59078	34.52
3.60745	34.51
3.62412	34.52
3.64078	34.53
3.65745	34.52
3.67412	34.52
3.69078	34.52
3.70745	34.52
3.72412	34.51
3.74078	34.52
3.75745	34.52
3.77412	34.52
3.79078	34.52
3.80745	34.52
3.82412	34.52
3.84078	34.52
3.85745	34.52
3.87412	34.52
3.89078	34.52
3.90745	34.52
3.92412	34.52
3.94078	34.52
3.95745	34.51
3.97412	34.52
3.99078	34.52

[Status Trace (Column Flow)]
Interval(msec)	1000
# of Points	240
Start Time(min)	0.007
End Time(min)	3.991
Intensity Units	
Intensity Multiplier	1
R.Time (min)	Intensity
0.00745	5.51
0.02412	5.21
0.04078	5.40
0.05745	5.65
0.07412	5.68
0.09078	5.52
0.10745	5.51
0.12412	5.52
0.14078	5.52
0.15745	5.51
0.17412	5.52
0.19078	5.52
0.20745	5.52
0.22412	5.52
0.24078	5.52
0.25745	5.52
0.27412	5.51
0.29078	5.51
0.30745	5.52
0.32412	5.52
0.34078	5.52
0.35745	5.52
0.37412	5.52
0.39078	5.52
0.40745	5.52
0.42412	5.52
0.44078	5.52
0.45745	5.52
0.47412	5.52
0.49078	5.52
0.50745	5.52
0.52412	5.52
0.54078	5.52
0.55745	5.52
0.57412	5.52
0.59078	5.52
0.60745	5.52
0.62412	5.52
0.64078	5.52
0.65745	5.52
0.67412	5.52
0.69078	5.52
0.70745	5.52
0.72412	5.52
0.74078	5.52
0.75745	5.52
0.77412	5.52
0.79078	5.52
0.80745	5.52
0.82412	5.52
0.84078	5.52
0.85745	5.52
0.87412	5.52
0.89078	5.52
0.90745	5.52
0.92412	5.52
0.94078	5.52
0.95745	5.52
0.97412	5.52
0.99078	5.52
1.00745	5.52
1.02412	5.52
1.04078	5.52
1.05745	5.52
1.07412	5.52
1.09078	5.52
1.10745	5.52
1.12412	5.52
1.14078	5.52
1.15745	5.52
1.17412	5.52
1.19078	5.52
1.20745	5.52
1.22412	5.52
1.24078	5.52
1.25745	5.52
1.27412	5.52
1.29078	5.52
1.30745	5.52
1.32412	5.52
1.34078	5.52
1.35745	5.52
1.37412	5.52
1.39078	5.52
1.40745	5.52
1.42412	5.52
1.44078	5.52
1.45745	5.52
1.47412	5.52
1.49078	5.52
1.50745	5.52
1.52412	5.52
1.54078	5.52
1.55745	5.52
1.57412	5.52
1.59078	5.52
1.60745	5.51
1.62412	5.51
1.64078	5.50
1.65745	5.50
1.67412	5.49
1.69078	5.48
1.70745	5.46
1.72412	5.45
1.74078	5.44
1.75745	5.43
1.77412	5.42
1.79078	5.41
1.80745	5.40
1.82412	5.39
1.84078	5.38
1.85745	5.37
1.87412	5.36
1.89078	5.35
1.90745	5.34
1.92412	5.33
1.94078	5.32
1.95745	5.31
1.97412	5.30
1.99078	5.30
2.00745	5.29
2.02412	5.28
2.04078	5.27
2.05745	5.26
2.07412	5.25
2.09078	5.24
2.10745	5.23
2.12412	5.22
2.14078	5.21
2.15745	5.20
2.17412	5.19
2.19078	5.18
2.20745	5.17
2.22412	5.16
2.24078	5.15
2.25745	5.14
2.27412	5.13
2.29078	5.13
2.30745	5.12
2.32412	5.11
2.34078	5.10
2.35745	5.09
2.37412	5.08
2.39078	5.08
2.40745	5.08
2.42412	5.08
2.44078	5.08
2.45745	5.08
2.47412	5.08
2.49078	5.08
2.50745	5.08
2.52412	5.08
2.54078	5.08
2.55745	5.08
2.57412	5.08
2.59078	5.08
2.60745	5.08
2.62412	5.08
2.64078	5.08
2.65745	5.08
2.67412	5.08
2.69078	5.08
2.70745	5.08
2.72412	5.08
2.74078	5.08
2.75745	5.08
2.77412	5.08
2.79078	5.08
2.80745	5.08
2.82412	5.08
2.84078	5.08
2.85745	5.08
2.87412	5.08
2.89078	5.08
2.90745	5.08
2.92412	5.08
2.94078	5.08
2.95745	5.07
2.97412	5.07
2.99078	5.07
3.00745	5.07
3.02412	5.07
3.04078	5.07
3.05745	5.07
3.07412	5.07
3.09078	5.07
3.10745	5.07
3.12412	5.07
3.14078	5.07
3.15745	5.07
3.17412	5.07
3.19078	5.07
3.20745	5.07
3.22412	5.07
3.24078	5.07
3.25745	5.07
3.27412	5.07
3.29078	5.07
3.30745	5.07
3.32412	5.07
3.34078	5.07
3.35745	5.07
3.37412	5.07
3.39078	5.07
3.40745	5.07
3.42412	5.07
3.44078	5.07
3.45745	5.07
3.47412	5.07
3.49078	5.07
3.50745	5.07
3.52412	5.07
3.54078	5.07
3.55745	5.07
3.57412	5.07
3.59078	5.07
3.60745	5.07
3.62412	5.07
3.64078	5.07
3.65745	5.07
3.67412	5.07
3.69078	5.07
3.70745	5.07
3.72412	5.07
3.74078	5.07
3.75745	5.07
3.77412	5.07
3.79078	5.07
3.80745	5.07
3.82412	5.07
3.84078	5.07
3.85745	5.07
3.87412	5.07
3.89078	5.07
3.90745	5.07
3.92412	5.07
3.94078	5.07
3.95745	5.07
3.97412	5.07
3.99078	5.07

[Status Trace (Linear Velocity)]
Interval(msec)	1000
# of Points	240
Start Time(min)	0.007
End Time(min)	3.991
Intensity Units	
Intensity Multiplier	1
R.Time (min)	Intensity
0.00745	39.01
0.02412	37.30
0.04078	38.36
0.05745	39.80
0.07412	39.95
0.09078	39.07
0.10745	39.00
0.12412	39.02
0.14078	39.02
0.15745	39.01
0.17412	39.01
0.19078	39.01
0.20745	39.01
0.22412	39.01
0.24078	39.01
0.25745	39.01
0.27412	39.01
0.29078	39.01
0.30745	39.01
0.32412	39.01
0.34078	39.01
0.35745	39.01
0.37412	39.01
0.39078	39.01
0.40745	39.01
0.42412	39.01
0.44078	39.01
0.45745	39.01
0.47412	39.01
0.49078	39.01
0.50745	39.01
0.52412	39.01
0.54078	39.01
0.55745	39.02
0.57412	39.02
0.59078	39.02
0.60745	39.02
0.62412	39.02
0.64078	39.02
0.65745	39.02
0.67412	39.02
0.69078	39.02
0.70745	39.02
0.72412	39.02
0.74078	39.02
0.75745	39.02
0.77412	39.02
0.79078	39.02
0.80745	39.02
0.82412	39.02
0.84078	39.02
0.85745	39.02
0.87412	39.01
0.89078	39.01
0.90745	39.01
0.92412	39.01
0.94078	39.01
0.95745	39.01
0.97412	39.01
0.99078	39.02
1.00745	39.02
1.02412	39.02
1.04078	39.02
1.05745	39.02
1.07412	39.02
1.09078	39.02
1.10745	39.01
1.12412	39.01
1.14078	39.01
1.15745	39.01
1.17412	39.01
1.19078	39.02
1.20745	39.02
1.22412	39.02
1.24078	39.02
1.25745	39.02
1.27412	39.02
1.29078	39.02
1.30745	39.02
1.32412	39.02
1.34078	39.02
1.35745	39.01
1.37412	39.01
1.39078	39.01
1.40745	39.01
1.42412	39.01
1.44078	39.01
1.45745	39.02
1.47412	39.02
1.49078	39.02
1.50745	39.02
1.52412	39.02
1.54078	39.02
1.55745	39.02
1.57412	39.02
1.59078	39.02
1.60745	39.01
1.62412	39.00
1.64078	38.98
1.65745	38.96
1.67412	38.93
1.69078	38.90
1.70745	38.85
1.72412	38.82
1.74078	38.80
1.75745	38.76
1.77412	38.73
1.79078	38.70
1.80745	38.67
1.82412	38.64
1.84078	38.61
1.85745	38.57
1.87412	38.54
1.89078	38.51
1.90745	38.48
1.92412	38.45
1.94078	38.42
1.95745	38.39
1.97412	38.36
1.99078	38.33
2.00745	38.30
2.02412	38.27
2.04078	38.24
2.05745	38.21
2.07412	38.18
2.09078	38.15
2.10745	38.12
2.12412	38.09
2.14078	38.07
2.15745	38.03
2.17412	38.00
2.19078	37.98
2.20745	37.94
2.22412	37.91
2.24078	37.89
2.25745	37.86
2.27412	37.83
2.29078	37.80
2.30745	37.77
2.32412	37.74
2.34078	37.71
2.35745	37.68
2.37412	37.66
2.39078	37.65
2.40745	37.65
2.42412	37.66
2.44078	37.66
2.45745	37.66
2.47412	37.66
2.49078	37.65
2.50745	37.65
2.52412	37.65
2.54078	37.65
2.55745	37.65
2.57412	37.65
2.59078	37.65
2.60745	37.65
2.62412	37.65
2.64078	37.65
2.65745	37.65
2.67412	37.64
2.69078	37.64
2.70745	37.64
2.72412	37.64
2.74078	37.65
2.75745	37.65
2.77412	37.64
2.79078	37.64
2.80745	37.64
2.82412	37.64
2.84078	37.64
2.85745	37.64
2.87412	37.64
2.89078	37.64
2.90745	37.64
2.92412	37.64
2.94078	37.64
2.95745	37.63
2.97412	37.63
2.99078	37.63
3.00745	37.63
3.02412	37.63
3.04078	37.63
3.05745	37.63
3.07412	37.63
3.09078	37.63
3.10745	37.63
3.12412	37.63
3.14078	37.63
3.15745	37.62
3.17412	37.62
3.19078	37.62
3.20745	37.62
3.22412	37.62
3.24078	37.62
3.25745	37.62
3.27412	37.62
3.29078	37.62
3.30745	37.62
3.32412	37.62
3.34078	37.62
3.35745	37.62
3.37412	37.63
3.39078	37.63
3.40745	37.63
3.42412	37.63
3.44078	37.63
3.45745	37.63
3.47412	37.63
3.49078	37.63
3.50745	37.63
3.52412	37.63
3.54078	37.63
3.55745	37.63
3.57412	37.63
3.59078	37.63
3.60745	37.63
3.62412	37.63
3.64078	37.62
3.65745	37.62
3.67412	37.62
3.69078	37.62
3.70745	37.62
3.72412	37.62
3.74078	37.62
3.75745	37.62
3.77412	37.63
3.79078	37.63
3.80745	37.63
3.82412	37.63
3.84078	37.63
3.85745	37.63
3.87412	37.62
3.89078	37.62
3.90745	37.62
3.92412	37.62
3.94078	37.62
3.95745	37.62
3.97412	37.62
3.99078	37.62

