[Header]
Application Name	LabSolutions
Version	5.110
Data File Name	C:\Users\User\Desktop\GC Analyses\Jack\Nachusa Grasslands Sampling\T2 Timepoint July 12th\T2_07122022_086.gcd
Output Date	3/14/2023
Output Time	3:42:35 PM

[File Information]
Type	Data File
Generated	3/10/2023 10:04:12 PM
Generated by	System Administrator
Modified	3/10/2023 10:10:46 PM
Modified by	System Administrator

[Sample Information]
Operator Name	System Administrator
Acquired	3/10/2023 10:06:46 PM
Sample Type	0:Unknown
Level	0
Sample Name	086
Sample ID	086
ISTD Amount1	1
ISTD Amount2	1
ISTD Amount3	1
ISTD Amount4	1
ISTD Amount5	1
ISTD Amount6	1
ISTD Amount7	1
ISTD Amount8	1
ISTD Amount9	1
ISTD Amount10	1
ISTD Amount11	1
ISTD Amount12	1
ISTD Amount13	1
ISTD Amount14	1
ISTD Amount15	1
ISTD Amount16	1
ISTD Amount17	1
ISTD Amount18	1
ISTD Amount19	1
ISTD Amount20	1
ISTD Amount21	1
ISTD Amount22	1
ISTD Amount23	1
ISTD Amount24	1
ISTD Amount25	1
ISTD Amount26	1
ISTD Amount27	1
ISTD Amount28	1
ISTD Amount29	1
ISTD Amount30	1
ISTD Amount31	1
ISTD Amount32	1
Sample Amount	1
Dilution Factor	1
Vial#	85
Injection Volume	1
Injection Count	1
Bar Code	

[Original Files]
Data File	C:\Users\User\Desktop\GC Analyses\Jack\Nachusa Grasslands Sampling\T1 Timepoint July 12th\T2_07122022_086.gcd
Method File	C:\LabSolutions\Data\GHG_4min_2022\ghg3_togas_w_acet_4 min_new_int.gcm
Batch File	C:\LabSolutions\Data\AutoSamplerTesting\T2_07122022.gcb
Report Format File	c:\LabSolutions\System\DEFAULT.lsr

[File Description]


[Configuration]
Instrument Name	C0B7VH3-Instrument1
Instrument #	1
Line #	1
# of Detectors	3
Detector ID	DET#1	DET#2	DET#3
Detector Name	FID	PTCD	ECD
# of Channels	1	1	1

[Peak Table(Ch1)]
# of Peaks	3
Peak#	R.Time	I.Time	F.Time	Area	Height	A/H	Conc.	Mark	ID#	Name	k'	Plate #	Plate Ht.	Tailing	Resolution	Sep.Factor	Area Ratio	Height Ratio	Conc. %	Norm Conc.
1	1.476	1.435	1.538	32860	15782	2.082	231.990	   	1	CO	0.000	9556	15.697	1.292	0.000	0.000	0	0	27.290	27.290
2	1.567	1.538	1.630	4677	2249	2.080	90.438	 V 	2	CH4	0.062	10089	14.868	0.000	1.493	0.000	0	0	10.639	10.639
3	1.996	1.949	2.495	2102458	1004294	2.093	527.660	   	3	CO2	0.353	17202	8.720	1.256	6.959	5.680	0	0	62.071	62.071

[Peak Table(Ch2)]
# of Peaks	0

[Peak Table(Ch3)]
# of Peaks	6
Peak#	R.Time	I.Time	F.Time	Area	Height	A/H	Conc.	Mark	ID#	Name	k'	Plate #	Plate Ht.	Tailing	Resolution	Sep.Factor	Area Ratio	Height Ratio	Conc. %	Norm Conc.
1	0.867	0.687	1.208	337	24	14.256	0.000	   			0.000	405	370.329	1.483	0.000	0.000	0	0	0.000	0.000
2	2.458	2.187	2.513	3027	700	4.326	0.000	   			1.835	10158	14.767	0.000	11.793	0.000	0	0	0.000	0.000
3	2.535	2.513	2.700	1443	310	4.651	0.000	 V 			1.924	5970	25.125	0.000	0.673	1.048	0	0	0.000	0.000
4	2.876	2.726	3.082	20443	5078	4.026	0.522	   	1	N2O	2.318	12900	11.628	1.692	2.933	1.204	0	0	100.000	100.000
5	3.159	3.082	3.177	580	116	5.024	0.000	 V 	2	SF6	2.643	1005	149.280	0.000	1.130	1.141	0	0	0.000	0.000
6	3.357	3.184	3.995	16322	575	28.403	0.000	   	2	SF6	2.872	284	528.046	2.323	0.331	1.086	0	0	0.000	0.000

[Compound Results(Ch1)]
# of IDs	6
ID#	Name	R.Time	Area	Height	Conc.	Curve	3rd	2nd	1st	Constant	Area Ratio	Height Ratio	Conc. %	Norm Conc.
1	CO	1.476	32860	15782	231.990	Linear	0.000000e+00	0.000000e+00	1.416423e+002	0.000000e+00	0	0	27.290	27.290
2	CH4	1.567	4677	2249	90.438	Linear	0.000000e+00	0.000000e+00	5.171738e+001	0.000000e+00	0	0	10.639	10.639
3	CO2	1.996	2102458	1004294	527.660	Linear	0.000000e+00	0.000000e+00	3.984494e+003	0.000000e+00	0	0	62.071	62.071
4	Ethylene	0.000	0	0	0.000	Linear	0.000000e+00	0.000000e+00	0.000000e+00	0.000000e+00	0	0	0.000	0.000
5	Acetylene	0.000	0	0	0.000	Linear	0.000000e+00	0.000000e+00	0.000000e+00	0.000000e+00	0	0	0.000	0.000
6	Ethane	0.000	0	0	0.000	Linear	0.000000e+00	0.000000e+00	0.000000e+00	0.000000e+00	0	0	0.000	0.000

[Compound Results(Ch2)]
# of IDs	5
ID#	Name	R.Time	Area	Height	Conc.	Curve	3rd	2nd	1st	Constant	Area Ratio	Height Ratio	Conc. %	Norm Conc.
1	Hydrogen	0.000	0	0	0.000	Linear	0.000000e+00	0.000000e+00	0.000000e+00	0.000000e+00	0	0	0.000	0.000
2	Oxygen	0.000	0	0	0.000	Linear	0.000000e+00	0.000000e+00	0.000000e+00	0.000000e+00	0	0	0.000	0.000
3	Nitrogen	0.000	0	0	0.000	Linear	0.000000e+00	0.000000e+00	0.000000e+00	0.000000e+00	0	0	0.000	0.000
4	Methane	0.000	0	0	0.000	Linear	0.000000e+00	0.000000e+00	0.000000e+00	0.000000e+00	0	0	0.000	0.000
5	Carbon Monoxide	0.000	0	0	0.000	Linear	0.000000e+00	0.000000e+00	0.000000e+00	0.000000e+00	0	0	0.000	0.000

[Compound Results(Ch3)]
# of IDs	2
ID#	Name	R.Time	Area	Height	Conc.	Curve	3rd	2nd	1st	Constant	Area Ratio	Height Ratio	Conc. %	Norm Conc.
1	N2O	2.876	20443	5078	0.522	Linear	0.000000e+00	0.000000e+00	3.915173e+004	0.000000e+00	0	0	100.000	100.000
2	SF6	3.357	16902	690	0.000	Linear	0.000000e+00	0.000000e+00	0.000000e+00	0.000000e+00	0	0	0.000	0.000

[Group Results(Ch1)]
# of Groups	0

[Group Results(Ch2)]
# of Groups	0

[Group Results(Ch3)]
# of Groups	0

[Chromatogram (Ch1)]
Interval(msec)	220
# of Points	1091
Start Time(min)	0.002
End Time(min)	3.998
R.Time (min)	Intensity
0.00167	7
0.00533	10
0.00900	13
0.01267	16
0.01633	21
0.02000	25
0.02367	26
0.02733	27
0.03100	31
0.03467	37
0.03833	44
0.04200	40
0.04567	27
0.04933	14
0.05300	8
0.05667	6
0.06033	10
0.06400	18
0.06767	23
0.07133	23
0.07500	23
0.07867	20
0.08233	19
0.08600	21
0.08967	21
0.09333	23
0.09700	25
0.10067	26
0.10433	28
0.10800	25
0.11167	21
0.11533	19
0.11900	19
0.12267	20
0.12633	23
0.13000	23
0.13367	22
0.13733	21
0.14100	22
0.14467	24
0.14833	27
0.15200	28
0.15567	26
0.15933	23
0.16300	22
0.16667	25
0.17033	31
0.17400	32
0.17767	30
0.18133	28
0.18500	30
0.18867	30
0.19233	25
0.19600	22
0.19967	24
0.20333	28
0.20700	32
0.21067	38
0.21433	44
0.21800	49
0.22167	53
0.22533	54
0.22900	49
0.23267	35
0.23633	25
0.24000	21
0.24367	24
0.24733	28
0.25100	31
0.25467	33
0.25833	39
0.26200	40
0.26567	38
0.26933	34
0.27300	27
0.27667	20
0.28033	14
0.28400	15
0.28767	25
0.29133	34
0.29500	41
0.29867	45
0.30233	46
0.30600	46
0.30967	46
0.31333	48
0.31700	55
0.32067	67
0.32433	78
0.32800	79
0.33167	76
0.33533	71
0.33900	64
0.34267	57
0.34633	55
0.35000	56
0.35367	62
0.35733	71
0.36100	84
0.36467	93
0.36833	93
0.37200	87
0.37567	78
0.37933	68
0.38300	65
0.38667	65
0.39033	66
0.39400	70
0.39767	74
0.40133	79
0.40500	80
0.40867	78
0.41233	74
0.41600	66
0.41967	62
0.42333	64
0.42700	70
0.43067	73
0.43433	70
0.43800	62
0.44167	51
0.44533	41
0.44900	35
0.45267	32
0.45633	32
0.46000	34
0.46367	39
0.46733	42
0.47100	45
0.47467	47
0.47833	49
0.48200	45
0.48567	38
0.48933	31
0.49300	29
0.49667	27
0.50033	30
0.50400	34
0.50767	35
0.51133	34
0.51500	32
0.51867	29
0.52233	26
0.52600	26
0.52967	27
0.53333	24
0.53700	17
0.54067	11
0.54433	8
0.54800	11
0.55167	16
0.55533	22
0.55900	26
0.56267	28
0.56633	28
0.57000	23
0.57367	20
0.57733	19
0.58100	19
0.58467	19
0.58833	19
0.59200	13
0.59567	6
0.59933	4
0.60300	9
0.60667	13
0.61033	18
0.61400	19
0.61767	16
0.62133	14
0.62500	16
0.62867	20
0.63233	23
0.63600	23
0.63967	21
0.64333	18
0.64700	14
0.65067	11
0.65433	14
0.65800	15
0.66167	16
0.66533	16
0.66900	13
0.67267	7
0.67633	0
0.68000	-4
0.68367	-5
0.68733	-4
0.69100	-1
0.69467	2
0.69833	6
0.70200	11
0.70567	14
0.70933	21
0.71300	30
0.71667	36
0.72033	38
0.72400	37
0.72767	33
0.73133	29
0.73500	27
0.73867	24
0.74233	20
0.74600	18
0.74967	14
0.75333	10
0.75700	9
0.76067	11
0.76433	13
0.76800	12
0.77167	12
0.77533	12
0.77900	8
0.78267	3
0.78633	2
0.79000	5
0.79367	6
0.79733	8
0.80100	11
0.80467	16
0.80833	17
0.81200	16
0.81567	16
0.81933	18
0.82300	24
0.82667	28
0.83033	30
0.83400	32
0.83767	32
0.84133	28
0.84500	20
0.84867	13
0.85233	13
0.85600	20
0.85967	29
0.86333	40
0.86700	47
0.87067	48
0.87433	42
0.87800	33
0.88167	28
0.88533	30
0.88900	38
0.89267	50
0.89633	56
0.90000	61
0.90367	65
0.90733	67
0.91100	63
0.91467	52
0.91833	43
0.92200	39
0.92567	38
0.92933	35
0.93300	31
0.93667	30
0.94033	31
0.94400	32
0.94767	36
0.95133	42
0.95500	43
0.95867	41
0.96233	42
0.96600	46
0.96967	51
0.97333	50
0.97700	44
0.98067	37
0.98433	31
0.98800	27
0.99167	26
0.99533	28
0.99900	32
1.00267	39
1.00633	50
1.01000	59
1.01367	58
1.01733	50
1.02100	40
1.02467	32
1.02833	25
1.03200	17
1.03567	12
1.03933	9
1.04300	8
1.04667	11
1.05033	17
1.05400	21
1.05767	24
1.06133	24
1.06500	24
1.06867	26
1.07233	26
1.07600	24
1.07967	21
1.08333	20
1.08700	22
1.09067	33
1.09433	51
1.09800	65
1.10167	70
1.10533	70
1.10900	66
1.11267	59
1.11633	49
1.12000	36
1.12367	22
1.12733	10
1.13100	-1
1.13467	-8
1.13833	-12
1.14200	-13
1.14567	-14
1.14933	-16
1.15300	-19
1.15667	-22
1.16033	-24
1.16400	-22
1.16767	-18
1.17133	-11
1.17500	-6
1.17867	-1
1.18233	6
1.18600	14
1.18967	21
1.19333	24
1.19700	15
1.20067	1
1.20433	-10
1.20800	-19
1.21167	-25
1.21533	-22
1.21900	-15
1.22267	-8
1.22633	-0
1.23000	8
1.23367	9
1.23733	5
1.24100	-1
1.24467	-5
1.24833	-2
1.25200	6
1.25567	15
1.25933	19
1.26300	22
1.26667	27
1.27033	31
1.27400	29
1.27767	22
1.28133	16
1.28500	13
1.28867	9
1.29233	4
1.29600	2
1.29967	1
1.30333	1
1.30700	0
1.31067	-0
1.31433	4
1.31800	8
1.32167	7
1.32533	5
1.32900	2
1.33267	-2
1.33633	-6
1.34000	-6
1.34367	-1
1.34733	5
1.35100	6
1.35467	3
1.35833	-0
1.36200	-5
1.36567	-10
1.36933	-11
1.37300	-10
1.37667	-9
1.38033	-7
1.38400	-9
1.38767	-10
1.39133	-9
1.39500	-8
1.39867	-7
1.40233	-4
1.40600	-4
1.40967	-3
1.41333	-1
1.41700	-1
1.42067	0
1.42433	4
1.42800	8
1.43167	10
1.43533	15
1.43900	45
1.44267	151
1.44633	414
1.45000	1128
1.45367	2797
1.45733	5465
1.46100	8560
1.46467	11442
1.46833	13733
1.47200	15240
1.47567	15800
1.47933	15288
1.48300	13770
1.48667	11580
1.49033	9177
1.49400	6947
1.49767	5096
1.50133	3672
1.50500	2629
1.50867	1884
1.51233	1365
1.51600	1007
1.51967	762
1.52333	591
1.52700	468
1.53067	381
1.53433	327
1.53800	309
1.54167	358
1.54533	531
1.54900	844
1.55267	1239
1.55633	1628
1.56000	1952
1.56367	2176
1.56733	2273
1.57100	2209
1.57467	1985
1.57833	1653
1.58200	1288
1.58567	956
1.58933	693
1.59300	499
1.59667	363
1.60033	269
1.60400	203
1.60767	157
1.61133	130
1.61500	111
1.61867	90
1.62233	67
1.62600	46
1.62967	28
1.63333	22
1.63700	26
1.64067	30
1.64433	30
1.64800	26
1.65167	21
1.65533	18
1.65900	17
1.66267	18
1.66633	19
1.67000	18
1.67367	19
1.67733	19
1.68100	20
1.68467	18
1.68833	13
1.69200	10
1.69567	10
1.69933	13
1.70300	17
1.70667	20
1.71033	21
1.71400	20
1.71767	16
1.72133	11
1.72500	6
1.72867	-0
1.73233	-1
1.73600	-2
1.73967	-5
1.74333	-2
1.74700	4
1.75067	7
1.75433	11
1.75800	18
1.76167	22
1.76533	29
1.76900	36
1.77267	35
1.77633	24
1.78000	14
1.78367	13
1.78733	14
1.79100	12
1.79467	12
1.79833	15
1.80200	15
1.80567	11
1.80933	6
1.81300	2
1.81667	3
1.82033	7
1.82400	10
1.82767	11
1.83133	10
1.83500	6
1.83867	0
1.84233	-4
1.84600	-2
1.84967	4
1.85333	11
1.85700	18
1.86067	22
1.86433	25
1.86800	36
1.87167	47
1.87533	50
1.87900	44
1.88267	40
1.88633	41
1.89000	41
1.89367	37
1.89733	30
1.90100	20
1.90467	13
1.90833	9
1.91200	9
1.91567	11
1.91933	16
1.92300	22
1.92667	33
1.93033	44
1.93400	50
1.93767	49
1.94133	45
1.94500	39
1.94867	41
1.95233	74
1.95600	311
1.95967	1662
1.96333	7577
1.96700	27176
1.97067	77043
1.97433	175229
1.97800	326668
1.98167	514124
1.98533	704608
1.98900	864650
1.99267	969188
1.99633	1004381
2.00000	967926
2.00367	870745
2.00733	734509
2.01100	584893
2.01467	443778
2.01833	324378
2.02200	231056
2.02567	162166
2.02933	113289
2.03300	79515
2.03667	56545
2.04033	41035
2.04400	30562
2.04767	23442
2.05133	18538
2.05500	15102
2.05867	12636
2.06233	10824
2.06600	9459
2.06967	8408
2.07333	7574
2.07700	6897
2.08067	6331
2.08433	5847
2.08800	5428
2.09167	5065
2.09533	4747
2.09900	4465
2.10267	4215
2.10633	3992
2.11000	3793
2.11367	3613
2.11733	3454
2.12100	3311
2.12467	3177
2.12833	3050
2.13200	2933
2.13567	2825
2.13933	2727
2.14300	2637
2.14667	2552
2.15033	2471
2.15400	2393
2.15767	2314
2.16133	2233
2.16500	2156
2.16867	2086
2.17233	2020
2.17600	1956
2.17967	1893
2.18333	1835
2.18700	1784
2.19067	1739
2.19433	1694
2.19800	1653
2.20167	1613
2.20533	1579
2.20900	1554
2.21267	1533
2.21633	1507
2.22000	1476
2.22367	1445
2.22733	1414
2.23100	1382
2.23467	1347
2.23833	1312
2.24200	1279
2.24567	1250
2.24933	1221
2.25300	1191
2.25667	1165
2.26033	1143
2.26400	1127
2.26767	1114
2.27133	1101
2.27500	1095
2.27867	1094
2.28233	1090
2.28600	1078
2.28967	1055
2.29333	1024
2.29700	992
2.30067	970
2.30433	951
2.30800	935
2.31167	923
2.31533	917
2.31900	913
2.32267	906
2.32633	896
2.33000	884
2.33367	871
2.33733	861
2.34100	852
2.34467	842
2.34833	835
2.35200	825
2.35567	811
2.35933	796
2.36300	784
2.36667	776
2.37033	768
2.37400	762
2.37767	760
2.38133	754
2.38500	751
2.38867	746
2.39233	740
2.39600	733
2.39967	725
2.40333	722
2.40700	719
2.41067	712
2.41433	697
2.41800	686
2.42167	679
2.42533	676
2.42900	676
2.43267	679
2.43633	682
2.44000	681
2.44367	675
2.44733	662
2.45100	641
2.45467	625
2.45833	614
2.46200	612
2.46567	612
2.46933	613
2.47300	612
2.47667	611
2.48033	602
2.48400	588
2.48767	581
2.49133	579
2.49500	573
2.49867	567
2.50233	564
2.50600	563
2.50967	564
2.51333	570
2.51700	578
2.52067	587
2.52433	597
2.52800	603
2.53167	601
2.53533	595
2.53900	585
2.54267	568
2.54633	549
2.55000	535
2.55367	529
2.55733	524
2.56100	518
2.56467	517
2.56833	517
2.57200	512
2.57567	502
2.57933	494
2.58300	488
2.58667	484
2.59033	486
2.59400	489
2.59767	489
2.60133	485
2.60500	486
2.60867	490
2.61233	497
2.61600	499
2.61967	494
2.62333	486
2.62700	478
2.63067	475
2.63433	475
2.63800	476
2.64167	469
2.64533	461
2.64900	452
2.65267	445
2.65633	442
2.66000	447
2.66367	457
2.66733	467
2.67100	475
2.67467	480
2.67833	481
2.68200	474
2.68567	464
2.68933	452
2.69300	444
2.69667	442
2.70033	447
2.70400	454
2.70767	458
2.71133	457
2.71500	456
2.71867	459
2.72233	464
2.72600	468
2.72967	469
2.73333	462
2.73700	450
2.74067	435
2.74433	425
2.74800	421
2.75167	418
2.75533	417
2.75900	419
2.76267	421
2.76633	420
2.77000	419
2.77367	419
2.77733	419
2.78100	418
2.78467	416
2.78833	410
2.79200	402
2.79567	397
2.79933	399
2.80300	402
2.80667	401
2.81033	400
2.81400	399
2.81767	396
2.82133	398
2.82500	401
2.82867	406
2.83233	408
2.83600	409
2.83967	409
2.84333	412
2.84700	417
2.85067	421
2.85433	421
2.85800	421
2.86167	421
2.86533	422
2.86900	422
2.87267	418
2.87633	414
2.88000	410
2.88367	409
2.88733	411
2.89100	416
2.89467	420
2.89833	424
2.90200	428
2.90567	430
2.90933	428
2.91300	424
2.91667	417
2.92033	408
2.92400	401
2.92767	395
2.93133	389
2.93500	384
2.93867	383
2.94233	385
2.94600	390
2.94967	390
2.95333	386
2.95700	383
2.96067	379
2.96433	376
2.96800	376
2.97167	382
2.97533	393
2.97900	400
2.98267	403
2.98633	401
2.99000	397
2.99367	395
2.99733	395
3.00100	396
3.00467	397
3.00833	398
3.01200	398
3.01567	398
3.01933	399
3.02300	399
3.02667	395
3.03033	384
3.03400	367
3.03767	352
3.04133	344
3.04500	341
3.04867	340
3.05233	342
3.05600	349
3.05967	356
3.06333	364
3.06700	371
3.07067	375
3.07433	375
3.07800	371
3.08167	366
3.08533	363
3.08900	362
3.09267	365
3.09633	364
3.10000	359
3.10367	353
3.10733	345
3.11100	337
3.11467	333
3.11833	338
3.12200	349
3.12567	358
3.12933	363
3.13300	367
3.13667	365
3.14033	357
3.14400	346
3.14767	340
3.15133	340
3.15500	344
3.15867	345
3.16233	339
3.16600	334
3.16967	334
3.17333	335
3.17700	337
3.18067	338
3.18433	338
3.18800	339
3.19167	337
3.19533	339
3.19900	347
3.20267	354
3.20633	356
3.21000	349
3.21367	340
3.21733	329
3.22100	318
3.22467	311
3.22833	307
3.23200	303
3.23567	296
3.23933	285
3.24300	277
3.24667	276
3.25033	280
3.25400	286
3.25767	295
3.26133	302
3.26500	307
3.26867	309
3.27233	311
3.27600	316
3.27967	323
3.28333	329
3.28700	331
3.29067	328
3.29433	324
3.29800	315
3.30167	309
3.30533	302
3.30900	294
3.31267	288
3.31633	285
3.32000	284
3.32367	282
3.32733	283
3.33100	288
3.33467	294
3.33833	300
3.34200	300
3.34567	295
3.34933	291
3.35300	292
3.35667	296
3.36033	300
3.36400	301
3.36767	298
3.37133	294
3.37500	289
3.37867	284
3.38233	282
3.38600	285
3.38967	290
3.39333	295
3.39700	295
3.40067	290
3.40433	285
3.40800	279
3.41167	276
3.41533	283
3.41900	292
3.42267	302
3.42633	309
3.43000	306
3.43367	294
3.43733	279
3.44100	265
3.44467	254
3.44833	247
3.45200	246
3.45567	251
3.45933	258
3.46300	264
3.46667	270
3.47033	278
3.47400	282
3.47767	279
3.48133	277
3.48500	278
3.48867	281
3.49233	285
3.49600	286
3.49967	287
3.50333	287
3.50700	281
3.51067	270
3.51433	262
3.51800	256
3.52167	246
3.52533	236
3.52900	227
3.53267	222
3.53633	221
3.54000	224
3.54367	227
3.54733	234
3.55100	243
3.55467	249
3.55833	251
3.56200	249
3.56567	247
3.56933	248
3.57300	256
3.57667	269
3.58033	275
3.58400	273
3.58767	266
3.59133	251
3.59500	236
3.59867	223
3.60233	213
3.60600	207
3.60967	207
3.61333	213
3.61700	218
3.62067	216
3.62433	213
3.62800	213
3.63167	215
3.63533	218
3.63900	226
3.64267	236
3.64633	242
3.65000	242
3.65367	240
3.65733	238
3.66100	239
3.66467	243
3.66833	243
3.67200	238
3.67567	230
3.67933	225
3.68300	222
3.68667	218
3.69033	219
3.69400	221
3.69767	220
3.70133	220
3.70500	223
3.70867	228
3.71233	226
3.71600	219
3.71967	212
3.72333	210
3.72700	210
3.73067	210
3.73433	208
3.73800	208
3.74167	210
3.74533	212
3.74900	214
3.75267	215
3.75633	214
3.76000	212
3.76367	207
3.76733	201
3.77100	199
3.77467	200
3.77833	202
3.78200	207
3.78567	212
3.78933	215
3.79300	217
3.79667	217
3.80033	216
3.80400	213
3.80767	208
3.81133	203
3.81500	195
3.81867	189
3.82233	185
3.82600	184
3.82967	184
3.83333	185
3.83700	188
3.84067	194
3.84433	198
3.84800	200
3.85167	204
3.85533	210
3.85900	213
3.86267	212
3.86633	209
3.87000	204
3.87367	197
3.87733	188
3.88100	182
3.88467	178
3.88833	175
3.89200	176
3.89567	180
3.89933	185
3.90300	188
3.90667	186
3.91033	185
3.91400	185
3.91767	183
3.92133	180
3.92500	176
3.92867	171
3.93233	171
3.93600	176
3.93967	186
3.94333	194
3.94700	199
3.95067	200
3.95433	202
3.95800	202
3.96167	195
3.96533	186
3.96900	179
3.97267	173
3.97633	171
3.98000	173
3.98367	174
3.98733	173
3.99100	171
3.99467	167
3.99833	164

[Chromatogram (Ch2)]
Interval(msec)	220
# of Points	1091
Start Time(min)	0.002
End Time(min)	3.998
R.Time (min)	Intensity
0.00167	0
0.00533	0
0.00900	0
0.01267	1
0.01633	1
0.02000	1
0.02367	1
0.02733	1
0.03100	1
0.03467	1
0.03833	1
0.04200	1
0.04567	1
0.04933	1
0.05300	2
0.05667	2
0.06033	2
0.06400	2
0.06767	2
0.07133	1
0.07500	1
0.07867	1
0.08233	1
0.08600	1
0.08967	1
0.09333	1
0.09700	1
0.10067	1
0.10433	1
0.10800	1
0.11167	2
0.11533	2
0.11900	2
0.12267	3
0.12633	3
0.13000	3
0.13367	3
0.13733	3
0.14100	3
0.14467	3
0.14833	3
0.15200	3
0.15567	3
0.15933	3
0.16300	3
0.16667	2
0.17033	2
0.17400	2
0.17767	2
0.18133	2
0.18500	2
0.18867	2
0.19233	2
0.19600	2
0.19967	2
0.20333	2
0.20700	2
0.21067	2
0.21433	2
0.21800	3
0.22167	3
0.22533	3
0.22900	3
0.23267	3
0.23633	3
0.24000	3
0.24367	3
0.24733	2
0.25100	2
0.25467	2
0.25833	2
0.26200	2
0.26567	2
0.26933	2
0.27300	2
0.27667	2
0.28033	2
0.28400	2
0.28767	2
0.29133	2
0.29500	2
0.29867	2
0.30233	2
0.30600	2
0.30967	2
0.31333	2
0.31700	2
0.32067	2
0.32433	2
0.32800	2
0.33167	2
0.33533	2
0.33900	2
0.34267	2
0.34633	2
0.35000	2
0.35367	2
0.35733	2
0.36100	2
0.36467	1
0.36833	1
0.37200	1
0.37567	1
0.37933	1
0.38300	1
0.38667	2
0.39033	2
0.39400	2
0.39767	2
0.40133	2
0.40500	2
0.40867	2
0.41233	2
0.41600	2
0.41967	3
0.42333	3
0.42700	4
0.43067	4
0.43433	5
0.43800	6
0.44167	6
0.44533	6
0.44900	7
0.45267	7
0.45633	8
0.46000	8
0.46367	8
0.46733	8
0.47100	8
0.47467	8
0.47833	8
0.48200	8
0.48567	8
0.48933	7
0.49300	7
0.49667	6
0.50033	5
0.50400	5
0.50767	4
0.51133	3
0.51500	3
0.51867	2
0.52233	2
0.52600	1
0.52967	1
0.53333	1
0.53700	0
0.54067	0
0.54433	-0
0.54800	0
0.55167	0
0.55533	1
0.55900	1
0.56267	1
0.56633	1
0.57000	1
0.57367	1
0.57733	1
0.58100	1
0.58467	1
0.58833	1
0.59200	1
0.59567	2
0.59933	2
0.60300	2
0.60667	2
0.61033	3
0.61400	3
0.61767	3
0.62133	3
0.62500	4
0.62867	4
0.63233	4
0.63600	4
0.63967	4
0.64333	5
0.64700	4
0.65067	4
0.65433	4
0.65800	4
0.66167	3
0.66533	3
0.66900	3
0.67267	3
0.67633	3
0.68000	3
0.68367	3
0.68733	2
0.69100	2
0.69467	2
0.69833	2
0.70200	2
0.70567	2
0.70933	2
0.71300	2
0.71667	2
0.72033	3
0.72400	3
0.72767	3
0.73133	3
0.73500	3
0.73867	2
0.74233	2
0.74600	2
0.74967	1
0.75333	1
0.75700	1
0.76067	1
0.76433	1
0.76800	1
0.77167	0
0.77533	0
0.77900	0
0.78267	0
0.78633	0
0.79000	0
0.79367	0
0.79733	0
0.80100	-0
0.80467	-0
0.80833	-0
0.81200	-0
0.81567	-0
0.81933	-0
0.82300	-0
0.82667	-0
0.83033	-0
0.83400	-0
0.83767	0
0.84133	0
0.84500	0
0.84867	0
0.85233	1
0.85600	1
0.85967	1
0.86333	1
0.86700	2
0.87067	2
0.87433	2
0.87800	2
0.88167	2
0.88533	3
0.88900	3
0.89267	3
0.89633	3
0.90000	2
0.90367	2
0.90733	2
0.91100	3
0.91467	3
0.91833	3
0.92200	4
0.92567	4
0.92933	4
0.93300	4
0.93667	4
0.94033	4
0.94400	4
0.94767	4
0.95133	5
0.95500	5
0.95867	5
0.96233	5
0.96600	4
0.96967	4
0.97333	4
0.97700	4
0.98067	3
0.98433	3
0.98800	3
0.99167	2
0.99533	2
0.99900	2
1.00267	2
1.00633	2
1.01000	2
1.01367	2
1.01733	2
1.02100	2
1.02467	3
1.02833	3
1.03200	3
1.03567	3
1.03933	3
1.04300	3
1.04667	3
1.05033	2
1.05400	2
1.05767	1
1.06133	1
1.06500	1
1.06867	1
1.07233	1
1.07600	1
1.07967	1
1.08333	0
1.08700	0
1.09067	0
1.09433	-0
1.09800	-0
1.10167	-0
1.10533	0
1.10900	0
1.11267	0
1.11633	1
1.12000	1
1.12367	1
1.12733	1
1.13100	1
1.13467	1
1.13833	1
1.14200	1
1.14567	1
1.14933	1
1.15300	1
1.15667	1
1.16033	1
1.16400	1
1.16767	1
1.17133	1
1.17500	1
1.17867	1
1.18233	1
1.18600	1
1.18967	1
1.19333	1
1.19700	1
1.20067	1
1.20433	1
1.20800	1
1.21167	1
1.21533	1
1.21900	1
1.22267	2
1.22633	2
1.23000	2
1.23367	2
1.23733	2
1.24100	2
1.24467	2
1.24833	2
1.25200	2
1.25567	2
1.25933	2
1.26300	2
1.26667	2
1.27033	2
1.27400	1
1.27767	1
1.28133	1
1.28500	0
1.28867	-0
1.29233	-0
1.29600	-1
1.29967	-1
1.30333	-1
1.30700	-1
1.31067	-1
1.31433	-0
1.31800	-0
1.32167	0
1.32533	0
1.32900	0
1.33267	0
1.33633	0
1.34000	0
1.34367	1
1.34733	1
1.35100	1
1.35467	1
1.35833	1
1.36200	1
1.36567	1
1.36933	2
1.37300	2
1.37667	2
1.38033	1
1.38400	1
1.38767	1
1.39133	1
1.39500	1
1.39867	2
1.40233	2
1.40600	2
1.40967	2
1.41333	2
1.41700	2
1.42067	2
1.42433	2
1.42800	2
1.43167	2
1.43533	2
1.43900	2
1.44267	1
1.44633	1
1.45000	1
1.45367	0
1.45733	-0
1.46100	-0
1.46467	-0
1.46833	-0
1.47200	-0
1.47567	0
1.47933	1
1.48300	1
1.48667	1
1.49033	1
1.49400	2
1.49767	2
1.50133	2
1.50500	3
1.50867	3
1.51233	3
1.51600	3
1.51967	2
1.52333	2
1.52700	1
1.53067	1
1.53433	1
1.53800	0
1.54167	0
1.54533	-0
1.54900	-0
1.55267	0
1.55633	0
1.56000	0
1.56367	1
1.56733	1
1.57100	1
1.57467	1
1.57833	2
1.58200	2
1.58567	2
1.58933	2
1.59300	1
1.59667	1
1.60033	-0
1.60400	-1
1.60767	-3
1.61133	-5
1.61500	-7
1.61867	-9
1.62233	-12
1.62600	-14
1.62967	-17
1.63333	-21
1.63700	-24
1.64067	-28
1.64433	-31
1.64800	-35
1.65167	-39
1.65533	-43
1.65900	-47
1.66267	-51
1.66633	-56
1.67000	-60
1.67367	-65
1.67733	-70
1.68100	-75
1.68467	-79
1.68833	-84
1.69200	-87
1.69567	-90
1.69933	-93
1.70300	-95
1.70667	-97
1.71033	-99
1.71400	-100
1.71767	-101
1.72133	-102
1.72500	-102
1.72867	-102
1.73233	-102
1.73600	-102
1.73967	-102
1.74333	-101
1.74700	-101
1.75067	-101
1.75433	-101
1.75800	-102
1.76167	-103
1.76533	-104
1.76900	-105
1.77267	-106
1.77633	-108
1.78000	-109
1.78367	-109
1.78733	-110
1.79100	-111
1.79467	-111
1.79833	-111
1.80200	-111
1.80567	-111
1.80933	-110
1.81300	-110
1.81667	-110
1.82033	-111
1.82400	-111
1.82767	-112
1.83133	-112
1.83500	-113
1.83867	-113
1.84233	-113
1.84600	-113
1.84967	-112
1.85333	-112
1.85700	-111
1.86067	-111
1.86433	-110
1.86800	-110
1.87167	-109
1.87533	-109
1.87900	-109
1.88267	-109
1.88633	-110
1.89000	-110
1.89367	-111
1.89733	-111
1.90100	-111
1.90467	-111
1.90833	-111
1.91200	-111
1.91567	-110
1.91933	-110
1.92300	-109
1.92667	-109
1.93033	-108
1.93400	-107
1.93767	-107
1.94133	-106
1.94500	-106
1.94867	-106
1.95233	-106
1.95600	-106
1.95967	-105
1.96333	-105
1.96700	-105
1.97067	-104
1.97433	-104
1.97800	-103
1.98167	-103
1.98533	-104
1.98900	-104
1.99267	-104
1.99633	-104
2.00000	-105
2.00367	-105
2.00733	-105
2.01100	-105
2.01467	-105
2.01833	-104
2.02200	-104
2.02567	-103
2.02933	-103
2.03300	-102
2.03667	-101
2.04033	-101
2.04400	-101
2.04767	-100
2.05133	-99
2.05500	-99
2.05867	-98
2.06233	-98
2.06600	-98
2.06967	-98
2.07333	-98
2.07700	-98
2.08067	-98
2.08433	-97
2.08800	-97
2.09167	-96
2.09533	-96
2.09900	-95
2.10267	-94
2.10633	-93
2.11000	-93
2.11367	-92
2.11733	-92
2.12100	-92
2.12467	-92
2.12833	-92
2.13200	-92
2.13567	-92
2.13933	-93
2.14300	-93
2.14667	-93
2.15033	-93
2.15400	-93
2.15767	-92
2.16133	-92
2.16500	-92
2.16867	-91
2.17233	-91
2.17600	-91
2.17967	-91
2.18333	-91
2.18700	-91
2.19067	-91
2.19433	-91
2.19800	-91
2.20167	-90
2.20533	-90
2.20900	-90
2.21267	-89
2.21633	-89
2.22000	-88
2.22367	-88
2.22733	-87
2.23100	-86
2.23467	-86
2.23833	-86
2.24200	-85
2.24567	-85
2.24933	-84
2.25300	-84
2.25667	-83
2.26033	-83
2.26400	-82
2.26767	-81
2.27133	-81
2.27500	-81
2.27867	-81
2.28233	-81
2.28600	-81
2.28967	-81
2.29333	-81
2.29700	-81
2.30067	-81
2.30433	-80
2.30800	-79
2.31167	-78
2.31533	-77
2.31900	-76
2.32267	-75
2.32633	-74
2.33000	-74
2.33367	-73
2.33733	-74
2.34100	-73
2.34467	-73
2.34833	-73
2.35200	-72
2.35567	-72
2.35933	-71
2.36300	-70
2.36667	-69
2.37033	-68
2.37400	-66
2.37767	-63
2.38133	-60
2.38500	-56
2.38867	-52
2.39233	-47
2.39600	-43
2.39967	-38
2.40333	-33
2.40700	-28
2.41067	-24
2.41433	-20
2.41800	-17
2.42167	-15
2.42533	-13
2.42900	-12
2.43267	-11
2.43633	-11
2.44000	-10
2.44367	-8
2.44733	-7
2.45100	-6
2.45467	-4
2.45833	-3
2.46200	-2
2.46567	-1
2.46933	0
2.47300	1
2.47667	2
2.48033	3
2.48400	4
2.48767	5
2.49133	6
2.49500	8
2.49867	9
2.50233	10
2.50600	11
2.50967	12
2.51333	13
2.51700	13
2.52067	13
2.52433	13
2.52800	13
2.53167	13
2.53533	13
2.53900	13
2.54267	14
2.54633	15
2.55000	15
2.55367	16
2.55733	17
2.56100	18
2.56467	18
2.56833	18
2.57200	18
2.57567	18
2.57933	17
2.58300	18
2.58667	18
2.59033	18
2.59400	18
2.59767	18
2.60133	19
2.60500	19
2.60867	20
2.61233	20
2.61600	20
2.61967	20
2.62333	20
2.62700	20
2.63067	19
2.63433	19
2.63800	19
2.64167	20
2.64533	20
2.64900	20
2.65267	20
2.65633	20
2.66000	20
2.66367	21
2.66733	21
2.67100	22
2.67467	22
2.67833	23
2.68200	24
2.68567	25
2.68933	25
2.69300	26
2.69667	27
2.70033	27
2.70400	27
2.70767	28
2.71133	28
2.71500	28
2.71867	28
2.72233	28
2.72600	27
2.72967	27
2.73333	27
2.73700	27
2.74067	27
2.74433	26
2.74800	26
2.75167	26
2.75533	27
2.75900	27
2.76267	27
2.76633	28
2.77000	28
2.77367	29
2.77733	29
2.78100	29
2.78467	30
2.78833	30
2.79200	30
2.79567	30
2.79933	30
2.80300	30
2.80667	30
2.81033	30
2.81400	30
2.81767	30
2.82133	29
2.82500	29
2.82867	29
2.83233	28
2.83600	28
2.83967	27
2.84333	24
2.84700	21
2.85067	15
2.85433	6
2.85800	-7
2.86167	-23
2.86533	-43
2.86900	-68
2.87267	-97
2.87633	-130
2.88000	-168
2.88367	-210
2.88733	-255
2.89100	-304
2.89467	-354
2.89833	-407
2.90200	-461
2.90567	-516
2.90933	-572
2.91300	-628
2.91667	-683
2.92033	-737
2.92400	-789
2.92767	-840
2.93133	-893
2.93500	-950
2.93867	-1008
2.94233	-1058
2.94600	-1090
2.94967	-1097
2.95333	-1078
2.95700	-1036
2.96067	-976
2.96433	-904
2.96800	-826
2.97167	-745
2.97533	-664
2.97900	-588
2.98267	-516
2.98633	-449
2.99000	-389
2.99367	-336
2.99733	-288
3.00100	-246
3.00467	-209
3.00833	-177
3.01200	-149
3.01567	-124
3.01933	-104
3.02300	-86
3.02667	-71
3.03033	-57
3.03400	-46
3.03767	-36
3.04133	-28
3.04500	-21
3.04867	-15
3.05233	-10
3.05600	-6
3.05967	-3
3.06333	0
3.06700	3
3.07067	6
3.07433	8
3.07800	10
3.08167	11
3.08533	13
3.08900	14
3.09267	14
3.09633	15
3.10000	16
3.10367	16
3.10733	17
3.11100	17
3.11467	18
3.11833	18
3.12200	19
3.12567	19
3.12933	19
3.13300	19
3.13667	19
3.14033	20
3.14400	20
3.14767	20
3.15133	21
3.15500	21
3.15867	21
3.16233	22
3.16600	22
3.16967	22
3.17333	23
3.17700	23
3.18067	23
3.18433	23
3.18800	23
3.19167	23
3.19533	24
3.19900	24
3.20267	25
3.20633	25
3.21000	25
3.21367	25
3.21733	26
3.22100	26
3.22467	26
3.22833	26
3.23200	26
3.23567	26
3.23933	26
3.24300	26
3.24667	26
3.25033	26
3.25400	26
3.25767	27
3.26133	27
3.26500	27
3.26867	27
3.27233	27
3.27600	27
3.27967	27
3.28333	27
3.28700	27
3.29067	27
3.29433	27
3.29800	27
3.30167	27
3.30533	27
3.30900	27
3.31267	27
3.31633	27
3.32000	27
3.32367	27
3.32733	27
3.33100	27
3.33467	27
3.33833	27
3.34200	27
3.34567	28
3.34933	28
3.35300	28
3.35667	28
3.36033	28
3.36400	28
3.36767	28
3.37133	28
3.37500	28
3.37867	28
3.38233	28
3.38600	28
3.38967	28
3.39333	28
3.39700	27
3.40067	27
3.40433	27
3.40800	27
3.41167	27
3.41533	27
3.41900	28
3.42267	28
3.42633	28
3.43000	28
3.43367	28
3.43733	28
3.44100	28
3.44467	29
3.44833	29
3.45200	29
3.45567	30
3.45933	30
3.46300	31
3.46667	31
3.47033	32
3.47400	32
3.47767	32
3.48133	32
3.48500	32
3.48867	32
3.49233	32
3.49600	32
3.49967	32
3.50333	32
3.50700	32
3.51067	32
3.51433	32
3.51800	32
3.52167	32
3.52533	32
3.52900	32
3.53267	32
3.53633	31
3.54000	31
3.54367	31
3.54733	31
3.55100	31
3.55467	31
3.55833	31
3.56200	31
3.56567	31
3.56933	31
3.57300	31
3.57667	30
3.58033	30
3.58400	30
3.58767	30
3.59133	30
3.59500	30
3.59867	29
3.60233	29
3.60600	29
3.60967	29
3.61333	29
3.61700	28
3.62067	28
3.62433	28
3.62800	28
3.63167	28
3.63533	28
3.63900	28
3.64267	28
3.64633	28
3.65000	29
3.65367	29
3.65733	29
3.66100	29
3.66467	29
3.66833	29
3.67200	29
3.67567	30
3.67933	30
3.68300	30
3.68667	30
3.69033	30
3.69400	29
3.69767	29
3.70133	29
3.70500	29
3.70867	29
3.71233	29
3.71600	29
3.71967	28
3.72333	28
3.72700	28
3.73067	29
3.73433	29
3.73800	28
3.74167	28
3.74533	28
3.74900	28
3.75267	28
3.75633	28
3.76000	28
3.76367	28
3.76733	28
3.77100	28
3.77467	28
3.77833	28
3.78200	28
3.78567	29
3.78933	29
3.79300	29
3.79667	29
3.80033	28
3.80400	28
3.80767	28
3.81133	27
3.81500	27
3.81867	27
3.82233	27
3.82600	27
3.82967	27
3.83333	27
3.83700	27
3.84067	27
3.84433	27
3.84800	27
3.85167	28
3.85533	28
3.85900	28
3.86267	28
3.86633	28
3.87000	28
3.87367	28
3.87733	29
3.88100	29
3.88467	29
3.88833	29
3.89200	29
3.89567	29
3.89933	29
3.90300	29
3.90667	29
3.91033	29
3.91400	29
3.91767	29
3.92133	29
3.92500	29
3.92867	29
3.93233	29
3.93600	29
3.93967	29
3.94333	29
3.94700	29
3.95067	30
3.95433	30
3.95800	30
3.96167	30
3.96533	30
3.96900	30
3.97267	30
3.97633	30
3.98000	30
3.98367	29
3.98733	29
3.99100	29
3.99467	29
3.99833	29

[Chromatogram (Ch3)]
Interval(msec)	220
# of Points	1091
Start Time(min)	0.002
End Time(min)	3.998
R.Time (min)	Intensity
0.00167	-2
0.00533	-5
0.00900	-5
0.01267	-4
0.01633	-1
0.02000	-2
0.02367	-4
0.02733	-4
0.03100	-4
0.03467	-3
0.03833	-0
0.04200	3
0.04567	3
0.04933	2
0.05300	1
0.05667	1
0.06033	0
0.06400	0
0.06767	-1
0.07133	-4
0.07500	-4
0.07867	-3
0.08233	-2
0.08600	-1
0.08967	-0
0.09333	2
0.09700	3
0.10067	2
0.10433	2
0.10800	2
0.11167	1
0.11533	1
0.11900	1
0.12267	0
0.12633	-2
0.13000	-3
0.13367	-4
0.13733	-3
0.14100	-1
0.14467	-1
0.14833	-1
0.15200	-0
0.15567	-1
0.15933	-2
0.16300	-1
0.16667	0
0.17033	-0
0.17400	-0
0.17767	-1
0.18133	-2
0.18500	-2
0.18867	-3
0.19233	-3
0.19600	-3
0.19967	-1
0.20333	1
0.20700	5
0.21067	5
0.21433	2
0.21800	-1
0.22167	-4
0.22533	-7
0.22900	-6
0.23267	-4
0.23633	-3
0.24000	-3
0.24367	-3
0.24733	-1
0.25100	1
0.25467	0
0.25833	-0
0.26200	-3
0.26567	-5
0.26933	-6
0.27300	-6
0.27667	-5
0.28033	-6
0.28400	-8
0.28767	-8
0.29133	-7
0.29500	-4
0.29867	-2
0.30233	-3
0.30600	-4
0.30967	-7
0.31333	-9
0.31700	-9
0.32067	-6
0.32433	-5
0.32800	-3
0.33167	-0
0.33533	1
0.33900	2
0.34267	1
0.34633	1
0.35000	1
0.35367	1
0.35733	-0
0.36100	1
0.36467	-0
0.36833	0
0.37200	0
0.37567	1
0.37933	3
0.38300	4
0.38667	5
0.39033	3
0.39400	1
0.39767	0
0.40133	-1
0.40500	-1
0.40867	-1
0.41233	-3
0.41600	-4
0.41967	-5
0.42333	-5
0.42700	-6
0.43067	-6
0.43433	-2
0.43800	0
0.44167	-1
0.44533	-4
0.44900	-5
0.45267	-5
0.45633	-4
0.46000	-5
0.46367	-6
0.46733	-6
0.47100	-4
0.47467	-2
0.47833	-4
0.48200	-5
0.48567	-5
0.48933	-5
0.49300	-5
0.49667	-5
0.50033	-5
0.50400	-5
0.50767	-2
0.51133	-3
0.51500	-4
0.51867	-4
0.52233	-5
0.52600	-5
0.52967	-5
0.53333	-3
0.53700	-1
0.54067	-1
0.54433	-1
0.54800	1
0.55167	3
0.55533	4
0.55900	0
0.56267	-3
0.56633	-5
0.57000	-6
0.57367	-6
0.57733	-4
0.58100	-3
0.58467	-2
0.58833	-3
0.59200	-3
0.59567	-3
0.59933	-4
0.60300	-7
0.60667	-10
0.61033	-9
0.61400	-7
0.61767	-5
0.62133	-1
0.62500	0
0.62867	-1
0.63233	-2
0.63600	-3
0.63967	-2
0.64333	-0
0.64700	1
0.65067	1
0.65433	1
0.65800	0
0.66167	-1
0.66533	-1
0.66900	-0
0.67267	-2
0.67633	-2
0.68000	-2
0.68367	-1
0.68733	-0
0.69100	2
0.69467	3
0.69833	2
0.70200	2
0.70567	2
0.70933	2
0.71300	2
0.71667	2
0.72033	1
0.72400	3
0.72767	5
0.73133	6
0.73500	6
0.73867	6
0.74233	6
0.74600	8
0.74967	10
0.75333	12
0.75700	12
0.76067	14
0.76433	15
0.76800	15
0.77167	16
0.77533	15
0.77900	13
0.78267	14
0.78633	13
0.79000	12
0.79367	11
0.79733	12
0.80100	12
0.80467	14
0.80833	16
0.81200	17
0.81567	19
0.81933	18
0.82300	19
0.82667	20
0.83033	20
0.83400	19
0.83767	20
0.84133	20
0.84500	21
0.84867	21
0.85233	23
0.85600	24
0.85967	24
0.86333	26
0.86700	27
0.87067	26
0.87433	25
0.87800	24
0.88167	21
0.88533	19
0.88900	19
0.89267	18
0.89633	18
0.90000	20
0.90367	21
0.90733	22
0.91100	22
0.91467	20
0.91833	20
0.92200	21
0.92567	22
0.92933	22
0.93300	19
0.93667	16
0.94033	13
0.94400	12
0.94767	10
0.95133	9
0.95500	12
0.95867	14
0.96233	14
0.96600	13
0.96967	14
0.97333	16
0.97700	16
0.98067	16
0.98433	15
0.98800	16
0.99167	18
0.99533	19
0.99900	21
1.00267	22
1.00633	21
1.01000	19
1.01367	19
1.01733	17
1.02100	16
1.02467	14
1.02833	13
1.03200	13
1.03567	14
1.03933	16
1.04300	15
1.04667	14
1.05033	16
1.05400	18
1.05767	19
1.06133	20
1.06500	22
1.06867	26
1.07233	28
1.07600	29
1.07967	27
1.08333	25
1.08700	23
1.09067	22
1.09433	21
1.09800	20
1.10167	21
1.10533	19
1.10900	17
1.11267	14
1.11633	14
1.12000	14
1.12367	15
1.12733	16
1.13100	14
1.13467	13
1.13833	15
1.14200	15
1.14567	14
1.14933	12
1.15300	9
1.15667	8
1.16033	10
1.16400	10
1.16767	11
1.17133	11
1.17500	11
1.17867	10
1.18233	11
1.18600	11
1.18967	11
1.19333	10
1.19700	11
1.20067	11
1.20433	10
1.20800	9
1.21167	10
1.21533	9
1.21900	8
1.22267	7
1.22633	9
1.23000	9
1.23367	8
1.23733	10
1.24100	11
1.24467	10
1.24833	10
1.25200	8
1.25567	6
1.25933	7
1.26300	8
1.26667	11
1.27033	13
1.27400	13
1.27767	10
1.28133	6
1.28500	6
1.28867	8
1.29233	8
1.29600	8
1.29967	7
1.30333	6
1.30700	7
1.31067	7
1.31433	7
1.31800	6
1.32167	5
1.32533	2
1.32900	2
1.33267	1
1.33633	1
1.34000	1
1.34367	3
1.34733	6
1.35100	8
1.35467	9
1.35833	10
1.36200	12
1.36567	15
1.36933	14
1.37300	13
1.37667	10
1.38033	9
1.38400	7
1.38767	5
1.39133	2
1.39500	3
1.39867	5
1.40233	8
1.40600	8
1.40967	6
1.41333	4
1.41700	1
1.42067	1
1.42433	3
1.42800	2
1.43167	1
1.43533	0
1.43900	-1
1.44267	0
1.44633	-0
1.45000	1
1.45367	2
1.45733	2
1.46100	3
1.46467	3
1.46833	2
1.47200	0
1.47567	-3
1.47933	-2
1.48300	2
1.48667	2
1.49033	2
1.49400	2
1.49767	2
1.50133	1
1.50500	-0
1.50867	-3
1.51233	-5
1.51600	-5
1.51967	-5
1.52333	-3
1.52700	-1
1.53067	2
1.53433	4
1.53800	5
1.54167	6
1.54533	5
1.54900	4
1.55267	2
1.55633	2
1.56000	1
1.56367	1
1.56733	1
1.57100	-1
1.57467	-1
1.57833	1
1.58200	3
1.58567	5
1.58933	7
1.59300	8
1.59667	8
1.60033	7
1.60400	6
1.60767	6
1.61133	6
1.61500	7
1.61867	9
1.62233	11
1.62600	10
1.62967	9
1.63333	10
1.63700	10
1.64067	8
1.64433	8
1.64800	9
1.65167	9
1.65533	11
1.65900	11
1.66267	8
1.66633	7
1.67000	9
1.67367	13
1.67733	19
1.68100	20
1.68467	18
1.68833	18
1.69200	19
1.69567	21
1.69933	21
1.70300	23
1.70667	22
1.71033	22
1.71400	22
1.71767	21
1.72133	20
1.72500	19
1.72867	21
1.73233	21
1.73600	23
1.73967	26
1.74333	25
1.74700	24
1.75067	23
1.75433	25
1.75800	27
1.76167	26
1.76533	25
1.76900	24
1.77267	24
1.77633	26
1.78000	27
1.78367	28
1.78733	29
1.79100	29
1.79467	29
1.79833	30
1.80200	31
1.80567	31
1.80933	29
1.81300	30
1.81667	31
1.82033	32
1.82400	33
1.82767	35
1.83133	36
1.83500	37
1.83867	36
1.84233	35
1.84600	36
1.84967	37
1.85333	38
1.85700	37
1.86067	38
1.86433	40
1.86800	41
1.87167	41
1.87533	43
1.87900	44
1.88267	43
1.88633	41
1.89000	42
1.89367	43
1.89733	44
1.90100	46
1.90467	47
1.90833	48
1.91200	46
1.91567	49
1.91933	50
1.92300	52
1.92667	52
1.93033	51
1.93400	50
1.93767	50
1.94133	51
1.94500	52
1.94867	55
1.95233	57
1.95600	56
1.95967	58
1.96333	60
1.96700	59
1.97067	58
1.97433	59
1.97800	61
1.98167	63
1.98533	64
1.98900	66
1.99267	69
1.99633	70
2.00000	71
2.00367	71
2.00733	72
2.01100	75
2.01467	79
2.01833	81
2.02200	80
2.02567	79
2.02933	79
2.03300	80
2.03667	81
2.04033	83
2.04400	84
2.04767	83
2.05133	83
2.05500	84
2.05867	86
2.06233	87
2.06600	89
2.06967	90
2.07333	90
2.07700	90
2.08067	90
2.08433	91
2.08800	93
2.09167	94
2.09533	93
2.09900	95
2.10267	96
2.10633	98
2.11000	100
2.11367	104
2.11733	104
2.12100	102
2.12467	102
2.12833	102
2.13200	102
2.13567	103
2.13933	104
2.14300	108
2.14667	111
2.15033	112
2.15400	114
2.15767	117
2.16133	119
2.16500	122
2.16867	123
2.17233	123
2.17600	124
2.17967	124
2.18333	123
2.18700	124
2.19067	124
2.19433	123
2.19800	124
2.20167	126
2.20533	129
2.20900	132
2.21267	134
2.21633	137
2.22000	139
2.22367	139
2.22733	140
2.23100	140
2.23467	140
2.23833	140
2.24200	140
2.24567	143
2.24933	147
2.25300	149
2.25667	149
2.26033	151
2.26400	153
2.26767	154
2.27133	156
2.27500	160
2.27867	161
2.28233	161
2.28600	159
2.28967	161
2.29333	165
2.29700	169
2.30067	173
2.30433	175
2.30800	177
2.31167	178
2.31533	178
2.31900	178
2.32267	177
2.32633	179
2.33000	182
2.33367	184
2.33733	187
2.34100	189
2.34467	192
2.34833	194
2.35200	196
2.35567	198
2.35933	199
2.36300	202
2.36667	206
2.37033	208
2.37400	208
2.37767	208
2.38133	208
2.38500	209
2.38867	208
2.39233	210
2.39600	213
2.39967	216
2.40333	220
2.40700	225
2.41067	229
2.41433	232
2.41800	235
2.42167	239
2.42533	243
2.42900	247
2.43267	252
2.43633	255
2.44000	259
2.44367	309
2.44733	446
2.45100	593
2.45467	716
2.45833	784
2.46200	782
2.46567	735
2.46933	674
2.47300	621
2.47667	583
2.48033	558
2.48400	529
2.48767	492
2.49133	451
2.49500	411
2.49867	375
2.50233	346
2.50600	327
2.50967	316
2.51333	315
2.51700	325
2.52067	342
2.52433	360
2.52800	374
2.53167	383
2.53533	384
2.53900	376
2.54267	355
2.54633	328
2.55000	302
2.55367	277
2.55733	255
2.56100	237
2.56467	223
2.56833	215
2.57200	210
2.57567	207
2.57933	203
2.58300	201
2.58667	199
2.59033	198
2.59400	199
2.59767	197
2.60133	193
2.60500	188
2.60867	181
2.61233	173
2.61600	163
2.61967	152
2.62333	143
2.62700	135
2.63067	130
2.63433	126
2.63800	125
2.64167	125
2.64533	125
2.64900	126
2.65267	125
2.65633	122
2.66000	118
2.66367	114
2.66733	107
2.67100	99
2.67467	91
2.67833	84
2.68200	76
2.68567	69
2.68933	62
2.69300	58
2.69667	54
2.70033	50
2.70400	47
2.70767	47
2.71133	47
2.71500	47
2.71867	48
2.72233	48
2.72600	47
2.72967	49
2.73333	52
2.73700	58
2.74067	62
2.74433	66
2.74800	69
2.75167	70
2.75533	71
2.75900	74
2.76267	76
2.76633	78
2.77000	79
2.77367	81
2.77733	83
2.78100	88
2.78467	93
2.78833	95
2.79200	96
2.79567	98
2.79933	98
2.80300	99
2.80667	102
2.81033	106
2.81400	110
2.81767	119
2.82133	131
2.82500	157
2.82867	211
2.83233	310
2.83600	480
2.83967	742
2.84333	1108
2.84700	1579
2.85067	2137
2.85433	2752
2.85800	3377
2.86167	3959
2.86533	4449
2.86900	4811
2.87267	5028
2.87633	5095
2.88000	5027
2.88367	4842
2.88733	4572
2.89100	4245
2.89467	3891
2.89833	3533
2.90200	3180
2.90567	2843
2.90933	2530
2.91300	2242
2.91667	1981
2.92033	1746
2.92400	1538
2.92767	1355
2.93133	1195
2.93500	1055
2.93867	930
2.94233	819
2.94600	723
2.94967	642
2.95333	571
2.95700	509
2.96067	458
2.96433	415
2.96800	375
2.97167	339
2.97533	307
2.97900	280
2.98267	257
2.98633	236
2.99000	217
2.99367	200
2.99733	184
3.00100	170
3.00467	159
3.00833	149
3.01200	140
3.01567	134
3.01933	127
3.02300	119
3.02667	113
3.03033	108
3.03400	102
3.03767	97
3.04133	95
3.04500	93
3.04867	91
3.05233	89
3.05600	88
3.05967	86
3.06333	86
3.06700	84
3.07067	82
3.07433	81
3.07800	80
3.08167	78
3.08533	77
3.08900	77
3.09267	79
3.09633	80
3.10000	77
3.10367	76
3.10733	76
3.11100	76
3.11467	75
3.11833	74
3.12200	73
3.12567	73
3.12933	75
3.13300	74
3.13667	73
3.14033	75
3.14400	76
3.14767	76
3.15133	77
3.15500	77
3.15867	77
3.16233	76
3.16600	68
3.16967	35
3.17333	-8
3.17700	-43
3.18067	-50
3.18433	-34
3.18800	-1
3.19167	40
3.19533	87
3.19900	138
3.20267	189
3.20633	239
3.21000	284
3.21367	323
3.21733	357
3.22100	388
3.22467	414
3.22833	437
3.23200	457
3.23567	472
3.23933	487
3.24300	502
3.24667	516
3.25033	525
3.25400	532
3.25767	538
3.26133	547
3.26500	556
3.26867	560
3.27233	564
3.27600	568
3.27967	573
3.28333	577
3.28700	580
3.29067	584
3.29433	586
3.29800	588
3.30167	591
3.30533	595
3.30900	600
3.31267	606
3.31633	612
3.32000	618
3.32367	625
3.32733	629
3.33100	632
3.33467	635
3.33833	637
3.34200	640
3.34567	646
3.34933	651
3.35300	656
3.35667	661
3.36033	662
3.36400	660
3.36767	660
3.37133	664
3.37500	667
3.37867	669
3.38233	674
3.38600	677
3.38967	677
3.39333	678
3.39700	678
3.40067	678
3.40433	679
3.40800	681
3.41167	683
3.41533	685
3.41900	686
3.42267	686
3.42633	685
3.43000	684
3.43367	682
3.43733	679
3.44100	674
3.44467	670
3.44833	666
3.45200	661
3.45567	659
3.45933	656
3.46300	654
3.46667	652
3.47033	650
3.47400	649
3.47767	646
3.48133	645
3.48500	642
3.48867	637
3.49233	635
3.49600	633
3.49967	630
3.50333	627
3.50700	625
3.51067	622
3.51433	620
3.51800	619
3.52167	618
3.52533	616
3.52900	617
3.53267	617
3.53633	616
3.54000	613
3.54367	609
3.54733	606
3.55100	606
3.55467	606
3.55833	605
3.56200	606
3.56567	607
3.56933	610
3.57300	612
3.57667	614
3.58033	614
3.58400	613
3.58767	613
3.59133	613
3.59500	611
3.59867	609
3.60233	608
3.60600	607
3.60967	609
3.61333	611
3.61700	612
3.62067	612
3.62433	612
3.62800	611
3.63167	609
3.63533	607
3.63900	608
3.64267	611
3.64633	614
3.65000	614
3.65367	614
3.65733	613
3.66100	613
3.66467	611
3.66833	608
3.67200	605
3.67567	604
3.67933	606
3.68300	607
3.68667	608
3.69033	607
3.69400	607
3.69767	607
3.70133	606
3.70500	607
3.70867	608
3.71233	610
3.71600	610
3.71967	611
3.72333	612
3.72700	615
3.73067	615
3.73433	616
3.73800	616
3.74167	617
3.74533	618
3.74900	618
3.75267	616
3.75633	611
3.76000	609
3.76367	609
3.76733	607
3.77100	604
3.77467	601
3.77833	602
3.78200	603
3.78567	602
3.78933	602
3.79300	604
3.79667	604
3.80033	603
3.80400	603
3.80767	602
3.81133	602
3.81500	601
3.81867	600
3.82233	598
3.82600	595
3.82967	595
3.83333	595
3.83700	594
3.84067	593
3.84433	592
3.84800	590
3.85167	589
3.85533	588
3.85900	586
3.86267	583
3.86633	580
3.87000	580
3.87367	579
3.87733	578
3.88100	576
3.88467	574
3.88833	573
3.89200	571
3.89567	572
3.89933	572
3.90300	572
3.90667	570
3.91033	568
3.91400	566
3.91767	564
3.92133	563
3.92500	562
3.92867	558
3.93233	553
3.93600	551
3.93967	552
3.94333	549
3.94700	549
3.95067	550
3.95433	549
3.95800	549
3.96167	549
3.96533	548
3.96900	546
3.97267	543
3.97633	540
3.98000	536
3.98367	535
3.98733	533
3.99100	531
3.99467	531
3.99833	531

[Status Trace (Column Oven Temperature)]
Interval(msec)	1000
# of Points	240
Start Time(min)	0.006
End Time(min)	3.989
Intensity Units	
Intensity Multiplier	1
R.Time (min)	Intensity
0.00562	35.08
0.02228	35.07
0.03895	35.06
0.05562	35.06
0.07228	35.07
0.08895	35.08
0.10562	35.08
0.12228	35.08
0.13895	35.07
0.15562	35.07
0.17228	35.07
0.18895	35.07
0.20562	35.06
0.22228	35.05
0.23895	35.04
0.25562	35.05
0.27228	35.04
0.28895	35.04
0.30562	35.04
0.32228	35.04
0.33895	35.03
0.35562	35.04
0.37228	35.04
0.38895	35.03
0.40562	35.03
0.42228	35.02
0.43895	35.00
0.45562	34.98
0.47228	34.97
0.48895	34.96
0.50562	34.97
0.52228	34.99
0.53895	34.99
0.55562	35.00
0.57228	35.00
0.58895	35.00
0.60562	35.00
0.62228	34.99
0.63895	34.98
0.65562	34.98
0.67228	34.99
0.68895	34.98
0.70562	34.99
0.72228	34.99
0.73895	34.99
0.75562	35.00
0.77228	35.01
0.78895	35.01
0.80562	35.02
0.82228	35.03
0.83895	35.03
0.85562	35.02
0.87228	35.01
0.88895	35.00
0.90562	34.99
0.92228	34.98
0.93895	34.98
0.95562	34.97
0.97228	34.97
0.98895	34.98
1.00562	34.97
1.02228	34.97
1.03895	34.97
1.05562	34.97
1.07228	34.98
1.08895	34.98
1.10562	34.98
1.12228	34.99
1.13895	35.00
1.15562	35.00
1.17228	34.99
1.18895	35.00
1.20562	34.99
1.22228	34.99
1.23895	34.98
1.25562	34.99
1.27228	34.99
1.28895	34.99
1.30562	35.00
1.32228	34.99
1.33895	34.99
1.35562	35.00
1.37228	34.99
1.38895	34.99
1.40562	34.98
1.42228	34.98
1.43895	34.99
1.45562	35.00
1.47228	35.01
1.48895	34.99
1.50562	34.99
1.52228	34.99
1.53895	35.00
1.55562	35.00
1.57228	35.00
1.58895	35.01
1.60562	35.06
1.62228	35.18
1.63895	35.36
1.65562	35.60
1.67228	35.94
1.68895	36.31
1.70562	36.66
1.72228	36.99
1.73895	37.30
1.75562	37.63
1.77228	37.98
1.78895	38.30
1.80562	38.63
1.82228	38.96
1.83895	39.32
1.85562	39.62
1.87228	39.93
1.88895	40.28
1.90562	40.61
1.92228	40.93
1.93895	41.26
1.95562	41.60
1.97228	41.91
1.98895	42.25
2.00562	42.59
2.02228	42.91
2.03895	43.23
2.05562	43.55
2.07228	43.88
2.08895	44.22
2.10562	44.53
2.12228	44.85
2.13895	45.19
2.15562	45.52
2.17228	45.85
2.18895	46.18
2.20562	46.52
2.22228	46.85
2.23895	47.19
2.25562	47.51
2.27228	47.83
2.28895	48.17
2.30562	48.50
2.32228	48.80
2.33895	49.12
2.35562	49.41
2.37228	49.64
2.38895	49.72
2.40562	49.69
2.42228	49.71
2.43895	49.73
2.45562	49.72
2.47228	49.73
2.48895	49.74
2.50562	49.73
2.52228	49.77
2.53895	49.79
2.55562	49.79
2.57228	49.81
2.58895	49.82
2.60562	49.81
2.62228	49.82
2.63895	49.83
2.65562	49.85
2.67228	49.86
2.68895	49.85
2.70562	49.85
2.72228	49.85
2.73895	49.87
2.75562	49.87
2.77228	49.86
2.78895	49.85
2.80562	49.85
2.82228	49.87
2.83895	49.89
2.85562	49.91
2.87228	49.93
2.88895	49.94
2.90562	49.95
2.92228	49.97
2.93895	49.98
2.95562	49.98
2.97228	49.99
2.98895	49.99
3.00562	49.99
3.02228	49.99
3.03895	50.00
3.05562	50.00
3.07228	50.00
3.08895	50.00
3.10562	50.02
3.12228	50.02
3.13895	50.03
3.15562	50.04
3.17228	50.05
3.18895	50.05
3.20562	50.05
3.22228	50.06
3.23895	50.06
3.25562	50.06
3.27228	50.07
3.28895	50.07
3.30562	50.07
3.32228	50.07
3.33895	50.08
3.35562	50.08
3.37228	50.09
3.38895	50.10
3.40562	50.11
3.42228	50.11
3.43895	50.11
3.45562	50.10
3.47228	50.07
3.48895	50.06
3.50562	50.04
3.52228	50.03
3.53895	50.03
3.55562	50.02
3.57228	50.02
3.58895	50.02
3.60562	50.03
3.62228	50.04
3.63895	50.04
3.65562	50.04
3.67228	50.03
3.68895	50.03
3.70562	50.04
3.72228	50.05
3.73895	50.05
3.75562	50.05
3.77228	50.05
3.78895	50.05
3.80562	50.06
3.82228	50.07
3.83895	50.07
3.85562	50.06
3.87228	50.07
3.88895	50.07
3.90562	50.06
3.92228	50.05
3.93895	50.04
3.95562	50.04
3.97228	50.03
3.98895	50.03

[Status Trace (Injection Unit Temperature)]
Interval(msec)	1000
# of Points	240
Start Time(min)	0.006
End Time(min)	3.989
Intensity Units	
Intensity Multiplier	1
R.Time (min)	Intensity
0.00562	99.98
0.02228	99.98
0.03895	99.98
0.05562	99.98
0.07228	99.98
0.08895	99.98
0.10562	99.98
0.12228	99.98
0.13895	99.98
0.15562	99.99
0.17228	99.98
0.18895	99.99
0.20562	99.98
0.22228	99.98
0.23895	99.98
0.25562	99.99
0.27228	99.99
0.28895	99.99
0.30562	99.98
0.32228	99.98
0.33895	99.98
0.35562	99.99
0.37228	99.99
0.38895	99.98
0.40562	99.99
0.42228	99.99
0.43895	99.98
0.45562	99.98
0.47228	99.98
0.48895	99.98
0.50562	99.99
0.52228	99.99
0.53895	99.99
0.55562	99.99
0.57228	99.99
0.58895	99.98
0.60562	99.98
0.62228	99.98
0.63895	99.99
0.65562	99.98
0.67228	99.98
0.68895	99.98
0.70562	99.98
0.72228	99.98
0.73895	99.98
0.75562	99.98
0.77228	99.98
0.78895	99.98
0.80562	99.98
0.82228	99.98
0.83895	99.98
0.85562	99.98
0.87228	99.98
0.88895	99.98
0.90562	99.98
0.92228	99.98
0.93895	99.98
0.95562	99.98
0.97228	99.98
0.98895	99.98
1.00562	99.98
1.02228	99.98
1.03895	99.98
1.05562	99.98
1.07228	99.97
1.08895	99.98
1.10562	99.98
1.12228	99.98
1.13895	99.98
1.15562	99.98
1.17228	99.97
1.18895	99.98
1.20562	99.98
1.22228	99.98
1.23895	99.98
1.25562	99.97
1.27228	99.98
1.28895	99.98
1.30562	99.98
1.32228	99.97
1.33895	99.98
1.35562	99.98
1.37228	99.98
1.38895	99.98
1.40562	99.98
1.42228	99.98
1.43895	99.98
1.45562	99.98
1.47228	99.98
1.48895	99.98
1.50562	99.98
1.52228	99.98
1.53895	99.98
1.55562	99.99
1.57228	99.99
1.58895	99.99
1.60562	99.99
1.62228	99.98
1.63895	99.99
1.65562	99.99
1.67228	99.98
1.68895	99.99
1.70562	99.99
1.72228	99.98
1.73895	99.99
1.75562	99.99
1.77228	99.99
1.78895	99.99
1.80562	99.99
1.82228	99.99
1.83895	99.99
1.85562	99.98
1.87228	99.99
1.88895	99.99
1.90562	99.99
1.92228	99.98
1.93895	99.98
1.95562	99.98
1.97228	99.98
1.98895	99.98
2.00562	99.98
2.02228	99.98
2.03895	99.98
2.05562	99.98
2.07228	99.98
2.08895	99.97
2.10562	99.98
2.12228	99.98
2.13895	99.98
2.15562	99.97
2.17228	99.97
2.18895	99.97
2.20562	99.97
2.22228	99.97
2.23895	99.97
2.25562	99.97
2.27228	99.97
2.28895	99.97
2.30562	99.97
2.32228	99.97
2.33895	99.97
2.35562	99.97
2.37228	99.97
2.38895	99.96
2.40562	99.97
2.42228	99.97
2.43895	99.97
2.45562	99.97
2.47228	99.97
2.48895	99.97
2.50562	99.96
2.52228	99.97
2.53895	99.97
2.55562	99.98
2.57228	99.97
2.58895	99.98
2.60562	99.98
2.62228	99.98
2.63895	99.98
2.65562	99.98
2.67228	99.98
2.68895	99.99
2.70562	99.99
2.72228	99.98
2.73895	99.98
2.75562	99.99
2.77228	99.99
2.78895	99.99
2.80562	100.00
2.82228	100.00
2.83895	100.00
2.85562	100.00
2.87228	100.00
2.88895	100.00
2.90562	100.01
2.92228	100.00
2.93895	100.01
2.95562	100.01
2.97228	100.01
2.98895	100.01
3.00562	100.01
3.02228	100.01
3.03895	100.01
3.05562	100.02
3.07228	100.02
3.08895	100.02
3.10562	100.02
3.12228	100.02
3.13895	100.02
3.15562	100.02
3.17228	100.02
3.18895	100.03
3.20562	100.03
3.22228	100.03
3.23895	100.03
3.25562	100.03
3.27228	100.03
3.28895	100.03
3.30562	100.03
3.32228	100.03
3.33895	100.04
3.35562	100.03
3.37228	100.03
3.38895	100.04
3.40562	100.04
3.42228	100.04
3.43895	100.04
3.45562	100.04
3.47228	100.04
3.48895	100.04
3.50562	100.04
3.52228	100.04
3.53895	100.04
3.55562	100.04
3.57228	100.05
3.58895	100.05
3.60562	100.04
3.62228	100.04
3.63895	100.05
3.65562	100.04
3.67228	100.05
3.68895	100.04
3.70562	100.05
3.72228	100.05
3.73895	100.05
3.75562	100.05
3.77228	100.05
3.78895	100.05
3.80562	100.05
3.82228	100.05
3.83895	100.05
3.85562	100.05
3.87228	100.05
3.88895	100.05
3.90562	100.05
3.92228	100.05
3.93895	100.05
3.95562	100.05
3.97228	100.04
3.98895	100.05

[Status Trace (Carrier Gas Pressure)]
Interval(msec)	1000
# of Points	240
Start Time(min)	0.006
End Time(min)	3.989
Intensity Units	
Intensity Multiplier	1
R.Time (min)	Intensity
0.00562	58.00
0.02228	55.71
0.03895	56.84
0.05562	58.93
0.07228	59.67
0.08895	58.12
0.10562	57.97
0.12228	58.01
0.13895	58.01
0.15562	58.01
0.17228	58.00
0.18895	58.00
0.20562	58.00
0.22228	58.00
0.23895	58.00
0.25562	58.00
0.27228	58.00
0.28895	58.00
0.30562	58.00
0.32228	58.00
0.33895	58.00
0.35562	58.00
0.37228	58.00
0.38895	58.00
0.40562	58.00
0.42228	58.00
0.43895	58.00
0.45562	58.00
0.47228	58.00
0.48895	58.00
0.50562	58.00
0.52228	58.00
0.53895	58.00
0.55562	58.00
0.57228	58.00
0.58895	58.00
0.60562	58.00
0.62228	58.00
0.63895	58.00
0.65562	58.00
0.67228	58.00
0.68895	58.00
0.70562	58.00
0.72228	58.00
0.73895	58.00
0.75562	58.00
0.77228	58.00
0.78895	58.00
0.80562	58.00
0.82228	58.00
0.83895	58.00
0.85562	58.00
0.87228	58.00
0.88895	58.00
0.90562	58.00
0.92228	58.00
0.93895	58.00
0.95562	58.00
0.97228	58.00
0.98895	58.00
1.00562	58.00
1.02228	58.00
1.03895	58.00
1.05562	58.00
1.07228	58.00
1.08895	58.00
1.10562	58.00
1.12228	58.00
1.13895	58.00
1.15562	58.00
1.17228	58.00
1.18895	58.00
1.20562	58.00
1.22228	58.00
1.23895	58.00
1.25562	58.00
1.27228	58.00
1.28895	58.00
1.30562	58.00
1.32228	58.00
1.33895	58.00
1.35562	58.00
1.37228	58.00
1.38895	58.00
1.40562	58.00
1.42228	58.00
1.43895	58.00
1.45562	58.00
1.47228	58.00
1.48895	58.00
1.50562	58.00
1.52228	58.00
1.53895	58.00
1.55562	58.00
1.57228	58.00
1.58895	58.00
1.60562	58.00
1.62228	58.00
1.63895	58.00
1.65562	58.00
1.67228	58.01
1.68895	58.00
1.70562	58.00
1.72228	58.00
1.73895	58.00
1.75562	58.00
1.77228	58.00
1.78895	58.00
1.80562	58.00
1.82228	58.00
1.83895	58.00
1.85562	58.00
1.87228	58.00
1.88895	58.00
1.90562	58.00
1.92228	58.00
1.93895	58.00
1.95562	58.00
1.97228	58.00
1.98895	58.00
2.00562	58.00
2.02228	58.00
2.03895	58.00
2.05562	58.00
2.07228	58.00
2.08895	58.00
2.10562	58.00
2.12228	58.00
2.13895	58.00
2.15562	58.00
2.17228	58.00
2.18895	58.00
2.20562	58.00
2.22228	58.00
2.23895	58.00
2.25562	58.00
2.27228	58.00
2.28895	58.00
2.30562	58.00
2.32228	58.00
2.33895	58.00
2.35562	58.00
2.37228	58.00
2.38895	57.99
2.40562	57.99
2.42228	58.00
2.43895	58.00
2.45562	58.00
2.47228	58.00
2.48895	58.00
2.50562	57.99
2.52228	57.99
2.53895	58.00
2.55562	58.00
2.57228	58.00
2.58895	58.00
2.60562	58.00
2.62228	58.00
2.63895	58.00
2.65562	58.00
2.67228	58.00
2.68895	58.00
2.70562	58.00
2.72228	58.00
2.73895	58.00
2.75562	58.00
2.77228	58.00
2.78895	58.00
2.80562	58.00
2.82228	58.00
2.83895	58.00
2.85562	58.00
2.87228	58.00
2.88895	58.00
2.90562	58.00
2.92228	58.00
2.93895	58.00
2.95562	58.00
2.97228	58.00
2.98895	58.00
3.00562	58.00
3.02228	58.00
3.03895	58.00
3.05562	58.00
3.07228	58.00
3.08895	58.00
3.10562	58.00
3.12228	58.00
3.13895	58.00
3.15562	58.00
3.17228	58.00
3.18895	58.00
3.20562	58.00
3.22228	58.00
3.23895	58.00
3.25562	58.00
3.27228	58.00
3.28895	58.00
3.30562	58.00
3.32228	58.00
3.33895	58.00
3.35562	58.00
3.37228	58.00
3.38895	58.00
3.40562	58.00
3.42228	58.00
3.43895	58.00
3.45562	58.00
3.47228	58.00
3.48895	58.00
3.50562	58.00
3.52228	58.00
3.53895	58.00
3.55562	58.00
3.57228	58.00
3.58895	58.00
3.60562	58.00
3.62228	58.00
3.63895	58.00
3.65562	58.00
3.67228	58.00
3.68895	58.00
3.70562	58.00
3.72228	58.00
3.73895	58.00
3.75562	58.00
3.77228	58.00
3.78895	58.00
3.80562	58.00
3.82228	58.00
3.83895	58.00
3.85562	58.00
3.87228	58.00
3.88895	58.00
3.90562	58.00
3.92228	58.00
3.93895	58.00
3.95562	58.00
3.97228	58.00
3.98895	58.00

[Status Trace (Carrier Gas Flow)]
Interval(msec)	1000
# of Points	240
Start Time(min)	0.006
End Time(min)	3.989
Intensity Units	
Intensity Multiplier	1
R.Time (min)	Intensity
0.00562	34.52
0.02228	34.54
0.03895	34.55
0.05562	34.54
0.07228	34.50
0.08895	34.51
0.10562	34.52
0.12228	34.52
0.13895	34.52
0.15562	34.52
0.17228	34.52
0.18895	34.52
0.20562	34.52
0.22228	34.52
0.23895	34.52
0.25562	34.51
0.27228	34.52
0.28895	34.52
0.30562	34.51
0.32228	34.51
0.33895	34.52
0.35562	34.52
0.37228	34.52
0.38895	34.52
0.40562	34.52
0.42228	34.52
0.43895	34.51
0.45562	34.52
0.47228	34.52
0.48895	34.52
0.50562	34.52
0.52228	34.53
0.53895	34.52
0.55562	34.52
0.57228	34.51
0.58895	34.52
0.60562	34.52
0.62228	34.52
0.63895	34.52
0.65562	34.53
0.67228	34.52
0.68895	34.52
0.70562	34.52
0.72228	34.52
0.73895	34.52
0.75562	34.52
0.77228	34.51
0.78895	34.52
0.80562	34.51
0.82228	34.52
0.83895	34.53
0.85562	34.52
0.87228	34.52
0.88895	34.52
0.90562	34.52
0.92228	34.51
0.93895	34.52
0.95562	34.51
0.97228	34.52
0.98895	34.52
1.00562	34.52
1.02228	34.51
1.03895	34.51
1.05562	34.51
1.07228	34.53
1.08895	34.52
1.10562	34.51
1.12228	34.52
1.13895	34.51
1.15562	34.52
1.17228	34.52
1.18895	34.52
1.20562	34.51
1.22228	34.52
1.23895	34.52
1.25562	34.51
1.27228	34.51
1.28895	34.51
1.30562	34.51
1.32228	34.52
1.33895	34.52
1.35562	34.52
1.37228	34.52
1.38895	34.52
1.40562	34.51
1.42228	34.52
1.43895	34.52
1.45562	34.51
1.47228	34.52
1.48895	34.52
1.50562	34.51
1.52228	34.52
1.53895	34.53
1.55562	34.52
1.57228	34.52
1.58895	34.53
1.60562	34.52
1.62228	34.51
1.63895	34.52
1.65562	34.52
1.67228	34.51
1.68895	34.51
1.70562	34.52
1.72228	34.52
1.73895	34.52
1.75562	34.52
1.77228	34.53
1.78895	34.52
1.80562	34.52
1.82228	34.51
1.83895	34.52
1.85562	34.52
1.87228	34.52
1.88895	34.52
1.90562	34.52
1.92228	34.52
1.93895	34.51
1.95562	34.52
1.97228	34.51
1.98895	34.52
2.00562	34.52
2.02228	34.52
2.03895	34.52
2.05562	34.51
2.07228	34.52
2.08895	34.52
2.10562	34.52
2.12228	34.52
2.13895	34.52
2.15562	34.52
2.17228	34.52
2.18895	34.51
2.20562	34.52
2.22228	34.52
2.23895	34.52
2.25562	34.51
2.27228	34.52
2.28895	34.51
2.30562	34.52
2.32228	34.53
2.33895	34.52
2.35562	34.51
2.37228	34.52
2.38895	34.51
2.40562	34.52
2.42228	34.52
2.43895	34.51
2.45562	34.51
2.47228	34.51
2.48895	34.52
2.50562	34.53
2.52228	34.51
2.53895	34.52
2.55562	34.52
2.57228	34.52
2.58895	34.52
2.60562	34.52
2.62228	34.52
2.63895	34.53
2.65562	34.52
2.67228	34.52
2.68895	34.52
2.70562	34.52
2.72228	34.52
2.73895	34.52
2.75562	34.52
2.77228	34.52
2.78895	34.52
2.80562	34.52
2.82228	34.52
2.83895	34.52
2.85562	34.52
2.87228	34.52
2.88895	34.52
2.90562	34.52
2.92228	34.52
2.93895	34.52
2.95562	34.52
2.97228	34.52
2.98895	34.52
3.00562	34.52
3.02228	34.52
3.03895	34.52
3.05562	34.52
3.07228	34.52
3.08895	34.52
3.10562	34.52
3.12228	34.52
3.13895	34.52
3.15562	34.52
3.17228	34.52
3.18895	34.51
3.20562	34.52
3.22228	34.53
3.23895	34.52
3.25562	34.52
3.27228	34.52
3.28895	34.52
3.30562	34.52
3.32228	34.52
3.33895	34.52
3.35562	34.52
3.37228	34.52
3.38895	34.53
3.40562	34.53
3.42228	34.52
3.43895	34.51
3.45562	34.52
3.47228	34.52
3.48895	34.52
3.50562	34.52
3.52228	34.52
3.53895	34.52
3.55562	34.52
3.57228	34.52
3.58895	34.52
3.60562	34.52
3.62228	34.52
3.63895	34.52
3.65562	34.52
3.67228	34.52
3.68895	34.52
3.70562	34.52
3.72228	34.52
3.73895	34.52
3.75562	34.52
3.77228	34.51
3.78895	34.52
3.80562	34.52
3.82228	34.52
3.83895	34.52
3.85562	34.52
3.87228	34.52
3.88895	34.52
3.90562	34.52
3.92228	34.51
3.93895	34.51
3.95562	34.52
3.97228	34.52
3.98895	34.52

[Status Trace (Column Flow)]
Interval(msec)	1000
# of Points	240
Start Time(min)	0.006
End Time(min)	3.989
Intensity Units	
Intensity Multiplier	1
R.Time (min)	Intensity
0.00562	5.52
0.02228	5.25
0.03895	5.38
0.05562	5.63
0.07228	5.71
0.08895	5.53
0.10562	5.52
0.12228	5.52
0.13895	5.52
0.15562	5.52
0.17228	5.52
0.18895	5.52
0.20562	5.52
0.22228	5.52
0.23895	5.52
0.25562	5.52
0.27228	5.52
0.28895	5.52
0.30562	5.52
0.32228	5.52
0.33895	5.52
0.35562	5.52
0.37228	5.52
0.38895	5.52
0.40562	5.52
0.42228	5.52
0.43895	5.52
0.45562	5.52
0.47228	5.52
0.48895	5.52
0.50562	5.52
0.52228	5.52
0.53895	5.52
0.55562	5.52
0.57228	5.52
0.58895	5.52
0.60562	5.52
0.62228	5.52
0.63895	5.52
0.65562	5.52
0.67228	5.52
0.68895	5.52
0.70562	5.52
0.72228	5.52
0.73895	5.52
0.75562	5.52
0.77228	5.52
0.78895	5.52
0.80562	5.52
0.82228	5.52
0.83895	5.52
0.85562	5.52
0.87228	5.52
0.88895	5.52
0.90562	5.52
0.92228	5.52
0.93895	5.52
0.95562	5.52
0.97228	5.52
0.98895	5.52
1.00562	5.52
1.02228	5.52
1.03895	5.52
1.05562	5.52
1.07228	5.52
1.08895	5.52
1.10562	5.52
1.12228	5.52
1.13895	5.52
1.15562	5.52
1.17228	5.52
1.18895	5.52
1.20562	5.52
1.22228	5.52
1.23895	5.52
1.25562	5.52
1.27228	5.52
1.28895	5.52
1.30562	5.52
1.32228	5.52
1.33895	5.52
1.35562	5.52
1.37228	5.52
1.38895	5.52
1.40562	5.52
1.42228	5.52
1.43895	5.52
1.45562	5.52
1.47228	5.52
1.48895	5.52
1.50562	5.52
1.52228	5.52
1.53895	5.52
1.55562	5.52
1.57228	5.52
1.58895	5.52
1.60562	5.52
1.62228	5.52
1.63895	5.51
1.65562	5.50
1.67228	5.49
1.68895	5.48
1.70562	5.47
1.72228	5.46
1.73895	5.45
1.75562	5.44
1.77228	5.43
1.78895	5.42
1.80562	5.41
1.82228	5.40
1.83895	5.39
1.85562	5.38
1.87228	5.37
1.88895	5.36
1.90562	5.35
1.92228	5.34
1.93895	5.33
1.95562	5.32
1.97228	5.31
1.98895	5.30
2.00562	5.29
2.02228	5.28
2.03895	5.27
2.05562	5.26
2.07228	5.25
2.08895	5.24
2.10562	5.23
2.12228	5.22
2.13895	5.21
2.15562	5.21
2.17228	5.20
2.18895	5.19
2.20562	5.18
2.22228	5.17
2.23895	5.16
2.25562	5.15
2.27228	5.14
2.28895	5.13
2.30562	5.12
2.32228	5.11
2.33895	5.10
2.35562	5.10
2.37228	5.09
2.38895	5.09
2.40562	5.09
2.42228	5.09
2.43895	5.09
2.45562	5.09
2.47228	5.09
2.48895	5.09
2.50562	5.08
2.52228	5.08
2.53895	5.08
2.55562	5.08
2.57228	5.08
2.58895	5.08
2.60562	5.08
2.62228	5.08
2.63895	5.08
2.65562	5.08
2.67228	5.08
2.68895	5.08
2.70562	5.08
2.72228	5.08
2.73895	5.08
2.75562	5.08
2.77228	5.08
2.78895	5.08
2.80562	5.08
2.82228	5.08
2.83895	5.08
2.85562	5.08
2.87228	5.08
2.88895	5.08
2.90562	5.08
2.92228	5.08
2.93895	5.08
2.95562	5.08
2.97228	5.08
2.98895	5.08
3.00562	5.08
3.02228	5.08
3.03895	5.08
3.05562	5.08
3.07228	5.08
3.08895	5.08
3.10562	5.08
3.12228	5.08
3.13895	5.08
3.15562	5.08
3.17228	5.08
3.18895	5.08
3.20562	5.08
3.22228	5.08
3.23895	5.08
3.25562	5.08
3.27228	5.08
3.28895	5.08
3.30562	5.08
3.32228	5.08
3.33895	5.08
3.35562	5.08
3.37228	5.08
3.38895	5.08
3.40562	5.07
3.42228	5.07
3.43895	5.07
3.45562	5.08
3.47228	5.08
3.48895	5.08
3.50562	5.08
3.52228	5.08
3.53895	5.08
3.55562	5.08
3.57228	5.08
3.58895	5.08
3.60562	5.08
3.62228	5.08
3.63895	5.08
3.65562	5.08
3.67228	5.08
3.68895	5.08
3.70562	5.08
3.72228	5.08
3.73895	5.08
3.75562	5.08
3.77228	5.08
3.78895	5.08
3.80562	5.08
3.82228	5.08
3.83895	5.08
3.85562	5.08
3.87228	5.08
3.88895	5.08
3.90562	5.08
3.92228	5.08
3.93895	5.08
3.95562	5.08
3.97228	5.08
3.98895	5.08

[Status Trace (Linear Velocity)]
Interval(msec)	1000
# of Points	240
Start Time(min)	0.006
End Time(min)	3.989
Intensity Units	
Intensity Multiplier	1
R.Time (min)	Intensity
0.00562	39.01
0.02228	37.51
0.03895	38.25
0.05562	39.62
0.07228	40.10
0.08895	39.09
0.10562	38.99
0.12228	39.01
0.13895	39.02
0.15562	39.01
0.17228	39.01
0.18895	39.01
0.20562	39.01
0.22228	39.01
0.23895	39.01
0.25562	39.01
0.27228	39.01
0.28895	39.01
0.30562	39.01
0.32228	39.01
0.33895	39.01
0.35562	39.01
0.37228	39.01
0.38895	39.01
0.40562	39.01
0.42228	39.01
0.43895	39.02
0.45562	39.02
0.47228	39.02
0.48895	39.02
0.50562	39.02
0.52228	39.02
0.53895	39.02
0.55562	39.02
0.57228	39.02
0.58895	39.02
0.60562	39.02
0.62228	39.02
0.63895	39.02
0.65562	39.02
0.67228	39.02
0.68895	39.02
0.70562	39.02
0.72228	39.02
0.73895	39.02
0.75562	39.02
0.77228	39.02
0.78895	39.02
0.80562	39.01
0.82228	39.01
0.83895	39.01
0.85562	39.01
0.87228	39.01
0.88895	39.02
0.90562	39.02
0.92228	39.02
0.93895	39.02
0.95562	39.02
0.97228	39.02
0.98895	39.02
1.00562	39.02
1.02228	39.02
1.03895	39.02
1.05562	39.02
1.07228	39.02
1.08895	39.02
1.10562	39.02
1.12228	39.02
1.13895	39.02
1.15562	39.02
1.17228	39.02
1.18895	39.02
1.20562	39.02
1.22228	39.02
1.23895	39.02
1.25562	39.02
1.27228	39.02
1.28895	39.02
1.30562	39.02
1.32228	39.02
1.33895	39.02
1.35562	39.02
1.37228	39.02
1.38895	39.02
1.40562	39.02
1.42228	39.02
1.43895	39.02
1.45562	39.02
1.47228	39.02
1.48895	39.02
1.50562	39.02
1.52228	39.02
1.53895	39.02
1.55562	39.02
1.57228	39.02
1.58895	39.02
1.60562	39.01
1.62228	39.00
1.63895	38.98
1.65562	38.96
1.67228	38.93
1.68895	38.89
1.70562	38.86
1.72228	38.83
1.73895	38.80
1.75562	38.77
1.77228	38.73
1.78895	38.70
1.80562	38.67
1.82228	38.64
1.83895	38.61
1.85562	38.58
1.87228	38.55
1.88895	38.52
1.90562	38.49
1.92228	38.45
1.93895	38.42
1.95562	38.40
1.97228	38.36
1.98895	38.33
2.00562	38.30
2.02228	38.27
2.03895	38.24
2.05562	38.22
2.07228	38.18
2.08895	38.15
2.10562	38.13
2.12228	38.09
2.13895	38.06
2.15562	38.04
2.17228	38.00
2.18895	37.97
2.20562	37.95
2.22228	37.91
2.23895	37.88
2.25562	37.86
2.27228	37.82
2.28895	37.80
2.30562	37.77
2.32228	37.74
2.33895	37.71
2.35562	37.69
2.37228	37.66
2.38895	37.65
2.40562	37.65
2.42228	37.66
2.43895	37.66
2.45562	37.65
2.47228	37.66
2.48895	37.65
2.50562	37.65
2.52228	37.65
2.53895	37.65
2.55562	37.65
2.57228	37.65
2.58895	37.65
2.60562	37.65
2.62228	37.65
2.63895	37.65
2.65562	37.65
2.67228	37.64
2.68895	37.65
2.70562	37.65
2.72228	37.65
2.73895	37.64
2.75562	37.64
2.77228	37.64
2.78895	37.65
2.80562	37.65
2.82228	37.64
2.83895	37.64
2.85562	37.64
2.87228	37.64
2.88895	37.64
2.90562	37.64
2.92228	37.64
2.93895	37.63
2.95562	37.63
2.97228	37.63
2.98895	37.63
3.00562	37.63
3.02228	37.63
3.03895	37.63
3.05562	37.63
3.07228	37.63
3.08895	37.63
3.10562	37.63
3.12228	37.63
3.13895	37.63
3.15562	37.63
3.17228	37.63
3.18895	37.63
3.20562	37.63
3.22228	37.63
3.23895	37.63
3.25562	37.63
3.27228	37.63
3.28895	37.63
3.30562	37.63
3.32228	37.63
3.33895	37.63
3.35562	37.63
3.37228	37.62
3.38895	37.62
3.40562	37.62
3.42228	37.62
3.43895	37.62
3.45562	37.62
3.47228	37.63
3.48895	37.63
3.50562	37.63
3.52228	37.63
3.53895	37.63
3.55562	37.63
3.57228	37.63
3.58895	37.63
3.60562	37.63
3.62228	37.63
3.63895	37.63
3.65562	37.63
3.67228	37.63
3.68895	37.63
3.70562	37.63
3.72228	37.63
3.73895	37.63
3.75562	37.63
3.77228	37.63
3.78895	37.63
3.80562	37.63
3.82228	37.63
3.83895	37.63
3.85562	37.63
3.87228	37.63
3.88895	37.63
3.90562	37.63
3.92228	37.63
3.93895	37.63
3.95562	37.63
3.97228	37.63
3.98895	37.63

