[Header]
Application Name	LabSolutions
Version	5.110
Data File Name	C:\Users\User\Desktop\GC Analyses\Jack\Nachusa Grasslands Sampling\T2 Timepoint July 12th\T2_07122022_032.gcd
Output Date	3/14/2023
Output Time	3:42:31 PM

[File Information]
Type	Data File
Generated	3/10/2023 3:54:55 PM
Generated by	System Administrator
Modified	3/10/2023 4:01:33 PM
Modified by	System Administrator

[Sample Information]
Operator Name	System Administrator
Acquired	3/10/2023 3:57:32 PM
Sample Type	0:Unknown
Level	0
Sample Name	032
Sample ID	032
ISTD Amount1	1
ISTD Amount2	1
ISTD Amount3	1
ISTD Amount4	1
ISTD Amount5	1
ISTD Amount6	1
ISTD Amount7	1
ISTD Amount8	1
ISTD Amount9	1
ISTD Amount10	1
ISTD Amount11	1
ISTD Amount12	1
ISTD Amount13	1
ISTD Amount14	1
ISTD Amount15	1
ISTD Amount16	1
ISTD Amount17	1
ISTD Amount18	1
ISTD Amount19	1
ISTD Amount20	1
ISTD Amount21	1
ISTD Amount22	1
ISTD Amount23	1
ISTD Amount24	1
ISTD Amount25	1
ISTD Amount26	1
ISTD Amount27	1
ISTD Amount28	1
ISTD Amount29	1
ISTD Amount30	1
ISTD Amount31	1
ISTD Amount32	1
Sample Amount	1
Dilution Factor	1
Vial#	31
Injection Volume	1
Injection Count	1
Bar Code	

[Original Files]
Data File	C:\Users\User\Desktop\GC Analyses\Jack\Nachusa Grasslands Sampling\T1 Timepoint July 12th\T2_07122022_032.gcd
Method File	C:\LabSolutions\Data\GHG_4min_2022\ghg3_togas_w_acet_4 min_new_int.gcm
Batch File	C:\LabSolutions\Data\AutoSamplerTesting\T2_07122022.gcb
Report Format File	c:\LabSolutions\System\DEFAULT.lsr

[File Description]


[Configuration]
Instrument Name	C0B7VH3-Instrument1
Instrument #	1
Line #	1
# of Detectors	3
Detector ID	DET#1	DET#2	DET#3
Detector Name	FID	PTCD	ECD
# of Channels	1	1	1

[Peak Table(Ch1)]
# of Peaks	3
Peak#	R.Time	I.Time	F.Time	Area	Height	A/H	Conc.	Mark	ID#	Name	k'	Plate #	Plate Ht.	Tailing	Resolution	Sep.Factor	Area Ratio	Height Ratio	Conc. %	Norm Conc.
1	1.476	1.439	1.538	22456	10627	2.113	158.538	   	1	CO	0.000	9353	16.037	1.298	0.000	0.000	0	0	19.181	19.181
2	1.567	1.538	1.622	4454	2203	2.022	86.129	 V 	2	CH4	0.062	10574	14.185	0.000	1.503	0.000	0	0	10.421	10.421
3	1.996	1.945	2.429	2318416	1110986	2.087	581.860	   	3	CO2	0.353	17297	8.672	1.268	7.051	5.680	0	0	70.398	70.398

[Peak Table(Ch2)]
# of Peaks	0

[Peak Table(Ch3)]
# of Peaks	5
Peak#	R.Time	I.Time	F.Time	Area	Height	A/H	Conc.	Mark	ID#	Name	k'	Plate #	Plate Ht.	Tailing	Resolution	Sep.Factor	Area Ratio	Height Ratio	Conc. %	Norm Conc.
1	2.462	2.330	2.513	1948	594	3.278	0.000	   			0.000	9380	15.992	0.000	0.000	0.000	0	0	0.000	0.000
2	2.535	2.513	2.638	1350	331	4.086	0.000	 V 			0.030	4916	30.510	0.000	0.595	0.000	0	0	0.000	0.000
3	2.664	2.638	2.704	130	52	2.474	0.000	 V 			0.082	15325	9.788	0.000	1.113	2.750	0	0	0.000	0.000
4	2.876	2.814	3.038	18122	4863	3.727	0.463	   	1	N2O	0.168	13420	11.177	1.612	2.294	2.055	0	0	100.000	100.000
5	3.379	3.181	3.995	14180	510	27.789	0.000	   	2	SF6	0.372	227	659.615	2.020	1.009	2.212	0	0	0.000	0.000

[Compound Results(Ch1)]
# of IDs	6
ID#	Name	R.Time	Area	Height	Conc.	Curve	3rd	2nd	1st	Constant	Area Ratio	Height Ratio	Conc. %	Norm Conc.
1	CO	1.476	22456	10627	158.538	Linear	0.000000e+00	0.000000e+00	1.416423e+002	0.000000e+00	0	0	19.181	19.181
2	CH4	1.567	4454	2203	86.129	Linear	0.000000e+00	0.000000e+00	5.171738e+001	0.000000e+00	0	0	10.421	10.421
3	CO2	1.996	2318416	1110986	581.860	Linear	0.000000e+00	0.000000e+00	3.984494e+003	0.000000e+00	0	0	70.398	70.398
4	Ethylene	0.000	0	0	0.000	Linear	0.000000e+00	0.000000e+00	0.000000e+00	0.000000e+00	0	0	0.000	0.000
5	Acetylene	0.000	0	0	0.000	Linear	0.000000e+00	0.000000e+00	0.000000e+00	0.000000e+00	0	0	0.000	0.000
6	Ethane	0.000	0	0	0.000	Linear	0.000000e+00	0.000000e+00	0.000000e+00	0.000000e+00	0	0	0.000	0.000

[Compound Results(Ch2)]
# of IDs	5
ID#	Name	R.Time	Area	Height	Conc.	Curve	3rd	2nd	1st	Constant	Area Ratio	Height Ratio	Conc. %	Norm Conc.
1	Hydrogen	0.000	0	0	0.000	Linear	0.000000e+00	0.000000e+00	0.000000e+00	0.000000e+00	0	0	0.000	0.000
2	Oxygen	0.000	0	0	0.000	Linear	0.000000e+00	0.000000e+00	0.000000e+00	0.000000e+00	0	0	0.000	0.000
3	Nitrogen	0.000	0	0	0.000	Linear	0.000000e+00	0.000000e+00	0.000000e+00	0.000000e+00	0	0	0.000	0.000
4	Methane	0.000	0	0	0.000	Linear	0.000000e+00	0.000000e+00	0.000000e+00	0.000000e+00	0	0	0.000	0.000
5	Carbon Monoxide	0.000	0	0	0.000	Linear	0.000000e+00	0.000000e+00	0.000000e+00	0.000000e+00	0	0	0.000	0.000

[Compound Results(Ch3)]
# of IDs	2
ID#	Name	R.Time	Area	Height	Conc.	Curve	3rd	2nd	1st	Constant	Area Ratio	Height Ratio	Conc. %	Norm Conc.
1	N2O	2.876	18122	4863	0.463	Linear	0.000000e+00	0.000000e+00	3.915173e+004	0.000000e+00	0	0	100.000	100.000
2	SF6	3.379	14180	510	0.000	Linear	0.000000e+00	0.000000e+00	0.000000e+00	0.000000e+00	0	0	0.000	0.000

[Group Results(Ch1)]
# of Groups	0

[Group Results(Ch2)]
# of Groups	0

[Group Results(Ch3)]
# of Groups	0

[Chromatogram (Ch1)]
Interval(msec)	220
# of Points	1091
Start Time(min)	0.002
End Time(min)	3.998
R.Time (min)	Intensity
0.00167	18
0.00533	26
0.00900	29
0.01267	34
0.01633	38
0.02000	35
0.02367	28
0.02733	22
0.03100	21
0.03467	19
0.03833	15
0.04200	10
0.04567	10
0.04933	16
0.05300	18
0.05667	16
0.06033	13
0.06400	12
0.06767	14
0.07133	17
0.07500	17
0.07867	10
0.08233	0
0.08600	-8
0.08967	-15
0.09333	-20
0.09700	-21
0.10067	-16
0.10433	-4
0.10800	11
0.11167	22
0.11533	27
0.11900	29
0.12267	31
0.12633	30
0.13000	25
0.13367	19
0.13733	11
0.14100	5
0.14467	5
0.14833	9
0.15200	15
0.15567	17
0.15933	16
0.16300	15
0.16667	11
0.17033	5
0.17400	2
0.17767	0
0.18133	-5
0.18500	-7
0.18867	-2
0.19233	4
0.19600	9
0.19967	14
0.20333	18
0.20700	26
0.21067	31
0.21433	33
0.21800	35
0.22167	39
0.22533	46
0.22900	53
0.23267	55
0.23633	52
0.24000	49
0.24367	50
0.24733	52
0.25100	54
0.25467	58
0.25833	64
0.26200	69
0.26567	70
0.26933	68
0.27300	69
0.27667	71
0.28033	74
0.28400	82
0.28767	97
0.29133	113
0.29500	124
0.29867	126
0.30233	120
0.30600	117
0.30967	114
0.31333	115
0.31700	118
0.32067	118
0.32433	113
0.32800	104
0.33167	96
0.33533	94
0.33900	96
0.34267	101
0.34633	106
0.35000	105
0.35367	101
0.35733	97
0.36100	93
0.36467	91
0.36833	90
0.37200	86
0.37567	81
0.37933	75
0.38300	73
0.38667	74
0.39033	73
0.39400	71
0.39767	71
0.40133	70
0.40500	68
0.40867	66
0.41233	63
0.41600	58
0.41967	49
0.42333	40
0.42700	29
0.43067	16
0.43433	11
0.43800	7
0.44167	-1
0.44533	-7
0.44900	-4
0.45267	4
0.45633	11
0.46000	13
0.46367	10
0.46733	8
0.47100	9
0.47467	9
0.47833	5
0.48200	2
0.48567	-1
0.48933	-1
0.49300	4
0.49667	9
0.50033	12
0.50400	15
0.50767	18
0.51133	21
0.51500	24
0.51867	25
0.52233	27
0.52600	27
0.52967	27
0.53333	23
0.53700	15
0.54067	9
0.54433	7
0.54800	6
0.55167	3
0.55533	1
0.55900	2
0.56267	-1
0.56633	-4
0.57000	-3
0.57367	8
0.57733	22
0.58100	32
0.58467	35
0.58833	34
0.59200	25
0.59567	16
0.59933	10
0.60300	8
0.60667	12
0.61033	18
0.61400	25
0.61767	30
0.62133	30
0.62500	25
0.62867	17
0.63233	8
0.63600	3
0.63967	4
0.64333	3
0.64700	1
0.65067	-2
0.65433	-6
0.65800	-10
0.66167	-14
0.66533	-15
0.66900	-12
0.67267	-14
0.67633	-17
0.68000	-18
0.68367	-13
0.68733	-11
0.69100	-13
0.69467	-17
0.69833	-13
0.70200	-9
0.70567	-7
0.70933	-3
0.71300	-2
0.71667	-2
0.72033	0
0.72400	3
0.72767	3
0.73133	-0
0.73500	-6
0.73867	-14
0.74233	-19
0.74600	-25
0.74967	-26
0.75333	-24
0.75700	-20
0.76067	-16
0.76433	-11
0.76800	-3
0.77167	8
0.77533	21
0.77900	29
0.78267	25
0.78633	13
0.79000	3
0.79367	-4
0.79733	-7
0.80100	-6
0.80467	1
0.80833	6
0.81200	5
0.81567	-2
0.81933	-12
0.82300	-19
0.82667	-26
0.83033	-30
0.83400	-28
0.83767	-23
0.84133	-19
0.84500	-21
0.84867	-30
0.85233	-33
0.85600	-32
0.85967	-28
0.86333	-24
0.86700	-20
0.87067	-15
0.87433	-9
0.87800	-4
0.88167	-3
0.88533	1
0.88900	5
0.89267	5
0.89633	2
0.90000	-2
0.90367	-7
0.90733	-12
0.91100	-17
0.91467	-20
0.91833	-23
0.92200	-27
0.92567	-32
0.92933	-34
0.93300	-32
0.93667	-28
0.94033	-20
0.94400	-14
0.94767	-11
0.95133	-10
0.95500	-14
0.95867	-16
0.96233	-15
0.96600	-14
0.96967	-15
0.97333	-18
0.97700	-18
0.98067	-18
0.98433	-19
0.98800	-19
0.99167	-19
0.99533	-20
0.99900	-21
1.00267	-21
1.00633	-20
1.01000	-16
1.01367	-12
1.01733	-10
1.02100	-10
1.02467	-16
1.02833	-23
1.03200	-30
1.03567	-34
1.03933	-31
1.04300	-25
1.04667	-22
1.05033	-22
1.05400	-23
1.05767	-22
1.06133	-24
1.06500	-28
1.06867	-34
1.07233	-36
1.07600	-31
1.07967	-26
1.08333	-24
1.08700	-20
1.09067	-14
1.09433	-10
1.09800	-7
1.10167	-6
1.10533	-8
1.10900	-9
1.11267	-14
1.11633	-18
1.12000	-21
1.12367	-26
1.12733	-35
1.13100	-43
1.13467	-47
1.13833	-45
1.14200	-35
1.14567	-20
1.14933	-5
1.15300	0
1.15667	-5
1.16033	-13
1.16400	-23
1.16767	-29
1.17133	-34
1.17500	-35
1.17867	-33
1.18233	-31
1.18600	-31
1.18967	-28
1.19333	-22
1.19700	-20
1.20067	-22
1.20433	-25
1.20800	-26
1.21167	-25
1.21533	-25
1.21900	-26
1.22267	-24
1.22633	-24
1.23000	-25
1.23367	-23
1.23733	-17
1.24100	-6
1.24467	6
1.24833	14
1.25200	18
1.25567	16
1.25933	8
1.26300	2
1.26667	4
1.27033	11
1.27400	22
1.27767	32
1.28133	36
1.28500	35
1.28867	30
1.29233	21
1.29600	13
1.29967	10
1.30333	7
1.30700	7
1.31067	13
1.31433	21
1.31800	22
1.32167	15
1.32533	8
1.32900	4
1.33267	2
1.33633	1
1.34000	2
1.34367	4
1.34733	7
1.35100	11
1.35467	14
1.35833	16
1.36200	14
1.36567	9
1.36933	4
1.37300	1
1.37667	5
1.38033	13
1.38400	20
1.38767	24
1.39133	27
1.39500	29
1.39867	30
1.40233	22
1.40600	12
1.40967	5
1.41333	1
1.41700	3
1.42067	8
1.42433	16
1.42800	20
1.43167	16
1.43533	10
1.43900	24
1.44267	114
1.44633	342
1.45000	871
1.45367	2007
1.45733	3785
1.46100	5841
1.46467	7755
1.46833	9277
1.47200	10278
1.47567	10658
1.47933	10340
1.48300	9353
1.48667	7908
1.49033	6308
1.49400	4812
1.49767	3561
1.50133	2591
1.50500	1874
1.50867	1361
1.51233	1005
1.51600	759
1.51967	585
1.52333	457
1.52700	369
1.53067	315
1.53433	283
1.53800	274
1.54167	323
1.54533	494
1.54900	805
1.55267	1202
1.55633	1597
1.56000	1925
1.56367	2152
1.56733	2249
1.57100	2190
1.57467	1977
1.57833	1657
1.58200	1302
1.58567	971
1.58933	700
1.59300	495
1.59667	347
1.60033	250
1.60400	184
1.60767	136
1.61133	104
1.61500	82
1.61867	65
1.62233	56
1.62600	54
1.62967	55
1.63333	59
1.63700	62
1.64067	63
1.64433	57
1.64800	44
1.65167	31
1.65533	22
1.65900	18
1.66267	16
1.66633	17
1.67000	23
1.67367	29
1.67733	36
1.68100	37
1.68467	38
1.68833	38
1.69200	36
1.69567	33
1.69933	26
1.70300	18
1.70667	13
1.71033	9
1.71400	6
1.71767	4
1.72133	4
1.72500	6
1.72867	10
1.73233	15
1.73600	19
1.73967	20
1.74333	22
1.74700	24
1.75067	26
1.75433	27
1.75800	23
1.76167	21
1.76533	22
1.76900	26
1.77267	28
1.77633	27
1.78000	26
1.78367	25
1.78733	22
1.79100	21
1.79467	21
1.79833	20
1.80200	18
1.80567	13
1.80933	9
1.81300	5
1.81667	2
1.82033	2
1.82400	2
1.82767	-2
1.83133	-1
1.83500	2
1.83867	3
1.84233	3
1.84600	4
1.84967	5
1.85333	5
1.85700	3
1.86067	4
1.86433	8
1.86800	11
1.87167	14
1.87533	24
1.87900	31
1.88267	34
1.88633	35
1.89000	32
1.89367	25
1.89733	14
1.90100	6
1.90467	6
1.90833	10
1.91200	12
1.91567	11
1.91933	8
1.92300	7
1.92667	11
1.93033	17
1.93400	21
1.93767	18
1.94133	23
1.94500	31
1.94867	40
1.95233	73
1.95600	293
1.95967	1571
1.96333	7334
1.96700	26990
1.97067	78427
1.97433	182390
1.97800	346328
1.98167	552582
1.98533	765225
1.98900	946330
1.99267	1067086
1.99633	1111085
2.00000	1075620
2.00367	972262
2.00733	824029
2.01100	658955
2.01467	501633
2.01833	367448
2.02200	261956
2.02567	183767
2.02933	128159
2.03300	89682
2.03667	63509
2.04033	45850
2.04400	33941
2.04767	25860
2.05133	20313
2.05500	16446
2.05867	13686
2.06233	11661
2.06600	10136
2.06967	8963
2.07333	8040
2.07700	7300
2.08067	6694
2.08433	6184
2.08800	5744
2.09167	5361
2.09533	5025
2.09900	4726
2.10267	4460
2.10633	4219
2.11000	3999
2.11367	3799
2.11733	3622
2.12100	3464
2.12467	3320
2.12833	3185
2.13200	3059
2.13567	2943
2.13933	2836
2.14300	2735
2.14667	2639
2.15033	2548
2.15400	2463
2.15767	2383
2.16133	2306
2.16500	2235
2.16867	2169
2.17233	2099
2.17600	2030
2.17967	1966
2.18333	1908
2.18700	1851
2.19067	1799
2.19433	1753
2.19800	1714
2.20167	1684
2.20533	1661
2.20900	1631
2.21267	1595
2.21633	1556
2.22000	1518
2.22367	1480
2.22733	1442
2.23100	1405
2.23467	1364
2.23833	1325
2.24200	1293
2.24567	1264
2.24933	1238
2.25300	1214
2.25667	1193
2.26033	1171
2.26400	1151
2.26767	1133
2.27133	1121
2.27500	1108
2.27867	1097
2.28233	1084
2.28600	1067
2.28967	1048
2.29333	1029
2.29700	1009
2.30067	990
2.30433	970
2.30800	951
2.31167	936
2.31533	924
2.31900	915
2.32267	903
2.32633	888
2.33000	872
2.33367	858
2.33733	848
2.34100	836
2.34467	818
2.34833	800
2.35200	789
2.35567	782
2.35933	780
2.36300	779
2.36667	773
2.37033	767
2.37400	759
2.37767	750
2.38133	743
2.38500	736
2.38867	728
2.39233	724
2.39600	714
2.39967	698
2.40333	683
2.40700	675
2.41067	677
2.41433	681
2.41800	688
2.42167	692
2.42533	689
2.42900	681
2.43267	675
2.43633	668
2.44000	665
2.44367	664
2.44733	656
2.45100	643
2.45467	634
2.45833	629
2.46200	624
2.46567	621
2.46933	616
2.47300	612
2.47667	605
2.48033	593
2.48400	579
2.48767	564
2.49133	552
2.49500	544
2.49867	538
2.50233	533
2.50600	529
2.50967	531
2.51333	535
2.51700	536
2.52067	532
2.52433	529
2.52800	526
2.53167	523
2.53533	522
2.53900	523
2.54267	522
2.54633	525
2.55000	525
2.55367	517
2.55733	506
2.56100	495
2.56467	484
2.56833	478
2.57200	481
2.57567	488
2.57933	495
2.58300	504
2.58667	509
2.59033	503
2.59400	492
2.59767	484
2.60133	478
2.60500	474
2.60867	475
2.61233	477
2.61600	479
2.61967	477
2.62333	476
2.62700	478
2.63067	478
2.63433	474
2.63800	468
2.64167	463
2.64533	456
2.64900	447
2.65267	441
2.65633	438
2.66000	439
2.66367	437
2.66733	433
2.67100	436
2.67467	448
2.67833	461
2.68200	467
2.68567	466
2.68933	462
2.69300	460
2.69667	457
2.70033	452
2.70400	448
2.70767	444
2.71133	438
2.71500	436
2.71867	438
2.72233	445
2.72600	448
2.72967	444
2.73333	438
2.73700	434
2.74067	432
2.74433	432
2.74800	434
2.75167	433
2.75533	434
2.75900	435
2.76267	435
2.76633	432
2.77000	427
2.77367	425
2.77733	427
2.78100	429
2.78467	431
2.78833	433
2.79200	430
2.79567	424
2.79933	420
2.80300	419
2.80667	419
2.81033	421
2.81400	416
2.81767	413
2.82133	408
2.82500	403
2.82867	398
2.83233	400
2.83600	407
2.83967	419
2.84333	435
2.84700	449
2.85067	458
2.85433	453
2.85800	437
2.86167	419
2.86533	407
2.86900	404
2.87267	404
2.87633	405
2.88000	406
2.88367	404
2.88733	402
2.89100	405
2.89467	411
2.89833	419
2.90200	424
2.90567	426
2.90933	427
2.91300	425
2.91667	421
2.92033	414
2.92400	409
2.92767	409
2.93133	412
2.93500	418
2.93867	418
2.94233	414
2.94600	407
2.94967	404
2.95333	405
2.95700	406
2.96067	405
2.96433	403
2.96800	404
2.97167	407
2.97533	409
2.97900	411
2.98267	415
2.98633	418
2.99000	423
2.99367	431
2.99733	439
3.00100	441
3.00467	437
3.00833	432
3.01200	429
3.01567	422
3.01933	415
3.02300	408
3.02667	401
3.03033	393
3.03400	388
3.03767	387
3.04133	392
3.04500	400
3.04867	405
3.05233	404
3.05600	399
3.05967	397
3.06333	398
3.06700	395
3.07067	393
3.07433	395
3.07800	398
3.08167	403
3.08533	407
3.08900	416
3.09267	422
3.09633	422
3.10000	417
3.10367	412
3.10733	407
3.11100	398
3.11467	387
3.11833	381
3.12200	379
3.12567	378
3.12933	377
3.13300	375
3.13667	377
3.14033	381
3.14400	385
3.14767	394
3.15133	403
3.15500	408
3.15867	410
3.16233	411
3.16600	407
3.16967	398
3.17333	389
3.17700	382
3.18067	376
3.18433	373
3.18800	375
3.19167	380
3.19533	384
3.19900	384
3.20267	384
3.20633	384
3.21000	383
3.21367	384
3.21733	388
3.22100	387
3.22467	384
3.22833	382
3.23200	382
3.23567	381
3.23933	385
3.24300	394
3.24667	405
3.25033	418
3.25400	426
3.25767	424
3.26133	412
3.26500	398
3.26867	379
3.27233	357
3.27600	343
3.27967	335
3.28333	331
3.28700	331
3.29067	335
3.29433	345
3.29800	356
3.30167	362
3.30533	362
3.30900	360
3.31267	359
3.31633	360
3.32000	359
3.32367	359
3.32733	361
3.33100	368
3.33467	376
3.33833	378
3.34200	377
3.34567	376
3.34933	376
3.35300	378
3.35667	379
3.36033	378
3.36400	377
3.36767	376
3.37133	372
3.37500	362
3.37867	344
3.38233	329
3.38600	318
3.38967	315
3.39333	317
3.39700	321
3.40067	329
3.40433	335
3.40800	340
3.41167	342
3.41533	345
3.41900	350
3.42267	358
3.42633	366
3.43000	369
3.43367	367
3.43733	361
3.44100	353
3.44467	347
3.44833	342
3.45200	339
3.45567	339
3.45933	336
3.46300	333
3.46667	334
3.47033	338
3.47400	340
3.47767	337
3.48133	337
3.48500	342
3.48867	347
3.49233	350
3.49600	353
3.49967	357
3.50333	357
3.50700	353
3.51067	349
3.51433	344
3.51800	339
3.52167	339
3.52533	340
3.52900	341
3.53267	344
3.53633	345
3.54000	346
3.54367	345
3.54733	338
3.55100	332
3.55467	325
3.55833	320
3.56200	319
3.56567	322
3.56933	323
3.57300	321
3.57667	320
3.58033	323
3.58400	325
3.58767	330
3.59133	336
3.59500	336
3.59867	333
3.60233	327
3.60600	319
3.60967	316
3.61333	317
3.61700	324
3.62067	329
3.62433	329
3.62800	328
3.63167	327
3.63533	327
3.63900	331
3.64267	334
3.64633	334
3.65000	332
3.65367	330
3.65733	327
3.66100	324
3.66467	323
3.66833	325
3.67200	323
3.67567	312
3.67933	299
3.68300	296
3.68667	294
3.69033	291
3.69400	293
3.69767	294
3.70133	294
3.70500	295
3.70867	300
3.71233	309
3.71600	317
3.71967	315
3.72333	305
3.72700	294
3.73067	286
3.73433	279
3.73800	276
3.74167	277
3.74533	281
3.74900	283
3.75267	285
3.75633	287
3.76000	289
3.76367	290
3.76733	296
3.77100	299
3.77467	293
3.77833	285
3.78200	278
3.78567	273
3.78933	272
3.79300	274
3.79667	282
3.80033	289
3.80400	296
3.80767	302
3.81133	305
3.81500	303
3.81867	297
3.82233	290
3.82600	286
3.82967	286
3.83333	288
3.83700	289
3.84067	283
3.84433	273
3.84800	266
3.85167	265
3.85533	269
3.85900	275
3.86267	279
3.86633	278
3.87000	275
3.87367	270
3.87733	265
3.88100	260
3.88467	256
3.88833	254
3.89200	254
3.89567	256
3.89933	259
3.90300	263
3.90667	265
3.91033	272
3.91400	280
3.91767	282
3.92133	280
3.92500	278
3.92867	277
3.93233	274
3.93600	266
3.93967	259
3.94333	255
3.94700	254
3.95067	254
3.95433	252
3.95800	249
3.96167	251
3.96533	257
3.96900	264
3.97267	269
3.97633	267
3.98000	262
3.98367	258
3.98733	255
3.99100	251
3.99467	247
3.99833	243

[Chromatogram (Ch2)]
Interval(msec)	220
# of Points	1091
Start Time(min)	0.002
End Time(min)	3.998
R.Time (min)	Intensity
0.00167	1
0.00533	1
0.00900	1
0.01267	1
0.01633	1
0.02000	1
0.02367	1
0.02733	1
0.03100	0
0.03467	-0
0.03833	-1
0.04200	-1
0.04567	-1
0.04933	-2
0.05300	-2
0.05667	-2
0.06033	-2
0.06400	-2
0.06767	-2
0.07133	-2
0.07500	-2
0.07867	-2
0.08233	-2
0.08600	-2
0.08967	-1
0.09333	-1
0.09700	-1
0.10067	-1
0.10433	-0
0.10800	-0
0.11167	0
0.11533	1
0.11900	1
0.12267	1
0.12633	1
0.13000	1
0.13367	1
0.13733	0
0.14100	0
0.14467	0
0.14833	1
0.15200	1
0.15567	1
0.15933	1
0.16300	1
0.16667	1
0.17033	1
0.17400	2
0.17767	2
0.18133	2
0.18500	2
0.18867	2
0.19233	3
0.19600	3
0.19967	3
0.20333	3
0.20700	4
0.21067	4
0.21433	4
0.21800	4
0.22167	3
0.22533	3
0.22900	2
0.23267	2
0.23633	1
0.24000	0
0.24367	-0
0.24733	-1
0.25100	-1
0.25467	-1
0.25833	-1
0.26200	-1
0.26567	-1
0.26933	-1
0.27300	-1
0.27667	-1
0.28033	-1
0.28400	-1
0.28767	-1
0.29133	-1
0.29500	-1
0.29867	-1
0.30233	-1
0.30600	-1
0.30967	-2
0.31333	-2
0.31700	-2
0.32067	-2
0.32433	-2
0.32800	-2
0.33167	-1
0.33533	-1
0.33900	-1
0.34267	-1
0.34633	-1
0.35000	-1
0.35367	-1
0.35733	-0
0.36100	-0
0.36467	-0
0.36833	-0
0.37200	0
0.37567	0
0.37933	1
0.38300	1
0.38667	1
0.39033	1
0.39400	1
0.39767	1
0.40133	1
0.40500	1
0.40867	1
0.41233	0
0.41600	0
0.41967	0
0.42333	0
0.42700	0
0.43067	0
0.43433	-0
0.43800	-0
0.44167	-1
0.44533	-1
0.44900	-1
0.45267	-2
0.45633	-3
0.46000	-3
0.46367	-4
0.46733	-4
0.47100	-5
0.47467	-5
0.47833	-5
0.48200	-4
0.48567	-4
0.48933	-4
0.49300	-3
0.49667	-3
0.50033	-2
0.50400	-2
0.50767	-2
0.51133	-2
0.51500	-2
0.51867	-2
0.52233	-2
0.52600	-2
0.52967	-2
0.53333	-2
0.53700	-1
0.54067	-1
0.54433	-1
0.54800	-0
0.55167	0
0.55533	0
0.55900	1
0.56267	1
0.56633	1
0.57000	1
0.57367	1
0.57733	1
0.58100	1
0.58467	1
0.58833	1
0.59200	1
0.59567	1
0.59933	1
0.60300	1
0.60667	2
0.61033	2
0.61400	2
0.61767	2
0.62133	2
0.62500	2
0.62867	2
0.63233	3
0.63600	3
0.63967	3
0.64333	3
0.64700	4
0.65067	4
0.65433	4
0.65800	4
0.66167	4
0.66533	4
0.66900	4
0.67267	4
0.67633	4
0.68000	4
0.68367	4
0.68733	4
0.69100	4
0.69467	4
0.69833	3
0.70200	3
0.70567	3
0.70933	2
0.71300	2
0.71667	2
0.72033	1
0.72400	1
0.72767	-0
0.73133	-1
0.73500	-1
0.73867	-2
0.74233	-2
0.74600	-2
0.74967	-2
0.75333	-2
0.75700	-1
0.76067	-1
0.76433	-1
0.76800	-0
0.77167	0
0.77533	0
0.77900	0
0.78267	0
0.78633	-0
0.79000	-0
0.79367	-1
0.79733	-1
0.80100	-2
0.80467	-2
0.80833	-2
0.81200	-3
0.81567	-3
0.81933	-3
0.82300	-3
0.82667	-3
0.83033	-3
0.83400	-2
0.83767	-2
0.84133	-2
0.84500	-1
0.84867	-1
0.85233	-1
0.85600	-1
0.85967	-1
0.86333	-0
0.86700	-0
0.87067	0
0.87433	1
0.87800	1
0.88167	1
0.88533	1
0.88900	1
0.89267	2
0.89633	2
0.90000	2
0.90367	2
0.90733	1
0.91100	1
0.91467	1
0.91833	1
0.92200	0
0.92567	-0
0.92933	-0
0.93300	-1
0.93667	-1
0.94033	-1
0.94400	-1
0.94767	-1
0.95133	-1
0.95500	-1
0.95867	-1
0.96233	-1
0.96600	-1
0.96967	-1
0.97333	-1
0.97700	-1
0.98067	-0
0.98433	-0
0.98800	-0
0.99167	0
0.99533	0
0.99900	0
1.00267	0
1.00633	1
1.01000	1
1.01367	1
1.01733	1
1.02100	2
1.02467	2
1.02833	2
1.03200	2
1.03567	2
1.03933	2
1.04300	1
1.04667	1
1.05033	1
1.05400	0
1.05767	-0
1.06133	-1
1.06500	-1
1.06867	-1
1.07233	-2
1.07600	-2
1.07967	-2
1.08333	-2
1.08700	-2
1.09067	-2
1.09433	-2
1.09800	-2
1.10167	-2
1.10533	-2
1.10900	-2
1.11267	-1
1.11633	-1
1.12000	-0
1.12367	0
1.12733	0
1.13100	0
1.13467	0
1.13833	-0
1.14200	-0
1.14567	-1
1.14933	-2
1.15300	-2
1.15667	-3
1.16033	-3
1.16400	-3
1.16767	-3
1.17133	-4
1.17500	-3
1.17867	-3
1.18233	-3
1.18600	-3
1.18967	-2
1.19333	-2
1.19700	-1
1.20067	-1
1.20433	-1
1.20800	-0
1.21167	-0
1.21533	-0
1.21900	0
1.22267	0
1.22633	0
1.23000	-0
1.23367	-0
1.23733	-0
1.24100	-0
1.24467	-0
1.24833	-0
1.25200	-0
1.25567	-0
1.25933	-0
1.26300	-0
1.26667	-0
1.27033	-0
1.27400	0
1.27767	0
1.28133	1
1.28500	1
1.28867	1
1.29233	1
1.29600	1
1.29967	1
1.30333	0
1.30700	-0
1.31067	-1
1.31433	-1
1.31800	-2
1.32167	-2
1.32533	-2
1.32900	-2
1.33267	-2
1.33633	-2
1.34000	-2
1.34367	-2
1.34733	-2
1.35100	-2
1.35467	-2
1.35833	-2
1.36200	-2
1.36567	-2
1.36933	-2
1.37300	-2
1.37667	-2
1.38033	-2
1.38400	-2
1.38767	-2
1.39133	-2
1.39500	-2
1.39867	-2
1.40233	-2
1.40600	-2
1.40967	-3
1.41333	-3
1.41700	-3
1.42067	-3
1.42433	-3
1.42800	-3
1.43167	-3
1.43533	-3
1.43900	-3
1.44267	-3
1.44633	-3
1.45000	-3
1.45367	-4
1.45733	-4
1.46100	-4
1.46467	-3
1.46833	-3
1.47200	-3
1.47567	-3
1.47933	-3
1.48300	-3
1.48667	-3
1.49033	-3
1.49400	-3
1.49767	-3
1.50133	-3
1.50500	-3
1.50867	-3
1.51233	-3
1.51600	-3
1.51967	-3
1.52333	-3
1.52700	-3
1.53067	-3
1.53433	-3
1.53800	-2
1.54167	-2
1.54533	-2
1.54900	-2
1.55267	-2
1.55633	-2
1.56000	-2
1.56367	-2
1.56733	-2
1.57100	-1
1.57467	-0
1.57833	0
1.58200	1
1.58567	1
1.58933	1
1.59300	1
1.59667	1
1.60033	-0
1.60400	-1
1.60767	-3
1.61133	-4
1.61500	-6
1.61867	-8
1.62233	-11
1.62600	-14
1.62967	-17
1.63333	-20
1.63700	-23
1.64067	-27
1.64433	-30
1.64800	-33
1.65167	-37
1.65533	-41
1.65900	-45
1.66267	-50
1.66633	-55
1.67000	-60
1.67367	-65
1.67733	-71
1.68100	-76
1.68467	-81
1.68833	-86
1.69200	-91
1.69567	-94
1.69933	-97
1.70300	-99
1.70667	-101
1.71033	-102
1.71400	-103
1.71767	-104
1.72133	-104
1.72500	-105
1.72867	-105
1.73233	-106
1.73600	-106
1.73967	-107
1.74333	-107
1.74700	-107
1.75067	-107
1.75433	-107
1.75800	-107
1.76167	-108
1.76533	-108
1.76900	-109
1.77267	-110
1.77633	-110
1.78000	-110
1.78367	-110
1.78733	-110
1.79100	-109
1.79467	-109
1.79833	-109
1.80200	-109
1.80567	-109
1.80933	-110
1.81300	-111
1.81667	-112
1.82033	-113
1.82400	-114
1.82767	-115
1.83133	-115
1.83500	-115
1.83867	-115
1.84233	-115
1.84600	-114
1.84967	-114
1.85333	-113
1.85700	-113
1.86067	-113
1.86433	-113
1.86800	-113
1.87167	-113
1.87533	-113
1.87900	-113
1.88267	-113
1.88633	-113
1.89000	-113
1.89367	-112
1.89733	-112
1.90100	-111
1.90467	-111
1.90833	-111
1.91200	-110
1.91567	-109
1.91933	-109
1.92300	-109
1.92667	-109
1.93033	-109
1.93400	-110
1.93767	-111
1.94133	-111
1.94500	-111
1.94867	-111
1.95233	-110
1.95600	-110
1.95967	-109
1.96333	-109
1.96700	-108
1.97067	-108
1.97433	-108
1.97800	-108
1.98167	-107
1.98533	-107
1.98900	-106
1.99267	-106
1.99633	-106
2.00000	-106
2.00367	-106
2.00733	-106
2.01100	-106
2.01467	-105
2.01833	-105
2.02200	-105
2.02567	-105
2.02933	-105
2.03300	-105
2.03667	-105
2.04033	-105
2.04400	-105
2.04767	-104
2.05133	-104
2.05500	-103
2.05867	-103
2.06233	-102
2.06600	-102
2.06967	-101
2.07333	-101
2.07700	-100
2.08067	-100
2.08433	-99
2.08800	-98
2.09167	-98
2.09533	-98
2.09900	-98
2.10267	-98
2.10633	-98
2.11000	-98
2.11367	-98
2.11733	-98
2.12100	-97
2.12467	-97
2.12833	-97
2.13200	-96
2.13567	-96
2.13933	-95
2.14300	-95
2.14667	-94
2.15033	-94
2.15400	-94
2.15767	-93
2.16133	-93
2.16500	-93
2.16867	-93
2.17233	-93
2.17600	-92
2.17967	-92
2.18333	-91
2.18700	-91
2.19067	-90
2.19433	-90
2.19800	-90
2.20167	-89
2.20533	-89
2.20900	-89
2.21267	-88
2.21633	-88
2.22000	-88
2.22367	-88
2.22733	-88
2.23100	-88
2.23467	-88
2.23833	-87
2.24200	-87
2.24567	-86
2.24933	-86
2.25300	-85
2.25667	-85
2.26033	-84
2.26400	-84
2.26767	-83
2.27133	-82
2.27500	-81
2.27867	-81
2.28233	-81
2.28600	-81
2.28967	-81
2.29333	-81
2.29700	-81
2.30067	-81
2.30433	-81
2.30800	-81
2.31167	-81
2.31533	-81
2.31900	-80
2.32267	-80
2.32633	-79
2.33000	-78
2.33367	-78
2.33733	-77
2.34100	-76
2.34467	-76
2.34833	-75
2.35200	-75
2.35567	-74
2.35933	-73
2.36300	-72
2.36667	-70
2.37033	-68
2.37400	-65
2.37767	-62
2.38133	-58
2.38500	-54
2.38867	-50
2.39233	-45
2.39600	-41
2.39967	-37
2.40333	-32
2.40700	-28
2.41067	-25
2.41433	-22
2.41800	-19
2.42167	-16
2.42533	-14
2.42900	-13
2.43267	-11
2.43633	-9
2.44000	-8
2.44367	-7
2.44733	-6
2.45100	-5
2.45467	-5
2.45833	-4
2.46200	-3
2.46567	-2
2.46933	-1
2.47300	-0
2.47667	1
2.48033	2
2.48400	3
2.48767	4
2.49133	5
2.49500	5
2.49867	6
2.50233	7
2.50600	8
2.50967	9
2.51333	10
2.51700	11
2.52067	11
2.52433	12
2.52800	12
2.53167	12
2.53533	12
2.53900	13
2.54267	13
2.54633	14
2.55000	15
2.55367	15
2.55733	15
2.56100	15
2.56467	15
2.56833	15
2.57200	15
2.57567	16
2.57933	16
2.58300	16
2.58667	17
2.59033	17
2.59400	18
2.59767	18
2.60133	18
2.60500	19
2.60867	19
2.61233	19
2.61600	19
2.61967	19
2.62333	19
2.62700	19
2.63067	19
2.63433	19
2.63800	19
2.64167	20
2.64533	20
2.64900	20
2.65267	20
2.65633	21
2.66000	21
2.66367	21
2.66733	22
2.67100	22
2.67467	22
2.67833	22
2.68200	22
2.68567	21
2.68933	22
2.69300	22
2.69667	22
2.70033	23
2.70400	23
2.70767	24
2.71133	24
2.71500	24
2.71867	24
2.72233	24
2.72600	24
2.72967	24
2.73333	24
2.73700	23
2.74067	23
2.74433	23
2.74800	23
2.75167	23
2.75533	24
2.75900	24
2.76267	24
2.76633	24
2.77000	25
2.77367	25
2.77733	25
2.78100	25
2.78467	26
2.78833	26
2.79200	27
2.79567	27
2.79933	28
2.80300	29
2.80667	29
2.81033	30
2.81400	30
2.81767	31
2.82133	31
2.82500	31
2.82867	31
2.83233	31
2.83600	30
2.83967	28
2.84333	25
2.84700	21
2.85067	15
2.85433	6
2.85800	-7
2.86167	-22
2.86533	-42
2.86900	-67
2.87267	-95
2.87633	-129
2.88000	-166
2.88367	-207
2.88733	-252
2.89100	-300
2.89467	-350
2.89833	-403
2.90200	-457
2.90567	-512
2.90933	-567
2.91300	-623
2.91667	-678
2.92033	-732
2.92400	-785
2.92767	-836
2.93133	-888
2.93500	-944
2.93867	-1002
2.94233	-1054
2.94600	-1088
2.94967	-1099
2.95333	-1083
2.95700	-1044
2.96067	-986
2.96433	-915
2.96800	-837
2.97167	-757
2.97533	-676
2.97900	-599
2.98267	-526
2.98633	-459
2.99000	-398
2.99367	-343
2.99733	-295
3.00100	-252
3.00467	-214
3.00833	-181
3.01200	-152
3.01567	-128
3.01933	-107
3.02300	-88
3.02667	-73
3.03033	-59
3.03400	-48
3.03767	-38
3.04133	-30
3.04500	-23
3.04867	-17
3.05233	-12
3.05600	-8
3.05967	-4
3.06333	-1
3.06700	1
3.07067	3
3.07433	5
3.07800	6
3.08167	7
3.08533	8
3.08900	9
3.09267	10
3.09633	10
3.10000	11
3.10367	11
3.10733	12
3.11100	12
3.11467	13
3.11833	13
3.12200	14
3.12567	14
3.12933	15
3.13300	15
3.13667	15
3.14033	16
3.14400	16
3.14767	17
3.15133	18
3.15500	18
3.15867	19
3.16233	19
3.16600	19
3.16967	20
3.17333	20
3.17700	20
3.18067	21
3.18433	21
3.18800	21
3.19167	21
3.19533	22
3.19900	22
3.20267	22
3.20633	23
3.21000	23
3.21367	23
3.21733	23
3.22100	24
3.22467	24
3.22833	24
3.23200	24
3.23567	24
3.23933	24
3.24300	24
3.24667	24
3.25033	24
3.25400	24
3.25767	24
3.26133	24
3.26500	24
3.26867	24
3.27233	24
3.27600	24
3.27967	24
3.28333	24
3.28700	24
3.29067	24
3.29433	24
3.29800	24
3.30167	24
3.30533	24
3.30900	24
3.31267	24
3.31633	24
3.32000	24
3.32367	24
3.32733	24
3.33100	24
3.33467	24
3.33833	24
3.34200	24
3.34567	24
3.34933	24
3.35300	24
3.35667	25
3.36033	25
3.36400	25
3.36767	25
3.37133	25
3.37500	25
3.37867	25
3.38233	25
3.38600	25
3.38967	25
3.39333	26
3.39700	26
3.40067	26
3.40433	25
3.40800	25
3.41167	25
3.41533	25
3.41900	25
3.42267	25
3.42633	25
3.43000	25
3.43367	26
3.43733	26
3.44100	26
3.44467	27
3.44833	27
3.45200	27
3.45567	27
3.45933	27
3.46300	27
3.46667	27
3.47033	27
3.47400	28
3.47767	28
3.48133	28
3.48500	29
3.48867	29
3.49233	29
3.49600	30
3.49967	30
3.50333	30
3.50700	30
3.51067	31
3.51433	31
3.51800	32
3.52167	32
3.52533	32
3.52900	32
3.53267	32
3.53633	32
3.54000	31
3.54367	31
3.54733	30
3.55100	30
3.55467	30
3.55833	30
3.56200	30
3.56567	30
3.56933	30
3.57300	30
3.57667	29
3.58033	29
3.58400	29
3.58767	29
3.59133	29
3.59500	29
3.59867	29
3.60233	29
3.60600	29
3.60967	28
3.61333	28
3.61700	28
3.62067	28
3.62433	28
3.62800	28
3.63167	28
3.63533	28
3.63900	28
3.64267	28
3.64633	28
3.65000	28
3.65367	28
3.65733	28
3.66100	29
3.66467	29
3.66833	29
3.67200	29
3.67567	29
3.67933	29
3.68300	29
3.68667	29
3.69033	28
3.69400	28
3.69767	28
3.70133	28
3.70500	28
3.70867	28
3.71233	28
3.71600	28
3.71967	28
3.72333	28
3.72700	28
3.73067	28
3.73433	28
3.73800	28
3.74167	28
3.74533	29
3.74900	29
3.75267	29
3.75633	29
3.76000	29
3.76367	29
3.76733	29
3.77100	29
3.77467	29
3.77833	29
3.78200	29
3.78567	29
3.78933	28
3.79300	28
3.79667	28
3.80033	28
3.80400	27
3.80767	27
3.81133	27
3.81500	27
3.81867	26
3.82233	26
3.82600	26
3.82967	26
3.83333	26
3.83700	26
3.84067	26
3.84433	26
3.84800	27
3.85167	27
3.85533	27
3.85900	27
3.86267	27
3.86633	28
3.87000	28
3.87367	28
3.87733	28
3.88100	28
3.88467	28
3.88833	28
3.89200	27
3.89567	27
3.89933	27
3.90300	27
3.90667	28
3.91033	28
3.91400	28
3.91767	28
3.92133	28
3.92500	28
3.92867	28
3.93233	28
3.93600	28
3.93967	28
3.94333	28
3.94700	28
3.95067	28
3.95433	28
3.95800	28
3.96167	29
3.96533	29
3.96900	29
3.97267	29
3.97633	29
3.98000	29
3.98367	28
3.98733	28
3.99100	28
3.99467	28
3.99833	28

[Chromatogram (Ch3)]
Interval(msec)	220
# of Points	1091
Start Time(min)	0.002
End Time(min)	3.998
R.Time (min)	Intensity
0.00167	-1
0.00533	-3
0.00900	-3
0.01267	-1
0.01633	1
0.02000	1
0.02367	-1
0.02733	-1
0.03100	-2
0.03467	-2
0.03833	0
0.04200	2
0.04567	3
0.04933	5
0.05300	5
0.05667	2
0.06033	1
0.06400	-0
0.06767	-1
0.07133	-4
0.07500	-1
0.07867	1
0.08233	4
0.08600	4
0.08967	3
0.09333	3
0.09700	4
0.10067	2
0.10433	2
0.10800	2
0.11167	1
0.11533	0
0.11900	-1
0.12267	-1
0.12633	-2
0.13000	-2
0.13367	-2
0.13733	-1
0.14100	0
0.14467	3
0.14833	5
0.15200	6
0.15567	6
0.15933	3
0.16300	-0
0.16667	-0
0.17033	0
0.17400	2
0.17767	6
0.18133	6
0.18500	5
0.18867	4
0.19233	4
0.19600	2
0.19967	-2
0.20333	-3
0.20700	-3
0.21067	-1
0.21433	2
0.21800	4
0.22167	5
0.22533	5
0.22900	7
0.23267	7
0.23633	5
0.24000	2
0.24367	-0
0.24733	-2
0.25100	-1
0.25467	1
0.25833	0
0.26200	0
0.26567	-2
0.26933	-2
0.27300	0
0.27667	2
0.28033	3
0.28400	4
0.28767	5
0.29133	7
0.29500	7
0.29867	6
0.30233	5
0.30600	6
0.30967	7
0.31333	5
0.31700	5
0.32067	4
0.32433	3
0.32800	0
0.33167	-1
0.33533	-1
0.33900	-3
0.34267	-3
0.34633	-3
0.35000	-2
0.35367	-0
0.35733	-1
0.36100	1
0.36467	1
0.36833	1
0.37200	2
0.37567	3
0.37933	2
0.38300	1
0.38667	1
0.39033	1
0.39400	2
0.39767	3
0.40133	3
0.40500	2
0.40867	2
0.41233	2
0.41600	3
0.41967	3
0.42333	2
0.42700	3
0.43067	4
0.43433	5
0.43800	6
0.44167	5
0.44533	4
0.44900	3
0.45267	4
0.45633	6
0.46000	7
0.46367	9
0.46733	8
0.47100	7
0.47467	5
0.47833	4
0.48200	5
0.48567	5
0.48933	4
0.49300	5
0.49667	6
0.50033	5
0.50400	5
0.50767	5
0.51133	6
0.51500	6
0.51867	5
0.52233	6
0.52600	7
0.52967	6
0.53333	7
0.53700	7
0.54067	6
0.54433	6
0.54800	6
0.55167	5
0.55533	6
0.55900	6
0.56267	5
0.56633	5
0.57000	5
0.57367	3
0.57733	3
0.58100	4
0.58467	3
0.58833	3
0.59200	2
0.59567	3
0.59933	4
0.60300	4
0.60667	4
0.61033	4
0.61400	4
0.61767	2
0.62133	2
0.62500	1
0.62867	-0
0.63233	-1
0.63600	-1
0.63967	-3
0.64333	-5
0.64700	-3
0.65067	2
0.65433	4
0.65800	5
0.66167	5
0.66533	4
0.66900	3
0.67267	1
0.67633	-1
0.68000	0
0.68367	2
0.68733	6
0.69100	7
0.69467	7
0.69833	6
0.70200	6
0.70567	7
0.70933	6
0.71300	6
0.71667	8
0.72033	7
0.72400	5
0.72767	3
0.73133	3
0.73500	3
0.73867	2
0.74233	4
0.74600	5
0.74967	3
0.75333	3
0.75700	4
0.76067	6
0.76433	10
0.76800	14
0.77167	14
0.77533	13
0.77900	12
0.78267	8
0.78633	6
0.79000	5
0.79367	6
0.79733	7
0.80100	6
0.80467	3
0.80833	3
0.81200	5
0.81567	8
0.81933	7
0.82300	9
0.82667	10
0.83033	9
0.83400	9
0.83767	9
0.84133	11
0.84500	11
0.84867	8
0.85233	7
0.85600	8
0.85967	7
0.86333	5
0.86700	3
0.87067	1
0.87433	1
0.87800	2
0.88167	5
0.88533	9
0.88900	11
0.89267	10
0.89633	9
0.90000	10
0.90367	11
0.90733	11
0.91100	12
0.91467	12
0.91833	11
0.92200	11
0.92567	11
0.92933	11
0.93300	11
0.93667	11
0.94033	9
0.94400	10
0.94767	9
0.95133	8
0.95500	7
0.95867	7
0.96233	8
0.96600	8
0.96967	9
0.97333	8
0.97700	9
0.98067	10
0.98433	10
0.98800	9
0.99167	9
0.99533	9
0.99900	9
1.00267	7
1.00633	7
1.01000	7
1.01367	6
1.01733	6
1.02100	5
1.02467	4
1.02833	4
1.03200	5
1.03567	5
1.03933	6
1.04300	7
1.04667	6
1.05033	4
1.05400	5
1.05767	8
1.06133	10
1.06500	12
1.06867	14
1.07233	13
1.07600	10
1.07967	10
1.08333	11
1.08700	13
1.09067	14
1.09433	13
1.09800	12
1.10167	11
1.10533	12
1.10900	12
1.11267	11
1.11633	10
1.12000	10
1.12367	11
1.12733	11
1.13100	11
1.13467	10
1.13833	8
1.14200	7
1.14567	7
1.14933	6
1.15300	6
1.15667	5
1.16033	5
1.16400	6
1.16767	7
1.17133	8
1.17500	9
1.17867	11
1.18233	12
1.18600	12
1.18967	10
1.19333	7
1.19700	7
1.20067	7
1.20433	8
1.20800	7
1.21167	6
1.21533	8
1.21900	9
1.22267	8
1.22633	6
1.23000	5
1.23367	6
1.23733	8
1.24100	9
1.24467	9
1.24833	11
1.25200	13
1.25567	14
1.25933	12
1.26300	11
1.26667	12
1.27033	13
1.27400	13
1.27767	13
1.28133	11
1.28500	9
1.28867	8
1.29233	7
1.29600	10
1.29967	10
1.30333	9
1.30700	7
1.31067	8
1.31433	9
1.31800	13
1.32167	15
1.32533	14
1.32900	14
1.33267	13
1.33633	12
1.34000	11
1.34367	11
1.34733	11
1.35100	14
1.35467	16
1.35833	16
1.36200	18
1.36567	15
1.36933	12
1.37300	10
1.37667	8
1.38033	9
1.38400	12
1.38767	15
1.39133	15
1.39500	13
1.39867	12
1.40233	11
1.40600	13
1.40967	14
1.41333	15
1.41700	16
1.42067	16
1.42433	17
1.42800	17
1.43167	16
1.43533	14
1.43900	13
1.44267	13
1.44633	14
1.45000	16
1.45367	16
1.45733	15
1.46100	16
1.46467	18
1.46833	18
1.47200	17
1.47567	15
1.47933	12
1.48300	12
1.48667	11
1.49033	10
1.49400	11
1.49767	12
1.50133	12
1.50500	14
1.50867	16
1.51233	18
1.51600	21
1.51967	21
1.52333	20
1.52700	18
1.53067	15
1.53433	14
1.53800	16
1.54167	18
1.54533	17
1.54900	16
1.55267	15
1.55633	16
1.56000	16
1.56367	14
1.56733	12
1.57100	11
1.57467	12
1.57833	13
1.58200	11
1.58567	10
1.58933	9
1.59300	8
1.59667	9
1.60033	11
1.60400	13
1.60767	15
1.61133	15
1.61500	14
1.61867	15
1.62233	14
1.62600	14
1.62967	12
1.63333	12
1.63700	13
1.64067	13
1.64433	14
1.64800	13
1.65167	14
1.65533	16
1.65900	19
1.66267	19
1.66633	18
1.67000	19
1.67367	19
1.67733	19
1.68100	18
1.68467	19
1.68833	20
1.69200	20
1.69567	20
1.69933	20
1.70300	21
1.70667	21
1.71033	23
1.71400	22
1.71767	22
1.72133	23
1.72500	24
1.72867	26
1.73233	28
1.73600	26
1.73967	24
1.74333	23
1.74700	25
1.75067	26
1.75433	26
1.75800	27
1.76167	28
1.76533	29
1.76900	29
1.77267	29
1.77633	31
1.78000	32
1.78367	32
1.78733	35
1.79100	35
1.79467	32
1.79833	31
1.80200	33
1.80567	34
1.80933	36
1.81300	39
1.81667	38
1.82033	37
1.82400	38
1.82767	37
1.83133	36
1.83500	37
1.83867	38
1.84233	40
1.84600	41
1.84967	40
1.85333	39
1.85700	40
1.86067	42
1.86433	43
1.86800	42
1.87167	42
1.87533	43
1.87900	44
1.88267	43
1.88633	43
1.89000	44
1.89367	45
1.89733	44
1.90100	44
1.90467	44
1.90833	44
1.91200	44
1.91567	44
1.91933	45
1.92300	48
1.92667	49
1.93033	51
1.93400	55
1.93767	54
1.94133	53
1.94500	52
1.94867	50
1.95233	49
1.95600	50
1.95967	50
1.96333	52
1.96700	53
1.97067	54
1.97433	54
1.97800	55
1.98167	58
1.98533	59
1.98900	57
1.99267	57
1.99633	59
2.00000	59
2.00367	60
2.00733	59
2.01100	60
2.01467	61
2.01833	63
2.02200	65
2.02567	67
2.02933	71
2.03300	76
2.03667	76
2.04033	75
2.04400	75
2.04767	76
2.05133	78
2.05500	78
2.05867	77
2.06233	79
2.06600	82
2.06967	84
2.07333	84
2.07700	85
2.08067	85
2.08433	85
2.08800	87
2.09167	88
2.09533	88
2.09900	87
2.10267	87
2.10633	88
2.11000	90
2.11367	93
2.11733	94
2.12100	97
2.12467	100
2.12833	101
2.13200	103
2.13567	102
2.13933	101
2.14300	101
2.14667	102
2.15033	103
2.15400	104
2.15767	107
2.16133	109
2.16500	110
2.16867	111
2.17233	112
2.17600	113
2.17967	115
2.18333	118
2.18700	121
2.19067	122
2.19433	123
2.19800	123
2.20167	125
2.20533	129
2.20900	130
2.21267	129
2.21633	129
2.22000	131
2.22367	132
2.22733	132
2.23100	133
2.23467	134
2.23833	135
2.24200	137
2.24567	140
2.24933	144
2.25300	146
2.25667	145
2.26033	144
2.26400	145
2.26767	147
2.27133	148
2.27500	149
2.27867	152
2.28233	153
2.28600	154
2.28967	158
2.29333	162
2.29700	164
2.30067	166
2.30433	167
2.30800	170
2.31167	173
2.31533	177
2.31900	179
2.32267	181
2.32633	180
2.33000	180
2.33367	183
2.33733	188
2.34100	191
2.34467	192
2.34833	193
2.35200	195
2.35567	195
2.35933	194
2.36300	195
2.36667	197
2.37033	198
2.37400	200
2.37767	202
2.38133	206
2.38500	206
2.38867	206
2.39233	209
2.39600	211
2.39967	214
2.40333	220
2.40700	226
2.41067	232
2.41433	236
2.41800	242
2.42167	243
2.42533	242
2.42900	242
2.43267	243
2.43633	245
2.44000	250
2.44367	304
2.44733	437
2.45100	581
2.45467	696
2.45833	765
2.46200	773
2.46567	744
2.46933	707
2.47300	676
2.47667	659
2.48033	646
2.48400	627
2.48767	596
2.49133	559
2.49500	520
2.49867	485
2.50233	457
2.50600	438
2.50967	430
2.51333	429
2.51700	433
2.52067	446
2.52433	463
2.52800	482
2.53167	499
2.53533	508
2.53900	507
2.54267	495
2.54633	474
2.55000	450
2.55367	425
2.55733	403
2.56100	382
2.56467	363
2.56833	349
2.57200	339
2.57567	333
2.57933	331
2.58300	330
2.58667	328
2.59033	327
2.59400	325
2.59767	321
2.60133	315
2.60500	307
2.60867	293
2.61233	277
2.61600	256
2.61967	238
2.62333	224
2.62700	215
2.63067	210
2.63433	205
2.63800	205
2.64167	207
2.64533	209
2.64900	213
2.65267	219
2.65633	225
2.66000	228
2.66367	229
2.66733	227
2.67100	224
2.67467	219
2.67833	212
2.68200	206
2.68567	201
2.68933	197
2.69300	193
2.69667	187
2.70033	181
2.70400	176
2.70767	175
2.71133	175
2.71500	175
2.71867	173
2.72233	171
2.72600	171
2.72967	172
2.73333	174
2.73700	175
2.74067	175
2.74433	174
2.74800	175
2.75167	177
2.75533	179
2.75900	180
2.76267	180
2.76633	180
2.77000	181
2.77367	183
2.77733	184
2.78100	185
2.78467	187
2.78833	189
2.79200	192
2.79567	191
2.79933	191
2.80300	190
2.80667	190
2.81033	188
2.81400	187
2.81767	191
2.82133	202
2.82500	226
2.82867	276
2.83233	368
2.83600	522
2.83967	762
2.84333	1104
2.84700	1551
2.85067	2089
2.85433	2684
2.85800	3292
2.86167	3866
2.86533	4360
2.86900	4733
2.87267	4966
2.87633	5053
2.88000	4998
2.88367	4828
2.88733	4574
2.89100	4262
2.89467	3917
2.89833	3564
2.90200	3217
2.90567	2884
2.90933	2573
2.91300	2289
2.91667	2033
2.92033	1803
2.92400	1600
2.92767	1423
2.93133	1267
2.93500	1129
2.93867	1008
2.94233	904
2.94600	814
2.94967	736
2.95333	667
2.95700	605
2.96067	551
2.96433	505
2.96800	464
2.97167	431
2.97533	401
2.97900	375
2.98267	351
2.98633	331
2.99000	313
2.99367	296
2.99733	281
3.00100	267
3.00467	255
3.00833	243
3.01200	234
3.01567	229
3.01933	223
3.02300	217
3.02667	212
3.03033	205
3.03400	201
3.03767	198
3.04133	193
3.04500	189
3.04867	186
3.05233	184
3.05600	181
3.05967	178
3.06333	174
3.06700	171
3.07067	170
3.07433	169
3.07800	168
3.08167	168
3.08533	167
3.08900	167
3.09267	166
3.09633	162
3.10000	159
3.10367	159
3.10733	159
3.11100	158
3.11467	160
3.11833	161
3.12200	161
3.12567	161
3.12933	160
3.13300	159
3.13667	156
3.14033	155
3.14400	154
3.14767	150
3.15133	148
3.15500	149
3.15867	150
3.16233	150
3.16600	145
3.16967	126
3.17333	100
3.17700	89
3.18067	99
3.18433	124
3.18800	158
3.19167	195
3.19533	236
3.19900	276
3.20267	315
3.20633	351
3.21000	383
3.21367	412
3.21733	437
3.22100	461
3.22467	483
3.22833	500
3.23200	514
3.23567	526
3.23933	536
3.24300	545
3.24667	552
3.25033	560
3.25400	567
3.25767	575
3.26133	582
3.26500	588
3.26867	595
3.27233	600
3.27600	604
3.27967	608
3.28333	613
3.28700	619
3.29067	624
3.29433	626
3.29800	630
3.30167	634
3.30533	639
3.30900	643
3.31267	648
3.31633	653
3.32000	659
3.32367	665
3.32733	671
3.33100	675
3.33467	680
3.33833	682
3.34200	685
3.34567	689
3.34933	691
3.35300	696
3.35667	700
3.36033	703
3.36400	707
3.36767	710
3.37133	714
3.37500	718
3.37867	721
3.38233	721
3.38600	720
3.38967	720
3.39333	720
3.39700	719
3.40067	720
3.40433	724
3.40800	725
3.41167	725
3.41533	725
3.41900	726
3.42267	724
3.42633	722
3.43000	720
3.43367	720
3.43733	722
3.44100	721
3.44467	720
3.44833	717
3.45200	714
3.45567	710
3.45933	705
3.46300	702
3.46667	698
3.47033	695
3.47400	694
3.47767	694
3.48133	691
3.48500	688
3.48867	686
3.49233	684
3.49600	679
3.49967	675
3.50333	673
3.50700	672
3.51067	670
3.51433	666
3.51800	662
3.52167	659
3.52533	658
3.52900	659
3.53267	660
3.53633	658
3.54000	653
3.54367	652
3.54733	652
3.55100	652
3.55467	650
3.55833	648
3.56200	645
3.56567	644
3.56933	644
3.57300	644
3.57667	641
3.58033	640
3.58400	641
3.58767	642
3.59133	641
3.59500	641
3.59867	640
3.60233	641
3.60600	640
3.60967	639
3.61333	639
3.61700	640
3.62067	639
3.62433	637
3.62800	637
3.63167	637
3.63533	637
3.63900	638
3.64267	636
3.64633	635
3.65000	634
3.65367	634
3.65733	635
3.66100	634
3.66467	633
3.66833	632
3.67200	631
3.67567	630
3.67933	632
3.68300	632
3.68667	631
3.69033	630
3.69400	630
3.69767	631
3.70133	633
3.70500	633
3.70867	631
3.71233	629
3.71600	630
3.71967	631
3.72333	629
3.72700	627
3.73067	625
3.73433	624
3.73800	625
3.74167	630
3.74533	634
3.74900	632
3.75267	630
3.75633	629
3.76000	628
3.76367	626
3.76733	625
3.77100	625
3.77467	625
3.77833	625
3.78200	624
3.78567	623
3.78933	624
3.79300	627
3.79667	626
3.80033	625
3.80400	623
3.80767	621
3.81133	621
3.81500	620
3.81867	619
3.82233	619
3.82600	618
3.82967	617
3.83333	616
3.83700	616
3.84067	618
3.84433	617
3.84800	614
3.85167	613
3.85533	612
3.85900	613
3.86267	613
3.86633	611
3.87000	611
3.87367	609
3.87733	606
3.88100	605
3.88467	607
3.88833	608
3.89200	608
3.89567	605
3.89933	600
3.90300	597
3.90667	595
3.91033	591
3.91400	588
3.91767	588
3.92133	590
3.92500	592
3.92867	590
3.93233	587
3.93600	586
3.93967	585
3.94333	584
3.94700	583
3.95067	581
3.95433	579
3.95800	577
3.96167	573
3.96533	571
3.96900	570
3.97267	570
3.97633	569
3.98000	568
3.98367	568
3.98733	566
3.99100	563
3.99467	560
3.99833	554

[Status Trace (Column Oven Temperature)]
Interval(msec)	1000
# of Points	240
Start Time(min)	0.009
End Time(min)	3.992
Intensity Units	
Intensity Multiplier	1
R.Time (min)	Intensity
0.00902	35.01
0.02568	35.00
0.04235	35.01
0.05902	35.02
0.07568	35.03
0.09235	35.04
0.10902	35.03
0.12568	35.03
0.14235	35.04
0.15902	35.03
0.17568	35.01
0.19235	35.00
0.20902	34.98
0.22568	34.99
0.24235	35.00
0.25902	35.00
0.27568	35.01
0.29235	35.00
0.30902	35.01
0.32568	35.02
0.34235	35.02
0.35902	35.01
0.37568	35.00
0.39235	34.99
0.40902	34.99
0.42568	34.99
0.44235	35.00
0.45902	35.02
0.47568	35.04
0.49235	35.03
0.50902	35.04
0.52568	35.04
0.54235	35.03
0.55902	35.02
0.57568	35.01
0.59235	35.00
0.60902	35.00
0.62568	34.99
0.64235	34.97
0.65902	34.96
0.67568	34.95
0.69235	34.95
0.70902	34.96
0.72568	34.97
0.74235	34.98
0.75902	34.97
0.77568	34.97
0.79235	34.98
0.80902	35.00
0.82568	35.00
0.84235	35.01
0.85902	34.99
0.87568	34.97
0.89235	34.97
0.90902	34.97
0.92568	34.98
0.94235	34.98
0.95902	34.99
0.97568	34.99
0.99235	34.98
1.00902	34.97
1.02568	34.96
1.04235	34.96
1.05902	34.96
1.07568	34.97
1.09235	34.98
1.10902	34.98
1.12568	34.98
1.14235	34.99
1.15902	35.00
1.17568	35.00
1.19235	35.01
1.20902	35.00
1.22568	35.00
1.24235	34.99
1.25902	34.98
1.27568	34.98
1.29235	34.97
1.30902	34.99
1.32568	34.99
1.34235	34.99
1.35902	35.00
1.37568	34.99
1.39235	35.00
1.40902	35.00
1.42568	35.01
1.44235	35.03
1.45902	35.03
1.47568	35.03
1.49235	35.04
1.50902	35.05
1.52568	35.04
1.54235	35.05
1.55902	35.04
1.57568	35.03
1.59235	35.03
1.60902	35.07
1.62568	35.18
1.64235	35.36
1.65902	35.62
1.67568	35.99
1.69235	36.36
1.70902	36.71
1.72568	37.04
1.74235	37.38
1.75902	37.71
1.77568	38.04
1.79235	38.35
1.80902	38.68
1.82568	39.03
1.84235	39.36
1.85902	39.70
1.87568	40.03
1.89235	40.36
1.90902	40.68
1.92568	41.01
1.94235	41.33
1.95902	41.65
1.97568	41.97
1.99235	42.30
2.00902	42.63
2.02568	42.96
2.04235	43.30
2.05902	43.62
2.07568	43.94
2.09235	44.27
2.10902	44.60
2.12568	44.93
2.14235	45.25
2.15902	45.57
2.17568	45.90
2.19235	46.23
2.20902	46.55
2.22568	46.89
2.24235	47.21
2.25902	47.54
2.27568	47.85
2.29235	48.18
2.30902	48.52
2.32568	48.84
2.34235	49.17
2.35902	49.45
2.37568	49.61
2.39235	49.66
2.40902	49.66
2.42568	49.66
2.44235	49.67
2.45902	49.68
2.47568	49.69
2.49235	49.71
2.50902	49.71
2.52568	49.73
2.54235	49.74
2.55902	49.76
2.57568	49.78
2.59235	49.79
2.60902	49.80
2.62568	49.81
2.64235	49.82
2.65902	49.82
2.67568	49.83
2.69235	49.84
2.70902	49.84
2.72568	49.85
2.74235	49.87
2.75902	49.88
2.77568	49.88
2.79235	49.87
2.80902	49.85
2.82568	49.85
2.84235	49.88
2.85902	49.92
2.87568	49.94
2.89235	49.96
2.90902	49.97
2.92568	49.97
2.94235	49.98
2.95902	49.97
2.97568	49.97
2.99235	49.95
3.00902	49.94
3.02568	49.94
3.04235	49.94
3.05902	49.94
3.07568	49.96
3.09235	49.98
3.10902	50.00
3.12568	50.01
3.14235	50.02
3.15902	50.01
3.17568	50.02
3.19235	50.02
3.20902	50.02
3.22568	50.01
3.24235	50.02
3.25902	50.02
3.27568	50.03
3.29235	50.04
3.30902	50.05
3.32568	50.07
3.34235	50.07
3.35902	50.08
3.37568	50.10
3.39235	50.10
3.40902	50.11
3.42568	50.11
3.44235	50.10
3.45902	50.10
3.47568	50.08
3.49235	50.07
3.50902	50.05
3.52568	50.03
3.54235	50.03
3.55902	50.03
3.57568	50.03
3.59235	50.03
3.60902	50.04
3.62568	50.05
3.64235	50.05
3.65902	50.05
3.67568	50.04
3.69235	50.04
3.70902	50.04
3.72568	50.04
3.74235	50.03
3.75902	50.03
3.77568	50.03
3.79235	50.04
3.80902	50.04
3.82568	50.05
3.84235	50.05
3.85902	50.05
3.87568	50.05
3.89235	50.05
3.90902	50.05
3.92568	50.05
3.94235	50.05
3.95902	50.04
3.97568	50.03
3.99235	50.04

[Status Trace (Injection Unit Temperature)]
Interval(msec)	1000
# of Points	240
Start Time(min)	0.009
End Time(min)	3.992
Intensity Units	
Intensity Multiplier	1
R.Time (min)	Intensity
0.00902	99.98
0.02568	99.98
0.04235	99.98
0.05902	99.98
0.07568	99.98
0.09235	99.98
0.10902	99.98
0.12568	99.98
0.14235	99.98
0.15902	99.98
0.17568	99.98
0.19235	99.99
0.20902	99.98
0.22568	99.98
0.24235	99.98
0.25902	99.98
0.27568	99.98
0.29235	99.98
0.30902	99.98
0.32568	99.98
0.34235	99.98
0.35902	99.98
0.37568	99.98
0.39235	99.98
0.40902	99.98
0.42568	99.98
0.44235	99.98
0.45902	99.98
0.47568	99.98
0.49235	99.98
0.50902	99.98
0.52568	99.98
0.54235	99.98
0.55902	99.98
0.57568	99.98
0.59235	99.98
0.60902	99.99
0.62568	99.98
0.64235	99.98
0.65902	99.98
0.67568	99.98
0.69235	99.98
0.70902	99.98
0.72568	99.98
0.74235	99.99
0.75902	99.98
0.77568	99.98
0.79235	99.98
0.80902	99.98
0.82568	99.98
0.84235	99.98
0.85902	99.98
0.87568	99.98
0.89235	99.98
0.90902	99.98
0.92568	99.98
0.94235	99.98
0.95902	99.98
0.97568	99.98
0.99235	99.98
1.00902	99.98
1.02568	99.99
1.04235	99.98
1.05902	99.98
1.07568	99.98
1.09235	99.98
1.10902	99.98
1.12568	99.98
1.14235	99.98
1.15902	99.98
1.17568	99.98
1.19235	99.98
1.20902	99.98
1.22568	99.98
1.24235	99.98
1.25902	99.98
1.27568	99.98
1.29235	99.98
1.30902	99.98
1.32568	99.98
1.34235	99.98
1.35902	99.98
1.37568	99.98
1.39235	99.98
1.40902	99.98
1.42568	99.97
1.44235	99.98
1.45902	99.98
1.47568	99.98
1.49235	99.98
1.50902	99.98
1.52568	99.98
1.54235	99.98
1.55902	99.98
1.57568	99.98
1.59235	99.98
1.60902	99.97
1.62568	99.98
1.64235	99.98
1.65902	99.98
1.67568	99.98
1.69235	99.98
1.70902	99.98
1.72568	99.98
1.74235	99.98
1.75902	99.98
1.77568	99.98
1.79235	99.97
1.80902	99.98
1.82568	99.98
1.84235	99.97
1.85902	99.98
1.87568	99.98
1.89235	99.97
1.90902	99.98
1.92568	99.97
1.94235	99.97
1.95902	99.97
1.97568	99.97
1.99235	99.97
2.00902	99.97
2.02568	99.97
2.04235	99.97
2.05902	99.97
2.07568	99.97
2.09235	99.97
2.10902	99.96
2.12568	99.97
2.14235	99.97
2.15902	99.97
2.17568	99.96
2.19235	99.97
2.20902	99.97
2.22568	99.97
2.24235	99.97
2.25902	99.96
2.27568	99.97
2.29235	99.97
2.30902	99.97
2.32568	99.97
2.34235	99.97
2.35902	99.97
2.37568	99.97
2.39235	99.97
2.40902	99.97
2.42568	99.97
2.44235	99.97
2.45902	99.97
2.47568	99.98
2.49235	99.98
2.50902	99.98
2.52568	99.98
2.54235	99.98
2.55902	99.98
2.57568	99.98
2.59235	99.99
2.60902	99.98
2.62568	99.98
2.64235	99.99
2.65902	99.99
2.67568	99.99
2.69235	99.99
2.70902	99.99
2.72568	99.99
2.74235	100.00
2.75902	100.00
2.77568	100.00
2.79235	100.00
2.80902	99.99
2.82568	100.00
2.84235	100.00
2.85902	100.00
2.87568	100.00
2.89235	100.00
2.90902	100.00
2.92568	100.00
2.94235	100.01
2.95902	100.01
2.97568	100.01
2.99235	100.01
3.00902	100.01
3.02568	100.01
3.04235	100.01
3.05902	100.01
3.07568	100.01
3.09235	100.01
3.10902	100.01
3.12568	100.01
3.14235	100.01
3.15902	100.01
3.17568	100.01
3.19235	100.02
3.20902	100.01
3.22568	100.02
3.24235	100.01
3.25902	100.02
3.27568	100.02
3.29235	100.02
3.30902	100.02
3.32568	100.02
3.34235	100.02
3.35902	100.02
3.37568	100.03
3.39235	100.03
3.40902	100.02
3.42568	100.03
3.44235	100.03
3.45902	100.03
3.47568	100.03
3.49235	100.03
3.50902	100.03
3.52568	100.03
3.54235	100.03
3.55902	100.04
3.57568	100.03
3.59235	100.03
3.60902	100.04
3.62568	100.03
3.64235	100.03
3.65902	100.04
3.67568	100.04
3.69235	100.03
3.70902	100.04
3.72568	100.04
3.74235	100.04
3.75902	100.04
3.77568	100.04
3.79235	100.04
3.80902	100.04
3.82568	100.04
3.84235	100.05
3.85902	100.05
3.87568	100.04
3.89235	100.04
3.90902	100.04
3.92568	100.05
3.94235	100.04
3.95902	100.05
3.97568	100.05
3.99235	100.05

[Status Trace (Carrier Gas Pressure)]
Interval(msec)	1000
# of Points	240
Start Time(min)	0.009
End Time(min)	3.992
Intensity Units	
Intensity Multiplier	1
R.Time (min)	Intensity
0.00902	58.00
0.02568	55.29
0.04235	57.25
0.05902	59.41
0.07568	59.37
0.09235	58.04
0.10902	57.98
0.12568	58.01
0.14235	58.01
0.15902	58.00
0.17568	58.00
0.19235	58.00
0.20902	58.00
0.22568	58.00
0.24235	58.00
0.25902	58.00
0.27568	58.00
0.29235	58.00
0.30902	58.00
0.32568	58.00
0.34235	58.00
0.35902	58.00
0.37568	58.00
0.39235	58.00
0.40902	58.00
0.42568	58.00
0.44235	58.00
0.45902	58.00
0.47568	58.00
0.49235	58.00
0.50902	58.00
0.52568	58.00
0.54235	58.00
0.55902	58.00
0.57568	58.00
0.59235	58.00
0.60902	58.00
0.62568	58.00
0.64235	58.00
0.65902	58.00
0.67568	58.00
0.69235	58.00
0.70902	58.00
0.72568	58.00
0.74235	58.00
0.75902	58.00
0.77568	58.00
0.79235	58.00
0.80902	58.00
0.82568	58.00
0.84235	58.00
0.85902	58.00
0.87568	58.00
0.89235	58.00
0.90902	58.00
0.92568	58.00
0.94235	58.00
0.95902	58.00
0.97568	58.00
0.99235	58.00
1.00902	58.00
1.02568	58.00
1.04235	58.00
1.05902	58.00
1.07568	58.00
1.09235	58.00
1.10902	58.00
1.12568	58.00
1.14235	58.00
1.15902	58.00
1.17568	58.00
1.19235	58.00
1.20902	58.00
1.22568	58.00
1.24235	58.00
1.25902	58.00
1.27568	58.00
1.29235	58.00
1.30902	58.00
1.32568	58.00
1.34235	58.00
1.35902	58.00
1.37568	58.00
1.39235	58.00
1.40902	58.00
1.42568	58.00
1.44235	58.00
1.45902	58.00
1.47568	58.00
1.49235	58.00
1.50902	58.00
1.52568	58.00
1.54235	58.00
1.55902	58.00
1.57568	58.00
1.59235	58.00
1.60902	58.00
1.62568	58.00
1.64235	58.00
1.65902	58.01
1.67568	58.01
1.69235	58.00
1.70902	58.00
1.72568	58.00
1.74235	58.00
1.75902	58.00
1.77568	58.00
1.79235	58.00
1.80902	58.00
1.82568	58.00
1.84235	58.00
1.85902	58.00
1.87568	58.00
1.89235	58.00
1.90902	58.00
1.92568	58.00
1.94235	58.00
1.95902	58.00
1.97568	58.00
1.99235	58.00
2.00902	58.00
2.02568	58.00
2.04235	58.00
2.05902	58.00
2.07568	58.00
2.09235	58.00
2.10902	58.00
2.12568	58.00
2.14235	58.00
2.15902	58.00
2.17568	58.00
2.19235	58.00
2.20902	58.00
2.22568	58.00
2.24235	58.00
2.25902	58.00
2.27568	58.00
2.29235	58.00
2.30902	58.00
2.32568	58.00
2.34235	58.00
2.35902	58.00
2.37568	57.99
2.39235	57.99
2.40902	58.00
2.42568	58.00
2.44235	58.00
2.45902	58.00
2.47568	58.00
2.49235	58.00
2.50902	58.00
2.52568	57.99
2.54235	58.00
2.55902	58.00
2.57568	58.00
2.59235	58.00
2.60902	58.00
2.62568	58.00
2.64235	58.00
2.65902	58.00
2.67568	58.00
2.69235	58.00
2.70902	58.00
2.72568	58.00
2.74235	58.00
2.75902	58.00
2.77568	58.00
2.79235	58.00
2.80902	58.00
2.82568	58.00
2.84235	58.00
2.85902	58.00
2.87568	58.00
2.89235	58.00
2.90902	58.00
2.92568	58.00
2.94235	58.00
2.95902	58.00
2.97568	58.00
2.99235	58.00
3.00902	58.00
3.02568	58.00
3.04235	58.00
3.05902	58.00
3.07568	58.00
3.09235	58.00
3.10902	58.00
3.12568	58.00
3.14235	58.00
3.15902	58.00
3.17568	58.00
3.19235	58.00
3.20902	58.00
3.22568	58.00
3.24235	58.00
3.25902	58.00
3.27568	58.00
3.29235	58.00
3.30902	58.00
3.32568	58.00
3.34235	58.00
3.35902	58.00
3.37568	58.00
3.39235	58.00
3.40902	58.00
3.42568	58.00
3.44235	58.00
3.45902	58.00
3.47568	58.00
3.49235	58.00
3.50902	58.00
3.52568	58.00
3.54235	58.00
3.55902	58.00
3.57568	58.00
3.59235	58.00
3.60902	58.00
3.62568	58.00
3.64235	58.00
3.65902	58.00
3.67568	58.00
3.69235	58.00
3.70902	58.00
3.72568	58.00
3.74235	58.00
3.75902	58.00
3.77568	58.00
3.79235	58.00
3.80902	58.00
3.82568	58.00
3.84235	58.00
3.85902	58.00
3.87568	58.00
3.89235	58.00
3.90902	58.00
3.92568	58.00
3.94235	58.00
3.95902	58.00
3.97568	58.00
3.99235	58.00

[Status Trace (Carrier Gas Flow)]
Interval(msec)	1000
# of Points	240
Start Time(min)	0.009
End Time(min)	3.992
Intensity Units	
Intensity Multiplier	1
R.Time (min)	Intensity
0.00902	34.52
0.02568	34.53
0.04235	34.54
0.05902	34.55
0.07568	34.50
0.09235	34.52
0.10902	34.52
0.12568	34.52
0.14235	34.52
0.15902	34.52
0.17568	34.52
0.19235	34.52
0.20902	34.52
0.22568	34.52
0.24235	34.52
0.25902	34.52
0.27568	34.52
0.29235	34.52
0.30902	34.52
0.32568	34.52
0.34235	34.52
0.35902	34.51
0.37568	34.52
0.39235	34.52
0.40902	34.52
0.42568	34.51
0.44235	34.52
0.45902	34.52
0.47568	34.52
0.49235	34.52
0.50902	34.52
0.52568	34.52
0.54235	34.52
0.55902	34.52
0.57568	34.52
0.59235	34.51
0.60902	34.53
0.62568	34.51
0.64235	34.52
0.65902	34.52
0.67568	34.51
0.69235	34.52
0.70902	34.51
0.72568	34.52
0.74235	34.52
0.75902	34.52
0.77568	34.52
0.79235	34.52
0.80902	34.52
0.82568	34.52
0.84235	34.52
0.85902	34.51
0.87568	34.52
0.89235	34.52
0.90902	34.52
0.92568	34.51
0.94235	34.52
0.95902	34.52
0.97568	34.52
0.99235	34.52
1.00902	34.52
1.02568	34.52
1.04235	34.52
1.05902	34.51
1.07568	34.51
1.09235	34.52
1.10902	34.52
1.12568	34.52
1.14235	34.52
1.15902	34.52
1.17568	34.51
1.19235	34.52
1.20902	34.52
1.22568	34.52
1.24235	34.52
1.25902	34.52
1.27568	34.52
1.29235	34.52
1.30902	34.52
1.32568	34.52
1.34235	34.51
1.35902	34.51
1.37568	34.52
1.39235	34.52
1.40902	34.51
1.42568	34.52
1.44235	34.52
1.45902	34.52
1.47568	34.52
1.49235	34.51
1.50902	34.52
1.52568	34.52
1.54235	34.52
1.55902	34.52
1.57568	34.51
1.59235	34.51
1.60902	34.52
1.62568	34.52
1.64235	34.52
1.65902	34.52
1.67568	34.52
1.69235	34.52
1.70902	34.52
1.72568	34.52
1.74235	34.52
1.75902	34.51
1.77568	34.52
1.79235	34.52
1.80902	34.52
1.82568	34.51
1.84235	34.52
1.85902	34.52
1.87568	34.52
1.89235	34.52
1.90902	34.52
1.92568	34.52
1.94235	34.51
1.95902	34.52
1.97568	34.52
1.99235	34.52
2.00902	34.52
2.02568	34.52
2.04235	34.52
2.05902	34.52
2.07568	34.52
2.09235	34.52
2.10902	34.51
2.12568	34.52
2.14235	34.52
2.15902	34.52
2.17568	34.52
2.19235	34.52
2.20902	34.51
2.22568	34.52
2.24235	34.51
2.25902	34.52
2.27568	34.52
2.29235	34.52
2.30902	34.51
2.32568	34.52
2.34235	34.52
2.35902	34.52
2.37568	34.52
2.39235	34.51
2.40902	34.53
2.42568	34.52
2.44235	34.52
2.45902	34.52
2.47568	34.52
2.49235	34.51
2.50902	34.50
2.52568	34.52
2.54235	34.52
2.55902	34.52
2.57568	34.52
2.59235	34.52
2.60902	34.52
2.62568	34.52
2.64235	34.51
2.65902	34.52
2.67568	34.52
2.69235	34.52
2.70902	34.52
2.72568	34.52
2.74235	34.52
2.75902	34.52
2.77568	34.52
2.79235	34.51
2.80902	34.51
2.82568	34.52
2.84235	34.52
2.85902	34.51
2.87568	34.52
2.89235	34.52
2.90902	34.52
2.92568	34.52
2.94235	34.52
2.95902	34.52
2.97568	34.52
2.99235	34.51
3.00902	34.52
3.02568	34.52
3.04235	34.52
3.05902	34.52
3.07568	34.52
3.09235	34.52
3.10902	34.52
3.12568	34.51
3.14235	34.52
3.15902	34.52
3.17568	34.52
3.19235	34.51
3.20902	34.52
3.22568	34.52
3.24235	34.52
3.25902	34.52
3.27568	34.52
3.29235	34.51
3.30902	34.52
3.32568	34.52
3.34235	34.52
3.35902	34.52
3.37568	34.52
3.39235	34.53
3.40902	34.52
3.42568	34.52
3.44235	34.51
3.45902	34.52
3.47568	34.52
3.49235	34.52
3.50902	34.52
3.52568	34.52
3.54235	34.51
3.55902	34.52
3.57568	34.52
3.59235	34.52
3.60902	34.52
3.62568	34.52
3.64235	34.52
3.65902	34.52
3.67568	34.52
3.69235	34.52
3.70902	34.52
3.72568	34.52
3.74235	34.52
3.75902	34.52
3.77568	34.52
3.79235	34.52
3.80902	34.51
3.82568	34.52
3.84235	34.52
3.85902	34.52
3.87568	34.52
3.89235	34.52
3.90902	34.52
3.92568	34.52
3.94235	34.51
3.95902	34.52
3.97568	34.52
3.99235	34.52

[Status Trace (Column Flow)]
Interval(msec)	1000
# of Points	240
Start Time(min)	0.009
End Time(min)	3.992
Intensity Units	
Intensity Multiplier	1
R.Time (min)	Intensity
0.00902	5.52
0.02568	5.20
0.04235	5.43
0.05902	5.68
0.07568	5.68
0.09235	5.52
0.10902	5.51
0.12568	5.52
0.14235	5.52
0.15902	5.52
0.17568	5.52
0.19235	5.52
0.20902	5.52
0.22568	5.52
0.24235	5.52
0.25902	5.52
0.27568	5.52
0.29235	5.52
0.30902	5.52
0.32568	5.52
0.34235	5.52
0.35902	5.52
0.37568	5.52
0.39235	5.52
0.40902	5.52
0.42568	5.52
0.44235	5.52
0.45902	5.52
0.47568	5.51
0.49235	5.51
0.50902	5.51
0.52568	5.51
0.54235	5.51
0.55902	5.51
0.57568	5.52
0.59235	5.52
0.60902	5.52
0.62568	5.52
0.64235	5.52
0.65902	5.52
0.67568	5.52
0.69235	5.52
0.70902	5.52
0.72568	5.52
0.74235	5.52
0.75902	5.52
0.77568	5.52
0.79235	5.52
0.80902	5.52
0.82568	5.52
0.84235	5.52
0.85902	5.52
0.87568	5.52
0.89235	5.52
0.90902	5.52
0.92568	5.52
0.94235	5.52
0.95902	5.52
0.97568	5.52
0.99235	5.52
1.00902	5.52
1.02568	5.52
1.04235	5.52
1.05902	5.52
1.07568	5.52
1.09235	5.52
1.10902	5.52
1.12568	5.52
1.14235	5.52
1.15902	5.52
1.17568	5.52
1.19235	5.52
1.20902	5.52
1.22568	5.52
1.24235	5.52
1.25902	5.52
1.27568	5.52
1.29235	5.52
1.30902	5.52
1.32568	5.52
1.34235	5.52
1.35902	5.52
1.37568	5.52
1.39235	5.52
1.40902	5.52
1.42568	5.52
1.44235	5.51
1.45902	5.51
1.47568	5.51
1.49235	5.51
1.50902	5.51
1.52568	5.51
1.54235	5.51
1.55902	5.51
1.57568	5.51
1.59235	5.51
1.60902	5.51
1.62568	5.51
1.64235	5.51
1.65902	5.50
1.67568	5.49
1.69235	5.47
1.70902	5.46
1.72568	5.45
1.74235	5.44
1.75902	5.43
1.77568	5.42
1.79235	5.41
1.80902	5.40
1.82568	5.39
1.84235	5.38
1.85902	5.37
1.87568	5.36
1.89235	5.35
1.90902	5.34
1.92568	5.33
1.94235	5.32
1.95902	5.31
1.97568	5.30
1.99235	5.29
2.00902	5.28
2.02568	5.27
2.04235	5.26
2.05902	5.25
2.07568	5.25
2.09235	5.24
2.10902	5.23
2.12568	5.22
2.14235	5.21
2.15902	5.20
2.17568	5.19
2.19235	5.18
2.20902	5.17
2.22568	5.16
2.24235	5.15
2.25902	5.14
2.27568	5.13
2.29235	5.12
2.30902	5.11
2.32568	5.11
2.34235	5.10
2.35902	5.09
2.37568	5.08
2.39235	5.08
2.40902	5.08
2.42568	5.08
2.44235	5.08
2.45902	5.08
2.47568	5.08
2.49235	5.08
2.50902	5.08
2.52568	5.08
2.54235	5.08
2.55902	5.08
2.57568	5.08
2.59235	5.08
2.60902	5.08
2.62568	5.08
2.64235	5.08
2.65902	5.08
2.67568	5.08
2.69235	5.08
2.70902	5.08
2.72568	5.08
2.74235	5.08
2.75902	5.08
2.77568	5.08
2.79235	5.08
2.80902	5.08
2.82568	5.08
2.84235	5.08
2.85902	5.07
2.87568	5.07
2.89235	5.07
2.90902	5.07
2.92568	5.07
2.94235	5.07
2.95902	5.07
2.97568	5.07
2.99235	5.07
3.00902	5.07
3.02568	5.07
3.04235	5.07
3.05902	5.07
3.07568	5.07
3.09235	5.07
3.10902	5.07
3.12568	5.07
3.14235	5.07
3.15902	5.07
3.17568	5.07
3.19235	5.07
3.20902	5.07
3.22568	5.07
3.24235	5.07
3.25902	5.07
3.27568	5.07
3.29235	5.07
3.30902	5.07
3.32568	5.07
3.34235	5.07
3.35902	5.07
3.37568	5.07
3.39235	5.07
3.40902	5.07
3.42568	5.07
3.44235	5.07
3.45902	5.07
3.47568	5.07
3.49235	5.07
3.50902	5.07
3.52568	5.07
3.54235	5.07
3.55902	5.07
3.57568	5.07
3.59235	5.07
3.60902	5.07
3.62568	5.07
3.64235	5.07
3.65902	5.07
3.67568	5.07
3.69235	5.07
3.70902	5.07
3.72568	5.07
3.74235	5.07
3.75902	5.07
3.77568	5.07
3.79235	5.07
3.80902	5.07
3.82568	5.07
3.84235	5.07
3.85902	5.07
3.87568	5.07
3.89235	5.07
3.90902	5.07
3.92568	5.07
3.94235	5.07
3.95902	5.07
3.97568	5.07
3.99235	5.07

[Status Trace (Linear Velocity)]
Interval(msec)	1000
# of Points	240
Start Time(min)	0.009
End Time(min)	3.992
Intensity Units	
Intensity Multiplier	1
R.Time (min)	Intensity
0.00902	39.01
0.02568	37.24
0.04235	38.52
0.05902	39.94
0.07568	39.91
0.09235	39.04
0.10902	39.00
0.12568	39.02
0.14235	39.02
0.15902	39.02
0.17568	39.02
0.19235	39.02
0.20902	39.02
0.22568	39.02
0.24235	39.02
0.25902	39.02
0.27568	39.02
0.29235	39.02
0.30902	39.02
0.32568	39.01
0.34235	39.01
0.35902	39.01
0.37568	39.01
0.39235	39.02
0.40902	39.02
0.42568	39.02
0.44235	39.02
0.45902	39.01
0.47568	39.01
0.49235	39.01
0.50902	39.01
0.52568	39.01
0.54235	39.01
0.55902	39.01
0.57568	39.01
0.59235	39.02
0.60902	39.01
0.62568	39.02
0.64235	39.02
0.65902	39.02
0.67568	39.02
0.69235	39.02
0.70902	39.02
0.72568	39.02
0.74235	39.02
0.75902	39.02
0.77568	39.02
0.79235	39.02
0.80902	39.02
0.82568	39.01
0.84235	39.01
0.85902	39.02
0.87568	39.02
0.89235	39.02
0.90902	39.02
0.92568	39.02
0.94235	39.02
0.95902	39.02
0.97568	39.02
0.99235	39.02
1.00902	39.02
1.02568	39.02
1.04235	39.02
1.05902	39.02
1.07568	39.02
1.09235	39.02
1.10902	39.02
1.12568	39.02
1.14235	39.02
1.15902	39.02
1.17568	39.01
1.19235	39.01
1.20902	39.01
1.22568	39.02
1.24235	39.02
1.25902	39.02
1.27568	39.02
1.29235	39.02
1.30902	39.02
1.32568	39.02
1.34235	39.02
1.35902	39.02
1.37568	39.02
1.39235	39.02
1.40902	39.02
1.42568	39.01
1.44235	39.01
1.45902	39.01
1.47568	39.01
1.49235	39.01
1.50902	39.01
1.52568	39.01
1.54235	39.01
1.55902	39.01
1.57568	39.01
1.59235	39.01
1.60902	39.01
1.62568	39.00
1.64235	38.98
1.65902	38.96
1.67568	38.93
1.69235	38.89
1.70902	38.85
1.72568	38.82
1.74235	38.79
1.75902	38.76
1.77568	38.73
1.79235	38.69
1.80902	38.67
1.82568	38.64
1.84235	38.60
1.85902	38.57
1.87568	38.54
1.89235	38.51
1.90902	38.48
1.92568	38.45
1.94235	38.42
1.95902	38.39
1.97568	38.36
1.99235	38.33
2.00902	38.30
2.02568	38.27
2.04235	38.24
2.05902	38.20
2.07568	38.18
2.09235	38.15
2.10902	38.12
2.12568	38.09
2.14235	38.06
2.15902	38.03
2.17568	38.00
2.19235	37.97
2.20902	37.94
2.22568	37.91
2.24235	37.88
2.25902	37.85
2.27568	37.82
2.29235	37.79
2.30902	37.76
2.32568	37.74
2.34235	37.70
2.35902	37.68
2.37568	37.66
2.39235	37.66
2.40902	37.66
2.42568	37.66
2.44235	37.66
2.45902	37.66
2.47568	37.66
2.49235	37.66
2.50902	37.65
2.52568	37.65
2.54235	37.65
2.55902	37.65
2.57568	37.65
2.59235	37.65
2.60902	37.65
2.62568	37.65
2.64235	37.65
2.65902	37.65
2.67568	37.65
2.69235	37.64
2.70902	37.65
2.72568	37.64
2.74235	37.64
2.75902	37.64
2.77568	37.64
2.79235	37.64
2.80902	37.64
2.82568	37.64
2.84235	37.64
2.85902	37.64
2.87568	37.64
2.89235	37.63
2.90902	37.63
2.92568	37.63
2.94235	37.63
2.95902	37.63
2.97568	37.63
2.99235	37.63
3.00902	37.64
3.02568	37.64
3.04235	37.64
3.05902	37.64
3.07568	37.64
3.09235	37.63
3.10902	37.63
3.12568	37.63
3.14235	37.63
3.15902	37.63
3.17568	37.63
3.19235	37.63
3.20902	37.63
3.22568	37.63
3.24235	37.63
3.25902	37.63
3.27568	37.63
3.29235	37.63
3.30902	37.63
3.32568	37.63
3.34235	37.62
3.35902	37.62
3.37568	37.62
3.39235	37.62
3.40902	37.62
3.42568	37.62
3.44235	37.62
3.45902	37.62
3.47568	37.62
3.49235	37.62
3.50902	37.63
3.52568	37.63
3.54235	37.63
3.55902	37.63
3.57568	37.63
3.59235	37.63
3.60902	37.63
3.62568	37.63
3.64235	37.63
3.65902	37.63
3.67568	37.63
3.69235	37.63
3.70902	37.63
3.72568	37.63
3.74235	37.63
3.75902	37.63
3.77568	37.63
3.79235	37.63
3.80902	37.63
3.82568	37.63
3.84235	37.63
3.85902	37.63
3.87568	37.63
3.89235	37.63
3.90902	37.63
3.92568	37.63
3.94235	37.63
3.95902	37.63
3.97568	37.63
3.99235	37.63

