[Header]
Application Name	LabSolutions
Version	5.110
Data File Name	C:\Users\User\Desktop\GC Analyses\Jack\Nachusa Grasslands Sampling\T2 Timepoint July 12th\T2_07122022_044.gcd
Output Date	3/14/2023
Output Time	3:42:32 PM

[File Information]
Type	Data File
Generated	3/10/2023 5:16:52 PM
Generated by	System Administrator
Modified	3/10/2023 5:23:44 PM
Modified by	System Administrator

[Sample Information]
Operator Name	System Administrator
Acquired	3/10/2023 5:19:42 PM
Sample Type	0:Unknown
Level	0
Sample Name	044
Sample ID	044
ISTD Amount1	1
ISTD Amount2	1
ISTD Amount3	1
ISTD Amount4	1
ISTD Amount5	1
ISTD Amount6	1
ISTD Amount7	1
ISTD Amount8	1
ISTD Amount9	1
ISTD Amount10	1
ISTD Amount11	1
ISTD Amount12	1
ISTD Amount13	1
ISTD Amount14	1
ISTD Amount15	1
ISTD Amount16	1
ISTD Amount17	1
ISTD Amount18	1
ISTD Amount19	1
ISTD Amount20	1
ISTD Amount21	1
ISTD Amount22	1
ISTD Amount23	1
ISTD Amount24	1
ISTD Amount25	1
ISTD Amount26	1
ISTD Amount27	1
ISTD Amount28	1
ISTD Amount29	1
ISTD Amount30	1
ISTD Amount31	1
ISTD Amount32	1
Sample Amount	1
Dilution Factor	1
Vial#	43
Injection Volume	1
Injection Count	1
Bar Code	

[Original Files]
Data File	C:\Users\User\Desktop\GC Analyses\Jack\Nachusa Grasslands Sampling\T1 Timepoint July 12th\T2_07122022_044.gcd
Method File	C:\LabSolutions\Data\GHG_4min_2022\ghg3_togas_w_acet_4 min_new_int.gcm
Batch File	C:\LabSolutions\Data\AutoSamplerTesting\T2_07122022.gcb
Report Format File	c:\LabSolutions\System\DEFAULT.lsr

[File Description]


[Configuration]
Instrument Name	C0B7VH3-Instrument1
Instrument #	1
Line #	1
# of Detectors	3
Detector ID	DET#1	DET#2	DET#3
Detector Name	FID	PTCD	ECD
# of Channels	1	1	1

[Peak Table(Ch1)]
# of Peaks	3
Peak#	R.Time	I.Time	F.Time	Area	Height	A/H	Conc.	Mark	ID#	Name	k'	Plate #	Plate Ht.	Tailing	Resolution	Sep.Factor	Area Ratio	Height Ratio	Conc. %	Norm Conc.
1	1.476	1.435	1.538	26679	12738	2.094	188.358	   	1	CO	0.000	9307	16.116	1.267	0.000	0.000	0	0	27.349	27.349
2	1.567	1.538	1.611	4137	2076	1.993	79.999	 V 	2	CH4	0.062	10460	14.341	0.000	1.497	0.000	0	0	11.616	11.616
3	1.996	1.949	2.411	1674896	803337	2.085	420.354	   	3	CO2	0.353	17269	8.686	1.252	7.029	5.680	0	0	61.035	61.035

[Peak Table(Ch2)]
# of Peaks	0

[Peak Table(Ch3)]
# of Peaks	5
Peak#	R.Time	I.Time	F.Time	Area	Height	A/H	Conc.	Mark	ID#	Name	k'	Plate #	Plate Ht.	Tailing	Resolution	Sep.Factor	Area Ratio	Height Ratio	Conc. %	Norm Conc.
1	2.462	2.345	2.513	1952	620	3.150	0.000	   			0.000	9955	15.067	0.000	0.000	0.000	0	0	0.000	0.000
2	2.535	2.513	2.634	1292	334	3.863	0.000	 V 			0.030	5999	25.004	0.000	0.639	0.000	0	0	0.000	0.000
3	2.656	2.634	2.708	212	75	2.846	0.000	 V 			0.079	9540	15.723	0.000	1.010	2.650	0	0	0.000	0.000
4	2.876	2.763	3.060	19701	5076	3.881	0.503	   	1	N2O	0.168	13171	11.388	1.678	2.105	2.132	0	0	100.000	100.000
5	3.210	3.067	3.995	16182	473	34.196	0.000	   	2	SF6	0.304	204	737.019	3.192	0.667	1.805	0	0	0.000	0.000

[Compound Results(Ch1)]
# of IDs	6
ID#	Name	R.Time	Area	Height	Conc.	Curve	3rd	2nd	1st	Constant	Area Ratio	Height Ratio	Conc. %	Norm Conc.
1	CO	1.476	26679	12738	188.358	Linear	0.000000e+00	0.000000e+00	1.416423e+002	0.000000e+00	0	0	27.349	27.349
2	CH4	1.567	4137	2076	79.999	Linear	0.000000e+00	0.000000e+00	5.171738e+001	0.000000e+00	0	0	11.616	11.616
3	CO2	1.996	1674896	803337	420.354	Linear	0.000000e+00	0.000000e+00	3.984494e+003	0.000000e+00	0	0	61.035	61.035
4	Ethylene	0.000	0	0	0.000	Linear	0.000000e+00	0.000000e+00	0.000000e+00	0.000000e+00	0	0	0.000	0.000
5	Acetylene	0.000	0	0	0.000	Linear	0.000000e+00	0.000000e+00	0.000000e+00	0.000000e+00	0	0	0.000	0.000
6	Ethane	0.000	0	0	0.000	Linear	0.000000e+00	0.000000e+00	0.000000e+00	0.000000e+00	0	0	0.000	0.000

[Compound Results(Ch2)]
# of IDs	5
ID#	Name	R.Time	Area	Height	Conc.	Curve	3rd	2nd	1st	Constant	Area Ratio	Height Ratio	Conc. %	Norm Conc.
1	Hydrogen	0.000	0	0	0.000	Linear	0.000000e+00	0.000000e+00	0.000000e+00	0.000000e+00	0	0	0.000	0.000
2	Oxygen	0.000	0	0	0.000	Linear	0.000000e+00	0.000000e+00	0.000000e+00	0.000000e+00	0	0	0.000	0.000
3	Nitrogen	0.000	0	0	0.000	Linear	0.000000e+00	0.000000e+00	0.000000e+00	0.000000e+00	0	0	0.000	0.000
4	Methane	0.000	0	0	0.000	Linear	0.000000e+00	0.000000e+00	0.000000e+00	0.000000e+00	0	0	0.000	0.000
5	Carbon Monoxide	0.000	0	0	0.000	Linear	0.000000e+00	0.000000e+00	0.000000e+00	0.000000e+00	0	0	0.000	0.000

[Compound Results(Ch3)]
# of IDs	2
ID#	Name	R.Time	Area	Height	Conc.	Curve	3rd	2nd	1st	Constant	Area Ratio	Height Ratio	Conc. %	Norm Conc.
1	N2O	2.876	19701	5076	0.503	Linear	0.000000e+00	0.000000e+00	3.915173e+004	0.000000e+00	0	0	100.000	100.000
2	SF6	3.210	16182	473	0.000	Linear	0.000000e+00	0.000000e+00	0.000000e+00	0.000000e+00	0	0	0.000	0.000

[Group Results(Ch1)]
# of Groups	0

[Group Results(Ch2)]
# of Groups	0

[Group Results(Ch3)]
# of Groups	0

[Chromatogram (Ch1)]
Interval(msec)	220
# of Points	1091
Start Time(min)	0.002
End Time(min)	3.998
R.Time (min)	Intensity
0.00167	0
0.00533	-2
0.00900	-4
0.01267	-6
0.01633	-4
0.02000	4
0.02367	14
0.02733	24
0.03100	34
0.03467	44
0.03833	51
0.04200	50
0.04567	48
0.04933	49
0.05300	53
0.05667	55
0.06033	51
0.06400	47
0.06767	43
0.07133	41
0.07500	42
0.07867	48
0.08233	50
0.08600	49
0.08967	49
0.09333	56
0.09700	73
0.10067	91
0.10433	99
0.10800	95
0.11167	85
0.11533	74
0.11900	65
0.12267	61
0.12633	63
0.13000	66
0.13367	67
0.13733	63
0.14100	58
0.14467	54
0.14833	50
0.15200	47
0.15567	47
0.15933	49
0.16300	52
0.16667	54
0.17033	51
0.17400	46
0.17767	41
0.18133	40
0.18500	40
0.18867	37
0.19233	30
0.19600	20
0.19967	12
0.20333	3
0.20700	-3
0.21067	-5
0.21433	-5
0.21800	-3
0.22167	1
0.22533	4
0.22900	9
0.23267	11
0.23633	17
0.24000	22
0.24367	23
0.24733	19
0.25100	19
0.25467	21
0.25833	23
0.26200	24
0.26567	22
0.26933	19
0.27300	19
0.27667	18
0.28033	19
0.28400	18
0.28767	12
0.29133	7
0.29500	5
0.29867	5
0.30233	4
0.30600	3
0.30967	2
0.31333	2
0.31700	3
0.32067	4
0.32433	8
0.32800	16
0.33167	22
0.33533	24
0.33900	22
0.34267	18
0.34633	16
0.35000	21
0.35367	28
0.35733	34
0.36100	40
0.36467	45
0.36833	44
0.37200	33
0.37567	20
0.37933	10
0.38300	7
0.38667	12
0.39033	18
0.39400	16
0.39767	13
0.40133	13
0.40500	13
0.40867	14
0.41233	18
0.41600	25
0.41967	30
0.42333	31
0.42700	27
0.43067	20
0.43433	14
0.43800	10
0.44167	9
0.44533	9
0.44900	9
0.45267	5
0.45633	-1
0.46000	-2
0.46367	-1
0.46733	-4
0.47100	-7
0.47467	-6
0.47833	-3
0.48200	1
0.48567	6
0.48933	10
0.49300	10
0.49667	10
0.50033	15
0.50400	22
0.50767	24
0.51133	18
0.51500	10
0.51867	6
0.52233	6
0.52600	5
0.52967	2
0.53333	2
0.53700	5
0.54067	7
0.54433	9
0.54800	10
0.55167	11
0.55533	12
0.55900	15
0.56267	17
0.56633	15
0.57000	10
0.57367	4
0.57733	4
0.58100	7
0.58467	9
0.58833	12
0.59200	16
0.59567	20
0.59933	20
0.60300	16
0.60667	9
0.61033	2
0.61400	-1
0.61767	-0
0.62133	1
0.62500	0
0.62867	-5
0.63233	-9
0.63600	-11
0.63967	-7
0.64333	1
0.64700	7
0.65067	5
0.65433	2
0.65800	-2
0.66167	-4
0.66533	0
0.66900	6
0.67267	11
0.67633	11
0.68000	8
0.68367	1
0.68733	-8
0.69100	-13
0.69467	-13
0.69833	-9
0.70200	-7
0.70567	-11
0.70933	-16
0.71300	-16
0.71667	-14
0.72033	-9
0.72400	-4
0.72767	-2
0.73133	-4
0.73500	-4
0.73867	-1
0.74233	-1
0.74600	0
0.74967	3
0.75333	1
0.75700	-6
0.76067	-13
0.76433	-12
0.76800	-8
0.77167	-8
0.77533	-6
0.77900	-8
0.78267	-9
0.78633	-9
0.79000	-7
0.79367	-7
0.79733	-8
0.80100	-7
0.80467	-2
0.80833	4
0.81200	6
0.81567	4
0.81933	-1
0.82300	-3
0.82667	-2
0.83033	-2
0.83400	-3
0.83767	-5
0.84133	-6
0.84500	-7
0.84867	-6
0.85233	-7
0.85600	-6
0.85967	1
0.86333	0
0.86700	-9
0.87067	-17
0.87433	-21
0.87800	-26
0.88167	-27
0.88533	-23
0.88900	-19
0.89267	-14
0.89633	-10
0.90000	-5
0.90367	-1
0.90733	-1
0.91100	-4
0.91467	-4
0.91833	-1
0.92200	1
0.92567	-2
0.92933	-5
0.93300	-8
0.93667	-11
0.94033	-13
0.94400	-11
0.94767	-13
0.95133	-16
0.95500	-18
0.95867	-19
0.96233	-18
0.96600	-18
0.96967	-18
0.97333	-15
0.97700	-9
0.98067	-6
0.98433	-7
0.98800	-9
0.99167	-7
0.99533	-7
0.99900	-10
1.00267	-13
1.00633	-14
1.01000	-11
1.01367	-8
1.01733	-7
1.02100	-8
1.02467	-9
1.02833	-7
1.03200	-5
1.03567	-6
1.03933	-11
1.04300	-18
1.04667	-24
1.05033	-26
1.05400	-28
1.05767	-31
1.06133	-30
1.06500	-26
1.06867	-23
1.07233	-24
1.07600	-32
1.07967	-39
1.08333	-41
1.08700	-41
1.09067	-40
1.09433	-41
1.09800	-43
1.10167	-42
1.10533	-37
1.10900	-31
1.11267	-23
1.11633	-19
1.12000	-19
1.12367	-22
1.12733	-26
1.13100	-34
1.13467	-43
1.13833	-46
1.14200	-48
1.14567	-50
1.14933	-52
1.15300	-50
1.15667	-41
1.16033	-33
1.16400	-30
1.16767	-29
1.17133	-29
1.17500	-30
1.17867	-33
1.18233	-35
1.18600	-36
1.18967	-37
1.19333	-38
1.19700	-38
1.20067	-32
1.20433	-27
1.20800	-22
1.21167	-19
1.21533	-17
1.21900	-18
1.22267	-24
1.22633	-30
1.23000	-35
1.23367	-37
1.23733	-35
1.24100	-33
1.24467	-33
1.24833	-33
1.25200	-34
1.25567	-30
1.25933	-24
1.26300	-16
1.26667	-10
1.27033	-8
1.27400	-9
1.27767	-11
1.28133	-12
1.28500	-14
1.28867	-17
1.29233	-26
1.29600	-36
1.29967	-42
1.30333	-46
1.30700	-50
1.31067	-51
1.31433	-48
1.31800	-42
1.32167	-39
1.32533	-38
1.32900	-35
1.33267	-29
1.33633	-22
1.34000	-19
1.34367	-24
1.34733	-29
1.35100	-30
1.35467	-28
1.35833	-27
1.36200	-27
1.36567	-24
1.36933	-22
1.37300	-22
1.37667	-21
1.38033	-17
1.38400	-12
1.38767	-6
1.39133	-2
1.39500	-3
1.39867	-7
1.40233	-15
1.40600	-23
1.40967	-28
1.41333	-29
1.41700	-28
1.42067	-25
1.42433	-22
1.42800	-19
1.43167	-18
1.43533	-12
1.43900	19
1.44267	130
1.44633	398
1.45000	1046
1.45367	2447
1.45733	4619
1.46100	7096
1.46467	9379
1.46833	11179
1.47200	12345
1.47567	12745
1.47933	12288
1.48300	11038
1.48667	9264
1.49033	7334
1.49400	5554
1.49767	4081
1.50133	2950
1.50500	2117
1.50867	1525
1.51233	1107
1.51600	812
1.51967	607
1.52333	468
1.52700	372
1.53067	305
1.53433	262
1.53800	251
1.54167	309
1.54533	483
1.54900	792
1.55267	1178
1.55633	1549
1.56000	1846
1.56367	2045
1.56733	2126
1.57100	2062
1.57467	1849
1.57833	1536
1.58200	1199
1.58567	892
1.58933	640
1.59300	447
1.59667	308
1.60033	212
1.60400	144
1.60767	97
1.61133	71
1.61500	62
1.61867	61
1.62233	60
1.62600	56
1.62967	51
1.63333	45
1.63700	38
1.64067	31
1.64433	25
1.64800	22
1.65167	23
1.65533	23
1.65900	21
1.66267	16
1.66633	10
1.67000	5
1.67367	4
1.67733	4
1.68100	2
1.68467	2
1.68833	5
1.69200	15
1.69567	26
1.69933	29
1.70300	22
1.70667	9
1.71033	-3
1.71400	-12
1.71767	-17
1.72133	-21
1.72500	-24
1.72867	-22
1.73233	-19
1.73600	-15
1.73967	-15
1.74333	-15
1.74700	-9
1.75067	-3
1.75433	-0
1.75800	-3
1.76167	-7
1.76533	-9
1.76900	-11
1.77267	-15
1.77633	-18
1.78000	-20
1.78367	-17
1.78733	-14
1.79100	-11
1.79467	-10
1.79833	-8
1.80200	-8
1.80567	-5
1.80933	1
1.81300	6
1.81667	6
1.82033	7
1.82400	7
1.82767	6
1.83133	3
1.83500	-6
1.83867	-18
1.84233	-23
1.84600	-24
1.84967	-22
1.85333	-17
1.85700	-6
1.86067	5
1.86433	12
1.86800	14
1.87167	9
1.87533	3
1.87900	-7
1.88267	-16
1.88633	-20
1.89000	-24
1.89367	-31
1.89733	-37
1.90100	-41
1.90467	-41
1.90833	-36
1.91200	-31
1.91567	-29
1.91933	-21
1.92300	-11
1.92667	-5
1.93033	-4
1.93400	-6
1.93767	-4
1.94133	-3
1.94500	-3
1.94867	-1
1.95233	29
1.95600	236
1.95967	1375
1.96333	6264
1.96700	22217
1.97067	62293
1.97433	140587
1.97800	260953
1.98167	409992
1.98533	562032
1.98900	690320
1.99267	774727
1.99633	803389
2.00000	774260
2.00367	696135
2.00733	586524
2.01100	466297
2.01467	353169
2.01833	257708
2.02200	183280
2.02567	128446
2.02933	89610
2.03300	62819
2.03667	44626
2.04033	32355
2.04400	24073
2.04767	18444
2.05133	14570
2.05500	11855
2.05867	9910
2.06233	8479
2.06600	7398
2.06967	6564
2.07333	5906
2.07700	5374
2.08067	4931
2.08433	4556
2.08800	4239
2.09167	3960
2.09533	3716
2.09900	3503
2.10267	3311
2.10633	3136
2.11000	2977
2.11367	2832
2.11733	2696
2.12100	2569
2.12467	2455
2.12833	2357
2.13200	2269
2.13567	2183
2.13933	2098
2.14300	2019
2.14667	1948
2.15033	1886
2.15400	1822
2.15767	1759
2.16133	1698
2.16500	1646
2.16867	1599
2.17233	1554
2.17600	1511
2.17967	1470
2.18333	1430
2.18700	1392
2.19067	1356
2.19433	1326
2.19800	1300
2.20167	1273
2.20533	1243
2.20900	1207
2.21267	1167
2.21633	1127
2.22000	1090
2.22367	1058
2.22733	1034
2.23100	1016
2.23467	1001
2.23833	983
2.24200	964
2.24567	946
2.24933	922
2.25300	898
2.25667	877
2.26033	858
2.26400	843
2.26767	828
2.27133	816
2.27500	807
2.27867	794
2.28233	777
2.28600	762
2.28967	754
2.29333	750
2.29700	742
2.30067	727
2.30433	708
2.30800	688
2.31167	671
2.31533	656
2.31900	646
2.32267	641
2.32633	637
2.33000	629
2.33367	618
2.33733	606
2.34100	594
2.34467	583
2.34833	582
2.35200	584
2.35567	583
2.35933	581
2.36300	579
2.36667	573
2.37033	560
2.37400	548
2.37767	540
2.38133	536
2.38500	533
2.38867	532
2.39233	531
2.39600	531
2.39967	529
2.40333	525
2.40700	520
2.41067	511
2.41433	507
2.41800	507
2.42167	507
2.42533	506
2.42900	503
2.43267	497
2.43633	489
2.44000	486
2.44367	487
2.44733	485
2.45100	477
2.45467	465
2.45833	452
2.46200	441
2.46567	430
2.46933	425
2.47300	424
2.47667	425
2.48033	427
2.48400	425
2.48767	420
2.49133	413
2.49500	406
2.49867	401
2.50233	398
2.50600	396
2.50967	397
2.51333	398
2.51700	398
2.52067	401
2.52433	402
2.52800	404
2.53167	406
2.53533	405
2.53900	399
2.54267	396
2.54633	391
2.55000	381
2.55367	370
2.55733	365
2.56100	363
2.56467	363
2.56833	366
2.57200	367
2.57567	365
2.57933	363
2.58300	361
2.58667	360
2.59033	363
2.59400	370
2.59767	376
2.60133	382
2.60500	382
2.60867	377
2.61233	369
2.61600	365
2.61967	359
2.62333	351
2.62700	347
2.63067	346
2.63433	347
2.63800	350
2.64167	351
2.64533	351
2.64900	355
2.65267	363
2.65633	368
2.66000	368
2.66367	362
2.66733	349
2.67100	339
2.67467	332
2.67833	328
2.68200	325
2.68567	320
2.68933	312
2.69300	306
2.69667	305
2.70033	306
2.70400	305
2.70767	302
2.71133	305
2.71500	312
2.71867	319
2.72233	326
2.72600	335
2.72967	345
2.73333	354
2.73700	366
2.74067	373
2.74433	375
2.74800	373
2.75167	372
2.75533	370
2.75900	360
2.76267	349
2.76633	341
2.77000	337
2.77367	335
2.77733	335
2.78100	337
2.78467	343
2.78833	349
2.79200	350
2.79567	348
2.79933	347
2.80300	346
2.80667	343
2.81033	335
2.81400	326
2.81767	323
2.82133	328
2.82500	335
2.82867	337
2.83233	335
2.83600	334
2.83967	337
2.84333	338
2.84700	333
2.85067	327
2.85433	324
2.85800	325
2.86167	329
2.86533	333
2.86900	338
2.87267	345
2.87633	354
2.88000	362
2.88367	363
2.88733	353
2.89100	336
2.89467	322
2.89833	311
2.90200	303
2.90567	299
2.90933	301
2.91300	304
2.91667	304
2.92033	304
2.92400	305
2.92767	305
2.93133	306
2.93500	306
2.93867	306
2.94233	307
2.94600	310
2.94967	317
2.95333	325
2.95700	331
2.96067	337
2.96433	342
2.96800	345
2.97167	349
2.97533	352
2.97900	356
2.98267	355
2.98633	349
2.99000	343
2.99367	339
2.99733	333
3.00100	327
3.00467	320
3.00833	312
3.01200	307
3.01567	307
3.01933	313
3.02300	316
3.02667	316
3.03033	314
3.03400	309
3.03767	306
3.04133	306
3.04500	312
3.04867	323
3.05233	331
3.05600	336
3.05967	337
3.06333	332
3.06700	325
3.07067	319
3.07433	315
3.07800	308
3.08167	300
3.08533	296
3.08900	291
3.09267	289
3.09633	291
3.10000	294
3.10367	298
3.10733	302
3.11100	308
3.11467	318
3.11833	329
3.12200	337
3.12567	342
3.12933	342
3.13300	338
3.13667	333
3.14033	330
3.14400	334
3.14767	336
3.15133	331
3.15500	326
3.15867	320
3.16233	308
3.16600	291
3.16967	279
3.17333	281
3.17700	286
3.18067	284
3.18433	278
3.18800	274
3.19167	270
3.19533	266
3.19900	264
3.20267	265
3.20633	271
3.21000	275
3.21367	277
3.21733	280
3.22100	284
3.22467	290
3.22833	296
3.23200	303
3.23567	310
3.23933	313
3.24300	313
3.24667	311
3.25033	315
3.25400	318
3.25767	313
3.26133	298
3.26500	283
3.26867	272
3.27233	266
3.27600	269
3.27967	273
3.28333	278
3.28700	283
3.29067	286
3.29433	290
3.29800	290
3.30167	287
3.30533	287
3.30900	290
3.31267	291
3.31633	292
3.32000	294
3.32367	295
3.32733	291
3.33100	284
3.33467	277
3.33833	274
3.34200	275
3.34567	273
3.34933	269
3.35300	266
3.35667	266
3.36033	268
3.36400	272
3.36767	276
3.37133	276
3.37500	273
3.37867	269
3.38233	265
3.38600	264
3.38967	268
3.39333	275
3.39700	279
3.40067	275
3.40433	268
3.40800	263
3.41167	261
3.41533	263
3.41900	269
3.42267	274
3.42633	279
3.43000	283
3.43367	287
3.43733	286
3.44100	278
3.44467	263
3.44833	247
3.45200	237
3.45567	231
3.45933	229
3.46300	231
3.46667	237
3.47033	247
3.47400	256
3.47767	259
3.48133	260
3.48500	263
3.48867	262
3.49233	257
3.49600	252
3.49967	248
3.50333	248
3.50700	250
3.51067	249
3.51433	247
3.51800	244
3.52167	239
3.52533	236
3.52900	239
3.53267	238
3.53633	237
3.54000	234
3.54367	235
3.54733	238
3.55100	237
3.55467	232
3.55833	227
3.56200	226
3.56567	226
3.56933	225
3.57300	225
3.57667	228
3.58033	236
3.58400	240
3.58767	243
3.59133	247
3.59500	250
3.59867	248
3.60233	244
3.60600	239
3.60967	239
3.61333	240
3.61700	237
3.62067	230
3.62433	221
3.62800	216
3.63167	219
3.63533	228
3.63900	231
3.64267	229
3.64633	225
3.65000	221
3.65367	219
3.65733	222
3.66100	224
3.66467	223
3.66833	218
3.67200	209
3.67567	202
3.67933	204
3.68300	208
3.68667	215
3.69033	222
3.69400	228
3.69767	233
3.70133	235
3.70500	235
3.70867	233
3.71233	227
3.71600	214
3.71967	198
3.72333	189
3.72700	189
3.73067	195
3.73433	201
3.73800	203
3.74167	207
3.74533	215
3.74900	220
3.75267	222
3.75633	219
3.76000	213
3.76367	211
3.76733	209
3.77100	208
3.77467	208
3.77833	211
3.78200	214
3.78567	217
3.78933	219
3.79300	217
3.79667	216
3.80033	213
3.80400	212
3.80767	213
3.81133	212
3.81500	207
3.81867	200
3.82233	196
3.82600	192
3.82967	193
3.83333	200
3.83700	210
3.84067	216
3.84433	218
3.84800	214
3.85167	205
3.85533	195
3.85900	186
3.86267	180
3.86633	178
3.87000	180
3.87367	184
3.87733	186
3.88100	186
3.88467	187
3.88833	188
3.89200	190
3.89567	191
3.89933	191
3.90300	188
3.90667	182
3.91033	176
3.91400	171
3.91767	168
3.92133	163
3.92500	161
3.92867	159
3.93233	157
3.93600	157
3.93967	160
3.94333	164
3.94700	171
3.95067	181
3.95433	188
3.95800	188
3.96167	185
3.96533	182
3.96900	182
3.97267	184
3.97633	186
3.98000	188
3.98367	187
3.98733	187
3.99100	189
3.99467	188
3.99833	184

[Chromatogram (Ch2)]
Interval(msec)	220
# of Points	1091
Start Time(min)	0.002
End Time(min)	3.998
R.Time (min)	Intensity
0.00167	-1
0.00533	-1
0.00900	-1
0.01267	-1
0.01633	-1
0.02000	-1
0.02367	-1
0.02733	-0
0.03100	-0
0.03467	-0
0.03833	0
0.04200	0
0.04567	0
0.04933	1
0.05300	1
0.05667	1
0.06033	1
0.06400	1
0.06767	1
0.07133	1
0.07500	1
0.07867	0
0.08233	-0
0.08600	-1
0.08967	-1
0.09333	-1
0.09700	-1
0.10067	-0
0.10433	-0
0.10800	-0
0.11167	-0
0.11533	-0
0.11900	-1
0.12267	-1
0.12633	-1
0.13000	-1
0.13367	-2
0.13733	-2
0.14100	-2
0.14467	-2
0.14833	-1
0.15200	-1
0.15567	-1
0.15933	-1
0.16300	-1
0.16667	-1
0.17033	-2
0.17400	-2
0.17767	-2
0.18133	-2
0.18500	-2
0.18867	-2
0.19233	-2
0.19600	-2
0.19967	-2
0.20333	-2
0.20700	-2
0.21067	-1
0.21433	-1
0.21800	-1
0.22167	-1
0.22533	-2
0.22900	-2
0.23267	-2
0.23633	-2
0.24000	-2
0.24367	-2
0.24733	-2
0.25100	-2
0.25467	-2
0.25833	-2
0.26200	-2
0.26567	-3
0.26933	-3
0.27300	-3
0.27667	-3
0.28033	-3
0.28400	-3
0.28767	-3
0.29133	-2
0.29500	-2
0.29867	-2
0.30233	-2
0.30600	-1
0.30967	-1
0.31333	-1
0.31700	-1
0.32067	-1
0.32433	-2
0.32800	-2
0.33167	-2
0.33533	-2
0.33900	-2
0.34267	-2
0.34633	-3
0.35000	-3
0.35367	-3
0.35733	-3
0.36100	-3
0.36467	-3
0.36833	-3
0.37200	-2
0.37567	-2
0.37933	-2
0.38300	-2
0.38667	-2
0.39033	-2
0.39400	-2
0.39767	-2
0.40133	-2
0.40500	-2
0.40867	-2
0.41233	-2
0.41600	-2
0.41967	-2
0.42333	-3
0.42700	-3
0.43067	-3
0.43433	-2
0.43800	-2
0.44167	-2
0.44533	-2
0.44900	-2
0.45267	-2
0.45633	-2
0.46000	-2
0.46367	-2
0.46733	-2
0.47100	-2
0.47467	-2
0.47833	-2
0.48200	-2
0.48567	-2
0.48933	-2
0.49300	-2
0.49667	-2
0.50033	-2
0.50400	-2
0.50767	-2
0.51133	-2
0.51500	-2
0.51867	-2
0.52233	-2
0.52600	-2
0.52967	-2
0.53333	-2
0.53700	-2
0.54067	-2
0.54433	-2
0.54800	-2
0.55167	-3
0.55533	-3
0.55900	-3
0.56267	-3
0.56633	-3
0.57000	-3
0.57367	-2
0.57733	-2
0.58100	-1
0.58467	-1
0.58833	-1
0.59200	-1
0.59567	-1
0.59933	-2
0.60300	-2
0.60667	-2
0.61033	-2
0.61400	-2
0.61767	-2
0.62133	-2
0.62500	-2
0.62867	-2
0.63233	-2
0.63600	-2
0.63967	-2
0.64333	-2
0.64700	-3
0.65067	-3
0.65433	-3
0.65800	-3
0.66167	-4
0.66533	-4
0.66900	-4
0.67267	-4
0.67633	-5
0.68000	-5
0.68367	-5
0.68733	-5
0.69100	-5
0.69467	-5
0.69833	-5
0.70200	-4
0.70567	-4
0.70933	-4
0.71300	-4
0.71667	-4
0.72033	-4
0.72400	-4
0.72767	-4
0.73133	-3
0.73500	-3
0.73867	-3
0.74233	-3
0.74600	-3
0.74967	-3
0.75333	-2
0.75700	-2
0.76067	-2
0.76433	-2
0.76800	-3
0.77167	-3
0.77533	-3
0.77900	-2
0.78267	-2
0.78633	-2
0.79000	-2
0.79367	-2
0.79733	-2
0.80100	-2
0.80467	-3
0.80833	-3
0.81200	-3
0.81567	-3
0.81933	-3
0.82300	-4
0.82667	-4
0.83033	-4
0.83400	-4
0.83767	-4
0.84133	-5
0.84500	-5
0.84867	-5
0.85233	-5
0.85600	-5
0.85967	-6
0.86333	-6
0.86700	-6
0.87067	-6
0.87433	-6
0.87800	-5
0.88167	-5
0.88533	-5
0.88900	-4
0.89267	-4
0.89633	-4
0.90000	-4
0.90367	-4
0.90733	-4
0.91100	-4
0.91467	-4
0.91833	-4
0.92200	-4
0.92567	-4
0.92933	-4
0.93300	-4
0.93667	-4
0.94033	-4
0.94400	-4
0.94767	-4
0.95133	-4
0.95500	-4
0.95867	-4
0.96233	-4
0.96600	-4
0.96967	-3
0.97333	-3
0.97700	-3
0.98067	-3
0.98433	-3
0.98800	-3
0.99167	-3
0.99533	-4
0.99900	-4
1.00267	-4
1.00633	-4
1.01000	-4
1.01367	-4
1.01733	-4
1.02100	-4
1.02467	-4
1.02833	-4
1.03200	-4
1.03567	-4
1.03933	-4
1.04300	-3
1.04667	-3
1.05033	-3
1.05400	-3
1.05767	-3
1.06133	-3
1.06500	-4
1.06867	-4
1.07233	-4
1.07600	-5
1.07967	-5
1.08333	-5
1.08700	-5
1.09067	-5
1.09433	-5
1.09800	-5
1.10167	-5
1.10533	-5
1.10900	-5
1.11267	-6
1.11633	-6
1.12000	-6
1.12367	-6
1.12733	-7
1.13100	-7
1.13467	-7
1.13833	-7
1.14200	-7
1.14567	-6
1.14933	-6
1.15300	-6
1.15667	-6
1.16033	-6
1.16400	-6
1.16767	-6
1.17133	-6
1.17500	-6
1.17867	-6
1.18233	-6
1.18600	-5
1.18967	-5
1.19333	-5
1.19700	-5
1.20067	-5
1.20433	-5
1.20800	-5
1.21167	-5
1.21533	-4
1.21900	-4
1.22267	-4
1.22633	-3
1.23000	-3
1.23367	-3
1.23733	-2
1.24100	-2
1.24467	-2
1.24833	-2
1.25200	-2
1.25567	-2
1.25933	-2
1.26300	-2
1.26667	-2
1.27033	-3
1.27400	-3
1.27767	-3
1.28133	-3
1.28500	-3
1.28867	-4
1.29233	-4
1.29600	-4
1.29967	-3
1.30333	-3
1.30700	-3
1.31067	-3
1.31433	-3
1.31800	-4
1.32167	-4
1.32533	-3
1.32900	-3
1.33267	-3
1.33633	-3
1.34000	-3
1.34367	-4
1.34733	-4
1.35100	-4
1.35467	-4
1.35833	-3
1.36200	-3
1.36567	-3
1.36933	-3
1.37300	-3
1.37667	-3
1.38033	-3
1.38400	-3
1.38767	-3
1.39133	-3
1.39500	-3
1.39867	-3
1.40233	-3
1.40600	-3
1.40967	-3
1.41333	-2
1.41700	-2
1.42067	-2
1.42433	-3
1.42800	-3
1.43167	-3
1.43533	-3
1.43900	-3
1.44267	-4
1.44633	-4
1.45000	-5
1.45367	-5
1.45733	-6
1.46100	-6
1.46467	-6
1.46833	-6
1.47200	-7
1.47567	-7
1.47933	-7
1.48300	-7
1.48667	-7
1.49033	-7
1.49400	-6
1.49767	-7
1.50133	-7
1.50500	-7
1.50867	-7
1.51233	-7
1.51600	-6
1.51967	-6
1.52333	-6
1.52700	-6
1.53067	-6
1.53433	-5
1.53800	-5
1.54167	-5
1.54533	-5
1.54900	-4
1.55267	-4
1.55633	-4
1.56000	-4
1.56367	-4
1.56733	-4
1.57100	-4
1.57467	-4
1.57833	-4
1.58200	-4
1.58567	-3
1.58933	-3
1.59300	-4
1.59667	-4
1.60033	-5
1.60400	-6
1.60767	-8
1.61133	-10
1.61500	-12
1.61867	-14
1.62233	-17
1.62600	-20
1.62967	-23
1.63333	-26
1.63700	-29
1.64067	-33
1.64433	-36
1.64800	-40
1.65167	-44
1.65533	-47
1.65900	-51
1.66267	-56
1.66633	-60
1.67000	-64
1.67367	-69
1.67733	-74
1.68100	-79
1.68467	-84
1.68833	-89
1.69200	-94
1.69567	-98
1.69933	-101
1.70300	-104
1.70667	-107
1.71033	-109
1.71400	-110
1.71767	-111
1.72133	-111
1.72500	-112
1.72867	-112
1.73233	-112
1.73600	-111
1.73967	-111
1.74333	-110
1.74700	-110
1.75067	-109
1.75433	-109
1.75800	-108
1.76167	-107
1.76533	-107
1.76900	-107
1.77267	-107
1.77633	-107
1.78000	-108
1.78367	-109
1.78733	-111
1.79100	-112
1.79467	-113
1.79833	-114
1.80200	-114
1.80567	-115
1.80933	-115
1.81300	-115
1.81667	-115
1.82033	-115
1.82400	-116
1.82767	-116
1.83133	-116
1.83500	-116
1.83867	-117
1.84233	-117
1.84600	-116
1.84967	-116
1.85333	-116
1.85700	-115
1.86067	-115
1.86433	-115
1.86800	-115
1.87167	-115
1.87533	-115
1.87900	-115
1.88267	-115
1.88633	-115
1.89000	-115
1.89367	-115
1.89733	-115
1.90100	-115
1.90467	-115
1.90833	-114
1.91200	-114
1.91567	-113
1.91933	-112
1.92300	-112
1.92667	-112
1.93033	-111
1.93400	-111
1.93767	-110
1.94133	-110
1.94500	-110
1.94867	-111
1.95233	-111
1.95600	-112
1.95967	-112
1.96333	-112
1.96700	-112
1.97067	-112
1.97433	-112
1.97800	-111
1.98167	-111
1.98533	-110
1.98900	-109
1.99267	-109
1.99633	-109
2.00000	-109
2.00367	-109
2.00733	-110
2.01100	-110
2.01467	-109
2.01833	-109
2.02200	-108
2.02567	-107
2.02933	-107
2.03300	-106
2.03667	-105
2.04033	-105
2.04400	-104
2.04767	-104
2.05133	-104
2.05500	-105
2.05867	-105
2.06233	-105
2.06600	-105
2.06967	-105
2.07333	-106
2.07700	-106
2.08067	-106
2.08433	-105
2.08800	-104
2.09167	-103
2.09533	-101
2.09900	-100
2.10267	-100
2.10633	-99
2.11000	-99
2.11367	-99
2.11733	-99
2.12100	-99
2.12467	-99
2.12833	-99
2.13200	-98
2.13567	-98
2.13933	-98
2.14300	-98
2.14667	-97
2.15033	-97
2.15400	-97
2.15767	-96
2.16133	-96
2.16500	-95
2.16867	-95
2.17233	-95
2.17600	-94
2.17967	-94
2.18333	-94
2.18700	-95
2.19067	-95
2.19433	-95
2.19800	-95
2.20167	-95
2.20533	-94
2.20900	-94
2.21267	-93
2.21633	-93
2.22000	-92
2.22367	-91
2.22733	-90
2.23100	-89
2.23467	-88
2.23833	-88
2.24200	-88
2.24567	-88
2.24933	-88
2.25300	-88
2.25667	-88
2.26033	-88
2.26400	-87
2.26767	-87
2.27133	-87
2.27500	-86
2.27867	-87
2.28233	-87
2.28600	-87
2.28967	-88
2.29333	-88
2.29700	-88
2.30067	-87
2.30433	-86
2.30800	-85
2.31167	-83
2.31533	-82
2.31900	-80
2.32267	-79
2.32633	-79
2.33000	-79
2.33367	-80
2.33733	-80
2.34100	-81
2.34467	-81
2.34833	-81
2.35200	-80
2.35567	-79
2.35933	-79
2.36300	-78
2.36667	-77
2.37033	-75
2.37400	-73
2.37767	-70
2.38133	-67
2.38500	-63
2.38867	-59
2.39233	-54
2.39600	-50
2.39967	-45
2.40333	-40
2.40700	-36
2.41067	-31
2.41433	-28
2.41800	-24
2.42167	-22
2.42533	-20
2.42900	-18
2.43267	-17
2.43633	-15
2.44000	-14
2.44367	-13
2.44733	-12
2.45100	-11
2.45467	-9
2.45833	-8
2.46200	-6
2.46567	-5
2.46933	-4
2.47300	-4
2.47667	-3
2.48033	-2
2.48400	-1
2.48767	1
2.49133	2
2.49500	2
2.49867	2
2.50233	3
2.50600	3
2.50967	4
2.51333	5
2.51700	6
2.52067	7
2.52433	9
2.52800	9
2.53167	10
2.53533	10
2.53900	10
2.54267	10
2.54633	11
2.55000	11
2.55367	11
2.55733	12
2.56100	12
2.56467	12
2.56833	13
2.57200	13
2.57567	13
2.57933	13
2.58300	13
2.58667	13
2.59033	13
2.59400	12
2.59767	12
2.60133	12
2.60500	12
2.60867	12
2.61233	12
2.61600	13
2.61967	13
2.62333	14
2.62700	14
2.63067	15
2.63433	15
2.63800	16
2.64167	16
2.64533	16
2.64900	16
2.65267	16
2.65633	16
2.66000	16
2.66367	16
2.66733	16
2.67100	16
2.67467	17
2.67833	17
2.68200	17
2.68567	18
2.68933	18
2.69300	18
2.69667	18
2.70033	19
2.70400	19
2.70767	20
2.71133	20
2.71500	21
2.71867	21
2.72233	22
2.72600	22
2.72967	23
2.73333	23
2.73700	23
2.74067	22
2.74433	22
2.74800	22
2.75167	21
2.75533	21
2.75900	21
2.76267	21
2.76633	21
2.77000	21
2.77367	21
2.77733	21
2.78100	21
2.78467	21
2.78833	21
2.79200	21
2.79567	22
2.79933	22
2.80300	23
2.80667	23
2.81033	24
2.81400	24
2.81767	25
2.82133	25
2.82500	25
2.82867	26
2.83233	26
2.83600	25
2.83967	24
2.84333	22
2.84700	19
2.85067	14
2.85433	5
2.85800	-6
2.86167	-21
2.86533	-41
2.86900	-64
2.87267	-92
2.87633	-124
2.88000	-160
2.88367	-201
2.88733	-244
2.89100	-291
2.89467	-341
2.89833	-393
2.90200	-446
2.90567	-501
2.90933	-556
2.91300	-611
2.91667	-667
2.92033	-722
2.92400	-775
2.92767	-827
2.93133	-879
2.93500	-935
2.93867	-994
2.94233	-1050
2.94600	-1091
2.94967	-1109
2.95333	-1101
2.95700	-1068
2.96067	-1015
2.96433	-947
2.96800	-871
2.97167	-790
2.97533	-709
2.97900	-631
2.98267	-556
2.98633	-487
2.99000	-425
2.99367	-368
2.99733	-318
3.00100	-273
3.00467	-234
3.00833	-200
3.01200	-170
3.01567	-144
3.01933	-122
3.02300	-103
3.02667	-87
3.03033	-73
3.03400	-61
3.03767	-51
3.04133	-42
3.04500	-35
3.04867	-28
3.05233	-22
3.05600	-17
3.05967	-13
3.06333	-9
3.06700	-6
3.07067	-4
3.07433	-1
3.07800	0
3.08167	2
3.08533	4
3.08900	5
3.09267	6
3.09633	7
3.10000	8
3.10367	9
3.10733	10
3.11100	11
3.11467	11
3.11833	12
3.12200	13
3.12567	14
3.12933	14
3.13300	15
3.13667	16
3.14033	16
3.14400	17
3.14767	17
3.15133	18
3.15500	18
3.15867	18
3.16233	18
3.16600	18
3.16967	18
3.17333	18
3.17700	17
3.18067	17
3.18433	17
3.18800	17
3.19167	17
3.19533	17
3.19900	17
3.20267	17
3.20633	17
3.21000	17
3.21367	17
3.21733	17
3.22100	18
3.22467	18
3.22833	18
3.23200	19
3.23567	19
3.23933	19
3.24300	19
3.24667	19
3.25033	19
3.25400	20
3.25767	20
3.26133	21
3.26500	21
3.26867	21
3.27233	22
3.27600	22
3.27967	22
3.28333	22
3.28700	23
3.29067	23
3.29433	23
3.29800	23
3.30167	23
3.30533	23
3.30900	23
3.31267	23
3.31633	23
3.32000	24
3.32367	24
3.32733	24
3.33100	24
3.33467	24
3.33833	24
3.34200	24
3.34567	24
3.34933	24
3.35300	24
3.35667	23
3.36033	23
3.36400	23
3.36767	23
3.37133	23
3.37500	23
3.37867	23
3.38233	23
3.38600	23
3.38967	23
3.39333	23
3.39700	22
3.40067	22
3.40433	22
3.40800	22
3.41167	22
3.41533	22
3.41900	22
3.42267	22
3.42633	22
3.43000	22
3.43367	23
3.43733	23
3.44100	23
3.44467	23
3.44833	23
3.45200	23
3.45567	23
3.45933	23
3.46300	23
3.46667	23
3.47033	23
3.47400	23
3.47767	23
3.48133	23
3.48500	23
3.48867	23
3.49233	23
3.49600	23
3.49967	24
3.50333	24
3.50700	24
3.51067	24
3.51433	24
3.51800	24
3.52167	24
3.52533	24
3.52900	24
3.53267	24
3.53633	24
3.54000	24
3.54367	23
3.54733	23
3.55100	24
3.55467	24
3.55833	24
3.56200	24
3.56567	25
3.56933	25
3.57300	25
3.57667	25
3.58033	25
3.58400	25
3.58767	25
3.59133	25
3.59500	25
3.59867	25
3.60233	25
3.60600	25
3.60967	25
3.61333	25
3.61700	25
3.62067	24
3.62433	24
3.62800	24
3.63167	24
3.63533	24
3.63900	24
3.64267	24
3.64633	24
3.65000	24
3.65367	24
3.65733	24
3.66100	24
3.66467	24
3.66833	24
3.67200	24
3.67567	24
3.67933	23
3.68300	23
3.68667	23
3.69033	23
3.69400	23
3.69767	23
3.70133	23
3.70500	23
3.70867	23
3.71233	23
3.71600	23
3.71967	23
3.72333	23
3.72700	24
3.73067	24
3.73433	24
3.73800	24
3.74167	24
3.74533	24
3.74900	24
3.75267	24
3.75633	23
3.76000	23
3.76367	23
3.76733	23
3.77100	23
3.77467	23
3.77833	23
3.78200	24
3.78567	24
3.78933	24
3.79300	24
3.79667	23
3.80033	23
3.80400	23
3.80767	23
3.81133	23
3.81500	22
3.81867	22
3.82233	22
3.82600	22
3.82967	22
3.83333	22
3.83700	22
3.84067	22
3.84433	22
3.84800	22
3.85167	22
3.85533	22
3.85900	21
3.86267	21
3.86633	21
3.87000	21
3.87367	21
3.87733	21
3.88100	20
3.88467	20
3.88833	20
3.89200	20
3.89567	20
3.89933	20
3.90300	20
3.90667	20
3.91033	20
3.91400	20
3.91767	20
3.92133	20
3.92500	20
3.92867	20
3.93233	21
3.93600	21
3.93967	21
3.94333	21
3.94700	21
3.95067	21
3.95433	21
3.95800	22
3.96167	22
3.96533	22
3.96900	22
3.97267	22
3.97633	23
3.98000	23
3.98367	23
3.98733	23
3.99100	23
3.99467	23
3.99833	23

[Chromatogram (Ch3)]
Interval(msec)	220
# of Points	1091
Start Time(min)	0.002
End Time(min)	3.998
R.Time (min)	Intensity
0.00167	1
0.00533	2
0.00900	1
0.01267	-1
0.01633	-1
0.02000	-1
0.02367	-2
0.02733	-4
0.03100	-4
0.03467	-5
0.03833	-6
0.04200	-6
0.04567	-7
0.04933	-9
0.05300	-12
0.05667	-12
0.06033	-12
0.06400	-11
0.06767	-10
0.07133	-9
0.07500	-8
0.07867	-9
0.08233	-9
0.08600	-9
0.08967	-9
0.09333	-9
0.09700	-10
0.10067	-10
0.10433	-12
0.10800	-12
0.11167	-11
0.11533	-8
0.11900	-6
0.12267	-5
0.12633	-5
0.13000	-2
0.13367	0
0.13733	-1
0.14100	-1
0.14467	-0
0.14833	0
0.15200	0
0.15567	0
0.15933	-1
0.16300	-1
0.16667	-2
0.17033	-5
0.17400	-5
0.17767	-3
0.18133	-2
0.18500	-2
0.18867	-2
0.19233	-2
0.19600	-3
0.19967	-4
0.20333	-5
0.20700	-6
0.21067	-6
0.21433	-7
0.21800	-9
0.22167	-11
0.22533	-11
0.22900	-8
0.23267	-7
0.23633	-8
0.24000	-8
0.24367	-8
0.24733	-7
0.25100	-6
0.25467	-3
0.25833	-1
0.26200	1
0.26567	2
0.26933	-1
0.27300	-3
0.27667	-6
0.28033	-6
0.28400	-7
0.28767	-8
0.29133	-8
0.29500	-9
0.29867	-10
0.30233	-9
0.30600	-8
0.30967	-8
0.31333	-10
0.31700	-10
0.32067	-12
0.32433	-11
0.32800	-9
0.33167	-6
0.33533	-6
0.33900	-6
0.34267	-6
0.34633	-6
0.35000	-8
0.35367	-9
0.35733	-7
0.36100	-8
0.36467	-7
0.36833	-6
0.37200	-4
0.37567	-5
0.37933	-5
0.38300	-5
0.38667	-4
0.39033	-6
0.39400	-9
0.39767	-10
0.40133	-11
0.40500	-9
0.40867	-8
0.41233	-6
0.41600	-6
0.41967	-6
0.42333	-7
0.42700	-9
0.43067	-9
0.43433	-10
0.43800	-8
0.44167	-8
0.44533	-10
0.44900	-11
0.45267	-13
0.45633	-12
0.46000	-10
0.46367	-8
0.46733	-8
0.47100	-7
0.47467	-4
0.47833	-4
0.48200	-2
0.48567	-2
0.48933	-2
0.49300	-3
0.49667	-4
0.50033	-3
0.50400	-4
0.50767	-7
0.51133	-7
0.51500	-6
0.51867	-6
0.52233	-3
0.52600	-0
0.52967	1
0.53333	-0
0.53700	-0
0.54067	-1
0.54433	-3
0.54800	-3
0.55167	-5
0.55533	-4
0.55900	-4
0.56267	-6
0.56633	-7
0.57000	-7
0.57367	-6
0.57733	-3
0.58100	-3
0.58467	-4
0.58833	-6
0.59200	-8
0.59567	-8
0.59933	-6
0.60300	-6
0.60667	-7
0.61033	-7
0.61400	-6
0.61767	-6
0.62133	-6
0.62500	-5
0.62867	-6
0.63233	-6
0.63600	-5
0.63967	-5
0.64333	-5
0.64700	-4
0.65067	-4
0.65433	-3
0.65800	-1
0.66167	0
0.66533	1
0.66900	2
0.67267	2
0.67633	3
0.68000	4
0.68367	4
0.68733	2
0.69100	-1
0.69467	-3
0.69833	-2
0.70200	0
0.70567	3
0.70933	4
0.71300	5
0.71667	3
0.72033	-0
0.72400	-2
0.72767	0
0.73133	1
0.73500	1
0.73867	2
0.74233	3
0.74600	1
0.74967	-0
0.75333	0
0.75700	4
0.76067	6
0.76433	8
0.76800	8
0.77167	9
0.77533	10
0.77900	10
0.78267	9
0.78633	8
0.79000	10
0.79367	10
0.79733	10
0.80100	8
0.80467	6
0.80833	6
0.81200	6
0.81567	4
0.81933	3
0.82300	2
0.82667	1
0.83033	1
0.83400	-0
0.83767	-3
0.84133	-4
0.84500	-6
0.84867	-8
0.85233	-9
0.85600	-9
0.85967	-6
0.86333	-4
0.86700	-3
0.87067	-5
0.87433	-7
0.87800	-5
0.88167	-2
0.88533	-1
0.88900	-3
0.89267	-1
0.89633	-2
0.90000	-4
0.90367	-5
0.90733	-4
0.91100	-2
0.91467	-1
0.91833	-1
0.92200	-1
0.92567	-0
0.92933	-1
0.93300	-3
0.93667	-3
0.94033	-2
0.94400	-2
0.94767	-1
0.95133	-2
0.95500	-4
0.95867	-3
0.96233	-4
0.96600	-5
0.96967	-7
0.97333	-7
0.97700	-6
0.98067	-3
0.98433	-0
0.98800	2
0.99167	3
0.99533	3
0.99900	1
1.00267	5
1.00633	9
1.01000	10
1.01367	9
1.01733	7
1.02100	4
1.02467	1
1.02833	-2
1.03200	-3
1.03567	-3
1.03933	-2
1.04300	-2
1.04667	-3
1.05033	-2
1.05400	-1
1.05767	-1
1.06133	-1
1.06500	-1
1.06867	-0
1.07233	1
1.07600	1
1.07967	2
1.08333	0
1.08700	-1
1.09067	-0
1.09433	3
1.09800	4
1.10167	2
1.10533	1
1.10900	0
1.11267	1
1.11633	3
1.12000	4
1.12367	5
1.12733	6
1.13100	6
1.13467	6
1.13833	4
1.14200	3
1.14567	3
1.14933	2
1.15300	4
1.15667	8
1.16033	9
1.16400	9
1.16767	8
1.17133	8
1.17500	5
1.17867	2
1.18233	-1
1.18600	-3
1.18967	-3
1.19333	-1
1.19700	0
1.20067	1
1.20433	2
1.20800	0
1.21167	-1
1.21533	-4
1.21900	-4
1.22267	-2
1.22633	-0
1.23000	-1
1.23367	-2
1.23733	-2
1.24100	-2
1.24467	-2
1.24833	-1
1.25200	-1
1.25567	-1
1.25933	-3
1.26300	-3
1.26667	-2
1.27033	-2
1.27400	-2
1.27767	-2
1.28133	-3
1.28500	-3
1.28867	-3
1.29233	-4
1.29600	-3
1.29967	-0
1.30333	1
1.30700	0
1.31067	-3
1.31433	-4
1.31800	-5
1.32167	-7
1.32533	-6
1.32900	-9
1.33267	-10
1.33633	-8
1.34000	-7
1.34367	-6
1.34733	-6
1.35100	-6
1.35467	-5
1.35833	-4
1.36200	-4
1.36567	-5
1.36933	-5
1.37300	-6
1.37667	-6
1.38033	-6
1.38400	-8
1.38767	-9
1.39133	-8
1.39500	-8
1.39867	-7
1.40233	-6
1.40600	-5
1.40967	-4
1.41333	-2
1.41700	-1
1.42067	-2
1.42433	-5
1.42800	-5
1.43167	-7
1.43533	-9
1.43900	-8
1.44267	-6
1.44633	-5
1.45000	-4
1.45367	-4
1.45733	-5
1.46100	-4
1.46467	-2
1.46833	-2
1.47200	-4
1.47567	-6
1.47933	-5
1.48300	-4
1.48667	-4
1.49033	-4
1.49400	-4
1.49767	-4
1.50133	-2
1.50500	-1
1.50867	-0
1.51233	-1
1.51600	-1
1.51967	-2
1.52333	-2
1.52700	-2
1.53067	-0
1.53433	1
1.53800	3
1.54167	3
1.54533	4
1.54900	4
1.55267	2
1.55633	2
1.56000	4
1.56367	6
1.56733	4
1.57100	5
1.57467	3
1.57833	2
1.58200	1
1.58567	0
1.58933	-1
1.59300	-1
1.59667	1
1.60033	3
1.60400	2
1.60767	-1
1.61133	-3
1.61500	-3
1.61867	-2
1.62233	-1
1.62600	-2
1.62967	-3
1.63333	-1
1.63700	1
1.64067	2
1.64433	2
1.64800	1
1.65167	1
1.65533	2
1.65900	4
1.66267	6
1.66633	6
1.67000	4
1.67367	4
1.67733	7
1.68100	9
1.68467	11
1.68833	13
1.69200	15
1.69567	16
1.69933	16
1.70300	15
1.70667	12
1.71033	8
1.71400	8
1.71767	9
1.72133	11
1.72500	12
1.72867	15
1.73233	18
1.73600	19
1.73967	19
1.74333	19
1.74700	19
1.75067	21
1.75433	21
1.75800	20
1.76167	21
1.76533	22
1.76900	23
1.77267	26
1.77633	27
1.78000	27
1.78367	25
1.78733	22
1.79100	22
1.79467	23
1.79833	25
1.80200	30
1.80567	33
1.80933	34
1.81300	34
1.81667	34
1.82033	34
1.82400	34
1.82767	36
1.83133	38
1.83500	39
1.83867	40
1.84233	39
1.84600	39
1.84967	39
1.85333	41
1.85700	42
1.86067	45
1.86433	46
1.86800	47
1.87167	49
1.87533	48
1.87900	48
1.88267	47
1.88633	46
1.89000	49
1.89367	53
1.89733	54
1.90100	53
1.90467	50
1.90833	48
1.91200	48
1.91567	50
1.91933	52
1.92300	54
1.92667	56
1.93033	55
1.93400	54
1.93767	54
1.94133	54
1.94500	54
1.94867	54
1.95233	55
1.95600	55
1.95967	56
1.96333	58
1.96700	59
1.97067	60
1.97433	62
1.97800	64
1.98167	65
1.98533	66
1.98900	67
1.99267	68
1.99633	67
2.00000	66
2.00367	68
2.00733	71
2.01100	73
2.01467	76
2.01833	78
2.02200	79
2.02567	79
2.02933	80
2.03300	81
2.03667	80
2.04033	81
2.04400	81
2.04767	84
2.05133	89
2.05500	93
2.05867	95
2.06233	94
2.06600	92
2.06967	92
2.07333	92
2.07700	95
2.08067	98
2.08433	103
2.08800	107
2.09167	108
2.09533	108
2.09900	108
2.10267	108
2.10633	108
2.11000	109
2.11367	109
2.11733	109
2.12100	110
2.12467	112
2.12833	114
2.13200	116
2.13567	118
2.13933	120
2.14300	120
2.14667	121
2.15033	123
2.15400	125
2.15767	124
2.16133	125
2.16500	126
2.16867	124
2.17233	124
2.17600	127
2.17967	127
2.18333	127
2.18700	130
2.19067	133
2.19433	135
2.19800	136
2.20167	138
2.20533	140
2.20900	143
2.21267	144
2.21633	144
2.22000	145
2.22367	147
2.22733	147
2.23100	149
2.23467	151
2.23833	153
2.24200	155
2.24567	159
2.24933	160
2.25300	163
2.25667	165
2.26033	166
2.26400	165
2.26767	165
2.27133	166
2.27500	166
2.27867	166
2.28233	169
2.28600	171
2.28967	172
2.29333	173
2.29700	174
2.30067	177
2.30433	180
2.30800	183
2.31167	187
2.31533	190
2.31900	193
2.32267	199
2.32633	203
2.33000	204
2.33367	205
2.33733	206
2.34100	205
2.34467	204
2.34833	205
2.35200	207
2.35567	210
2.35933	213
2.36300	214
2.36667	213
2.37033	213
2.37400	214
2.37767	215
2.38133	217
2.38500	219
2.38867	219
2.39233	219
2.39600	221
2.39967	226
2.40333	231
2.40700	236
2.41067	241
2.41433	245
2.41800	248
2.42167	250
2.42533	251
2.42900	253
2.43267	256
2.43633	257
2.44000	260
2.44367	315
2.44733	457
2.45100	609
2.45467	733
2.45833	804
2.46200	812
2.46567	783
2.46933	743
2.47300	711
2.47667	694
2.48033	680
2.48400	658
2.48767	622
2.49133	580
2.49500	538
2.49867	502
2.50233	472
2.50600	453
2.50967	441
2.51333	437
2.51700	441
2.52067	455
2.52433	475
2.52800	497
2.53167	514
2.53533	520
2.53900	514
2.54267	497
2.54633	470
2.55000	439
2.55367	410
2.55733	385
2.56100	366
2.56467	349
2.56833	337
2.57200	327
2.57567	319
2.57933	314
2.58300	312
2.58667	312
2.59033	312
2.59400	311
2.59767	308
2.60133	302
2.60500	293
2.60867	284
2.61233	274
2.61600	260
2.61967	250
2.62333	242
2.62700	235
2.63067	230
2.63433	228
2.63800	230
2.64167	235
2.64533	241
2.64900	245
2.65267	248
2.65633	249
2.66000	248
2.66367	246
2.66733	243
2.67100	237
2.67467	230
2.67833	224
2.68200	217
2.68567	209
2.68933	200
2.69300	193
2.69667	184
2.70033	178
2.70400	173
2.70767	170
2.71133	166
2.71500	166
2.71867	166
2.72233	165
2.72600	166
2.72967	169
2.73333	170
2.73700	170
2.74067	170
2.74433	171
2.74800	171
2.75167	174
2.75533	173
2.75900	170
2.76267	169
2.76633	169
2.77000	171
2.77367	173
2.77733	174
2.78100	175
2.78467	176
2.78833	176
2.79200	177
2.79567	178
2.79933	179
2.80300	183
2.80667	186
2.81033	188
2.81400	189
2.81767	194
2.82133	207
2.82500	232
2.82867	287
2.83233	392
2.83600	568
2.83967	838
2.84333	1215
2.84700	1699
2.85067	2273
2.85433	2897
2.85800	3523
2.86167	4105
2.86533	4592
2.86900	4949
2.87267	5163
2.87633	5226
2.88000	5148
2.88367	4956
2.88733	4680
2.89100	4352
2.89467	3995
2.89833	3629
2.90200	3271
2.90567	2930
2.90933	2616
2.91300	2329
2.91667	2070
2.92033	1838
2.92400	1635
2.92767	1455
2.93133	1295
2.93500	1156
2.93867	1033
2.94233	926
2.94600	832
2.94967	750
2.95333	680
2.95700	619
2.96067	567
2.96433	522
2.96800	484
2.97167	450
2.97533	417
2.97900	386
2.98267	361
2.98633	340
2.99000	323
2.99367	307
2.99733	291
3.00100	277
3.00467	265
3.00833	254
3.01200	245
3.01567	239
3.01933	233
3.02300	227
3.02667	222
3.03033	216
3.03400	210
3.03767	206
3.04133	200
3.04500	195
3.04867	191
3.05233	180
3.05600	147
3.05967	118
3.06333	108
3.06700	118
3.07067	144
3.07433	178
3.07800	220
3.08167	262
3.08533	300
3.08900	334
3.09267	364
3.09633	395
3.10000	422
3.10367	445
3.10733	467
3.11100	486
3.11467	501
3.11833	517
3.12200	531
3.12567	542
3.12933	555
3.13300	564
3.13667	570
3.14033	575
3.14400	580
3.14767	585
3.15133	591
3.15500	593
3.15867	596
3.16233	597
3.16600	599
3.16967	603
3.17333	610
3.17700	616
3.18067	619
3.18433	622
3.18800	624
3.19167	627
3.19533	631
3.19900	637
3.20267	643
3.20633	650
3.21000	656
3.21367	657
3.21733	657
3.22100	658
3.22467	659
3.22833	660
3.23200	663
3.23567	664
3.23933	666
3.24300	666
3.24667	667
3.25033	671
3.25400	673
3.25767	673
3.26133	671
3.26500	671
3.26867	674
3.27233	676
3.27600	678
3.27967	679
3.28333	680
3.28700	681
3.29067	681
3.29433	682
3.29800	683
3.30167	684
3.30533	684
3.30900	685
3.31267	688
3.31633	688
3.32000	688
3.32367	690
3.32733	692
3.33100	692
3.33467	694
3.33833	694
3.34200	696
3.34567	700
3.34933	702
3.35300	702
3.35667	702
3.36033	702
3.36400	705
3.36767	705
3.37133	705
3.37500	704
3.37867	704
3.38233	700
3.38600	697
3.38967	697
3.39333	699
3.39700	701
3.40067	701
3.40433	700
3.40800	699
3.41167	700
3.41533	699
3.41900	699
3.42267	697
3.42633	694
3.43000	691
3.43367	691
3.43733	691
3.44100	693
3.44467	693
3.44833	689
3.45200	686
3.45567	682
3.45933	680
3.46300	679
3.46667	677
3.47033	674
3.47400	673
3.47767	672
3.48133	670
3.48500	669
3.48867	670
3.49233	670
3.49600	668
3.49967	666
3.50333	663
3.50700	660
3.51067	660
3.51433	664
3.51800	664
3.52167	663
3.52533	661
3.52900	657
3.53267	655
3.53633	654
3.54000	652
3.54367	647
3.54733	645
3.55100	644
3.55467	644
3.55833	645
3.56200	645
3.56567	642
3.56933	641
3.57300	641
3.57667	643
3.58033	642
3.58400	640
3.58767	639
3.59133	638
3.59500	637
3.59867	636
3.60233	634
3.60600	635
3.60967	636
3.61333	636
3.61700	638
3.62067	638
3.62433	637
3.62800	637
3.63167	638
3.63533	641
3.63900	643
3.64267	643
3.64633	640
3.65000	638
3.65367	638
3.65733	638
3.66100	639
3.66467	638
3.66833	634
3.67200	632
3.67567	632
3.67933	633
3.68300	634
3.68667	634
3.69033	632
3.69400	629
3.69767	628
3.70133	628
3.70500	626
3.70867	625
3.71233	622
3.71600	620
3.71967	621
3.72333	621
3.72700	620
3.73067	617
3.73433	616
3.73800	616
3.74167	617
3.74533	620
3.74900	621
3.75267	621
3.75633	622
3.76000	621
3.76367	618
3.76733	616
3.77100	616
3.77467	615
3.77833	614
3.78200	615
3.78567	617
3.78933	618
3.79300	618
3.79667	616
3.80033	614
3.80400	611
3.80767	611
3.81133	608
3.81500	603
3.81867	601
3.82233	599
3.82600	598
3.82967	596
3.83333	594
3.83700	594
3.84067	595
3.84433	593
3.84800	592
3.85167	592
3.85533	590
3.85900	588
3.86267	586
3.86633	584
3.87000	581
3.87367	580
3.87733	579
3.88100	580
3.88467	579
3.88833	576
3.89200	571
3.89567	568
3.89933	567
3.90300	565
3.90667	565
3.91033	566
3.91400	564
3.91767	560
3.92133	557
3.92500	556
3.92867	556
3.93233	555
3.93600	552
3.93967	550
3.94333	550
3.94700	550
3.95067	551
3.95433	550
3.95800	547
3.96167	541
3.96533	539
3.96900	539
3.97267	540
3.97633	538
3.98000	537
3.98367	538
3.98733	538
3.99100	537
3.99467	534
3.99833	528

[Status Trace (Column Oven Temperature)]
Interval(msec)	1000
# of Points	240
Start Time(min)	0.007
End Time(min)	3.991
Intensity Units	
Intensity Multiplier	1
R.Time (min)	Intensity
0.00745	35.05
0.02412	35.04
0.04078	35.03
0.05745	35.02
0.07412	35.02
0.09078	35.02
0.10745	35.02
0.12412	35.02
0.14078	35.02
0.15745	35.03
0.17412	35.04
0.19078	35.04
0.20745	35.03
0.22412	35.03
0.24078	35.03
0.25745	35.03
0.27412	35.03
0.29078	35.02
0.30745	35.02
0.32412	35.02
0.34078	35.02
0.35745	35.03
0.37412	35.03
0.39078	35.03
0.40745	35.03
0.42412	35.02
0.44078	35.01
0.45745	35.02
0.47412	35.03
0.49078	35.02
0.50745	35.01
0.52412	35.01
0.54078	35.01
0.55745	34.99
0.57412	34.99
0.59078	34.98
0.60745	34.97
0.62412	34.97
0.64078	34.98
0.65745	34.99
0.67412	34.99
0.69078	34.99
0.70745	34.99
0.72412	34.99
0.74078	34.98
0.75745	34.98
0.77412	34.98
0.79078	34.98
0.80745	34.98
0.82412	34.99
0.84078	34.99
0.85745	35.00
0.87412	35.01
0.89078	35.00
0.90745	35.00
0.92412	35.00
0.94078	34.99
0.95745	34.99
0.97412	34.98
0.99078	34.98
1.00745	34.99
1.02412	34.98
1.04078	34.98
1.05745	34.98
1.07412	34.98
1.09078	34.98
1.10745	34.99
1.12412	35.01
1.14078	35.01
1.15745	35.02
1.17412	35.02
1.19078	35.02
1.20745	35.02
1.22412	35.01
1.24078	35.01
1.25745	35.00
1.27412	35.00
1.29078	34.99
1.30745	35.00
1.32412	34.99
1.34078	35.00
1.35745	35.00
1.37412	34.99
1.39078	34.98
1.40745	34.98
1.42412	34.98
1.44078	34.98
1.45745	35.00
1.47412	35.01
1.49078	35.02
1.50745	35.02
1.52412	35.02
1.54078	35.01
1.55745	35.01
1.57412	35.00
1.59078	35.00
1.60745	35.05
1.62412	35.17
1.64078	35.37
1.65745	35.61
1.67412	35.95
1.69078	36.34
1.70745	36.71
1.72412	37.05
1.74078	37.36
1.75745	37.65
1.77412	37.97
1.79078	38.33
1.80745	38.66
1.82412	39.00
1.84078	39.33
1.85745	39.66
1.87412	39.99
1.89078	40.32
1.90745	40.63
1.92412	40.97
1.94078	41.28
1.95745	41.62
1.97412	41.94
1.99078	42.26
2.00745	42.59
2.02412	42.91
2.04078	43.23
2.05745	43.55
2.07412	43.91
2.09078	44.22
2.10745	44.54
2.12412	44.86
2.14078	45.20
2.15745	45.52
2.17412	45.84
2.19078	46.17
2.20745	46.51
2.22412	46.84
2.24078	47.16
2.25745	47.48
2.27412	47.81
2.29078	48.18
2.30745	48.48
2.32412	48.80
2.34078	49.14
2.35745	49.43
2.37412	49.62
2.39078	49.70
2.40745	49.68
2.42412	49.69
2.44078	49.70
2.45745	49.70
2.47412	49.71
2.49078	49.72
2.50745	49.73
2.52412	49.74
2.54078	49.75
2.55745	49.76
2.57412	49.77
2.59078	49.79
2.60745	49.81
2.62412	49.81
2.64078	49.82
2.65745	49.83
2.67412	49.84
2.69078	49.85
2.70745	49.86
2.72412	49.85
2.74078	49.86
2.75745	49.88
2.77412	49.89
2.79078	49.88
2.80745	49.88
2.82412	49.87
2.84078	49.87
2.85745	49.87
2.87412	49.86
2.89078	49.87
2.90745	49.88
2.92412	49.91
2.94078	49.93
2.95745	49.95
2.97412	49.97
2.99078	49.99
3.00745	50.00
3.02412	50.02
3.04078	50.03
3.05745	50.04
3.07412	50.05
3.09078	50.05
3.10745	50.05
3.12412	50.04
3.14078	50.04
3.15745	50.05
3.17412	50.07
3.19078	50.08
3.20745	50.09
3.22412	50.10
3.24078	50.11
3.25745	50.10
3.27412	50.10
3.29078	50.08
3.30745	50.07
3.32412	50.06
3.34078	50.06
3.35745	50.06
3.37412	50.07
3.39078	50.07
3.40745	50.09
3.42412	50.09
3.44078	50.08
3.45745	50.08
3.47412	50.08
3.49078	50.08
3.50745	50.08
3.52412	50.08
3.54078	50.07
3.55745	50.07
3.57412	50.06
3.59078	50.05
3.60745	50.05
3.62412	50.05
3.64078	50.06
3.65745	50.05
3.67412	50.05
3.69078	50.05
3.70745	50.05
3.72412	50.05
3.74078	50.05
3.75745	50.06
3.77412	50.04
3.79078	50.04
3.80745	50.05
3.82412	50.05
3.84078	50.06
3.85745	50.07
3.87412	50.08
3.89078	50.10
3.90745	50.09
3.92412	50.10
3.94078	50.10
3.95745	50.10
3.97412	50.09
3.99078	50.08

[Status Trace (Injection Unit Temperature)]
Interval(msec)	1000
# of Points	240
Start Time(min)	0.007
End Time(min)	3.991
Intensity Units	
Intensity Multiplier	1
R.Time (min)	Intensity
0.00745	99.98
0.02412	99.98
0.04078	99.98
0.05745	99.98
0.07412	99.98
0.09078	99.98
0.10745	99.98
0.12412	99.98
0.14078	99.98
0.15745	99.98
0.17412	99.98
0.19078	99.98
0.20745	99.97
0.22412	99.98
0.24078	99.98
0.25745	99.98
0.27412	99.98
0.29078	99.98
0.30745	99.98
0.32412	99.98
0.34078	99.98
0.35745	99.98
0.37412	99.98
0.39078	99.98
0.40745	99.98
0.42412	99.98
0.44078	99.98
0.45745	99.98
0.47412	99.98
0.49078	99.98
0.50745	99.98
0.52412	99.98
0.54078	99.98
0.55745	99.98
0.57412	99.98
0.59078	99.98
0.60745	99.98
0.62412	99.98
0.64078	99.98
0.65745	99.98
0.67412	99.98
0.69078	99.98
0.70745	99.98
0.72412	99.98
0.74078	99.98
0.75745	99.98
0.77412	99.98
0.79078	99.98
0.80745	99.98
0.82412	99.98
0.84078	99.98
0.85745	99.98
0.87412	99.98
0.89078	99.98
0.90745	99.98
0.92412	99.99
0.94078	99.98
0.95745	99.99
0.97412	99.99
0.99078	99.98
1.00745	99.98
1.02412	99.99
1.04078	99.98
1.05745	99.99
1.07412	99.98
1.09078	99.99
1.10745	99.99
1.12412	99.98
1.14078	99.98
1.15745	99.98
1.17412	99.98
1.19078	99.98
1.20745	99.98
1.22412	99.99
1.24078	99.98
1.25745	99.98
1.27412	99.98
1.29078	99.98
1.30745	99.98
1.32412	99.98
1.34078	99.98
1.35745	99.98
1.37412	99.98
1.39078	99.98
1.40745	99.97
1.42412	99.98
1.44078	99.98
1.45745	99.98
1.47412	99.98
1.49078	99.98
1.50745	99.98
1.52412	99.98
1.54078	99.98
1.55745	99.98
1.57412	99.98
1.59078	99.98
1.60745	99.97
1.62412	99.98
1.64078	99.98
1.65745	99.98
1.67412	99.98
1.69078	99.98
1.70745	99.98
1.72412	99.98
1.74078	99.98
1.75745	99.98
1.77412	99.98
1.79078	99.98
1.80745	99.98
1.82412	99.98
1.84078	99.98
1.85745	99.98
1.87412	99.98
1.89078	99.98
1.90745	99.98
1.92412	99.98
1.94078	99.98
1.95745	99.98
1.97412	99.97
1.99078	99.98
2.00745	99.98
2.02412	99.98
2.04078	99.97
2.05745	99.98
2.07412	99.97
2.09078	99.97
2.10745	99.97
2.12412	99.97
2.14078	99.97
2.15745	99.97
2.17412	99.97
2.19078	99.97
2.20745	99.96
2.22412	99.97
2.24078	99.97
2.25745	99.97
2.27412	99.97
2.29078	99.97
2.30745	99.96
2.32412	99.96
2.34078	99.96
2.35745	99.97
2.37412	99.96
2.39078	99.96
2.40745	99.96
2.42412	99.96
2.44078	99.96
2.45745	99.97
2.47412	99.97
2.49078	99.97
2.50745	99.97
2.52412	99.97
2.54078	99.97
2.55745	99.97
2.57412	99.97
2.59078	99.97
2.60745	99.97
2.62412	99.98
2.64078	99.97
2.65745	99.98
2.67412	99.98
2.69078	99.99
2.70745	99.99
2.72412	99.98
2.74078	99.99
2.75745	99.99
2.77412	99.99
2.79078	99.99
2.80745	99.99
2.82412	100.00
2.84078	100.00
2.85745	100.00
2.87412	100.00
2.89078	100.00
2.90745	100.00
2.92412	100.01
2.94078	100.01
2.95745	100.01
2.97412	100.01
2.99078	100.01
3.00745	100.01
3.02412	100.02
3.04078	100.02
3.05745	100.02
3.07412	100.02
3.09078	100.02
3.10745	100.02
3.12412	100.02
3.14078	100.02
3.15745	100.02
3.17412	100.03
3.19078	100.03
3.20745	100.03
3.22412	100.03
3.24078	100.03
3.25745	100.03
3.27412	100.03
3.29078	100.03
3.30745	100.03
3.32412	100.03
3.34078	100.03
3.35745	100.03
3.37412	100.03
3.39078	100.03
3.40745	100.04
3.42412	100.03
3.44078	100.04
3.45745	100.04
3.47412	100.04
3.49078	100.04
3.50745	100.04
3.52412	100.04
3.54078	100.04
3.55745	100.04
3.57412	100.04
3.59078	100.04
3.60745	100.04
3.62412	100.04
3.64078	100.03
3.65745	100.04
3.67412	100.04
3.69078	100.04
3.70745	100.04
3.72412	100.04
3.74078	100.04
3.75745	100.04
3.77412	100.04
3.79078	100.04
3.80745	100.04
3.82412	100.04
3.84078	100.04
3.85745	100.04
3.87412	100.04
3.89078	100.04
3.90745	100.04
3.92412	100.04
3.94078	100.05
3.95745	100.04
3.97412	100.04
3.99078	100.04

[Status Trace (Carrier Gas Pressure)]
Interval(msec)	1000
# of Points	240
Start Time(min)	0.007
End Time(min)	3.991
Intensity Units	
Intensity Multiplier	1
R.Time (min)	Intensity
0.00745	58.00
0.02412	55.44
0.04078	57.09
0.05745	59.15
0.07412	59.49
0.09078	58.07
0.10745	57.98
0.12412	58.01
0.14078	58.01
0.15745	58.01
0.17412	58.00
0.19078	58.00
0.20745	58.00
0.22412	58.00
0.24078	58.00
0.25745	58.00
0.27412	58.00
0.29078	58.00
0.30745	58.00
0.32412	58.00
0.34078	58.00
0.35745	58.00
0.37412	58.00
0.39078	58.00
0.40745	58.00
0.42412	58.00
0.44078	58.00
0.45745	58.00
0.47412	58.00
0.49078	58.00
0.50745	58.00
0.52412	58.00
0.54078	58.00
0.55745	58.00
0.57412	58.00
0.59078	58.00
0.60745	58.00
0.62412	58.00
0.64078	58.00
0.65745	58.00
0.67412	58.00
0.69078	58.00
0.70745	58.00
0.72412	58.00
0.74078	58.00
0.75745	58.00
0.77412	58.00
0.79078	58.00
0.80745	58.00
0.82412	58.00
0.84078	58.00
0.85745	58.00
0.87412	58.00
0.89078	58.00
0.90745	58.00
0.92412	58.00
0.94078	58.00
0.95745	58.00
0.97412	58.00
0.99078	58.00
1.00745	58.00
1.02412	58.00
1.04078	58.00
1.05745	58.00
1.07412	58.00
1.09078	58.00
1.10745	58.00
1.12412	58.00
1.14078	58.00
1.15745	58.00
1.17412	58.00
1.19078	58.00
1.20745	58.00
1.22412	58.00
1.24078	58.00
1.25745	58.00
1.27412	58.00
1.29078	58.00
1.30745	58.00
1.32412	58.00
1.34078	58.00
1.35745	58.00
1.37412	58.00
1.39078	58.00
1.40745	58.00
1.42412	58.00
1.44078	58.00
1.45745	58.00
1.47412	58.00
1.49078	58.00
1.50745	58.00
1.52412	58.00
1.54078	58.00
1.55745	58.00
1.57412	58.00
1.59078	58.00
1.60745	58.00
1.62412	58.00
1.64078	58.00
1.65745	58.00
1.67412	58.01
1.69078	58.01
1.70745	58.00
1.72412	58.00
1.74078	58.00
1.75745	58.00
1.77412	58.00
1.79078	58.00
1.80745	58.00
1.82412	58.00
1.84078	58.00
1.85745	58.00
1.87412	58.00
1.89078	58.00
1.90745	58.00
1.92412	58.00
1.94078	58.00
1.95745	58.00
1.97412	58.00
1.99078	58.00
2.00745	58.00
2.02412	58.00
2.04078	58.00
2.05745	58.00
2.07412	58.00
2.09078	58.00
2.10745	58.00
2.12412	58.00
2.14078	58.00
2.15745	58.00
2.17412	58.00
2.19078	58.00
2.20745	58.00
2.22412	58.00
2.24078	58.00
2.25745	58.00
2.27412	58.00
2.29078	58.00
2.30745	58.00
2.32412	58.00
2.34078	58.00
2.35745	58.00
2.37412	58.00
2.39078	57.99
2.40745	57.99
2.42412	58.00
2.44078	58.00
2.45745	58.00
2.47412	58.00
2.49078	58.00
2.50745	58.00
2.52412	57.98
2.54078	58.00
2.55745	58.00
2.57412	58.00
2.59078	58.00
2.60745	58.00
2.62412	58.00
2.64078	58.00
2.65745	58.00
2.67412	58.00
2.69078	58.00
2.70745	58.00
2.72412	58.00
2.74078	58.00
2.75745	58.00
2.77412	58.00
2.79078	58.00
2.80745	58.00
2.82412	58.00
2.84078	58.00
2.85745	58.00
2.87412	58.00
2.89078	58.00
2.90745	58.00
2.92412	58.00
2.94078	58.00
2.95745	58.00
2.97412	58.00
2.99078	58.00
3.00745	58.00
3.02412	58.00
3.04078	58.00
3.05745	58.00
3.07412	58.00
3.09078	58.00
3.10745	58.00
3.12412	58.00
3.14078	58.00
3.15745	58.00
3.17412	58.00
3.19078	58.00
3.20745	58.00
3.22412	58.00
3.24078	58.00
3.25745	58.00
3.27412	58.00
3.29078	58.00
3.30745	58.00
3.32412	58.00
3.34078	58.00
3.35745	58.00
3.37412	58.00
3.39078	58.00
3.40745	58.00
3.42412	58.00
3.44078	58.00
3.45745	58.00
3.47412	58.00
3.49078	58.00
3.50745	58.00
3.52412	58.00
3.54078	58.00
3.55745	58.00
3.57412	58.00
3.59078	58.00
3.60745	58.00
3.62412	58.00
3.64078	58.00
3.65745	58.00
3.67412	58.00
3.69078	58.00
3.70745	58.00
3.72412	58.00
3.74078	58.00
3.75745	58.00
3.77412	58.00
3.79078	58.00
3.80745	58.00
3.82412	58.00
3.84078	58.00
3.85745	58.00
3.87412	58.00
3.89078	58.00
3.90745	58.00
3.92412	58.00
3.94078	58.00
3.95745	58.00
3.97412	58.00
3.99078	58.00

[Status Trace (Carrier Gas Flow)]
Interval(msec)	1000
# of Points	240
Start Time(min)	0.007
End Time(min)	3.991
Intensity Units	
Intensity Multiplier	1
R.Time (min)	Intensity
0.00745	34.52
0.02412	34.53
0.04078	34.55
0.05745	34.55
0.07412	34.50
0.09078	34.52
0.10745	34.52
0.12412	34.52
0.14078	34.52
0.15745	34.52
0.17412	34.52
0.19078	34.52
0.20745	34.52
0.22412	34.52
0.24078	34.52
0.25745	34.52
0.27412	34.52
0.29078	34.52
0.30745	34.52
0.32412	34.52
0.34078	34.51
0.35745	34.51
0.37412	34.53
0.39078	34.53
0.40745	34.52
0.42412	34.51
0.44078	34.52
0.45745	34.52
0.47412	34.52
0.49078	34.51
0.50745	34.52
0.52412	34.51
0.54078	34.52
0.55745	34.52
0.57412	34.52
0.59078	34.52
0.60745	34.52
0.62412	34.52
0.64078	34.52
0.65745	34.52
0.67412	34.52
0.69078	34.52
0.70745	34.51
0.72412	34.52
0.74078	34.51
0.75745	34.51
0.77412	34.51
0.79078	34.52
0.80745	34.52
0.82412	34.51
0.84078	34.52
0.85745	34.52
0.87412	34.52
0.89078	34.52
0.90745	34.52
0.92412	34.52
0.94078	34.52
0.95745	34.52
0.97412	34.52
0.99078	34.52
1.00745	34.52
1.02412	34.52
1.04078	34.52
1.05745	34.52
1.07412	34.53
1.09078	34.52
1.10745	34.52
1.12412	34.52
1.14078	34.52
1.15745	34.52
1.17412	34.51
1.19078	34.52
1.20745	34.52
1.22412	34.52
1.24078	34.52
1.25745	34.52
1.27412	34.52
1.29078	34.52
1.30745	34.52
1.32412	34.52
1.34078	34.51
1.35745	34.52
1.37412	34.52
1.39078	34.52
1.40745	34.52
1.42412	34.52
1.44078	34.52
1.45745	34.52
1.47412	34.52
1.49078	34.52
1.50745	34.52
1.52412	34.52
1.54078	34.52
1.55745	34.52
1.57412	34.52
1.59078	34.52
1.60745	34.51
1.62412	34.52
1.64078	34.52
1.65745	34.51
1.67412	34.52
1.69078	34.53
1.70745	34.52
1.72412	34.51
1.74078	34.53
1.75745	34.52
1.77412	34.51
1.79078	34.52
1.80745	34.53
1.82412	34.52
1.84078	34.52
1.85745	34.52
1.87412	34.52
1.89078	34.52
1.90745	34.51
1.92412	34.52
1.94078	34.52
1.95745	34.52
1.97412	34.52
1.99078	34.52
2.00745	34.52
2.02412	34.52
2.04078	34.52
2.05745	34.52
2.07412	34.52
2.09078	34.52
2.10745	34.52
2.12412	34.52
2.14078	34.52
2.15745	34.52
2.17412	34.52
2.19078	34.52
2.20745	34.52
2.22412	34.52
2.24078	34.52
2.25745	34.52
2.27412	34.52
2.29078	34.52
2.30745	34.52
2.32412	34.51
2.34078	34.52
2.35745	34.52
2.37412	34.52
2.39078	34.52
2.40745	34.52
2.42412	34.52
2.44078	34.52
2.45745	34.51
2.47412	34.52
2.49078	34.52
2.50745	34.33
2.52412	34.52
2.54078	34.52
2.55745	34.52
2.57412	34.52
2.59078	34.52
2.60745	34.52
2.62412	34.52
2.64078	34.52
2.65745	34.52
2.67412	34.51
2.69078	34.52
2.70745	34.52
2.72412	34.52
2.74078	34.52
2.75745	34.52
2.77412	34.52
2.79078	34.52
2.80745	34.52
2.82412	34.52
2.84078	34.52
2.85745	34.52
2.87412	34.52
2.89078	34.52
2.90745	34.52
2.92412	34.52
2.94078	34.52
2.95745	34.52
2.97412	34.52
2.99078	34.52
3.00745	34.51
3.02412	34.52
3.04078	34.52
3.05745	34.51
3.07412	34.51
3.09078	34.52
3.10745	34.52
3.12412	34.52
3.14078	34.52
3.15745	34.52
3.17412	34.52
3.19078	34.52
3.20745	34.52
3.22412	34.52
3.24078	34.52
3.25745	34.52
3.27412	34.52
3.29078	34.51
3.30745	34.52
3.32412	34.52
3.34078	34.53
3.35745	34.52
3.37412	34.53
3.39078	34.52
3.40745	34.52
3.42412	34.52
3.44078	34.52
3.45745	34.52
3.47412	34.52
3.49078	34.52
3.50745	34.52
3.52412	34.52
3.54078	34.52
3.55745	34.51
3.57412	34.52
3.59078	34.52
3.60745	34.52
3.62412	34.52
3.64078	34.52
3.65745	34.52
3.67412	34.52
3.69078	34.52
3.70745	34.52
3.72412	34.52
3.74078	34.52
3.75745	34.52
3.77412	34.52
3.79078	34.52
3.80745	34.52
3.82412	34.52
3.84078	34.52
3.85745	34.52
3.87412	34.52
3.89078	34.52
3.90745	34.52
3.92412	34.51
3.94078	34.52
3.95745	34.52
3.97412	34.52
3.99078	34.52

[Status Trace (Column Flow)]
Interval(msec)	1000
# of Points	240
Start Time(min)	0.007
End Time(min)	3.991
Intensity Units	
Intensity Multiplier	1
R.Time (min)	Intensity
0.00745	5.52
0.02412	5.22
0.04078	5.41
0.05745	5.65
0.07412	5.69
0.09078	5.53
0.10745	5.52
0.12412	5.52
0.14078	5.52
0.15745	5.52
0.17412	5.52
0.19078	5.52
0.20745	5.52
0.22412	5.52
0.24078	5.52
0.25745	5.52
0.27412	5.52
0.29078	5.52
0.30745	5.52
0.32412	5.52
0.34078	5.52
0.35745	5.52
0.37412	5.52
0.39078	5.52
0.40745	5.52
0.42412	5.52
0.44078	5.52
0.45745	5.52
0.47412	5.52
0.49078	5.52
0.50745	5.52
0.52412	5.52
0.54078	5.52
0.55745	5.52
0.57412	5.52
0.59078	5.52
0.60745	5.52
0.62412	5.52
0.64078	5.52
0.65745	5.52
0.67412	5.52
0.69078	5.52
0.70745	5.52
0.72412	5.52
0.74078	5.52
0.75745	5.52
0.77412	5.52
0.79078	5.52
0.80745	5.52
0.82412	5.52
0.84078	5.52
0.85745	5.52
0.87412	5.52
0.89078	5.52
0.90745	5.52
0.92412	5.52
0.94078	5.52
0.95745	5.52
0.97412	5.52
0.99078	5.52
1.00745	5.52
1.02412	5.52
1.04078	5.52
1.05745	5.52
1.07412	5.52
1.09078	5.52
1.10745	5.52
1.12412	5.52
1.14078	5.52
1.15745	5.52
1.17412	5.52
1.19078	5.52
1.20745	5.52
1.22412	5.52
1.24078	5.52
1.25745	5.52
1.27412	5.52
1.29078	5.52
1.30745	5.52
1.32412	5.52
1.34078	5.52
1.35745	5.52
1.37412	5.52
1.39078	5.52
1.40745	5.52
1.42412	5.52
1.44078	5.52
1.45745	5.52
1.47412	5.52
1.49078	5.52
1.50745	5.52
1.52412	5.52
1.54078	5.52
1.55745	5.52
1.57412	5.52
1.59078	5.52
1.60745	5.52
1.62412	5.52
1.64078	5.51
1.65745	5.50
1.67412	5.49
1.69078	5.48
1.70745	5.47
1.72412	5.46
1.74078	5.45
1.75745	5.44
1.77412	5.43
1.79078	5.42
1.80745	5.41
1.82412	5.40
1.84078	5.39
1.85745	5.38
1.87412	5.37
1.89078	5.36
1.90745	5.35
1.92412	5.34
1.94078	5.33
1.95745	5.32
1.97412	5.31
1.99078	5.30
2.00745	5.29
2.02412	5.28
2.04078	5.27
2.05745	5.26
2.07412	5.25
2.09078	5.24
2.10745	5.23
2.12412	5.22
2.14078	5.21
2.15745	5.20
2.17412	5.19
2.19078	5.18
2.20745	5.18
2.22412	5.17
2.24078	5.16
2.25745	5.15
2.27412	5.14
2.29078	5.13
2.30745	5.12
2.32412	5.11
2.34078	5.10
2.35745	5.09
2.37412	5.09
2.39078	5.08
2.40745	5.08
2.42412	5.09
2.44078	5.08
2.45745	5.08
2.47412	5.08
2.49078	5.08
2.50745	5.08
2.52412	5.08
2.54078	5.08
2.55745	5.08
2.57412	5.08
2.59078	5.08
2.60745	5.08
2.62412	5.08
2.64078	5.08
2.65745	5.08
2.67412	5.08
2.69078	5.08
2.70745	5.08
2.72412	5.08
2.74078	5.08
2.75745	5.08
2.77412	5.08
2.79078	5.08
2.80745	5.08
2.82412	5.08
2.84078	5.08
2.85745	5.08
2.87412	5.08
2.89078	5.08
2.90745	5.08
2.92412	5.08
2.94078	5.08
2.95745	5.08
2.97412	5.08
2.99078	5.08
3.00745	5.08
3.02412	5.08
3.04078	5.08
3.05745	5.08
3.07412	5.08
3.09078	5.08
3.10745	5.08
3.12412	5.08
3.14078	5.08
3.15745	5.08
3.17412	5.07
3.19078	5.07
3.20745	5.07
3.22412	5.07
3.24078	5.07
3.25745	5.07
3.27412	5.07
3.29078	5.07
3.30745	5.07
3.32412	5.07
3.34078	5.08
3.35745	5.08
3.37412	5.07
3.39078	5.07
3.40745	5.07
3.42412	5.07
3.44078	5.07
3.45745	5.07
3.47412	5.07
3.49078	5.07
3.50745	5.07
3.52412	5.07
3.54078	5.07
3.55745	5.07
3.57412	5.08
3.59078	5.08
3.60745	5.08
3.62412	5.08
3.64078	5.08
3.65745	5.08
3.67412	5.08
3.69078	5.08
3.70745	5.08
3.72412	5.08
3.74078	5.08
3.75745	5.08
3.77412	5.08
3.79078	5.08
3.80745	5.08
3.82412	5.08
3.84078	5.08
3.85745	5.08
3.87412	5.07
3.89078	5.07
3.90745	5.07
3.92412	5.07
3.94078	5.07
3.95745	5.07
3.97412	5.07
3.99078	5.07

[Status Trace (Linear Velocity)]
Interval(msec)	1000
# of Points	240
Start Time(min)	0.007
End Time(min)	3.991
Intensity Units	
Intensity Multiplier	1
R.Time (min)	Intensity
0.00745	39.01
0.02412	37.34
0.04078	38.42
0.05745	39.77
0.07412	39.99
0.09078	39.06
0.10745	39.00
0.12412	39.02
0.14078	39.02
0.15745	39.02
0.17412	39.02
0.19078	39.01
0.20745	39.02
0.22412	39.01
0.24078	39.01
0.25745	39.01
0.27412	39.01
0.29078	39.01
0.30745	39.01
0.32412	39.02
0.34078	39.01
0.35745	39.01
0.37412	39.01
0.39078	39.01
0.40745	39.01
0.42412	39.02
0.44078	39.02
0.45745	39.02
0.47412	39.01
0.49078	39.01
0.50745	39.02
0.52412	39.02
0.54078	39.02
0.55745	39.02
0.57412	39.02
0.59078	39.02
0.60745	39.02
0.62412	39.02
0.64078	39.02
0.65745	39.02
0.67412	39.02
0.69078	39.02
0.70745	39.02
0.72412	39.02
0.74078	39.02
0.75745	39.02
0.77412	39.02
0.79078	39.02
0.80745	39.02
0.82412	39.02
0.84078	39.02
0.85745	39.02
0.87412	39.02
0.89078	39.02
0.90745	39.02
0.92412	39.02
0.94078	39.02
0.95745	39.02
0.97412	39.02
0.99078	39.02
1.00745	39.02
1.02412	39.02
1.04078	39.02
1.05745	39.02
1.07412	39.02
1.09078	39.02
1.10745	39.02
1.12412	39.02
1.14078	39.02
1.15745	39.01
1.17412	39.01
1.19078	39.01
1.20745	39.01
1.22412	39.02
1.24078	39.02
1.25745	39.02
1.27412	39.02
1.29078	39.02
1.30745	39.02
1.32412	39.02
1.34078	39.02
1.35745	39.02
1.37412	39.02
1.39078	39.02
1.40745	39.02
1.42412	39.02
1.44078	39.02
1.45745	39.02
1.47412	39.02
1.49078	39.01
1.50745	39.01
1.52412	39.01
1.54078	39.01
1.55745	39.02
1.57412	39.02
1.59078	39.02
1.60745	39.01
1.62412	39.00
1.64078	38.98
1.65745	38.96
1.67412	38.93
1.69078	38.89
1.70745	38.86
1.72412	38.82
1.74078	38.79
1.75745	38.77
1.77412	38.73
1.79078	38.70
1.80745	38.67
1.82412	38.64
1.84078	38.60
1.85745	38.58
1.87412	38.54
1.89078	38.51
1.90745	38.49
1.92412	38.45
1.94078	38.42
1.95745	38.39
1.97412	38.37
1.99078	38.33
2.00745	38.30
2.02412	38.27
2.04078	38.24
2.05745	38.22
2.07412	38.18
2.09078	38.15
2.10745	38.13
2.12412	38.09
2.14078	38.06
2.15745	38.04
2.17412	38.00
2.19078	37.97
2.20745	37.95
2.22412	37.91
2.24078	37.89
2.25745	37.86
2.27412	37.83
2.29078	37.79
2.30745	37.77
2.32412	37.74
2.34078	37.71
2.35745	37.68
2.37412	37.66
2.39078	37.65
2.40745	37.66
2.42412	37.66
2.44078	37.66
2.45745	37.66
2.47412	37.66
2.49078	37.66
2.50745	37.65
2.52412	37.64
2.54078	37.65
2.55745	37.65
2.57412	37.65
2.59078	37.65
2.60745	37.65
2.62412	37.65
2.64078	37.65
2.65745	37.65
2.67412	37.65
2.69078	37.65
2.70745	37.64
2.72412	37.65
2.74078	37.65
2.75745	37.64
2.77412	37.64
2.79078	37.64
2.80745	37.64
2.82412	37.64
2.84078	37.64
2.85745	37.64
2.87412	37.64
2.89078	37.64
2.90745	37.64
2.92412	37.64
2.94078	37.64
2.95745	37.64
2.97412	37.63
2.99078	37.63
3.00745	37.63
3.02412	37.63
3.04078	37.63
3.05745	37.63
3.07412	37.63
3.09078	37.63
3.10745	37.63
3.12412	37.63
3.14078	37.63
3.15745	37.63
3.17412	37.63
3.19078	37.63
3.20745	37.62
3.22412	37.62
3.24078	37.62
3.25745	37.62
3.27412	37.62
3.29078	37.62
3.30745	37.63
3.32412	37.63
3.34078	37.63
3.35745	37.63
3.37412	37.63
3.39078	37.63
3.40745	37.62
3.42412	37.62
3.44078	37.62
3.45745	37.62
3.47412	37.62
3.49078	37.63
3.50745	37.63
3.52412	37.63
3.54078	37.63
3.55745	37.63
3.57412	37.63
3.59078	37.63
3.60745	37.63
3.62412	37.63
3.64078	37.63
3.65745	37.63
3.67412	37.63
3.69078	37.63
3.70745	37.63
3.72412	37.63
3.74078	37.63
3.75745	37.63
3.77412	37.63
3.79078	37.63
3.80745	37.63
3.82412	37.63
3.84078	37.63
3.85745	37.63
3.87412	37.63
3.89078	37.62
3.90745	37.62
3.92412	37.62
3.94078	37.62
3.95745	37.62
3.97412	37.62
3.99078	37.62

