[Header]
Application Name	LabSolutions
Version	5.110
Data File Name	C:\Users\User\Desktop\GC Analyses\Jack\Nachusa Grasslands Sampling\T2 Timepoint July 12th\T2_07122022_005.gcd
Output Date	3/14/2023
Output Time	3:42:29 PM

[File Information]
Type	Data File
Generated	3/10/2023 12:50:21 PM
Generated by	System Administrator
Modified	3/10/2023 12:56:55 PM
Modified by	System Administrator

[Sample Information]
Operator Name	System Administrator
Acquired	3/10/2023 12:52:53 PM
Sample Type	0:Unknown
Level	0
Sample Name	005
Sample ID	005
ISTD Amount1	1
ISTD Amount2	1
ISTD Amount3	1
ISTD Amount4	1
ISTD Amount5	1
ISTD Amount6	1
ISTD Amount7	1
ISTD Amount8	1
ISTD Amount9	1
ISTD Amount10	1
ISTD Amount11	1
ISTD Amount12	1
ISTD Amount13	1
ISTD Amount14	1
ISTD Amount15	1
ISTD Amount16	1
ISTD Amount17	1
ISTD Amount18	1
ISTD Amount19	1
ISTD Amount20	1
ISTD Amount21	1
ISTD Amount22	1
ISTD Amount23	1
ISTD Amount24	1
ISTD Amount25	1
ISTD Amount26	1
ISTD Amount27	1
ISTD Amount28	1
ISTD Amount29	1
ISTD Amount30	1
ISTD Amount31	1
ISTD Amount32	1
Sample Amount	1
Dilution Factor	1
Vial#	4
Injection Volume	1
Injection Count	1
Bar Code	

[Original Files]
Data File	C:\Users\User\Desktop\GC Analyses\Jack\Nachusa Grasslands Sampling\T1 Timepoint July 12th\T2_07122022_005.gcd
Method File	C:\LabSolutions\Data\GHG_4min_2022\ghg3_togas_w_acet_4 min_new_int.gcm
Batch File	C:\LabSolutions\Data\AutoSamplerTesting\T2_07122022.gcb
Report Format File	c:\LabSolutions\System\DEFAULT.lsr

[File Description]


[Configuration]
Instrument Name	C0B7VH3-Instrument1
Instrument #	1
Line #	1
# of Detectors	3
Detector ID	DET#1	DET#2	DET#3
Detector Name	FID	PTCD	ECD
# of Channels	1	1	1

[Peak Table(Ch1)]
# of Peaks	3
Peak#	R.Time	I.Time	F.Time	Area	Height	A/H	Conc.	Mark	ID#	Name	k'	Plate #	Plate Ht.	Tailing	Resolution	Sep.Factor	Area Ratio	Height Ratio	Conc. %	Norm Conc.
1	1.479	1.417	1.531	3267	937	3.487	23.067	   	1	CO	0.000	4386	34.200	0.000	0.000	0.000	0	0	2.491	2.491
2	1.567	1.531	1.652	20273	10119	2.003	391.999	 V 	2	CH4	0.059	11202	13.390	1.229	1.185	0.000	0	0	42.332	42.332
3	1.996	1.952	2.532	2035895	972995	2.092	510.954	   	3	CO2	0.349	17411	8.615	1.288	7.165	5.875	0	0	55.177	55.177

[Peak Table(Ch2)]
# of Peaks	0

[Peak Table(Ch3)]
# of Peaks	4
Peak#	R.Time	I.Time	F.Time	Area	Height	A/H	Conc.	Mark	ID#	Name	k'	Plate #	Plate Ht.	Tailing	Resolution	Sep.Factor	Area Ratio	Height Ratio	Conc. %	Norm Conc.
1	2.462	2.396	2.513	1541	509	3.026	0.000	   			0.000	8972	16.718	0.000	0.000	0.000	0	0	0.000	0.000
2	2.539	2.513	2.634	1236	290	4.255	0.000	 V 			0.031	4142	36.213	0.000	0.588	0.000	0	0	0.000	0.000
3	2.675	2.645	2.759	136	50	2.711	0.000	   			0.086	18379	8.161	1.342	1.146	2.762	0	0	0.000	0.000
4	2.876	2.810	3.093	58971	15358	3.840	1.506	   	1	N2O	0.168	12777	11.739	1.643	2.232	1.948	0	0	100.000	100.000

[Compound Results(Ch1)]
# of IDs	6
ID#	Name	R.Time	Area	Height	Conc.	Curve	3rd	2nd	1st	Constant	Area Ratio	Height Ratio	Conc. %	Norm Conc.
1	CO	1.479	3267	937	23.067	Linear	0.000000e+00	0.000000e+00	1.416423e+002	0.000000e+00	0	0	2.491	2.491
2	CH4	1.567	20273	10119	391.999	Linear	0.000000e+00	0.000000e+00	5.171738e+001	0.000000e+00	0	0	42.332	42.332
3	CO2	1.996	2035895	972995	510.954	Linear	0.000000e+00	0.000000e+00	3.984494e+003	0.000000e+00	0	0	55.177	55.177
4	Ethylene	0.000	0	0	0.000	Linear	0.000000e+00	0.000000e+00	0.000000e+00	0.000000e+00	0	0	0.000	0.000
5	Acetylene	0.000	0	0	0.000	Linear	0.000000e+00	0.000000e+00	0.000000e+00	0.000000e+00	0	0	0.000	0.000
6	Ethane	0.000	0	0	0.000	Linear	0.000000e+00	0.000000e+00	0.000000e+00	0.000000e+00	0	0	0.000	0.000

[Compound Results(Ch2)]
# of IDs	5
ID#	Name	R.Time	Area	Height	Conc.	Curve	3rd	2nd	1st	Constant	Area Ratio	Height Ratio	Conc. %	Norm Conc.
1	Hydrogen	0.000	0	0	0.000	Linear	0.000000e+00	0.000000e+00	0.000000e+00	0.000000e+00	0	0	0.000	0.000
2	Oxygen	0.000	0	0	0.000	Linear	0.000000e+00	0.000000e+00	0.000000e+00	0.000000e+00	0	0	0.000	0.000
3	Nitrogen	0.000	0	0	0.000	Linear	0.000000e+00	0.000000e+00	0.000000e+00	0.000000e+00	0	0	0.000	0.000
4	Methane	0.000	0	0	0.000	Linear	0.000000e+00	0.000000e+00	0.000000e+00	0.000000e+00	0	0	0.000	0.000
5	Carbon Monoxide	0.000	0	0	0.000	Linear	0.000000e+00	0.000000e+00	0.000000e+00	0.000000e+00	0	0	0.000	0.000

[Compound Results(Ch3)]
# of IDs	2
ID#	Name	R.Time	Area	Height	Conc.	Curve	3rd	2nd	1st	Constant	Area Ratio	Height Ratio	Conc. %	Norm Conc.
1	N2O	2.876	58971	15358	1.506	Linear	0.000000e+00	0.000000e+00	3.915173e+004	0.000000e+00	0	0	100.000	100.000
2	SF6	0.000	0	0	0.000	Linear	0.000000e+00	0.000000e+00	0.000000e+00	0.000000e+00	0	0	0.000	0.000

[Group Results(Ch1)]
# of Groups	0

[Group Results(Ch2)]
# of Groups	0

[Group Results(Ch3)]
# of Groups	0

[Chromatogram (Ch1)]
Interval(msec)	220
# of Points	1091
Start Time(min)	0.002
End Time(min)	3.998
R.Time (min)	Intensity
0.00167	22
0.00533	27
0.00900	26
0.01267	22
0.01633	14
0.02000	4
0.02367	-3
0.02733	-7
0.03100	-10
0.03467	-11
0.03833	-14
0.04200	-15
0.04567	-15
0.04933	-18
0.05300	-17
0.05667	-7
0.06033	3
0.06400	11
0.06767	17
0.07133	15
0.07500	5
0.07867	-11
0.08233	-22
0.08600	-29
0.08967	-33
0.09333	-31
0.09700	-26
0.10067	-16
0.10433	-2
0.10800	8
0.11167	15
0.11533	19
0.11900	18
0.12267	14
0.12633	9
0.13000	7
0.13367	3
0.13733	0
0.14100	-0
0.14467	0
0.14833	-0
0.15200	-1
0.15567	-3
0.15933	-6
0.16300	-12
0.16667	-19
0.17033	-25
0.17400	-28
0.17767	-27
0.18133	-23
0.18500	-18
0.18867	-12
0.19233	-10
0.19600	-11
0.19967	-12
0.20333	-8
0.20700	-2
0.21067	3
0.21433	2
0.21800	-4
0.22167	-13
0.22533	-19
0.22900	-22
0.23267	-22
0.23633	-25
0.24000	-29
0.24367	-32
0.24733	-28
0.25100	-18
0.25467	-12
0.25833	-12
0.26200	-12
0.26567	-14
0.26933	-14
0.27300	-13
0.27667	-16
0.28033	-18
0.28400	-19
0.28767	-19
0.29133	-20
0.29500	-22
0.29867	-23
0.30233	-19
0.30600	-11
0.30967	-3
0.31333	1
0.31700	1
0.32067	-2
0.32433	-1
0.32800	-1
0.33167	-5
0.33533	-13
0.33900	-23
0.34267	-31
0.34633	-35
0.35000	-30
0.35367	-21
0.35733	-12
0.36100	-6
0.36467	-3
0.36833	-1
0.37200	4
0.37567	12
0.37933	17
0.38300	15
0.38667	10
0.39033	2
0.39400	-10
0.39767	-21
0.40133	-29
0.40500	-38
0.40867	-45
0.41233	-49
0.41600	-50
0.41967	-46
0.42333	-39
0.42700	-31
0.43067	-25
0.43433	-23
0.43800	-24
0.44167	-23
0.44533	-21
0.44900	-20
0.45267	-19
0.45633	-19
0.46000	-18
0.46367	-22
0.46733	-31
0.47100	-40
0.47467	-45
0.47833	-46
0.48200	-43
0.48567	-36
0.48933	-29
0.49300	-22
0.49667	-19
0.50033	-16
0.50400	-15
0.50767	-15
0.51133	-16
0.51500	-15
0.51867	-14
0.52233	-9
0.52600	-4
0.52967	-1
0.53333	1
0.53700	3
0.54067	2
0.54433	-2
0.54800	-11
0.55167	-24
0.55533	-32
0.55900	-32
0.56267	-30
0.56633	-29
0.57000	-28
0.57367	-30
0.57733	-32
0.58100	-30
0.58467	-27
0.58833	-22
0.59200	-15
0.59567	-8
0.59933	-4
0.60300	-2
0.60667	-0
0.61033	-3
0.61400	-12
0.61767	-24
0.62133	-33
0.62500	-36
0.62867	-38
0.63233	-44
0.63600	-50
0.63967	-51
0.64333	-46
0.64700	-39
0.65067	-31
0.65433	-26
0.65800	-22
0.66167	-19
0.66533	-21
0.66900	-28
0.67267	-33
0.67633	-33
0.68000	-31
0.68367	-32
0.68733	-33
0.69100	-32
0.69467	-28
0.69833	-22
0.70200	-14
0.70567	-7
0.70933	-4
0.71300	-3
0.71667	-2
0.72033	-4
0.72400	-6
0.72767	-13
0.73133	-16
0.73500	-16
0.73867	-21
0.74233	-30
0.74600	-41
0.74967	-50
0.75333	-56
0.75700	-57
0.76067	-52
0.76433	-44
0.76800	-31
0.77167	-20
0.77533	-16
0.77900	-16
0.78267	-17
0.78633	-17
0.79000	-19
0.79367	-22
0.79733	-29
0.80100	-38
0.80467	-44
0.80833	-47
0.81200	-42
0.81567	-34
0.81933	-27
0.82300	-22
0.82667	-21
0.83033	-25
0.83400	-32
0.83767	-34
0.84133	-31
0.84500	-32
0.84867	-39
0.85233	-46
0.85600	-47
0.85967	-42
0.86333	-39
0.86700	-37
0.87067	-34
0.87433	-31
0.87800	-28
0.88167	-25
0.88533	-26
0.88900	-31
0.89267	-31
0.89633	-30
0.90000	-31
0.90367	-36
0.90733	-42
0.91100	-46
0.91467	-46
0.91833	-46
0.92200	-44
0.92567	-41
0.92933	-38
0.93300	-36
0.93667	-31
0.94033	-28
0.94400	-25
0.94767	-20
0.95133	-14
0.95500	-14
0.95867	-20
0.96233	-29
0.96600	-39
0.96967	-47
0.97333	-53
0.97700	-55
0.98067	-55
0.98433	-50
0.98800	-45
0.99167	-40
0.99533	-37
0.99900	-31
1.00267	-24
1.00633	-15
1.01000	-4
1.01367	-2
1.01733	-6
1.02100	-17
1.02467	-32
1.02833	-46
1.03200	-54
1.03567	-53
1.03933	-45
1.04300	-37
1.04667	-36
1.05033	-42
1.05400	-51
1.05767	-54
1.06133	-49
1.06500	-44
1.06867	-45
1.07233	-58
1.07600	-74
1.07967	-84
1.08333	-85
1.08700	-79
1.09067	-68
1.09433	-60
1.09800	-56
1.10167	-52
1.10533	-49
1.10900	-40
1.11267	-27
1.11633	-21
1.12000	-23
1.12367	-30
1.12733	-34
1.13100	-33
1.13467	-36
1.13833	-42
1.14200	-47
1.14567	-52
1.14933	-55
1.15300	-58
1.15667	-59
1.16033	-55
1.16400	-43
1.16767	-25
1.17133	-10
1.17500	-6
1.17867	-9
1.18233	-17
1.18600	-27
1.18967	-36
1.19333	-45
1.19700	-50
1.20067	-56
1.20433	-61
1.20800	-62
1.21167	-63
1.21533	-60
1.21900	-51
1.22267	-43
1.22633	-42
1.23000	-47
1.23367	-51
1.23733	-50
1.24100	-45
1.24467	-40
1.24833	-39
1.25200	-39
1.25567	-37
1.25933	-31
1.26300	-26
1.26667	-24
1.27033	-27
1.27400	-32
1.27767	-38
1.28133	-45
1.28500	-53
1.28867	-57
1.29233	-56
1.29600	-58
1.29967	-61
1.30333	-62
1.30700	-64
1.31067	-64
1.31433	-61
1.31800	-58
1.32167	-53
1.32533	-49
1.32900	-47
1.33267	-46
1.33633	-46
1.34000	-46
1.34367	-44
1.34733	-43
1.35100	-44
1.35467	-43
1.35833	-38
1.36200	-30
1.36567	-26
1.36933	-25
1.37300	-24
1.37667	-23
1.38033	-26
1.38400	-33
1.38767	-43
1.39133	-59
1.39500	-79
1.39867	-97
1.40233	-109
1.40600	-115
1.40967	-114
1.41333	-109
1.41700	-100
1.42067	-91
1.42433	-84
1.42800	-78
1.43167	-69
1.43533	-57
1.43900	-28
1.44267	65
1.44633	242
1.45000	454
1.45367	632
1.45733	744
1.46100	802
1.46467	823
1.46833	831
1.47200	836
1.47567	845
1.47933	850
1.48300	835
1.48667	787
1.49033	710
1.49400	618
1.49767	524
1.50133	439
1.50500	365
1.50867	302
1.51233	244
1.51600	195
1.51967	157
1.52333	127
1.52700	105
1.53067	96
1.53433	104
1.53800	184
1.54167	531
1.54533	1437
1.54900	2997
1.55267	4937
1.55633	6841
1.56000	8415
1.56367	9523
1.56733	10050
1.57100	9857
1.57467	8922
1.57833	7454
1.58200	5799
1.58567	4260
1.58933	2992
1.59300	2033
1.59667	1347
1.60033	879
1.60400	570
1.60767	368
1.61133	236
1.61500	152
1.61867	97
1.62233	61
1.62600	36
1.62967	20
1.63333	11
1.63700	0
1.64067	-16
1.64433	-34
1.64800	-48
1.65167	-52
1.65533	-49
1.65900	-49
1.66267	-51
1.66633	-55
1.67000	-56
1.67367	-49
1.67733	-39
1.68100	-30
1.68467	-23
1.68833	-16
1.69200	-15
1.69567	-18
1.69933	-26
1.70300	-37
1.70667	-50
1.71033	-61
1.71400	-65
1.71767	-70
1.72133	-77
1.72500	-77
1.72867	-68
1.73233	-59
1.73600	-52
1.73967	-45
1.74333	-43
1.74700	-44
1.75067	-49
1.75433	-56
1.75800	-64
1.76167	-71
1.76533	-75
1.76900	-73
1.77267	-66
1.77633	-59
1.78000	-53
1.78367	-46
1.78733	-38
1.79100	-35
1.79467	-37
1.79833	-41
1.80200	-49
1.80567	-55
1.80933	-61
1.81300	-70
1.81667	-77
1.82033	-78
1.82400	-77
1.82767	-75
1.83133	-70
1.83500	-67
1.83867	-65
1.84233	-64
1.84600	-63
1.84967	-62
1.85333	-58
1.85700	-51
1.86067	-47
1.86433	-44
1.86800	-41
1.87167	-39
1.87533	-33
1.87900	-26
1.88267	-20
1.88633	-16
1.89000	-18
1.89367	-28
1.89733	-44
1.90100	-58
1.90467	-67
1.90833	-73
1.91200	-77
1.91567	-79
1.91933	-77
1.92300	-71
1.92667	-64
1.93033	-54
1.93400	-47
1.93767	-45
1.94133	-46
1.94500	-51
1.94867	-53
1.95233	-34
1.95600	127
1.95967	1095
1.96333	5537
1.96700	20978
1.97067	62173
1.97433	147052
1.97800	283782
1.98167	459991
1.98533	646433
1.98900	809912
1.99267	924084
1.99633	972991
2.00000	952049
2.00367	868949
2.00733	742679
2.01100	597993
2.01467	457568
2.01833	336302
2.02200	240140
2.02567	168451
2.02933	117285
2.03300	81817
2.03667	57677
2.04033	41398
2.04400	30431
2.04767	23011
2.05133	17936
2.05500	14405
2.05867	11900
2.06233	10081
2.06600	8721
2.06967	7674
2.07333	6850
2.07700	6192
2.08067	5653
2.08433	5199
2.08800	4805
2.09167	4465
2.09533	4172
2.09900	3919
2.10267	3693
2.10633	3494
2.11000	3320
2.11367	3160
2.11733	3012
2.12100	2872
2.12467	2738
2.12833	2612
2.13200	2497
2.13567	2390
2.13933	2293
2.14300	2205
2.14667	2122
2.15033	2041
2.15400	1964
2.15767	1896
2.16133	1836
2.16500	1777
2.16867	1715
2.17233	1654
2.17600	1601
2.17967	1553
2.18333	1509
2.18700	1468
2.19067	1428
2.19433	1393
2.19800	1361
2.20167	1329
2.20533	1296
2.20900	1263
2.21267	1232
2.21633	1202
2.22000	1174
2.22367	1152
2.22733	1135
2.23100	1124
2.23467	1110
2.23833	1084
2.24200	1048
2.24567	1011
2.24933	974
2.25300	941
2.25667	913
2.26033	889
2.26400	870
2.26767	856
2.27133	842
2.27500	828
2.27867	814
2.28233	802
2.28600	789
2.28967	772
2.29333	761
2.29700	754
2.30067	746
2.30433	735
2.30800	723
2.31167	709
2.31533	695
2.31900	680
2.32267	667
2.32633	654
2.33000	640
2.33367	633
2.33733	629
2.34100	621
2.34467	611
2.34833	603
2.35200	598
2.35567	593
2.35933	584
2.36300	570
2.36667	557
2.37033	552
2.37400	553
2.37767	556
2.38133	558
2.38500	557
2.38867	552
2.39233	542
2.39600	525
2.39967	509
2.40333	497
2.40700	488
2.41067	486
2.41433	488
2.41800	493
2.42167	500
2.42533	504
2.42900	501
2.43267	491
2.43633	480
2.44000	470
2.44367	462
2.44733	458
2.45100	455
2.45467	453
2.45833	450
2.46200	440
2.46567	428
2.46933	421
2.47300	415
2.47667	410
2.48033	405
2.48400	402
2.48767	403
2.49133	409
2.49500	412
2.49867	412
2.50233	408
2.50600	402
2.50967	395
2.51333	393
2.51700	394
2.52067	391
2.52433	385
2.52800	380
2.53167	377
2.53533	373
2.53900	366
2.54267	362
2.54633	361
2.55000	361
2.55367	363
2.55733	370
2.56100	379
2.56467	387
2.56833	388
2.57200	379
2.57567	367
2.57933	358
2.58300	354
2.58667	349
2.59033	343
2.59400	341
2.59767	346
2.60133	351
2.60500	356
2.60867	360
2.61233	360
2.61600	353
2.61967	344
2.62333	339
2.62700	338
2.63067	339
2.63433	344
2.63800	350
2.64167	360
2.64533	371
2.64900	373
2.65267	369
2.65633	366
2.66000	368
2.66367	377
2.66733	385
2.67100	391
2.67467	396
2.67833	395
2.68200	391
2.68567	387
2.68933	381
2.69300	374
2.69667	366
2.70033	363
2.70400	366
2.70767	370
2.71133	373
2.71500	377
2.71867	381
2.72233	389
2.72600	399
2.72967	404
2.73333	404
2.73700	401
2.74067	400
2.74433	398
2.74800	397
2.75167	397
2.75533	396
2.75900	393
2.76267	391
2.76633	391
2.77000	395
2.77367	403
2.77733	407
2.78100	404
2.78467	402
2.78833	398
2.79200	392
2.79567	387
2.79933	383
2.80300	382
2.80667	389
2.81033	393
2.81400	396
2.81767	398
2.82133	394
2.82500	386
2.82867	378
2.83233	374
2.83600	374
2.83967	374
2.84333	375
2.84700	380
2.85067	388
2.85433	393
2.85800	396
2.86167	402
2.86533	408
2.86900	409
2.87267	407
2.87633	409
2.88000	412
2.88367	414
2.88733	414
2.89100	405
2.89467	394
2.89833	388
2.90200	386
2.90567	386
2.90933	387
2.91300	385
2.91667	384
2.92033	386
2.92400	388
2.92767	389
2.93133	386
2.93500	383
2.93867	380
2.94233	375
2.94600	370
2.94967	368
2.95333	370
2.95700	372
2.96067	375
2.96433	381
2.96800	388
2.97167	393
2.97533	396
2.97900	395
2.98267	392
2.98633	393
2.99000	398
2.99367	408
2.99733	415
3.00100	419
3.00467	418
3.00833	416
3.01200	415
3.01567	412
3.01933	408
3.02300	406
3.02667	406
3.03033	403
3.03400	397
3.03767	396
3.04133	398
3.04500	399
3.04867	404
3.05233	406
3.05600	405
3.05967	405
3.06333	403
3.06700	399
3.07067	399
3.07433	399
3.07800	398
3.08167	393
3.08533	388
3.08900	385
3.09267	386
3.09633	390
3.10000	390
3.10367	390
3.10733	391
3.11100	392
3.11467	394
3.11833	397
3.12200	399
3.12567	401
3.12933	402
3.13300	404
3.13667	409
3.14033	415
3.14400	417
3.14767	415
3.15133	411
3.15500	406
3.15867	408
3.16233	417
3.16600	419
3.16967	416
3.17333	415
3.17700	415
3.18067	413
3.18433	413
3.18800	413
3.19167	415
3.19533	413
3.19900	410
3.20267	408
3.20633	410
3.21000	413
3.21367	416
3.21733	421
3.22100	426
3.22467	426
3.22833	423
3.23200	418
3.23567	420
3.23933	422
3.24300	414
3.24667	404
3.25033	398
3.25400	395
3.25767	391
3.26133	390
3.26500	390
3.26867	391
3.27233	390
3.27600	393
3.27967	396
3.28333	393
3.28700	387
3.29067	388
3.29433	392
3.29800	397
3.30167	398
3.30533	395
3.30900	390
3.31267	386
3.31633	383
3.32000	380
3.32367	381
3.32733	385
3.33100	385
3.33467	386
3.33833	391
3.34200	394
3.34567	394
3.34933	392
3.35300	393
3.35667	397
3.36033	401
3.36400	406
3.36767	410
3.37133	415
3.37500	420
3.37867	423
3.38233	421
3.38600	415
3.38967	409
3.39333	405
3.39700	404
3.40067	402
3.40433	397
3.40800	389
3.41167	384
3.41533	385
3.41900	391
3.42267	394
3.42633	393
3.43000	392
3.43367	389
3.43733	383
3.44100	380
3.44467	382
3.44833	384
3.45200	384
3.45567	383
3.45933	385
3.46300	386
3.46667	387
3.47033	391
3.47400	400
3.47767	409
3.48133	414
3.48500	415
3.48867	408
3.49233	393
3.49600	374
3.49967	358
3.50333	346
3.50700	341
3.51067	346
3.51433	360
3.51800	376
3.52167	387
3.52533	390
3.52900	386
3.53267	380
3.53633	373
3.54000	370
3.54367	370
3.54733	373
3.55100	377
3.55467	380
3.55833	379
3.56200	377
3.56567	375
3.56933	374
3.57300	372
3.57667	372
3.58033	376
3.58400	380
3.58767	377
3.59133	369
3.59500	359
3.59867	353
3.60233	350
3.60600	351
3.60967	357
3.61333	366
3.61700	373
3.62067	373
3.62433	372
3.62800	368
3.63167	366
3.63533	364
3.63900	367
3.64267	373
3.64633	372
3.65000	370
3.65367	369
3.65733	367
3.66100	368
3.66467	368
3.66833	366
3.67200	365
3.67567	358
3.67933	351
3.68300	347
3.68667	340
3.69033	335
3.69400	336
3.69767	344
3.70133	356
3.70500	366
3.70867	369
3.71233	366
3.71600	358
3.71967	348
3.72333	342
3.72700	342
3.73067	345
3.73433	352
3.73800	359
3.74167	361
3.74533	357
3.74900	351
3.75267	343
3.75633	334
3.76000	328
3.76367	325
3.76733	322
3.77100	320
3.77467	322
3.77833	325
3.78200	324
3.78567	323
3.78933	320
3.79300	316
3.79667	315
3.80033	317
3.80400	320
3.80767	321
3.81133	323
3.81500	328
3.81867	332
3.82233	336
3.82600	339
3.82967	339
3.83333	337
3.83700	334
3.84067	331
3.84433	327
3.84800	316
3.85167	304
3.85533	300
3.85900	300
3.86267	299
3.86633	306
3.87000	317
3.87367	323
3.87733	323
3.88100	321
3.88467	321
3.88833	323
3.89200	317
3.89567	308
3.89933	302
3.90300	297
3.90667	291
3.91033	288
3.91400	287
3.91767	286
3.92133	289
3.92500	295
3.92867	297
3.93233	297
3.93600	294
3.93967	289
3.94333	288
3.94700	292
3.95067	300
3.95433	305
3.95800	310
3.96167	312
3.96533	308
3.96900	302
3.97267	301
3.97633	309
3.98000	318
3.98367	324
3.98733	326
3.99100	322
3.99467	316
3.99833	311

[Chromatogram (Ch2)]
Interval(msec)	220
# of Points	1091
Start Time(min)	0.002
End Time(min)	3.998
R.Time (min)	Intensity
0.00167	0
0.00533	0
0.00900	0
0.01267	0
0.01633	0
0.02000	0
0.02367	0
0.02733	0
0.03100	1
0.03467	1
0.03833	1
0.04200	1
0.04567	1
0.04933	1
0.05300	1
0.05667	1
0.06033	1
0.06400	1
0.06767	2
0.07133	2
0.07500	2
0.07867	2
0.08233	2
0.08600	2
0.08967	2
0.09333	2
0.09700	2
0.10067	2
0.10433	2
0.10800	3
0.11167	3
0.11533	3
0.11900	4
0.12267	4
0.12633	4
0.13000	3
0.13367	3
0.13733	3
0.14100	2
0.14467	2
0.14833	2
0.15200	1
0.15567	1
0.15933	0
0.16300	-0
0.16667	-1
0.17033	-1
0.17400	-1
0.17767	-1
0.18133	-2
0.18500	-2
0.18867	-2
0.19233	-2
0.19600	-3
0.19967	-3
0.20333	-3
0.20700	-3
0.21067	-3
0.21433	-3
0.21800	-3
0.22167	-3
0.22533	-3
0.22900	-4
0.23267	-4
0.23633	-5
0.24000	-5
0.24367	-5
0.24733	-6
0.25100	-6
0.25467	-6
0.25833	-6
0.26200	-6
0.26567	-5
0.26933	-4
0.27300	-4
0.27667	-4
0.28033	-4
0.28400	-4
0.28767	-3
0.29133	-3
0.29500	-4
0.29867	-4
0.30233	-4
0.30600	-4
0.30967	-4
0.31333	-4
0.31700	-4
0.32067	-4
0.32433	-4
0.32800	-3
0.33167	-3
0.33533	-3
0.33900	-3
0.34267	-3
0.34633	-3
0.35000	-3
0.35367	-3
0.35733	-3
0.36100	-3
0.36467	-4
0.36833	-4
0.37200	-4
0.37567	-3
0.37933	-3
0.38300	-3
0.38667	-2
0.39033	-2
0.39400	-1
0.39767	-1
0.40133	-1
0.40500	-1
0.40867	-1
0.41233	-1
0.41600	-2
0.41967	-2
0.42333	-2
0.42700	-2
0.43067	-2
0.43433	-2
0.43800	-2
0.44167	-2
0.44533	-1
0.44900	-1
0.45267	-1
0.45633	-0
0.46000	-1
0.46367	-1
0.46733	-1
0.47100	-1
0.47467	-2
0.47833	-2
0.48200	-2
0.48567	-2
0.48933	-2
0.49300	-2
0.49667	-2
0.50033	-2
0.50400	-2
0.50767	-2
0.51133	-2
0.51500	-2
0.51867	-3
0.52233	-3
0.52600	-3
0.52967	-3
0.53333	-3
0.53700	-3
0.54067	-3
0.54433	-3
0.54800	-3
0.55167	-3
0.55533	-2
0.55900	-2
0.56267	-2
0.56633	-2
0.57000	-2
0.57367	-2
0.57733	-2
0.58100	-3
0.58467	-3
0.58833	-3
0.59200	-3
0.59567	-3
0.59933	-3
0.60300	-3
0.60667	-3
0.61033	-3
0.61400	-2
0.61767	-2
0.62133	-2
0.62500	-2
0.62867	-2
0.63233	-2
0.63600	-3
0.63967	-3
0.64333	-3
0.64700	-3
0.65067	-3
0.65433	-3
0.65800	-3
0.66167	-3
0.66533	-3
0.66900	-2
0.67267	-2
0.67633	-2
0.68000	-2
0.68367	-2
0.68733	-2
0.69100	-2
0.69467	-3
0.69833	-3
0.70200	-4
0.70567	-4
0.70933	-5
0.71300	-5
0.71667	-5
0.72033	-5
0.72400	-5
0.72767	-5
0.73133	-5
0.73500	-5
0.73867	-4
0.74233	-4
0.74600	-4
0.74967	-3
0.75333	-3
0.75700	-3
0.76067	-3
0.76433	-3
0.76800	-3
0.77167	-3
0.77533	-3
0.77900	-3
0.78267	-3
0.78633	-3
0.79000	-3
0.79367	-3
0.79733	-3
0.80100	-3
0.80467	-3
0.80833	-3
0.81200	-3
0.81567	-3
0.81933	-3
0.82300	-3
0.82667	-3
0.83033	-3
0.83400	-3
0.83767	-3
0.84133	-3
0.84500	-3
0.84867	-3
0.85233	-3
0.85600	-2
0.85967	-2
0.86333	-2
0.86700	-2
0.87067	-2
0.87433	-2
0.87800	-2
0.88167	-2
0.88533	-2
0.88900	-3
0.89267	-3
0.89633	-3
0.90000	-3
0.90367	-3
0.90733	-4
0.91100	-4
0.91467	-4
0.91833	-3
0.92200	-3
0.92567	-3
0.92933	-2
0.93300	-2
0.93667	-2
0.94033	-2
0.94400	-3
0.94767	-3
0.95133	-3
0.95500	-4
0.95867	-4
0.96233	-4
0.96600	-4
0.96967	-4
0.97333	-4
0.97700	-4
0.98067	-4
0.98433	-4
0.98800	-4
0.99167	-4
0.99533	-4
0.99900	-4
1.00267	-4
1.00633	-5
1.01000	-5
1.01367	-5
1.01733	-5
1.02100	-5
1.02467	-5
1.02833	-4
1.03200	-4
1.03567	-4
1.03933	-4
1.04300	-4
1.04667	-4
1.05033	-4
1.05400	-4
1.05767	-4
1.06133	-4
1.06500	-4
1.06867	-5
1.07233	-5
1.07600	-5
1.07967	-5
1.08333	-5
1.08700	-5
1.09067	-5
1.09433	-5
1.09800	-4
1.10167	-4
1.10533	-4
1.10900	-4
1.11267	-4
1.11633	-4
1.12000	-5
1.12367	-5
1.12733	-4
1.13100	-4
1.13467	-4
1.13833	-5
1.14200	-5
1.14567	-5
1.14933	-5
1.15300	-4
1.15667	-4
1.16033	-4
1.16400	-4
1.16767	-4
1.17133	-4
1.17500	-5
1.17867	-5
1.18233	-5
1.18600	-5
1.18967	-5
1.19333	-6
1.19700	-6
1.20067	-6
1.20433	-6
1.20800	-6
1.21167	-6
1.21533	-6
1.21900	-6
1.22267	-6
1.22633	-6
1.23000	-6
1.23367	-6
1.23733	-6
1.24100	-6
1.24467	-6
1.24833	-6
1.25200	-5
1.25567	-5
1.25933	-5
1.26300	-5
1.26667	-5
1.27033	-5
1.27400	-5
1.27767	-5
1.28133	-6
1.28500	-6
1.28867	-6
1.29233	-5
1.29600	-5
1.29967	-5
1.30333	-4
1.30700	-4
1.31067	-4
1.31433	-4
1.31800	-4
1.32167	-4
1.32533	-3
1.32900	-3
1.33267	-3
1.33633	-3
1.34000	-3
1.34367	-3
1.34733	-3
1.35100	-3
1.35467	-3
1.35833	-3
1.36200	-3
1.36567	-2
1.36933	-2
1.37300	-2
1.37667	-2
1.38033	-2
1.38400	-2
1.38767	-2
1.39133	-2
1.39500	-2
1.39867	-2
1.40233	-2
1.40600	-2
1.40967	-2
1.41333	-2
1.41700	-2
1.42067	-2
1.42433	-3
1.42800	-3
1.43167	-3
1.43533	-3
1.43900	-4
1.44267	-4
1.44633	-4
1.45000	-4
1.45367	-4
1.45733	-4
1.46100	-4
1.46467	-4
1.46833	-4
1.47200	-4
1.47567	-4
1.47933	-4
1.48300	-4
1.48667	-4
1.49033	-4
1.49400	-4
1.49767	-4
1.50133	-4
1.50500	-4
1.50867	-4
1.51233	-4
1.51600	-4
1.51967	-4
1.52333	-4
1.52700	-4
1.53067	-4
1.53433	-4
1.53800	-4
1.54167	-3
1.54533	-3
1.54900	-3
1.55267	-3
1.55633	-3
1.56000	-3
1.56367	-3
1.56733	-3
1.57100	-3
1.57467	-4
1.57833	-4
1.58200	-4
1.58567	-5
1.58933	-5
1.59300	-6
1.59667	-7
1.60033	-7
1.60400	-8
1.60767	-10
1.61133	-11
1.61500	-13
1.61867	-15
1.62233	-18
1.62600	-21
1.62967	-24
1.63333	-27
1.63700	-30
1.64067	-34
1.64433	-37
1.64800	-40
1.65167	-44
1.65533	-48
1.65900	-52
1.66267	-55
1.66633	-59
1.67000	-64
1.67367	-69
1.67733	-73
1.68100	-78
1.68467	-82
1.68833	-86
1.69200	-89
1.69567	-92
1.69933	-95
1.70300	-98
1.70667	-100
1.71033	-102
1.71400	-104
1.71767	-106
1.72133	-107
1.72500	-108
1.72867	-109
1.73233	-109
1.73600	-110
1.73967	-110
1.74333	-110
1.74700	-111
1.75067	-111
1.75433	-112
1.75800	-112
1.76167	-113
1.76533	-113
1.76900	-114
1.77267	-114
1.77633	-114
1.78000	-114
1.78367	-115
1.78733	-115
1.79100	-115
1.79467	-115
1.79833	-115
1.80200	-116
1.80567	-116
1.80933	-116
1.81300	-117
1.81667	-117
1.82033	-117
1.82400	-118
1.82767	-118
1.83133	-118
1.83500	-117
1.83867	-117
1.84233	-116
1.84600	-116
1.84967	-116
1.85333	-116
1.85700	-116
1.86067	-116
1.86433	-115
1.86800	-115
1.87167	-115
1.87533	-115
1.87900	-114
1.88267	-114
1.88633	-114
1.89000	-114
1.89367	-114
1.89733	-114
1.90100	-113
1.90467	-113
1.90833	-113
1.91200	-113
1.91567	-113
1.91933	-114
1.92300	-114
1.92667	-114
1.93033	-114
1.93400	-114
1.93767	-114
1.94133	-114
1.94500	-114
1.94867	-114
1.95233	-114
1.95600	-114
1.95967	-113
1.96333	-112
1.96700	-111
1.97067	-111
1.97433	-110
1.97800	-109
1.98167	-109
1.98533	-109
1.98900	-109
1.99267	-109
1.99633	-109
2.00000	-109
2.00367	-109
2.00733	-110
2.01100	-110
2.01467	-110
2.01833	-110
2.02200	-109
2.02567	-109
2.02933	-108
2.03300	-108
2.03667	-107
2.04033	-107
2.04400	-106
2.04767	-106
2.05133	-105
2.05500	-105
2.05867	-105
2.06233	-105
2.06600	-105
2.06967	-105
2.07333	-105
2.07700	-105
2.08067	-105
2.08433	-104
2.08800	-104
2.09167	-104
2.09533	-103
2.09900	-103
2.10267	-103
2.10633	-102
2.11000	-102
2.11367	-102
2.11733	-101
2.12100	-101
2.12467	-100
2.12833	-99
2.13200	-99
2.13567	-98
2.13933	-98
2.14300	-97
2.14667	-97
2.15033	-97
2.15400	-97
2.15767	-97
2.16133	-97
2.16500	-97
2.16867	-96
2.17233	-96
2.17600	-95
2.17967	-94
2.18333	-94
2.18700	-93
2.19067	-93
2.19433	-93
2.19800	-93
2.20167	-93
2.20533	-93
2.20900	-94
2.21267	-94
2.21633	-93
2.22000	-93
2.22367	-93
2.22733	-92
2.23100	-92
2.23467	-91
2.23833	-90
2.24200	-89
2.24567	-89
2.24933	-89
2.25300	-89
2.25667	-88
2.26033	-87
2.26400	-86
2.26767	-85
2.27133	-85
2.27500	-85
2.27867	-85
2.28233	-85
2.28600	-85
2.28967	-85
2.29333	-85
2.29700	-85
2.30067	-85
2.30433	-85
2.30800	-85
2.31167	-85
2.31533	-85
2.31900	-85
2.32267	-85
2.32633	-84
2.33000	-84
2.33367	-83
2.33733	-81
2.34100	-80
2.34467	-79
2.34833	-78
2.35200	-77
2.35567	-77
2.35933	-77
2.36300	-76
2.36667	-75
2.37033	-74
2.37400	-73
2.37767	-70
2.38133	-67
2.38500	-64
2.38867	-60
2.39233	-56
2.39600	-52
2.39967	-48
2.40333	-43
2.40700	-39
2.41067	-34
2.41433	-30
2.41800	-26
2.42167	-22
2.42533	-20
2.42900	-18
2.43267	-16
2.43633	-15
2.44000	-14
2.44367	-14
2.44733	-13
2.45100	-12
2.45467	-11
2.45833	-10
2.46200	-9
2.46567	-8
2.46933	-7
2.47300	-5
2.47667	-3
2.48033	-2
2.48400	-1
2.48767	1
2.49133	2
2.49500	2
2.49867	3
2.50233	4
2.50600	5
2.50967	6
2.51333	7
2.51700	7
2.52067	8
2.52433	9
2.52800	10
2.53167	10
2.53533	11
2.53900	10
2.54267	10
2.54633	10
2.55000	10
2.55367	10
2.55733	11
2.56100	11
2.56467	12
2.56833	13
2.57200	14
2.57567	15
2.57933	15
2.58300	15
2.58667	16
2.59033	16
2.59400	17
2.59767	17
2.60133	17
2.60500	17
2.60867	17
2.61233	17
2.61600	17
2.61967	17
2.62333	17
2.62700	17
2.63067	17
2.63433	16
2.63800	16
2.64167	16
2.64533	17
2.64900	17
2.65267	18
2.65633	19
2.66000	20
2.66367	20
2.66733	20
2.67100	20
2.67467	20
2.67833	20
2.68200	20
2.68567	20
2.68933	20
2.69300	20
2.69667	20
2.70033	20
2.70400	20
2.70767	20
2.71133	20
2.71500	20
2.71867	20
2.72233	21
2.72600	21
2.72967	21
2.73333	22
2.73700	22
2.74067	23
2.74433	23
2.74800	23
2.75167	24
2.75533	24
2.75900	24
2.76267	24
2.76633	24
2.77000	23
2.77367	22
2.77733	22
2.78100	21
2.78467	21
2.78833	20
2.79200	20
2.79567	20
2.79933	20
2.80300	20
2.80667	20
2.81033	21
2.81400	21
2.81767	21
2.82133	22
2.82500	22
2.82867	23
2.83233	23
2.83600	23
2.83967	22
2.84333	20
2.84700	16
2.85067	10
2.85433	-0
2.85800	-14
2.86167	-33
2.86533	-56
2.86900	-85
2.87267	-119
2.87633	-159
2.88000	-204
2.88367	-254
2.88733	-310
2.89100	-370
2.89467	-434
2.89833	-503
2.90200	-575
2.90567	-650
2.90933	-728
2.91300	-809
2.91667	-892
2.92033	-978
2.92400	-1065
2.92767	-1154
2.93133	-1245
2.93500	-1337
2.93867	-1424
2.94233	-1494
2.94600	-1535
2.94967	-1540
2.95333	-1508
2.95700	-1446
2.96067	-1361
2.96433	-1260
2.96800	-1150
2.97167	-1038
2.97533	-927
2.97900	-822
2.98267	-724
2.98633	-634
2.99000	-552
2.99367	-479
2.99733	-413
3.00100	-356
3.00467	-306
3.00833	-262
3.01200	-223
3.01567	-191
3.01933	-162
3.02300	-138
3.02667	-117
3.03033	-99
3.03400	-84
3.03767	-70
3.04133	-59
3.04500	-50
3.04867	-41
3.05233	-34
3.05600	-28
3.05967	-23
3.06333	-18
3.06700	-14
3.07067	-11
3.07433	-8
3.07800	-5
3.08167	-2
3.08533	-1
3.08900	1
3.09267	3
3.09633	4
3.10000	5
3.10367	6
3.10733	7
3.11100	8
3.11467	8
3.11833	9
3.12200	9
3.12567	9
3.12933	10
3.13300	10
3.13667	11
3.14033	12
3.14400	12
3.14767	13
3.15133	13
3.15500	14
3.15867	14
3.16233	14
3.16600	15
3.16967	15
3.17333	15
3.17700	15
3.18067	15
3.18433	16
3.18800	16
3.19167	16
3.19533	16
3.19900	16
3.20267	16
3.20633	16
3.21000	16
3.21367	16
3.21733	16
3.22100	16
3.22467	17
3.22833	17
3.23200	17
3.23567	17
3.23933	17
3.24300	18
3.24667	18
3.25033	18
3.25400	18
3.25767	18
3.26133	18
3.26500	18
3.26867	18
3.27233	19
3.27600	19
3.27967	19
3.28333	18
3.28700	18
3.29067	18
3.29433	18
3.29800	19
3.30167	19
3.30533	19
3.30900	19
3.31267	19
3.31633	19
3.32000	20
3.32367	20
3.32733	21
3.33100	21
3.33467	22
3.33833	22
3.34200	23
3.34567	23
3.34933	24
3.35300	24
3.35667	24
3.36033	25
3.36400	25
3.36767	25
3.37133	25
3.37500	25
3.37867	25
3.38233	25
3.38600	25
3.38967	25
3.39333	24
3.39700	24
3.40067	24
3.40433	24
3.40800	24
3.41167	24
3.41533	24
3.41900	24
3.42267	24
3.42633	24
3.43000	23
3.43367	23
3.43733	23
3.44100	23
3.44467	23
3.44833	23
3.45200	24
3.45567	24
3.45933	24
3.46300	24
3.46667	24
3.47033	24
3.47400	24
3.47767	24
3.48133	24
3.48500	24
3.48867	24
3.49233	24
3.49600	24
3.49967	24
3.50333	24
3.50700	24
3.51067	24
3.51433	24
3.51800	24
3.52167	24
3.52533	24
3.52900	24
3.53267	24
3.53633	25
3.54000	25
3.54367	25
3.54733	25
3.55100	24
3.55467	24
3.55833	24
3.56200	24
3.56567	24
3.56933	24
3.57300	24
3.57667	23
3.58033	23
3.58400	23
3.58767	23
3.59133	23
3.59500	23
3.59867	23
3.60233	23
3.60600	23
3.60967	23
3.61333	23
3.61700	23
3.62067	23
3.62433	23
3.62800	23
3.63167	23
3.63533	23
3.63900	23
3.64267	23
3.64633	23
3.65000	23
3.65367	23
3.65733	23
3.66100	23
3.66467	23
3.66833	22
3.67200	22
3.67567	22
3.67933	22
3.68300	22
3.68667	22
3.69033	22
3.69400	22
3.69767	22
3.70133	23
3.70500	23
3.70867	23
3.71233	23
3.71600	23
3.71967	23
3.72333	23
3.72700	23
3.73067	23
3.73433	23
3.73800	23
3.74167	24
3.74533	24
3.74900	24
3.75267	24
3.75633	24
3.76000	24
3.76367	24
3.76733	24
3.77100	24
3.77467	24
3.77833	24
3.78200	24
3.78567	24
3.78933	24
3.79300	24
3.79667	24
3.80033	24
3.80400	24
3.80767	24
3.81133	23
3.81500	23
3.81867	23
3.82233	23
3.82600	22
3.82967	22
3.83333	22
3.83700	22
3.84067	22
3.84433	22
3.84800	21
3.85167	21
3.85533	21
3.85900	21
3.86267	21
3.86633	21
3.87000	21
3.87367	21
3.87733	21
3.88100	21
3.88467	21
3.88833	21
3.89200	22
3.89567	22
3.89933	22
3.90300	22
3.90667	22
3.91033	22
3.91400	22
3.91767	23
3.92133	23
3.92500	24
3.92867	24
3.93233	24
3.93600	24
3.93967	24
3.94333	24
3.94700	24
3.95067	24
3.95433	24
3.95800	24
3.96167	25
3.96533	25
3.96900	25
3.97267	25
3.97633	25
3.98000	25
3.98367	25
3.98733	25
3.99100	24
3.99467	24
3.99833	24

[Chromatogram (Ch3)]
Interval(msec)	220
# of Points	1091
Start Time(min)	0.002
End Time(min)	3.998
R.Time (min)	Intensity
0.00167	-1
0.00533	-2
0.00900	-1
0.01267	0
0.01633	0
0.02000	-2
0.02367	-3
0.02733	-3
0.03100	-3
0.03467	-2
0.03833	-1
0.04200	-2
0.04567	-1
0.04933	-1
0.05300	-1
0.05667	-2
0.06033	-2
0.06400	-1
0.06767	-3
0.07133	-4
0.07500	-5
0.07867	-7
0.08233	-9
0.08600	-12
0.08967	-12
0.09333	-10
0.09700	-10
0.10067	-7
0.10433	-3
0.10800	-0
0.11167	-0
0.11533	-2
0.11900	-4
0.12267	-5
0.12633	-6
0.13000	-6
0.13367	-5
0.13733	-3
0.14100	-2
0.14467	-3
0.14833	-3
0.15200	-3
0.15567	-4
0.15933	-2
0.16300	-0
0.16667	0
0.17033	0
0.17400	1
0.17767	2
0.18133	0
0.18500	-1
0.18867	-3
0.19233	-5
0.19600	-6
0.19967	-7
0.20333	-7
0.20700	-6
0.21067	-7
0.21433	-7
0.21800	-5
0.22167	-4
0.22533	-2
0.22900	-3
0.23267	-5
0.23633	-7
0.24000	-8
0.24367	-6
0.24733	-6
0.25100	-6
0.25467	-7
0.25833	-6
0.26200	-5
0.26567	-3
0.26933	-2
0.27300	-0
0.27667	-1
0.28033	-1
0.28400	1
0.28767	1
0.29133	1
0.29500	-2
0.29867	-4
0.30233	-3
0.30600	-2
0.30967	-0
0.31333	2
0.31700	0
0.32067	-2
0.32433	-2
0.32800	-2
0.33167	-1
0.33533	-1
0.33900	-2
0.34267	-3
0.34633	-4
0.35000	-4
0.35367	-4
0.35733	-4
0.36100	-4
0.36467	-5
0.36833	-6
0.37200	-5
0.37567	-3
0.37933	-0
0.38300	1
0.38667	2
0.39033	-0
0.39400	-3
0.39767	-2
0.40133	-1
0.40500	-2
0.40867	-2
0.41233	-2
0.41600	-2
0.41967	-1
0.42333	-1
0.42700	-0
0.43067	0
0.43433	-1
0.43800	-2
0.44167	-1
0.44533	-3
0.44900	-3
0.45267	-3
0.45633	-4
0.46000	-4
0.46367	-5
0.46733	-6
0.47100	-5
0.47467	-3
0.47833	-2
0.48200	-5
0.48567	-7
0.48933	-6
0.49300	-4
0.49667	-4
0.50033	-6
0.50400	-7
0.50767	-8
0.51133	-7
0.51500	-4
0.51867	-5
0.52233	-6
0.52600	-7
0.52967	-6
0.53333	-6
0.53700	-8
0.54067	-9
0.54433	-9
0.54800	-9
0.55167	-10
0.55533	-8
0.55900	-5
0.56267	-5
0.56633	-3
0.57000	-3
0.57367	-4
0.57733	-4
0.58100	-5
0.58467	-6
0.58833	-9
0.59200	-8
0.59567	-8
0.59933	-10
0.60300	-13
0.60667	-14
0.61033	-14
0.61400	-14
0.61767	-12
0.62133	-11
0.62500	-11
0.62867	-9
0.63233	-8
0.63600	-7
0.63967	-7
0.64333	-9
0.64700	-10
0.65067	-10
0.65433	-8
0.65800	-7
0.66167	-6
0.66533	-6
0.66900	-7
0.67267	-9
0.67633	-10
0.68000	-10
0.68367	-11
0.68733	-11
0.69100	-12
0.69467	-11
0.69833	-10
0.70200	-12
0.70567	-13
0.70933	-13
0.71300	-10
0.71667	-9
0.72033	-10
0.72400	-10
0.72767	-10
0.73133	-9
0.73500	-9
0.73867	-10
0.74233	-9
0.74600	-7
0.74967	-5
0.75333	-5
0.75700	-4
0.76067	-5
0.76433	-4
0.76800	-2
0.77167	-3
0.77533	-5
0.77900	-6
0.78267	-7
0.78633	-7
0.79000	-8
0.79367	-8
0.79733	-9
0.80100	-9
0.80467	-9
0.80833	-9
0.81200	-7
0.81567	-5
0.81933	-3
0.82300	-2
0.82667	-2
0.83033	-3
0.83400	-3
0.83767	-3
0.84133	-4
0.84500	-3
0.84867	-4
0.85233	-5
0.85600	-3
0.85967	-2
0.86333	-2
0.86700	-2
0.87067	-5
0.87433	-6
0.87800	-7
0.88167	-7
0.88533	-6
0.88900	-6
0.89267	-6
0.89633	-6
0.90000	-6
0.90367	-7
0.90733	-7
0.91100	-5
0.91467	-2
0.91833	-0
0.92200	-0
0.92567	-1
0.92933	-0
0.93300	-0
0.93667	-2
0.94033	-2
0.94400	-3
0.94767	-4
0.95133	-4
0.95500	-4
0.95867	-5
0.96233	-7
0.96600	-6
0.96967	-5
0.97333	-5
0.97700	-4
0.98067	-0
0.98433	2
0.98800	3
0.99167	1
0.99533	-1
0.99900	-2
1.00267	-1
1.00633	0
1.01000	1
1.01367	0
1.01733	-1
1.02100	-1
1.02467	-3
1.02833	-5
1.03200	-6
1.03567	-5
1.03933	-2
1.04300	-1
1.04667	-1
1.05033	-1
1.05400	-2
1.05767	-2
1.06133	-2
1.06500	-2
1.06867	-3
1.07233	-1
1.07600	2
1.07967	3
1.08333	2
1.08700	2
1.09067	0
1.09433	-2
1.09800	-3
1.10167	-2
1.10533	-1
1.10900	0
1.11267	0
1.11633	-0
1.12000	-1
1.12367	0
1.12733	-1
1.13100	-3
1.13467	-3
1.13833	-1
1.14200	2
1.14567	4
1.14933	5
1.15300	4
1.15667	2
1.16033	-0
1.16400	-3
1.16767	-4
1.17133	-4
1.17500	-3
1.17867	-0
1.18233	2
1.18600	1
1.18967	0
1.19333	3
1.19700	3
1.20067	2
1.20433	-0
1.20800	-1
1.21167	-2
1.21533	-2
1.21900	-3
1.22267	-0
1.22633	1
1.23000	-1
1.23367	-5
1.23733	-7
1.24100	-8
1.24467	-5
1.24833	-0
1.25200	1
1.25567	-1
1.25933	-1
1.26300	-3
1.26667	-5
1.27033	-4
1.27400	-2
1.27767	-1
1.28133	2
1.28500	4
1.28867	4
1.29233	3
1.29600	1
1.29967	2
1.30333	3
1.30700	1
1.31067	-1
1.31433	-3
1.31800	-1
1.32167	-2
1.32533	-3
1.32900	-3
1.33267	-3
1.33633	-5
1.34000	-6
1.34367	-6
1.34733	-7
1.35100	-7
1.35467	-6
1.35833	-5
1.36200	-5
1.36567	-2
1.36933	2
1.37300	0
1.37667	-1
1.38033	-2
1.38400	-1
1.38767	-3
1.39133	-3
1.39500	-5
1.39867	-8
1.40233	-8
1.40600	-7
1.40967	-6
1.41333	-5
1.41700	-4
1.42067	-2
1.42433	-0
1.42800	-0
1.43167	-2
1.43533	-1
1.43900	-1
1.44267	-2
1.44633	-2
1.45000	-1
1.45367	0
1.45733	3
1.46100	4
1.46467	3
1.46833	2
1.47200	3
1.47567	5
1.47933	6
1.48300	5
1.48667	5
1.49033	3
1.49400	-0
1.49767	-1
1.50133	0
1.50500	4
1.50867	5
1.51233	6
1.51600	4
1.51967	2
1.52333	-0
1.52700	-3
1.53067	-2
1.53433	-0
1.53800	1
1.54167	2
1.54533	4
1.54900	3
1.55267	1
1.55633	0
1.56000	-0
1.56367	0
1.56733	-0
1.57100	0
1.57467	-1
1.57833	-2
1.58200	-3
1.58567	-3
1.58933	-0
1.59300	-1
1.59667	-1
1.60033	-2
1.60400	-1
1.60767	0
1.61133	2
1.61500	2
1.61867	3
1.62233	6
1.62600	7
1.62967	6
1.63333	4
1.63700	4
1.64067	4
1.64433	6
1.64800	8
1.65167	8
1.65533	7
1.65900	5
1.66267	4
1.66633	6
1.67000	9
1.67367	10
1.67733	9
1.68100	9
1.68467	9
1.68833	6
1.69200	6
1.69567	8
1.69933	7
1.70300	6
1.70667	5
1.71033	3
1.71400	2
1.71767	1
1.72133	1
1.72500	2
1.72867	4
1.73233	5
1.73600	8
1.73967	9
1.74333	8
1.74700	7
1.75067	6
1.75433	6
1.75800	6
1.76167	8
1.76533	9
1.76900	8
1.77267	7
1.77633	6
1.78000	5
1.78367	6
1.78733	6
1.79100	8
1.79467	8
1.79833	11
1.80200	10
1.80567	8
1.80933	8
1.81300	10
1.81667	12
1.82033	14
1.82400	16
1.82767	18
1.83133	19
1.83500	20
1.83867	20
1.84233	18
1.84600	16
1.84967	18
1.85333	20
1.85700	21
1.86067	20
1.86433	19
1.86800	17
1.87167	15
1.87533	16
1.87900	18
1.88267	20
1.88633	21
1.89000	24
1.89367	26
1.89733	25
1.90100	21
1.90467	18
1.90833	19
1.91200	19
1.91567	19
1.91933	19
1.92300	20
1.92667	21
1.93033	22
1.93400	24
1.93767	25
1.94133	26
1.94500	27
1.94867	27
1.95233	25
1.95600	24
1.95967	25
1.96333	27
1.96700	28
1.97067	28
1.97433	29
1.97800	31
1.98167	33
1.98533	35
1.98900	34
1.99267	36
1.99633	39
2.00000	39
2.00367	39
2.00733	40
2.01100	40
2.01467	38
2.01833	37
2.02200	37
2.02567	37
2.02933	37
2.03300	38
2.03667	37
2.04033	36
2.04400	39
2.04767	42
2.05133	44
2.05500	43
2.05867	41
2.06233	39
2.06600	40
2.06967	42
2.07333	44
2.07700	44
2.08067	44
2.08433	45
2.08800	49
2.09167	51
2.09533	53
2.09900	53
2.10267	53
2.10633	54
2.11000	55
2.11367	56
2.11733	55
2.12100	56
2.12467	58
2.12833	57
2.13200	56
2.13567	56
2.13933	57
2.14300	58
2.14667	60
2.15033	62
2.15400	63
2.15767	66
2.16133	69
2.16500	72
2.16867	73
2.17233	72
2.17600	72
2.17967	73
2.18333	73
2.18700	75
2.19067	78
2.19433	81
2.19800	83
2.20167	82
2.20533	81
2.20900	81
2.21267	83
2.21633	85
2.22000	87
2.22367	86
2.22733	86
2.23100	86
2.23467	87
2.23833	88
2.24200	90
2.24567	92
2.24933	93
2.25300	92
2.25667	94
2.26033	96
2.26400	96
2.26767	100
2.27133	102
2.27500	103
2.27867	103
2.28233	102
2.28600	101
2.28967	102
2.29333	102
2.29700	103
2.30067	103
2.30433	104
2.30800	105
2.31167	107
2.31533	107
2.31900	109
2.32267	112
2.32633	117
2.33000	120
2.33367	121
2.33733	122
2.34100	122
2.34467	123
2.34833	125
2.35200	129
2.35567	131
2.35933	135
2.36300	137
2.36667	136
2.37033	137
2.37400	137
2.37767	138
2.38133	138
2.38500	139
2.38867	139
2.39233	140
2.39600	144
2.39967	148
2.40333	151
2.40700	157
2.41067	163
2.41433	168
2.41800	171
2.42167	172
2.42533	174
2.42900	175
2.43267	175
2.43633	174
2.44000	178
2.44367	225
2.44733	345
2.45100	474
2.45467	580
2.45833	649
2.46200	665
2.46567	645
2.46933	615
2.47300	587
2.47667	571
2.48033	566
2.48400	557
2.48767	537
2.49133	509
2.49500	477
2.49867	447
2.50233	421
2.50600	403
2.50967	391
2.51333	387
2.51700	389
2.52067	396
2.52433	408
2.52800	422
2.53167	437
2.53533	452
2.53900	458
2.54267	458
2.54633	449
2.55000	435
2.55367	417
2.55733	397
2.56100	378
2.56467	362
2.56833	348
2.57200	336
2.57567	328
2.57933	326
2.58300	325
2.58667	322
2.59033	323
2.59400	322
2.59767	318
2.60133	312
2.60500	302
2.60867	287
2.61233	268
2.61600	249
2.61967	231
2.62333	216
2.62700	204
2.63067	192
2.63433	184
2.63800	181
2.64167	182
2.64533	186
2.64900	195
2.65267	204
2.65633	212
2.66000	220
2.66367	228
2.66733	237
2.67100	244
2.67467	248
2.67833	248
2.68200	245
2.68567	243
2.68933	242
2.69300	240
2.69667	237
2.70033	235
2.70400	233
2.70767	229
2.71133	226
2.71500	223
2.71867	219
2.72233	217
2.72600	218
2.72967	221
2.73333	224
2.73700	226
2.74067	226
2.74433	227
2.74800	230
2.75167	231
2.75533	230
2.75900	229
2.76267	231
2.76633	232
2.77000	231
2.77367	232
2.77733	234
2.78100	236
2.78467	237
2.78833	239
2.79200	243
2.79567	243
2.79933	244
2.80300	245
2.80667	244
2.81033	242
2.81400	243
2.81767	252
2.82133	278
2.82500	344
2.82867	491
2.83233	776
2.83600	1267
2.83967	2029
2.84333	3101
2.84700	4484
2.85067	6133
2.85433	7959
2.85800	9839
2.86167	11633
2.86533	13202
2.86900	14426
2.87267	15231
2.87633	15587
2.88000	15522
2.88367	15094
2.88733	14385
2.89100	13480
2.89467	12455
2.89833	11379
2.90200	10301
2.90567	9257
2.90933	8269
2.91300	7352
2.91667	6516
2.92033	5757
2.92400	5079
2.92767	4476
2.93133	3942
2.93500	3469
2.93867	3049
2.94233	2680
2.94600	2357
2.94967	2077
2.95333	1832
2.95700	1619
2.96067	1435
2.96433	1274
2.96800	1136
2.97167	1016
2.97533	911
2.97900	820
2.98267	742
2.98633	674
2.99000	616
2.99367	566
2.99733	521
3.00100	482
3.00467	447
3.00833	417
3.01200	390
3.01567	366
3.01933	345
3.02300	324
3.02667	308
3.03033	295
3.03400	284
3.03767	272
3.04133	261
3.04500	253
3.04867	246
3.05233	241
3.05600	235
3.05967	228
3.06333	223
3.06700	219
3.07067	214
3.07433	208
3.07800	204
3.08167	199
3.08533	195
3.08900	190
3.09267	188
3.09633	186
3.10000	187
3.10367	187
3.10733	185
3.11100	183
3.11467	181
3.11833	179
3.12200	177
3.12567	176
3.12933	175
3.13300	175
3.13667	177
3.14033	178
3.14400	176
3.14767	173
3.15133	171
3.15500	168
3.15867	166
3.16233	167
3.16600	167
3.16967	166
3.17333	165
3.17700	164
3.18067	162
3.18433	161
3.18800	162
3.19167	162
3.19533	160
3.19900	158
3.20267	157
3.20633	157
3.21000	157
3.21367	157
3.21733	157
3.22100	156
3.22467	155
3.22833	155
3.23200	155
3.23567	155
3.23933	156
3.24300	156
3.24667	157
3.25033	158
3.25400	157
3.25767	154
3.26133	154
3.26500	154
3.26867	152
3.27233	152
3.27600	153
3.27967	154
3.28333	153
3.28700	153
3.29067	154
3.29433	154
3.29800	152
3.30167	151
3.30533	153
3.30900	153
3.31267	151
3.31633	149
3.32000	148
3.32367	148
3.32733	148
3.33100	149
3.33467	148
3.33833	147
3.34200	146
3.34567	148
3.34933	151
3.35300	152
3.35667	151
3.36033	149
3.36400	147
3.36767	147
3.37133	149
3.37500	150
3.37867	151
3.38233	150
3.38600	150
3.38967	151
3.39333	152
3.39700	152
3.40067	153
3.40433	153
3.40800	154
3.41167	156
3.41533	155
3.41900	155
3.42267	155
3.42633	158
3.43000	161
3.43367	162
3.43733	163
3.44100	161
3.44467	159
3.44833	160
3.45200	163
3.45567	166
3.45933	167
3.46300	163
3.46667	161
3.47033	161
3.47400	162
3.47767	164
3.48133	166
3.48500	168
3.48867	170
3.49233	171
3.49600	173
3.49967	173
3.50333	172
3.50700	172
3.51067	173
3.51433	175
3.51800	177
3.52167	179
3.52533	179
3.52900	179
3.53267	179
3.53633	178
3.54000	177
3.54367	177
3.54733	177
3.55100	179
3.55467	180
3.55833	180
3.56200	181
3.56567	181
3.56933	180
3.57300	180
3.57667	182
3.58033	185
3.58400	185
3.58767	185
3.59133	186
3.59500	185
3.59867	186
3.60233	187
3.60600	187
3.60967	188
3.61333	188
3.61700	190
3.62067	192
3.62433	192
3.62800	192
3.63167	192
3.63533	190
3.63900	191
3.64267	192
3.64633	190
3.65000	189
3.65367	189
3.65733	190
3.66100	192
3.66467	194
3.66833	193
3.67200	183
3.67567	172
3.67933	164
3.68300	163
3.68667	168
3.69033	176
3.69400	187
3.69767	200
3.70133	216
3.70500	232
3.70867	246
3.71233	260
3.71600	274
3.71967	287
3.72333	300
3.72700	313
3.73067	327
3.73433	337
3.73800	347
3.74167	357
3.74533	365
3.74900	375
3.75267	384
3.75633	390
3.76000	395
3.76367	398
3.76733	400
3.77100	404
3.77467	406
3.77833	410
3.78200	412
3.78567	414
3.78933	418
3.79300	420
3.79667	421
3.80033	425
3.80400	429
3.80767	430
3.81133	431
3.81500	431
3.81867	431
3.82233	431
3.82600	432
3.82967	433
3.83333	432
3.83700	432
3.84067	432
3.84433	433
3.84800	434
3.85167	434
3.85533	436
3.85900	437
3.86267	437
3.86633	438
3.87000	440
3.87367	440
3.87733	441
3.88100	443
3.88467	442
3.88833	441
3.89200	439
3.89567	440
3.89933	441
3.90300	440
3.90667	438
3.91033	437
3.91400	437
3.91767	440
3.92133	443
3.92500	442
3.92867	441
3.93233	439
3.93600	439
3.93967	439
3.94333	438
3.94700	440
3.95067	442
3.95433	441
3.95800	442
3.96167	442
3.96533	442
3.96900	443
3.97267	445
3.97633	445
3.98000	445
3.98367	445
3.98733	443
3.99100	444
3.99467	445
3.99833	443

[Status Trace (Column Oven Temperature)]
Interval(msec)	1000
# of Points	240
Start Time(min)	0.009
End Time(min)	3.993
Intensity Units	
Intensity Multiplier	1
R.Time (min)	Intensity
0.00933	35.06
0.02600	35.04
0.04267	35.02
0.05933	35.00
0.07600	34.99
0.09267	34.98
0.10933	34.96
0.12600	34.95
0.14267	34.95
0.15933	34.95
0.17600	34.96
0.19267	34.97
0.20933	34.98
0.22600	34.99
0.24267	35.01
0.25933	35.01
0.27600	35.01
0.29267	35.00
0.30933	35.01
0.32600	35.01
0.34267	35.01
0.35933	35.02
0.37600	35.02
0.39267	35.01
0.40933	35.00
0.42600	35.01
0.44267	35.00
0.45933	35.00
0.47600	35.00
0.49267	34.99
0.50933	34.99
0.52600	34.99
0.54267	34.99
0.55933	34.98
0.57600	34.99
0.59267	35.00
0.60933	34.99
0.62600	34.98
0.64267	34.99
0.65933	34.98
0.67600	34.98
0.69267	34.98
0.70933	34.99
0.72600	35.00
0.74267	35.00
0.75933	34.99
0.77600	35.00
0.79267	35.00
0.80933	35.00
0.82600	34.99
0.84267	34.99
0.85933	34.98
0.87600	34.99
0.89267	34.98
0.90933	34.98
0.92600	34.97
0.94267	34.97
0.95933	34.97
0.97600	34.97
0.99267	34.97
1.00933	34.99
1.02600	34.98
1.04267	34.97
1.05933	34.98
1.07600	34.99
1.09267	34.99
1.10933	34.99
1.12600	34.99
1.14267	35.00
1.15933	34.99
1.17600	35.00
1.19267	35.01
1.20933	35.03
1.22600	35.03
1.24267	35.03
1.25933	35.03
1.27600	35.02
1.29267	35.02
1.30933	35.02
1.32600	35.01
1.34267	35.00
1.35933	35.00
1.37600	34.99
1.39267	34.99
1.40933	34.99
1.42600	34.99
1.44267	34.99
1.45933	34.99
1.47600	34.99
1.49267	34.99
1.50933	34.99
1.52600	34.99
1.54267	34.98
1.55933	34.98
1.57600	34.98
1.59267	35.00
1.60933	35.06
1.62600	35.20
1.64267	35.40
1.65933	35.65
1.67600	36.00
1.69267	36.34
1.70933	36.69
1.72600	37.04
1.74267	37.37
1.75933	37.71
1.77600	38.05
1.79267	38.38
1.80933	38.71
1.82600	39.05
1.84267	39.37
1.85933	39.69
1.87600	40.01
1.89267	40.35
1.90933	40.68
1.92600	41.01
1.94267	41.34
1.95933	41.66
1.97600	41.98
1.99267	42.31
2.00933	42.65
2.02600	42.98
2.04267	43.29
2.05933	43.63
2.07600	43.97
2.09267	44.29
2.10933	44.62
2.12600	44.92
2.14267	45.25
2.15933	45.59
2.17600	45.91
2.19267	46.23
2.20933	46.57
2.22600	46.89
2.24267	47.22
2.25933	47.53
2.27600	47.86
2.29267	48.18
2.30933	48.53
2.32600	48.87
2.34267	49.16
2.35933	49.48
2.37600	49.69
2.39267	49.77
2.40933	49.76
2.42600	49.76
2.44267	49.77
2.45933	49.78
2.47600	49.77
2.49267	49.79
2.50933	49.79
2.52600	49.79
2.54267	49.83
2.55933	49.83
2.57600	49.83
2.59267	49.82
2.60933	49.84
2.62600	49.86
2.64267	49.85
2.65933	49.84
2.67600	49.84
2.69267	49.85
2.70933	49.85
2.72600	49.86
2.74267	49.85
2.75933	49.86
2.77600	49.90
2.79267	49.92
2.80933	49.92
2.82600	49.91
2.84267	49.91
2.85933	49.91
2.87600	49.93
2.89267	49.94
2.90933	49.95
2.92600	49.95
2.94267	49.96
2.95933	49.97
2.97600	49.97
2.99267	49.98
3.00933	49.99
3.02600	50.00
3.04267	50.01
3.05933	50.01
3.07600	50.01
3.09267	50.01
3.10933	50.01
3.12600	50.01
3.14267	50.01
3.15933	50.01
3.17600	50.03
3.19267	50.04
3.20933	50.05
3.22600	50.06
3.24267	50.06
3.25933	50.08
3.27600	50.09
3.29267	50.10
3.30933	50.11
3.32600	50.09
3.34267	50.08
3.35933	50.07
3.37600	50.07
3.39267	50.07
3.40933	50.07
3.42600	50.07
3.44267	50.07
3.45933	50.06
3.47600	50.06
3.49267	50.07
3.50933	50.07
3.52600	50.05
3.54267	50.05
3.55933	50.05
3.57600	50.05
3.59267	50.05
3.60933	50.05
3.62600	50.05
3.64267	50.06
3.65933	50.06
3.67600	50.07
3.69267	50.07
3.70933	50.07
3.72600	50.07
3.74267	50.07
3.75933	50.07
3.77600	50.06
3.79267	50.06
3.80933	50.06
3.82600	50.07
3.84267	50.08
3.85933	50.09
3.87600	50.10
3.89267	50.10
3.90933	50.10
3.92600	50.09
3.94267	50.07
3.95933	50.06
3.97600	50.06
3.99267	50.05

[Status Trace (Injection Unit Temperature)]
Interval(msec)	1000
# of Points	240
Start Time(min)	0.009
End Time(min)	3.993
Intensity Units	
Intensity Multiplier	1
R.Time (min)	Intensity
0.00933	99.97
0.02600	99.98
0.04267	99.98
0.05933	99.98
0.07600	99.98
0.09267	99.98
0.10933	99.98
0.12600	99.98
0.14267	99.98
0.15933	99.98
0.17600	99.98
0.19267	99.98
0.20933	99.98
0.22600	99.98
0.24267	99.98
0.25933	99.99
0.27600	99.98
0.29267	99.98
0.30933	99.98
0.32600	99.98
0.34267	99.98
0.35933	99.99
0.37600	99.98
0.39267	99.98
0.40933	99.98
0.42600	99.98
0.44267	99.98
0.45933	99.98
0.47600	99.98
0.49267	99.98
0.50933	99.99
0.52600	99.99
0.54267	99.98
0.55933	99.98
0.57600	99.98
0.59267	99.98
0.60933	99.98
0.62600	99.99
0.64267	99.98
0.65933	99.98
0.67600	99.98
0.69267	99.98
0.70933	99.98
0.72600	99.98
0.74267	99.98
0.75933	99.98
0.77600	99.98
0.79267	99.98
0.80933	99.98
0.82600	99.98
0.84267	99.98
0.85933	99.98
0.87600	99.98
0.89267	99.98
0.90933	99.98
0.92600	99.98
0.94267	99.98
0.95933	99.98
0.97600	99.98
0.99267	99.98
1.00933	99.99
1.02600	99.98
1.04267	99.99
1.05933	99.99
1.07600	99.99
1.09267	99.98
1.10933	99.98
1.12600	99.98
1.14267	99.99
1.15933	99.99
1.17600	99.98
1.19267	99.99
1.20933	99.99
1.22600	99.99
1.24267	99.99
1.25933	99.99
1.27600	99.98
1.29267	99.98
1.30933	99.99
1.32600	99.99
1.34267	99.98
1.35933	99.98
1.37600	99.98
1.39267	99.99
1.40933	99.99
1.42600	99.99
1.44267	99.98
1.45933	99.98
1.47600	99.98
1.49267	99.99
1.50933	99.99
1.52600	99.99
1.54267	99.98
1.55933	99.98
1.57600	99.98
1.59267	99.99
1.60933	99.98
1.62600	99.98
1.64267	99.99
1.65933	99.98
1.67600	99.98
1.69267	99.98
1.70933	99.98
1.72600	99.98
1.74267	99.98
1.75933	99.98
1.77600	99.99
1.79267	99.98
1.80933	99.98
1.82600	99.98
1.84267	99.98
1.85933	99.97
1.87600	99.97
1.89267	99.97
1.90933	99.98
1.92600	99.97
1.94267	99.97
1.95933	99.97
1.97600	99.97
1.99267	99.97
2.00933	99.97
2.02600	99.97
2.04267	99.97
2.05933	99.97
2.07600	99.96
2.09267	99.97
2.10933	99.97
2.12600	99.96
2.14267	99.97
2.15933	99.96
2.17600	99.96
2.19267	99.96
2.20933	99.96
2.22600	99.97
2.24267	99.96
2.25933	99.96
2.27600	99.96
2.29267	99.96
2.30933	99.96
2.32600	99.96
2.34267	99.96
2.35933	99.96
2.37600	99.96
2.39267	99.97
2.40933	99.96
2.42600	99.97
2.44267	99.97
2.45933	99.97
2.47600	99.97
2.49267	99.97
2.50933	99.97
2.52600	99.97
2.54267	99.97
2.55933	99.97
2.57600	99.97
2.59267	99.98
2.60933	99.98
2.62600	99.98
2.64267	99.98
2.65933	99.98
2.67600	99.98
2.69267	99.98
2.70933	99.99
2.72600	99.98
2.74267	99.99
2.75933	99.99
2.77600	99.99
2.79267	99.99
2.80933	100.00
2.82600	100.00
2.84267	100.00
2.85933	100.00
2.87600	100.01
2.89267	100.01
2.90933	100.01
2.92600	100.01
2.94267	100.01
2.95933	100.01
2.97600	100.01
2.99267	100.01
3.00933	100.02
3.02600	100.02
3.04267	100.02
3.05933	100.02
3.07600	100.02
3.09267	100.02
3.10933	100.02
3.12600	100.02
3.14267	100.02
3.15933	100.02
3.17600	100.02
3.19267	100.03
3.20933	100.03
3.22600	100.03
3.24267	100.03
3.25933	100.03
3.27600	100.03
3.29267	100.03
3.30933	100.03
3.32600	100.03
3.34267	100.03
3.35933	100.04
3.37600	100.04
3.39267	100.04
3.40933	100.04
3.42600	100.04
3.44267	100.04
3.45933	100.04
3.47600	100.04
3.49267	100.04
3.50933	100.04
3.52600	100.04
3.54267	100.04
3.55933	100.04
3.57600	100.05
3.59267	100.05
3.60933	100.05
3.62600	100.05
3.64267	100.04
3.65933	100.05
3.67600	100.05
3.69267	100.05
3.70933	100.05
3.72600	100.05
3.74267	100.05
3.75933	100.05
3.77600	100.05
3.79267	100.05
3.80933	100.04
3.82600	100.05
3.84267	100.05
3.85933	100.04
3.87600	100.05
3.89267	100.05
3.90933	100.05
3.92600	100.05
3.94267	100.05
3.95933	100.05
3.97600	100.05
3.99267	100.05

[Status Trace (Carrier Gas Pressure)]
Interval(msec)	1000
# of Points	240
Start Time(min)	0.009
End Time(min)	3.993
Intensity Units	
Intensity Multiplier	1
R.Time (min)	Intensity
0.00933	58.00
0.02600	55.25
0.04267	57.31
0.05933	59.47
0.07600	59.29
0.09267	58.03
0.10933	57.99
0.12600	58.01
0.14267	58.01
0.15933	58.00
0.17600	58.00
0.19267	58.00
0.20933	58.00
0.22600	58.00
0.24267	58.00
0.25933	58.00
0.27600	58.00
0.29267	58.00
0.30933	58.00
0.32600	58.00
0.34267	58.00
0.35933	58.00
0.37600	58.00
0.39267	58.00
0.40933	58.00
0.42600	58.00
0.44267	58.00
0.45933	58.00
0.47600	58.00
0.49267	58.00
0.50933	58.00
0.52600	58.00
0.54267	58.00
0.55933	58.00
0.57600	58.00
0.59267	58.00
0.60933	58.00
0.62600	58.00
0.64267	58.00
0.65933	58.00
0.67600	58.00
0.69267	58.00
0.70933	58.00
0.72600	58.00
0.74267	58.00
0.75933	58.00
0.77600	58.00
0.79267	58.00
0.80933	58.00
0.82600	58.00
0.84267	58.00
0.85933	58.00
0.87600	58.00
0.89267	58.00
0.90933	58.00
0.92600	58.00
0.94267	58.00
0.95933	58.00
0.97600	58.00
0.99267	58.00
1.00933	58.00
1.02600	58.00
1.04267	58.00
1.05933	58.00
1.07600	58.00
1.09267	58.00
1.10933	58.00
1.12600	58.00
1.14267	58.00
1.15933	58.00
1.17600	58.00
1.19267	58.00
1.20933	58.00
1.22600	58.00
1.24267	58.00
1.25933	58.00
1.27600	58.00
1.29267	58.00
1.30933	58.00
1.32600	58.00
1.34267	58.00
1.35933	58.00
1.37600	58.00
1.39267	58.00
1.40933	58.00
1.42600	58.00
1.44267	58.00
1.45933	58.00
1.47600	58.00
1.49267	58.00
1.50933	58.00
1.52600	58.00
1.54267	58.00
1.55933	58.00
1.57600	58.00
1.59267	58.00
1.60933	58.00
1.62600	58.00
1.64267	58.00
1.65933	58.00
1.67600	58.01
1.69267	58.00
1.70933	58.00
1.72600	58.00
1.74267	58.00
1.75933	58.00
1.77600	58.00
1.79267	58.00
1.80933	58.00
1.82600	58.00
1.84267	58.00
1.85933	58.00
1.87600	58.00
1.89267	58.00
1.90933	58.00
1.92600	58.00
1.94267	58.00
1.95933	58.00
1.97600	58.00
1.99267	58.00
2.00933	58.00
2.02600	58.00
2.04267	58.00
2.05933	58.00
2.07600	58.00
2.09267	58.00
2.10933	58.00
2.12600	58.00
2.14267	58.00
2.15933	58.00
2.17600	58.00
2.19267	58.00
2.20933	58.00
2.22600	58.00
2.24267	58.00
2.25933	58.00
2.27600	58.00
2.29267	58.00
2.30933	58.00
2.32600	58.00
2.34267	58.00
2.35933	58.00
2.37600	58.00
2.39267	57.99
2.40933	57.99
2.42600	58.00
2.44267	58.00
2.45933	58.00
2.47600	58.00
2.49267	58.00
2.50933	58.00
2.52600	57.98
2.54267	58.00
2.55933	58.00
2.57600	58.00
2.59267	58.00
2.60933	58.00
2.62600	58.00
2.64267	58.00
2.65933	58.00
2.67600	58.00
2.69267	58.00
2.70933	58.00
2.72600	58.00
2.74267	58.00
2.75933	58.00
2.77600	58.00
2.79267	58.00
2.80933	58.00
2.82600	58.00
2.84267	58.00
2.85933	58.00
2.87600	58.00
2.89267	58.00
2.90933	58.00
2.92600	58.00
2.94267	58.00
2.95933	58.00
2.97600	58.00
2.99267	58.00
3.00933	58.00
3.02600	58.00
3.04267	58.00
3.05933	58.00
3.07600	58.00
3.09267	58.00
3.10933	58.00
3.12600	58.00
3.14267	58.00
3.15933	58.00
3.17600	58.00
3.19267	58.00
3.20933	58.00
3.22600	58.00
3.24267	58.00
3.25933	58.00
3.27600	58.00
3.29267	58.00
3.30933	58.00
3.32600	58.00
3.34267	58.00
3.35933	58.00
3.37600	58.00
3.39267	58.00
3.40933	58.00
3.42600	58.00
3.44267	58.00
3.45933	58.00
3.47600	58.00
3.49267	58.00
3.50933	58.00
3.52600	58.00
3.54267	58.00
3.55933	58.00
3.57600	58.00
3.59267	58.00
3.60933	58.00
3.62600	58.00
3.64267	58.00
3.65933	58.00
3.67600	58.00
3.69267	58.00
3.70933	58.00
3.72600	58.00
3.74267	58.00
3.75933	58.00
3.77600	58.00
3.79267	58.00
3.80933	58.00
3.82600	58.00
3.84267	58.00
3.85933	58.00
3.87600	58.00
3.89267	58.00
3.90933	58.00
3.92600	58.00
3.94267	58.00
3.95933	58.00
3.97600	58.00
3.99267	58.00

[Status Trace (Carrier Gas Flow)]
Interval(msec)	1000
# of Points	240
Start Time(min)	0.009
End Time(min)	3.993
Intensity Units	
Intensity Multiplier	1
R.Time (min)	Intensity
0.00933	34.52
0.02600	34.53
0.04267	34.55
0.05933	34.54
0.07600	34.50
0.09267	34.52
0.10933	34.53
0.12600	34.52
0.14267	34.52
0.15933	34.52
0.17600	34.52
0.19267	34.52
0.20933	34.52
0.22600	34.52
0.24267	34.53
0.25933	34.51
0.27600	34.52
0.29267	34.52
0.30933	34.52
0.32600	34.52
0.34267	34.52
0.35933	34.52
0.37600	34.52
0.39267	34.52
0.40933	34.52
0.42600	34.52
0.44267	34.52
0.45933	34.53
0.47600	34.52
0.49267	34.53
0.50933	34.51
0.52600	34.52
0.54267	34.52
0.55933	34.52
0.57600	34.52
0.59267	34.52
0.60933	34.52
0.62600	34.51
0.64267	34.52
0.65933	34.52
0.67600	34.52
0.69267	34.51
0.70933	34.52
0.72600	34.53
0.74267	34.51
0.75933	34.52
0.77600	34.52
0.79267	34.51
0.80933	34.52
0.82600	34.53
0.84267	34.52
0.85933	34.52
0.87600	34.52
0.89267	34.52
0.90933	34.52
0.92600	34.52
0.94267	34.51
0.95933	34.52
0.97600	34.52
0.99267	34.52
1.00933	34.52
1.02600	34.52
1.04267	34.52
1.05933	34.51
1.07600	34.51
1.09267	34.52
1.10933	34.52
1.12600	34.52
1.14267	34.51
1.15933	34.52
1.17600	34.52
1.19267	34.51
1.20933	34.52
1.22600	34.52
1.24267	34.52
1.25933	34.52
1.27600	34.51
1.29267	34.51
1.30933	34.52
1.32600	34.52
1.34267	34.52
1.35933	34.52
1.37600	34.53
1.39267	34.52
1.40933	34.52
1.42600	34.51
1.44267	34.52
1.45933	34.52
1.47600	34.52
1.49267	34.52
1.50933	34.51
1.52600	34.53
1.54267	34.51
1.55933	34.52
1.57600	34.52
1.59267	34.52
1.60933	34.52
1.62600	34.52
1.64267	34.52
1.65933	34.52
1.67600	34.52
1.69267	34.52
1.70933	34.51
1.72600	34.52
1.74267	34.52
1.75933	34.52
1.77600	34.52
1.79267	34.52
1.80933	34.52
1.82600	34.52
1.84267	34.51
1.85933	34.52
1.87600	34.52
1.89267	34.52
1.90933	34.51
1.92600	34.52
1.94267	34.51
1.95933	34.53
1.97600	34.52
1.99267	34.52
2.00933	34.52
2.02600	34.52
2.04267	34.52
2.05933	34.52
2.07600	34.52
2.09267	34.52
2.10933	34.52
2.12600	34.51
2.14267	34.52
2.15933	34.52
2.17600	34.52
2.19267	34.52
2.20933	34.51
2.22600	34.52
2.24267	34.52
2.25933	34.52
2.27600	34.51
2.29267	34.52
2.30933	34.52
2.32600	34.52
2.34267	34.52
2.35933	34.51
2.37600	34.53
2.39267	34.52
2.40933	34.52
2.42600	34.52
2.44267	34.52
2.45933	34.52
2.47600	34.52
2.49267	34.51
2.50933	34.51
2.52600	34.52
2.54267	34.52
2.55933	34.52
2.57600	34.52
2.59267	34.52
2.60933	34.52
2.62600	34.52
2.64267	34.52
2.65933	34.52
2.67600	34.52
2.69267	34.52
2.70933	34.51
2.72600	34.52
2.74267	34.52
2.75933	34.52
2.77600	34.52
2.79267	34.52
2.80933	34.52
2.82600	34.51
2.84267	34.52
2.85933	34.52
2.87600	34.52
2.89267	34.52
2.90933	34.52
2.92600	34.52
2.94267	34.52
2.95933	34.51
2.97600	34.52
2.99267	34.51
3.00933	34.52
3.02600	34.52
3.04267	34.52
3.05933	34.52
3.07600	34.52
3.09267	34.52
3.10933	34.52
3.12600	34.52
3.14267	34.52
3.15933	34.52
3.17600	34.52
3.19267	34.52
3.20933	34.52
3.22600	34.52
3.24267	34.52
3.25933	34.52
3.27600	34.52
3.29267	34.52
3.30933	34.52
3.32600	34.52
3.34267	34.51
3.35933	34.52
3.37600	34.52
3.39267	34.51
3.40933	34.52
3.42600	34.52
3.44267	34.52
3.45933	34.53
3.47600	34.52
3.49267	34.52
3.50933	34.52
3.52600	34.52
3.54267	34.52
3.55933	34.51
3.57600	34.52
3.59267	34.52
3.60933	34.52
3.62600	34.52
3.64267	34.52
3.65933	34.52
3.67600	34.51
3.69267	34.52
3.70933	34.52
3.72600	34.52
3.74267	34.52
3.75933	34.52
3.77600	34.52
3.79267	34.52
3.80933	34.52
3.82600	34.51
3.84267	34.52
3.85933	34.52
3.87600	34.52
3.89267	34.51
3.90933	34.52
3.92600	34.52
3.94267	34.52
3.95933	34.52
3.97600	34.52
3.99267	34.52

[Status Trace (Column Flow)]
Interval(msec)	1000
# of Points	240
Start Time(min)	0.009
End Time(min)	3.993
Intensity Units	
Intensity Multiplier	1
R.Time (min)	Intensity
0.00933	5.51
0.02600	5.19
0.04267	5.43
0.05933	5.68
0.07600	5.66
0.09267	5.52
0.10933	5.51
0.12600	5.51
0.14267	5.51
0.15933	5.51
0.17600	5.51
0.19267	5.51
0.20933	5.51
0.22600	5.51
0.24267	5.51
0.25933	5.51
0.27600	5.51
0.29267	5.51
0.30933	5.51
0.32600	5.51
0.34267	5.51
0.35933	5.51
0.37600	5.51
0.39267	5.51
0.40933	5.51
0.42600	5.51
0.44267	5.51
0.45933	5.51
0.47600	5.51
0.49267	5.51
0.50933	5.51
0.52600	5.51
0.54267	5.51
0.55933	5.51
0.57600	5.51
0.59267	5.51
0.60933	5.51
0.62600	5.51
0.64267	5.51
0.65933	5.51
0.67600	5.51
0.69267	5.51
0.70933	5.51
0.72600	5.51
0.74267	5.51
0.75933	5.51
0.77600	5.51
0.79267	5.51
0.80933	5.51
0.82600	5.51
0.84267	5.51
0.85933	5.51
0.87600	5.51
0.89267	5.51
0.90933	5.51
0.92600	5.51
0.94267	5.51
0.95933	5.51
0.97600	5.51
0.99267	5.51
1.00933	5.51
1.02600	5.51
1.04267	5.51
1.05933	5.51
1.07600	5.51
1.09267	5.51
1.10933	5.51
1.12600	5.51
1.14267	5.51
1.15933	5.51
1.17600	5.51
1.19267	5.51
1.20933	5.51
1.22600	5.51
1.24267	5.51
1.25933	5.51
1.27600	5.51
1.29267	5.51
1.30933	5.51
1.32600	5.51
1.34267	5.51
1.35933	5.51
1.37600	5.51
1.39267	5.51
1.40933	5.51
1.42600	5.51
1.44267	5.51
1.45933	5.51
1.47600	5.51
1.49267	5.51
1.50933	5.51
1.52600	5.51
1.54267	5.51
1.55933	5.51
1.57600	5.51
1.59267	5.51
1.60933	5.51
1.62600	5.51
1.64267	5.50
1.65933	5.49
1.67600	5.48
1.69267	5.47
1.70933	5.46
1.72600	5.45
1.74267	5.44
1.75933	5.43
1.77600	5.42
1.79267	5.41
1.80933	5.40
1.82600	5.39
1.84267	5.38
1.85933	5.37
1.87600	5.36
1.89267	5.35
1.90933	5.34
1.92600	5.33
1.94267	5.32
1.95933	5.31
1.97600	5.30
1.99267	5.29
2.00933	5.28
2.02600	5.27
2.04267	5.26
2.05933	5.25
2.07600	5.24
2.09267	5.23
2.10933	5.22
2.12600	5.21
2.14267	5.20
2.15933	5.19
2.17600	5.18
2.19267	5.17
2.20933	5.16
2.22600	5.16
2.24267	5.15
2.25933	5.14
2.27600	5.13
2.29267	5.12
2.30933	5.11
2.32600	5.10
2.34267	5.09
2.35933	5.08
2.37600	5.08
2.39267	5.07
2.40933	5.07
2.42600	5.08
2.44267	5.08
2.45933	5.07
2.47600	5.08
2.49267	5.07
2.50933	5.07
2.52600	5.07
2.54267	5.07
2.55933	5.07
2.57600	5.07
2.59267	5.07
2.60933	5.07
2.62600	5.07
2.64267	5.07
2.65933	5.07
2.67600	5.07
2.69267	5.07
2.70933	5.07
2.72600	5.07
2.74267	5.07
2.75933	5.07
2.77600	5.07
2.79267	5.07
2.80933	5.07
2.82600	5.07
2.84267	5.07
2.85933	5.07
2.87600	5.07
2.89267	5.07
2.90933	5.07
2.92600	5.07
2.94267	5.07
2.95933	5.07
2.97600	5.07
2.99267	5.07
3.00933	5.07
3.02600	5.07
3.04267	5.07
3.05933	5.07
3.07600	5.07
3.09267	5.07
3.10933	5.07
3.12600	5.07
3.14267	5.07
3.15933	5.07
3.17600	5.07
3.19267	5.07
3.20933	5.07
3.22600	5.07
3.24267	5.07
3.25933	5.07
3.27600	5.07
3.29267	5.07
3.30933	5.07
3.32600	5.07
3.34267	5.07
3.35933	5.07
3.37600	5.07
3.39267	5.07
3.40933	5.07
3.42600	5.07
3.44267	5.07
3.45933	5.07
3.47600	5.07
3.49267	5.07
3.50933	5.07
3.52600	5.07
3.54267	5.07
3.55933	5.07
3.57600	5.07
3.59267	5.07
3.60933	5.07
3.62600	5.07
3.64267	5.07
3.65933	5.07
3.67600	5.07
3.69267	5.07
3.70933	5.07
3.72600	5.07
3.74267	5.07
3.75933	5.07
3.77600	5.07
3.79267	5.07
3.80933	5.07
3.82600	5.07
3.84267	5.07
3.85933	5.07
3.87600	5.07
3.89267	5.07
3.90933	5.07
3.92600	5.07
3.94267	5.07
3.95933	5.07
3.97600	5.07
3.99267	5.07

[Status Trace (Linear Velocity)]
Interval(msec)	1000
# of Points	240
Start Time(min)	0.009
End Time(min)	3.993
Intensity Units	
Intensity Multiplier	1
R.Time (min)	Intensity
0.00933	39.01
0.02600	37.21
0.04267	38.56
0.05933	39.97
0.07600	39.86
0.09267	39.04
0.10933	39.01
0.12600	39.03
0.14267	39.02
0.15933	39.02
0.17600	39.02
0.19267	39.02
0.20933	39.02
0.22600	39.02
0.24267	39.01
0.25933	39.01
0.27600	39.01
0.29267	39.01
0.30933	39.01
0.32600	39.01
0.34267	39.01
0.35933	39.01
0.37600	39.01
0.39267	39.01
0.40933	39.01
0.42600	39.01
0.44267	39.01
0.45933	39.01
0.47600	39.02
0.49267	39.02
0.50933	39.01
0.52600	39.02
0.54267	39.02
0.55933	39.02
0.57600	39.02
0.59267	39.01
0.60933	39.02
0.62600	39.02
0.64267	39.02
0.65933	39.02
0.67600	39.02
0.69267	39.02
0.70933	39.02
0.72600	39.01
0.74267	39.01
0.75933	39.01
0.77600	39.01
0.79267	39.01
0.80933	39.01
0.82600	39.01
0.84267	39.02
0.85933	39.02
0.87600	39.02
0.89267	39.02
0.90933	39.02
0.92600	39.02
0.94267	39.02
0.95933	39.02
0.97600	39.02
0.99267	39.02
1.00933	39.02
1.02600	39.02
1.04267	39.02
1.05933	39.02
1.07600	39.02
1.09267	39.01
1.10933	39.02
1.12600	39.02
1.14267	39.01
1.15933	39.01
1.17600	39.01
1.19267	39.01
1.20933	39.01
1.22600	39.01
1.24267	39.01
1.25933	39.01
1.27600	39.01
1.29267	39.01
1.30933	39.01
1.32600	39.01
1.34267	39.01
1.35933	39.01
1.37600	39.01
1.39267	39.01
1.40933	39.02
1.42600	39.02
1.44267	39.02
1.45933	39.01
1.47600	39.01
1.49267	39.02
1.50933	39.02
1.52600	39.01
1.54267	39.02
1.55933	39.02
1.57600	39.02
1.59267	39.01
1.60933	39.01
1.62600	39.00
1.64267	38.98
1.65933	38.95
1.67600	38.93
1.69267	38.89
1.70933	38.85
1.72600	38.82
1.74267	38.79
1.75933	38.76
1.77600	38.73
1.79267	38.69
1.80933	38.66
1.82600	38.63
1.84267	38.60
1.85933	38.57
1.87600	38.54
1.89267	38.51
1.90933	38.48
1.92600	38.45
1.94267	38.41
1.95933	38.38
1.97600	38.36
1.99267	38.33
2.00933	38.29
2.02600	38.27
2.04267	38.23
2.05933	38.20
2.07600	38.18
2.09267	38.14
2.10933	38.11
2.12600	38.09
2.14267	38.06
2.15933	38.03
2.17600	38.00
2.19267	37.97
2.20933	37.94
2.22600	37.91
2.24267	37.88
2.25933	37.85
2.27600	37.82
2.29267	37.79
2.30933	37.76
2.32600	37.73
2.34267	37.70
2.35933	37.68
2.37600	37.66
2.39267	37.65
2.40933	37.65
2.42600	37.65
2.44267	37.65
2.45933	37.65
2.47600	37.65
2.49267	37.65
2.50933	37.65
2.52600	37.64
2.54267	37.65
2.55933	37.65
2.57600	37.64
2.59267	37.65
2.60933	37.64
2.62600	37.64
2.64267	37.64
2.65933	37.64
2.67600	37.64
2.69267	37.64
2.70933	37.64
2.72600	37.64
2.74267	37.64
2.75933	37.64
2.77600	37.64
2.79267	37.64
2.80933	37.64
2.82600	37.64
2.84267	37.64
2.85933	37.64
2.87600	37.64
2.89267	37.64
2.90933	37.63
2.92600	37.63
2.94267	37.63
2.95933	37.63
2.97600	37.63
2.99267	37.63
3.00933	37.63
3.02600	37.63
3.04267	37.63
3.05933	37.63
3.07600	37.63
3.09267	37.63
3.10933	37.63
3.12600	37.63
3.14267	37.63
3.15933	37.63
3.17600	37.63
3.19267	37.63
3.20933	37.63
3.22600	37.63
3.24267	37.62
3.25933	37.62
3.27600	37.62
3.29267	37.62
3.30933	37.62
3.32600	37.62
3.34267	37.62
3.35933	37.62
3.37600	37.62
3.39267	37.62
3.40933	37.62
3.42600	37.62
3.44267	37.62
3.45933	37.62
3.47600	37.62
3.49267	37.62
3.50933	37.62
3.52600	37.63
3.54267	37.63
3.55933	37.63
3.57600	37.63
3.59267	37.63
3.60933	37.63
3.62600	37.63
3.64267	37.63
3.65933	37.62
3.67600	37.62
3.69267	37.62
3.70933	37.62
3.72600	37.62
3.74267	37.62
3.75933	37.62
3.77600	37.62
3.79267	37.62
3.80933	37.62
3.82600	37.62
3.84267	37.62
3.85933	37.62
3.87600	37.62
3.89267	37.62
3.90933	37.62
3.92600	37.62
3.94267	37.62
3.95933	37.62
3.97600	37.63
3.99267	37.63

