[Header]
Application Name	LabSolutions
Version	5.110
Data File Name	C:\Users\User\Desktop\GC Analyses\Jack\Nachusa Grasslands Sampling\T2 Timepoint July 12th\T2_07122022_068.gcd
Output Date	3/14/2023
Output Time	3:42:34 PM

[File Information]
Type	Data File
Generated	3/10/2023 8:01:09 PM
Generated by	System Administrator
Modified	3/10/2023 8:07:58 PM
Modified by	System Administrator

[Sample Information]
Operator Name	System Administrator
Acquired	3/10/2023 8:03:56 PM
Sample Type	0:Unknown
Level	0
Sample Name	068
Sample ID	068
ISTD Amount1	1
ISTD Amount2	1
ISTD Amount3	1
ISTD Amount4	1
ISTD Amount5	1
ISTD Amount6	1
ISTD Amount7	1
ISTD Amount8	1
ISTD Amount9	1
ISTD Amount10	1
ISTD Amount11	1
ISTD Amount12	1
ISTD Amount13	1
ISTD Amount14	1
ISTD Amount15	1
ISTD Amount16	1
ISTD Amount17	1
ISTD Amount18	1
ISTD Amount19	1
ISTD Amount20	1
ISTD Amount21	1
ISTD Amount22	1
ISTD Amount23	1
ISTD Amount24	1
ISTD Amount25	1
ISTD Amount26	1
ISTD Amount27	1
ISTD Amount28	1
ISTD Amount29	1
ISTD Amount30	1
ISTD Amount31	1
ISTD Amount32	1
Sample Amount	1
Dilution Factor	1
Vial#	67
Injection Volume	1
Injection Count	1
Bar Code	

[Original Files]
Data File	C:\Users\User\Desktop\GC Analyses\Jack\Nachusa Grasslands Sampling\T1 Timepoint July 12th\T2_07122022_068.gcd
Method File	C:\LabSolutions\Data\GHG_4min_2022\ghg3_togas_w_acet_4 min_new_int.gcm
Batch File	C:\LabSolutions\Data\AutoSamplerTesting\T2_07122022.gcb
Report Format File	c:\LabSolutions\System\DEFAULT.lsr

[File Description]


[Configuration]
Instrument Name	C0B7VH3-Instrument1
Instrument #	1
Line #	1
# of Detectors	3
Detector ID	DET#1	DET#2	DET#3
Detector Name	FID	PTCD	ECD
# of Channels	1	1	1

[Peak Table(Ch1)]
# of Peaks	3
Peak#	R.Time	I.Time	F.Time	Area	Height	A/H	Conc.	Mark	ID#	Name	k'	Plate #	Plate Ht.	Tailing	Resolution	Sep.Factor	Area Ratio	Height Ratio	Conc. %	Norm Conc.
1	1.476	1.435	1.538	27582	13091	2.107	194.729	   	1	CO	0.000	9262	16.195	1.274	0.000	0.000	0	0	15.877	15.877
2	1.567	1.538	1.626	4422	2158	2.049	85.501	 V 	2	CH4	0.062	10170	14.749	0.000	1.484	0.000	0	0	6.971	6.971
3	1.996	1.945	2.535	3770348	1783286	2.114	946.255	   	3	CO2	0.353	17354	8.643	1.224	6.988	5.680	0	0	77.152	77.152

[Peak Table(Ch2)]
# of Peaks	0

[Peak Table(Ch3)]
# of Peaks	4
Peak#	R.Time	I.Time	F.Time	Area	Height	A/H	Conc.	Mark	ID#	Name	k'	Plate #	Plate Ht.	Tailing	Resolution	Sep.Factor	Area Ratio	Height Ratio	Conc. %	Norm Conc.
1	2.458	2.337	2.513	2116	683	3.097	0.000	   			0.000	11148	13.456	0.000	0.000	0.000	0	0	0.000	0.000
2	2.535	2.513	2.627	1104	313	3.530	0.000	 V 			0.031	7602	19.733	0.000	0.735	0.000	0	0	0.000	0.000
3	2.876	2.719	3.071	20527	5096	4.028	0.524	   	1	N2O	0.170	12862	11.663	1.675	3.132	5.429	0	0	100.000	100.000
4	3.283	3.078	3.995	17334	520	33.317	0.000	   	2	SF6	0.336	94	1592.409	2.183	0.560	1.974	0	0	0.000	0.000

[Compound Results(Ch1)]
# of IDs	6
ID#	Name	R.Time	Area	Height	Conc.	Curve	3rd	2nd	1st	Constant	Area Ratio	Height Ratio	Conc. %	Norm Conc.
1	CO	1.476	27582	13091	194.729	Linear	0.000000e+00	0.000000e+00	1.416423e+002	0.000000e+00	0	0	15.877	15.877
2	CH4	1.567	4422	2158	85.501	Linear	0.000000e+00	0.000000e+00	5.171738e+001	0.000000e+00	0	0	6.971	6.971
3	CO2	1.996	3770348	1783286	946.255	Linear	0.000000e+00	0.000000e+00	3.984494e+003	0.000000e+00	0	0	77.152	77.152
4	Ethylene	0.000	0	0	0.000	Linear	0.000000e+00	0.000000e+00	0.000000e+00	0.000000e+00	0	0	0.000	0.000
5	Acetylene	0.000	0	0	0.000	Linear	0.000000e+00	0.000000e+00	0.000000e+00	0.000000e+00	0	0	0.000	0.000
6	Ethane	0.000	0	0	0.000	Linear	0.000000e+00	0.000000e+00	0.000000e+00	0.000000e+00	0	0	0.000	0.000

[Compound Results(Ch2)]
# of IDs	5
ID#	Name	R.Time	Area	Height	Conc.	Curve	3rd	2nd	1st	Constant	Area Ratio	Height Ratio	Conc. %	Norm Conc.
1	Hydrogen	0.000	0	0	0.000	Linear	0.000000e+00	0.000000e+00	0.000000e+00	0.000000e+00	0	0	0.000	0.000
2	Oxygen	0.000	0	0	0.000	Linear	0.000000e+00	0.000000e+00	0.000000e+00	0.000000e+00	0	0	0.000	0.000
3	Nitrogen	0.000	0	0	0.000	Linear	0.000000e+00	0.000000e+00	0.000000e+00	0.000000e+00	0	0	0.000	0.000
4	Methane	0.000	0	0	0.000	Linear	0.000000e+00	0.000000e+00	0.000000e+00	0.000000e+00	0	0	0.000	0.000
5	Carbon Monoxide	0.000	0	0	0.000	Linear	0.000000e+00	0.000000e+00	0.000000e+00	0.000000e+00	0	0	0.000	0.000

[Compound Results(Ch3)]
# of IDs	2
ID#	Name	R.Time	Area	Height	Conc.	Curve	3rd	2nd	1st	Constant	Area Ratio	Height Ratio	Conc. %	Norm Conc.
1	N2O	2.876	20527	5096	0.524	Linear	0.000000e+00	0.000000e+00	3.915173e+004	0.000000e+00	0	0	100.000	100.000
2	SF6	3.283	17334	520	0.000	Linear	0.000000e+00	0.000000e+00	0.000000e+00	0.000000e+00	0	0	0.000	0.000

[Group Results(Ch1)]
# of Groups	0

[Group Results(Ch2)]
# of Groups	0

[Group Results(Ch3)]
# of Groups	0

[Chromatogram (Ch1)]
Interval(msec)	220
# of Points	1091
Start Time(min)	0.002
End Time(min)	3.998
R.Time (min)	Intensity
0.00167	-6
0.00533	-4
0.00900	-5
0.01267	-5
0.01633	-2
0.02000	2
0.02367	5
0.02733	7
0.03100	9
0.03467	9
0.03833	4
0.04200	-3
0.04567	-11
0.04933	-15
0.05300	-16
0.05667	-11
0.06033	-4
0.06400	2
0.06767	9
0.07133	12
0.07500	9
0.07867	4
0.08233	-8
0.08600	-18
0.08967	-20
0.09333	-8
0.09700	9
0.10067	21
0.10433	26
0.10800	25
0.11167	21
0.11533	15
0.11900	11
0.12267	9
0.12633	12
0.13000	15
0.13367	20
0.13733	25
0.14100	23
0.14467	22
0.14833	20
0.15200	15
0.15567	11
0.15933	8
0.16300	4
0.16667	-0
0.17033	-2
0.17400	-2
0.17767	0
0.18133	5
0.18500	10
0.18867	16
0.19233	18
0.19600	16
0.19967	17
0.20333	21
0.20700	27
0.21067	30
0.21433	33
0.21800	36
0.22167	38
0.22533	32
0.22900	24
0.23267	14
0.23633	2
0.24000	-9
0.24367	-15
0.24733	-19
0.25100	-25
0.25467	-28
0.25833	-27
0.26200	-18
0.26567	-9
0.26933	-5
0.27300	-5
0.27667	-3
0.28033	-3
0.28400	-4
0.28767	-8
0.29133	-14
0.29500	-18
0.29867	-20
0.30233	-18
0.30600	-16
0.30967	-12
0.31333	-8
0.31700	-4
0.32067	-2
0.32433	-3
0.32800	-7
0.33167	-9
0.33533	-7
0.33900	-6
0.34267	-6
0.34633	-6
0.35000	-9
0.35367	-4
0.35733	4
0.36100	4
0.36467	1
0.36833	-5
0.37200	-12
0.37567	-13
0.37933	-7
0.38300	-1
0.38667	-0
0.39033	-3
0.39400	-2
0.39767	-2
0.40133	-7
0.40500	-14
0.40867	-19
0.41233	-21
0.41600	-22
0.41967	-27
0.42333	-31
0.42700	-35
0.43067	-41
0.43433	-43
0.43800	-42
0.44167	-37
0.44533	-31
0.44900	-25
0.45267	-20
0.45633	-19
0.46000	-18
0.46367	-15
0.46733	-15
0.47100	-17
0.47467	-16
0.47833	-16
0.48200	-18
0.48567	-18
0.48933	-23
0.49300	-36
0.49667	-47
0.50033	-52
0.50400	-49
0.50767	-42
0.51133	-35
0.51500	-30
0.51867	-24
0.52233	-18
0.52600	-15
0.52967	-11
0.53333	-10
0.53700	-13
0.54067	-19
0.54433	-25
0.54800	-32
0.55167	-35
0.55533	-36
0.55900	-38
0.56267	-36
0.56633	-29
0.57000	-21
0.57367	-16
0.57733	-16
0.58100	-20
0.58467	-28
0.58833	-36
0.59200	-39
0.59567	-40
0.59933	-40
0.60300	-38
0.60667	-35
0.61033	-30
0.61400	-28
0.61767	-29
0.62133	-32
0.62500	-34
0.62867	-33
0.63233	-28
0.63600	-25
0.63967	-20
0.64333	-19
0.64700	-24
0.65067	-36
0.65433	-50
0.65800	-59
0.66167	-58
0.66533	-50
0.66900	-36
0.67267	-21
0.67633	-13
0.68000	-15
0.68367	-23
0.68733	-31
0.69100	-39
0.69467	-47
0.69833	-49
0.70200	-48
0.70567	-45
0.70933	-41
0.71300	-38
0.71667	-33
0.72033	-28
0.72400	-23
0.72767	-16
0.73133	-14
0.73500	-15
0.73867	-18
0.74233	-24
0.74600	-29
0.74967	-29
0.75333	-28
0.75700	-29
0.76067	-34
0.76433	-41
0.76800	-45
0.77167	-42
0.77533	-39
0.77900	-35
0.78267	-27
0.78633	-19
0.79000	-16
0.79367	-19
0.79733	-27
0.80100	-35
0.80467	-42
0.80833	-47
0.81200	-49
0.81567	-46
0.81933	-34
0.82300	-19
0.82667	-3
0.83033	8
0.83400	10
0.83767	10
0.84133	11
0.84500	11
0.84867	8
0.85233	5
0.85600	1
0.85967	-5
0.86333	-13
0.86700	-18
0.87067	-22
0.87433	-23
0.87800	-23
0.88167	-20
0.88533	-14
0.88900	-6
0.89267	-4
0.89633	-5
0.90000	-11
0.90367	-17
0.90733	-21
0.91100	-20
0.91467	-10
0.91833	3
0.92200	10
0.92567	10
0.92933	3
0.93300	-5
0.93667	-14
0.94033	-23
0.94400	-26
0.94767	-24
0.95133	-19
0.95500	-10
0.95867	-3
0.96233	4
0.96600	11
0.96967	13
0.97333	12
0.97700	6
0.98067	-2
0.98433	-11
0.98800	-15
0.99167	-12
0.99533	-4
0.99900	9
1.00267	17
1.00633	14
1.01000	5
1.01367	-1
1.01733	-4
1.02100	-11
1.02467	-22
1.02833	-31
1.03200	-36
1.03567	-32
1.03933	-22
1.04300	-12
1.04667	-1
1.05033	3
1.05400	2
1.05767	-5
1.06133	-13
1.06500	-16
1.06867	-16
1.07233	-18
1.07600	-19
1.07967	-15
1.08333	-13
1.08700	-11
1.09067	-5
1.09433	-3
1.09800	-4
1.10167	-6
1.10533	-9
1.10900	-12
1.11267	-10
1.11633	-6
1.12000	-10
1.12367	-17
1.12733	-21
1.13100	-22
1.13467	-20
1.13833	-18
1.14200	-16
1.14567	-14
1.14933	-13
1.15300	-11
1.15667	-8
1.16033	-6
1.16400	-6
1.16767	-11
1.17133	-16
1.17500	-18
1.17867	-19
1.18233	-18
1.18600	-20
1.18967	-20
1.19333	-15
1.19700	-9
1.20067	-10
1.20433	-22
1.20800	-34
1.21167	-35
1.21533	-31
1.21900	-30
1.22267	-36
1.22633	-44
1.23000	-49
1.23367	-53
1.23733	-50
1.24100	-42
1.24467	-30
1.24833	-23
1.25200	-22
1.25567	-23
1.25933	-24
1.26300	-27
1.26667	-32
1.27033	-38
1.27400	-40
1.27767	-41
1.28133	-42
1.28500	-40
1.28867	-33
1.29233	-27
1.29600	-22
1.29967	-18
1.30333	-19
1.30700	-26
1.31067	-36
1.31433	-46
1.31800	-51
1.32167	-49
1.32533	-45
1.32900	-41
1.33267	-37
1.33633	-34
1.34000	-26
1.34367	-20
1.34733	-23
1.35100	-28
1.35467	-29
1.35833	-28
1.36200	-31
1.36567	-35
1.36933	-38
1.37300	-41
1.37667	-43
1.38033	-46
1.38400	-53
1.38767	-61
1.39133	-67
1.39500	-69
1.39867	-66
1.40233	-60
1.40600	-57
1.40967	-58
1.41333	-60
1.41700	-60
1.42067	-62
1.42433	-66
1.42800	-72
1.43167	-75
1.43533	-66
1.43900	-23
1.44267	105
1.44633	387
1.45000	1072
1.45367	2545
1.45733	4794
1.46100	7334
1.46467	9656
1.46833	11475
1.47200	12648
1.47567	13039
1.47933	12557
1.48300	11263
1.48667	9436
1.49033	7452
1.49400	5625
1.49767	4117
1.50133	2965
1.50500	2119
1.50867	1514
1.51233	1091
1.51600	800
1.51967	601
1.52333	463
1.52700	366
1.53067	298
1.53433	253
1.53800	239
1.54167	300
1.54533	481
1.54900	788
1.55267	1170
1.55633	1545
1.56000	1853
1.56367	2060
1.56733	2140
1.57100	2067
1.57467	1843
1.57833	1519
1.58200	1168
1.58567	855
1.58933	607
1.59300	423
1.59667	288
1.60033	192
1.60400	127
1.60767	90
1.61133	67
1.61500	46
1.61867	26
1.62233	11
1.62600	3
1.62967	-2
1.63333	-5
1.63700	-9
1.64067	-12
1.64433	-15
1.64800	-18
1.65167	-18
1.65533	-13
1.65900	-10
1.66267	-6
1.66633	-1
1.67000	2
1.67367	4
1.67733	4
1.68100	1
1.68467	-4
1.68833	-9
1.69200	-12
1.69567	-15
1.69933	-16
1.70300	-18
1.70667	-21
1.71033	-22
1.71400	-24
1.71767	-28
1.72133	-33
1.72500	-40
1.72867	-48
1.73233	-54
1.73600	-57
1.73967	-57
1.74333	-55
1.74700	-53
1.75067	-51
1.75433	-48
1.75800	-46
1.76167	-44
1.76533	-38
1.76900	-34
1.77267	-30
1.77633	-26
1.78000	-23
1.78367	-21
1.78733	-16
1.79100	-13
1.79467	-21
1.79833	-34
1.80200	-49
1.80567	-59
1.80933	-63
1.81300	-62
1.81667	-55
1.82033	-48
1.82400	-45
1.82767	-43
1.83133	-42
1.83500	-44
1.83867	-47
1.84233	-50
1.84600	-53
1.84967	-55
1.85333	-50
1.85700	-40
1.86067	-36
1.86433	-38
1.86800	-35
1.87167	-31
1.87533	-30
1.87900	-36
1.88267	-43
1.88633	-49
1.89000	-50
1.89367	-45
1.89733	-41
1.90100	-43
1.90467	-48
1.90833	-44
1.91200	-33
1.91567	-22
1.91933	-20
1.92300	-27
1.92667	-34
1.93033	-40
1.93400	-44
1.93767	-43
1.94133	-38
1.94500	-29
1.94867	-15
1.95233	60
1.95600	578
1.95967	3574
1.96333	16597
1.96700	59583
1.97067	167658
1.97433	373875
1.97800	676165
1.98167	1027496
1.98533	1360366
1.98900	1617604
1.99267	1763337
1.99633	1783325
2.00000	1683999
2.00367	1491166
2.00733	1243584
2.01100	982783
2.01467	742224
2.01833	541118
2.02200	384940
2.02567	270025
2.02933	188620
2.03300	132394
2.03667	94138
2.04033	68291
2.04400	50827
2.04767	38940
2.05133	30743
2.05500	24993
2.05867	20874
2.06233	17850
2.06600	15571
2.06967	13809
2.07333	12411
2.07700	11279
2.08067	10343
2.08433	9554
2.08800	8873
2.09167	8278
2.09533	7757
2.09900	7300
2.10267	6893
2.10633	6528
2.11000	6200
2.11367	5904
2.11733	5636
2.12100	5382
2.12467	5145
2.12833	4922
2.13200	4719
2.13567	4535
2.13933	4365
2.14300	4206
2.14667	4059
2.15033	3923
2.15400	3793
2.15767	3666
2.16133	3542
2.16500	3426
2.16867	3320
2.17233	3224
2.17600	3136
2.17967	3054
2.18333	2970
2.18700	2883
2.19067	2802
2.19433	2727
2.19800	2657
2.20167	2591
2.20533	2531
2.20900	2473
2.21267	2413
2.21633	2353
2.22000	2294
2.22367	2240
2.22733	2194
2.23100	2152
2.23467	2107
2.23833	2061
2.24200	2016
2.24567	1973
2.24933	1933
2.25300	1889
2.25667	1842
2.26033	1799
2.26400	1762
2.26767	1729
2.27133	1697
2.27500	1668
2.27867	1645
2.28233	1628
2.28600	1609
2.28967	1585
2.29333	1558
2.29700	1525
2.30067	1490
2.30433	1455
2.30800	1422
2.31167	1396
2.31533	1371
2.31900	1349
2.32267	1334
2.32633	1323
2.33000	1310
2.33367	1294
2.33733	1278
2.34100	1260
2.34467	1244
2.34833	1231
2.35200	1218
2.35567	1208
2.35933	1200
2.36300	1191
2.36667	1175
2.37033	1149
2.37400	1121
2.37767	1097
2.38133	1082
2.38500	1075
2.38867	1070
2.39233	1064
2.39600	1055
2.39967	1045
2.40333	1033
2.40700	1019
2.41067	1004
2.41433	993
2.41800	986
2.42167	979
2.42533	971
2.42900	960
2.43267	949
2.43633	939
2.44000	932
2.44367	928
2.44733	923
2.45100	918
2.45467	916
2.45833	911
2.46200	902
2.46567	886
2.46933	860
2.47300	835
2.47667	815
2.48033	802
2.48400	796
2.48767	794
2.49133	794
2.49500	793
2.49867	783
2.50233	771
2.50600	761
2.50967	756
2.51333	757
2.51700	758
2.52067	755
2.52433	750
2.52800	747
2.53167	746
2.53533	748
2.53900	750
2.54267	753
2.54633	753
2.55000	746
2.55367	740
2.55733	734
2.56100	726
2.56467	713
2.56833	696
2.57200	677
2.57567	662
2.57933	651
2.58300	645
2.58667	641
2.59033	642
2.59400	645
2.59767	651
2.60133	653
2.60500	646
2.60867	633
2.61233	623
2.61600	617
2.61967	619
2.62333	620
2.62700	617
2.63067	614
2.63433	618
2.63800	625
2.64167	632
2.64533	631
2.64900	625
2.65267	616
2.65633	608
2.66000	601
2.66367	596
2.66733	595
2.67100	596
2.67467	589
2.67833	574
2.68200	553
2.68567	535
2.68933	529
2.69300	530
2.69667	530
2.70033	528
2.70400	531
2.70767	536
2.71133	536
2.71500	537
2.71867	542
2.72233	550
2.72600	556
2.72967	557
2.73333	553
2.73700	548
2.74067	541
2.74433	528
2.74800	514
2.75167	505
2.75533	505
2.75900	506
2.76267	506
2.76633	503
2.77000	501
2.77367	498
2.77733	496
2.78100	499
2.78467	511
2.78833	521
2.79200	521
2.79567	513
2.79933	505
2.80300	506
2.80667	508
2.81033	512
2.81400	514
2.81767	514
2.82133	511
2.82500	506
2.82867	502
2.83233	505
2.83600	509
2.83967	507
2.84333	502
2.84700	496
2.85067	490
2.85433	482
2.85800	473
2.86167	466
2.86533	459
2.86900	455
2.87267	451
2.87633	446
2.88000	443
2.88367	442
2.88733	445
2.89100	452
2.89467	461
2.89833	468
2.90200	473
2.90567	479
2.90933	485
2.91300	484
2.91667	478
2.92033	468
2.92400	457
2.92767	449
2.93133	445
2.93500	447
2.93867	448
2.94233	449
2.94600	449
2.94967	443
2.95333	434
2.95700	427
2.96067	425
2.96433	430
2.96800	440
2.97167	449
2.97533	454
2.97900	455
2.98267	454
2.98633	453
2.99000	453
2.99367	452
2.99733	452
3.00100	451
3.00467	448
3.00833	442
3.01200	442
3.01567	445
3.01933	448
3.02300	446
3.02667	440
3.03033	431
3.03400	422
3.03767	418
3.04133	421
3.04500	429
3.04867	434
3.05233	432
3.05600	422
3.05967	415
3.06333	411
3.06700	410
3.07067	413
3.07433	412
3.07800	405
3.08167	395
3.08533	387
3.08900	387
3.09267	392
3.09633	398
3.10000	403
3.10367	410
3.10733	422
3.11100	433
3.11467	435
3.11833	431
3.12200	423
3.12567	411
3.12933	399
3.13300	387
3.13667	377
3.14033	366
3.14400	356
3.14767	349
3.15133	351
3.15500	360
3.15867	369
3.16233	377
3.16600	381
3.16967	380
3.17333	372
3.17700	364
3.18067	356
3.18433	353
3.18800	355
3.19167	357
3.19533	356
3.19900	358
3.20267	361
3.20633	363
3.21000	364
3.21367	365
3.21733	364
3.22100	359
3.22467	354
3.22833	350
3.23200	352
3.23567	355
3.23933	358
3.24300	360
3.24667	359
3.25033	359
3.25400	357
3.25767	353
3.26133	348
3.26500	342
3.26867	341
3.27233	342
3.27600	342
3.27967	341
3.28333	341
3.28700	342
3.29067	344
3.29433	345
3.29800	345
3.30167	344
3.30533	341
3.30900	337
3.31267	334
3.31633	333
3.32000	334
3.32367	333
3.32733	329
3.33100	326
3.33467	323
3.33833	322
3.34200	323
3.34567	325
3.34933	328
3.35300	330
3.35667	326
3.36033	322
3.36400	318
3.36767	315
3.37133	317
3.37500	320
3.37867	322
3.38233	323
3.38600	319
3.38967	312
3.39333	306
3.39700	303
3.40067	303
3.40433	309
3.40800	316
3.41167	317
3.41533	314
3.41900	308
3.42267	304
3.42633	300
3.43000	291
3.43367	282
3.43733	276
3.44100	269
3.44467	266
3.44833	271
3.45200	280
3.45567	288
3.45933	290
3.46300	289
3.46667	283
3.47033	278
3.47400	276
3.47767	274
3.48133	274
3.48500	274
3.48867	271
3.49233	270
3.49600	268
3.49967	266
3.50333	268
3.50700	274
3.51067	275
3.51433	273
3.51800	266
3.52167	262
3.52533	263
3.52900	268
3.53267	278
3.53633	286
3.54000	292
3.54367	290
3.54733	281
3.55100	274
3.55467	268
3.55833	262
3.56200	259
3.56567	259
3.56933	260
3.57300	263
3.57667	265
3.58033	267
3.58400	266
3.58767	263
3.59133	260
3.59500	259
3.59867	254
3.60233	246
3.60600	240
3.60967	235
3.61333	233
3.61700	235
3.62067	240
3.62433	247
3.62800	258
3.63167	263
3.63533	263
3.63900	265
3.64267	266
3.64633	265
3.65000	261
3.65367	258
3.65733	254
3.66100	249
3.66467	244
3.66833	239
3.67200	238
3.67567	240
3.67933	244
3.68300	247
3.68667	248
3.69033	245
3.69400	239
3.69767	233
3.70133	227
3.70500	222
3.70867	219
3.71233	221
3.71600	224
3.71967	226
3.72333	231
3.72700	235
3.73067	232
3.73433	229
3.73800	232
3.74167	233
3.74533	232
3.74900	229
3.75267	225
3.75633	222
3.76000	219
3.76367	216
3.76733	215
3.77100	216
3.77467	217
3.77833	217
3.78200	216
3.78567	217
3.78933	219
3.79300	218
3.79667	217
3.80033	217
3.80400	218
3.80767	217
3.81133	218
3.81500	218
3.81867	217
3.82233	219
3.82600	221
3.82967	223
3.83333	224
3.83700	222
3.84067	223
3.84433	226
3.84800	225
3.85167	217
3.85533	210
3.85900	205
3.86267	202
3.86633	200
3.87000	198
3.87367	195
3.87733	193
3.88100	193
3.88467	196
3.88833	200
3.89200	203
3.89567	199
3.89933	194
3.90300	193
3.90667	195
3.91033	197
3.91400	200
3.91767	206
3.92133	211
3.92500	215
3.92867	212
3.93233	206
3.93600	198
3.93967	194
3.94333	190
3.94700	181
3.95067	171
3.95433	162
3.95800	157
3.96167	161
3.96533	170
3.96900	177
3.97267	183
3.97633	188
3.98000	190
3.98367	189
3.98733	187
3.99100	185
3.99467	185
3.99833	185

[Chromatogram (Ch2)]
Interval(msec)	220
# of Points	1091
Start Time(min)	0.002
End Time(min)	3.998
R.Time (min)	Intensity
0.00167	-1
0.00533	-1
0.00900	-1
0.01267	-2
0.01633	-2
0.02000	-2
0.02367	-2
0.02733	-2
0.03100	-2
0.03467	-2
0.03833	-2
0.04200	-2
0.04567	-2
0.04933	-2
0.05300	-2
0.05667	-2
0.06033	-1
0.06400	-1
0.06767	-0
0.07133	0
0.07500	0
0.07867	1
0.08233	1
0.08600	1
0.08967	2
0.09333	2
0.09700	3
0.10067	3
0.10433	3
0.10800	4
0.11167	4
0.11533	4
0.11900	5
0.12267	5
0.12633	5
0.13000	5
0.13367	5
0.13733	5
0.14100	5
0.14467	4
0.14833	4
0.15200	4
0.15567	4
0.15933	4
0.16300	4
0.16667	3
0.17033	3
0.17400	3
0.17767	3
0.18133	3
0.18500	3
0.18867	3
0.19233	3
0.19600	3
0.19967	3
0.20333	3
0.20700	3
0.21067	3
0.21433	3
0.21800	3
0.22167	3
0.22533	3
0.22900	3
0.23267	4
0.23633	4
0.24000	4
0.24367	4
0.24733	5
0.25100	5
0.25467	5
0.25833	4
0.26200	4
0.26567	4
0.26933	4
0.27300	4
0.27667	4
0.28033	4
0.28400	4
0.28767	4
0.29133	4
0.29500	3
0.29867	3
0.30233	3
0.30600	3
0.30967	3
0.31333	3
0.31700	2
0.32067	2
0.32433	2
0.32800	2
0.33167	1
0.33533	1
0.33900	1
0.34267	0
0.34633	-0
0.35000	-1
0.35367	-1
0.35733	-2
0.36100	-2
0.36467	-2
0.36833	-2
0.37200	-2
0.37567	-3
0.37933	-3
0.38300	-3
0.38667	-3
0.39033	-3
0.39400	-2
0.39767	-2
0.40133	-2
0.40500	-1
0.40867	-0
0.41233	1
0.41600	1
0.41967	2
0.42333	3
0.42700	3
0.43067	4
0.43433	4
0.43800	4
0.44167	4
0.44533	4
0.44900	4
0.45267	4
0.45633	4
0.46000	4
0.46367	4
0.46733	3
0.47100	3
0.47467	3
0.47833	3
0.48200	3
0.48567	3
0.48933	2
0.49300	2
0.49667	2
0.50033	2
0.50400	2
0.50767	2
0.51133	2
0.51500	1
0.51867	1
0.52233	0
0.52600	0
0.52967	0
0.53333	0
0.53700	0
0.54067	1
0.54433	1
0.54800	1
0.55167	1
0.55533	1
0.55900	1
0.56267	2
0.56633	1
0.57000	1
0.57367	1
0.57733	1
0.58100	1
0.58467	1
0.58833	2
0.59200	2
0.59567	2
0.59933	1
0.60300	1
0.60667	1
0.61033	1
0.61400	1
0.61767	1
0.62133	1
0.62500	1
0.62867	1
0.63233	1
0.63600	1
0.63967	0
0.64333	-0
0.64700	-0
0.65067	-1
0.65433	-1
0.65800	-1
0.66167	-1
0.66533	-2
0.66900	-2
0.67267	-2
0.67633	-2
0.68000	-2
0.68367	-2
0.68733	-2
0.69100	-2
0.69467	-2
0.69833	-1
0.70200	-1
0.70567	-1
0.70933	-0
0.71300	-0
0.71667	0
0.72033	1
0.72400	1
0.72767	1
0.73133	1
0.73500	1
0.73867	1
0.74233	1
0.74600	1
0.74967	1
0.75333	1
0.75700	0
0.76067	0
0.76433	0
0.76800	0
0.77167	0
0.77533	0
0.77900	0
0.78267	0
0.78633	-0
0.79000	-0
0.79367	-0
0.79733	-0
0.80100	-0
0.80467	-1
0.80833	-1
0.81200	-1
0.81567	-1
0.81933	-1
0.82300	-0
0.82667	-0
0.83033	0
0.83400	0
0.83767	1
0.84133	1
0.84500	1
0.84867	0
0.85233	0
0.85600	0
0.85967	0
0.86333	-0
0.86700	-0
0.87067	-1
0.87433	-1
0.87800	-1
0.88167	-1
0.88533	-2
0.88900	-1
0.89267	-1
0.89633	-1
0.90000	-1
0.90367	-1
0.90733	-1
0.91100	-0
0.91467	-0
0.91833	-0
0.92200	-0
0.92567	-0
0.92933	-0
0.93300	-0
0.93667	0
0.94033	1
0.94400	1
0.94767	1
0.95133	2
0.95500	2
0.95867	2
0.96233	2
0.96600	2
0.96967	3
0.97333	3
0.97700	3
0.98067	2
0.98433	2
0.98800	2
0.99167	2
0.99533	2
0.99900	2
1.00267	2
1.00633	1
1.01000	1
1.01367	1
1.01733	1
1.02100	1
1.02467	1
1.02833	1
1.03200	1
1.03567	1
1.03933	1
1.04300	1
1.04667	1
1.05033	1
1.05400	1
1.05767	2
1.06133	2
1.06500	2
1.06867	2
1.07233	2
1.07600	2
1.07967	2
1.08333	2
1.08700	2
1.09067	2
1.09433	2
1.09800	1
1.10167	1
1.10533	1
1.10900	1
1.11267	0
1.11633	0
1.12000	1
1.12367	1
1.12733	1
1.13100	1
1.13467	1
1.13833	1
1.14200	1
1.14567	1
1.14933	1
1.15300	1
1.15667	1
1.16033	0
1.16400	0
1.16767	0
1.17133	0
1.17500	0
1.17867	0
1.18233	-0
1.18600	-0
1.18967	-0
1.19333	-0
1.19700	-0
1.20067	-1
1.20433	-1
1.20800	-1
1.21167	-1
1.21533	-1
1.21900	-1
1.22267	-1
1.22633	-1
1.23000	-1
1.23367	-1
1.23733	-2
1.24100	-2
1.24467	-2
1.24833	-2
1.25200	-3
1.25567	-3
1.25933	-2
1.26300	-2
1.26667	-1
1.27033	-1
1.27400	-0
1.27767	-0
1.28133	-0
1.28500	-0
1.28867	0
1.29233	0
1.29600	-0
1.29967	-0
1.30333	-0
1.30700	-0
1.31067	-0
1.31433	-0
1.31800	-0
1.32167	-0
1.32533	0
1.32900	1
1.33267	1
1.33633	1
1.34000	1
1.34367	1
1.34733	1
1.35100	1
1.35467	1
1.35833	2
1.36200	2
1.36567	2
1.36933	2
1.37300	2
1.37667	2
1.38033	2
1.38400	2
1.38767	2
1.39133	2
1.39500	1
1.39867	1
1.40233	1
1.40600	0
1.40967	0
1.41333	0
1.41700	-0
1.42067	-0
1.42433	-0
1.42800	-0
1.43167	-0
1.43533	-0
1.43900	-0
1.44267	0
1.44633	1
1.45000	1
1.45367	2
1.45733	2
1.46100	2
1.46467	2
1.46833	3
1.47200	3
1.47567	3
1.47933	3
1.48300	3
1.48667	3
1.49033	3
1.49400	3
1.49767	3
1.50133	2
1.50500	2
1.50867	2
1.51233	2
1.51600	2
1.51967	2
1.52333	1
1.52700	1
1.53067	1
1.53433	0
1.53800	-0
1.54167	-0
1.54533	-0
1.54900	-0
1.55267	-1
1.55633	-1
1.56000	-1
1.56367	-1
1.56733	-1
1.57100	-1
1.57467	-1
1.57833	-1
1.58200	-1
1.58567	-1
1.58933	-1
1.59300	-1
1.59667	-1
1.60033	-1
1.60400	-2
1.60767	-4
1.61133	-5
1.61500	-7
1.61867	-9
1.62233	-11
1.62600	-14
1.62967	-17
1.63333	-21
1.63700	-24
1.64067	-28
1.64433	-31
1.64800	-35
1.65167	-39
1.65533	-43
1.65900	-47
1.66267	-51
1.66633	-55
1.67000	-59
1.67367	-64
1.67733	-69
1.68100	-74
1.68467	-78
1.68833	-82
1.69200	-86
1.69567	-89
1.69933	-92
1.70300	-94
1.70667	-96
1.71033	-97
1.71400	-99
1.71767	-99
1.72133	-100
1.72500	-101
1.72867	-101
1.73233	-102
1.73600	-103
1.73967	-104
1.74333	-105
1.74700	-107
1.75067	-107
1.75433	-108
1.75800	-108
1.76167	-108
1.76533	-108
1.76900	-107
1.77267	-107
1.77633	-106
1.78000	-106
1.78367	-106
1.78733	-107
1.79100	-107
1.79467	-108
1.79833	-109
1.80200	-110
1.80567	-111
1.80933	-112
1.81300	-113
1.81667	-113
1.82033	-114
1.82400	-114
1.82767	-113
1.83133	-113
1.83500	-112
1.83867	-112
1.84233	-112
1.84600	-111
1.84967	-111
1.85333	-111
1.85700	-111
1.86067	-112
1.86433	-112
1.86800	-112
1.87167	-113
1.87533	-113
1.87900	-113
1.88267	-113
1.88633	-112
1.89000	-111
1.89367	-111
1.89733	-110
1.90100	-110
1.90467	-110
1.90833	-110
1.91200	-110
1.91567	-110
1.91933	-111
1.92300	-110
1.92667	-110
1.93033	-109
1.93400	-108
1.93767	-108
1.94133	-108
1.94500	-108
1.94867	-107
1.95233	-107
1.95600	-106
1.95967	-106
1.96333	-105
1.96700	-105
1.97067	-105
1.97433	-104
1.97800	-104
1.98167	-104
1.98533	-104
1.98900	-104
1.99267	-105
1.99633	-105
2.00000	-105
2.00367	-106
2.00733	-107
2.01100	-107
2.01467	-107
2.01833	-107
2.02200	-106
2.02567	-104
2.02933	-104
2.03300	-103
2.03667	-103
2.04033	-103
2.04400	-103
2.04767	-103
2.05133	-103
2.05500	-103
2.05867	-102
2.06233	-102
2.06600	-101
2.06967	-100
2.07333	-99
2.07700	-99
2.08067	-98
2.08433	-98
2.08800	-98
2.09167	-98
2.09533	-97
2.09900	-97
2.10267	-97
2.10633	-97
2.11000	-97
2.11367	-98
2.11733	-97
2.12100	-97
2.12467	-97
2.12833	-97
2.13200	-97
2.13567	-97
2.13933	-96
2.14300	-96
2.14667	-95
2.15033	-94
2.15400	-94
2.15767	-94
2.16133	-94
2.16500	-93
2.16867	-93
2.17233	-92
2.17600	-91
2.17967	-91
2.18333	-90
2.18700	-90
2.19067	-89
2.19433	-89
2.19800	-88
2.20167	-88
2.20533	-87
2.20900	-87
2.21267	-87
2.21633	-86
2.22000	-85
2.22367	-85
2.22733	-84
2.23100	-84
2.23467	-84
2.23833	-84
2.24200	-84
2.24567	-84
2.24933	-84
2.25300	-83
2.25667	-83
2.26033	-83
2.26400	-82
2.26767	-82
2.27133	-82
2.27500	-82
2.27867	-82
2.28233	-82
2.28600	-82
2.28967	-81
2.29333	-81
2.29700	-80
2.30067	-80
2.30433	-80
2.30800	-80
2.31167	-80
2.31533	-79
2.31900	-79
2.32267	-79
2.32633	-78
2.33000	-78
2.33367	-79
2.33733	-79
2.34100	-78
2.34467	-78
2.34833	-77
2.35200	-76
2.35567	-75
2.35933	-73
2.36300	-71
2.36667	-69
2.37033	-66
2.37400	-62
2.37767	-58
2.38133	-54
2.38500	-50
2.38867	-45
2.39233	-40
2.39600	-35
2.39967	-30
2.40333	-26
2.40700	-22
2.41067	-19
2.41433	-17
2.41800	-15
2.42167	-13
2.42533	-11
2.42900	-10
2.43267	-9
2.43633	-9
2.44000	-9
2.44367	-9
2.44733	-8
2.45100	-8
2.45467	-7
2.45833	-6
2.46200	-5
2.46567	-3
2.46933	-2
2.47300	-1
2.47667	-0
2.48033	1
2.48400	2
2.48767	3
2.49133	4
2.49500	5
2.49867	6
2.50233	7
2.50600	8
2.50967	9
2.51333	9
2.51700	9
2.52067	10
2.52433	10
2.52800	10
2.53167	11
2.53533	12
2.53900	13
2.54267	14
2.54633	15
2.55000	15
2.55367	14
2.55733	14
2.56100	14
2.56467	14
2.56833	14
2.57200	14
2.57567	15
2.57933	15
2.58300	16
2.58667	17
2.59033	17
2.59400	17
2.59767	18
2.60133	18
2.60500	19
2.60867	19
2.61233	19
2.61600	19
2.61967	19
2.62333	19
2.62700	19
2.63067	19
2.63433	19
2.63800	19
2.64167	20
2.64533	20
2.64900	20
2.65267	20
2.65633	21
2.66000	21
2.66367	21
2.66733	22
2.67100	22
2.67467	22
2.67833	22
2.68200	22
2.68567	22
2.68933	22
2.69300	22
2.69667	22
2.70033	23
2.70400	23
2.70767	24
2.71133	25
2.71500	26
2.71867	26
2.72233	27
2.72600	28
2.72967	28
2.73333	28
2.73700	28
2.74067	28
2.74433	27
2.74800	27
2.75167	26
2.75533	26
2.75900	26
2.76267	26
2.76633	27
2.77000	27
2.77367	27
2.77733	28
2.78100	28
2.78467	29
2.78833	29
2.79200	30
2.79567	30
2.79933	30
2.80300	31
2.80667	31
2.81033	31
2.81400	30
2.81767	29
2.82133	29
2.82500	28
2.82867	28
2.83233	27
2.83600	26
2.83967	25
2.84333	23
2.84700	20
2.85067	14
2.85433	5
2.85800	-7
2.86167	-22
2.86533	-42
2.86900	-67
2.87267	-95
2.87633	-129
2.88000	-166
2.88367	-207
2.88733	-252
2.89100	-300
2.89467	-350
2.89833	-402
2.90200	-456
2.90567	-510
2.90933	-565
2.91300	-620
2.91667	-675
2.92033	-729
2.92400	-780
2.92767	-831
2.93133	-882
2.93500	-938
2.93867	-996
2.94233	-1047
2.94600	-1081
2.94967	-1092
2.95333	-1076
2.95700	-1038
2.96067	-981
2.96433	-911
2.96800	-834
2.97167	-754
2.97533	-675
2.97900	-598
2.98267	-526
2.98633	-459
2.99000	-399
2.99367	-344
2.99733	-296
3.00100	-254
3.00467	-217
3.00833	-185
3.01200	-156
3.01567	-132
3.01933	-111
3.02300	-92
3.02667	-77
3.03033	-63
3.03400	-52
3.03767	-42
3.04133	-33
3.04500	-26
3.04867	-20
3.05233	-15
3.05600	-10
3.05967	-7
3.06333	-3
3.06700	-1
3.07067	2
3.07433	4
3.07800	6
3.08167	7
3.08533	9
3.08900	10
3.09267	11
3.09633	12
3.10000	13
3.10367	14
3.10733	15
3.11100	16
3.11467	16
3.11833	17
3.12200	17
3.12567	17
3.12933	18
3.13300	18
3.13667	18
3.14033	19
3.14400	19
3.14767	19
3.15133	20
3.15500	20
3.15867	21
3.16233	21
3.16600	21
3.16967	22
3.17333	22
3.17700	22
3.18067	23
3.18433	23
3.18800	23
3.19167	23
3.19533	23
3.19900	23
3.20267	23
3.20633	23
3.21000	24
3.21367	24
3.21733	24
3.22100	25
3.22467	25
3.22833	25
3.23200	25
3.23567	25
3.23933	25
3.24300	25
3.24667	25
3.25033	25
3.25400	25
3.25767	25
3.26133	25
3.26500	25
3.26867	25
3.27233	26
3.27600	26
3.27967	26
3.28333	26
3.28700	26
3.29067	26
3.29433	27
3.29800	27
3.30167	27
3.30533	27
3.30900	27
3.31267	27
3.31633	27
3.32000	27
3.32367	26
3.32733	26
3.33100	26
3.33467	26
3.33833	26
3.34200	26
3.34567	26
3.34933	26
3.35300	26
3.35667	27
3.36033	27
3.36400	27
3.36767	27
3.37133	27
3.37500	27
3.37867	27
3.38233	27
3.38600	27
3.38967	27
3.39333	27
3.39700	27
3.40067	27
3.40433	26
3.40800	26
3.41167	26
3.41533	26
3.41900	26
3.42267	26
3.42633	26
3.43000	26
3.43367	26
3.43733	27
3.44100	27
3.44467	27
3.44833	27
3.45200	28
3.45567	28
3.45933	28
3.46300	29
3.46667	29
3.47033	29
3.47400	29
3.47767	29
3.48133	29
3.48500	29
3.48867	28
3.49233	28
3.49600	28
3.49967	28
3.50333	28
3.50700	28
3.51067	28
3.51433	28
3.51800	28
3.52167	28
3.52533	28
3.52900	29
3.53267	29
3.53633	30
3.54000	30
3.54367	30
3.54733	30
3.55100	30
3.55467	30
3.55833	30
3.56200	30
3.56567	30
3.56933	30
3.57300	30
3.57667	30
3.58033	30
3.58400	30
3.58767	30
3.59133	30
3.59500	30
3.59867	30
3.60233	30
3.60600	31
3.60967	31
3.61333	31
3.61700	31
3.62067	31
3.62433	32
3.62800	32
3.63167	32
3.63533	32
3.63900	32
3.64267	32
3.64633	32
3.65000	31
3.65367	31
3.65733	31
3.66100	31
3.66467	31
3.66833	31
3.67200	30
3.67567	30
3.67933	30
3.68300	29
3.68667	29
3.69033	29
3.69400	28
3.69767	28
3.70133	28
3.70500	28
3.70867	28
3.71233	28
3.71600	28
3.71967	28
3.72333	28
3.72700	29
3.73067	29
3.73433	29
3.73800	28
3.74167	28
3.74533	28
3.74900	28
3.75267	28
3.75633	28
3.76000	28
3.76367	28
3.76733	28
3.77100	28
3.77467	27
3.77833	27
3.78200	27
3.78567	27
3.78933	27
3.79300	27
3.79667	27
3.80033	27
3.80400	27
3.80767	27
3.81133	27
3.81500	27
3.81867	27
3.82233	27
3.82600	28
3.82967	27
3.83333	27
3.83700	27
3.84067	27
3.84433	27
3.84800	27
3.85167	27
3.85533	27
3.85900	27
3.86267	27
3.86633	27
3.87000	27
3.87367	27
3.87733	27
3.88100	27
3.88467	27
3.88833	27
3.89200	27
3.89567	27
3.89933	28
3.90300	28
3.90667	28
3.91033	29
3.91400	29
3.91767	30
3.92133	30
3.92500	30
3.92867	30
3.93233	30
3.93600	31
3.93967	31
3.94333	31
3.94700	31
3.95067	31
3.95433	31
3.95800	31
3.96167	31
3.96533	31
3.96900	31
3.97267	31
3.97633	31
3.98000	31
3.98367	31
3.98733	30
3.99100	30
3.99467	30
3.99833	30

[Chromatogram (Ch3)]
Interval(msec)	220
# of Points	1091
Start Time(min)	0.002
End Time(min)	3.998
R.Time (min)	Intensity
0.00167	1
0.00533	-0
0.00900	-3
0.01267	-4
0.01633	-3
0.02000	-5
0.02367	-6
0.02733	-4
0.03100	-4
0.03467	-4
0.03833	-2
0.04200	-0
0.04567	-0
0.04933	1
0.05300	1
0.05667	1
0.06033	1
0.06400	1
0.06767	1
0.07133	1
0.07500	1
0.07867	4
0.08233	5
0.08600	7
0.08967	8
0.09333	4
0.09700	-0
0.10067	-2
0.10433	-2
0.10800	-1
0.11167	1
0.11533	-0
0.11900	-1
0.12267	-1
0.12633	-1
0.13000	0
0.13367	1
0.13733	2
0.14100	3
0.14467	5
0.14833	4
0.15200	2
0.15567	2
0.15933	0
0.16300	-2
0.16667	-3
0.17033	-3
0.17400	-2
0.17767	-2
0.18133	-2
0.18500	-2
0.18867	-2
0.19233	-1
0.19600	-0
0.19967	-1
0.20333	-1
0.20700	-1
0.21067	-2
0.21433	-3
0.21800	-3
0.22167	-2
0.22533	-1
0.22900	-1
0.23267	-2
0.23633	-3
0.24000	-5
0.24367	-6
0.24733	-6
0.25100	-6
0.25467	-8
0.25833	-8
0.26200	-6
0.26567	-3
0.26933	-0
0.27300	-1
0.27667	-2
0.28033	-4
0.28400	-7
0.28767	-8
0.29133	-9
0.29500	-7
0.29867	-5
0.30233	-3
0.30600	-2
0.30967	-3
0.31333	-5
0.31700	-5
0.32067	-5
0.32433	-5
0.32800	-4
0.33167	-1
0.33533	0
0.33900	-1
0.34267	-2
0.34633	-0
0.35000	1
0.35367	4
0.35733	5
0.36100	5
0.36467	6
0.36833	7
0.37200	5
0.37567	5
0.37933	2
0.38300	0
0.38667	0
0.39033	-1
0.39400	-2
0.39767	-4
0.40133	-5
0.40500	-8
0.40867	-8
0.41233	-7
0.41600	-6
0.41967	-6
0.42333	-6
0.42700	-5
0.43067	-4
0.43433	-2
0.43800	1
0.44167	2
0.44533	0
0.44900	-3
0.45267	-5
0.45633	-5
0.46000	-2
0.46367	-0
0.46733	2
0.47100	4
0.47467	4
0.47833	4
0.48200	1
0.48567	-0
0.48933	1
0.49300	3
0.49667	3
0.50033	2
0.50400	0
0.50767	0
0.51133	-1
0.51500	-1
0.51867	1
0.52233	4
0.52600	5
0.52967	3
0.53333	3
0.53700	6
0.54067	6
0.54433	4
0.54800	1
0.55167	-0
0.55533	-2
0.55900	-3
0.56267	-4
0.56633	-6
0.57000	-5
0.57367	-2
0.57733	-0
0.58100	-2
0.58467	-2
0.58833	-4
0.59200	-5
0.59567	-4
0.59933	-2
0.60300	-0
0.60667	2
0.61033	3
0.61400	3
0.61767	3
0.62133	3
0.62500	4
0.62867	4
0.63233	4
0.63600	6
0.63967	8
0.64333	9
0.64700	7
0.65067	5
0.65433	5
0.65800	6
0.66167	4
0.66533	4
0.66900	5
0.67267	7
0.67633	9
0.68000	8
0.68367	6
0.68733	6
0.69100	7
0.69467	8
0.69833	8
0.70200	7
0.70567	7
0.70933	9
0.71300	9
0.71667	8
0.72033	9
0.72400	9
0.72767	8
0.73133	10
0.73500	13
0.73867	15
0.74233	15
0.74600	14
0.74967	13
0.75333	11
0.75700	8
0.76067	6
0.76433	7
0.76800	8
0.77167	8
0.77533	8
0.77900	9
0.78267	9
0.78633	10
0.79000	10
0.79367	9
0.79733	9
0.80100	8
0.80467	8
0.80833	8
0.81200	8
0.81567	8
0.81933	7
0.82300	8
0.82667	11
0.83033	12
0.83400	10
0.83767	8
0.84133	8
0.84500	7
0.84867	6
0.85233	6
0.85600	7
0.85967	7
0.86333	9
0.86700	12
0.87067	14
0.87433	14
0.87800	12
0.88167	10
0.88533	11
0.88900	11
0.89267	12
0.89633	14
0.90000	15
0.90367	13
0.90733	10
0.91100	9
0.91467	9
0.91833	9
0.92200	8
0.92567	9
0.92933	11
0.93300	13
0.93667	13
0.94033	13
0.94400	14
0.94767	13
0.95133	11
0.95500	10
0.95867	9
0.96233	10
0.96600	8
0.96967	9
0.97333	10
0.97700	10
0.98067	10
0.98433	13
0.98800	14
0.99167	15
0.99533	16
0.99900	14
1.00267	14
1.00633	15
1.01000	13
1.01367	11
1.01733	10
1.02100	10
1.02467	10
1.02833	13
1.03200	14
1.03567	13
1.03933	12
1.04300	13
1.04667	14
1.05033	15
1.05400	15
1.05767	14
1.06133	13
1.06500	14
1.06867	14
1.07233	14
1.07600	14
1.07967	13
1.08333	10
1.08700	9
1.09067	9
1.09433	10
1.09800	12
1.10167	14
1.10533	14
1.10900	15
1.11267	17
1.11633	17
1.12000	18
1.12367	18
1.12733	18
1.13100	19
1.13467	22
1.13833	25
1.14200	25
1.14567	22
1.14933	18
1.15300	16
1.15667	13
1.16033	12
1.16400	11
1.16767	12
1.17133	12
1.17500	15
1.17867	17
1.18233	18
1.18600	18
1.18967	20
1.19333	20
1.19700	19
1.20067	17
1.20433	16
1.20800	15
1.21167	16
1.21533	17
1.21900	18
1.22267	18
1.22633	17
1.23000	19
1.23367	20
1.23733	19
1.24100	20
1.24467	19
1.24833	18
1.25200	18
1.25567	20
1.25933	20
1.26300	19
1.26667	18
1.27033	17
1.27400	16
1.27767	14
1.28133	15
1.28500	15
1.28867	15
1.29233	15
1.29600	16
1.29967	17
1.30333	18
1.30700	19
1.31067	18
1.31433	17
1.31800	18
1.32167	19
1.32533	21
1.32900	22
1.33267	21
1.33633	19
1.34000	19
1.34367	17
1.34733	16
1.35100	17
1.35467	18
1.35833	17
1.36200	18
1.36567	17
1.36933	17
1.37300	17
1.37667	18
1.38033	17
1.38400	16
1.38767	14
1.39133	14
1.39500	15
1.39867	12
1.40233	11
1.40600	13
1.40967	15
1.41333	17
1.41700	19
1.42067	20
1.42433	21
1.42800	20
1.43167	19
1.43533	18
1.43900	18
1.44267	17
1.44633	16
1.45000	14
1.45367	14
1.45733	12
1.46100	13
1.46467	15
1.46833	15
1.47200	17
1.47567	19
1.47933	19
1.48300	18
1.48667	17
1.49033	16
1.49400	17
1.49767	19
1.50133	19
1.50500	18
1.50867	17
1.51233	20
1.51600	22
1.51967	22
1.52333	19
1.52700	18
1.53067	18
1.53433	20
1.53800	22
1.54167	23
1.54533	21
1.54900	21
1.55267	19
1.55633	20
1.56000	21
1.56367	21
1.56733	22
1.57100	22
1.57467	20
1.57833	19
1.58200	18
1.58567	17
1.58933	17
1.59300	18
1.59667	19
1.60033	19
1.60400	20
1.60767	21
1.61133	21
1.61500	21
1.61867	21
1.62233	20
1.62600	22
1.62967	24
1.63333	24
1.63700	23
1.64067	23
1.64433	23
1.64800	23
1.65167	23
1.65533	24
1.65900	25
1.66267	27
1.66633	28
1.67000	29
1.67367	31
1.67733	31
1.68100	32
1.68467	35
1.68833	36
1.69200	36
1.69567	36
1.69933	35
1.70300	35
1.70667	35
1.71033	35
1.71400	36
1.71767	36
1.72133	37
1.72500	38
1.72867	40
1.73233	40
1.73600	40
1.73967	39
1.74333	39
1.74700	39
1.75067	39
1.75433	38
1.75800	39
1.76167	39
1.76533	41
1.76900	43
1.77267	44
1.77633	42
1.78000	39
1.78367	39
1.78733	40
1.79100	41
1.79467	43
1.79833	44
1.80200	44
1.80567	42
1.80933	42
1.81300	42
1.81667	43
1.82033	43
1.82400	43
1.82767	45
1.83133	47
1.83500	47
1.83867	47
1.84233	48
1.84600	48
1.84967	46
1.85333	44
1.85700	47
1.86067	49
1.86433	48
1.86800	49
1.87167	51
1.87533	51
1.87900	53
1.88267	53
1.88633	53
1.89000	55
1.89367	57
1.89733	58
1.90100	57
1.90467	55
1.90833	54
1.91200	55
1.91567	57
1.91933	59
1.92300	62
1.92667	64
1.93033	65
1.93400	66
1.93767	69
1.94133	71
1.94500	71
1.94867	69
1.95233	68
1.95600	68
1.95967	69
1.96333	70
1.96700	73
1.97067	75
1.97433	73
1.97800	72
1.98167	73
1.98533	77
1.98900	79
1.99267	80
1.99633	82
2.00000	83
2.00367	82
2.00733	83
2.01100	83
2.01467	82
2.01833	83
2.02200	83
2.02567	82
2.02933	82
2.03300	83
2.03667	85
2.04033	87
2.04400	91
2.04767	95
2.05133	97
2.05500	96
2.05867	98
2.06233	101
2.06600	104
2.06967	107
2.07333	108
2.07700	108
2.08067	108
2.08433	111
2.08800	113
2.09167	113
2.09533	114
2.09900	116
2.10267	117
2.10633	117
2.11000	116
2.11367	117
2.11733	119
2.12100	122
2.12467	125
2.12833	127
2.13200	128
2.13567	128
2.13933	128
2.14300	129
2.14667	128
2.15033	129
2.15400	129
2.15767	131
2.16133	135
2.16500	142
2.16867	143
2.17233	143
2.17600	142
2.17967	143
2.18333	145
2.18700	147
2.19067	149
2.19433	151
2.19800	155
2.20167	159
2.20533	161
2.20900	162
2.21267	162
2.21633	161
2.22000	160
2.22367	160
2.22733	162
2.23100	164
2.23467	165
2.23833	165
2.24200	168
2.24567	172
2.24933	173
2.25300	174
2.25667	176
2.26033	180
2.26400	184
2.26767	186
2.27133	187
2.27500	188
2.27867	189
2.28233	189
2.28600	191
2.28967	193
2.29333	196
2.29700	198
2.30067	201
2.30433	205
2.30800	207
2.31167	207
2.31533	209
2.31900	212
2.32267	214
2.32633	215
2.33000	215
2.33367	215
2.33733	216
2.34100	219
2.34467	221
2.34833	226
2.35200	228
2.35567	228
2.35933	227
2.36300	227
2.36667	228
2.37033	229
2.37400	230
2.37767	230
2.38133	232
2.38500	231
2.38867	227
2.39233	227
2.39600	231
2.39967	236
2.40333	241
2.40700	247
2.41067	253
2.41433	258
2.41800	258
2.42167	258
2.42533	258
2.42900	262
2.43267	264
2.43633	267
2.44000	273
2.44367	334
2.44733	485
2.45100	645
2.45467	776
2.45833	845
2.46200	839
2.46567	789
2.46933	730
2.47300	680
2.47667	648
2.48033	625
2.48400	596
2.48767	556
2.49133	510
2.49500	464
2.49867	428
2.50233	402
2.50600	382
2.50967	369
2.51333	366
2.51700	374
2.52067	392
2.52433	413
2.52800	431
2.53167	442
2.53533	441
2.53900	427
2.54267	403
2.54633	375
2.55000	346
2.55367	319
2.55733	295
2.56100	273
2.56467	257
2.56833	246
2.57200	238
2.57567	233
2.57933	232
2.58300	229
2.58667	224
2.59033	220
2.59400	215
2.59767	209
2.60133	198
2.60500	182
2.60867	167
2.61233	151
2.61600	134
2.61967	115
2.62333	98
2.62700	87
2.63067	82
2.63433	82
2.63800	84
2.64167	85
2.64533	85
2.64900	84
2.65267	83
2.65633	83
2.66000	80
2.66367	76
2.66733	72
2.67100	64
2.67467	57
2.67833	50
2.68200	43
2.68567	37
2.68933	33
2.69300	31
2.69667	29
2.70033	26
2.70400	22
2.70767	22
2.71133	23
2.71500	23
2.71867	24
2.72233	26
2.72600	32
2.72967	36
2.73333	37
2.73700	39
2.74067	44
2.74433	45
2.74800	46
2.75167	48
2.75533	53
2.75900	55
2.76267	59
2.76633	62
2.77000	64
2.77367	67
2.77733	70
2.78100	72
2.78467	74
2.78833	77
2.79200	80
2.79567	80
2.79933	82
2.80300	84
2.80667	86
2.81033	91
2.81400	97
2.81767	104
2.82133	120
2.82500	151
2.82867	212
2.83233	326
2.83600	512
2.83967	796
2.84333	1187
2.84700	1679
2.85067	2254
2.85433	2874
2.85800	3494
2.86167	4059
2.86533	4525
2.86900	4868
2.87267	5063
2.87633	5107
2.88000	5017
2.88367	4820
2.88733	4543
2.89100	4215
2.89467	3859
2.89833	3496
2.90200	3144
2.90567	2809
2.90933	2497
2.91300	2212
2.91667	1955
2.92033	1725
2.92400	1522
2.92767	1341
2.93133	1182
2.93500	1042
2.93867	920
2.94233	817
2.94600	729
2.94967	652
2.95333	582
2.95700	520
2.96067	467
2.96433	421
2.96800	381
2.97167	346
2.97533	315
2.97900	288
2.98267	264
2.98633	242
2.99000	223
2.99367	206
2.99733	192
3.00100	179
3.00467	170
3.00833	162
3.01200	155
3.01567	146
3.01933	138
3.02300	131
3.02667	126
3.03033	123
3.03400	118
3.03767	112
3.04133	107
3.04500	105
3.04867	102
3.05233	98
3.05600	96
3.05967	90
3.06333	66
3.06700	29
3.07067	-6
3.07433	-20
3.07800	-10
3.08167	18
3.08533	55
3.08900	95
3.09267	139
3.09633	184
3.10000	227
3.10367	267
3.10733	301
3.11100	331
3.11467	359
3.11833	385
3.12200	408
3.12567	429
3.12933	447
3.13300	463
3.13667	474
3.14033	483
3.14400	491
3.14767	500
3.15133	506
3.15500	512
3.15867	516
3.16233	522
3.16600	526
3.16967	530
3.17333	533
3.17700	535
3.18067	537
3.18433	539
3.18800	541
3.19167	545
3.19533	550
3.19900	555
3.20267	557
3.20633	558
3.21000	560
3.21367	563
3.21733	564
3.22100	567
3.22467	570
3.22833	574
3.23200	580
3.23567	584
3.23933	588
3.24300	592
3.24667	594
3.25033	594
3.25400	595
3.25767	599
3.26133	602
3.26500	604
3.26867	608
3.27233	614
3.27600	619
3.27967	622
3.28333	627
3.28700	628
3.29067	629
3.29433	631
3.29800	632
3.30167	633
3.30533	634
3.30900	635
3.31267	636
3.31633	636
3.32000	638
3.32367	643
3.32733	645
3.33100	645
3.33467	645
3.33833	644
3.34200	644
3.34567	644
3.34933	646
3.35300	645
3.35667	645
3.36033	643
3.36400	641
3.36767	639
3.37133	639
3.37500	642
3.37867	644
3.38233	645
3.38600	645
3.38967	644
3.39333	643
3.39700	641
3.40067	639
3.40433	639
3.40800	641
3.41167	642
3.41533	641
3.41900	638
3.42267	635
3.42633	633
3.43000	631
3.43367	630
3.43733	628
3.44100	628
3.44467	626
3.44833	623
3.45200	622
3.45567	622
3.45933	621
3.46300	618
3.46667	618
3.47033	616
3.47400	614
3.47767	610
3.48133	608
3.48500	606
3.48867	606
3.49233	607
3.49600	607
3.49967	605
3.50333	603
3.50700	601
3.51067	599
3.51433	598
3.51800	599
3.52167	600
3.52533	600
3.52900	599
3.53267	599
3.53633	597
3.54000	592
3.54367	587
3.54733	586
3.55100	586
3.55467	585
3.55833	584
3.56200	586
3.56567	589
3.56933	591
3.57300	592
3.57667	590
3.58033	588
3.58400	590
3.58767	593
3.59133	595
3.59500	596
3.59867	596
3.60233	595
3.60600	592
3.60967	589
3.61333	590
3.61700	592
3.62067	592
3.62433	591
3.62800	590
3.63167	589
3.63533	589
3.63900	589
3.64267	590
3.64633	590
3.65000	591
3.65367	592
3.65733	593
3.66100	593
3.66467	592
3.66833	594
3.67200	594
3.67567	591
3.67933	590
3.68300	591
3.68667	593
3.69033	593
3.69400	593
3.69767	594
3.70133	594
3.70500	593
3.70867	593
3.71233	590
3.71600	588
3.71967	585
3.72333	583
3.72700	582
3.73067	583
3.73433	585
3.73800	587
3.74167	589
3.74533	589
3.74900	587
3.75267	586
3.75633	584
3.76000	582
3.76367	581
3.76733	581
3.77100	582
3.77467	581
3.77833	581
3.78200	579
3.78567	578
3.78933	578
3.79300	576
3.79667	576
3.80033	575
3.80400	576
3.80767	574
3.81133	573
3.81500	573
3.81867	573
3.82233	572
3.82600	571
3.82967	569
3.83333	567
3.83700	564
3.84067	563
3.84433	562
3.84800	561
3.85167	560
3.85533	561
3.85900	561
3.86267	561
3.86633	559
3.87000	557
3.87367	556
3.87733	555
3.88100	554
3.88467	551
3.88833	546
3.89200	543
3.89567	542
3.89933	540
3.90300	541
3.90667	540
3.91033	537
3.91400	536
3.91767	536
3.92133	536
3.92500	534
3.92867	533
3.93233	531
3.93600	528
3.93967	525
3.94333	523
3.94700	520
3.95067	517
3.95433	518
3.95800	518
3.96167	517
3.96533	514
3.96900	511
3.97267	510
3.97633	510
3.98000	510
3.98367	510
3.98733	510
3.99100	511
3.99467	509
3.99833	503

[Status Trace (Column Oven Temperature)]
Interval(msec)	1000
# of Points	240
Start Time(min)	0.016
End Time(min)	3.999
Intensity Units	
Intensity Multiplier	1
R.Time (min)	Intensity
0.01568	35.05
0.03235	35.06
0.04902	35.06
0.06568	35.06
0.08235	35.06
0.09902	35.04
0.11568	35.03
0.13235	35.02
0.14902	35.02
0.16568	35.01
0.18235	35.02
0.19902	35.02
0.21568	35.01
0.23235	35.00
0.24902	34.98
0.26568	34.97
0.28235	34.97
0.29902	34.97
0.31568	34.97
0.33235	34.99
0.34902	35.00
0.36568	35.02
0.38235	35.03
0.39902	35.02
0.41568	35.00
0.43235	34.98
0.44902	34.97
0.46568	34.96
0.48235	34.95
0.49902	34.95
0.51568	34.96
0.53235	34.97
0.54902	34.97
0.56568	34.97
0.58235	34.96
0.59902	34.96
0.61568	34.97
0.63235	34.98
0.64902	34.99
0.66568	35.00
0.68235	35.02
0.69902	35.02
0.71568	35.01
0.73235	35.00
0.74902	35.00
0.76568	35.01
0.78235	35.02
0.79902	35.02
0.81568	35.02
0.83235	35.01
0.84902	35.02
0.86568	35.03
0.88235	35.03
0.89902	35.04
0.91568	35.04
0.93235	35.04
0.94902	35.02
0.96568	35.02
0.98235	35.01
0.99902	35.01
1.01568	35.00
1.03235	35.00
1.04902	35.00
1.06568	35.00
1.08235	34.99
1.09902	34.99
1.11568	34.99
1.13235	34.99
1.14902	35.00
1.16568	34.99
1.18235	34.99
1.19902	35.00
1.21568	35.01
1.23235	35.01
1.24902	35.02
1.26568	35.03
1.28235	35.03
1.29902	35.04
1.31568	35.02
1.33235	35.01
1.34902	35.01
1.36568	35.01
1.38235	35.02
1.39902	35.03
1.41568	35.03
1.43235	35.02
1.44902	35.01
1.46568	35.00
1.48235	35.00
1.49902	34.99
1.51568	34.99
1.53235	34.99
1.54902	35.00
1.56568	35.00
1.58235	35.02
1.59902	35.04
1.61568	35.12
1.63235	35.28
1.64902	35.50
1.66568	35.79
1.68235	36.14
1.69902	36.49
1.71568	36.83
1.73235	37.17
1.74902	37.52
1.76568	37.83
1.78235	38.14
1.79902	38.50
1.81568	38.83
1.83235	39.15
1.84902	39.47
1.86568	39.82
1.88235	40.15
1.89902	40.48
1.91568	40.81
1.93235	41.13
1.94902	41.46
1.96568	41.77
1.98235	42.10
1.99902	42.44
2.01568	42.76
2.03235	43.09
2.04902	43.45
2.06568	43.74
2.08235	44.08
2.09902	44.40
2.11568	44.73
2.13235	45.06
2.14902	45.39
2.16568	45.72
2.18235	46.04
2.19902	46.37
2.21568	46.69
2.23235	47.02
2.24902	47.34
2.26568	47.67
2.28235	47.99
2.29902	48.32
2.31568	48.64
2.33235	49.00
2.34902	49.31
2.36568	49.54
2.38235	49.59
2.39902	49.59
2.41568	49.60
2.43235	49.62
2.44902	49.64
2.46568	49.64
2.48235	49.67
2.49902	49.67
2.51568	49.71
2.53235	49.72
2.54902	49.75
2.56568	49.77
2.58235	49.78
2.59902	49.79
2.61568	49.81
2.63235	49.82
2.64902	49.83
2.66568	49.84
2.68235	49.85
2.69902	49.85
2.71568	49.84
2.73235	49.85
2.74902	49.88
2.76568	49.88
2.78235	49.86
2.79902	49.84
2.81568	49.86
2.83235	49.89
2.84902	49.90
2.86568	49.91
2.88235	49.91
2.89902	49.92
2.91568	49.91
2.93235	49.91
2.94902	49.91
2.96568	49.92
2.98235	49.94
2.99902	49.95
3.01568	49.97
3.03235	49.98
3.04902	49.99
3.06568	50.00
3.08235	50.01
3.09902	50.02
3.11568	50.03
3.13235	50.05
3.14902	50.05
3.16568	50.06
3.18235	50.06
3.19902	50.07
3.21568	50.06
3.23235	50.06
3.24902	50.06
3.26568	50.07
3.28235	50.07
3.29902	50.08
3.31568	50.08
3.33235	50.09
3.34902	50.08
3.36568	50.08
3.38235	50.09
3.39902	50.10
3.41568	50.11
3.43235	50.11
3.44902	50.09
3.46568	50.09
3.48235	50.09
3.49902	50.10
3.51568	50.09
3.53235	50.08
3.54902	50.07
3.56568	50.07
3.58235	50.07
3.59902	50.05
3.61568	50.04
3.63235	50.02
3.64902	50.02
3.66568	50.01
3.68235	50.02
3.69902	50.03
3.71568	50.04
3.73235	50.03
3.74902	50.04
3.76568	50.05
3.78235	50.06
3.79902	50.07
3.81568	50.07
3.83235	50.08
3.84902	50.08
3.86568	50.09
3.88235	50.10
3.89902	50.09
3.91568	50.09
3.93235	50.08
3.94902	50.07
3.96568	50.06
3.98235	50.05
3.99902	50.05

[Status Trace (Injection Unit Temperature)]
Interval(msec)	1000
# of Points	240
Start Time(min)	0.016
End Time(min)	3.999
Intensity Units	
Intensity Multiplier	1
R.Time (min)	Intensity
0.01568	99.97
0.03235	99.98
0.04902	99.98
0.06568	99.98
0.08235	99.98
0.09902	99.98
0.11568	99.98
0.13235	99.98
0.14902	99.98
0.16568	99.98
0.18235	99.98
0.19902	99.98
0.21568	99.98
0.23235	99.98
0.24902	99.98
0.26568	99.98
0.28235	99.98
0.29902	99.98
0.31568	99.98
0.33235	99.97
0.34902	99.98
0.36568	99.98
0.38235	99.98
0.39902	99.97
0.41568	99.98
0.43235	99.98
0.44902	99.98
0.46568	99.98
0.48235	99.98
0.49902	99.97
0.51568	99.97
0.53235	99.98
0.54902	99.98
0.56568	99.97
0.58235	99.98
0.59902	99.98
0.61568	99.97
0.63235	99.98
0.64902	99.98
0.66568	99.97
0.68235	99.98
0.69902	99.97
0.71568	99.97
0.73235	99.98
0.74902	99.98
0.76568	99.97
0.78235	99.98
0.79902	99.98
0.81568	99.98
0.83235	99.97
0.84902	99.98
0.86568	99.97
0.88235	99.97
0.89902	99.97
0.91568	99.98
0.93235	99.98
0.94902	99.98
0.96568	99.98
0.98235	99.98
0.99902	99.98
1.01568	99.98
1.03235	99.98
1.04902	99.98
1.06568	99.98
1.08235	99.98
1.09902	99.98
1.11568	99.98
1.13235	99.97
1.14902	99.97
1.16568	99.97
1.18235	99.98
1.19902	99.98
1.21568	99.98
1.23235	99.98
1.24902	99.98
1.26568	99.97
1.28235	99.98
1.29902	99.97
1.31568	99.97
1.33235	99.98
1.34902	99.97
1.36568	99.98
1.38235	99.97
1.39902	99.98
1.41568	99.98
1.43235	99.98
1.44902	99.98
1.46568	99.98
1.48235	99.98
1.49902	99.98
1.51568	99.98
1.53235	99.98
1.54902	99.98
1.56568	99.98
1.58235	99.98
1.59902	99.98
1.61568	99.98
1.63235	99.98
1.64902	99.98
1.66568	99.98
1.68235	99.98
1.69902	99.98
1.71568	99.98
1.73235	99.98
1.74902	99.98
1.76568	99.98
1.78235	99.98
1.79902	99.98
1.81568	99.98
1.83235	99.98
1.84902	99.98
1.86568	99.98
1.88235	99.98
1.89902	99.98
1.91568	99.98
1.93235	99.97
1.94902	99.97
1.96568	99.98
1.98235	99.97
1.99902	99.97
2.01568	99.97
2.03235	99.97
2.04902	99.97
2.06568	99.97
2.08235	99.97
2.09902	99.96
2.11568	99.96
2.13235	99.97
2.14902	99.96
2.16568	99.97
2.18235	99.96
2.19902	99.96
2.21568	99.96
2.23235	99.96
2.24902	99.96
2.26568	99.96
2.28235	99.96
2.29902	99.96
2.31568	99.96
2.33235	99.96
2.34902	99.97
2.36568	99.97
2.38235	99.97
2.39902	99.97
2.41568	99.96
2.43235	99.97
2.44902	99.97
2.46568	99.97
2.48235	99.97
2.49902	99.97
2.51568	99.97
2.53235	99.97
2.54902	99.97
2.56568	99.97
2.58235	99.97
2.59902	99.98
2.61568	99.98
2.63235	99.98
2.64902	99.98
2.66568	99.98
2.68235	99.98
2.69902	99.99
2.71568	99.99
2.73235	99.99
2.74902	99.99
2.76568	99.99
2.78235	99.99
2.79902	99.99
2.81568	100.00
2.83235	100.00
2.84902	100.00
2.86568	100.00
2.88235	100.00
2.89902	100.01
2.91568	100.00
2.93235	100.01
2.94902	100.01
2.96568	100.01
2.98235	100.01
2.99902	100.02
3.01568	100.01
3.03235	100.02
3.04902	100.01
3.06568	100.02
3.08235	100.02
3.09902	100.02
3.11568	100.02
3.13235	100.02
3.14902	100.02
3.16568	100.02
3.18235	100.02
3.19902	100.02
3.21568	100.02
3.23235	100.03
3.24902	100.02
3.26568	100.02
3.28235	100.03
3.29902	100.02
3.31568	100.03
3.33235	100.03
3.34902	100.03
3.36568	100.03
3.38235	100.03
3.39902	100.03
3.41568	100.03
3.43235	100.03
3.44902	100.03
3.46568	100.03
3.48235	100.03
3.49902	100.04
3.51568	100.03
3.53235	100.03
3.54902	100.03
3.56568	100.04
3.58235	100.04
3.59902	100.03
3.61568	100.04
3.63235	100.03
3.64902	100.03
3.66568	100.04
3.68235	100.04
3.69902	100.03
3.71568	100.04
3.73235	100.03
3.74902	100.04
3.76568	100.04
3.78235	100.04
3.79902	100.04
3.81568	100.04
3.83235	100.04
3.84902	100.03
3.86568	100.04
3.88235	100.04
3.89902	100.03
3.91568	100.04
3.93235	100.04
3.94902	100.04
3.96568	100.04
3.98235	100.04
3.99902	100.04

[Status Trace (Carrier Gas Pressure)]
Interval(msec)	1000
# of Points	240
Start Time(min)	0.016
End Time(min)	3.999
Intensity Units	
Intensity Multiplier	1
R.Time (min)	Intensity
0.01568	56.93
0.03235	55.71
0.04902	58.13
0.06568	59.90
0.08235	58.59
0.09902	57.97
0.11568	58.00
0.13235	58.01
0.14902	58.01
0.16568	58.00
0.18235	58.00
0.19902	58.00
0.21568	58.00
0.23235	58.00
0.24902	58.00
0.26568	58.00
0.28235	58.00
0.29902	58.00
0.31568	58.00
0.33235	58.00
0.34902	58.00
0.36568	58.00
0.38235	58.00
0.39902	58.00
0.41568	58.00
0.43235	58.00
0.44902	58.00
0.46568	58.00
0.48235	58.00
0.49902	58.00
0.51568	58.00
0.53235	58.00
0.54902	58.00
0.56568	58.00
0.58235	58.00
0.59902	58.00
0.61568	58.00
0.63235	58.00
0.64902	58.00
0.66568	58.00
0.68235	58.00
0.69902	58.00
0.71568	58.00
0.73235	58.00
0.74902	58.00
0.76568	58.00
0.78235	58.00
0.79902	58.00
0.81568	58.00
0.83235	58.00
0.84902	58.00
0.86568	58.00
0.88235	58.00
0.89902	58.00
0.91568	58.00
0.93235	58.00
0.94902	58.00
0.96568	58.00
0.98235	58.00
0.99902	58.00
1.01568	58.00
1.03235	58.00
1.04902	58.00
1.06568	58.00
1.08235	58.00
1.09902	58.00
1.11568	58.00
1.13235	58.00
1.14902	58.00
1.16568	58.00
1.18235	58.00
1.19902	58.00
1.21568	58.00
1.23235	58.00
1.24902	58.00
1.26568	58.00
1.28235	58.00
1.29902	58.00
1.31568	58.00
1.33235	58.00
1.34902	58.00
1.36568	58.00
1.38235	58.00
1.39902	58.00
1.41568	58.00
1.43235	58.00
1.44902	58.00
1.46568	58.00
1.48235	58.00
1.49902	58.00
1.51568	58.00
1.53235	58.00
1.54902	58.00
1.56568	58.00
1.58235	58.00
1.59902	58.00
1.61568	58.00
1.63235	58.01
1.64902	58.00
1.66568	58.01
1.68235	58.01
1.69902	58.00
1.71568	58.00
1.73235	58.00
1.74902	58.00
1.76568	58.00
1.78235	58.00
1.79902	58.00
1.81568	58.00
1.83235	58.00
1.84902	58.00
1.86568	58.00
1.88235	58.00
1.89902	58.00
1.91568	58.00
1.93235	58.00
1.94902	58.00
1.96568	58.00
1.98235	58.00
1.99902	58.00
2.01568	58.00
2.03235	58.00
2.04902	58.00
2.06568	58.00
2.08235	58.00
2.09902	58.00
2.11568	58.00
2.13235	58.00
2.14902	58.00
2.16568	58.00
2.18235	58.00
2.19902	58.00
2.21568	58.00
2.23235	58.00
2.24902	58.00
2.26568	58.00
2.28235	58.00
2.29902	58.00
2.31568	58.00
2.33235	58.00
2.34902	58.00
2.36568	58.00
2.38235	57.99
2.39902	57.99
2.41568	58.00
2.43235	58.00
2.44902	58.00
2.46568	58.00
2.48235	58.00
2.49902	58.00
2.51568	57.99
2.53235	57.99
2.54902	58.00
2.56568	58.00
2.58235	58.00
2.59902	58.00
2.61568	58.00
2.63235	58.00
2.64902	58.00
2.66568	58.00
2.68235	58.00
2.69902	58.00
2.71568	58.00
2.73235	58.00
2.74902	58.00
2.76568	58.00
2.78235	58.00
2.79902	58.00
2.81568	58.00
2.83235	58.00
2.84902	58.00
2.86568	58.00
2.88235	58.00
2.89902	58.00
2.91568	58.00
2.93235	58.00
2.94902	58.00
2.96568	58.00
2.98235	58.00
2.99902	58.00
3.01568	58.00
3.03235	58.00
3.04902	58.00
3.06568	58.00
3.08235	58.00
3.09902	58.00
3.11568	58.00
3.13235	58.00
3.14902	58.00
3.16568	58.00
3.18235	58.00
3.19902	58.00
3.21568	58.00
3.23235	58.00
3.24902	58.00
3.26568	58.00
3.28235	58.00
3.29902	58.00
3.31568	58.00
3.33235	58.00
3.34902	58.00
3.36568	58.00
3.38235	58.00
3.39902	58.00
3.41568	58.00
3.43235	58.00
3.44902	58.00
3.46568	58.00
3.48235	58.00
3.49902	58.00
3.51568	58.00
3.53235	58.00
3.54902	58.00
3.56568	58.00
3.58235	58.00
3.59902	58.00
3.61568	58.00
3.63235	58.00
3.64902	58.00
3.66568	58.00
3.68235	58.00
3.69902	58.00
3.71568	58.00
3.73235	58.00
3.74902	58.00
3.76568	58.00
3.78235	58.00
3.79902	58.00
3.81568	58.00
3.83235	58.00
3.84902	58.00
3.86568	58.00
3.88235	58.00
3.89902	58.00
3.91568	58.00
3.93235	58.00
3.94902	58.00
3.96568	58.00
3.98235	58.00
3.99902	58.00

[Status Trace (Carrier Gas Flow)]
Interval(msec)	1000
# of Points	240
Start Time(min)	0.016
End Time(min)	3.999
Intensity Units	
Intensity Multiplier	1
R.Time (min)	Intensity
0.01568	33.81
0.03235	34.54
0.04902	34.55
0.06568	34.51
0.08235	34.50
0.09902	34.52
0.11568	34.52
0.13235	34.51
0.14902	34.52
0.16568	34.52
0.18235	34.52
0.19902	34.52
0.21568	34.51
0.23235	34.52
0.24902	34.52
0.26568	34.52
0.28235	34.51
0.29902	34.52
0.31568	34.52
0.33235	34.52
0.34902	34.52
0.36568	34.52
0.38235	34.52
0.39902	34.52
0.41568	34.52
0.43235	34.52
0.44902	34.52
0.46568	34.52
0.48235	34.52
0.49902	34.53
0.51568	34.52
0.53235	34.52
0.54902	34.52
0.56568	34.52
0.58235	34.52
0.59902	34.52
0.61568	34.51
0.63235	34.52
0.64902	34.52
0.66568	34.51
0.68235	34.51
0.69902	34.51
0.71568	34.52
0.73235	34.52
0.74902	34.52
0.76568	34.52
0.78235	34.52
0.79902	34.51
0.81568	34.52
0.83235	34.53
0.84902	34.51
0.86568	34.52
0.88235	34.52
0.89902	34.52
0.91568	34.51
0.93235	34.52
0.94902	34.52
0.96568	34.51
0.98235	34.52
0.99902	34.52
1.01568	34.51
1.03235	34.52
1.04902	34.52
1.06568	34.52
1.08235	34.52
1.09902	34.52
1.11568	34.52
1.13235	34.52
1.14902	34.52
1.16568	34.52
1.18235	34.52
1.19902	34.52
1.21568	34.52
1.23235	34.52
1.24902	34.52
1.26568	34.52
1.28235	34.51
1.29902	34.51
1.31568	34.52
1.33235	34.52
1.34902	34.52
1.36568	34.52
1.38235	34.52
1.39902	34.52
1.41568	34.52
1.43235	34.52
1.44902	34.52
1.46568	34.52
1.48235	34.52
1.49902	34.51
1.51568	34.52
1.53235	34.52
1.54902	34.52
1.56568	34.52
1.58235	34.52
1.59902	34.52
1.61568	34.52
1.63235	34.52
1.64902	34.52
1.66568	34.51
1.68235	34.52
1.69902	34.52
1.71568	34.51
1.73235	34.52
1.74902	34.52
1.76568	34.52
1.78235	34.52
1.79902	34.52
1.81568	34.51
1.83235	34.52
1.84902	34.52
1.86568	34.52
1.88235	34.52
1.89902	34.51
1.91568	34.51
1.93235	34.51
1.94902	34.52
1.96568	34.52
1.98235	34.51
1.99902	34.52
2.01568	34.52
2.03235	34.51
2.04902	34.52
2.06568	34.52
2.08235	34.51
2.09902	34.51
2.11568	34.52
2.13235	34.52
2.14902	34.51
2.16568	34.52
2.18235	34.52
2.19902	34.52
2.21568	34.52
2.23235	34.51
2.24902	34.52
2.26568	34.52
2.28235	34.52
2.29902	34.52
2.31568	34.52
2.33235	34.52
2.34902	34.52
2.36568	34.52
2.38235	34.51
2.39902	34.52
2.41568	34.53
2.43235	34.51
2.44902	34.52
2.46568	34.51
2.48235	34.52
2.49902	34.52
2.51568	34.52
2.53235	34.51
2.54902	34.52
2.56568	34.52
2.58235	34.52
2.59902	34.52
2.61568	34.52
2.63235	34.52
2.64902	34.52
2.66568	34.52
2.68235	34.51
2.69902	34.52
2.71568	34.52
2.73235	34.52
2.74902	34.52
2.76568	34.52
2.78235	34.52
2.79902	34.52
2.81568	34.52
2.83235	34.52
2.84902	34.52
2.86568	34.52
2.88235	34.52
2.89902	34.52
2.91568	34.52
2.93235	34.52
2.94902	34.52
2.96568	34.52
2.98235	34.52
2.99902	34.52
3.01568	34.52
3.03235	34.52
3.04902	34.51
3.06568	34.52
3.08235	34.52
3.09902	34.51
3.11568	34.51
3.13235	34.52
3.14902	34.52
3.16568	34.51
3.18235	34.53
3.19902	34.52
3.21568	34.52
3.23235	34.53
3.24902	34.52
3.26568	34.52
3.28235	34.53
3.29902	34.52
3.31568	34.52
3.33235	34.52
3.34902	34.52
3.36568	34.52
3.38235	34.52
3.39902	34.52
3.41568	34.51
3.43235	34.52
3.44902	34.53
3.46568	34.52
3.48235	34.52
3.49902	34.52
3.51568	34.52
3.53235	34.52
3.54902	34.52
3.56568	34.52
3.58235	34.52
3.59902	34.52
3.61568	34.52
3.63235	34.52
3.64902	34.52
3.66568	34.52
3.68235	34.51
3.69902	34.52
3.71568	34.52
3.73235	34.53
3.74902	34.52
3.76568	34.52
3.78235	34.51
3.79902	34.52
3.81568	34.52
3.83235	34.51
3.84902	34.51
3.86568	34.52
3.88235	34.52
3.89902	34.52
3.91568	34.52
3.93235	34.52
3.94902	34.52
3.96568	34.52
3.98235	34.52
3.99902	34.51

[Status Trace (Column Flow)]
Interval(msec)	1000
# of Points	240
Start Time(min)	0.016
End Time(min)	3.999
Intensity Units	
Intensity Multiplier	1
R.Time (min)	Intensity
0.01568	5.40
0.03235	5.26
0.04902	5.54
0.06568	5.74
0.08235	5.59
0.09902	5.52
0.11568	5.52
0.13235	5.52
0.14902	5.52
0.16568	5.52
0.18235	5.52
0.19902	5.52
0.21568	5.52
0.23235	5.52
0.24902	5.52
0.26568	5.52
0.28235	5.52
0.29902	5.52
0.31568	5.52
0.33235	5.52
0.34902	5.52
0.36568	5.52
0.38235	5.52
0.39902	5.52
0.41568	5.52
0.43235	5.52
0.44902	5.52
0.46568	5.52
0.48235	5.52
0.49902	5.52
0.51568	5.52
0.53235	5.52
0.54902	5.52
0.56568	5.52
0.58235	5.52
0.59902	5.52
0.61568	5.52
0.63235	5.52
0.64902	5.52
0.66568	5.52
0.68235	5.52
0.69902	5.52
0.71568	5.52
0.73235	5.52
0.74902	5.52
0.76568	5.52
0.78235	5.52
0.79902	5.52
0.81568	5.52
0.83235	5.52
0.84902	5.52
0.86568	5.52
0.88235	5.52
0.89902	5.52
0.91568	5.52
0.93235	5.52
0.94902	5.52
0.96568	5.52
0.98235	5.52
0.99902	5.52
1.01568	5.52
1.03235	5.52
1.04902	5.52
1.06568	5.52
1.08235	5.52
1.09902	5.52
1.11568	5.52
1.13235	5.52
1.14902	5.52
1.16568	5.52
1.18235	5.52
1.19902	5.52
1.21568	5.52
1.23235	5.52
1.24902	5.52
1.26568	5.52
1.28235	5.52
1.29902	5.52
1.31568	5.52
1.33235	5.52
1.34902	5.52
1.36568	5.52
1.38235	5.52
1.39902	5.52
1.41568	5.52
1.43235	5.52
1.44902	5.52
1.46568	5.52
1.48235	5.52
1.49902	5.52
1.51568	5.52
1.53235	5.52
1.54902	5.52
1.56568	5.52
1.58235	5.52
1.59902	5.52
1.61568	5.52
1.63235	5.52
1.64902	5.51
1.66568	5.50
1.68235	5.49
1.69902	5.48
1.71568	5.47
1.73235	5.46
1.74902	5.44
1.76568	5.43
1.78235	5.43
1.79902	5.41
1.81568	5.40
1.83235	5.40
1.84902	5.38
1.86568	5.37
1.88235	5.37
1.89902	5.35
1.91568	5.34
1.93235	5.34
1.94902	5.33
1.96568	5.32
1.98235	5.31
1.99902	5.30
2.01568	5.29
2.03235	5.28
2.04902	5.27
2.06568	5.26
2.08235	5.25
2.09902	5.24
2.11568	5.23
2.13235	5.22
2.14902	5.21
2.16568	5.20
2.18235	5.19
2.19902	5.18
2.21568	5.17
2.23235	5.16
2.24902	5.15
2.26568	5.14
2.28235	5.14
2.29902	5.13
2.31568	5.12
2.33235	5.11
2.34902	5.10
2.36568	5.09
2.38235	5.09
2.39902	5.09
2.41568	5.09
2.43235	5.09
2.44902	5.09
2.46568	5.09
2.48235	5.09
2.49902	5.09
2.51568	5.09
2.53235	5.09
2.54902	5.09
2.56568	5.09
2.58235	5.09
2.59902	5.09
2.61568	5.08
2.63235	5.08
2.64902	5.08
2.66568	5.08
2.68235	5.08
2.69902	5.08
2.71568	5.08
2.73235	5.08
2.74902	5.08
2.76568	5.08
2.78235	5.08
2.79902	5.08
2.81568	5.08
2.83235	5.08
2.84902	5.08
2.86568	5.08
2.88235	5.08
2.89902	5.08
2.91568	5.08
2.93235	5.08
2.94902	5.08
2.96568	5.08
2.98235	5.08
2.99902	5.08
3.01568	5.08
3.03235	5.08
3.04902	5.08
3.06568	5.08
3.08235	5.08
3.09902	5.08
3.11568	5.08
3.13235	5.08
3.14902	5.08
3.16568	5.08
3.18235	5.08
3.19902	5.08
3.21568	5.08
3.23235	5.08
3.24902	5.08
3.26568	5.08
3.28235	5.08
3.29902	5.08
3.31568	5.08
3.33235	5.08
3.34902	5.08
3.36568	5.08
3.38235	5.08
3.39902	5.08
3.41568	5.08
3.43235	5.08
3.44902	5.08
3.46568	5.08
3.48235	5.08
3.49902	5.08
3.51568	5.08
3.53235	5.08
3.54902	5.08
3.56568	5.08
3.58235	5.08
3.59902	5.08
3.61568	5.08
3.63235	5.08
3.64902	5.08
3.66568	5.08
3.68235	5.08
3.69902	5.08
3.71568	5.08
3.73235	5.08
3.74902	5.08
3.76568	5.08
3.78235	5.08
3.79902	5.08
3.81568	5.08
3.83235	5.08
3.84902	5.08
3.86568	5.08
3.88235	5.08
3.89902	5.08
3.91568	5.08
3.93235	5.08
3.94902	5.08
3.96568	5.08
3.98235	5.08
3.99902	5.08

[Status Trace (Linear Velocity)]
Interval(msec)	1000
# of Points	240
Start Time(min)	0.016
End Time(min)	3.999
Intensity Units	
Intensity Multiplier	1
R.Time (min)	Intensity
0.01568	38.31
0.03235	37.51
0.04902	39.10
0.06568	40.25
0.08235	39.40
0.09902	38.99
0.11568	39.01
0.13235	39.02
0.14902	39.02
0.16568	39.02
0.18235	39.02
0.19902	39.02
0.21568	39.02
0.23235	39.02
0.24902	39.02
0.26568	39.02
0.28235	39.02
0.29902	39.02
0.31568	39.02
0.33235	39.02
0.34902	39.02
0.36568	39.01
0.38235	39.01
0.39902	39.02
0.41568	39.02
0.43235	39.02
0.44902	39.02
0.46568	39.02
0.48235	39.02
0.49902	39.02
0.51568	39.02
0.53235	39.02
0.54902	39.02
0.56568	39.02
0.58235	39.02
0.59902	39.02
0.61568	39.02
0.63235	39.02
0.64902	39.02
0.66568	39.02
0.68235	39.02
0.69902	39.02
0.71568	39.02
0.73235	39.02
0.74902	39.02
0.76568	39.02
0.78235	39.02
0.79902	39.02
0.81568	39.02
0.83235	39.02
0.84902	39.02
0.86568	39.01
0.88235	39.01
0.89902	39.01
0.91568	39.01
0.93235	39.01
0.94902	39.01
0.96568	39.01
0.98235	39.02
0.99902	39.02
1.01568	39.02
1.03235	39.02
1.04902	39.02
1.06568	39.02
1.08235	39.02
1.09902	39.02
1.11568	39.02
1.13235	39.02
1.14902	39.02
1.16568	39.02
1.18235	39.02
1.19902	39.02
1.21568	39.02
1.23235	39.02
1.24902	39.02
1.26568	39.01
1.28235	39.01
1.29902	39.01
1.31568	39.01
1.33235	39.02
1.34902	39.02
1.36568	39.02
1.38235	39.02
1.39902	39.01
1.41568	39.01
1.43235	39.01
1.44902	39.02
1.46568	39.02
1.48235	39.02
1.49902	39.02
1.51568	39.02
1.53235	39.02
1.54902	39.02
1.56568	39.02
1.58235	39.02
1.59902	39.01
1.61568	39.01
1.63235	39.00
1.64902	38.97
1.66568	38.94
1.68235	38.91
1.69902	38.88
1.71568	38.84
1.73235	38.81
1.74902	38.78
1.76568	38.75
1.78235	38.72
1.79902	38.68
1.81568	38.65
1.83235	38.62
1.84902	38.59
1.86568	38.56
1.88235	38.53
1.89902	38.50
1.91568	38.47
1.93235	38.44
1.94902	38.41
1.96568	38.38
1.98235	38.35
1.99902	38.32
2.01568	38.29
2.03235	38.26
2.04902	38.22
2.06568	38.19
2.08235	38.17
2.09902	38.14
2.11568	38.11
2.13235	38.08
2.14902	38.04
2.16568	38.02
2.18235	37.99
2.19902	37.96
2.21568	37.93
2.23235	37.90
2.24902	37.87
2.26568	37.84
2.28235	37.81
2.29902	37.78
2.31568	37.75
2.33235	37.73
2.34902	37.69
2.36568	37.67
2.38235	37.66
2.39902	37.66
2.41568	37.67
2.43235	37.67
2.44902	37.66
2.46568	37.66
2.48235	37.66
2.49902	37.66
2.51568	37.65
2.53235	37.65
2.54902	37.66
2.56568	37.65
2.58235	37.65
2.59902	37.65
2.61568	37.65
2.63235	37.65
2.64902	37.65
2.66568	37.65
2.68235	37.65
2.69902	37.65
2.71568	37.65
2.73235	37.65
2.74902	37.64
2.76568	37.64
2.78235	37.64
2.79902	37.65
2.81568	37.65
2.83235	37.64
2.84902	37.64
2.86568	37.64
2.88235	37.64
2.89902	37.64
2.91568	37.64
2.93235	37.64
2.94902	37.64
2.96568	37.64
2.98235	37.64
2.99902	37.64
3.01568	37.64
3.03235	37.63
3.04902	37.63
3.06568	37.63
3.08235	37.63
3.09902	37.63
3.11568	37.63
3.13235	37.63
3.14902	37.63
3.16568	37.63
3.18235	37.63
3.19902	37.63
3.21568	37.63
3.23235	37.63
3.24902	37.63
3.26568	37.63
3.28235	37.63
3.29902	37.63
3.31568	37.63
3.33235	37.63
3.34902	37.63
3.36568	37.63
3.38235	37.63
3.39902	37.62
3.41568	37.62
3.43235	37.62
3.44902	37.62
3.46568	37.63
3.48235	37.62
3.49902	37.62
3.51568	37.62
3.53235	37.63
3.54902	37.63
3.56568	37.63
3.58235	37.63
3.59902	37.63
3.61568	37.63
3.63235	37.63
3.64902	37.63
3.66568	37.63
3.68235	37.63
3.69902	37.63
3.71568	37.63
3.73235	37.63
3.74902	37.63
3.76568	37.63
3.78235	37.63
3.79902	37.63
3.81568	37.63
3.83235	37.63
3.84902	37.63
3.86568	37.63
3.88235	37.62
3.89902	37.62
3.91568	37.63
3.93235	37.63
3.94902	37.63
3.96568	37.63
3.98235	37.63
3.99902	37.63

