[Header]
Application Name	LabSolutions
Version	5.110
Data File Name	C:\Users\User\Desktop\GC Analyses\Jack\Nachusa Grasslands Sampling\T2 Timepoint July 12th\T2_07122022_048.gcd
Output Date	3/14/2023
Output Time	3:42:32 PM

[File Information]
Type	Data File
Generated	3/10/2023 5:44:17 PM
Generated by	System Administrator
Modified	3/10/2023 5:50:52 PM
Modified by	System Administrator

[Sample Information]
Operator Name	System Administrator
Acquired	3/10/2023 5:46:51 PM
Sample Type	0:Unknown
Level	0
Sample Name	048
Sample ID	048
ISTD Amount1	1
ISTD Amount2	1
ISTD Amount3	1
ISTD Amount4	1
ISTD Amount5	1
ISTD Amount6	1
ISTD Amount7	1
ISTD Amount8	1
ISTD Amount9	1
ISTD Amount10	1
ISTD Amount11	1
ISTD Amount12	1
ISTD Amount13	1
ISTD Amount14	1
ISTD Amount15	1
ISTD Amount16	1
ISTD Amount17	1
ISTD Amount18	1
ISTD Amount19	1
ISTD Amount20	1
ISTD Amount21	1
ISTD Amount22	1
ISTD Amount23	1
ISTD Amount24	1
ISTD Amount25	1
ISTD Amount26	1
ISTD Amount27	1
ISTD Amount28	1
ISTD Amount29	1
ISTD Amount30	1
ISTD Amount31	1
ISTD Amount32	1
Sample Amount	1
Dilution Factor	1
Vial#	47
Injection Volume	1
Injection Count	1
Bar Code	

[Original Files]
Data File	C:\Users\User\Desktop\GC Analyses\Jack\Nachusa Grasslands Sampling\T1 Timepoint July 12th\T2_07122022_048.gcd
Method File	C:\LabSolutions\Data\GHG_4min_2022\ghg3_togas_w_acet_4 min_new_int.gcm
Batch File	C:\LabSolutions\Data\AutoSamplerTesting\T2_07122022.gcb
Report Format File	c:\LabSolutions\System\DEFAULT.lsr

[File Description]


[Configuration]
Instrument Name	C0B7VH3-Instrument1
Instrument #	1
Line #	1
# of Detectors	3
Detector ID	DET#1	DET#2	DET#3
Detector Name	FID	PTCD	ECD
# of Channels	1	1	1

[Peak Table(Ch1)]
# of Peaks	3
Peak#	R.Time	I.Time	F.Time	Area	Height	A/H	Conc.	Mark	ID#	Name	k'	Plate #	Plate Ht.	Tailing	Resolution	Sep.Factor	Area Ratio	Height Ratio	Conc. %	Norm Conc.
1	1.476	1.432	1.538	27758	13170	2.108	195.974	   	1	CO	0.000	9379	15.993	1.288	0.000	0.000	0	0	29.023	29.023
2	1.567	1.538	1.630	4422	2155	2.052	85.501	 V 	2	CH4	0.062	10280	14.591	0.000	1.493	0.000	0	0	12.662	12.662
3	1.996	1.941	2.499	1568943	748284	2.097	393.762	   	3	CO2	0.353	17354	8.643	1.281	7.007	5.680	0	0	58.315	58.315

[Peak Table(Ch2)]
# of Peaks	0

[Peak Table(Ch3)]
# of Peaks	4
Peak#	R.Time	I.Time	F.Time	Area	Height	A/H	Conc.	Mark	ID#	Name	k'	Plate #	Plate Ht.	Tailing	Resolution	Sep.Factor	Area Ratio	Height Ratio	Conc. %	Norm Conc.
1	2.462	2.271	2.513	2526	681	3.712	0.000	   			0.000	8452	17.746	0.000	0.000	0.000	0	0	0.000	0.000
2	2.535	2.513	2.722	2440	405	6.031	0.000	 V 			0.030	4101	36.579	0.000	0.552	0.000	0	0	0.000	0.000
3	2.876	2.722	3.089	19847	5070	3.915	0.507	 V 	1	N2O	0.168	13058	11.487	1.628	2.633	5.650	0	0	100.000	100.000
4	3.555	3.177	3.635	1198	78	15.436	0.000	   			0.444	1783	84.121	0.612	3.102	2.637	0	0	0.000	0.000

[Compound Results(Ch1)]
# of IDs	6
ID#	Name	R.Time	Area	Height	Conc.	Curve	3rd	2nd	1st	Constant	Area Ratio	Height Ratio	Conc. %	Norm Conc.
1	CO	1.476	27758	13170	195.974	Linear	0.000000e+00	0.000000e+00	1.416423e+002	0.000000e+00	0	0	29.023	29.023
2	CH4	1.567	4422	2155	85.501	Linear	0.000000e+00	0.000000e+00	5.171738e+001	0.000000e+00	0	0	12.662	12.662
3	CO2	1.996	1568943	748284	393.762	Linear	0.000000e+00	0.000000e+00	3.984494e+003	0.000000e+00	0	0	58.315	58.315
4	Ethylene	0.000	0	0	0.000	Linear	0.000000e+00	0.000000e+00	0.000000e+00	0.000000e+00	0	0	0.000	0.000
5	Acetylene	0.000	0	0	0.000	Linear	0.000000e+00	0.000000e+00	0.000000e+00	0.000000e+00	0	0	0.000	0.000
6	Ethane	0.000	0	0	0.000	Linear	0.000000e+00	0.000000e+00	0.000000e+00	0.000000e+00	0	0	0.000	0.000

[Compound Results(Ch2)]
# of IDs	5
ID#	Name	R.Time	Area	Height	Conc.	Curve	3rd	2nd	1st	Constant	Area Ratio	Height Ratio	Conc. %	Norm Conc.
1	Hydrogen	0.000	0	0	0.000	Linear	0.000000e+00	0.000000e+00	0.000000e+00	0.000000e+00	0	0	0.000	0.000
2	Oxygen	0.000	0	0	0.000	Linear	0.000000e+00	0.000000e+00	0.000000e+00	0.000000e+00	0	0	0.000	0.000
3	Nitrogen	0.000	0	0	0.000	Linear	0.000000e+00	0.000000e+00	0.000000e+00	0.000000e+00	0	0	0.000	0.000
4	Methane	0.000	0	0	0.000	Linear	0.000000e+00	0.000000e+00	0.000000e+00	0.000000e+00	0	0	0.000	0.000
5	Carbon Monoxide	0.000	0	0	0.000	Linear	0.000000e+00	0.000000e+00	0.000000e+00	0.000000e+00	0	0	0.000	0.000

[Compound Results(Ch3)]
# of IDs	2
ID#	Name	R.Time	Area	Height	Conc.	Curve	3rd	2nd	1st	Constant	Area Ratio	Height Ratio	Conc. %	Norm Conc.
1	N2O	2.876	19847	5070	0.507	Linear	0.000000e+00	0.000000e+00	3.915173e+004	0.000000e+00	0	0	100.000	100.000
2	SF6	0.000	0	0	0.000	Linear	0.000000e+00	0.000000e+00	0.000000e+00	0.000000e+00	0	0	0.000	0.000

[Group Results(Ch1)]
# of Groups	0

[Group Results(Ch2)]
# of Groups	0

[Group Results(Ch3)]
# of Groups	0

[Chromatogram (Ch1)]
Interval(msec)	220
# of Points	1091
Start Time(min)	0.002
End Time(min)	3.998
R.Time (min)	Intensity
0.00167	9
0.00533	1
0.00900	-4
0.01267	-7
0.01633	-16
0.02000	-26
0.02367	-26
0.02733	-20
0.03100	-15
0.03467	-15
0.03833	-15
0.04200	-15
0.04567	-15
0.04933	-15
0.05300	-14
0.05667	-12
0.06033	-8
0.06400	-9
0.06767	-12
0.07133	-13
0.07500	-11
0.07867	-7
0.08233	-5
0.08600	-1
0.08967	3
0.09333	4
0.09700	4
0.10067	-4
0.10433	-11
0.10800	-16
0.11167	-18
0.11533	-19
0.11900	-17
0.12267	-11
0.12633	-7
0.13000	-5
0.13367	0
0.13733	1
0.14100	2
0.14467	3
0.14833	1
0.15200	1
0.15567	2
0.15933	3
0.16300	-1
0.16667	-5
0.17033	-4
0.17400	-5
0.17767	-9
0.18133	-14
0.18500	-16
0.18867	-15
0.19233	-15
0.19600	-13
0.19967	-4
0.20333	7
0.20700	16
0.21067	24
0.21433	26
0.21800	18
0.22167	10
0.22533	9
0.22900	10
0.23267	12
0.23633	15
0.24000	16
0.24367	12
0.24733	7
0.25100	6
0.25467	7
0.25833	11
0.26200	19
0.26567	21
0.26933	16
0.27300	8
0.27667	1
0.28033	-3
0.28400	-2
0.28767	3
0.29133	8
0.29500	15
0.29867	19
0.30233	24
0.30600	27
0.30967	27
0.31333	24
0.31700	21
0.32067	17
0.32433	8
0.32800	-6
0.33167	-16
0.33533	-22
0.33900	-26
0.34267	-28
0.34633	-31
0.35000	-31
0.35367	-30
0.35733	-27
0.36100	-24
0.36467	-15
0.36833	-2
0.37200	8
0.37567	14
0.37933	17
0.38300	16
0.38667	15
0.39033	14
0.39400	13
0.39767	14
0.40133	13
0.40500	15
0.40867	18
0.41233	19
0.41600	16
0.41967	12
0.42333	11
0.42700	9
0.43067	6
0.43433	6
0.43800	10
0.44167	15
0.44533	18
0.44900	18
0.45267	18
0.45633	16
0.46000	17
0.46367	17
0.46733	10
0.47100	1
0.47467	-10
0.47833	-19
0.48200	-22
0.48567	-22
0.48933	-24
0.49300	-24
0.49667	-20
0.50033	-13
0.50400	-7
0.50767	-3
0.51133	-2
0.51500	-2
0.51867	-2
0.52233	-1
0.52600	3
0.52967	2
0.53333	-4
0.53700	-11
0.54067	-15
0.54433	-13
0.54800	-9
0.55167	-4
0.55533	2
0.55900	7
0.56267	8
0.56633	9
0.57000	12
0.57367	14
0.57733	11
0.58100	4
0.58467	-4
0.58833	-11
0.59200	-12
0.59567	-9
0.59933	-8
0.60300	-7
0.60667	-3
0.61033	1
0.61400	3
0.61767	5
0.62133	6
0.62500	4
0.62867	0
0.63233	-6
0.63600	-11
0.63967	-11
0.64333	-3
0.64700	9
0.65067	20
0.65433	21
0.65800	14
0.66167	4
0.66533	-5
0.66900	-13
0.67267	-19
0.67633	-25
0.68000	-27
0.68367	-26
0.68733	-22
0.69100	-19
0.69467	-17
0.69833	-15
0.70200	-10
0.70567	-7
0.70933	-13
0.71300	-21
0.71667	-23
0.72033	-20
0.72400	-13
0.72767	-6
0.73133	-4
0.73500	-5
0.73867	-7
0.74233	-7
0.74600	-2
0.74967	3
0.75333	6
0.75700	7
0.76067	4
0.76433	-1
0.76800	-7
0.77167	-10
0.77533	-11
0.77900	-9
0.78267	-7
0.78633	-6
0.79000	-2
0.79367	2
0.79733	3
0.80100	1
0.80467	-1
0.80833	-2
0.81200	-3
0.81567	-4
0.81933	-4
0.82300	-4
0.82667	-3
0.83033	-0
0.83400	0
0.83767	-2
0.84133	-5
0.84500	-8
0.84867	-10
0.85233	-10
0.85600	-8
0.85967	-5
0.86333	-1
0.86700	1
0.87067	0
0.87433	-3
0.87800	-7
0.88167	-13
0.88533	-17
0.88900	-18
0.89267	-20
0.89633	-23
0.90000	-24
0.90367	-21
0.90733	-19
0.91100	-18
0.91467	-14
0.91833	-11
0.92200	-10
0.92567	-10
0.92933	-10
0.93300	-8
0.93667	-10
0.94033	-17
0.94400	-25
0.94767	-28
0.95133	-29
0.95500	-27
0.95867	-24
0.96233	-20
0.96600	-22
0.96967	-28
0.97333	-32
0.97700	-31
0.98067	-26
0.98433	-21
0.98800	-15
0.99167	-10
0.99533	-8
0.99900	-11
1.00267	-14
1.00633	-18
1.01000	-21
1.01367	-26
1.01733	-31
1.02100	-31
1.02467	-27
1.02833	-26
1.03200	-28
1.03567	-32
1.03933	-36
1.04300	-36
1.04667	-31
1.05033	-27
1.05400	-29
1.05767	-37
1.06133	-42
1.06500	-37
1.06867	-27
1.07233	-20
1.07600	-16
1.07967	-14
1.08333	-15
1.08700	-15
1.09067	-16
1.09433	-22
1.09800	-31
1.10167	-37
1.10533	-36
1.10900	-29
1.11267	-22
1.11633	-17
1.12000	-14
1.12367	-15
1.12733	-18
1.13100	-20
1.13467	-20
1.13833	-20
1.14200	-27
1.14567	-34
1.14933	-37
1.15300	-38
1.15667	-41
1.16033	-41
1.16400	-38
1.16767	-35
1.17133	-33
1.17500	-31
1.17867	-34
1.18233	-40
1.18600	-41
1.18967	-35
1.19333	-22
1.19700	-7
1.20067	6
1.20433	12
1.20800	7
1.21167	-5
1.21533	-19
1.21900	-30
1.22267	-40
1.22633	-51
1.23000	-59
1.23367	-64
1.23733	-66
1.24100	-64
1.24467	-59
1.24833	-50
1.25200	-42
1.25567	-39
1.25933	-31
1.26300	-22
1.26667	-14
1.27033	-7
1.27400	-2
1.27767	-0
1.28133	0
1.28500	-1
1.28867	-2
1.29233	-3
1.29600	0
1.29967	7
1.30333	15
1.30700	20
1.31067	18
1.31433	10
1.31800	-2
1.32167	-13
1.32533	-19
1.32900	-19
1.33267	-16
1.33633	-14
1.34000	-11
1.34367	-4
1.34733	3
1.35100	5
1.35467	-1
1.35833	-10
1.36200	-11
1.36567	-5
1.36933	5
1.37300	13
1.37667	16
1.38033	15
1.38400	11
1.38767	8
1.39133	8
1.39500	16
1.39867	22
1.40233	22
1.40600	19
1.40967	14
1.41333	7
1.41700	-3
1.42067	-15
1.42433	-21
1.42800	-21
1.43167	-13
1.43533	-1
1.43900	27
1.44267	130
1.44633	380
1.45000	1014
1.45367	2434
1.45733	4671
1.46100	7240
1.46467	9611
1.46833	11483
1.47200	12711
1.47567	13168
1.47933	12754
1.48300	11516
1.48667	9714
1.49033	7726
1.49400	5874
1.49767	4332
1.50133	3137
1.50500	2255
1.50867	1628
1.51233	1187
1.51600	875
1.51967	656
1.52333	506
1.52700	405
1.53067	337
1.53433	289
1.53800	269
1.54167	320
1.54533	494
1.54900	804
1.55267	1189
1.55633	1566
1.56000	1877
1.56367	2088
1.56733	2176
1.57100	2117
1.57467	1907
1.57833	1591
1.58200	1249
1.58567	933
1.58933	673
1.59300	472
1.59667	324
1.60033	225
1.60400	161
1.60767	117
1.61133	89
1.61500	70
1.61867	60
1.62233	53
1.62600	45
1.62967	38
1.63333	36
1.63700	38
1.64067	41
1.64433	49
1.64800	57
1.65167	62
1.65533	55
1.65900	41
1.66267	24
1.66633	7
1.67000	-6
1.67367	-10
1.67733	-7
1.68100	-3
1.68467	-0
1.68833	1
1.69200	2
1.69567	5
1.69933	5
1.70300	2
1.70667	-1
1.71033	-7
1.71400	-13
1.71767	-13
1.72133	-13
1.72500	-15
1.72867	-13
1.73233	-8
1.73600	-5
1.73967	-4
1.74333	-5
1.74700	-7
1.75067	-5
1.75433	-4
1.75800	-6
1.76167	-7
1.76533	-7
1.76900	-7
1.77267	-2
1.77633	7
1.78000	16
1.78367	20
1.78733	17
1.79100	8
1.79467	3
1.79833	1
1.80200	-2
1.80567	1
1.80933	8
1.81300	11
1.81667	10
1.82033	10
1.82400	13
1.82767	17
1.83133	14
1.83500	9
1.83867	8
1.84233	8
1.84600	9
1.84967	13
1.85333	13
1.85700	9
1.86067	5
1.86433	0
1.86800	-6
1.87167	-10
1.87533	-5
1.87900	7
1.88267	25
1.88633	41
1.89000	42
1.89367	30
1.89733	17
1.90100	8
1.90467	5
1.90833	8
1.91200	13
1.91567	12
1.91933	3
1.92300	-6
1.92667	-15
1.93033	-15
1.93400	-13
1.93767	-10
1.94133	-3
1.94500	6
1.94867	18
1.95233	43
1.95600	193
1.95967	1040
1.96333	4825
1.96700	17624
1.97067	50816
1.97433	117817
1.97800	224172
1.98167	359839
1.98533	502179
1.98900	626140
1.99267	712268
1.99633	748325
2.00000	730464
2.00367	664827
2.00733	566485
2.01100	454820
2.01467	347241
2.01833	254901
2.02200	182019
2.02567	127866
2.02933	89292
2.03300	62575
2.03667	44383
2.04033	32101
2.04400	23816
2.04767	18192
2.05133	14326
2.05500	11623
2.05867	9689
2.06233	8272
2.06600	7201
2.06967	6377
2.07333	5731
2.07700	5212
2.08067	4784
2.08433	4419
2.08800	4106
2.09167	3834
2.09533	3593
2.09900	3378
2.10267	3191
2.10633	3028
2.11000	2883
2.11367	2748
2.11733	2617
2.12100	2495
2.12467	2386
2.12833	2293
2.13200	2210
2.13567	2131
2.13933	2056
2.14300	1982
2.14667	1911
2.15033	1841
2.15400	1772
2.15767	1708
2.16133	1653
2.16500	1603
2.16867	1556
2.17233	1510
2.17600	1469
2.17967	1429
2.18333	1390
2.18700	1354
2.19067	1317
2.19433	1281
2.19800	1251
2.20167	1224
2.20533	1190
2.20900	1150
2.21267	1112
2.21633	1078
2.22000	1049
2.22367	1025
2.22733	1009
2.23100	994
2.23467	979
2.23833	960
2.24200	944
2.24567	932
2.24933	919
2.25300	905
2.25667	895
2.26033	886
2.26400	872
2.26767	856
2.27133	839
2.27500	818
2.27867	794
2.28233	774
2.28600	762
2.28967	756
2.29333	742
2.29700	723
2.30067	711
2.30433	702
2.30800	691
2.31167	677
2.31533	668
2.31900	667
2.32267	666
2.32633	661
2.33000	651
2.33367	640
2.33733	631
2.34100	626
2.34467	622
2.34833	618
2.35200	615
2.35567	614
2.35933	615
2.36300	609
2.36667	594
2.37033	580
2.37400	570
2.37767	562
2.38133	557
2.38500	553
2.38867	548
2.39233	544
2.39600	542
2.39967	539
2.40333	534
2.40700	528
2.41067	520
2.41433	517
2.41800	516
2.42167	509
2.42533	500
2.42900	493
2.43267	489
2.43633	483
2.44000	477
2.44367	472
2.44733	467
2.45100	460
2.45467	451
2.45833	444
2.46200	443
2.46567	445
2.46933	446
2.47300	447
2.47667	444
2.48033	441
2.48400	441
2.48767	448
2.49133	456
2.49500	453
2.49867	442
2.50233	432
2.50600	431
2.50967	440
2.51333	452
2.51700	457
2.52067	454
2.52433	447
2.52800	437
2.53167	428
2.53533	419
2.53900	411
2.54267	409
2.54633	410
2.55000	414
2.55367	420
2.55733	418
2.56100	409
2.56467	399
2.56833	395
2.57200	392
2.57567	384
2.57933	377
2.58300	377
2.58667	384
2.59033	391
2.59400	398
2.59767	400
2.60133	398
2.60500	392
2.60867	386
2.61233	384
2.61600	385
2.61967	381
2.62333	373
2.62700	365
2.63067	361
2.63433	359
2.63800	362
2.64167	368
2.64533	375
2.64900	380
2.65267	382
2.65633	385
2.66000	387
2.66367	384
2.66733	379
2.67100	375
2.67467	369
2.67833	368
2.68200	368
2.68567	366
2.68933	363
2.69300	359
2.69667	358
2.70033	359
2.70400	366
2.70767	370
2.71133	365
2.71500	360
2.71867	356
2.72233	353
2.72600	357
2.72967	361
2.73333	365
2.73700	368
2.74067	368
2.74433	367
2.74800	365
2.75167	363
2.75533	360
2.75900	353
2.76267	347
2.76633	345
2.77000	345
2.77367	346
2.77733	347
2.78100	347
2.78467	349
2.78833	353
2.79200	359
2.79567	366
2.79933	372
2.80300	371
2.80667	363
2.81033	359
2.81400	363
2.81767	367
2.82133	364
2.82500	357
2.82867	355
2.83233	357
2.83600	357
2.83967	358
2.84333	361
2.84700	362
2.85067	359
2.85433	355
2.85800	353
2.86167	355
2.86533	354
2.86900	351
2.87267	351
2.87633	354
2.88000	356
2.88367	355
2.88733	356
2.89100	359
2.89467	365
2.89833	376
2.90200	384
2.90567	388
2.90933	387
2.91300	380
2.91667	372
2.92033	365
2.92400	356
2.92767	349
2.93133	345
2.93500	344
2.93867	344
2.94233	348
2.94600	354
2.94967	358
2.95333	362
2.95700	366
2.96067	365
2.96433	366
2.96800	363
2.97167	356
2.97533	350
2.97900	343
2.98267	337
2.98633	336
2.99000	340
2.99367	346
2.99733	352
3.00100	359
3.00467	364
3.00833	367
3.01200	365
3.01567	365
3.01933	363
3.02300	356
3.02667	355
3.03033	356
3.03400	359
3.03767	363
3.04133	363
3.04500	359
3.04867	356
3.05233	352
3.05600	349
3.05967	347
3.06333	344
3.06700	341
3.07067	331
3.07433	318
3.07800	310
3.08167	310
3.08533	317
3.08900	321
3.09267	326
3.09633	329
3.10000	327
3.10367	324
3.10733	323
3.11100	315
3.11467	310
3.11833	309
3.12200	312
3.12567	318
3.12933	323
3.13300	327
3.13667	333
3.14033	336
3.14400	339
3.14767	341
3.15133	341
3.15500	338
3.15867	338
3.16233	341
3.16600	335
3.16967	318
3.17333	300
3.17700	292
3.18067	295
3.18433	298
3.18800	296
3.19167	294
3.19533	297
3.19900	305
3.20267	311
3.20633	316
3.21000	322
3.21367	323
3.21733	317
3.22100	311
3.22467	308
3.22833	309
3.23200	309
3.23567	309
3.23933	309
3.24300	309
3.24667	307
3.25033	307
3.25400	311
3.25767	311
3.26133	307
3.26500	305
3.26867	303
3.27233	302
3.27600	304
3.27967	305
3.28333	314
3.28700	325
3.29067	331
3.29433	330
3.29800	322
3.30167	309
3.30533	299
3.30900	292
3.31267	285
3.31633	282
3.32000	285
3.32367	287
3.32733	289
3.33100	292
3.33467	293
3.33833	292
3.34200	292
3.34567	296
3.34933	302
3.35300	309
3.35667	313
3.36033	314
3.36400	306
3.36767	291
3.37133	280
3.37500	276
3.37867	270
3.38233	267
3.38600	267
3.38967	269
3.39333	274
3.39700	278
3.40067	281
3.40433	285
3.40800	286
3.41167	283
3.41533	281
3.41900	279
3.42267	279
3.42633	281
3.43000	278
3.43367	272
3.43733	266
3.44100	267
3.44467	266
3.44833	265
3.45200	266
3.45567	271
3.45933	276
3.46300	280
3.46667	281
3.47033	275
3.47400	267
3.47767	262
3.48133	259
3.48500	256
3.48867	255
3.49233	254
3.49600	254
3.49967	255
3.50333	258
3.50700	261
3.51067	264
3.51433	266
3.51800	266
3.52167	264
3.52533	265
3.52900	266
3.53267	263
3.53633	259
3.54000	249
3.54367	238
3.54733	234
3.55100	237
3.55467	243
3.55833	249
3.56200	254
3.56567	258
3.56933	259
3.57300	258
3.57667	252
3.58033	249
3.58400	252
3.58767	253
3.59133	248
3.59500	245
3.59867	242
3.60233	239
3.60600	240
3.60967	245
3.61333	247
3.61700	246
3.62067	240
3.62433	233
3.62800	230
3.63167	229
3.63533	228
3.63900	228
3.64267	228
3.64633	230
3.65000	231
3.65367	229
3.65733	227
3.66100	223
3.66467	217
3.66833	213
3.67200	213
3.67567	214
3.67933	216
3.68300	219
3.68667	225
3.69033	235
3.69400	244
3.69767	247
3.70133	248
3.70500	250
3.70867	249
3.71233	247
3.71600	244
3.71967	240
3.72333	234
3.72700	229
3.73067	224
3.73433	222
3.73800	223
3.74167	223
3.74533	221
3.74900	220
3.75267	219
3.75633	218
3.76000	220
3.76367	220
3.76733	212
3.77100	204
3.77467	205
3.77833	215
3.78200	221
3.78567	219
3.78933	213
3.79300	209
3.79667	207
3.80033	204
3.80400	200
3.80767	194
3.81133	187
3.81500	179
3.81867	174
3.82233	171
3.82600	170
3.82967	170
3.83333	170
3.83700	170
3.84067	174
3.84433	179
3.84800	185
3.85167	186
3.85533	186
3.85900	188
3.86267	185
3.86633	180
3.87000	176
3.87367	175
3.87733	179
3.88100	185
3.88467	186
3.88833	186
3.89200	187
3.89567	190
3.89933	192
3.90300	189
3.90667	185
3.91033	185
3.91400	186
3.91767	185
3.92133	186
3.92500	189
3.92867	192
3.93233	196
3.93600	202
3.93967	210
3.94333	210
3.94700	201
3.95067	190
3.95433	182
3.95800	180
3.96167	182
3.96533	183
3.96900	181
3.97267	177
3.97633	175
3.98000	174
3.98367	168
3.98733	158
3.99100	151
3.99467	153
3.99833	161

[Chromatogram (Ch2)]
Interval(msec)	220
# of Points	1091
Start Time(min)	0.002
End Time(min)	3.998
R.Time (min)	Intensity
0.00167	0
0.00533	1
0.00900	1
0.01267	1
0.01633	1
0.02000	2
0.02367	2
0.02733	2
0.03100	2
0.03467	2
0.03833	1
0.04200	1
0.04567	1
0.04933	0
0.05300	0
0.05667	0
0.06033	0
0.06400	-0
0.06767	-0
0.07133	0
0.07500	0
0.07867	0
0.08233	0
0.08600	1
0.08967	1
0.09333	1
0.09700	2
0.10067	2
0.10433	2
0.10800	3
0.11167	3
0.11533	3
0.11900	3
0.12267	3
0.12633	3
0.13000	3
0.13367	3
0.13733	3
0.14100	3
0.14467	3
0.14833	3
0.15200	3
0.15567	3
0.15933	3
0.16300	4
0.16667	4
0.17033	4
0.17400	4
0.17767	4
0.18133	4
0.18500	4
0.18867	4
0.19233	4
0.19600	4
0.19967	3
0.20333	3
0.20700	3
0.21067	3
0.21433	3
0.21800	3
0.22167	3
0.22533	3
0.22900	3
0.23267	3
0.23633	3
0.24000	3
0.24367	3
0.24733	3
0.25100	3
0.25467	2
0.25833	2
0.26200	2
0.26567	2
0.26933	1
0.27300	1
0.27667	1
0.28033	1
0.28400	1
0.28767	1
0.29133	1
0.29500	1
0.29867	1
0.30233	2
0.30600	2
0.30967	2
0.31333	1
0.31700	1
0.32067	1
0.32433	1
0.32800	1
0.33167	1
0.33533	1
0.33900	1
0.34267	1
0.34633	1
0.35000	1
0.35367	2
0.35733	2
0.36100	2
0.36467	2
0.36833	2
0.37200	1
0.37567	1
0.37933	1
0.38300	1
0.38667	1
0.39033	1
0.39400	1
0.39767	1
0.40133	1
0.40500	0
0.40867	0
0.41233	0
0.41600	0
0.41967	0
0.42333	-0
0.42700	-1
0.43067	-1
0.43433	-1
0.43800	-1
0.44167	-1
0.44533	-1
0.44900	-1
0.45267	-2
0.45633	-2
0.46000	-2
0.46367	-2
0.46733	-3
0.47100	-3
0.47467	-3
0.47833	-3
0.48200	-2
0.48567	-2
0.48933	-1
0.49300	-1
0.49667	-0
0.50033	-0
0.50400	-0
0.50767	0
0.51133	0
0.51500	1
0.51867	1
0.52233	1
0.52600	1
0.52967	1
0.53333	1
0.53700	1
0.54067	0
0.54433	0
0.54800	-0
0.55167	-0
0.55533	-0
0.55900	-0
0.56267	-0
0.56633	-0
0.57000	-1
0.57367	-1
0.57733	-0
0.58100	0
0.58467	1
0.58833	1
0.59200	2
0.59567	2
0.59933	2
0.60300	3
0.60667	3
0.61033	3
0.61400	4
0.61767	4
0.62133	4
0.62500	5
0.62867	5
0.63233	5
0.63600	5
0.63967	5
0.64333	5
0.64700	5
0.65067	5
0.65433	5
0.65800	5
0.66167	5
0.66533	5
0.66900	4
0.67267	4
0.67633	4
0.68000	4
0.68367	3
0.68733	3
0.69100	2
0.69467	2
0.69833	2
0.70200	2
0.70567	1
0.70933	1
0.71300	1
0.71667	-0
0.72033	-1
0.72400	-2
0.72767	-2
0.73133	-3
0.73500	-3
0.73867	-3
0.74233	-3
0.74600	-2
0.74967	-2
0.75333	-1
0.75700	-1
0.76067	-0
0.76433	0
0.76800	1
0.77167	1
0.77533	1
0.77900	2
0.78267	2
0.78633	3
0.79000	3
0.79367	3
0.79733	4
0.80100	4
0.80467	4
0.80833	3
0.81200	3
0.81567	3
0.81933	2
0.82300	2
0.82667	2
0.83033	2
0.83400	1
0.83767	1
0.84133	1
0.84500	1
0.84867	1
0.85233	1
0.85600	1
0.85967	1
0.86333	1
0.86700	1
0.87067	1
0.87433	1
0.87800	1
0.88167	1
0.88533	1
0.88900	1
0.89267	1
0.89633	1
0.90000	1
0.90367	1
0.90733	0
0.91100	0
0.91467	-0
0.91833	-1
0.92200	-1
0.92567	-1
0.92933	-1
0.93300	-2
0.93667	-2
0.94033	-2
0.94400	-2
0.94767	-2
0.95133	-2
0.95500	-2
0.95867	-2
0.96233	-2
0.96600	-1
0.96967	-1
0.97333	-1
0.97700	-1
0.98067	-1
0.98433	-1
0.98800	-1
0.99167	-1
0.99533	-1
0.99900	-2
1.00267	-2
1.00633	-2
1.01000	-3
1.01367	-3
1.01733	-3
1.02100	-2
1.02467	-2
1.02833	-2
1.03200	-1
1.03567	-1
1.03933	-1
1.04300	-1
1.04667	-0
1.05033	0
1.05400	0
1.05767	-0
1.06133	-0
1.06500	-0
1.06867	-0
1.07233	-0
1.07600	-0
1.07967	-1
1.08333	-1
1.08700	-1
1.09067	-1
1.09433	-1
1.09800	-1
1.10167	-1
1.10533	-1
1.10900	-1
1.11267	-1
1.11633	-0
1.12000	-0
1.12367	0
1.12733	0
1.13100	1
1.13467	1
1.13833	1
1.14200	2
1.14567	2
1.14933	2
1.15300	2
1.15667	2
1.16033	2
1.16400	2
1.16767	2
1.17133	2
1.17500	2
1.17867	2
1.18233	2
1.18600	1
1.18967	1
1.19333	1
1.19700	1
1.20067	1
1.20433	1
1.20800	1
1.21167	1
1.21533	1
1.21900	1
1.22267	1
1.22633	1
1.23000	1
1.23367	1
1.23733	1
1.24100	2
1.24467	2
1.24833	2
1.25200	2
1.25567	2
1.25933	2
1.26300	2
1.26667	2
1.27033	2
1.27400	1
1.27767	1
1.28133	0
1.28500	0
1.28867	-0
1.29233	-0
1.29600	-0
1.29967	-0
1.30333	-1
1.30700	-1
1.31067	-1
1.31433	-1
1.31800	-1
1.32167	-1
1.32533	-1
1.32900	-1
1.33267	-2
1.33633	-2
1.34000	-2
1.34367	-1
1.34733	-1
1.35100	-1
1.35467	-1
1.35833	-0
1.36200	0
1.36567	0
1.36933	1
1.37300	1
1.37667	1
1.38033	1
1.38400	1
1.38767	1
1.39133	1
1.39500	1
1.39867	1
1.40233	1
1.40600	1
1.40967	1
1.41333	0
1.41700	0
1.42067	0
1.42433	0
1.42800	0
1.43167	1
1.43533	1
1.43900	1
1.44267	1
1.44633	1
1.45000	1
1.45367	1
1.45733	1
1.46100	1
1.46467	1
1.46833	1
1.47200	1
1.47567	1
1.47933	1
1.48300	1
1.48667	1
1.49033	0
1.49400	-0
1.49767	-1
1.50133	-1
1.50500	-1
1.50867	-1
1.51233	-1
1.51600	-1
1.51967	-1
1.52333	-1
1.52700	-1
1.53067	-1
1.53433	-1
1.53800	-1
1.54167	-1
1.54533	-1
1.54900	-1
1.55267	-1
1.55633	-1
1.56000	-0
1.56367	-0
1.56733	0
1.57100	0
1.57467	1
1.57833	1
1.58200	1
1.58567	2
1.58933	2
1.59300	1
1.59667	1
1.60033	1
1.60400	-0
1.60767	-1
1.61133	-3
1.61500	-5
1.61867	-7
1.62233	-9
1.62600	-12
1.62967	-15
1.63333	-19
1.63700	-22
1.64067	-26
1.64433	-30
1.64800	-34
1.65167	-38
1.65533	-42
1.65900	-47
1.66267	-52
1.66633	-57
1.67000	-62
1.67367	-68
1.67733	-73
1.68100	-78
1.68467	-83
1.68833	-87
1.69200	-91
1.69567	-94
1.69933	-96
1.70300	-97
1.70667	-98
1.71033	-99
1.71400	-100
1.71767	-101
1.72133	-102
1.72500	-103
1.72867	-103
1.73233	-104
1.73600	-105
1.73967	-106
1.74333	-106
1.74700	-107
1.75067	-107
1.75433	-106
1.75800	-106
1.76167	-105
1.76533	-105
1.76900	-105
1.77267	-106
1.77633	-106
1.78000	-107
1.78367	-108
1.78733	-109
1.79100	-110
1.79467	-111
1.79833	-112
1.80200	-112
1.80567	-113
1.80933	-113
1.81300	-113
1.81667	-113
1.82033	-113
1.82400	-113
1.82767	-113
1.83133	-113
1.83500	-113
1.83867	-113
1.84233	-113
1.84600	-113
1.84967	-112
1.85333	-112
1.85700	-111
1.86067	-111
1.86433	-111
1.86800	-111
1.87167	-111
1.87533	-112
1.87900	-112
1.88267	-112
1.88633	-112
1.89000	-112
1.89367	-111
1.89733	-111
1.90100	-111
1.90467	-111
1.90833	-110
1.91200	-109
1.91567	-109
1.91933	-108
1.92300	-108
1.92667	-108
1.93033	-108
1.93400	-109
1.93767	-109
1.94133	-109
1.94500	-109
1.94867	-109
1.95233	-109
1.95600	-108
1.95967	-107
1.96333	-107
1.96700	-106
1.97067	-106
1.97433	-106
1.97800	-106
1.98167	-106
1.98533	-106
1.98900	-106
1.99267	-105
1.99633	-105
2.00000	-105
2.00367	-104
2.00733	-104
2.01100	-104
2.01467	-104
2.01833	-104
2.02200	-104
2.02567	-104
2.02933	-103
2.03300	-103
2.03667	-104
2.04033	-104
2.04400	-104
2.04767	-104
2.05133	-103
2.05500	-103
2.05867	-102
2.06233	-101
2.06600	-101
2.06967	-100
2.07333	-100
2.07700	-99
2.08067	-99
2.08433	-99
2.08800	-98
2.09167	-97
2.09533	-97
2.09900	-96
2.10267	-96
2.10633	-96
2.11000	-95
2.11367	-95
2.11733	-94
2.12100	-94
2.12467	-94
2.12833	-93
2.13200	-94
2.13567	-94
2.13933	-94
2.14300	-93
2.14667	-93
2.15033	-92
2.15400	-91
2.15767	-91
2.16133	-90
2.16500	-90
2.16867	-90
2.17233	-90
2.17600	-91
2.17967	-91
2.18333	-92
2.18700	-91
2.19067	-91
2.19433	-90
2.19800	-89
2.20167	-87
2.20533	-86
2.20900	-86
2.21267	-85
2.21633	-85
2.22000	-85
2.22367	-85
2.22733	-85
2.23100	-85
2.23467	-86
2.23833	-86
2.24200	-86
2.24567	-86
2.24933	-86
2.25300	-86
2.25667	-85
2.26033	-85
2.26400	-84
2.26767	-83
2.27133	-83
2.27500	-82
2.27867	-81
2.28233	-80
2.28600	-80
2.28967	-79
2.29333	-79
2.29700	-78
2.30067	-79
2.30433	-79
2.30800	-79
2.31167	-79
2.31533	-79
2.31900	-79
2.32267	-79
2.32633	-78
2.33000	-78
2.33367	-77
2.33733	-76
2.34100	-76
2.34467	-75
2.34833	-74
2.35200	-73
2.35567	-72
2.35933	-71
2.36300	-69
2.36667	-68
2.37033	-67
2.37400	-65
2.37767	-62
2.38133	-59
2.38500	-56
2.38867	-52
2.39233	-47
2.39600	-43
2.39967	-38
2.40333	-34
2.40700	-30
2.41067	-25
2.41433	-22
2.41800	-18
2.42167	-16
2.42533	-14
2.42900	-12
2.43267	-11
2.43633	-10
2.44000	-8
2.44367	-7
2.44733	-6
2.45100	-5
2.45467	-4
2.45833	-3
2.46200	-2
2.46567	-1
2.46933	-0
2.47300	1
2.47667	2
2.48033	3
2.48400	4
2.48767	5
2.49133	6
2.49500	6
2.49867	7
2.50233	8
2.50600	9
2.50967	10
2.51333	10
2.51700	11
2.52067	12
2.52433	12
2.52800	13
2.53167	14
2.53533	14
2.53900	14
2.54267	15
2.54633	15
2.55000	15
2.55367	15
2.55733	15
2.56100	15
2.56467	16
2.56833	16
2.57200	17
2.57567	17
2.57933	17
2.58300	18
2.58667	18
2.59033	18
2.59400	19
2.59767	19
2.60133	19
2.60500	19
2.60867	19
2.61233	19
2.61600	19
2.61967	20
2.62333	20
2.62700	20
2.63067	20
2.63433	20
2.63800	21
2.64167	21
2.64533	22
2.64900	23
2.65267	23
2.65633	24
2.66000	24
2.66367	24
2.66733	24
2.67100	24
2.67467	24
2.67833	24
2.68200	24
2.68567	24
2.68933	24
2.69300	24
2.69667	25
2.70033	25
2.70400	26
2.70767	26
2.71133	26
2.71500	26
2.71867	26
2.72233	26
2.72600	26
2.72967	26
2.73333	25
2.73700	25
2.74067	25
2.74433	25
2.74800	25
2.75167	25
2.75533	26
2.75900	26
2.76267	27
2.76633	28
2.77000	28
2.77367	29
2.77733	29
2.78100	30
2.78467	30
2.78833	30
2.79200	30
2.79567	30
2.79933	31
2.80300	31
2.80667	31
2.81033	31
2.81400	31
2.81767	31
2.82133	32
2.82500	32
2.82867	32
2.83233	31
2.83600	31
2.83967	30
2.84333	27
2.84700	23
2.85067	16
2.85433	7
2.85800	-5
2.86167	-22
2.86533	-42
2.86900	-67
2.87267	-96
2.87633	-129
2.88000	-167
2.88367	-208
2.88733	-253
2.89100	-301
2.89467	-352
2.89833	-404
2.90200	-459
2.90567	-514
2.90933	-569
2.91300	-625
2.91667	-680
2.92033	-734
2.92400	-787
2.92767	-838
2.93133	-890
2.93500	-947
2.93867	-1005
2.94233	-1057
2.94600	-1092
2.94967	-1102
2.95333	-1086
2.95700	-1047
2.96067	-988
2.96433	-917
2.96800	-839
2.97167	-758
2.97533	-677
2.97900	-600
2.98267	-527
2.98633	-460
2.99000	-399
2.99367	-345
2.99733	-296
3.00100	-253
3.00467	-216
3.00833	-183
3.01200	-155
3.01567	-130
3.01933	-109
3.02300	-90
3.02667	-75
3.03033	-61
3.03400	-50
3.03767	-40
3.04133	-32
3.04500	-25
3.04867	-19
3.05233	-14
3.05600	-9
3.05967	-5
3.06333	-2
3.06700	1
3.07067	3
3.07433	6
3.07800	8
3.08167	9
3.08533	11
3.08900	12
3.09267	13
3.09633	14
3.10000	15
3.10367	15
3.10733	16
3.11100	16
3.11467	17
3.11833	17
3.12200	18
3.12567	18
3.12933	19
3.13300	19
3.13667	20
3.14033	20
3.14400	20
3.14767	21
3.15133	21
3.15500	22
3.15867	22
3.16233	23
3.16600	23
3.16967	23
3.17333	24
3.17700	24
3.18067	24
3.18433	24
3.18800	24
3.19167	24
3.19533	24
3.19900	24
3.20267	24
3.20633	24
3.21000	24
3.21367	24
3.21733	25
3.22100	25
3.22467	25
3.22833	25
3.23200	24
3.23567	24
3.23933	24
3.24300	24
3.24667	24
3.25033	24
3.25400	24
3.25767	24
3.26133	24
3.26500	24
3.26867	24
3.27233	24
3.27600	24
3.27967	24
3.28333	25
3.28700	25
3.29067	25
3.29433	25
3.29800	25
3.30167	26
3.30533	26
3.30900	26
3.31267	26
3.31633	26
3.32000	26
3.32367	26
3.32733	26
3.33100	26
3.33467	26
3.33833	27
3.34200	27
3.34567	27
3.34933	27
3.35300	27
3.35667	27
3.36033	28
3.36400	28
3.36767	28
3.37133	28
3.37500	28
3.37867	29
3.38233	29
3.38600	29
3.38967	30
3.39333	30
3.39700	31
3.40067	31
3.40433	31
3.40800	31
3.41167	32
3.41533	32
3.41900	32
3.42267	31
3.42633	31
3.43000	31
3.43367	31
3.43733	31
3.44100	31
3.44467	31
3.44833	31
3.45200	31
3.45567	31
3.45933	31
3.46300	31
3.46667	31
3.47033	31
3.47400	31
3.47767	30
3.48133	30
3.48500	30
3.48867	30
3.49233	30
3.49600	30
3.49967	30
3.50333	30
3.50700	30
3.51067	30
3.51433	30
3.51800	30
3.52167	29
3.52533	29
3.52900	29
3.53267	29
3.53633	29
3.54000	29
3.54367	29
3.54733	29
3.55100	29
3.55467	29
3.55833	29
3.56200	29
3.56567	29
3.56933	29
3.57300	29
3.57667	29
3.58033	29
3.58400	29
3.58767	29
3.59133	29
3.59500	29
3.59867	29
3.60233	30
3.60600	30
3.60967	30
3.61333	30
3.61700	30
3.62067	30
3.62433	30
3.62800	30
3.63167	30
3.63533	30
3.63900	30
3.64267	30
3.64633	29
3.65000	29
3.65367	29
3.65733	29
3.66100	28
3.66467	28
3.66833	28
3.67200	28
3.67567	28
3.67933	28
3.68300	28
3.68667	28
3.69033	28
3.69400	28
3.69767	28
3.70133	28
3.70500	28
3.70867	28
3.71233	28
3.71600	28
3.71967	28
3.72333	28
3.72700	28
3.73067	28
3.73433	28
3.73800	28
3.74167	28
3.74533	28
3.74900	29
3.75267	29
3.75633	29
3.76000	29
3.76367	29
3.76733	29
3.77100	29
3.77467	29
3.77833	30
3.78200	30
3.78567	30
3.78933	30
3.79300	30
3.79667	30
3.80033	30
3.80400	30
3.80767	30
3.81133	30
3.81500	30
3.81867	31
3.82233	31
3.82600	31
3.82967	31
3.83333	31
3.83700	30
3.84067	30
3.84433	30
3.84800	30
3.85167	30
3.85533	30
3.85900	30
3.86267	29
3.86633	29
3.87000	29
3.87367	29
3.87733	29
3.88100	29
3.88467	29
3.88833	29
3.89200	29
3.89567	29
3.89933	29
3.90300	29
3.90667	29
3.91033	28
3.91400	28
3.91767	28
3.92133	28
3.92500	28
3.92867	28
3.93233	28
3.93600	28
3.93967	28
3.94333	28
3.94700	28
3.95067	28
3.95433	28
3.95800	28
3.96167	28
3.96533	28
3.96900	28
3.97267	28
3.97633	28
3.98000	28
3.98367	28
3.98733	28
3.99100	29
3.99467	29
3.99833	29

[Chromatogram (Ch3)]
Interval(msec)	220
# of Points	1091
Start Time(min)	0.002
End Time(min)	3.998
R.Time (min)	Intensity
0.00167	-0
0.00533	0
0.00900	-1
0.01267	-2
0.01633	-2
0.02000	-2
0.02367	-2
0.02733	-1
0.03100	1
0.03467	0
0.03833	-2
0.04200	-2
0.04567	-2
0.04933	-3
0.05300	-3
0.05667	-4
0.06033	-3
0.06400	-3
0.06767	-4
0.07133	-3
0.07500	-2
0.07867	-2
0.08233	-2
0.08600	-3
0.08967	-4
0.09333	-1
0.09700	1
0.10067	2
0.10433	2
0.10800	2
0.11167	3
0.11533	0
0.11900	-0
0.12267	-1
0.12633	-2
0.13000	-2
0.13367	-1
0.13733	-2
0.14100	-3
0.14467	-4
0.14833	-3
0.15200	-1
0.15567	1
0.15933	2
0.16300	-0
0.16667	-2
0.17033	-2
0.17400	-0
0.17767	-0
0.18133	-0
0.18500	0
0.18867	-1
0.19233	-2
0.19600	-3
0.19967	-2
0.20333	-2
0.20700	-3
0.21067	-3
0.21433	-1
0.21800	2
0.22167	3
0.22533	3
0.22900	3
0.23267	3
0.23633	3
0.24000	5
0.24367	3
0.24733	1
0.25100	-0
0.25467	2
0.25833	2
0.26200	2
0.26567	1
0.26933	-1
0.27300	-2
0.27667	-1
0.28033	2
0.28400	4
0.28767	4
0.29133	6
0.29500	8
0.29867	8
0.30233	7
0.30600	6
0.30967	6
0.31333	5
0.31700	2
0.32067	2
0.32433	1
0.32800	0
0.33167	0
0.33533	1
0.33900	2
0.34267	3
0.34633	3
0.35000	2
0.35367	2
0.35733	1
0.36100	2
0.36467	3
0.36833	3
0.37200	2
0.37567	1
0.37933	1
0.38300	3
0.38667	3
0.39033	4
0.39400	6
0.39767	8
0.40133	9
0.40500	9
0.40867	6
0.41233	3
0.41600	-0
0.41967	-2
0.42333	-3
0.42700	-4
0.43067	-3
0.43433	0
0.43800	4
0.44167	7
0.44533	8
0.44900	8
0.45267	6
0.45633	4
0.46000	2
0.46367	2
0.46733	3
0.47100	2
0.47467	1
0.47833	3
0.48200	5
0.48567	7
0.48933	8
0.49300	8
0.49667	7
0.50033	7
0.50400	8
0.50767	8
0.51133	8
0.51500	8
0.51867	8
0.52233	6
0.52600	4
0.52967	3
0.53333	1
0.53700	1
0.54067	1
0.54433	1
0.54800	3
0.55167	4
0.55533	4
0.55900	3
0.56267	2
0.56633	1
0.57000	2
0.57367	3
0.57733	3
0.58100	3
0.58467	3
0.58833	2
0.59200	3
0.59567	4
0.59933	7
0.60300	7
0.60667	4
0.61033	2
0.61400	3
0.61767	5
0.62133	6
0.62500	5
0.62867	5
0.63233	4
0.63600	3
0.63967	3
0.64333	2
0.64700	1
0.65067	3
0.65433	4
0.65800	5
0.66167	7
0.66533	7
0.66900	6
0.67267	4
0.67633	3
0.68000	2
0.68367	-0
0.68733	-1
0.69100	2
0.69467	5
0.69833	6
0.70200	6
0.70567	7
0.70933	7
0.71300	8
0.71667	8
0.72033	11
0.72400	11
0.72767	10
0.73133	8
0.73500	6
0.73867	4
0.74233	3
0.74600	2
0.74967	1
0.75333	2
0.75700	4
0.76067	4
0.76433	1
0.76800	0
0.77167	1
0.77533	4
0.77900	7
0.78267	8
0.78633	8
0.79000	8
0.79367	9
0.79733	7
0.80100	6
0.80467	8
0.80833	10
0.81200	12
0.81567	10
0.81933	8
0.82300	6
0.82667	4
0.83033	2
0.83400	2
0.83767	3
0.84133	3
0.84500	3
0.84867	3
0.85233	2
0.85600	2
0.85967	2
0.86333	5
0.86700	6
0.87067	4
0.87433	3
0.87800	3
0.88167	4
0.88533	5
0.88900	7
0.89267	9
0.89633	10
0.90000	11
0.90367	11
0.90733	12
0.91100	10
0.91467	9
0.91833	8
0.92200	7
0.92567	6
0.92933	9
0.93300	11
0.93667	10
0.94033	8
0.94400	7
0.94767	7
0.95133	6
0.95500	7
0.95867	9
0.96233	10
0.96600	8
0.96967	7
0.97333	8
0.97700	9
0.98067	10
0.98433	12
0.98800	13
0.99167	11
0.99533	11
0.99900	11
1.00267	9
1.00633	9
1.01000	10
1.01367	9
1.01733	7
1.02100	7
1.02467	5
1.02833	4
1.03200	2
1.03567	2
1.03933	2
1.04300	6
1.04667	9
1.05033	9
1.05400	10
1.05767	8
1.06133	7
1.06500	8
1.06867	9
1.07233	8
1.07600	9
1.07967	10
1.08333	11
1.08700	13
1.09067	14
1.09433	13
1.09800	11
1.10167	11
1.10533	10
1.10900	9
1.11267	11
1.11633	12
1.12000	11
1.12367	11
1.12733	12
1.13100	13
1.13467	13
1.13833	11
1.14200	10
1.14567	11
1.14933	11
1.15300	10
1.15667	11
1.16033	11
1.16400	10
1.16767	10
1.17133	10
1.17500	10
1.17867	13
1.18233	15
1.18600	15
1.18967	13
1.19333	12
1.19700	12
1.20067	14
1.20433	14
1.20800	12
1.21167	11
1.21533	14
1.21900	15
1.22267	15
1.22633	13
1.23000	12
1.23367	11
1.23733	11
1.24100	9
1.24467	6
1.24833	6
1.25200	6
1.25567	6
1.25933	7
1.26300	8
1.26667	9
1.27033	10
1.27400	10
1.27767	11
1.28133	11
1.28500	10
1.28867	11
1.29233	10
1.29600	11
1.29967	13
1.30333	16
1.30700	16
1.31067	13
1.31433	12
1.31800	12
1.32167	13
1.32533	15
1.32900	15
1.33267	13
1.33633	12
1.34000	13
1.34367	14
1.34733	12
1.35100	13
1.35467	15
1.35833	16
1.36200	15
1.36567	14
1.36933	11
1.37300	9
1.37667	8
1.38033	8
1.38400	9
1.38767	10
1.39133	9
1.39500	10
1.39867	11
1.40233	15
1.40600	18
1.40967	16
1.41333	12
1.41700	12
1.42067	14
1.42433	15
1.42800	15
1.43167	15
1.43533	16
1.43900	17
1.44267	19
1.44633	18
1.45000	17
1.45367	17
1.45733	18
1.46100	17
1.46467	17
1.46833	16
1.47200	16
1.47567	15
1.47933	15
1.48300	15
1.48667	14
1.49033	13
1.49400	12
1.49767	12
1.50133	14
1.50500	15
1.50867	14
1.51233	12
1.51600	14
1.51967	16
1.52333	17
1.52700	17
1.53067	16
1.53433	16
1.53800	14
1.54167	13
1.54533	14
1.54900	13
1.55267	13
1.55633	12
1.56000	14
1.56367	15
1.56733	14
1.57100	14
1.57467	15
1.57833	13
1.58200	14
1.58567	16
1.58933	17
1.59300	18
1.59667	17
1.60033	18
1.60400	18
1.60767	16
1.61133	15
1.61500	14
1.61867	16
1.62233	20
1.62600	22
1.62967	21
1.63333	19
1.63700	20
1.64067	20
1.64433	17
1.64800	15
1.65167	15
1.65533	14
1.65900	15
1.66267	17
1.66633	20
1.67000	22
1.67367	23
1.67733	22
1.68100	23
1.68467	25
1.68833	27
1.69200	27
1.69567	26
1.69933	23
1.70300	21
1.70667	21
1.71033	24
1.71400	23
1.71767	23
1.72133	24
1.72500	23
1.72867	23
1.73233	24
1.73600	24
1.73967	24
1.74333	24
1.74700	27
1.75067	28
1.75433	27
1.75800	26
1.76167	24
1.76533	24
1.76900	26
1.77267	27
1.77633	28
1.78000	28
1.78367	30
1.78733	35
1.79100	37
1.79467	36
1.79833	34
1.80200	34
1.80567	34
1.80933	32
1.81300	31
1.81667	30
1.82033	31
1.82400	33
1.82767	33
1.83133	32
1.83500	34
1.83867	36
1.84233	37
1.84600	37
1.84967	36
1.85333	34
1.85700	33
1.86067	36
1.86433	39
1.86800	41
1.87167	42
1.87533	43
1.87900	44
1.88267	43
1.88633	41
1.89000	41
1.89367	45
1.89733	46
1.90100	46
1.90467	49
1.90833	51
1.91200	52
1.91567	52
1.91933	53
1.92300	53
1.92667	53
1.93033	54
1.93400	54
1.93767	54
1.94133	54
1.94500	53
1.94867	53
1.95233	54
1.95600	55
1.95967	55
1.96333	53
1.96700	55
1.97067	58
1.97433	60
1.97800	63
1.98167	64
1.98533	65
1.98900	63
1.99267	64
1.99633	65
2.00000	64
2.00367	64
2.00733	65
2.01100	65
2.01467	67
2.01833	70
2.02200	73
2.02567	73
2.02933	75
2.03300	75
2.03667	74
2.04033	74
2.04400	74
2.04767	77
2.05133	80
2.05500	79
2.05867	80
2.06233	82
2.06600	85
2.06967	88
2.07333	89
2.07700	89
2.08067	90
2.08433	89
2.08800	89
2.09167	89
2.09533	90
2.09900	92
2.10267	96
2.10633	99
2.11000	103
2.11367	104
2.11733	103
2.12100	104
2.12467	108
2.12833	110
2.13200	112
2.13567	115
2.13933	118
2.14300	118
2.14667	115
2.15033	114
2.15400	115
2.15767	117
2.16133	121
2.16500	120
2.16867	119
2.17233	119
2.17600	119
2.17967	121
2.18333	123
2.18700	124
2.19067	126
2.19433	128
2.19800	130
2.20167	133
2.20533	135
2.20900	139
2.21267	143
2.21633	146
2.22000	149
2.22367	152
2.22733	155
2.23100	159
2.23467	162
2.23833	162
2.24200	160
2.24567	159
2.24933	160
2.25300	161
2.25667	163
2.26033	164
2.26400	161
2.26767	161
2.27133	163
2.27500	165
2.27867	168
2.28233	171
2.28600	175
2.28967	177
2.29333	177
2.29700	177
2.30067	179
2.30433	182
2.30800	186
2.31167	188
2.31533	190
2.31900	193
2.32267	196
2.32633	197
2.33000	198
2.33367	199
2.33733	200
2.34100	204
2.34467	207
2.34833	211
2.35200	215
2.35567	218
2.35933	220
2.36300	224
2.36667	226
2.37033	227
2.37400	226
2.37767	225
2.38133	223
2.38500	222
2.38867	225
2.39233	228
2.39600	231
2.39967	236
2.40333	239
2.40700	244
2.41067	248
2.41433	250
2.41800	254
2.42167	256
2.42533	259
2.42900	262
2.43267	265
2.43633	266
2.44000	271
2.44367	331
2.44733	479
2.45100	636
2.45467	766
2.45833	844
2.46200	856
2.46567	829
2.46933	795
2.47300	767
2.47667	751
2.48033	739
2.48400	720
2.48767	685
2.49133	641
2.49500	596
2.49867	559
2.50233	533
2.50600	515
2.50967	504
2.51333	502
2.51700	511
2.52067	528
2.52433	548
2.52800	568
2.53167	583
2.53533	585
2.53900	575
2.54267	555
2.54633	531
2.55000	505
2.55367	479
2.55733	454
2.56100	432
2.56467	417
2.56833	407
2.57200	399
2.57567	392
2.57933	387
2.58300	385
2.58667	387
2.59033	390
2.59400	390
2.59767	389
2.60133	389
2.60500	385
2.60867	377
2.61233	368
2.61600	360
2.61967	353
2.62333	346
2.62700	340
2.63067	338
2.63433	338
2.63800	340
2.64167	342
2.64533	343
2.64900	346
2.65267	345
2.65633	344
2.66000	343
2.66367	339
2.66733	334
2.67100	328
2.67467	318
2.67833	308
2.68200	296
2.68567	285
2.68933	276
2.69300	270
2.69667	264
2.70033	261
2.70400	257
2.70767	253
2.71133	249
2.71500	245
2.71867	243
2.72233	242
2.72600	245
2.72967	247
2.73333	250
2.73700	252
2.74067	252
2.74433	253
2.74800	254
2.75167	255
2.75533	256
2.75900	256
2.76267	257
2.76633	257
2.77000	256
2.77367	257
2.77733	259
2.78100	261
2.78467	263
2.78833	263
2.79200	264
2.79567	264
2.79933	265
2.80300	266
2.80667	268
2.81033	272
2.81400	276
2.81767	280
2.82133	289
2.82500	311
2.82867	360
2.83233	455
2.83600	617
2.83967	874
2.84333	1238
2.84700	1710
2.85067	2268
2.85433	2881
2.85800	3506
2.86167	4092
2.86533	4592
2.86900	4967
2.87267	5196
2.87633	5272
2.88000	5209
2.88367	5033
2.88733	4770
2.89100	4448
2.89467	4093
2.89833	3729
2.90200	3371
2.90567	3031
2.90933	2716
2.91300	2423
2.91667	2158
2.92033	1921
2.92400	1710
2.92767	1525
2.93133	1364
2.93500	1222
2.93867	1096
2.94233	986
2.94600	891
2.94967	809
2.95333	738
2.95700	678
2.96067	623
2.96433	575
2.96800	534
2.97167	498
2.97533	466
2.97900	437
2.98267	413
2.98633	392
2.99000	373
2.99367	357
2.99733	344
3.00100	333
3.00467	322
3.00833	309
3.01200	298
3.01567	290
3.01933	283
3.02300	276
3.02667	270
3.03033	265
3.03400	258
3.03767	253
3.04133	249
3.04500	244
3.04867	238
3.05233	234
3.05600	232
3.05967	233
3.06333	233
3.06700	229
3.07067	228
3.07433	227
3.07800	224
3.08167	221
3.08533	219
3.08900	217
3.09267	216
3.09633	217
3.10000	218
3.10367	219
3.10733	219
3.11100	218
3.11467	219
3.11833	219
3.12200	220
3.12567	220
3.12933	219
3.13300	218
3.13667	218
3.14033	216
3.14400	214
3.14767	214
3.15133	218
3.15500	222
3.15867	221
3.16233	220
3.16600	218
3.16967	217
3.17333	217
3.17700	218
3.18067	221
3.18433	223
3.18800	224
3.19167	223
3.19533	222
3.19900	222
3.20267	225
3.20633	227
3.21000	230
3.21367	232
3.21733	232
3.22100	232
3.22467	233
3.22833	232
3.23200	233
3.23567	235
3.23933	237
3.24300	237
3.24667	240
3.25033	241
3.25400	243
3.25767	244
3.26133	246
3.26500	245
3.26867	244
3.27233	244
3.27600	247
3.27967	248
3.28333	247
3.28700	247
3.29067	248
3.29433	248
3.29800	247
3.30167	246
3.30533	249
3.30900	249
3.31267	251
3.31633	252
3.32000	251
3.32367	251
3.32733	252
3.33100	253
3.33467	255
3.33833	257
3.34200	258
3.34567	260
3.34933	264
3.35300	268
3.35667	270
3.36033	270
3.36400	270
3.36767	269
3.37133	268
3.37500	268
3.37867	266
3.38233	266
3.38600	269
3.38967	272
3.39333	272
3.39700	273
3.40067	275
3.40433	278
3.40800	281
3.41167	282
3.41533	284
3.41900	285
3.42267	285
3.42633	284
3.43000	283
3.43367	283
3.43733	283
3.44100	285
3.44467	288
3.44833	289
3.45200	290
3.45567	290
3.45933	292
3.46300	292
3.46667	293
3.47033	295
3.47400	297
3.47767	299
3.48133	301
3.48500	301
3.48867	301
3.49233	301
3.49600	303
3.49967	305
3.50333	305
3.50700	304
3.51067	306
3.51433	307
3.51800	307
3.52167	306
3.52533	305
3.52900	306
3.53267	308
3.53633	310
3.54000	311
3.54367	313
3.54733	313
3.55100	313
3.55467	315
3.55833	315
3.56200	315
3.56567	314
3.56933	313
3.57300	314
3.57667	313
3.58033	313
3.58400	311
3.58767	307
3.59133	305
3.59500	305
3.59867	307
3.60233	308
3.60600	309
3.60967	307
3.61333	305
3.61700	302
3.62067	296
3.62433	287
3.62800	272
3.63167	254
3.63533	242
3.63900	237
3.64267	240
3.64633	248
3.65000	261
3.65367	276
3.65733	293
3.66100	310
3.66467	331
3.66833	351
3.67200	371
3.67567	392
3.67933	411
3.68300	431
3.68667	448
3.69033	464
3.69400	478
3.69767	489
3.70133	498
3.70500	510
3.70867	520
3.71233	531
3.71600	541
3.71967	548
3.72333	553
3.72700	557
3.73067	562
3.73433	565
3.73800	566
3.74167	566
3.74533	568
3.74900	571
3.75267	574
3.75633	578
3.76000	580
3.76367	581
3.76733	580
3.77100	578
3.77467	579
3.77833	580
3.78200	582
3.78567	584
3.78933	586
3.79300	588
3.79667	588
3.80033	586
3.80400	586
3.80767	586
3.81133	587
3.81500	587
3.81867	586
3.82233	586
3.82600	588
3.82967	590
3.83333	591
3.83700	591
3.84067	592
3.84433	593
3.84800	593
3.85167	593
3.85533	595
3.85900	596
3.86267	596
3.86633	598
3.87000	598
3.87367	597
3.87733	596
3.88100	596
3.88467	597
3.88833	597
3.89200	596
3.89567	593
3.89933	593
3.90300	594
3.90667	598
3.91033	601
3.91400	601
3.91767	601
3.92133	601
3.92500	601
3.92867	602
3.93233	603
3.93600	605
3.93967	607
3.94333	609
3.94700	609
3.95067	607
3.95433	605
3.95800	607
3.96167	608
3.96533	608
3.96900	608
3.97267	609
3.97633	608
3.98000	607
3.98367	607
3.98733	606
3.99100	603
3.99467	600
3.99833	595

[Status Trace (Column Oven Temperature)]
Interval(msec)	1000
# of Points	239
Start Time(min)	0.014
End Time(min)	3.981
Intensity Units	
Intensity Multiplier	1
R.Time (min)	Intensity
0.01395	35.05
0.03062	35.05
0.04728	35.06
0.06395	35.06
0.08062	35.04
0.09728	35.05
0.11395	35.04
0.13062	35.05
0.14728	35.03
0.16395	35.01
0.18062	35.01
0.19728	35.00
0.21395	34.99
0.23062	34.98
0.24728	34.97
0.26395	34.98
0.28062	34.98
0.29728	34.98
0.31395	34.98
0.33062	34.99
0.34728	34.99
0.36395	34.99
0.38062	34.99
0.39728	35.00
0.41395	35.01
0.43062	35.02
0.44728	35.02
0.46395	35.03
0.48062	35.03
0.49728	35.02
0.51395	35.01
0.53062	35.00
0.54728	35.01
0.56395	35.01
0.58062	35.01
0.59728	35.01
0.61395	34.99
0.63062	34.98
0.64728	34.97
0.66395	34.96
0.68062	34.96
0.69728	34.97
0.71395	34.99
0.73062	35.00
0.74728	34.99
0.76395	34.98
0.78062	34.98
0.79728	34.96
0.81395	34.97
0.83062	34.95
0.84728	34.95
0.86395	34.94
0.88062	34.95
0.89728	34.95
0.91395	34.96
0.93062	34.97
0.94728	34.98
0.96395	34.99
0.98062	34.99
0.99728	35.01
1.01395	35.01
1.03062	35.00
1.04728	35.01
1.06395	35.02
1.08062	35.03
1.09728	35.02
1.11395	35.02
1.13062	35.02
1.14728	35.00
1.16395	34.99
1.18062	34.99
1.19728	35.00
1.21395	35.00
1.23062	34.99
1.24728	34.99
1.26395	34.98
1.28062	34.99
1.29728	34.99
1.31395	35.01
1.33062	35.02
1.34728	35.03
1.36395	35.01
1.38062	35.01
1.39728	35.01
1.41395	35.01
1.43062	35.00
1.44728	35.01
1.46395	35.01
1.48062	35.01
1.49728	35.01
1.51395	35.00
1.53062	35.00
1.54728	35.01
1.56395	35.00
1.58062	34.99
1.59728	35.01
1.61395	35.08
1.63062	35.22
1.64728	35.43
1.66395	35.75
1.68062	36.12
1.69728	36.47
1.71395	36.81
1.73062	37.14
1.74728	37.48
1.76395	37.79
1.78062	38.13
1.79728	38.47
1.81395	38.80
1.83062	39.14
1.84728	39.46
1.86395	39.78
1.88062	40.12
1.89728	40.45
1.91395	40.76
1.93062	41.09
1.94728	41.41
1.96395	41.74
1.98062	42.08
1.99728	42.40
2.01395	42.74
2.03062	43.07
2.04728	43.40
2.06395	43.72
2.08062	44.05
2.09728	44.35
2.11395	44.66
2.13062	45.01
2.14728	45.31
2.16395	45.64
2.18062	45.99
2.19728	46.29
2.21395	46.62
2.23062	46.97
2.24728	47.31
2.26395	47.64
2.28062	47.95
2.29728	48.29
2.31395	48.64
2.33062	48.95
2.34728	49.24
2.36395	49.52
2.38062	49.65
2.39728	49.69
2.41395	49.68
2.43062	49.70
2.44728	49.69
2.46395	49.71
2.48062	49.71
2.49728	49.74
2.51395	49.75
2.53062	49.75
2.54728	49.78
2.56395	49.79
2.58062	49.80
2.59728	49.82
2.61395	49.83
2.63062	49.83
2.64728	49.83
2.66395	49.84
2.68062	49.85
2.69728	49.85
2.71395	49.85
2.73062	49.87
2.74728	49.89
2.76395	49.88
2.78062	49.87
2.79728	49.86
2.81395	49.85
2.83062	49.86
2.84728	49.89
2.86395	49.92
2.88062	49.93
2.89728	49.94
2.91395	49.95
2.93062	49.96
2.94728	49.96
2.96395	49.97
2.98062	49.97
2.99728	49.98
3.01395	49.99
3.03062	49.99
3.04728	50.00
3.06395	49.99
3.08062	50.00
3.09728	50.01
3.11395	50.01
3.13062	50.02
3.14728	50.01
3.16395	50.02
3.18062	50.02
3.19728	50.02
3.21395	50.03
3.23062	50.05
3.24728	50.06
3.26395	50.09
3.28062	50.09
3.29728	50.09
3.31395	50.11
3.33062	50.11
3.34728	50.11
3.36395	50.10
3.38062	50.08
3.39728	50.07
3.41395	50.06
3.43062	50.05
3.44728	50.03
3.46395	50.02
3.48062	50.02
3.49728	50.01
3.51395	50.02
3.53062	50.02
3.54728	50.02
3.56395	50.02
3.58062	50.01
3.59728	50.01
3.61395	50.01
3.63062	50.02
3.64728	50.02
3.66395	50.03
3.68062	50.03
3.69728	50.04
3.71395	50.04
3.73062	50.04
3.74728	50.05
3.76395	50.05
3.78062	50.04
3.79728	50.03
3.81395	50.02
3.83062	50.01
3.84728	50.02
3.86395	50.02
3.88062	50.02
3.89728	50.02
3.91395	50.04
3.93062	50.05
3.94728	50.05
3.96395	50.05
3.98062	50.06

[Status Trace (Injection Unit Temperature)]
Interval(msec)	1000
# of Points	239
Start Time(min)	0.014
End Time(min)	3.981
Intensity Units	
Intensity Multiplier	1
R.Time (min)	Intensity
0.01395	99.98
0.03062	99.98
0.04728	99.98
0.06395	99.98
0.08062	99.98
0.09728	99.98
0.11395	99.99
0.13062	99.98
0.14728	99.98
0.16395	99.98
0.18062	99.99
0.19728	99.99
0.21395	99.98
0.23062	99.98
0.24728	99.98
0.26395	99.98
0.28062	99.98
0.29728	99.99
0.31395	99.99
0.33062	99.98
0.34728	99.98
0.36395	99.99
0.38062	99.98
0.39728	99.98
0.41395	99.99
0.43062	99.99
0.44728	99.98
0.46395	99.98
0.48062	99.99
0.49728	99.99
0.51395	99.99
0.53062	99.99
0.54728	99.99
0.56395	99.98
0.58062	99.99
0.59728	99.98
0.61395	99.99
0.63062	99.99
0.64728	99.99
0.66395	99.98
0.68062	99.99
0.69728	99.99
0.71395	99.98
0.73062	99.99
0.74728	99.98
0.76395	99.98
0.78062	99.98
0.79728	99.98
0.81395	99.98
0.83062	99.98
0.84728	99.98
0.86395	99.98
0.88062	99.98
0.89728	99.98
0.91395	99.98
0.93062	99.98
0.94728	99.98
0.96395	99.98
0.98062	99.98
0.99728	99.98
1.01395	99.98
1.03062	99.97
1.04728	99.98
1.06395	99.98
1.08062	99.98
1.09728	99.98
1.11395	99.98
1.13062	99.98
1.14728	99.98
1.16395	99.98
1.18062	99.98
1.19728	99.98
1.21395	99.98
1.23062	99.98
1.24728	99.97
1.26395	99.98
1.28062	99.98
1.29728	99.98
1.31395	99.98
1.33062	99.98
1.34728	99.98
1.36395	99.98
1.38062	99.98
1.39728	99.98
1.41395	99.98
1.43062	99.99
1.44728	99.98
1.46395	99.99
1.48062	99.99
1.49728	99.99
1.51395	99.99
1.53062	99.99
1.54728	99.98
1.56395	99.99
1.58062	99.99
1.59728	99.99
1.61395	99.98
1.63062	99.99
1.64728	99.99
1.66395	99.99
1.68062	99.99
1.69728	99.99
1.71395	99.98
1.73062	99.99
1.74728	99.99
1.76395	99.99
1.78062	99.99
1.79728	99.99
1.81395	99.99
1.83062	99.98
1.84728	99.98
1.86395	99.99
1.88062	99.98
1.89728	99.98
1.91395	99.98
1.93062	99.98
1.94728	99.98
1.96395	99.98
1.98062	99.98
1.99728	99.98
2.01395	99.98
2.03062	99.98
2.04728	99.98
2.06395	99.98
2.08062	99.98
2.09728	99.98
2.11395	99.98
2.13062	99.97
2.14728	99.97
2.16395	99.98
2.18062	99.97
2.19728	99.98
2.21395	99.97
2.23062	99.97
2.24728	99.97
2.26395	99.97
2.28062	99.97
2.29728	99.98
2.31395	99.97
2.33062	99.97
2.34728	99.97
2.36395	99.97
2.38062	99.96
2.39728	99.97
2.41395	99.97
2.43062	99.97
2.44728	99.97
2.46395	99.97
2.48062	99.97
2.49728	99.97
2.51395	99.96
2.53062	99.97
2.54728	99.97
2.56395	99.97
2.58062	99.97
2.59728	99.97
2.61395	99.97
2.63062	99.98
2.64728	99.98
2.66395	99.97
2.68062	99.98
2.69728	99.98
2.71395	99.98
2.73062	99.99
2.74728	99.99
2.76395	99.99
2.78062	99.99
2.79728	99.99
2.81395	99.99
2.83062	100.00
2.84728	99.99
2.86395	99.99
2.88062	100.00
2.89728	100.00
2.91395	100.00
2.93062	100.00
2.94728	100.00
2.96395	100.01
2.98062	100.01
2.99728	100.01
3.01395	100.01
3.03062	100.00
3.04728	100.01
3.06395	100.01
3.08062	100.01
3.09728	100.01
3.11395	100.01
3.13062	100.02
3.14728	100.02
3.16395	100.02
3.18062	100.02
3.19728	100.02
3.21395	100.02
3.23062	100.02
3.24728	100.02
3.26395	100.03
3.28062	100.03
3.29728	100.02
3.31395	100.03
3.33062	100.03
3.34728	100.03
3.36395	100.03
3.38062	100.03
3.39728	100.03
3.41395	100.03
3.43062	100.03
3.44728	100.03
3.46395	100.03
3.48062	100.03
3.49728	100.03
3.51395	100.03
3.53062	100.03
3.54728	100.03
3.56395	100.03
3.58062	100.03
3.59728	100.03
3.61395	100.03
3.63062	100.03
3.64728	100.04
3.66395	100.04
3.68062	100.04
3.69728	100.04
3.71395	100.04
3.73062	100.04
3.74728	100.04
3.76395	100.04
3.78062	100.04
3.79728	100.04
3.81395	100.04
3.83062	100.04
3.84728	100.05
3.86395	100.05
3.88062	100.04
3.89728	100.04
3.91395	100.04
3.93062	100.04
3.94728	100.04
3.96395	100.04
3.98062	100.04

[Status Trace (Carrier Gas Pressure)]
Interval(msec)	1000
# of Points	239
Start Time(min)	0.014
End Time(min)	3.981
Intensity Units	
Intensity Multiplier	1
R.Time (min)	Intensity
0.01395	57.69
0.03062	55.45
0.04728	57.98
0.06395	59.81
0.08062	58.71
0.09728	57.98
0.11395	57.99
0.13062	58.01
0.14728	58.01
0.16395	58.00
0.18062	58.00
0.19728	58.00
0.21395	58.00
0.23062	58.00
0.24728	58.00
0.26395	58.00
0.28062	58.00
0.29728	58.00
0.31395	58.00
0.33062	58.00
0.34728	58.00
0.36395	58.00
0.38062	58.00
0.39728	58.00
0.41395	58.00
0.43062	58.00
0.44728	58.00
0.46395	58.00
0.48062	58.00
0.49728	58.00
0.51395	58.00
0.53062	58.00
0.54728	58.00
0.56395	58.00
0.58062	58.00
0.59728	58.00
0.61395	58.00
0.63062	58.00
0.64728	58.00
0.66395	58.00
0.68062	58.00
0.69728	58.00
0.71395	58.00
0.73062	58.00
0.74728	58.00
0.76395	58.00
0.78062	58.00
0.79728	58.00
0.81395	58.00
0.83062	58.00
0.84728	58.00
0.86395	58.00
0.88062	58.00
0.89728	58.00
0.91395	58.00
0.93062	58.00
0.94728	58.00
0.96395	58.00
0.98062	58.00
0.99728	58.00
1.01395	58.00
1.03062	58.00
1.04728	58.00
1.06395	58.00
1.08062	58.00
1.09728	58.00
1.11395	58.00
1.13062	58.00
1.14728	58.00
1.16395	58.00
1.18062	58.00
1.19728	58.00
1.21395	58.00
1.23062	58.00
1.24728	58.00
1.26395	58.00
1.28062	58.00
1.29728	58.00
1.31395	58.00
1.33062	58.00
1.34728	58.00
1.36395	58.00
1.38062	58.00
1.39728	58.00
1.41395	58.00
1.43062	58.00
1.44728	58.00
1.46395	58.00
1.48062	58.00
1.49728	58.00
1.51395	58.00
1.53062	58.00
1.54728	58.00
1.56395	58.00
1.58062	58.00
1.59728	58.00
1.61395	58.00
1.63062	58.00
1.64728	58.01
1.66395	58.01
1.68062	58.01
1.69728	58.00
1.71395	58.00
1.73062	58.00
1.74728	58.00
1.76395	58.00
1.78062	58.00
1.79728	58.00
1.81395	58.00
1.83062	58.00
1.84728	58.00
1.86395	58.00
1.88062	58.00
1.89728	58.00
1.91395	58.00
1.93062	58.00
1.94728	58.00
1.96395	58.00
1.98062	58.00
1.99728	58.00
2.01395	58.00
2.03062	58.00
2.04728	58.00
2.06395	58.00
2.08062	58.00
2.09728	58.00
2.11395	58.00
2.13062	58.00
2.14728	58.00
2.16395	58.00
2.18062	58.00
2.19728	58.00
2.21395	58.00
2.23062	58.00
2.24728	58.00
2.26395	58.00
2.28062	58.00
2.29728	58.00
2.31395	58.00
2.33062	58.00
2.34728	58.00
2.36395	58.00
2.38062	58.00
2.39728	57.99
2.41395	57.99
2.43062	58.00
2.44728	58.00
2.46395	58.00
2.48062	58.00
2.49728	58.00
2.51395	57.99
2.53062	57.99
2.54728	58.00
2.56395	58.00
2.58062	58.00
2.59728	58.00
2.61395	58.00
2.63062	58.00
2.64728	58.00
2.66395	58.00
2.68062	58.00
2.69728	58.00
2.71395	58.00
2.73062	58.00
2.74728	58.00
2.76395	58.00
2.78062	58.00
2.79728	58.00
2.81395	58.00
2.83062	58.00
2.84728	58.00
2.86395	58.00
2.88062	58.00
2.89728	58.00
2.91395	58.00
2.93062	58.00
2.94728	58.00
2.96395	58.00
2.98062	58.00
2.99728	58.00
3.01395	58.00
3.03062	58.00
3.04728	58.00
3.06395	58.00
3.08062	58.00
3.09728	58.00
3.11395	58.00
3.13062	58.00
3.14728	58.00
3.16395	58.00
3.18062	58.00
3.19728	58.00
3.21395	58.00
3.23062	58.00
3.24728	58.00
3.26395	58.00
3.28062	58.00
3.29728	58.00
3.31395	58.00
3.33062	58.00
3.34728	58.00
3.36395	58.00
3.38062	58.00
3.39728	58.00
3.41395	58.00
3.43062	58.00
3.44728	58.00
3.46395	58.00
3.48062	58.00
3.49728	58.00
3.51395	58.00
3.53062	58.00
3.54728	58.00
3.56395	58.00
3.58062	58.00
3.59728	58.00
3.61395	58.00
3.63062	58.00
3.64728	58.00
3.66395	58.00
3.68062	58.00
3.69728	58.00
3.71395	58.00
3.73062	58.00
3.74728	58.00
3.76395	58.00
3.78062	58.00
3.79728	58.00
3.81395	58.00
3.83062	58.00
3.84728	58.00
3.86395	58.00
3.88062	58.00
3.89728	58.00
3.91395	58.00
3.93062	58.00
3.94728	58.00
3.96395	58.00
3.98062	58.00

[Status Trace (Carrier Gas Flow)]
Interval(msec)	1000
# of Points	239
Start Time(min)	0.014
End Time(min)	3.981
Intensity Units	
Intensity Multiplier	1
R.Time (min)	Intensity
0.01395	34.34
0.03062	34.54
0.04728	34.55
0.06395	34.52
0.08062	34.51
0.09728	34.52
0.11395	34.52
0.13062	34.52
0.14728	34.52
0.16395	34.52
0.18062	34.51
0.19728	34.52
0.21395	34.52
0.23062	34.52
0.24728	34.52
0.26395	34.52
0.28062	34.52
0.29728	34.52
0.31395	34.52
0.33062	34.51
0.34728	34.52
0.36395	34.52
0.38062	34.52
0.39728	34.52
0.41395	34.52
0.43062	34.52
0.44728	34.52
0.46395	34.52
0.48062	34.52
0.49728	34.52
0.51395	34.52
0.53062	34.52
0.54728	34.52
0.56395	34.52
0.58062	34.52
0.59728	34.52
0.61395	34.52
0.63062	34.52
0.64728	34.52
0.66395	34.51
0.68062	34.52
0.69728	34.52
0.71395	34.52
0.73062	34.52
0.74728	34.52
0.76395	34.52
0.78062	34.52
0.79728	34.52
0.81395	34.51
0.83062	34.52
0.84728	34.52
0.86395	34.52
0.88062	34.52
0.89728	34.52
0.91395	34.53
0.93062	34.52
0.94728	34.52
0.96395	34.52
0.98062	34.52
0.99728	34.52
1.01395	34.52
1.03062	34.52
1.04728	34.51
1.06395	34.51
1.08062	34.51
1.09728	34.52
1.11395	34.52
1.13062	34.52
1.14728	34.52
1.16395	34.52
1.18062	34.52
1.19728	34.52
1.21395	34.51
1.23062	34.52
1.24728	34.52
1.26395	34.52
1.28062	34.52
1.29728	34.52
1.31395	34.52
1.33062	34.51
1.34728	34.52
1.36395	34.52
1.38062	34.52
1.39728	34.52
1.41395	34.51
1.43062	34.52
1.44728	34.52
1.46395	34.52
1.48062	34.52
1.49728	34.52
1.51395	34.52
1.53062	34.52
1.54728	34.52
1.56395	34.52
1.58062	34.52
1.59728	34.52
1.61395	34.52
1.63062	34.52
1.64728	34.52
1.66395	34.52
1.68062	34.52
1.69728	34.51
1.71395	34.52
1.73062	34.52
1.74728	34.51
1.76395	34.52
1.78062	34.52
1.79728	34.52
1.81395	34.52
1.83062	34.52
1.84728	34.52
1.86395	34.52
1.88062	34.52
1.89728	34.52
1.91395	34.52
1.93062	34.52
1.94728	34.52
1.96395	34.52
1.98062	34.51
1.99728	34.52
2.01395	34.52
2.03062	34.52
2.04728	34.52
2.06395	34.52
2.08062	34.52
2.09728	34.51
2.11395	34.52
2.13062	34.52
2.14728	34.52
2.16395	34.52
2.18062	34.52
2.19728	34.52
2.21395	34.52
2.23062	34.52
2.24728	34.52
2.26395	34.52
2.28062	34.52
2.29728	34.52
2.31395	34.52
2.33062	34.53
2.34728	34.52
2.36395	34.52
2.38062	34.52
2.39728	34.52
2.41395	34.52
2.43062	34.52
2.44728	34.52
2.46395	34.52
2.48062	34.52
2.49728	34.52
2.51395	34.52
2.53062	34.52
2.54728	34.52
2.56395	34.52
2.58062	34.52
2.59728	34.52
2.61395	34.52
2.63062	34.52
2.64728	34.52
2.66395	34.52
2.68062	34.52
2.69728	34.52
2.71395	34.52
2.73062	34.52
2.74728	34.52
2.76395	34.52
2.78062	34.52
2.79728	34.52
2.81395	34.52
2.83062	34.52
2.84728	34.52
2.86395	34.52
2.88062	34.52
2.89728	34.52
2.91395	34.52
2.93062	34.52
2.94728	34.52
2.96395	34.52
2.98062	34.52
2.99728	34.52
3.01395	34.53
3.03062	34.52
3.04728	34.52
3.06395	34.52
3.08062	34.52
3.09728	34.51
3.11395	34.52
3.13062	34.51
3.14728	34.52
3.16395	34.52
3.18062	34.52
3.19728	34.52
3.21395	34.52
3.23062	34.53
3.24728	34.52
3.26395	34.52
3.28062	34.52
3.29728	34.52
3.31395	34.52
3.33062	34.52
3.34728	34.52
3.36395	34.53
3.38062	34.51
3.39728	34.52
3.41395	34.52
3.43062	34.52
3.44728	34.52
3.46395	34.52
3.48062	34.52
3.49728	34.52
3.51395	34.52
3.53062	34.51
3.54728	34.51
3.56395	34.52
3.58062	34.52
3.59728	34.52
3.61395	34.52
3.63062	34.52
3.64728	34.52
3.66395	34.52
3.68062	34.52
3.69728	34.52
3.71395	34.52
3.73062	34.52
3.74728	34.52
3.76395	34.52
3.78062	34.52
3.79728	34.52
3.81395	34.52
3.83062	34.52
3.84728	34.52
3.86395	34.52
3.88062	34.52
3.89728	34.52
3.91395	34.52
3.93062	34.52
3.94728	34.52
3.96395	34.52
3.98062	34.52

[Status Trace (Column Flow)]
Interval(msec)	1000
# of Points	239
Start Time(min)	0.014
End Time(min)	3.981
Intensity Units	
Intensity Multiplier	1
R.Time (min)	Intensity
0.01395	5.48
0.03062	5.22
0.04728	5.52
0.06395	5.73
0.08062	5.60
0.09728	5.52
0.11395	5.52
0.13062	5.52
0.14728	5.52
0.16395	5.52
0.18062	5.52
0.19728	5.52
0.21395	5.52
0.23062	5.52
0.24728	5.52
0.26395	5.52
0.28062	5.52
0.29728	5.52
0.31395	5.52
0.33062	5.52
0.34728	5.52
0.36395	5.52
0.38062	5.52
0.39728	5.52
0.41395	5.52
0.43062	5.52
0.44728	5.52
0.46395	5.52
0.48062	5.52
0.49728	5.52
0.51395	5.52
0.53062	5.52
0.54728	5.52
0.56395	5.52
0.58062	5.52
0.59728	5.52
0.61395	5.52
0.63062	5.52
0.64728	5.52
0.66395	5.52
0.68062	5.52
0.69728	5.52
0.71395	5.52
0.73062	5.52
0.74728	5.52
0.76395	5.52
0.78062	5.52
0.79728	5.52
0.81395	5.52
0.83062	5.52
0.84728	5.52
0.86395	5.52
0.88062	5.52
0.89728	5.52
0.91395	5.52
0.93062	5.52
0.94728	5.52
0.96395	5.52
0.98062	5.52
0.99728	5.52
1.01395	5.52
1.03062	5.52
1.04728	5.52
1.06395	5.52
1.08062	5.52
1.09728	5.52
1.11395	5.52
1.13062	5.52
1.14728	5.52
1.16395	5.52
1.18062	5.52
1.19728	5.52
1.21395	5.52
1.23062	5.52
1.24728	5.52
1.26395	5.52
1.28062	5.52
1.29728	5.52
1.31395	5.52
1.33062	5.52
1.34728	5.52
1.36395	5.52
1.38062	5.52
1.39728	5.52
1.41395	5.52
1.43062	5.52
1.44728	5.52
1.46395	5.52
1.48062	5.52
1.49728	5.52
1.51395	5.52
1.53062	5.52
1.54728	5.52
1.56395	5.52
1.58062	5.52
1.59728	5.52
1.61395	5.52
1.63062	5.51
1.64728	5.51
1.66395	5.50
1.68062	5.49
1.69728	5.48
1.71395	5.47
1.73062	5.45
1.74728	5.44
1.76395	5.44
1.78062	5.42
1.79728	5.41
1.81395	5.40
1.83062	5.39
1.84728	5.38
1.86395	5.37
1.88062	5.36
1.89728	5.35
1.91395	5.34
1.93062	5.33
1.94728	5.32
1.96395	5.32
1.98062	5.30
1.99728	5.29
2.01395	5.29
2.03062	5.28
2.04728	5.27
2.06395	5.26
2.08062	5.25
2.09728	5.24
2.11395	5.23
2.13062	5.22
2.14728	5.21
2.16395	5.20
2.18062	5.19
2.19728	5.18
2.21395	5.17
2.23062	5.16
2.24728	5.15
2.26395	5.14
2.28062	5.13
2.29728	5.13
2.31395	5.12
2.33062	5.11
2.34728	5.10
2.36395	5.09
2.38062	5.09
2.39728	5.09
2.41395	5.09
2.43062	5.09
2.44728	5.09
2.46395	5.09
2.48062	5.09
2.49728	5.09
2.51395	5.08
2.53062	5.08
2.54728	5.08
2.56395	5.08
2.58062	5.08
2.59728	5.08
2.61395	5.08
2.63062	5.08
2.64728	5.08
2.66395	5.08
2.68062	5.08
2.69728	5.08
2.71395	5.08
2.73062	5.08
2.74728	5.08
2.76395	5.08
2.78062	5.08
2.79728	5.08
2.81395	5.08
2.83062	5.08
2.84728	5.08
2.86395	5.08
2.88062	5.08
2.89728	5.08
2.91395	5.08
2.93062	5.08
2.94728	5.08
2.96395	5.08
2.98062	5.08
2.99728	5.08
3.01395	5.08
3.03062	5.08
3.04728	5.08
3.06395	5.08
3.08062	5.08
3.09728	5.08
3.11395	5.08
3.13062	5.08
3.14728	5.08
3.16395	5.08
3.18062	5.08
3.19728	5.08
3.21395	5.08
3.23062	5.08
3.24728	5.08
3.26395	5.08
3.28062	5.08
3.29728	5.08
3.31395	5.08
3.33062	5.07
3.34728	5.07
3.36395	5.07
3.38062	5.08
3.39728	5.08
3.41395	5.08
3.43062	5.08
3.44728	5.08
3.46395	5.08
3.48062	5.08
3.49728	5.08
3.51395	5.08
3.53062	5.08
3.54728	5.08
3.56395	5.08
3.58062	5.08
3.59728	5.08
3.61395	5.08
3.63062	5.08
3.64728	5.08
3.66395	5.08
3.68062	5.08
3.69728	5.08
3.71395	5.08
3.73062	5.08
3.74728	5.08
3.76395	5.08
3.78062	5.08
3.79728	5.08
3.81395	5.08
3.83062	5.08
3.84728	5.08
3.86395	5.08
3.88062	5.08
3.89728	5.08
3.91395	5.08
3.93062	5.08
3.94728	5.08
3.96395	5.08
3.98062	5.08

[Status Trace (Linear Velocity)]
Interval(msec)	1000
# of Points	239
Start Time(min)	0.014
End Time(min)	3.981
Intensity Units	
Intensity Multiplier	1
R.Time (min)	Intensity
0.01395	38.81
0.03062	37.34
0.04728	38.99
0.06395	40.20
0.08062	39.48
0.09728	39.00
0.11395	39.01
0.13062	39.02
0.14728	39.02
0.16395	39.02
0.18062	39.02
0.19728	39.02
0.21395	39.02
0.23062	39.02
0.24728	39.02
0.26395	39.02
0.28062	39.02
0.29728	39.02
0.31395	39.02
0.33062	39.02
0.34728	39.02
0.36395	39.02
0.38062	39.02
0.39728	39.02
0.41395	39.02
0.43062	39.02
0.44728	39.01
0.46395	39.01
0.48062	39.01
0.49728	39.01
0.51395	39.01
0.53062	39.02
0.54728	39.02
0.56395	39.02
0.58062	39.02
0.59728	39.02
0.61395	39.02
0.63062	39.02
0.64728	39.02
0.66395	39.02
0.68062	39.02
0.69728	39.02
0.71395	39.02
0.73062	39.02
0.74728	39.02
0.76395	39.02
0.78062	39.02
0.79728	39.02
0.81395	39.02
0.83062	39.02
0.84728	39.02
0.86395	39.02
0.88062	39.02
0.89728	39.02
0.91395	39.02
0.93062	39.02
0.94728	39.02
0.96395	39.02
0.98062	39.02
0.99728	39.02
1.01395	39.02
1.03062	39.02
1.04728	39.02
1.06395	39.01
1.08062	39.01
1.09728	39.01
1.11395	39.01
1.13062	39.01
1.14728	39.02
1.16395	39.02
1.18062	39.02
1.19728	39.02
1.21395	39.02
1.23062	39.02
1.24728	39.02
1.26395	39.02
1.28062	39.02
1.29728	39.02
1.31395	39.02
1.33062	39.01
1.34728	39.01
1.36395	39.01
1.38062	39.02
1.39728	39.02
1.41395	39.02
1.43062	39.02
1.44728	39.02
1.46395	39.02
1.48062	39.02
1.49728	39.02
1.51395	39.02
1.53062	39.02
1.54728	39.02
1.56395	39.02
1.58062	39.02
1.59728	39.02
1.61395	39.01
1.63062	39.00
1.64728	38.98
1.66395	38.95
1.68062	38.91
1.69728	38.88
1.71395	38.85
1.73062	38.81
1.74728	38.78
1.76395	38.75
1.78062	38.72
1.79728	38.69
1.81395	38.66
1.83062	38.62
1.84728	38.59
1.86395	38.56
1.88062	38.53
1.89728	38.50
1.91395	38.47
1.93062	38.44
1.94728	38.41
1.96395	38.38
1.98062	38.35
1.99728	38.32
2.01395	38.29
2.03062	38.26
2.04728	38.23
2.06395	38.20
2.08062	38.17
2.09728	38.14
2.11395	38.11
2.13062	38.08
2.14728	38.05
2.16395	38.03
2.18062	37.99
2.19728	37.96
2.21395	37.94
2.23062	37.90
2.24728	37.87
2.26395	37.84
2.28062	37.81
2.29728	37.79
2.31395	37.76
2.33062	37.72
2.34728	37.70
2.36395	37.68
2.38062	37.66
2.39728	37.66
2.41395	37.66
2.43062	37.66
2.44728	37.66
2.46395	37.66
2.48062	37.66
2.49728	37.66
2.51395	37.65
2.53062	37.65
2.54728	37.65
2.56395	37.65
2.58062	37.65
2.59728	37.65
2.61395	37.65
2.63062	37.65
2.64728	37.65
2.66395	37.65
2.68062	37.65
2.69728	37.65
2.71395	37.65
2.73062	37.64
2.74728	37.64
2.76395	37.64
2.78062	37.64
2.79728	37.64
2.81395	37.65
2.83062	37.65
2.84728	37.64
2.86395	37.64
2.88062	37.64
2.89728	37.64
2.91395	37.64
2.93062	37.64
2.94728	37.64
2.96395	37.64
2.98062	37.63
2.99728	37.63
3.01395	37.63
3.03062	37.63
3.04728	37.63
3.06395	37.63
3.08062	37.63
3.09728	37.63
3.11395	37.63
3.13062	37.63
3.14728	37.63
3.16395	37.63
3.18062	37.63
3.19728	37.63
3.21395	37.63
3.23062	37.63
3.24728	37.63
3.26395	37.63
3.28062	37.62
3.29728	37.62
3.31395	37.62
3.33062	37.62
3.34728	37.62
3.36395	37.62
3.38062	37.63
3.39728	37.63
3.41395	37.63
3.43062	37.63
3.44728	37.63
3.46395	37.63
3.48062	37.63
3.49728	37.63
3.51395	37.63
3.53062	37.63
3.54728	37.63
3.56395	37.63
3.58062	37.63
3.59728	37.63
3.61395	37.63
3.63062	37.63
3.64728	37.63
3.66395	37.63
3.68062	37.63
3.69728	37.63
3.71395	37.63
3.73062	37.63
3.74728	37.63
3.76395	37.63
3.78062	37.63
3.79728	37.63
3.81395	37.63
3.83062	37.63
3.84728	37.63
3.86395	37.63
3.88062	37.63
3.89728	37.63
3.91395	37.63
3.93062	37.63
3.94728	37.63
3.96395	37.63
3.98062	37.63

