[Header]
Application Name	LabSolutions
Version	5.110
Data File Name	C:\Users\User\Desktop\GC Analyses\Jack\Nachusa Grasslands Sampling\T2 Timepoint July 12th\T2_07122022_009.gcd
Output Date	3/14/2023
Output Time	3:42:30 PM

[File Information]
Type	Data File
Generated	3/10/2023 1:17:28 PM
Generated by	System Administrator
Modified	3/10/2023 1:24:05 PM
Modified by	System Administrator

[Sample Information]
Operator Name	System Administrator
Acquired	3/10/2023 1:20:04 PM
Sample Type	0:Unknown
Level	0
Sample Name	009
Sample ID	009
ISTD Amount1	1
ISTD Amount2	1
ISTD Amount3	1
ISTD Amount4	1
ISTD Amount5	1
ISTD Amount6	1
ISTD Amount7	1
ISTD Amount8	1
ISTD Amount9	1
ISTD Amount10	1
ISTD Amount11	1
ISTD Amount12	1
ISTD Amount13	1
ISTD Amount14	1
ISTD Amount15	1
ISTD Amount16	1
ISTD Amount17	1
ISTD Amount18	1
ISTD Amount19	1
ISTD Amount20	1
ISTD Amount21	1
ISTD Amount22	1
ISTD Amount23	1
ISTD Amount24	1
ISTD Amount25	1
ISTD Amount26	1
ISTD Amount27	1
ISTD Amount28	1
ISTD Amount29	1
ISTD Amount30	1
ISTD Amount31	1
ISTD Amount32	1
Sample Amount	1
Dilution Factor	1
Vial#	8
Injection Volume	1
Injection Count	1
Bar Code	

[Original Files]
Data File	C:\Users\User\Desktop\GC Analyses\Jack\Nachusa Grasslands Sampling\T1 Timepoint July 12th\T2_07122022_009.gcd
Method File	C:\LabSolutions\Data\GHG_4min_2022\ghg3_togas_w_acet_4 min_new_int.gcm
Batch File	C:\LabSolutions\Data\AutoSamplerTesting\T2_07122022.gcb
Report Format File	c:\LabSolutions\System\DEFAULT.lsr

[File Description]


[Configuration]
Instrument Name	C0B7VH3-Instrument1
Instrument #	1
Line #	1
# of Detectors	3
Detector ID	DET#1	DET#2	DET#3
Detector Name	FID	PTCD	ECD
# of Channels	1	1	1

[Peak Table(Ch1)]
# of Peaks	3
Peak#	R.Time	I.Time	F.Time	Area	Height	A/H	Conc.	Mark	ID#	Name	k'	Plate #	Plate Ht.	Tailing	Resolution	Sep.Factor	Area Ratio	Height Ratio	Conc. %	Norm Conc.
1	1.476	1.439	1.538	26925	12799	2.104	190.093	   	1	CO	0.000	9415	15.932	1.294	0.000	0.000	0	0	23.604	23.604
2	1.567	1.538	1.637	4718	2299	2.052	91.226	 V 	2	CH4	0.062	10557	14.208	0.000	1.505	0.000	0	0	11.328	11.328
3	1.996	1.949	2.532	2087923	997788	2.093	524.012	   	3	CO2	0.353	17269	8.686	1.268	7.045	5.680	0	0	65.068	65.068

[Peak Table(Ch2)]
# of Peaks	0

[Peak Table(Ch3)]
# of Peaks	5
Peak#	R.Time	I.Time	F.Time	Area	Height	A/H	Conc.	Mark	ID#	Name	k'	Plate #	Plate Ht.	Tailing	Resolution	Sep.Factor	Area Ratio	Height Ratio	Conc. %	Norm Conc.
1	2.462	2.381	2.513	1579	517	3.052	0.000	   			0.000	9473	15.835	0.000	0.000	0.000	0	0	0.000	0.000
2	2.539	2.513	2.631	1208	291	4.155	0.000	 V 			0.031	3988	37.610	0.000	0.588	0.000	0	0	0.000	0.000
3	2.675	2.642	2.715	85	34	2.519	0.000	   			0.086	19992	7.503	1.088	1.147	2.762	0	0	0.000	0.000
4	2.876	2.796	3.100	18968	5041	3.763	0.484	   	1	N2O	0.168	13447	11.155	1.635	2.306	1.948	0	0	100.000	100.000
5	3.415	3.276	3.976	8771	365	24.055	0.000	   	2	SF6	0.387	623	240.906	2.514	1.667	2.301	0	0	0.000	0.000

[Compound Results(Ch1)]
# of IDs	6
ID#	Name	R.Time	Area	Height	Conc.	Curve	3rd	2nd	1st	Constant	Area Ratio	Height Ratio	Conc. %	Norm Conc.
1	CO	1.476	26925	12799	190.093	Linear	0.000000e+00	0.000000e+00	1.416423e+002	0.000000e+00	0	0	23.604	23.604
2	CH4	1.567	4718	2299	91.226	Linear	0.000000e+00	0.000000e+00	5.171738e+001	0.000000e+00	0	0	11.328	11.328
3	CO2	1.996	2087923	997788	524.012	Linear	0.000000e+00	0.000000e+00	3.984494e+003	0.000000e+00	0	0	65.068	65.068
4	Ethylene	0.000	0	0	0.000	Linear	0.000000e+00	0.000000e+00	0.000000e+00	0.000000e+00	0	0	0.000	0.000
5	Acetylene	0.000	0	0	0.000	Linear	0.000000e+00	0.000000e+00	0.000000e+00	0.000000e+00	0	0	0.000	0.000
6	Ethane	0.000	0	0	0.000	Linear	0.000000e+00	0.000000e+00	0.000000e+00	0.000000e+00	0	0	0.000	0.000

[Compound Results(Ch2)]
# of IDs	5
ID#	Name	R.Time	Area	Height	Conc.	Curve	3rd	2nd	1st	Constant	Area Ratio	Height Ratio	Conc. %	Norm Conc.
1	Hydrogen	0.000	0	0	0.000	Linear	0.000000e+00	0.000000e+00	0.000000e+00	0.000000e+00	0	0	0.000	0.000
2	Oxygen	0.000	0	0	0.000	Linear	0.000000e+00	0.000000e+00	0.000000e+00	0.000000e+00	0	0	0.000	0.000
3	Nitrogen	0.000	0	0	0.000	Linear	0.000000e+00	0.000000e+00	0.000000e+00	0.000000e+00	0	0	0.000	0.000
4	Methane	0.000	0	0	0.000	Linear	0.000000e+00	0.000000e+00	0.000000e+00	0.000000e+00	0	0	0.000	0.000
5	Carbon Monoxide	0.000	0	0	0.000	Linear	0.000000e+00	0.000000e+00	0.000000e+00	0.000000e+00	0	0	0.000	0.000

[Compound Results(Ch3)]
# of IDs	2
ID#	Name	R.Time	Area	Height	Conc.	Curve	3rd	2nd	1st	Constant	Area Ratio	Height Ratio	Conc. %	Norm Conc.
1	N2O	2.876	18968	5041	0.484	Linear	0.000000e+00	0.000000e+00	3.915173e+004	0.000000e+00	0	0	100.000	100.000
2	SF6	3.415	8771	365	0.000	Linear	0.000000e+00	0.000000e+00	0.000000e+00	0.000000e+00	0	0	0.000	0.000

[Group Results(Ch1)]
# of Groups	0

[Group Results(Ch2)]
# of Groups	0

[Group Results(Ch3)]
# of Groups	0

[Chromatogram (Ch1)]
Interval(msec)	220
# of Points	1091
Start Time(min)	0.002
End Time(min)	3.998
R.Time (min)	Intensity
0.00167	-14
0.00533	-12
0.00900	-16
0.01267	-19
0.01633	-17
0.02000	-10
0.02367	-3
0.02733	4
0.03100	9
0.03467	11
0.03833	14
0.04200	23
0.04567	31
0.04933	32
0.05300	20
0.05667	5
0.06033	-6
0.06400	-10
0.06767	-7
0.07133	-4
0.07500	0
0.07867	7
0.08233	10
0.08600	6
0.08967	2
0.09333	1
0.09700	3
0.10067	4
0.10433	6
0.10800	7
0.11167	10
0.11533	17
0.11900	25
0.12267	31
0.12633	36
0.13000	38
0.13367	43
0.13733	43
0.14100	36
0.14467	25
0.14833	14
0.15200	3
0.15567	-6
0.15933	-13
0.16300	-17
0.16667	-16
0.17033	-16
0.17400	-18
0.17767	-19
0.18133	-11
0.18500	2
0.18867	14
0.19233	16
0.19600	14
0.19967	9
0.20333	1
0.20700	-6
0.21067	-10
0.21433	-11
0.21800	-8
0.22167	-5
0.22533	-5
0.22900	-8
0.23267	-10
0.23633	-7
0.24000	-1
0.24367	9
0.24733	20
0.25100	32
0.25467	43
0.25833	49
0.26200	51
0.26567	46
0.26933	34
0.27300	22
0.27667	11
0.28033	6
0.28400	11
0.28767	17
0.29133	19
0.29500	20
0.29867	21
0.30233	23
0.30600	26
0.30967	31
0.31333	35
0.31700	34
0.32067	33
0.32433	34
0.32800	35
0.33167	39
0.33533	46
0.33900	49
0.34267	46
0.34633	40
0.35000	32
0.35367	23
0.35733	17
0.36100	13
0.36467	13
0.36833	16
0.37200	19
0.37567	21
0.37933	20
0.38300	20
0.38667	24
0.39033	25
0.39400	25
0.39767	25
0.40133	27
0.40500	28
0.40867	27
0.41233	27
0.41600	32
0.41967	37
0.42333	39
0.42700	37
0.43067	28
0.43433	18
0.43800	12
0.44167	12
0.44533	13
0.44900	13
0.45267	14
0.45633	10
0.46000	6
0.46367	4
0.46733	5
0.47100	3
0.47467	-2
0.47833	-5
0.48200	-10
0.48567	-14
0.48933	-17
0.49300	-11
0.49667	-1
0.50033	7
0.50400	9
0.50767	7
0.51133	6
0.51500	6
0.51867	7
0.52233	6
0.52600	4
0.52967	1
0.53333	0
0.53700	4
0.54067	8
0.54433	7
0.54800	3
0.55167	-1
0.55533	-5
0.55900	-6
0.56267	-6
0.56633	-6
0.57000	-10
0.57367	-11
0.57733	-6
0.58100	-1
0.58467	6
0.58833	15
0.59200	21
0.59567	22
0.59933	23
0.60300	31
0.60667	36
0.61033	31
0.61400	17
0.61767	5
0.62133	5
0.62500	9
0.62867	15
0.63233	15
0.63600	6
0.63967	-9
0.64333	-23
0.64700	-33
0.65067	-38
0.65433	-35
0.65800	-29
0.66167	-20
0.66533	-10
0.66900	-3
0.67267	-3
0.67633	-4
0.68000	-3
0.68367	-2
0.68733	-4
0.69100	-5
0.69467	-6
0.69833	-6
0.70200	-5
0.70567	1
0.70933	6
0.71300	9
0.71667	11
0.72033	14
0.72400	15
0.72767	13
0.73133	9
0.73500	3
0.73867	-6
0.74233	-15
0.74600	-19
0.74967	-22
0.75333	-22
0.75700	-19
0.76067	-17
0.76433	-16
0.76800	-17
0.77167	-16
0.77533	-10
0.77900	-6
0.78267	-0
0.78633	8
0.79000	18
0.79367	27
0.79733	31
0.80100	30
0.80467	23
0.80833	13
0.81200	5
0.81567	-4
0.81933	-19
0.82300	-31
0.82667	-40
0.83033	-44
0.83400	-40
0.83767	-33
0.84133	-23
0.84500	-8
0.84867	3
0.85233	7
0.85600	4
0.85967	-0
0.86333	-7
0.86700	-12
0.87067	-11
0.87433	-8
0.87800	-5
0.88167	-1
0.88533	1
0.88900	-1
0.89267	-8
0.89633	-13
0.90000	-18
0.90367	-21
0.90733	-21
0.91100	-20
0.91467	-14
0.91833	-10
0.92200	-9
0.92567	-5
0.92933	1
0.93300	3
0.93667	2
0.94033	-1
0.94400	-8
0.94767	-17
0.95133	-23
0.95500	-24
0.95867	-20
0.96233	-17
0.96600	-15
0.96967	-15
0.97333	-14
0.97700	-9
0.98067	-4
0.98433	-3
0.98800	-1
0.99167	-1
0.99533	-5
0.99900	-8
1.00267	-13
1.00633	-20
1.01000	-23
1.01367	-22
1.01733	-18
1.02100	-18
1.02467	-23
1.02833	-28
1.03200	-32
1.03567	-32
1.03933	-27
1.04300	-22
1.04667	-23
1.05033	-28
1.05400	-32
1.05767	-32
1.06133	-30
1.06500	-25
1.06867	-24
1.07233	-28
1.07600	-29
1.07967	-27
1.08333	-23
1.08700	-18
1.09067	-12
1.09433	-7
1.09800	-7
1.10167	-14
1.10533	-16
1.10900	-12
1.11267	-5
1.11633	-2
1.12000	-6
1.12367	-11
1.12733	-14
1.13100	-14
1.13467	-15
1.13833	-20
1.14200	-25
1.14567	-28
1.14933	-28
1.15300	-25
1.15667	-23
1.16033	-23
1.16400	-25
1.16767	-27
1.17133	-27
1.17500	-31
1.17867	-34
1.18233	-35
1.18600	-34
1.18967	-33
1.19333	-32
1.19700	-29
1.20067	-28
1.20433	-29
1.20800	-25
1.21167	-20
1.21533	-16
1.21900	-17
1.22267	-18
1.22633	-20
1.23000	-20
1.23367	-18
1.23733	-15
1.24100	-12
1.24467	-12
1.24833	-16
1.25200	-18
1.25567	-18
1.25933	-15
1.26300	-11
1.26667	-10
1.27033	-11
1.27400	-13
1.27767	-14
1.28133	-11
1.28500	-6
1.28867	-6
1.29233	-10
1.29600	-12
1.29967	-12
1.30333	-7
1.30700	-2
1.31067	3
1.31433	8
1.31800	8
1.32167	5
1.32533	4
1.32900	5
1.33267	9
1.33633	14
1.34000	18
1.34367	20
1.34733	20
1.35100	20
1.35467	19
1.35833	19
1.36200	13
1.36567	4
1.36933	-1
1.37300	-3
1.37667	-4
1.38033	-9
1.38400	-13
1.38767	-11
1.39133	-6
1.39500	-0
1.39867	4
1.40233	5
1.40600	6
1.40967	6
1.41333	6
1.41700	2
1.42067	-5
1.42433	-7
1.42800	-4
1.43167	-2
1.43533	-2
1.43900	18
1.44267	117
1.44633	372
1.45000	1005
1.45367	2390
1.45733	4550
1.46100	7039
1.46467	9348
1.46833	11175
1.47200	12370
1.47567	12820
1.47933	12431
1.48300	11238
1.48667	9490
1.49033	7550
1.49400	5732
1.49767	4212
1.50133	3040
1.50500	2184
1.50867	1578
1.51233	1155
1.51600	863
1.51967	659
1.52333	514
1.52700	406
1.53067	328
1.53433	275
1.53800	258
1.54167	314
1.54533	501
1.54900	836
1.55267	1255
1.55633	1667
1.56000	2003
1.56367	2230
1.56733	2327
1.57100	2270
1.57467	2055
1.57833	1720
1.58200	1342
1.58567	989
1.58933	703
1.59300	490
1.59667	342
1.60033	240
1.60400	171
1.60767	128
1.61133	103
1.61500	87
1.61867	80
1.62233	76
1.62600	71
1.62967	61
1.63333	47
1.63700	34
1.64067	24
1.64433	22
1.64800	28
1.65167	36
1.65533	46
1.65900	52
1.66267	52
1.66633	49
1.67000	41
1.67367	27
1.67733	11
1.68100	-1
1.68467	-9
1.68833	-14
1.69200	-14
1.69567	-8
1.69933	0
1.70300	5
1.70667	6
1.71033	8
1.71400	7
1.71767	0
1.72133	-8
1.72500	-13
1.72867	-11
1.73233	-4
1.73600	2
1.73967	6
1.74333	6
1.74700	1
1.75067	-2
1.75433	-2
1.75800	4
1.76167	11
1.76533	13
1.76900	10
1.77267	10
1.77633	13
1.78000	15
1.78367	15
1.78733	12
1.79100	12
1.79467	11
1.79833	8
1.80200	7
1.80567	5
1.80933	6
1.81300	8
1.81667	6
1.82033	4
1.82400	1
1.82767	-1
1.83133	-0
1.83500	-0
1.83867	-3
1.84233	-9
1.84600	-12
1.84967	-11
1.85333	-7
1.85700	-1
1.86067	4
1.86433	6
1.86800	8
1.87167	10
1.87533	11
1.87900	10
1.88267	4
1.88633	-1
1.89000	-2
1.89367	2
1.89733	6
1.90100	5
1.90467	-4
1.90833	-15
1.91200	-23
1.91567	-27
1.91933	-26
1.92300	-26
1.92667	-28
1.93033	-29
1.93400	-28
1.93767	-26
1.94133	-22
1.94500	-17
1.94867	-9
1.95233	27
1.95600	232
1.95967	1401
1.96333	6630
1.96700	24381
1.97067	70675
1.97433	164032
1.97800	311067
1.98167	495855
1.98533	685924
1.98900	847844
1.99267	956660
1.99633	997816
2.00000	968056
2.00367	876733
2.00733	744129
2.01100	595572
2.01467	453505
2.01833	332122
2.02200	236621
2.02567	165822
2.02933	115479
2.03300	80669
2.03667	57008
2.04033	41055
2.04400	30310
2.04767	23029
2.05133	18032
2.05500	14547
2.05867	12065
2.06233	10250
2.06600	8887
2.06967	7840
2.07333	7019
2.07700	6358
2.08067	5811
2.08433	5349
2.08800	4955
2.09167	4612
2.09533	4314
2.09900	4052
2.10267	3822
2.10633	3615
2.11000	3430
2.11367	3266
2.11733	3117
2.12100	2979
2.12467	2852
2.12833	2733
2.13200	2622
2.13567	2512
2.13933	2404
2.14300	2305
2.14667	2221
2.15033	2145
2.15400	2074
2.15767	2007
2.16133	1943
2.16500	1884
2.16867	1831
2.17233	1777
2.17600	1722
2.17967	1670
2.18333	1627
2.18700	1587
2.19067	1547
2.19433	1510
2.19800	1474
2.20167	1434
2.20533	1395
2.20900	1357
2.21267	1315
2.21633	1273
2.22000	1236
2.22367	1201
2.22733	1167
2.23100	1137
2.23467	1112
2.23833	1091
2.24200	1074
2.24567	1060
2.24933	1045
2.25300	1022
2.25667	995
2.26033	969
2.26400	944
2.26767	919
2.27133	896
2.27500	875
2.27867	859
2.28233	847
2.28600	840
2.28967	835
2.29333	825
2.29700	813
2.30067	805
2.30433	803
2.30800	793
2.31167	774
2.31533	753
2.31900	738
2.32267	727
2.32633	719
2.33000	714
2.33367	714
2.33733	718
2.34100	712
2.34467	697
2.34833	680
2.35200	666
2.35567	658
2.35933	652
2.36300	644
2.36667	633
2.37033	622
2.37400	612
2.37767	606
2.38133	603
2.38500	598
2.38867	594
2.39233	589
2.39600	583
2.39967	580
2.40333	578
2.40700	570
2.41067	557
2.41433	544
2.41800	541
2.42167	543
2.42533	547
2.42900	545
2.43267	539
2.43633	536
2.44000	532
2.44367	527
2.44733	521
2.45100	516
2.45467	509
2.45833	498
2.46200	483
2.46567	471
2.46933	463
2.47300	461
2.47667	462
2.48033	463
2.48400	464
2.48767	461
2.49133	460
2.49500	458
2.49867	455
2.50233	452
2.50600	445
2.50967	437
2.51333	435
2.51700	435
2.52067	439
2.52433	443
2.52800	441
2.53167	434
2.53533	425
2.53900	419
2.54267	420
2.54633	424
2.55000	429
2.55367	433
2.55733	439
2.56100	443
2.56467	440
2.56833	431
2.57200	419
2.57567	408
2.57933	398
2.58300	387
2.58667	377
2.59033	371
2.59400	367
2.59767	364
2.60133	362
2.60500	362
2.60867	363
2.61233	366
2.61600	368
2.61967	370
2.62333	373
2.62700	379
2.63067	382
2.63433	380
2.63800	374
2.64167	374
2.64533	378
2.64900	381
2.65267	381
2.65633	378
2.66000	376
2.66367	375
2.66733	374
2.67100	374
2.67467	377
2.67833	378
2.68200	370
2.68567	362
2.68933	357
2.69300	358
2.69667	357
2.70033	356
2.70400	362
2.70767	368
2.71133	368
2.71500	366
2.71867	362
2.72233	357
2.72600	356
2.72967	358
2.73333	358
2.73700	357
2.74067	354
2.74433	349
2.74800	338
2.75167	328
2.75533	323
2.75900	323
2.76267	327
2.76633	331
2.77000	333
2.77367	335
2.77733	338
2.78100	343
2.78467	348
2.78833	350
2.79200	354
2.79567	359
2.79933	369
2.80300	376
2.80667	375
2.81033	368
2.81400	360
2.81767	357
2.82133	360
2.82500	364
2.82867	360
2.83233	352
2.83600	346
2.83967	350
2.84333	361
2.84700	375
2.85067	390
2.85433	395
2.85800	386
2.86167	372
2.86533	360
2.86900	354
2.87267	357
2.87633	363
2.88000	367
2.88367	371
2.88733	374
2.89100	378
2.89467	380
2.89833	376
2.90200	371
2.90567	371
2.90933	369
2.91300	363
2.91667	360
2.92033	361
2.92400	364
2.92767	368
2.93133	370
2.93500	368
2.93867	363
2.94233	359
2.94600	358
2.94967	360
2.95333	361
2.95700	363
2.96067	364
2.96433	364
2.96800	365
2.97167	366
2.97533	375
2.97900	389
2.98267	398
2.98633	406
2.99000	412
2.99367	415
2.99733	414
3.00100	415
3.00467	416
3.00833	413
3.01200	400
3.01567	389
3.01933	380
3.02300	374
3.02667	371
3.03033	371
3.03400	374
3.03767	382
3.04133	392
3.04500	396
3.04867	396
3.05233	400
3.05600	398
3.05967	395
3.06333	397
3.06700	400
3.07067	395
3.07433	384
3.07800	374
3.08167	369
3.08533	370
3.08900	373
3.09267	375
3.09633	377
3.10000	377
3.10367	375
3.10733	371
3.11100	365
3.11467	363
3.11833	366
3.12200	370
3.12567	372
3.12933	373
3.13300	375
3.13667	376
3.14033	379
3.14400	384
3.14767	386
3.15133	387
3.15500	387
3.15867	387
3.16233	388
3.16600	391
3.16967	393
3.17333	392
3.17700	392
3.18067	395
3.18433	399
3.18800	402
3.19167	400
3.19533	398
3.19900	395
3.20267	389
3.20633	384
3.21000	387
3.21367	391
3.21733	393
3.22100	391
3.22467	388
3.22833	382
3.23200	374
3.23567	371
3.23933	374
3.24300	380
3.24667	388
3.25033	394
3.25400	397
3.25767	398
3.26133	399
3.26500	401
3.26867	400
3.27233	393
3.27600	386
3.27967	383
3.28333	386
3.28700	392
3.29067	395
3.29433	392
3.29800	392
3.30167	394
3.30533	394
3.30900	391
3.31267	385
3.31633	375
3.32000	370
3.32367	369
3.32733	370
3.33100	372
3.33467	372
3.33833	373
3.34200	374
3.34567	374
3.34933	376
3.35300	377
3.35667	376
3.36033	376
3.36400	375
3.36767	374
3.37133	375
3.37500	377
3.37867	382
3.38233	392
3.38600	399
3.38967	399
3.39333	398
3.39700	390
3.40067	379
3.40433	373
3.40800	368
3.41167	366
3.41533	368
3.41900	372
3.42267	372
3.42633	370
3.43000	370
3.43367	367
3.43733	365
3.44100	365
3.44467	367
3.44833	373
3.45200	377
3.45567	380
3.45933	383
3.46300	382
3.46667	372
3.47033	359
3.47400	350
3.47767	343
3.48133	340
3.48500	340
3.48867	343
3.49233	349
3.49600	355
3.49967	356
3.50333	359
3.50700	365
3.51067	371
3.51433	377
3.51800	376
3.52167	369
3.52533	362
3.52900	359
3.53267	357
3.53633	353
3.54000	346
3.54367	341
3.54733	339
3.55100	341
3.55467	346
3.55833	346
3.56200	344
3.56567	343
3.56933	344
3.57300	347
3.57667	350
3.58033	356
3.58400	361
3.58767	362
3.59133	361
3.59500	353
3.59867	345
3.60233	343
3.60600	345
3.60967	346
3.61333	344
3.61700	342
3.62067	343
3.62433	346
3.62800	348
3.63167	351
3.63533	353
3.63900	350
3.64267	339
3.64633	326
3.65000	317
3.65367	314
3.65733	317
3.66100	323
3.66467	329
3.66833	335
3.67200	342
3.67567	346
3.67933	348
3.68300	349
3.68667	343
3.69033	332
3.69400	327
3.69767	321
3.70133	318
3.70500	316
3.70867	323
3.71233	336
3.71600	348
3.71967	351
3.72333	348
3.72700	346
3.73067	341
3.73433	334
3.73800	327
3.74167	318
3.74533	309
3.74900	300
3.75267	296
3.75633	300
3.76000	310
3.76367	321
3.76733	327
3.77100	329
3.77467	324
3.77833	314
3.78200	307
3.78567	302
3.78933	301
3.79300	307
3.79667	321
3.80033	332
3.80400	336
3.80767	333
3.81133	326
3.81500	317
3.81867	312
3.82233	309
3.82600	304
3.82967	301
3.83333	300
3.83700	298
3.84067	295
3.84433	295
3.84800	300
3.85167	302
3.85533	296
3.85900	289
3.86267	284
3.86633	283
3.87000	284
3.87367	289
3.87733	293
3.88100	295
3.88467	297
3.88833	298
3.89200	294
3.89567	285
3.89933	280
3.90300	279
3.90667	274
3.91033	270
3.91400	273
3.91767	278
3.92133	284
3.92500	291
3.92867	298
3.93233	300
3.93600	300
3.93967	298
3.94333	296
3.94700	291
3.95067	285
3.95433	282
3.95800	283
3.96167	286
3.96533	288
3.96900	286
3.97267	284
3.97633	280
3.98000	277
3.98367	272
3.98733	269
3.99100	266
3.99467	263
3.99833	260

[Chromatogram (Ch2)]
Interval(msec)	220
# of Points	1091
Start Time(min)	0.002
End Time(min)	3.998
R.Time (min)	Intensity
0.00167	0
0.00533	-0
0.00900	-1
0.01267	-1
0.01633	-2
0.02000	-2
0.02367	-2
0.02733	-2
0.03100	-2
0.03467	-2
0.03833	-2
0.04200	-2
0.04567	-2
0.04933	-2
0.05300	-2
0.05667	-2
0.06033	-2
0.06400	-2
0.06767	-2
0.07133	-2
0.07500	-1
0.07867	-1
0.08233	-0
0.08600	0
0.08967	1
0.09333	1
0.09700	1
0.10067	2
0.10433	2
0.10800	2
0.11167	2
0.11533	2
0.11900	2
0.12267	3
0.12633	3
0.13000	3
0.13367	3
0.13733	2
0.14100	2
0.14467	2
0.14833	2
0.15200	1
0.15567	1
0.15933	1
0.16300	1
0.16667	1
0.17033	1
0.17400	1
0.17767	0
0.18133	-0
0.18500	-0
0.18867	-1
0.19233	-1
0.19600	-2
0.19967	-2
0.20333	-2
0.20700	-2
0.21067	-2
0.21433	-2
0.21800	-2
0.22167	-2
0.22533	-2
0.22900	-2
0.23267	-2
0.23633	-2
0.24000	-2
0.24367	-2
0.24733	-3
0.25100	-3
0.25467	-3
0.25833	-3
0.26200	-3
0.26567	-4
0.26933	-4
0.27300	-4
0.27667	-4
0.28033	-4
0.28400	-4
0.28767	-5
0.29133	-4
0.29500	-4
0.29867	-4
0.30233	-4
0.30600	-3
0.30967	-3
0.31333	-3
0.31700	-3
0.32067	-2
0.32433	-2
0.32800	-1
0.33167	-1
0.33533	-0
0.33900	-0
0.34267	0
0.34633	0
0.35000	0
0.35367	0
0.35733	-0
0.36100	-0
0.36467	-1
0.36833	-0
0.37200	-0
0.37567	0
0.37933	0
0.38300	0
0.38667	0
0.39033	0
0.39400	0
0.39767	1
0.40133	1
0.40500	1
0.40867	1
0.41233	2
0.41600	2
0.41967	2
0.42333	2
0.42700	2
0.43067	2
0.43433	2
0.43800	2
0.44167	2
0.44533	2
0.44900	2
0.45267	2
0.45633	2
0.46000	2
0.46367	2
0.46733	1
0.47100	0
0.47467	0
0.47833	-0
0.48200	-0
0.48567	-1
0.48933	-1
0.49300	-1
0.49667	-0
0.50033	-0
0.50400	-0
0.50767	-0
0.51133	-0
0.51500	-0
0.51867	0
0.52233	0
0.52600	1
0.52967	1
0.53333	1
0.53700	1
0.54067	0
0.54433	0
0.54800	0
0.55167	-0
0.55533	-0
0.55900	-1
0.56267	-1
0.56633	-1
0.57000	-1
0.57367	-1
0.57733	-1
0.58100	-2
0.58467	-2
0.58833	-2
0.59200	-2
0.59567	-3
0.59933	-3
0.60300	-3
0.60667	-3
0.61033	-2
0.61400	-2
0.61767	-2
0.62133	-2
0.62500	-2
0.62867	-2
0.63233	-2
0.63600	-2
0.63967	-2
0.64333	-2
0.64700	-3
0.65067	-3
0.65433	-3
0.65800	-3
0.66167	-3
0.66533	-3
0.66900	-3
0.67267	-2
0.67633	-2
0.68000	-2
0.68367	-2
0.68733	-2
0.69100	-2
0.69467	-2
0.69833	-2
0.70200	-2
0.70567	-2
0.70933	-2
0.71300	-2
0.71667	-2
0.72033	-2
0.72400	-1
0.72767	-1
0.73133	-1
0.73500	-1
0.73867	-1
0.74233	-1
0.74600	-1
0.74967	-1
0.75333	-1
0.75700	-1
0.76067	-1
0.76433	-0
0.76800	-0
0.77167	0
0.77533	0
0.77900	0
0.78267	0
0.78633	0
0.79000	0
0.79367	-0
0.79733	-1
0.80100	-1
0.80467	-1
0.80833	-1
0.81200	-1
0.81567	-1
0.81933	-0
0.82300	0
0.82667	1
0.83033	1
0.83400	1
0.83767	2
0.84133	2
0.84500	2
0.84867	1
0.85233	1
0.85600	1
0.85967	1
0.86333	1
0.86700	0
0.87067	-0
0.87433	-0
0.87800	-0
0.88167	-0
0.88533	-1
0.88900	-1
0.89267	-1
0.89633	-1
0.90000	-1
0.90367	-1
0.90733	-1
0.91100	-1
0.91467	-1
0.91833	-1
0.92200	-1
0.92567	-1
0.92933	-1
0.93300	-1
0.93667	-1
0.94033	-1
0.94400	-1
0.94767	-1
0.95133	-1
0.95500	-1
0.95867	-1
0.96233	-1
0.96600	-1
0.96967	-2
0.97333	-2
0.97700	-2
0.98067	-3
0.98433	-3
0.98800	-3
0.99167	-4
0.99533	-4
0.99900	-4
1.00267	-4
1.00633	-4
1.01000	-4
1.01367	-4
1.01733	-4
1.02100	-4
1.02467	-3
1.02833	-3
1.03200	-3
1.03567	-3
1.03933	-3
1.04300	-3
1.04667	-2
1.05033	-2
1.05400	-2
1.05767	-2
1.06133	-2
1.06500	-2
1.06867	-1
1.07233	-1
1.07600	-0
1.07967	-0
1.08333	0
1.08700	0
1.09067	0
1.09433	-0
1.09800	-0
1.10167	-0
1.10533	-0
1.10900	-0
1.11267	-0
1.11633	0
1.12000	0
1.12367	0
1.12733	0
1.13100	-0
1.13467	-0
1.13833	-1
1.14200	-1
1.14567	-2
1.14933	-3
1.15300	-3
1.15667	-3
1.16033	-4
1.16400	-4
1.16767	-3
1.17133	-3
1.17500	-3
1.17867	-3
1.18233	-3
1.18600	-3
1.18967	-3
1.19333	-3
1.19700	-3
1.20067	-3
1.20433	-3
1.20800	-3
1.21167	-3
1.21533	-3
1.21900	-3
1.22267	-3
1.22633	-3
1.23000	-3
1.23367	-2
1.23733	-2
1.24100	-2
1.24467	-2
1.24833	-2
1.25200	-1
1.25567	-1
1.25933	-2
1.26300	-2
1.26667	-2
1.27033	-2
1.27400	-2
1.27767	-2
1.28133	-2
1.28500	-2
1.28867	-2
1.29233	-2
1.29600	-2
1.29967	-2
1.30333	-2
1.30700	-2
1.31067	-2
1.31433	-1
1.31800	-1
1.32167	-1
1.32533	-1
1.32900	-1
1.33267	-1
1.33633	-1
1.34000	-1
1.34367	-1
1.34733	-1
1.35100	-1
1.35467	-1
1.35833	-2
1.36200	-2
1.36567	-2
1.36933	-2
1.37300	-3
1.37667	-3
1.38033	-4
1.38400	-4
1.38767	-5
1.39133	-5
1.39500	-5
1.39867	-5
1.40233	-5
1.40600	-5
1.40967	-5
1.41333	-5
1.41700	-4
1.42067	-4
1.42433	-4
1.42800	-4
1.43167	-4
1.43533	-3
1.43900	-3
1.44267	-4
1.44633	-4
1.45000	-4
1.45367	-4
1.45733	-4
1.46100	-3
1.46467	-3
1.46833	-3
1.47200	-3
1.47567	-2
1.47933	-2
1.48300	-2
1.48667	-2
1.49033	-2
1.49400	-2
1.49767	-2
1.50133	-2
1.50500	-1
1.50867	-1
1.51233	-1
1.51600	-0
1.51967	0
1.52333	0
1.52700	1
1.53067	1
1.53433	1
1.53800	1
1.54167	1
1.54533	0
1.54900	0
1.55267	-0
1.55633	-1
1.56000	-1
1.56367	-1
1.56733	-2
1.57100	-2
1.57467	-2
1.57833	-2
1.58200	-2
1.58567	-2
1.58933	-2
1.59300	-3
1.59667	-3
1.60033	-4
1.60400	-5
1.60767	-7
1.61133	-8
1.61500	-10
1.61867	-12
1.62233	-15
1.62600	-18
1.62967	-21
1.63333	-24
1.63700	-27
1.64067	-31
1.64433	-34
1.64800	-38
1.65167	-42
1.65533	-45
1.65900	-49
1.66267	-53
1.66633	-57
1.67000	-61
1.67367	-66
1.67733	-71
1.68100	-76
1.68467	-81
1.68833	-86
1.69200	-90
1.69567	-94
1.69933	-97
1.70300	-100
1.70667	-102
1.71033	-104
1.71400	-105
1.71767	-105
1.72133	-106
1.72500	-106
1.72867	-106
1.73233	-106
1.73600	-105
1.73967	-105
1.74333	-105
1.74700	-105
1.75067	-105
1.75433	-106
1.75800	-107
1.76167	-108
1.76533	-109
1.76900	-110
1.77267	-111
1.77633	-111
1.78000	-112
1.78367	-112
1.78733	-112
1.79100	-112
1.79467	-112
1.79833	-112
1.80200	-112
1.80567	-112
1.80933	-113
1.81300	-113
1.81667	-114
1.82033	-114
1.82400	-115
1.82767	-115
1.83133	-115
1.83500	-116
1.83867	-116
1.84233	-116
1.84600	-116
1.84967	-116
1.85333	-115
1.85700	-114
1.86067	-113
1.86433	-112
1.86800	-112
1.87167	-111
1.87533	-111
1.87900	-111
1.88267	-110
1.88633	-110
1.89000	-110
1.89367	-110
1.89733	-110
1.90100	-110
1.90467	-110
1.90833	-111
1.91200	-111
1.91567	-112
1.91933	-112
1.92300	-112
1.92667	-112
1.93033	-112
1.93400	-111
1.93767	-111
1.94133	-110
1.94500	-110
1.94867	-109
1.95233	-109
1.95600	-108
1.95967	-108
1.96333	-108
1.96700	-108
1.97067	-108
1.97433	-108
1.97800	-108
1.98167	-108
1.98533	-108
1.98900	-108
1.99267	-107
1.99633	-107
2.00000	-106
2.00367	-106
2.00733	-106
2.01100	-106
2.01467	-106
2.01833	-105
2.02200	-105
2.02567	-104
2.02933	-104
2.03300	-103
2.03667	-103
2.04033	-103
2.04400	-103
2.04767	-103
2.05133	-103
2.05500	-102
2.05867	-102
2.06233	-102
2.06600	-102
2.06967	-101
2.07333	-101
2.07700	-101
2.08067	-101
2.08433	-100
2.08800	-100
2.09167	-100
2.09533	-100
2.09900	-99
2.10267	-99
2.10633	-99
2.11000	-99
2.11367	-99
2.11733	-99
2.12100	-98
2.12467	-98
2.12833	-98
2.13200	-98
2.13567	-98
2.13933	-97
2.14300	-97
2.14667	-97
2.15033	-96
2.15400	-96
2.15767	-96
2.16133	-95
2.16500	-95
2.16867	-94
2.17233	-93
2.17600	-93
2.17967	-92
2.18333	-92
2.18700	-92
2.19067	-92
2.19433	-92
2.19800	-92
2.20167	-92
2.20533	-93
2.20900	-92
2.21267	-92
2.21633	-92
2.22000	-91
2.22367	-91
2.22733	-90
2.23100	-89
2.23467	-89
2.23833	-88
2.24200	-87
2.24567	-86
2.24933	-87
2.25300	-87
2.25667	-88
2.26033	-89
2.26400	-90
2.26767	-91
2.27133	-91
2.27500	-91
2.27867	-91
2.28233	-90
2.28600	-89
2.28967	-87
2.29333	-86
2.29700	-84
2.30067	-83
2.30433	-82
2.30800	-81
2.31167	-81
2.31533	-81
2.31900	-80
2.32267	-80
2.32633	-80
2.33000	-80
2.33367	-79
2.33733	-79
2.34100	-79
2.34467	-78
2.34833	-77
2.35200	-76
2.35567	-75
2.35933	-74
2.36300	-72
2.36667	-71
2.37033	-69
2.37400	-67
2.37767	-65
2.38133	-61
2.38500	-58
2.38867	-54
2.39233	-50
2.39600	-45
2.39967	-40
2.40333	-36
2.40700	-31
2.41067	-27
2.41433	-23
2.41800	-20
2.42167	-18
2.42533	-16
2.42900	-15
2.43267	-14
2.43633	-13
2.44000	-13
2.44367	-12
2.44733	-11
2.45100	-10
2.45467	-8
2.45833	-7
2.46200	-6
2.46567	-5
2.46933	-3
2.47300	-2
2.47667	-1
2.48033	-0
2.48400	1
2.48767	2
2.49133	3
2.49500	4
2.49867	5
2.50233	6
2.50600	6
2.50967	7
2.51333	8
2.51700	8
2.52067	9
2.52433	10
2.52800	10
2.53167	11
2.53533	11
2.53900	11
2.54267	11
2.54633	12
2.55000	12
2.55367	13
2.55733	13
2.56100	13
2.56467	13
2.56833	13
2.57200	13
2.57567	14
2.57933	14
2.58300	14
2.58667	14
2.59033	14
2.59400	15
2.59767	15
2.60133	15
2.60500	16
2.60867	17
2.61233	17
2.61600	18
2.61967	18
2.62333	18
2.62700	18
2.63067	18
2.63433	18
2.63800	18
2.64167	18
2.64533	18
2.64900	18
2.65267	18
2.65633	18
2.66000	19
2.66367	19
2.66733	20
2.67100	20
2.67467	20
2.67833	20
2.68200	20
2.68567	20
2.68933	20
2.69300	20
2.69667	20
2.70033	21
2.70400	21
2.70767	21
2.71133	22
2.71500	22
2.71867	23
2.72233	23
2.72600	24
2.72967	24
2.73333	25
2.73700	25
2.74067	26
2.74433	26
2.74800	26
2.75167	26
2.75533	25
2.75900	25
2.76267	25
2.76633	24
2.77000	24
2.77367	24
2.77733	23
2.78100	23
2.78467	23
2.78833	23
2.79200	24
2.79567	24
2.79933	24
2.80300	25
2.80667	25
2.81033	26
2.81400	26
2.81767	26
2.82133	27
2.82500	27
2.82867	27
2.83233	27
2.83600	27
2.83967	25
2.84333	23
2.84700	20
2.85067	14
2.85433	6
2.85800	-6
2.86167	-21
2.86533	-41
2.86900	-65
2.87267	-93
2.87633	-125
2.88000	-162
2.88367	-203
2.88733	-247
2.89100	-294
2.89467	-343
2.89833	-395
2.90200	-448
2.90567	-503
2.90933	-557
2.91300	-612
2.91667	-667
2.92033	-722
2.92400	-774
2.92767	-826
2.93133	-877
2.93500	-932
2.93867	-991
2.94233	-1046
2.94600	-1086
2.94967	-1103
2.95333	-1093
2.95700	-1059
2.96067	-1005
2.96433	-937
2.96800	-860
2.97167	-780
2.97533	-699
2.97900	-620
2.98267	-546
2.98633	-478
2.99000	-415
2.99367	-359
2.99733	-309
3.00100	-265
3.00467	-226
3.00833	-192
3.01200	-163
3.01567	-138
3.01933	-116
3.02300	-97
3.02667	-81
3.03033	-67
3.03400	-56
3.03767	-46
3.04133	-37
3.04500	-30
3.04867	-24
3.05233	-18
3.05600	-14
3.05967	-10
3.06333	-6
3.06700	-3
3.07067	-1
3.07433	1
3.07800	3
3.08167	5
3.08533	6
3.08900	7
3.09267	8
3.09633	9
3.10000	10
3.10367	11
3.10733	12
3.11100	13
3.11467	14
3.11833	15
3.12200	16
3.12567	17
3.12933	17
3.13300	18
3.13667	18
3.14033	19
3.14400	19
3.14767	20
3.15133	20
3.15500	20
3.15867	20
3.16233	21
3.16600	21
3.16967	21
3.17333	21
3.17700	21
3.18067	21
3.18433	21
3.18800	21
3.19167	21
3.19533	21
3.19900	21
3.20267	21
3.20633	21
3.21000	21
3.21367	21
3.21733	22
3.22100	22
3.22467	22
3.22833	23
3.23200	23
3.23567	23
3.23933	23
3.24300	23
3.24667	23
3.25033	23
3.25400	23
3.25767	23
3.26133	23
3.26500	23
3.26867	23
3.27233	24
3.27600	24
3.27967	24
3.28333	24
3.28700	24
3.29067	24
3.29433	25
3.29800	25
3.30167	26
3.30533	26
3.30900	27
3.31267	27
3.31633	27
3.32000	28
3.32367	28
3.32733	28
3.33100	28
3.33467	28
3.33833	29
3.34200	29
3.34567	29
3.34933	29
3.35300	29
3.35667	29
3.36033	29
3.36400	29
3.36767	29
3.37133	29
3.37500	29
3.37867	29
3.38233	28
3.38600	28
3.38967	28
3.39333	28
3.39700	28
3.40067	28
3.40433	28
3.40800	28
3.41167	28
3.41533	28
3.41900	28
3.42267	28
3.42633	28
3.43000	28
3.43367	28
3.43733	28
3.44100	28
3.44467	28
3.44833	28
3.45200	27
3.45567	27
3.45933	27
3.46300	27
3.46667	27
3.47033	27
3.47400	27
3.47767	27
3.48133	27
3.48500	26
3.48867	26
3.49233	27
3.49600	27
3.49967	27
3.50333	27
3.50700	27
3.51067	27
3.51433	27
3.51800	27
3.52167	27
3.52533	27
3.52900	27
3.53267	27
3.53633	27
3.54000	27
3.54367	27
3.54733	27
3.55100	26
3.55467	26
3.55833	26
3.56200	26
3.56567	26
3.56933	25
3.57300	25
3.57667	25
3.58033	25
3.58400	25
3.58767	25
3.59133	24
3.59500	25
3.59867	25
3.60233	25
3.60600	25
3.60967	25
3.61333	25
3.61700	26
3.62067	26
3.62433	26
3.62800	26
3.63167	26
3.63533	27
3.63900	27
3.64267	27
3.64633	27
3.65000	27
3.65367	26
3.65733	26
3.66100	26
3.66467	26
3.66833	26
3.67200	27
3.67567	27
3.67933	27
3.68300	27
3.68667	27
3.69033	28
3.69400	28
3.69767	28
3.70133	28
3.70500	29
3.70867	29
3.71233	28
3.71600	28
3.71967	28
3.72333	29
3.72700	29
3.73067	29
3.73433	29
3.73800	29
3.74167	29
3.74533	29
3.74900	29
3.75267	28
3.75633	28
3.76000	28
3.76367	28
3.76733	28
3.77100	27
3.77467	27
3.77833	27
3.78200	27
3.78567	26
3.78933	26
3.79300	26
3.79667	26
3.80033	26
3.80400	26
3.80767	26
3.81133	26
3.81500	26
3.81867	26
3.82233	27
3.82600	27
3.82967	27
3.83333	27
3.83700	27
3.84067	27
3.84433	27
3.84800	27
3.85167	27
3.85533	27
3.85900	27
3.86267	27
3.86633	27
3.87000	26
3.87367	26
3.87733	26
3.88100	26
3.88467	26
3.88833	26
3.89200	26
3.89567	26
3.89933	26
3.90300	26
3.90667	26
3.91033	26
3.91400	27
3.91767	27
3.92133	27
3.92500	26
3.92867	26
3.93233	26
3.93600	26
3.93967	26
3.94333	26
3.94700	26
3.95067	25
3.95433	25
3.95800	25
3.96167	25
3.96533	25
3.96900	25
3.97267	25
3.97633	25
3.98000	25
3.98367	25
3.98733	25
3.99100	25
3.99467	25
3.99833	25

[Chromatogram (Ch3)]
Interval(msec)	220
# of Points	1091
Start Time(min)	0.002
End Time(min)	3.998
R.Time (min)	Intensity
0.00167	-0
0.00533	0
0.00900	0
0.01267	1
0.01633	1
0.02000	3
0.02367	3
0.02733	1
0.03100	-0
0.03467	-1
0.03833	-3
0.04200	-3
0.04567	-1
0.04933	0
0.05300	-2
0.05667	-3
0.06033	-2
0.06400	0
0.06767	2
0.07133	2
0.07500	1
0.07867	-0
0.08233	-2
0.08600	-2
0.08967	1
0.09333	3
0.09700	3
0.10067	2
0.10433	2
0.10800	3
0.11167	4
0.11533	3
0.11900	1
0.12267	0
0.12633	1
0.13000	3
0.13367	3
0.13733	2
0.14100	0
0.14467	-3
0.14833	-5
0.15200	-6
0.15567	-4
0.15933	-2
0.16300	0
0.16667	2
0.17033	1
0.17400	1
0.17767	-0
0.18133	-1
0.18500	-1
0.18867	-3
0.19233	-4
0.19600	-5
0.19967	-4
0.20333	-2
0.20700	-1
0.21067	-2
0.21433	-3
0.21800	-2
0.22167	-0
0.22533	1
0.22900	2
0.23267	4
0.23633	3
0.24000	1
0.24367	1
0.24733	1
0.25100	3
0.25467	4
0.25833	4
0.26200	4
0.26567	5
0.26933	3
0.27300	2
0.27667	3
0.28033	2
0.28400	-1
0.28767	-1
0.29133	1
0.29500	3
0.29867	3
0.30233	4
0.30600	4
0.30967	4
0.31333	2
0.31700	2
0.32067	1
0.32433	0
0.32800	-1
0.33167	-1
0.33533	-3
0.33900	-3
0.34267	0
0.34633	3
0.35000	4
0.35367	5
0.35733	6
0.36100	5
0.36467	4
0.36833	3
0.37200	2
0.37567	2
0.37933	4
0.38300	4
0.38667	3
0.39033	1
0.39400	0
0.39767	1
0.40133	1
0.40500	2
0.40867	2
0.41233	4
0.41600	3
0.41967	2
0.42333	2
0.42700	0
0.43067	1
0.43433	3
0.43800	4
0.44167	4
0.44533	3
0.44900	2
0.45267	1
0.45633	2
0.46000	4
0.46367	5
0.46733	5
0.47100	5
0.47467	6
0.47833	5
0.48200	4
0.48567	5
0.48933	7
0.49300	9
0.49667	10
0.50033	9
0.50400	8
0.50767	6
0.51133	6
0.51500	6
0.51867	8
0.52233	8
0.52600	8
0.52967	10
0.53333	11
0.53700	10
0.54067	7
0.54433	4
0.54800	4
0.55167	5
0.55533	6
0.55900	5
0.56267	4
0.56633	4
0.57000	6
0.57367	5
0.57733	4
0.58100	3
0.58467	2
0.58833	4
0.59200	5
0.59567	5
0.59933	3
0.60300	0
0.60667	-1
0.61033	1
0.61400	3
0.61767	4
0.62133	2
0.62500	1
0.62867	1
0.63233	3
0.63600	6
0.63967	8
0.64333	7
0.64700	7
0.65067	10
0.65433	12
0.65800	12
0.66167	11
0.66533	10
0.66900	10
0.67267	9
0.67633	11
0.68000	11
0.68367	9
0.68733	7
0.69100	7
0.69467	8
0.69833	7
0.70200	7
0.70567	6
0.70933	5
0.71300	5
0.71667	4
0.72033	4
0.72400	4
0.72767	4
0.73133	5
0.73500	6
0.73867	9
0.74233	13
0.74600	15
0.74967	14
0.75333	13
0.75700	10
0.76067	8
0.76433	6
0.76800	5
0.77167	3
0.77533	1
0.77900	1
0.78267	3
0.78633	6
0.79000	9
0.79367	12
0.79733	14
0.80100	14
0.80467	13
0.80833	12
0.81200	13
0.81567	14
0.81933	14
0.82300	13
0.82667	11
0.83033	9
0.83400	8
0.83767	8
0.84133	10
0.84500	12
0.84867	15
0.85233	17
0.85600	19
0.85967	17
0.86333	15
0.86700	15
0.87067	15
0.87433	14
0.87800	14
0.88167	12
0.88533	12
0.88900	13
0.89267	16
0.89633	19
0.90000	22
0.90367	24
0.90733	22
0.91100	20
0.91467	19
0.91833	19
0.92200	18
0.92567	17
0.92933	18
0.93300	19
0.93667	19
0.94033	20
0.94400	21
0.94767	22
0.95133	22
0.95500	21
0.95867	22
0.96233	23
0.96600	23
0.96967	23
0.97333	22
0.97700	20
0.98067	21
0.98433	20
0.98800	17
0.99167	16
0.99533	15
0.99900	16
1.00267	16
1.00633	16
1.01000	17
1.01367	17
1.01733	18
1.02100	17
1.02467	17
1.02833	17
1.03200	15
1.03567	14
1.03933	13
1.04300	14
1.04667	14
1.05033	13
1.05400	13
1.05767	15
1.06133	16
1.06500	17
1.06867	18
1.07233	18
1.07600	15
1.07967	14
1.08333	13
1.08700	13
1.09067	12
1.09433	13
1.09800	14
1.10167	16
1.10533	18
1.10900	19
1.11267	18
1.11633	16
1.12000	15
1.12367	13
1.12733	14
1.13100	15
1.13467	14
1.13833	13
1.14200	13
1.14567	12
1.14933	12
1.15300	13
1.15667	12
1.16033	12
1.16400	13
1.16767	12
1.17133	11
1.17500	10
1.17867	11
1.18233	13
1.18600	12
1.18967	10
1.19333	9
1.19700	9
1.20067	9
1.20433	12
1.20800	13
1.21167	12
1.21533	13
1.21900	13
1.22267	13
1.22633	13
1.23000	13
1.23367	13
1.23733	12
1.24100	12
1.24467	12
1.24833	10
1.25200	9
1.25567	10
1.25933	11
1.26300	13
1.26667	14
1.27033	13
1.27400	11
1.27767	8
1.28133	6
1.28500	6
1.28867	8
1.29233	10
1.29600	10
1.29967	9
1.30333	9
1.30700	9
1.31067	8
1.31433	9
1.31800	9
1.32167	8
1.32533	7
1.32900	7
1.33267	9
1.33633	12
1.34000	15
1.34367	16
1.34733	17
1.35100	15
1.35467	14
1.35833	12
1.36200	11
1.36567	11
1.36933	11
1.37300	14
1.37667	15
1.38033	17
1.38400	18
1.38767	19
1.39133	18
1.39500	17
1.39867	15
1.40233	16
1.40600	14
1.40967	12
1.41333	11
1.41700	10
1.42067	12
1.42433	13
1.42800	12
1.43167	12
1.43533	12
1.43900	14
1.44267	15
1.44633	15
1.45000	13
1.45367	12
1.45733	13
1.46100	16
1.46467	15
1.46833	14
1.47200	14
1.47567	15
1.47933	17
1.48300	19
1.48667	18
1.49033	17
1.49400	16
1.49767	15
1.50133	14
1.50500	14
1.50867	15
1.51233	16
1.51600	16
1.51967	15
1.52333	15
1.52700	17
1.53067	18
1.53433	19
1.53800	18
1.54167	16
1.54533	14
1.54900	14
1.55267	16
1.55633	19
1.56000	18
1.56367	19
1.56733	22
1.57100	20
1.57467	18
1.57833	17
1.58200	16
1.58567	18
1.58933	18
1.59300	19
1.59667	20
1.60033	17
1.60400	16
1.60767	16
1.61133	18
1.61500	17
1.61867	15
1.62233	15
1.62600	15
1.62967	16
1.63333	16
1.63700	17
1.64067	20
1.64433	21
1.64800	22
1.65167	21
1.65533	19
1.65900	18
1.66267	18
1.66633	18
1.67000	19
1.67367	20
1.67733	21
1.68100	23
1.68467	26
1.68833	27
1.69200	28
1.69567	28
1.69933	27
1.70300	27
1.70667	26
1.71033	26
1.71400	26
1.71767	26
1.72133	27
1.72500	26
1.72867	24
1.73233	23
1.73600	24
1.73967	24
1.74333	23
1.74700	22
1.75067	22
1.75433	24
1.75800	25
1.76167	25
1.76533	26
1.76900	28
1.77267	27
1.77633	25
1.78000	24
1.78367	26
1.78733	28
1.79100	28
1.79467	26
1.79833	27
1.80200	27
1.80567	27
1.80933	28
1.81300	28
1.81667	29
1.82033	32
1.82400	33
1.82767	34
1.83133	33
1.83500	31
1.83867	32
1.84233	34
1.84600	36
1.84967	37
1.85333	39
1.85700	38
1.86067	37
1.86433	35
1.86800	34
1.87167	34
1.87533	35
1.87900	35
1.88267	35
1.88633	38
1.89000	40
1.89367	39
1.89733	38
1.90100	40
1.90467	41
1.90833	40
1.91200	40
1.91567	43
1.91933	45
1.92300	46
1.92667	45
1.93033	46
1.93400	44
1.93767	41
1.94133	43
1.94500	46
1.94867	47
1.95233	48
1.95600	48
1.95967	52
1.96333	53
1.96700	54
1.97067	53
1.97433	52
1.97800	54
1.98167	55
1.98533	54
1.98900	52
1.99267	50
1.99633	50
2.00000	52
2.00367	56
2.00733	59
2.01100	59
2.01467	59
2.01833	61
2.02200	64
2.02567	63
2.02933	62
2.03300	61
2.03667	59
2.04033	60
2.04400	64
2.04767	66
2.05133	65
2.05500	63
2.05867	63
2.06233	65
2.06600	67
2.06967	68
2.07333	68
2.07700	68
2.08067	65
2.08433	66
2.08800	66
2.09167	67
2.09533	69
2.09900	70
2.10267	71
2.10633	73
2.11000	74
2.11367	77
2.11733	79
2.12100	79
2.12467	82
2.12833	84
2.13200	85
2.13567	88
2.13933	89
2.14300	92
2.14667	94
2.15033	93
2.15400	93
2.15767	95
2.16133	95
2.16500	94
2.16867	95
2.17233	95
2.17600	95
2.17967	96
2.18333	96
2.18700	98
2.19067	100
2.19433	100
2.19800	103
2.20167	103
2.20533	105
2.20900	109
2.21267	109
2.21633	108
2.22000	109
2.22367	112
2.22733	116
2.23100	120
2.23467	122
2.23833	122
2.24200	122
2.24567	122
2.24933	122
2.25300	123
2.25667	123
2.26033	125
2.26400	129
2.26767	130
2.27133	129
2.27500	128
2.27867	129
2.28233	131
2.28600	133
2.28967	134
2.29333	137
2.29700	138
2.30067	140
2.30433	139
2.30800	138
2.31167	140
2.31533	144
2.31900	148
2.32267	150
2.32633	151
2.33000	150
2.33367	149
2.33733	150
2.34100	151
2.34467	153
2.34833	156
2.35200	160
2.35567	161
2.35933	163
2.36300	165
2.36667	168
2.37033	171
2.37400	173
2.37767	176
2.38133	177
2.38500	178
2.38867	179
2.39233	182
2.39600	187
2.39967	189
2.40333	191
2.40700	195
2.41067	199
2.41433	201
2.41800	204
2.42167	207
2.42533	211
2.42900	212
2.43267	212
2.43633	212
2.44000	214
2.44367	260
2.44733	380
2.45100	509
2.45467	619
2.45833	690
2.46200	702
2.46567	680
2.46933	649
2.47300	626
2.47667	615
2.48033	608
2.48400	595
2.48767	572
2.49133	538
2.49500	503
2.49867	471
2.50233	447
2.50600	430
2.50967	421
2.51333	418
2.51700	421
2.52067	429
2.52433	442
2.52800	458
2.53167	473
2.53533	482
2.53900	483
2.54267	477
2.54633	464
2.55000	446
2.55367	427
2.55733	406
2.56100	389
2.56467	373
2.56833	361
2.57200	351
2.57567	345
2.57933	342
2.58300	341
2.58667	342
2.59033	341
2.59400	339
2.59767	334
2.60133	325
2.60500	313
2.60867	300
2.61233	284
2.61600	264
2.61967	245
2.62333	226
2.62700	211
2.63067	201
2.63433	197
2.63800	197
2.64167	201
2.64533	206
2.64900	212
2.65267	219
2.65633	225
2.66000	231
2.66367	236
2.66733	239
2.67100	240
2.67467	240
2.67833	239
2.68200	238
2.68567	234
2.68933	231
2.69300	231
2.69667	228
2.70033	224
2.70400	220
2.70767	217
2.71133	215
2.71500	214
2.71867	213
2.72233	212
2.72600	211
2.72967	212
2.73333	213
2.73700	215
2.74067	216
2.74433	218
2.74800	222
2.75167	223
2.75533	224
2.75900	227
2.76267	230
2.76633	231
2.77000	233
2.77367	234
2.77733	234
2.78100	234
2.78467	236
2.78833	236
2.79200	236
2.79567	236
2.79933	237
2.80300	238
2.80667	239
2.81033	242
2.81400	245
2.81767	250
2.82133	260
2.82500	280
2.82867	323
2.83233	412
2.83600	570
2.83967	817
2.84333	1169
2.84700	1630
2.85067	2182
2.85433	2796
2.85800	3430
2.86167	4030
2.86533	4545
2.86900	4937
2.87267	5180
2.87633	5271
2.88000	5219
2.88367	5049
2.88733	4790
2.89100	4466
2.89467	4107
2.89833	3737
2.90200	3376
2.90567	3032
2.90933	2710
2.91300	2415
2.91667	2148
2.92033	1909
2.92400	1695
2.92767	1509
2.93133	1344
2.93500	1199
2.93867	1074
2.94233	966
2.94600	873
2.94967	789
2.95333	717
2.95700	655
2.96067	601
2.96433	555
2.96800	516
2.97167	481
2.97533	449
2.97900	422
2.98267	398
2.98633	378
2.99000	361
2.99367	344
2.99733	331
3.00100	320
3.00467	309
3.00833	300
3.01200	291
3.01567	283
3.01933	275
3.02300	266
3.02667	261
3.03033	255
3.03400	249
3.03767	246
3.04133	243
3.04500	242
3.04867	242
3.05233	240
3.05600	237
3.05967	236
3.06333	236
3.06700	233
3.07067	232
3.07433	229
3.07800	225
3.08167	222
3.08533	219
3.08900	217
3.09267	215
3.09633	215
3.10000	214
3.10367	210
3.10733	208
3.11100	208
3.11467	208
3.11833	209
3.12200	210
3.12567	211
3.12933	212
3.13300	213
3.13667	214
3.14033	215
3.14400	215
3.14767	213
3.15133	212
3.15500	211
3.15867	210
3.16233	208
3.16600	209
3.16967	209
3.17333	211
3.17700	213
3.18067	214
3.18433	215
3.18800	216
3.19167	219
3.19533	221
3.19900	223
3.20267	224
3.20633	225
3.21000	222
3.21367	223
3.21733	225
3.22100	226
3.22467	227
3.22833	229
3.23200	230
3.23567	230
3.23933	230
3.24300	230
3.24667	230
3.25033	230
3.25400	229
3.25767	230
3.26133	228
3.26500	218
3.26867	209
3.27233	206
3.27600	211
3.27967	224
3.28333	244
3.28700	267
3.29067	294
3.29433	322
3.29800	351
3.30167	377
3.30533	401
3.30900	425
3.31267	445
3.31633	461
3.32000	478
3.32367	495
3.32733	508
3.33100	520
3.33467	530
3.33833	539
3.34200	549
3.34567	560
3.34933	568
3.35300	575
3.35667	584
3.36033	592
3.36400	599
3.36767	603
3.37133	607
3.37500	611
3.37867	615
3.38233	619
3.38600	622
3.38967	625
3.39333	629
3.39700	631
3.40067	635
3.40433	638
3.40800	638
3.41167	641
3.41533	645
3.41900	645
3.42267	644
3.42633	644
3.43000	647
3.43367	650
3.43733	650
3.44100	651
3.44467	652
3.44833	652
3.45200	653
3.45567	654
3.45933	655
3.46300	655
3.46667	653
3.47033	651
3.47400	653
3.47767	657
3.48133	658
3.48500	659
3.48867	659
3.49233	657
3.49600	657
3.49967	656
3.50333	657
3.50700	660
3.51067	661
3.51433	659
3.51800	657
3.52167	657
3.52533	657
3.52900	655
3.53267	654
3.53633	653
3.54000	653
3.54367	652
3.54733	653
3.55100	654
3.55467	655
3.55833	653
3.56200	650
3.56567	649
3.56933	648
3.57300	646
3.57667	644
3.58033	642
3.58400	640
3.58767	638
3.59133	638
3.59500	639
3.59867	641
3.60233	641
3.60600	641
3.60967	639
3.61333	637
3.61700	637
3.62067	636
3.62433	632
3.62800	631
3.63167	628
3.63533	625
3.63900	622
3.64267	619
3.64633	615
3.65000	613
3.65367	613
3.65733	613
3.66100	614
3.66467	615
3.66833	614
3.67200	612
3.67567	612
3.67933	611
3.68300	613
3.68667	611
3.69033	607
3.69400	604
3.69767	601
3.70133	599
3.70500	598
3.70867	597
3.71233	595
3.71600	590
3.71967	590
3.72333	592
3.72700	593
3.73067	594
3.73433	594
3.73800	594
3.74167	593
3.74533	592
3.74900	591
3.75267	592
3.75633	593
3.76000	593
3.76367	592
3.76733	591
3.77100	591
3.77467	591
3.77833	589
3.78200	590
3.78567	592
3.78933	595
3.79300	595
3.79667	593
3.80033	592
3.80400	592
3.80767	591
3.81133	590
3.81500	590
3.81867	592
3.82233	592
3.82600	590
3.82967	588
3.83333	589
3.83700	590
3.84067	587
3.84433	587
3.84800	589
3.85167	590
3.85533	588
3.85900	587
3.86267	588
3.86633	590
3.87000	590
3.87367	588
3.87733	585
3.88100	583
3.88467	584
3.88833	585
3.89200	584
3.89567	582
3.89933	581
3.90300	581
3.90667	580
3.91033	579
3.91400	576
3.91767	575
3.92133	572
3.92500	570
3.92867	568
3.93233	570
3.93600	571
3.93967	570
3.94333	571
3.94700	571
3.95067	569
3.95433	566
3.95800	565
3.96167	563
3.96533	563
3.96900	561
3.97267	559
3.97633	557
3.98000	557
3.98367	558
3.98733	558
3.99100	558
3.99467	558
3.99833	555

[Status Trace (Column Oven Temperature)]
Interval(msec)	1000
# of Points	240
Start Time(min)	0.008
End Time(min)	3.991
Intensity Units	
Intensity Multiplier	1
R.Time (min)	Intensity
0.00778	35.03
0.02445	35.03
0.04112	35.04
0.05778	35.05
0.07445	35.04
0.09112	35.03
0.10778	35.02
0.12445	35.01
0.14112	35.00
0.15778	35.00
0.17445	35.00
0.19112	35.01
0.20778	35.02
0.22445	35.02
0.24112	35.02
0.25778	35.02
0.27445	35.05
0.29112	35.05
0.30778	35.05
0.32445	35.05
0.34112	35.04
0.35778	35.04
0.37445	35.03
0.39112	35.02
0.40778	35.00
0.42445	34.98
0.44112	34.97
0.45778	34.97
0.47445	34.98
0.49112	34.97
0.50778	34.97
0.52445	34.96
0.54112	34.95
0.55778	34.96
0.57445	34.97
0.59112	34.99
0.60778	34.99
0.62445	35.00
0.64112	35.01
0.65778	35.02
0.67445	35.01
0.69112	35.01
0.70778	35.01
0.72445	35.02
0.74112	35.01
0.75778	35.00
0.77445	35.00
0.79112	35.00
0.80778	35.00
0.82445	34.98
0.84112	34.98
0.85778	34.98
0.87445	34.98
0.89112	34.97
0.90778	34.97
0.92445	34.98
0.94112	34.99
0.95778	34.99
0.97445	35.00
0.99112	35.01
1.00778	35.01
1.02445	35.01
1.04112	34.99
1.05778	34.99
1.07445	34.99
1.09112	34.98
1.10778	34.97
1.12445	34.97
1.14112	34.97
1.15778	34.99
1.17445	35.00
1.19112	35.00
1.20778	35.00
1.22445	35.01
1.24112	35.01
1.25778	35.00
1.27445	34.99
1.29112	34.99
1.30778	34.99
1.32445	34.98
1.34112	34.99
1.35778	35.00
1.37445	35.00
1.39112	35.01
1.40778	35.02
1.42445	35.02
1.44112	35.03
1.45778	35.04
1.47445	35.04
1.49112	35.03
1.50778	35.02
1.52445	35.00
1.54112	35.00
1.55778	35.00
1.57445	35.00
1.59112	35.01
1.60778	35.07
1.62445	35.19
1.64112	35.38
1.65778	35.62
1.67445	35.96
1.69112	36.34
1.70778	36.70
1.72445	37.02
1.74112	37.33
1.75778	37.67
1.77445	38.02
1.79112	38.33
1.80778	38.66
1.82445	39.02
1.84112	39.35
1.85778	39.65
1.87445	39.97
1.89112	40.29
1.90778	40.63
1.92445	40.95
1.94112	41.27
1.95778	41.60
1.97445	41.94
1.99112	42.25
2.00778	42.59
2.02445	42.90
2.04112	43.22
2.05778	43.55
2.07445	43.87
2.09112	44.21
2.10778	44.53
2.12445	44.86
2.14112	45.18
2.15778	45.52
2.17445	45.83
2.19112	46.17
2.20778	46.51
2.22445	46.83
2.24112	47.14
2.25778	47.52
2.27445	47.86
2.29112	48.17
2.30778	48.50
2.32445	48.84
2.34112	49.15
2.35778	49.43
2.37445	49.61
2.39112	49.66
2.40778	49.65
2.42445	49.67
2.44112	49.69
2.45778	49.69
2.47445	49.70
2.49112	49.72
2.50778	49.75
2.52445	49.76
2.54112	49.77
2.55778	49.79
2.57445	49.80
2.59112	49.81
2.60778	49.80
2.62445	49.82
2.64112	49.84
2.65778	49.83
2.67445	49.84
2.69112	49.87
2.70778	49.86
2.72445	49.86
2.74112	49.85
2.75778	49.88
2.77445	49.90
2.79112	49.90
2.80778	49.90
2.82445	49.90
2.84112	49.91
2.85778	49.91
2.87445	49.91
2.89112	49.91
2.90778	49.92
2.92445	49.94
2.94112	49.96
2.95778	49.98
2.97445	50.00
2.99112	50.01
3.00778	50.02
3.02445	50.04
3.04112	50.05
3.05778	50.06
3.07445	50.07
3.09112	50.08
3.10778	50.08
3.12445	50.08
3.14112	50.07
3.15778	50.07
3.17445	50.07
3.19112	50.08
3.20778	50.09
3.22445	50.09
3.24112	50.10
3.25778	50.10
3.27445	50.10
3.29112	50.09
3.30778	50.08
3.32445	50.06
3.34112	50.05
3.35778	50.05
3.37445	50.04
3.39112	50.03
3.40778	50.03
3.42445	50.03
3.44112	50.03
3.45778	50.03
3.47445	50.04
3.49112	50.05
3.50778	50.05
3.52445	50.06
3.54112	50.06
3.55778	50.07
3.57445	50.08
3.59112	50.09
3.60778	50.09
3.62445	50.09
3.64112	50.09
3.65778	50.10
3.67445	50.09
3.69112	50.08
3.70778	50.07
3.72445	50.06
3.74112	50.05
3.75778	50.05
3.77445	50.05
3.79112	50.07
3.80778	50.07
3.82445	50.06
3.84112	50.06
3.85778	50.06
3.87445	50.06
3.89112	50.06
3.90778	50.05
3.92445	50.05
3.94112	50.05
3.95778	50.06
3.97445	50.07
3.99112	50.07

[Status Trace (Injection Unit Temperature)]
Interval(msec)	1000
# of Points	240
Start Time(min)	0.008
End Time(min)	3.991
Intensity Units	
Intensity Multiplier	1
R.Time (min)	Intensity
0.00778	99.98
0.02445	99.98
0.04112	99.98
0.05778	99.98
0.07445	99.98
0.09112	99.97
0.10778	99.98
0.12445	99.97
0.14112	99.98
0.15778	99.98
0.17445	99.98
0.19112	99.98
0.20778	99.98
0.22445	99.98
0.24112	99.98
0.25778	99.98
0.27445	99.98
0.29112	99.98
0.30778	99.98
0.32445	99.98
0.34112	99.98
0.35778	99.98
0.37445	99.98
0.39112	99.98
0.40778	99.98
0.42445	99.98
0.44112	99.98
0.45778	99.98
0.47445	99.98
0.49112	99.98
0.50778	99.99
0.52445	99.98
0.54112	99.98
0.55778	99.98
0.57445	99.98
0.59112	99.98
0.60778	99.98
0.62445	99.98
0.64112	99.98
0.65778	99.98
0.67445	99.98
0.69112	99.98
0.70778	99.98
0.72445	99.98
0.74112	99.98
0.75778	99.98
0.77445	99.97
0.79112	99.98
0.80778	99.98
0.82445	99.98
0.84112	99.98
0.85778	99.97
0.87445	99.98
0.89112	99.98
0.90778	99.98
0.92445	99.97
0.94112	99.98
0.95778	99.97
0.97445	99.97
0.99112	99.97
1.00778	99.97
1.02445	99.97
1.04112	99.97
1.05778	99.97
1.07445	99.97
1.09112	99.97
1.10778	99.98
1.12445	99.97
1.14112	99.97
1.15778	99.97
1.17445	99.97
1.19112	99.97
1.20778	99.97
1.22445	99.97
1.24112	99.98
1.25778	99.98
1.27445	99.97
1.29112	99.98
1.30778	99.98
1.32445	99.97
1.34112	99.97
1.35778	99.98
1.37445	99.98
1.39112	99.98
1.40778	99.98
1.42445	99.98
1.44112	99.98
1.45778	99.98
1.47445	99.98
1.49112	99.98
1.50778	99.98
1.52445	99.98
1.54112	99.98
1.55778	99.98
1.57445	99.99
1.59112	99.99
1.60778	99.98
1.62445	99.99
1.64112	99.99
1.65778	99.99
1.67445	99.99
1.69112	99.99
1.70778	99.99
1.72445	99.99
1.74112	99.98
1.75778	99.98
1.77445	99.98
1.79112	99.99
1.80778	99.98
1.82445	99.98
1.84112	99.98
1.85778	99.99
1.87445	99.99
1.89112	99.99
1.90778	99.98
1.92445	99.98
1.94112	99.98
1.95778	99.98
1.97445	99.98
1.99112	99.98
2.00778	99.98
2.02445	99.98
2.04112	99.98
2.05778	99.97
2.07445	99.97
2.09112	99.98
2.10778	99.97
2.12445	99.97
2.14112	99.97
2.15778	99.97
2.17445	99.97
2.19112	99.97
2.20778	99.97
2.22445	99.97
2.24112	99.97
2.25778	99.96
2.27445	99.96
2.29112	99.96
2.30778	99.96
2.32445	99.96
2.34112	99.96
2.35778	99.96
2.37445	99.96
2.39112	99.97
2.40778	99.96
2.42445	99.97
2.44112	99.96
2.45778	99.96
2.47445	99.96
2.49112	99.96
2.50778	99.97
2.52445	99.97
2.54112	99.97
2.55778	99.97
2.57445	99.97
2.59112	99.97
2.60778	99.97
2.62445	99.97
2.64112	99.97
2.65778	99.97
2.67445	99.97
2.69112	99.97
2.70778	99.98
2.72445	99.97
2.74112	99.98
2.75778	99.98
2.77445	99.97
2.79112	99.98
2.80778	99.98
2.82445	99.98
2.84112	99.99
2.85778	99.99
2.87445	99.99
2.89112	99.98
2.90778	100.00
2.92445	99.99
2.94112	100.00
2.95778	100.00
2.97445	100.00
2.99112	100.00
3.00778	100.00
3.02445	100.01
3.04112	100.00
3.05778	100.01
3.07445	100.01
3.09112	100.01
3.10778	100.01
3.12445	100.01
3.14112	100.02
3.15778	100.01
3.17445	100.02
3.19112	100.01
3.20778	100.02
3.22445	100.02
3.24112	100.02
3.25778	100.03
3.27445	100.03
3.29112	100.03
3.30778	100.03
3.32445	100.03
3.34112	100.03
3.35778	100.03
3.37445	100.03
3.39112	100.03
3.40778	100.03
3.42445	100.04
3.44112	100.04
3.45778	100.04
3.47445	100.04
3.49112	100.04
3.50778	100.04
3.52445	100.04
3.54112	100.04
3.55778	100.04
3.57445	100.04
3.59112	100.04
3.60778	100.04
3.62445	100.04
3.64112	100.05
3.65778	100.05
3.67445	100.05
3.69112	100.04
3.70778	100.05
3.72445	100.05
3.74112	100.05
3.75778	100.05
3.77445	100.05
3.79112	100.05
3.80778	100.05
3.82445	100.05
3.84112	100.05
3.85778	100.05
3.87445	100.05
3.89112	100.05
3.90778	100.05
3.92445	100.05
3.94112	100.04
3.95778	100.04
3.97445	100.04
3.99112	100.04

[Status Trace (Carrier Gas Pressure)]
Interval(msec)	1000
# of Points	240
Start Time(min)	0.008
End Time(min)	3.991
Intensity Units	
Intensity Multiplier	1
R.Time (min)	Intensity
0.00778	58.00
0.02445	55.39
0.04112	57.15
0.05778	59.20
0.07445	59.44
0.09112	58.06
0.10778	57.98
0.12445	58.01
0.14112	58.01
0.15778	58.01
0.17445	58.00
0.19112	58.00
0.20778	58.00
0.22445	58.00
0.24112	58.00
0.25778	58.00
0.27445	58.00
0.29112	58.00
0.30778	58.00
0.32445	58.00
0.34112	58.00
0.35778	58.00
0.37445	58.00
0.39112	58.00
0.40778	58.00
0.42445	58.00
0.44112	58.00
0.45778	58.00
0.47445	58.00
0.49112	58.00
0.50778	58.00
0.52445	58.00
0.54112	58.00
0.55778	58.00
0.57445	58.00
0.59112	58.00
0.60778	58.00
0.62445	58.00
0.64112	58.00
0.65778	58.00
0.67445	58.00
0.69112	58.00
0.70778	58.00
0.72445	58.00
0.74112	58.00
0.75778	58.00
0.77445	58.00
0.79112	58.00
0.80778	58.00
0.82445	58.00
0.84112	58.00
0.85778	58.00
0.87445	58.00
0.89112	58.00
0.90778	58.00
0.92445	58.00
0.94112	58.00
0.95778	58.00
0.97445	58.00
0.99112	58.00
1.00778	58.00
1.02445	58.00
1.04112	58.00
1.05778	58.00
1.07445	58.00
1.09112	58.00
1.10778	58.00
1.12445	58.00
1.14112	58.00
1.15778	58.00
1.17445	58.00
1.19112	58.00
1.20778	58.00
1.22445	58.00
1.24112	58.00
1.25778	58.00
1.27445	58.00
1.29112	58.00
1.30778	58.00
1.32445	58.00
1.34112	58.00
1.35778	58.00
1.37445	58.00
1.39112	58.00
1.40778	58.00
1.42445	58.00
1.44112	58.00
1.45778	58.00
1.47445	58.00
1.49112	58.00
1.50778	58.00
1.52445	58.00
1.54112	58.00
1.55778	58.00
1.57445	58.00
1.59112	58.00
1.60778	58.00
1.62445	58.00
1.64112	58.00
1.65778	58.00
1.67445	58.01
1.69112	58.01
1.70778	58.00
1.72445	58.00
1.74112	58.00
1.75778	58.00
1.77445	58.00
1.79112	58.00
1.80778	58.00
1.82445	58.00
1.84112	58.00
1.85778	58.00
1.87445	58.00
1.89112	58.00
1.90778	58.00
1.92445	58.00
1.94112	58.00
1.95778	58.00
1.97445	58.00
1.99112	58.00
2.00778	58.00
2.02445	58.00
2.04112	58.00
2.05778	58.00
2.07445	58.00
2.09112	58.00
2.10778	58.00
2.12445	58.00
2.14112	58.00
2.15778	58.00
2.17445	58.00
2.19112	58.00
2.20778	58.00
2.22445	58.00
2.24112	58.00
2.25778	58.00
2.27445	58.00
2.29112	58.00
2.30778	58.00
2.32445	58.00
2.34112	58.00
2.35778	58.00
2.37445	58.00
2.39112	57.99
2.40778	57.99
2.42445	58.00
2.44112	58.00
2.45778	58.00
2.47445	58.00
2.49112	58.00
2.50778	58.00
2.52445	57.99
2.54112	58.00
2.55778	58.00
2.57445	58.00
2.59112	58.00
2.60778	58.00
2.62445	58.00
2.64112	58.00
2.65778	58.00
2.67445	58.00
2.69112	58.00
2.70778	58.00
2.72445	58.00
2.74112	58.00
2.75778	58.00
2.77445	58.00
2.79112	58.00
2.80778	58.00
2.82445	58.00
2.84112	58.00
2.85778	58.00
2.87445	58.00
2.89112	58.00
2.90778	58.00
2.92445	58.00
2.94112	58.00
2.95778	58.00
2.97445	58.00
2.99112	58.00
3.00778	58.00
3.02445	58.00
3.04112	58.00
3.05778	58.00
3.07445	58.00
3.09112	58.00
3.10778	58.00
3.12445	58.00
3.14112	58.00
3.15778	58.00
3.17445	58.00
3.19112	58.00
3.20778	58.00
3.22445	58.00
3.24112	58.00
3.25778	58.00
3.27445	58.00
3.29112	58.00
3.30778	58.00
3.32445	58.00
3.34112	58.00
3.35778	58.00
3.37445	58.00
3.39112	58.00
3.40778	58.00
3.42445	58.00
3.44112	58.00
3.45778	58.00
3.47445	58.00
3.49112	58.00
3.50778	58.00
3.52445	58.00
3.54112	58.00
3.55778	58.00
3.57445	58.00
3.59112	58.00
3.60778	58.00
3.62445	58.00
3.64112	58.00
3.65778	58.00
3.67445	58.00
3.69112	58.00
3.70778	58.00
3.72445	58.00
3.74112	58.00
3.75778	58.00
3.77445	58.00
3.79112	58.00
3.80778	58.00
3.82445	58.00
3.84112	58.00
3.85778	58.00
3.87445	58.00
3.89112	58.00
3.90778	58.00
3.92445	58.00
3.94112	58.00
3.95778	58.00
3.97445	58.00
3.99112	58.00

[Status Trace (Carrier Gas Flow)]
Interval(msec)	1000
# of Points	240
Start Time(min)	0.008
End Time(min)	3.991
Intensity Units	
Intensity Multiplier	1
R.Time (min)	Intensity
0.00778	34.51
0.02445	34.53
0.04112	34.54
0.05778	34.55
0.07445	34.49
0.09112	34.52
0.10778	34.52
0.12445	34.52
0.14112	34.52
0.15778	34.52
0.17445	34.52
0.19112	34.52
0.20778	34.52
0.22445	34.51
0.24112	34.52
0.25778	34.52
0.27445	34.52
0.29112	34.52
0.30778	34.51
0.32445	34.52
0.34112	34.53
0.35778	34.52
0.37445	34.52
0.39112	34.52
0.40778	34.52
0.42445	34.52
0.44112	34.52
0.45778	34.51
0.47445	34.52
0.49112	34.52
0.50778	34.51
0.52445	34.51
0.54112	34.52
0.55778	34.52
0.57445	34.52
0.59112	34.52
0.60778	34.52
0.62445	34.51
0.64112	34.52
0.65778	34.52
0.67445	34.51
0.69112	34.52
0.70778	34.52
0.72445	34.52
0.74112	34.52
0.75778	34.52
0.77445	34.52
0.79112	34.51
0.80778	34.52
0.82445	34.51
0.84112	34.52
0.85778	34.52
0.87445	34.52
0.89112	34.52
0.90778	34.52
0.92445	34.52
0.94112	34.52
0.95778	34.52
0.97445	34.52
0.99112	34.52
1.00778	34.52
1.02445	34.51
1.04112	34.51
1.05778	34.52
1.07445	34.51
1.09112	34.52
1.10778	34.52
1.12445	34.52
1.14112	34.52
1.15778	34.52
1.17445	34.52
1.19112	34.52
1.20778	34.52
1.22445	34.52
1.24112	34.52
1.25778	34.52
1.27445	34.52
1.29112	34.52
1.30778	34.52
1.32445	34.51
1.34112	34.52
1.35778	34.52
1.37445	34.52
1.39112	34.52
1.40778	34.52
1.42445	34.51
1.44112	34.51
1.45778	34.52
1.47445	34.52
1.49112	34.52
1.50778	34.51
1.52445	34.52
1.54112	34.52
1.55778	34.51
1.57445	34.51
1.59112	34.52
1.60778	34.52
1.62445	34.52
1.64112	34.52
1.65778	34.52
1.67445	34.51
1.69112	34.52
1.70778	34.51
1.72445	34.52
1.74112	34.52
1.75778	34.52
1.77445	34.52
1.79112	34.51
1.80778	34.52
1.82445	34.53
1.84112	34.52
1.85778	34.52
1.87445	34.52
1.89112	34.52
1.90778	34.52
1.92445	34.52
1.94112	34.52
1.95778	34.52
1.97445	34.52
1.99112	34.52
2.00778	34.52
2.02445	34.51
2.04112	34.52
2.05778	34.52
2.07445	34.51
2.09112	34.52
2.10778	34.52
2.12445	34.51
2.14112	34.52
2.15778	34.52
2.17445	34.52
2.19112	34.52
2.20778	34.52
2.22445	34.52
2.24112	34.52
2.25778	34.52
2.27445	34.51
2.29112	34.52
2.30778	34.52
2.32445	34.52
2.34112	34.52
2.35778	34.52
2.37445	34.52
2.39112	34.52
2.40778	34.52
2.42445	34.52
2.44112	34.52
2.45778	34.52
2.47445	34.51
2.49112	34.52
2.50778	34.34
2.52445	34.52
2.54112	34.52
2.55778	34.52
2.57445	34.52
2.59112	34.52
2.60778	34.52
2.62445	34.52
2.64112	34.52
2.65778	34.51
2.67445	34.52
2.69112	34.52
2.70778	34.52
2.72445	34.52
2.74112	34.52
2.75778	34.52
2.77445	34.51
2.79112	34.52
2.80778	34.52
2.82445	34.52
2.84112	34.52
2.85778	34.52
2.87445	34.52
2.89112	34.52
2.90778	34.52
2.92445	34.52
2.94112	34.52
2.95778	34.52
2.97445	34.51
2.99112	34.51
3.00778	34.52
3.02445	34.52
3.04112	34.52
3.05778	34.51
3.07445	34.52
3.09112	34.52
3.10778	34.52
3.12445	34.52
3.14112	34.52
3.15778	34.52
3.17445	34.52
3.19112	34.52
3.20778	34.52
3.22445	34.51
3.24112	34.52
3.25778	34.52
3.27445	34.52
3.29112	34.51
3.30778	34.52
3.32445	34.52
3.34112	34.52
3.35778	34.51
3.37445	34.52
3.39112	34.52
3.40778	34.52
3.42445	34.52
3.44112	34.52
3.45778	34.52
3.47445	34.52
3.49112	34.52
3.50778	34.52
3.52445	34.52
3.54112	34.52
3.55778	34.52
3.57445	34.52
3.59112	34.51
3.60778	34.52
3.62445	34.52
3.64112	34.52
3.65778	34.52
3.67445	34.52
3.69112	34.52
3.70778	34.52
3.72445	34.51
3.74112	34.52
3.75778	34.52
3.77445	34.52
3.79112	34.52
3.80778	34.52
3.82445	34.52
3.84112	34.52
3.85778	34.52
3.87445	34.51
3.89112	34.52
3.90778	34.52
3.92445	34.52
3.94112	34.52
3.95778	34.52
3.97445	34.52
3.99112	34.52

[Status Trace (Column Flow)]
Interval(msec)	1000
# of Points	240
Start Time(min)	0.008
End Time(min)	3.991
Intensity Units	
Intensity Multiplier	1
R.Time (min)	Intensity
0.00778	5.51
0.02445	5.21
0.04112	5.41
0.05778	5.65
0.07445	5.68
0.09112	5.52
0.10778	5.51
0.12445	5.51
0.14112	5.51
0.15778	5.51
0.17445	5.51
0.19112	5.51
0.20778	5.51
0.22445	5.51
0.24112	5.51
0.25778	5.51
0.27445	5.51
0.29112	5.51
0.30778	5.51
0.32445	5.51
0.34112	5.51
0.35778	5.51
0.37445	5.51
0.39112	5.51
0.40778	5.51
0.42445	5.51
0.44112	5.51
0.45778	5.51
0.47445	5.51
0.49112	5.51
0.50778	5.51
0.52445	5.51
0.54112	5.51
0.55778	5.51
0.57445	5.51
0.59112	5.51
0.60778	5.51
0.62445	5.51
0.64112	5.51
0.65778	5.51
0.67445	5.51
0.69112	5.51
0.70778	5.51
0.72445	5.51
0.74112	5.51
0.75778	5.51
0.77445	5.51
0.79112	5.51
0.80778	5.51
0.82445	5.51
0.84112	5.51
0.85778	5.51
0.87445	5.51
0.89112	5.51
0.90778	5.51
0.92445	5.51
0.94112	5.51
0.95778	5.51
0.97445	5.51
0.99112	5.51
1.00778	5.51
1.02445	5.51
1.04112	5.51
1.05778	5.51
1.07445	5.51
1.09112	5.51
1.10778	5.51
1.12445	5.51
1.14112	5.51
1.15778	5.51
1.17445	5.51
1.19112	5.51
1.20778	5.51
1.22445	5.51
1.24112	5.51
1.25778	5.51
1.27445	5.51
1.29112	5.51
1.30778	5.51
1.32445	5.51
1.34112	5.51
1.35778	5.51
1.37445	5.51
1.39112	5.51
1.40778	5.51
1.42445	5.51
1.44112	5.51
1.45778	5.51
1.47445	5.51
1.49112	5.51
1.50778	5.51
1.52445	5.51
1.54112	5.51
1.55778	5.51
1.57445	5.51
1.59112	5.51
1.60778	5.51
1.62445	5.51
1.64112	5.50
1.65778	5.49
1.67445	5.48
1.69112	5.47
1.70778	5.46
1.72445	5.45
1.74112	5.44
1.75778	5.43
1.77445	5.42
1.79112	5.41
1.80778	5.40
1.82445	5.39
1.84112	5.38
1.85778	5.37
1.87445	5.36
1.89112	5.35
1.90778	5.34
1.92445	5.33
1.94112	5.32
1.95778	5.31
1.97445	5.30
1.99112	5.29
2.00778	5.28
2.02445	5.27
2.04112	5.26
2.05778	5.25
2.07445	5.24
2.09112	5.23
2.10778	5.23
2.12445	5.21
2.14112	5.21
2.15778	5.20
2.17445	5.19
2.19112	5.18
2.20778	5.17
2.22445	5.16
2.24112	5.15
2.25778	5.14
2.27445	5.13
2.29112	5.12
2.30778	5.11
2.32445	5.10
2.34112	5.09
2.35778	5.09
2.37445	5.08
2.39112	5.08
2.40778	5.08
2.42445	5.08
2.44112	5.08
2.45778	5.08
2.47445	5.08
2.49112	5.08
2.50778	5.08
2.52445	5.07
2.54112	5.08
2.55778	5.08
2.57445	5.08
2.59112	5.07
2.60778	5.07
2.62445	5.07
2.64112	5.07
2.65778	5.07
2.67445	5.07
2.69112	5.07
2.70778	5.07
2.72445	5.07
2.74112	5.07
2.75778	5.07
2.77445	5.07
2.79112	5.07
2.80778	5.07
2.82445	5.07
2.84112	5.07
2.85778	5.07
2.87445	5.07
2.89112	5.07
2.90778	5.07
2.92445	5.07
2.94112	5.07
2.95778	5.07
2.97445	5.07
2.99112	5.07
3.00778	5.07
3.02445	5.07
3.04112	5.07
3.05778	5.07
3.07445	5.07
3.09112	5.07
3.10778	5.07
3.12445	5.07
3.14112	5.07
3.15778	5.07
3.17445	5.07
3.19112	5.07
3.20778	5.07
3.22445	5.07
3.24112	5.07
3.25778	5.07
3.27445	5.07
3.29112	5.07
3.30778	5.07
3.32445	5.07
3.34112	5.07
3.35778	5.07
3.37445	5.07
3.39112	5.07
3.40778	5.07
3.42445	5.07
3.44112	5.07
3.45778	5.07
3.47445	5.07
3.49112	5.07
3.50778	5.07
3.52445	5.07
3.54112	5.07
3.55778	5.07
3.57445	5.07
3.59112	5.07
3.60778	5.07
3.62445	5.07
3.64112	5.07
3.65778	5.07
3.67445	5.07
3.69112	5.07
3.70778	5.07
3.72445	5.07
3.74112	5.07
3.75778	5.07
3.77445	5.07
3.79112	5.07
3.80778	5.07
3.82445	5.07
3.84112	5.07
3.85778	5.07
3.87445	5.07
3.89112	5.07
3.90778	5.07
3.92445	5.07
3.94112	5.07
3.95778	5.07
3.97445	5.07
3.99112	5.07

[Status Trace (Linear Velocity)]
Interval(msec)	1000
# of Points	240
Start Time(min)	0.008
End Time(min)	3.991
Intensity Units	
Intensity Multiplier	1
R.Time (min)	Intensity
0.00778	39.01
0.02445	37.30
0.04112	38.45
0.05778	39.79
0.07445	39.96
0.09112	39.05
0.10778	39.00
0.12445	39.02
0.14112	39.02
0.15778	39.02
0.17445	39.02
0.19112	39.02
0.20778	39.01
0.22445	39.01
0.24112	39.01
0.25778	39.01
0.27445	39.01
0.29112	39.01
0.30778	39.01
0.32445	39.01
0.34112	39.01
0.35778	39.01
0.37445	39.01
0.39112	39.01
0.40778	39.01
0.42445	39.02
0.44112	39.02
0.45778	39.02
0.47445	39.02
0.49112	39.02
0.50778	39.02
0.52445	39.02
0.54112	39.02
0.55778	39.02
0.57445	39.02
0.59112	39.02
0.60778	39.02
0.62445	39.01
0.64112	39.01
0.65778	39.01
0.67445	39.01
0.69112	39.01
0.70778	39.01
0.72445	39.01
0.74112	39.01
0.75778	39.01
0.77445	39.01
0.79112	39.01
0.80778	39.01
0.82445	39.02
0.84112	39.02
0.85778	39.02
0.87445	39.02
0.89112	39.02
0.90778	39.02
0.92445	39.02
0.94112	39.02
0.95778	39.02
0.97445	39.01
0.99112	39.01
1.00778	39.01
1.02445	39.01
1.04112	39.02
1.05778	39.02
1.07445	39.02
1.09112	39.02
1.10778	39.02
1.12445	39.02
1.14112	39.02
1.15778	39.02
1.17445	39.01
1.19112	39.01
1.20778	39.01
1.22445	39.01
1.24112	39.01
1.25778	39.02
1.27445	39.01
1.29112	39.01
1.30778	39.02
1.32445	39.02
1.34112	39.02
1.35778	39.02
1.37445	39.01
1.39112	39.01
1.40778	39.01
1.42445	39.01
1.44112	39.01
1.45778	39.01
1.47445	39.01
1.49112	39.01
1.50778	39.01
1.52445	39.01
1.54112	39.01
1.55778	39.01
1.57445	39.01
1.59112	39.01
1.60778	39.01
1.62445	39.00
1.64112	38.98
1.65778	38.96
1.67445	38.93
1.69112	38.89
1.70778	38.86
1.72445	38.82
1.74112	38.79
1.75778	38.76
1.77445	38.73
1.79112	38.70
1.80778	38.67
1.82445	38.63
1.84112	38.60
1.85778	38.57
1.87445	38.54
1.89112	38.51
1.90778	38.49
1.92445	38.45
1.94112	38.42
1.95778	38.39
1.97445	38.36
1.99112	38.33
2.00778	38.30
2.02445	38.27
2.04112	38.24
2.05778	38.21
2.07445	38.18
2.09112	38.15
2.10778	38.12
2.12445	38.09
2.14112	38.06
2.15778	38.03
2.17445	38.00
2.19112	37.97
2.20778	37.95
2.22445	37.91
2.24112	37.88
2.25778	37.86
2.27445	37.82
2.29112	37.79
2.30778	37.77
2.32445	37.73
2.34112	37.71
2.35778	37.68
2.37445	37.66
2.39112	37.66
2.40778	37.66
2.42445	37.66
2.44112	37.66
2.45778	37.66
2.47445	37.66
2.49112	37.65
2.50778	37.65
2.52445	37.64
2.54112	37.65
2.55778	37.65
2.57445	37.65
2.59112	37.65
2.60778	37.65
2.62445	37.65
2.64112	37.65
2.65778	37.64
2.67445	37.64
2.69112	37.64
2.70778	37.64
2.72445	37.64
2.74112	37.64
2.75778	37.64
2.77445	37.64
2.79112	37.64
2.80778	37.64
2.82445	37.64
2.84112	37.64
2.85778	37.64
2.87445	37.64
2.89112	37.64
2.90778	37.64
2.92445	37.64
2.94112	37.63
2.95778	37.63
2.97445	37.63
2.99112	37.63
3.00778	37.63
3.02445	37.63
3.04112	37.63
3.05778	37.62
3.07445	37.62
3.09112	37.62
3.10778	37.62
3.12445	37.62
3.14112	37.62
3.15778	37.62
3.17445	37.62
3.19112	37.62
3.20778	37.62
3.22445	37.62
3.24112	37.62
3.25778	37.62
3.27445	37.62
3.29112	37.62
3.30778	37.62
3.32445	37.63
3.34112	37.63
3.35778	37.63
3.37445	37.63
3.39112	37.63
3.40778	37.63
3.42445	37.63
3.44112	37.63
3.45778	37.63
3.47445	37.63
3.49112	37.63
3.50778	37.63
3.52445	37.63
3.54112	37.62
3.55778	37.62
3.57445	37.62
3.59112	37.62
3.60778	37.62
3.62445	37.62
3.64112	37.62
3.65778	37.62
3.67445	37.62
3.69112	37.62
3.70778	37.62
3.72445	37.63
3.74112	37.63
3.75778	37.63
3.77445	37.63
3.79112	37.62
3.80778	37.62
3.82445	37.62
3.84112	37.63
3.85778	37.63
3.87445	37.63
3.89112	37.63
3.90778	37.63
3.92445	37.63
3.94112	37.63
3.95778	37.63
3.97445	37.62
3.99112	37.62

