[Header]
Application Name	LabSolutions
Version	5.110
Data File Name	C:\Users\User\Desktop\GC Analyses\Jack\Nachusa Grasslands Sampling\T2 Timepoint July 12th\T2_07122022_038.gcd
Output Date	3/14/2023
Output Time	3:42:32 PM

[File Information]
Type	Data File
Generated	3/10/2023 4:36:01 PM
Generated by	System Administrator
Modified	3/10/2023 4:42:54 PM
Modified by	System Administrator

[Sample Information]
Operator Name	System Administrator
Acquired	3/10/2023 4:38:52 PM
Sample Type	0:Unknown
Level	0
Sample Name	038
Sample ID	038
ISTD Amount1	1
ISTD Amount2	1
ISTD Amount3	1
ISTD Amount4	1
ISTD Amount5	1
ISTD Amount6	1
ISTD Amount7	1
ISTD Amount8	1
ISTD Amount9	1
ISTD Amount10	1
ISTD Amount11	1
ISTD Amount12	1
ISTD Amount13	1
ISTD Amount14	1
ISTD Amount15	1
ISTD Amount16	1
ISTD Amount17	1
ISTD Amount18	1
ISTD Amount19	1
ISTD Amount20	1
ISTD Amount21	1
ISTD Amount22	1
ISTD Amount23	1
ISTD Amount24	1
ISTD Amount25	1
ISTD Amount26	1
ISTD Amount27	1
ISTD Amount28	1
ISTD Amount29	1
ISTD Amount30	1
ISTD Amount31	1
ISTD Amount32	1
Sample Amount	1
Dilution Factor	1
Vial#	37
Injection Volume	1
Injection Count	1
Bar Code	

[Original Files]
Data File	C:\Users\User\Desktop\GC Analyses\Jack\Nachusa Grasslands Sampling\T1 Timepoint July 12th\T2_07122022_038.gcd
Method File	C:\LabSolutions\Data\GHG_4min_2022\ghg3_togas_w_acet_4 min_new_int.gcm
Batch File	C:\LabSolutions\Data\AutoSamplerTesting\T2_07122022.gcb
Report Format File	c:\LabSolutions\System\DEFAULT.lsr

[File Description]


[Configuration]
Instrument Name	C0B7VH3-Instrument1
Instrument #	1
Line #	1
# of Detectors	3
Detector ID	DET#1	DET#2	DET#3
Detector Name	FID	PTCD	ECD
# of Channels	1	1	1

[Peak Table(Ch1)]
# of Peaks	3
Peak#	R.Time	I.Time	F.Time	Area	Height	A/H	Conc.	Mark	ID#	Name	k'	Plate #	Plate Ht.	Tailing	Resolution	Sep.Factor	Area Ratio	Height Ratio	Conc. %	Norm Conc.
1	1.476	1.439	1.538	29300	14007	2.092	206.860	   	1	CO	0.000	9487	15.810	1.288	0.000	0.000	0	0	30.077	30.077
2	1.567	1.538	1.626	4552	2202	2.067	88.022	 V 	2	CH4	0.062	10241	14.646	0.000	1.496	0.000	0	0	12.798	12.798
3	1.996	1.952	2.436	1565450	749381	2.089	392.886	   	3	CO2	0.353	17306	8.667	1.263	6.996	5.680	0	0	57.125	57.125

[Peak Table(Ch2)]
# of Peaks	0

[Peak Table(Ch3)]
# of Peaks	5
Peak#	R.Time	I.Time	F.Time	Area	Height	A/H	Conc.	Mark	ID#	Name	k'	Plate #	Plate Ht.	Tailing	Resolution	Sep.Factor	Area Ratio	Height Ratio	Conc. %	Norm Conc.
1	2.462	2.191	2.513	2550	627	4.068	0.000	   			0.000	8540	17.565	0.000	0.000	0.000	0	0	0.000	0.000
2	2.535	2.513	2.634	1413	340	4.150	0.000	 V 			0.030	4256	35.244	0.000	0.560	0.000	0	0	0.000	0.000
3	2.656	2.634	2.719	244	82	2.993	0.000	 V 			0.079	5744	26.116	0.000	0.819	2.650	0	0	0.000	0.000
4	2.876	2.766	3.030	19503	5077	3.842	0.498	   	1	N2O	0.168	13132	11.422	1.671	1.829	2.132	0	0	100.000	100.000
5	3.258	3.034	3.995	16344	449	36.378	0.000	   	2	SF6	0.323	175	857.591	2.107	0.702	1.920	0	0	0.000	0.000

[Compound Results(Ch1)]
# of IDs	6
ID#	Name	R.Time	Area	Height	Conc.	Curve	3rd	2nd	1st	Constant	Area Ratio	Height Ratio	Conc. %	Norm Conc.
1	CO	1.476	29300	14007	206.860	Linear	0.000000e+00	0.000000e+00	1.416423e+002	0.000000e+00	0	0	30.077	30.077
2	CH4	1.567	4552	2202	88.022	Linear	0.000000e+00	0.000000e+00	5.171738e+001	0.000000e+00	0	0	12.798	12.798
3	CO2	1.996	1565450	749381	392.886	Linear	0.000000e+00	0.000000e+00	3.984494e+003	0.000000e+00	0	0	57.125	57.125
4	Ethylene	0.000	0	0	0.000	Linear	0.000000e+00	0.000000e+00	0.000000e+00	0.000000e+00	0	0	0.000	0.000
5	Acetylene	0.000	0	0	0.000	Linear	0.000000e+00	0.000000e+00	0.000000e+00	0.000000e+00	0	0	0.000	0.000
6	Ethane	0.000	0	0	0.000	Linear	0.000000e+00	0.000000e+00	0.000000e+00	0.000000e+00	0	0	0.000	0.000

[Compound Results(Ch2)]
# of IDs	5
ID#	Name	R.Time	Area	Height	Conc.	Curve	3rd	2nd	1st	Constant	Area Ratio	Height Ratio	Conc. %	Norm Conc.
1	Hydrogen	0.000	0	0	0.000	Linear	0.000000e+00	0.000000e+00	0.000000e+00	0.000000e+00	0	0	0.000	0.000
2	Oxygen	0.000	0	0	0.000	Linear	0.000000e+00	0.000000e+00	0.000000e+00	0.000000e+00	0	0	0.000	0.000
3	Nitrogen	0.000	0	0	0.000	Linear	0.000000e+00	0.000000e+00	0.000000e+00	0.000000e+00	0	0	0.000	0.000
4	Methane	0.000	0	0	0.000	Linear	0.000000e+00	0.000000e+00	0.000000e+00	0.000000e+00	0	0	0.000	0.000
5	Carbon Monoxide	0.000	0	0	0.000	Linear	0.000000e+00	0.000000e+00	0.000000e+00	0.000000e+00	0	0	0.000	0.000

[Compound Results(Ch3)]
# of IDs	2
ID#	Name	R.Time	Area	Height	Conc.	Curve	3rd	2nd	1st	Constant	Area Ratio	Height Ratio	Conc. %	Norm Conc.
1	N2O	2.876	19503	5077	0.498	Linear	0.000000e+00	0.000000e+00	3.915173e+004	0.000000e+00	0	0	100.000	100.000
2	SF6	3.258	16344	449	0.000	Linear	0.000000e+00	0.000000e+00	0.000000e+00	0.000000e+00	0	0	0.000	0.000

[Group Results(Ch1)]
# of Groups	0

[Group Results(Ch2)]
# of Groups	0

[Group Results(Ch3)]
# of Groups	0

[Chromatogram (Ch1)]
Interval(msec)	220
# of Points	1091
Start Time(min)	0.002
End Time(min)	3.998
R.Time (min)	Intensity
0.00167	-17
0.00533	-26
0.00900	-29
0.01267	-26
0.01633	-19
0.02000	-11
0.02367	-2
0.02733	3
0.03100	8
0.03467	14
0.03833	19
0.04200	19
0.04567	17
0.04933	12
0.05300	8
0.05667	5
0.06033	6
0.06400	13
0.06767	21
0.07133	25
0.07500	26
0.07867	24
0.08233	24
0.08600	29
0.08967	35
0.09333	43
0.09700	49
0.10067	51
0.10433	49
0.10800	47
0.11167	49
0.11533	57
0.11900	61
0.12267	61
0.12633	57
0.13000	49
0.13367	35
0.13733	26
0.14100	20
0.14467	16
0.14833	12
0.15200	8
0.15567	5
0.15933	8
0.16300	14
0.16667	17
0.17033	15
0.17400	9
0.17767	1
0.18133	-7
0.18500	-12
0.18867	-13
0.19233	-12
0.19600	-6
0.19967	4
0.20333	10
0.20700	9
0.21067	4
0.21433	-3
0.21800	-5
0.22167	-1
0.22533	4
0.22900	1
0.23267	-6
0.23633	-12
0.24000	-16
0.24367	-17
0.24733	-17
0.25100	-17
0.25467	-14
0.25833	-11
0.26200	-13
0.26567	-18
0.26933	-24
0.27300	-26
0.27667	-20
0.28033	-12
0.28400	-9
0.28767	-9
0.29133	-9
0.29500	-9
0.29867	-6
0.30233	-3
0.30600	-7
0.30967	-11
0.31333	-16
0.31700	-16
0.32067	-10
0.32433	-5
0.32800	-7
0.33167	-14
0.33533	-18
0.33900	-23
0.34267	-27
0.34633	-28
0.35000	-25
0.35367	-24
0.35733	-25
0.36100	-24
0.36467	-18
0.36833	-11
0.37200	-7
0.37567	-9
0.37933	-13
0.38300	-14
0.38667	-13
0.39033	-12
0.39400	-14
0.39767	-19
0.40133	-24
0.40500	-26
0.40867	-27
0.41233	-25
0.41600	-20
0.41967	-13
0.42333	-11
0.42700	-12
0.43067	-14
0.43433	-19
0.43800	-24
0.44167	-28
0.44533	-32
0.44900	-36
0.45267	-37
0.45633	-37
0.46000	-39
0.46367	-43
0.46733	-41
0.47100	-36
0.47467	-32
0.47833	-30
0.48200	-29
0.48567	-29
0.48933	-27
0.49300	-24
0.49667	-23
0.50033	-25
0.50400	-25
0.50767	-25
0.51133	-25
0.51500	-27
0.51867	-27
0.52233	-27
0.52600	-25
0.52967	-22
0.53333	-27
0.53700	-30
0.54067	-26
0.54433	-19
0.54800	-15
0.55167	-17
0.55533	-17
0.55900	-14
0.56267	-15
0.56633	-20
0.57000	-26
0.57367	-32
0.57733	-34
0.58100	-32
0.58467	-30
0.58833	-24
0.59200	-19
0.59567	-16
0.59933	-14
0.60300	-15
0.60667	-14
0.61033	-10
0.61400	-8
0.61767	-9
0.62133	-8
0.62500	-3
0.62867	4
0.63233	14
0.63600	21
0.63967	27
0.64333	29
0.64700	29
0.65067	26
0.65433	23
0.65800	22
0.66167	25
0.66533	30
0.66900	30
0.67267	25
0.67633	17
0.68000	9
0.68367	5
0.68733	6
0.69100	8
0.69467	7
0.69833	6
0.70200	5
0.70567	6
0.70933	9
0.71300	12
0.71667	15
0.72033	18
0.72400	18
0.72767	16
0.73133	13
0.73500	13
0.73867	15
0.74233	19
0.74600	21
0.74967	20
0.75333	19
0.75700	17
0.76067	13
0.76433	9
0.76800	8
0.77167	7
0.77533	9
0.77900	12
0.78267	17
0.78633	20
0.79000	20
0.79367	18
0.79733	18
0.80100	19
0.80467	15
0.80833	8
0.81200	4
0.81567	3
0.81933	4
0.82300	7
0.82667	9
0.83033	10
0.83400	9
0.83767	6
0.84133	3
0.84500	4
0.84867	10
0.85233	14
0.85600	15
0.85967	11
0.86333	7
0.86700	3
0.87067	0
0.87433	-1
0.87800	-1
0.88167	1
0.88533	2
0.88900	3
0.89267	1
0.89633	-2
0.90000	-5
0.90367	-8
0.90733	-15
0.91100	-23
0.91467	-30
0.91833	-36
0.92200	-39
0.92567	-37
0.92933	-29
0.93300	-19
0.93667	-11
0.94033	-7
0.94400	-8
0.94767	-11
0.95133	-14
0.95500	-15
0.95867	-14
0.96233	-17
0.96600	-24
0.96967	-26
0.97333	-27
0.97700	-25
0.98067	-19
0.98433	-14
0.98800	-13
0.99167	-20
0.99533	-27
0.99900	-26
1.00267	-24
1.00633	-22
1.01000	-17
1.01367	-9
1.01733	-4
1.02100	2
1.02467	4
1.02833	-1
1.03200	-10
1.03567	-19
1.03933	-20
1.04300	-18
1.04667	-17
1.05033	-21
1.05400	-28
1.05767	-36
1.06133	-42
1.06500	-48
1.06867	-53
1.07233	-54
1.07600	-49
1.07967	-44
1.08333	-39
1.08700	-35
1.09067	-31
1.09433	-28
1.09800	-27
1.10167	-24
1.10533	-20
1.10900	-13
1.11267	-9
1.11633	-6
1.12000	-5
1.12367	-9
1.12733	-13
1.13100	-15
1.13467	-17
1.13833	-19
1.14200	-20
1.14567	-19
1.14933	-20
1.15300	-17
1.15667	-15
1.16033	-17
1.16400	-20
1.16767	-22
1.17133	-20
1.17500	-21
1.17867	-28
1.18233	-38
1.18600	-47
1.18967	-49
1.19333	-45
1.19700	-40
1.20067	-37
1.20433	-34
1.20800	-31
1.21167	-30
1.21533	-35
1.21900	-41
1.22267	-48
1.22633	-53
1.23000	-52
1.23367	-45
1.23733	-34
1.24100	-27
1.24467	-30
1.24833	-36
1.25200	-37
1.25567	-36
1.25933	-35
1.26300	-35
1.26667	-36
1.27033	-36
1.27400	-35
1.27767	-39
1.28133	-48
1.28500	-54
1.28867	-59
1.29233	-62
1.29600	-62
1.29967	-57
1.30333	-53
1.30700	-52
1.31067	-54
1.31433	-59
1.31800	-63
1.32167	-60
1.32533	-54
1.32900	-45
1.33267	-44
1.33633	-50
1.34000	-55
1.34367	-59
1.34733	-63
1.35100	-65
1.35467	-64
1.35833	-61
1.36200	-57
1.36567	-52
1.36933	-44
1.37300	-34
1.37667	-23
1.38033	-19
1.38400	-24
1.38767	-35
1.39133	-48
1.39500	-58
1.39867	-63
1.40233	-67
1.40600	-71
1.40967	-74
1.41333	-70
1.41700	-60
1.42067	-49
1.42433	-41
1.42800	-41
1.43167	-48
1.43533	-53
1.43900	-33
1.44267	69
1.44633	326
1.45000	986
1.45367	2474
1.45733	4834
1.46100	7572
1.46467	10123
1.46833	12144
1.47200	13472
1.47567	13976
1.47933	13547
1.48300	12230
1.48667	10306
1.49033	8182
1.49400	6202
1.49767	4548
1.50133	3265
1.50500	2319
1.50867	1645
1.51233	1174
1.51600	850
1.51967	626
1.52333	475
1.52700	373
1.53067	306
1.53433	261
1.53800	243
1.54167	287
1.54533	454
1.54900	765
1.55267	1159
1.55633	1549
1.56000	1867
1.56367	2084
1.56733	2178
1.57100	2120
1.57467	1911
1.57833	1593
1.58200	1240
1.58567	917
1.58933	650
1.59300	441
1.59667	293
1.60033	197
1.60400	136
1.60767	96
1.61133	64
1.61500	34
1.61867	7
1.62233	-11
1.62600	-20
1.62967	-24
1.63333	-25
1.63700	-29
1.64067	-37
1.64433	-48
1.64800	-58
1.65167	-60
1.65533	-56
1.65900	-52
1.66267	-50
1.66633	-50
1.67000	-54
1.67367	-58
1.67733	-61
1.68100	-59
1.68467	-55
1.68833	-56
1.69200	-61
1.69567	-69
1.69933	-72
1.70300	-73
1.70667	-72
1.71033	-67
1.71400	-58
1.71767	-47
1.72133	-41
1.72500	-42
1.72867	-48
1.73233	-53
1.73600	-56
1.73967	-58
1.74333	-56
1.74700	-56
1.75067	-60
1.75433	-67
1.75800	-71
1.76167	-71
1.76533	-72
1.76900	-77
1.77267	-83
1.77633	-87
1.78000	-88
1.78367	-85
1.78733	-78
1.79100	-70
1.79467	-70
1.79833	-69
1.80200	-67
1.80567	-67
1.80933	-65
1.81300	-59
1.81667	-54
1.82033	-53
1.82400	-57
1.82767	-60
1.83133	-59
1.83500	-58
1.83867	-53
1.84233	-51
1.84600	-55
1.84967	-59
1.85333	-61
1.85700	-58
1.86067	-59
1.86433	-64
1.86800	-66
1.87167	-64
1.87533	-63
1.87900	-61
1.88267	-59
1.88633	-60
1.89000	-66
1.89367	-70
1.89733	-69
1.90100	-66
1.90467	-68
1.90833	-68
1.91200	-68
1.91567	-65
1.91933	-62
1.92300	-58
1.92667	-54
1.93033	-51
1.93400	-43
1.93767	-36
1.94133	-37
1.94500	-44
1.94867	-47
1.95233	-27
1.95600	141
1.95967	1116
1.96333	5349
1.96700	19327
1.97067	54921
1.97433	125446
1.97800	235269
1.98167	372752
1.98533	514509
1.98900	635909
1.99267	718061
1.99633	749394
2.00000	726798
2.00367	657264
2.00733	556588
2.01100	444350
2.01467	337637
2.01833	246930
2.02200	175848
2.02567	123299
2.02933	85995
2.03300	60218
2.03667	42700
2.04033	30886
2.04400	22920
2.04767	17512
2.05133	13795
2.05500	11200
2.05867	9343
2.06233	7974
2.06600	6942
2.06967	6141
2.07333	5504
2.07700	4990
2.08067	4568
2.08433	4218
2.08800	3921
2.09167	3660
2.09533	3432
2.09900	3234
2.10267	3054
2.10633	2888
2.11000	2737
2.11367	2602
2.11733	2478
2.12100	2364
2.12467	2256
2.12833	2156
2.13200	2067
2.13567	1985
2.13933	1910
2.14300	1841
2.14667	1779
2.15033	1720
2.15400	1657
2.15767	1597
2.16133	1542
2.16500	1487
2.16867	1435
2.17233	1392
2.17600	1357
2.17967	1325
2.18333	1291
2.18700	1254
2.19067	1216
2.19433	1178
2.19800	1148
2.20167	1121
2.20533	1091
2.20900	1061
2.21267	1032
2.21633	1000
2.22000	974
2.22367	955
2.22733	938
2.23100	920
2.23467	905
2.23833	890
2.24200	874
2.24567	861
2.24933	851
2.25300	842
2.25667	823
2.26033	799
2.26400	778
2.26767	758
2.27133	743
2.27500	726
2.27867	706
2.28233	689
2.28600	675
2.28967	665
2.29333	653
2.29700	639
2.30067	622
2.30433	605
2.30800	593
2.31167	586
2.31533	580
2.31900	570
2.32267	558
2.32633	546
2.33000	537
2.33367	532
2.33733	527
2.34100	520
2.34467	512
2.34833	504
2.35200	495
2.35567	485
2.35933	480
2.36300	478
2.36667	479
2.37033	482
2.37400	481
2.37767	476
2.38133	469
2.38500	456
2.38867	442
2.39233	431
2.39600	426
2.39967	424
2.40333	424
2.40700	426
2.41067	427
2.41433	425
2.41800	422
2.42167	421
2.42533	418
2.42900	416
2.43267	417
2.43633	411
2.44000	402
2.44367	393
2.44733	383
2.45100	375
2.45467	371
2.45833	369
2.46200	370
2.46567	370
2.46933	372
2.47300	375
2.47667	370
2.48033	361
2.48400	351
2.48767	343
2.49133	337
2.49500	331
2.49867	324
2.50233	317
2.50600	313
2.50967	312
2.51333	315
2.51700	317
2.52067	312
2.52433	308
2.52800	310
2.53167	314
2.53533	314
2.53900	314
2.54267	315
2.54633	313
2.55000	307
2.55367	301
2.55733	296
2.56100	294
2.56467	297
2.56833	302
2.57200	305
2.57567	301
2.57933	298
2.58300	300
2.58667	303
2.59033	305
2.59400	310
2.59767	316
2.60133	321
2.60500	324
2.60867	327
2.61233	328
2.61600	325
2.61967	318
2.62333	303
2.62700	289
2.63067	278
2.63433	269
2.63800	265
2.64167	267
2.64533	276
2.64900	283
2.65267	288
2.65633	291
2.66000	294
2.66367	296
2.66733	295
2.67100	290
2.67467	283
2.67833	273
2.68200	266
2.68567	260
2.68933	255
2.69300	255
2.69667	257
2.70033	261
2.70400	264
2.70767	264
2.71133	264
2.71500	265
2.71867	269
2.72233	271
2.72600	269
2.72967	267
2.73333	268
2.73700	268
2.74067	271
2.74433	279
2.74800	285
2.75167	286
2.75533	284
2.75900	282
2.76267	278
2.76633	272
2.77000	264
2.77367	261
2.77733	261
2.78100	264
2.78467	271
2.78833	276
2.79200	278
2.79567	273
2.79933	263
2.80300	253
2.80667	249
2.81033	254
2.81400	267
2.81767	277
2.82133	277
2.82500	271
2.82867	263
2.83233	258
2.83600	257
2.83967	256
2.84333	253
2.84700	252
2.85067	252
2.85433	249
2.85800	246
2.86167	243
2.86533	240
2.86900	239
2.87267	242
2.87633	244
2.88000	244
2.88367	244
2.88733	246
2.89100	254
2.89467	263
2.89833	271
2.90200	279
2.90567	285
2.90933	292
2.91300	292
2.91667	286
2.92033	276
2.92400	270
2.92767	266
2.93133	262
2.93500	260
2.93867	263
2.94233	272
2.94600	285
2.94967	298
2.95333	304
2.95700	301
2.96067	292
2.96433	282
2.96800	271
2.97167	260
2.97533	250
2.97900	243
2.98267	241
2.98633	245
2.99000	252
2.99367	260
2.99733	267
3.00100	272
3.00467	277
3.00833	279
3.01200	278
3.01567	273
3.01933	268
3.02300	262
3.02667	259
3.03033	263
3.03400	269
3.03767	274
3.04133	280
3.04500	282
3.04867	282
3.05233	283
3.05600	283
3.05967	281
3.06333	281
3.06700	277
3.07067	269
3.07433	259
3.07800	252
3.08167	250
3.08533	251
3.08900	253
3.09267	255
3.09633	251
3.10000	246
3.10367	242
3.10733	239
3.11100	235
3.11467	227
3.11833	220
3.12200	217
3.12567	214
3.12933	214
3.13300	222
3.13667	231
3.14033	237
3.14400	245
3.14767	255
3.15133	263
3.15500	268
3.15867	268
3.16233	265
3.16600	264
3.16967	261
3.17333	254
3.17700	248
3.18067	240
3.18433	234
3.18800	230
3.19167	231
3.19533	236
3.19900	242
3.20267	246
3.20633	246
3.21000	244
3.21367	241
3.21733	240
3.22100	241
3.22467	242
3.22833	241
3.23200	241
3.23567	243
3.23933	244
3.24300	244
3.24667	243
3.25033	243
3.25400	242
3.25767	237
3.26133	237
3.26500	238
3.26867	238
3.27233	237
3.27600	235
3.27967	232
3.28333	231
3.28700	234
3.29067	241
3.29433	247
3.29800	244
3.30167	236
3.30533	233
3.30900	233
3.31267	231
3.31633	228
3.32000	227
3.32367	229
3.32733	234
3.33100	241
3.33467	243
3.33833	246
3.34200	249
3.34567	248
3.34933	242
3.35300	235
3.35667	227
3.36033	221
3.36400	212
3.36767	203
3.37133	201
3.37500	209
3.37867	218
3.38233	221
3.38600	219
3.38967	216
3.39333	212
3.39700	207
3.40067	207
3.40433	209
3.40800	216
3.41167	224
3.41533	224
3.41900	218
3.42267	214
3.42633	214
3.43000	211
3.43367	206
3.43733	204
3.44100	204
3.44467	206
3.44833	208
3.45200	209
3.45567	207
3.45933	204
3.46300	201
3.46667	200
3.47033	203
3.47400	207
3.47767	208
3.48133	208
3.48500	205
3.48867	204
3.49233	203
3.49600	205
3.49967	211
3.50333	209
3.50700	204
3.51067	202
3.51433	200
3.51800	198
3.52167	193
3.52533	187
3.52900	182
3.53267	178
3.53633	178
3.54000	186
3.54367	194
3.54733	198
3.55100	200
3.55467	203
3.55833	208
3.56200	211
3.56567	211
3.56933	212
3.57300	210
3.57667	203
3.58033	194
3.58400	186
3.58767	177
3.59133	171
3.59500	169
3.59867	170
3.60233	170
3.60600	174
3.60967	179
3.61333	187
3.61700	192
3.62067	192
3.62433	193
3.62800	194
3.63167	196
3.63533	191
3.63900	182
3.64267	177
3.64633	174
3.65000	175
3.65367	176
3.65733	174
3.66100	170
3.66467	168
3.66833	168
3.67200	171
3.67567	171
3.67933	170
3.68300	173
3.68667	176
3.69033	176
3.69400	173
3.69767	169
3.70133	168
3.70500	166
3.70867	163
3.71233	160
3.71600	158
3.71967	156
3.72333	155
3.72700	154
3.73067	155
3.73433	156
3.73800	152
3.74167	150
3.74533	151
3.74900	151
3.75267	148
3.75633	143
3.76000	137
3.76367	134
3.76733	135
3.77100	138
3.77467	145
3.77833	156
3.78200	163
3.78567	159
3.78933	156
3.79300	157
3.79667	160
3.80033	159
3.80400	158
3.80767	159
3.81133	163
3.81500	169
3.81867	172
3.82233	169
3.82600	161
3.82967	154
3.83333	154
3.83700	158
3.84067	161
3.84433	166
3.84800	170
3.85167	162
3.85533	141
3.85900	116
3.86267	99
3.86633	92
3.87000	92
3.87367	94
3.87733	97
3.88100	99
3.88467	100
3.88833	104
3.89200	110
3.89567	114
3.89933	115
3.90300	118
3.90667	122
3.91033	123
3.91400	124
3.91767	125
3.92133	124
3.92500	124
3.92867	125
3.93233	124
3.93600	123
3.93967	125
3.94333	131
3.94700	142
3.95067	154
3.95433	163
3.95800	170
3.96167	172
3.96533	168
3.96900	159
3.97267	144
3.97633	129
3.98000	122
3.98367	120
3.98733	115
3.99100	106
3.99467	96
3.99833	89

[Chromatogram (Ch2)]
Interval(msec)	220
# of Points	1091
Start Time(min)	0.002
End Time(min)	3.998
R.Time (min)	Intensity
0.00167	-0
0.00533	-0
0.00900	-1
0.01267	-1
0.01633	-1
0.02000	-1
0.02367	-1
0.02733	-1
0.03100	-1
0.03467	-0
0.03833	-0
0.04200	0
0.04567	0
0.04933	0
0.05300	0
0.05667	1
0.06033	1
0.06400	1
0.06767	1
0.07133	2
0.07500	2
0.07867	2
0.08233	2
0.08600	3
0.08967	3
0.09333	3
0.09700	3
0.10067	3
0.10433	3
0.10800	3
0.11167	3
0.11533	2
0.11900	2
0.12267	1
0.12633	1
0.13000	0
0.13367	-0
0.13733	-1
0.14100	-1
0.14467	-2
0.14833	-2
0.15200	-3
0.15567	-3
0.15933	-3
0.16300	-3
0.16667	-3
0.17033	-3
0.17400	-3
0.17767	-3
0.18133	-3
0.18500	-3
0.18867	-3
0.19233	-2
0.19600	-2
0.19967	-2
0.20333	-2
0.20700	-2
0.21067	-2
0.21433	-2
0.21800	-1
0.22167	-1
0.22533	-1
0.22900	-1
0.23267	-1
0.23633	-1
0.24000	-1
0.24367	-1
0.24733	-1
0.25100	-1
0.25467	-1
0.25833	-0
0.26200	-0
0.26567	-0
0.26933	-0
0.27300	-0
0.27667	-1
0.28033	-1
0.28400	-2
0.28767	-2
0.29133	-2
0.29500	-3
0.29867	-3
0.30233	-3
0.30600	-4
0.30967	-4
0.31333	-4
0.31700	-4
0.32067	-4
0.32433	-4
0.32800	-4
0.33167	-3
0.33533	-3
0.33900	-3
0.34267	-3
0.34633	-4
0.35000	-4
0.35367	-4
0.35733	-4
0.36100	-4
0.36467	-4
0.36833	-4
0.37200	-4
0.37567	-4
0.37933	-3
0.38300	-3
0.38667	-2
0.39033	-2
0.39400	-1
0.39767	-1
0.40133	-1
0.40500	-0
0.40867	-0
0.41233	-0
0.41600	-0
0.41967	-0
0.42333	-0
0.42700	-0
0.43067	0
0.43433	1
0.43800	1
0.44167	2
0.44533	2
0.44900	2
0.45267	3
0.45633	3
0.46000	3
0.46367	3
0.46733	3
0.47100	3
0.47467	2
0.47833	2
0.48200	1
0.48567	0
0.48933	-0
0.49300	-1
0.49667	-1
0.50033	-1
0.50400	-2
0.50767	-2
0.51133	-2
0.51500	-2
0.51867	-2
0.52233	-2
0.52600	-2
0.52967	-1
0.53333	-1
0.53700	-1
0.54067	-1
0.54433	-1
0.54800	-1
0.55167	-1
0.55533	-1
0.55900	-2
0.56267	-2
0.56633	-2
0.57000	-2
0.57367	-2
0.57733	-2
0.58100	-2
0.58467	-3
0.58833	-3
0.59200	-3
0.59567	-3
0.59933	-3
0.60300	-3
0.60667	-3
0.61033	-4
0.61400	-4
0.61767	-4
0.62133	-4
0.62500	-4
0.62867	-3
0.63233	-3
0.63600	-3
0.63967	-3
0.64333	-3
0.64700	-3
0.65067	-3
0.65433	-3
0.65800	-3
0.66167	-3
0.66533	-3
0.66900	-3
0.67267	-3
0.67633	-3
0.68000	-3
0.68367	-3
0.68733	-2
0.69100	-3
0.69467	-3
0.69833	-3
0.70200	-3
0.70567	-3
0.70933	-2
0.71300	-2
0.71667	-1
0.72033	-1
0.72400	-1
0.72767	-1
0.73133	-1
0.73500	-1
0.73867	-1
0.74233	-1
0.74600	-1
0.74967	-1
0.75333	-2
0.75700	-2
0.76067	-2
0.76433	-2
0.76800	-2
0.77167	-1
0.77533	-1
0.77900	-1
0.78267	-1
0.78633	-1
0.79000	-1
0.79367	-0
0.79733	-0
0.80100	0
0.80467	0
0.80833	1
0.81200	1
0.81567	1
0.81933	1
0.82300	0
0.82667	0
0.83033	0
0.83400	-0
0.83767	-0
0.84133	-0
0.84500	-1
0.84867	-1
0.85233	-1
0.85600	-1
0.85967	-2
0.86333	-2
0.86700	-2
0.87067	-3
0.87433	-3
0.87800	-3
0.88167	-3
0.88533	-3
0.88900	-4
0.89267	-4
0.89633	-4
0.90000	-3
0.90367	-3
0.90733	-3
0.91100	-3
0.91467	-3
0.91833	-3
0.92200	-3
0.92567	-3
0.92933	-3
0.93300	-3
0.93667	-3
0.94033	-3
0.94400	-3
0.94767	-3
0.95133	-3
0.95500	-3
0.95867	-3
0.96233	-3
0.96600	-3
0.96967	-3
0.97333	-3
0.97700	-3
0.98067	-3
0.98433	-3
0.98800	-2
0.99167	-1
0.99533	-1
0.99900	-1
1.00267	-0
1.00633	-0
1.01000	-0
1.01367	-0
1.01733	-1
1.02100	-1
1.02467	-1
1.02833	-1
1.03200	-1
1.03567	-1
1.03933	-2
1.04300	-2
1.04667	-2
1.05033	-2
1.05400	-2
1.05767	-2
1.06133	-3
1.06500	-2
1.06867	-2
1.07233	-2
1.07600	-3
1.07967	-3
1.08333	-2
1.08700	-2
1.09067	-3
1.09433	-3
1.09800	-3
1.10167	-3
1.10533	-3
1.10900	-3
1.11267	-3
1.11633	-3
1.12000	-3
1.12367	-3
1.12733	-2
1.13100	-2
1.13467	-2
1.13833	-2
1.14200	-2
1.14567	-2
1.14933	-2
1.15300	-2
1.15667	-2
1.16033	-2
1.16400	-2
1.16767	-2
1.17133	-2
1.17500	-2
1.17867	-2
1.18233	-2
1.18600	-2
1.18967	-2
1.19333	-3
1.19700	-3
1.20067	-3
1.20433	-3
1.20800	-3
1.21167	-3
1.21533	-3
1.21900	-3
1.22267	-3
1.22633	-3
1.23000	-3
1.23367	-3
1.23733	-3
1.24100	-3
1.24467	-3
1.24833	-3
1.25200	-3
1.25567	-3
1.25933	-3
1.26300	-3
1.26667	-3
1.27033	-3
1.27400	-3
1.27767	-3
1.28133	-3
1.28500	-3
1.28867	-3
1.29233	-3
1.29600	-3
1.29967	-3
1.30333	-3
1.30700	-3
1.31067	-3
1.31433	-3
1.31800	-3
1.32167	-2
1.32533	-2
1.32900	-2
1.33267	-1
1.33633	-1
1.34000	-1
1.34367	-1
1.34733	-1
1.35100	-1
1.35467	-1
1.35833	-1
1.36200	-1
1.36567	-0
1.36933	-0
1.37300	0
1.37667	0
1.38033	0
1.38400	1
1.38767	1
1.39133	1
1.39500	1
1.39867	1
1.40233	1
1.40600	0
1.40967	-0
1.41333	-1
1.41700	-1
1.42067	-2
1.42433	-2
1.42800	-3
1.43167	-3
1.43533	-3
1.43900	-4
1.44267	-4
1.44633	-4
1.45000	-4
1.45367	-4
1.45733	-4
1.46100	-4
1.46467	-3
1.46833	-3
1.47200	-4
1.47567	-4
1.47933	-4
1.48300	-3
1.48667	-3
1.49033	-3
1.49400	-3
1.49767	-2
1.50133	-2
1.50500	-2
1.50867	-2
1.51233	-2
1.51600	-3
1.51967	-3
1.52333	-3
1.52700	-3
1.53067	-3
1.53433	-3
1.53800	-3
1.54167	-3
1.54533	-3
1.54900	-3
1.55267	-3
1.55633	-4
1.56000	-4
1.56367	-4
1.56733	-4
1.57100	-4
1.57467	-4
1.57833	-4
1.58200	-4
1.58567	-3
1.58933	-3
1.59300	-3
1.59667	-3
1.60033	-4
1.60400	-5
1.60767	-6
1.61133	-7
1.61500	-9
1.61867	-12
1.62233	-14
1.62600	-17
1.62967	-20
1.63333	-23
1.63700	-26
1.64067	-30
1.64433	-33
1.64800	-37
1.65167	-41
1.65533	-44
1.65900	-49
1.66267	-53
1.66633	-58
1.67000	-63
1.67367	-69
1.67733	-75
1.68100	-80
1.68467	-86
1.68833	-90
1.69200	-94
1.69567	-97
1.69933	-100
1.70300	-102
1.70667	-103
1.71033	-104
1.71400	-105
1.71767	-106
1.72133	-106
1.72500	-106
1.72867	-106
1.73233	-105
1.73600	-105
1.73967	-105
1.74333	-105
1.74700	-104
1.75067	-105
1.75433	-105
1.75800	-106
1.76167	-108
1.76533	-109
1.76900	-111
1.77267	-112
1.77633	-113
1.78000	-114
1.78367	-115
1.78733	-115
1.79100	-116
1.79467	-116
1.79833	-116
1.80200	-116
1.80567	-116
1.80933	-116
1.81300	-116
1.81667	-116
1.82033	-116
1.82400	-116
1.82767	-116
1.83133	-116
1.83500	-115
1.83867	-114
1.84233	-113
1.84600	-112
1.84967	-111
1.85333	-111
1.85700	-111
1.86067	-111
1.86433	-111
1.86800	-112
1.87167	-112
1.87533	-112
1.87900	-113
1.88267	-113
1.88633	-113
1.89000	-114
1.89367	-114
1.89733	-114
1.90100	-114
1.90467	-114
1.90833	-113
1.91200	-113
1.91567	-112
1.91933	-112
1.92300	-112
1.92667	-112
1.93033	-112
1.93400	-112
1.93767	-113
1.94133	-113
1.94500	-113
1.94867	-113
1.95233	-112
1.95600	-111
1.95967	-111
1.96333	-110
1.96700	-109
1.97067	-109
1.97433	-109
1.97800	-109
1.98167	-109
1.98533	-109
1.98900	-109
1.99267	-109
1.99633	-109
2.00000	-109
2.00367	-109
2.00733	-109
2.01100	-109
2.01467	-110
2.01833	-110
2.02200	-110
2.02567	-109
2.02933	-108
2.03300	-108
2.03667	-107
2.04033	-106
2.04400	-105
2.04767	-105
2.05133	-104
2.05500	-103
2.05867	-103
2.06233	-103
2.06600	-103
2.06967	-103
2.07333	-102
2.07700	-102
2.08067	-102
2.08433	-102
2.08800	-102
2.09167	-102
2.09533	-102
2.09900	-102
2.10267	-101
2.10633	-100
2.11000	-99
2.11367	-98
2.11733	-98
2.12100	-97
2.12467	-97
2.12833	-97
2.13200	-97
2.13567	-97
2.13933	-97
2.14300	-96
2.14667	-96
2.15033	-96
2.15400	-95
2.15767	-96
2.16133	-96
2.16500	-96
2.16867	-95
2.17233	-95
2.17600	-95
2.17967	-94
2.18333	-93
2.18700	-93
2.19067	-92
2.19433	-92
2.19800	-91
2.20167	-91
2.20533	-90
2.20900	-90
2.21267	-89
2.21633	-90
2.22000	-90
2.22367	-90
2.22733	-90
2.23100	-90
2.23467	-90
2.23833	-90
2.24200	-90
2.24567	-90
2.24933	-89
2.25300	-89
2.25667	-88
2.26033	-87
2.26400	-86
2.26767	-86
2.27133	-85
2.27500	-85
2.27867	-85
2.28233	-86
2.28600	-86
2.28967	-86
2.29333	-86
2.29700	-86
2.30067	-85
2.30433	-85
2.30800	-85
2.31167	-84
2.31533	-84
2.31900	-84
2.32267	-83
2.32633	-82
2.33000	-81
2.33367	-80
2.33733	-79
2.34100	-78
2.34467	-78
2.34833	-77
2.35200	-78
2.35567	-78
2.35933	-78
2.36300	-78
2.36667	-77
2.37033	-76
2.37400	-74
2.37767	-71
2.38133	-68
2.38500	-64
2.38867	-59
2.39233	-55
2.39600	-50
2.39967	-45
2.40333	-40
2.40700	-36
2.41067	-31
2.41433	-27
2.41800	-24
2.42167	-20
2.42533	-18
2.42900	-16
2.43267	-14
2.43633	-12
2.44000	-11
2.44367	-10
2.44733	-9
2.45100	-9
2.45467	-8
2.45833	-7
2.46200	-6
2.46567	-6
2.46933	-5
2.47300	-4
2.47667	-3
2.48033	-2
2.48400	-0
2.48767	1
2.49133	2
2.49500	3
2.49867	4
2.50233	5
2.50600	5
2.50967	6
2.51333	7
2.51700	8
2.52067	8
2.52433	8
2.52800	9
2.53167	9
2.53533	9
2.53900	9
2.54267	10
2.54633	11
2.55000	11
2.55367	12
2.55733	13
2.56100	14
2.56467	15
2.56833	15
2.57200	16
2.57567	16
2.57933	16
2.58300	16
2.58667	16
2.59033	16
2.59400	16
2.59767	16
2.60133	16
2.60500	16
2.60867	16
2.61233	17
2.61600	18
2.61967	19
2.62333	19
2.62700	19
2.63067	19
2.63433	19
2.63800	19
2.64167	19
2.64533	19
2.64900	19
2.65267	19
2.65633	19
2.66000	19
2.66367	19
2.66733	19
2.67100	19
2.67467	18
2.67833	19
2.68200	19
2.68567	19
2.68933	19
2.69300	19
2.69667	20
2.70033	20
2.70400	21
2.70767	21
2.71133	22
2.71500	23
2.71867	23
2.72233	23
2.72600	23
2.72967	24
2.73333	23
2.73700	23
2.74067	23
2.74433	23
2.74800	23
2.75167	23
2.75533	23
2.75900	23
2.76267	23
2.76633	23
2.77000	24
2.77367	24
2.77733	24
2.78100	25
2.78467	25
2.78833	26
2.79200	26
2.79567	26
2.79933	26
2.80300	26
2.80667	26
2.81033	26
2.81400	26
2.81767	25
2.82133	25
2.82500	25
2.82867	25
2.83233	25
2.83600	25
2.83967	25
2.84333	23
2.84700	20
2.85067	14
2.85433	6
2.85800	-5
2.86167	-20
2.86533	-39
2.86900	-62
2.87267	-90
2.87633	-122
2.88000	-158
2.88367	-198
2.88733	-242
2.89100	-289
2.89467	-339
2.89833	-391
2.90200	-444
2.90567	-499
2.90933	-555
2.91300	-611
2.91667	-666
2.92033	-722
2.92400	-775
2.92767	-828
2.93133	-880
2.93500	-936
2.93867	-996
2.94233	-1052
2.94600	-1094
2.94967	-1113
2.95333	-1106
2.95700	-1074
2.96067	-1021
2.96433	-953
2.96800	-876
2.97167	-795
2.97533	-714
2.97900	-634
2.98267	-559
2.98633	-490
2.99000	-426
2.99367	-369
2.99733	-318
3.00100	-273
3.00467	-233
3.00833	-198
3.01200	-168
3.01567	-142
3.01933	-119
3.02300	-100
3.02667	-83
3.03033	-69
3.03400	-57
3.03767	-47
3.04133	-38
3.04500	-30
3.04867	-23
3.05233	-17
3.05600	-12
3.05967	-8
3.06333	-5
3.06700	-2
3.07067	1
3.07433	3
3.07800	4
3.08167	6
3.08533	7
3.08900	8
3.09267	8
3.09633	9
3.10000	9
3.10367	10
3.10733	11
3.11100	12
3.11467	12
3.11833	13
3.12200	13
3.12567	14
3.12933	14
3.13300	14
3.13667	15
3.14033	15
3.14400	16
3.14767	16
3.15133	16
3.15500	17
3.15867	17
3.16233	17
3.16600	17
3.16967	18
3.17333	18
3.17700	18
3.18067	18
3.18433	18
3.18800	18
3.19167	18
3.19533	18
3.19900	19
3.20267	19
3.20633	19
3.21000	19
3.21367	19
3.21733	20
3.22100	20
3.22467	20
3.22833	20
3.23200	20
3.23567	21
3.23933	21
3.24300	22
3.24667	22
3.25033	22
3.25400	22
3.25767	23
3.26133	23
3.26500	23
3.26867	23
3.27233	24
3.27600	24
3.27967	24
3.28333	24
3.28700	24
3.29067	24
3.29433	24
3.29800	24
3.30167	24
3.30533	24
3.30900	24
3.31267	24
3.31633	24
3.32000	24
3.32367	24
3.32733	24
3.33100	24
3.33467	24
3.33833	24
3.34200	24
3.34567	24
3.34933	24
3.35300	24
3.35667	24
3.36033	25
3.36400	25
3.36767	25
3.37133	26
3.37500	26
3.37867	26
3.38233	26
3.38600	26
3.38967	27
3.39333	27
3.39700	27
3.40067	27
3.40433	27
3.40800	27
3.41167	27
3.41533	27
3.41900	27
3.42267	27
3.42633	27
3.43000	27
3.43367	27
3.43733	27
3.44100	27
3.44467	27
3.44833	27
3.45200	27
3.45567	27
3.45933	27
3.46300	27
3.46667	27
3.47033	26
3.47400	26
3.47767	26
3.48133	26
3.48500	26
3.48867	26
3.49233	26
3.49600	26
3.49967	26
3.50333	26
3.50700	26
3.51067	26
3.51433	26
3.51800	26
3.52167	26
3.52533	26
3.52900	26
3.53267	26
3.53633	26
3.54000	26
3.54367	26
3.54733	26
3.55100	26
3.55467	26
3.55833	26
3.56200	26
3.56567	26
3.56933	26
3.57300	26
3.57667	27
3.58033	27
3.58400	27
3.58767	27
3.59133	27
3.59500	27
3.59867	28
3.60233	28
3.60600	28
3.60967	28
3.61333	28
3.61700	28
3.62067	28
3.62433	28
3.62800	28
3.63167	28
3.63533	28
3.63900	28
3.64267	28
3.64633	28
3.65000	27
3.65367	27
3.65733	27
3.66100	27
3.66467	27
3.66833	27
3.67200	27
3.67567	27
3.67933	27
3.68300	27
3.68667	27
3.69033	26
3.69400	26
3.69767	25
3.70133	25
3.70500	24
3.70867	24
3.71233	24
3.71600	24
3.71967	24
3.72333	24
3.72700	24
3.73067	24
3.73433	24
3.73800	24
3.74167	24
3.74533	24
3.74900	24
3.75267	24
3.75633	24
3.76000	24
3.76367	25
3.76733	25
3.77100	25
3.77467	25
3.77833	25
3.78200	25
3.78567	24
3.78933	24
3.79300	24
3.79667	24
3.80033	24
3.80400	24
3.80767	25
3.81133	25
3.81500	25
3.81867	25
3.82233	24
3.82600	24
3.82967	24
3.83333	24
3.83700	24
3.84067	24
3.84433	24
3.84800	25
3.85167	25
3.85533	25
3.85900	25
3.86267	25
3.86633	25
3.87000	26
3.87367	26
3.87733	26
3.88100	26
3.88467	26
3.88833	26
3.89200	26
3.89567	26
3.89933	26
3.90300	26
3.90667	26
3.91033	26
3.91400	25
3.91767	25
3.92133	25
3.92500	25
3.92867	25
3.93233	25
3.93600	25
3.93967	25
3.94333	25
3.94700	25
3.95067	26
3.95433	26
3.95800	26
3.96167	26
3.96533	26
3.96900	26
3.97267	26
3.97633	26
3.98000	26
3.98367	26
3.98733	26
3.99100	26
3.99467	26
3.99833	25

[Chromatogram (Ch3)]
Interval(msec)	220
# of Points	1091
Start Time(min)	0.002
End Time(min)	3.998
R.Time (min)	Intensity
0.00167	0
0.00533	2
0.00900	2
0.01267	-0
0.01633	-0
0.02000	2
0.02367	3
0.02733	2
0.03100	1
0.03467	0
0.03833	-0
0.04200	-1
0.04567	-0
0.04933	1
0.05300	2
0.05667	2
0.06033	1
0.06400	5
0.06767	9
0.07133	10
0.07500	10
0.07867	8
0.08233	6
0.08600	6
0.08967	5
0.09333	3
0.09700	2
0.10067	4
0.10433	3
0.10800	3
0.11167	3
0.11533	3
0.11900	4
0.12267	5
0.12633	4
0.13000	5
0.13367	7
0.13733	8
0.14100	8
0.14467	6
0.14833	4
0.15200	3
0.15567	4
0.15933	4
0.16300	4
0.16667	4
0.17033	4
0.17400	3
0.17767	4
0.18133	6
0.18500	6
0.18867	6
0.19233	6
0.19600	6
0.19967	4
0.20333	4
0.20700	4
0.21067	4
0.21433	4
0.21800	5
0.22167	7
0.22533	7
0.22900	7
0.23267	5
0.23633	3
0.24000	4
0.24367	3
0.24733	4
0.25100	6
0.25467	6
0.25833	4
0.26200	2
0.26567	2
0.26933	2
0.27300	2
0.27667	2
0.28033	-0
0.28400	-1
0.28767	-2
0.29133	-1
0.29500	2
0.29867	6
0.30233	8
0.30600	8
0.30967	7
0.31333	7
0.31700	7
0.32067	8
0.32433	7
0.32800	6
0.33167	6
0.33533	7
0.33900	8
0.34267	10
0.34633	10
0.35000	9
0.35367	9
0.35733	9
0.36100	9
0.36467	7
0.36833	5
0.37200	4
0.37567	3
0.37933	2
0.38300	2
0.38667	3
0.39033	5
0.39400	5
0.39767	6
0.40133	6
0.40500	6
0.40867	6
0.41233	8
0.41600	7
0.41967	5
0.42333	3
0.42700	3
0.43067	5
0.43433	5
0.43800	4
0.44167	4
0.44533	5
0.44900	7
0.45267	8
0.45633	7
0.46000	8
0.46367	10
0.46733	10
0.47100	11
0.47467	12
0.47833	11
0.48200	8
0.48567	7
0.48933	7
0.49300	6
0.49667	5
0.50033	6
0.50400	8
0.50767	10
0.51133	11
0.51500	12
0.51867	11
0.52233	10
0.52600	8
0.52967	8
0.53333	10
0.53700	13
0.54067	14
0.54433	11
0.54800	8
0.55167	6
0.55533	9
0.55900	11
0.56267	12
0.56633	12
0.57000	12
0.57367	14
0.57733	15
0.58100	12
0.58467	9
0.58833	10
0.59200	10
0.59567	9
0.59933	7
0.60300	7
0.60667	7
0.61033	9
0.61400	11
0.61767	12
0.62133	11
0.62500	9
0.62867	7
0.63233	7
0.63600	8
0.63967	8
0.64333	8
0.64700	9
0.65067	10
0.65433	11
0.65800	11
0.66167	10
0.66533	9
0.66900	9
0.67267	11
0.67633	13
0.68000	14
0.68367	12
0.68733	10
0.69100	10
0.69467	12
0.69833	12
0.70200	12
0.70567	12
0.70933	15
0.71300	16
0.71667	16
0.72033	14
0.72400	14
0.72767	14
0.73133	14
0.73500	13
0.73867	12
0.74233	10
0.74600	9
0.74967	10
0.75333	10
0.75700	12
0.76067	15
0.76433	15
0.76800	11
0.77167	11
0.77533	10
0.77900	10
0.78267	11
0.78633	13
0.79000	13
0.79367	15
0.79733	16
0.80100	16
0.80467	16
0.80833	16
0.81200	17
0.81567	17
0.81933	15
0.82300	16
0.82667	17
0.83033	17
0.83400	17
0.83767	17
0.84133	17
0.84500	16
0.84867	15
0.85233	14
0.85600	16
0.85967	17
0.86333	16
0.86700	14
0.87067	13
0.87433	15
0.87800	16
0.88167	15
0.88533	13
0.88900	15
0.89267	16
0.89633	18
0.90000	19
0.90367	18
0.90733	18
0.91100	17
0.91467	16
0.91833	15
0.92200	16
0.92567	18
0.92933	19
0.93300	18
0.93667	18
0.94033	17
0.94400	17
0.94767	18
0.95133	18
0.95500	17
0.95867	17
0.96233	16
0.96600	15
0.96967	17
0.97333	21
0.97700	20
0.98067	18
0.98433	17
0.98800	17
0.99167	17
0.99533	17
0.99900	19
1.00267	19
1.00633	18
1.01000	18
1.01367	19
1.01733	19
1.02100	19
1.02467	18
1.02833	17
1.03200	19
1.03567	19
1.03933	18
1.04300	18
1.04667	18
1.05033	18
1.05400	17
1.05767	18
1.06133	19
1.06500	20
1.06867	20
1.07233	19
1.07600	19
1.07967	20
1.08333	21
1.08700	22
1.09067	21
1.09433	20
1.09800	22
1.10167	24
1.10533	25
1.10900	26
1.11267	26
1.11633	26
1.12000	24
1.12367	22
1.12733	21
1.13100	21
1.13467	21
1.13833	21
1.14200	20
1.14567	19
1.14933	19
1.15300	20
1.15667	21
1.16033	20
1.16400	20
1.16767	19
1.17133	19
1.17500	20
1.17867	21
1.18233	20
1.18600	19
1.18967	18
1.19333	17
1.19700	16
1.20067	17
1.20433	19
1.20800	23
1.21167	25
1.21533	26
1.21900	25
1.22267	24
1.22633	21
1.23000	19
1.23367	20
1.23733	19
1.24100	18
1.24467	18
1.24833	18
1.25200	18
1.25567	18
1.25933	17
1.26300	18
1.26667	18
1.27033	20
1.27400	22
1.27767	23
1.28133	25
1.28500	26
1.28867	25
1.29233	22
1.29600	22
1.29967	23
1.30333	22
1.30700	21
1.31067	20
1.31433	20
1.31800	21
1.32167	22
1.32533	24
1.32900	26
1.33267	25
1.33633	24
1.34000	22
1.34367	19
1.34733	19
1.35100	20
1.35467	22
1.35833	22
1.36200	21
1.36567	21
1.36933	20
1.37300	21
1.37667	22
1.38033	20
1.38400	19
1.38767	17
1.39133	17
1.39500	19
1.39867	20
1.40233	21
1.40600	22
1.40967	21
1.41333	21
1.41700	24
1.42067	24
1.42433	24
1.42800	23
1.43167	22
1.43533	20
1.43900	18
1.44267	18
1.44633	18
1.45000	19
1.45367	20
1.45733	20
1.46100	21
1.46467	21
1.46833	23
1.47200	23
1.47567	23
1.47933	22
1.48300	21
1.48667	22
1.49033	23
1.49400	23
1.49767	25
1.50133	27
1.50500	28
1.50867	27
1.51233	26
1.51600	24
1.51967	22
1.52333	22
1.52700	22
1.53067	23
1.53433	26
1.53800	25
1.54167	23
1.54533	21
1.54900	22
1.55267	24
1.55633	26
1.56000	27
1.56367	28
1.56733	30
1.57100	30
1.57467	29
1.57833	28
1.58200	30
1.58567	32
1.58933	31
1.59300	28
1.59667	27
1.60033	25
1.60400	24
1.60767	25
1.61133	27
1.61500	27
1.61867	28
1.62233	29
1.62600	29
1.62967	30
1.63333	31
1.63700	31
1.64067	31
1.64433	30
1.64800	30
1.65167	31
1.65533	32
1.65900	32
1.66267	33
1.66633	34
1.67000	34
1.67367	34
1.67733	34
1.68100	35
1.68467	39
1.68833	41
1.69200	42
1.69567	40
1.69933	39
1.70300	41
1.70667	41
1.71033	39
1.71400	38
1.71767	39
1.72133	43
1.72500	45
1.72867	46
1.73233	43
1.73600	40
1.73967	39
1.74333	39
1.74700	38
1.75067	39
1.75433	41
1.75800	41
1.76167	41
1.76533	41
1.76900	42
1.77267	42
1.77633	40
1.78000	41
1.78367	43
1.78733	44
1.79100	44
1.79467	45
1.79833	46
1.80200	47
1.80567	49
1.80933	51
1.81300	52
1.81667	53
1.82033	53
1.82400	52
1.82767	52
1.83133	53
1.83500	53
1.83867	52
1.84233	52
1.84600	51
1.84967	52
1.85333	53
1.85700	53
1.86067	52
1.86433	52
1.86800	50
1.87167	50
1.87533	52
1.87900	53
1.88267	52
1.88633	53
1.89000	55
1.89367	58
1.89733	58
1.90100	57
1.90467	58
1.90833	62
1.91200	65
1.91567	66
1.91933	65
1.92300	63
1.92667	63
1.93033	65
1.93400	66
1.93767	66
1.94133	66
1.94500	66
1.94867	64
1.95233	64
1.95600	65
1.95967	66
1.96333	68
1.96700	71
1.97067	74
1.97433	75
1.97800	75
1.98167	78
1.98533	80
1.98900	79
1.99267	77
1.99633	78
2.00000	79
2.00367	80
2.00733	82
2.01100	85
2.01467	86
2.01833	87
2.02200	87
2.02567	86
2.02933	85
2.03300	87
2.03667	89
2.04033	90
2.04400	89
2.04767	89
2.05133	90
2.05500	91
2.05867	93
2.06233	95
2.06600	97
2.06967	100
2.07333	99
2.07700	99
2.08067	101
2.08433	107
2.08800	108
2.09167	107
2.09533	107
2.09900	111
2.10267	114
2.10633	116
2.11000	118
2.11367	119
2.11733	120
2.12100	123
2.12467	125
2.12833	126
2.13200	127
2.13567	126
2.13933	125
2.14300	125
2.14667	128
2.15033	131
2.15400	136
2.15767	138
2.16133	141
2.16500	144
2.16867	146
2.17233	146
2.17600	143
2.17967	140
2.18333	140
2.18700	142
2.19067	143
2.19433	146
2.19800	148
2.20167	149
2.20533	150
2.20900	152
2.21267	153
2.21633	154
2.22000	156
2.22367	157
2.22733	160
2.23100	162
2.23467	163
2.23833	164
2.24200	165
2.24567	166
2.24933	166
2.25300	167
2.25667	171
2.26033	173
2.26400	175
2.26767	178
2.27133	181
2.27500	182
2.27867	182
2.28233	181
2.28600	183
2.28967	187
2.29333	189
2.29700	190
2.30067	192
2.30433	193
2.30800	195
2.31167	200
2.31533	202
2.31900	205
2.32267	208
2.32633	209
2.33000	209
2.33367	209
2.33733	210
2.34100	212
2.34467	216
2.34833	219
2.35200	220
2.35567	220
2.35933	222
2.36300	224
2.36667	226
2.37033	230
2.37400	232
2.37767	234
2.38133	234
2.38500	234
2.38867	231
2.39233	232
2.39600	235
2.39967	240
2.40333	245
2.40700	247
2.41067	251
2.41433	254
2.41800	255
2.42167	256
2.42533	259
2.42900	266
2.43267	271
2.43633	273
2.44000	277
2.44367	331
2.44733	466
2.45100	608
2.45467	725
2.45833	792
2.46200	798
2.46567	768
2.46933	729
2.47300	699
2.47667	682
2.48033	670
2.48400	648
2.48767	616
2.49133	576
2.49500	537
2.49867	506
2.50233	484
2.50600	466
2.50967	455
2.51333	451
2.51700	455
2.52067	467
2.52433	485
2.52800	503
2.53167	515
2.53533	519
2.53900	513
2.54267	497
2.54633	473
2.55000	448
2.55367	423
2.55733	401
2.56100	383
2.56467	366
2.56833	353
2.57200	344
2.57567	338
2.57933	334
2.58300	334
2.58667	336
2.59033	338
2.59400	338
2.59767	334
2.60133	327
2.60500	318
2.60867	310
2.61233	299
2.61600	287
2.61967	275
2.62333	266
2.62700	260
2.63067	254
2.63433	252
2.63800	254
2.64167	258
2.64533	264
2.64900	267
2.65267	270
2.65633	272
2.66000	271
2.66367	266
2.66733	260
2.67100	255
2.67467	250
2.67833	245
2.68200	240
2.68567	235
2.68933	230
2.69300	228
2.69667	223
2.70033	218
2.70400	212
2.70767	206
2.71133	201
2.71500	199
2.71867	197
2.72233	196
2.72600	196
2.72967	195
2.73333	195
2.73700	198
2.74067	199
2.74433	201
2.74800	204
2.75167	205
2.75533	208
2.75900	207
2.76267	206
2.76633	205
2.77000	205
2.77367	205
2.77733	205
2.78100	206
2.78467	207
2.78833	207
2.79200	209
2.79567	211
2.79933	214
2.80300	215
2.80667	216
2.81033	217
2.81400	220
2.81767	226
2.82133	239
2.82500	268
2.82867	321
2.83233	420
2.83600	589
2.83967	853
2.84333	1225
2.84700	1708
2.85067	2279
2.85433	2904
2.85800	3534
2.86167	4120
2.86533	4614
2.86900	4979
2.87267	5196
2.87633	5261
2.88000	5189
2.88367	5005
2.88733	4737
2.89100	4413
2.89467	4057
2.89833	3690
2.90200	3328
2.90567	2983
2.90933	2664
2.91300	2373
2.91667	2111
2.92033	1878
2.92400	1670
2.92767	1487
2.93133	1326
2.93500	1187
2.93867	1067
2.94233	958
2.94600	861
2.94967	777
2.95333	708
2.95700	648
2.96067	596
2.96433	549
2.96800	509
2.97167	471
2.97533	439
2.97900	411
2.98267	386
2.98633	365
2.99000	347
2.99367	333
2.99733	321
3.00100	310
3.00467	298
3.00833	288
3.01200	279
3.01567	270
3.01933	256
3.02300	219
3.02667	174
3.03033	154
3.03400	160
3.03767	181
3.04133	210
3.04500	247
3.04867	286
3.05233	326
3.05600	366
3.05967	402
3.06333	434
3.06700	463
3.07067	485
3.07433	504
3.07800	520
3.08167	534
3.08533	548
3.08900	561
3.09267	571
3.09633	580
3.10000	589
3.10367	598
3.10733	603
3.11100	609
3.11467	612
3.11833	614
3.12200	617
3.12567	619
3.12933	619
3.13300	621
3.13667	623
3.14033	625
3.14400	627
3.14767	632
3.15133	636
3.15500	640
3.15867	643
3.16233	645
3.16600	647
3.16967	649
3.17333	650
3.17700	654
3.18067	657
3.18433	661
3.18800	664
3.19167	667
3.19533	670
3.19900	671
3.20267	672
3.20633	675
3.21000	679
3.21367	682
3.21733	682
3.22100	682
3.22467	684
3.22833	687
3.23200	691
3.23567	693
3.23933	694
3.24300	695
3.24667	695
3.25033	698
3.25400	701
3.25767	704
3.26133	705
3.26500	706
3.26867	707
3.27233	708
3.27600	709
3.27967	713
3.28333	715
3.28700	713
3.29067	714
3.29433	715
3.29800	718
3.30167	718
3.30533	718
3.30900	718
3.31267	719
3.31633	721
3.32000	723
3.32367	725
3.32733	728
3.33100	731
3.33467	732
3.33833	731
3.34200	730
3.34567	730
3.34933	727
3.35300	724
3.35667	723
3.36033	723
3.36400	723
3.36767	723
3.37133	722
3.37500	720
3.37867	719
3.38233	721
3.38600	723
3.38967	722
3.39333	720
3.39700	719
3.40067	716
3.40433	717
3.40800	716
3.41167	716
3.41533	717
3.41900	719
3.42267	718
3.42633	717
3.43000	715
3.43367	713
3.43733	710
3.44100	708
3.44467	707
3.44833	705
3.45200	704
3.45567	704
3.45933	703
3.46300	702
3.46667	699
3.47033	699
3.47400	702
3.47767	703
3.48133	702
3.48500	700
3.48867	697
3.49233	695
3.49600	691
3.49967	690
3.50333	688
3.50700	686
3.51067	685
3.51433	684
3.51800	682
3.52167	679
3.52533	678
3.52900	680
3.53267	679
3.53633	678
3.54000	678
3.54367	678
3.54733	680
3.55100	681
3.55467	680
3.55833	680
3.56200	678
3.56567	675
3.56933	673
3.57300	671
3.57667	670
3.58033	671
3.58400	671
3.58767	670
3.59133	669
3.59500	672
3.59867	672
3.60233	671
3.60600	671
3.60967	671
3.61333	670
3.61700	669
3.62067	665
3.62433	664
3.62800	664
3.63167	665
3.63533	668
3.63900	669
3.64267	669
3.64633	669
3.65000	669
3.65367	670
3.65733	670
3.66100	670
3.66467	670
3.66833	667
3.67200	664
3.67567	662
3.67933	660
3.68300	659
3.68667	660
3.69033	662
3.69400	661
3.69767	661
3.70133	663
3.70500	663
3.70867	664
3.71233	662
3.71600	659
3.71967	658
3.72333	657
3.72700	658
3.73067	659
3.73433	659
3.73800	657
3.74167	657
3.74533	656
3.74900	656
3.75267	655
3.75633	653
3.76000	652
3.76367	651
3.76733	650
3.77100	650
3.77467	651
3.77833	651
3.78200	650
3.78567	648
3.78933	647
3.79300	646
3.79667	645
3.80033	643
3.80400	640
3.80767	637
3.81133	635
3.81500	633
3.81867	633
3.82233	634
3.82600	633
3.82967	632
3.83333	631
3.83700	631
3.84067	632
3.84433	632
3.84800	630
3.85167	628
3.85533	626
3.85900	625
3.86267	625
3.86633	626
3.87000	624
3.87367	620
3.87733	616
3.88100	610
3.88467	607
3.88833	606
3.89200	608
3.89567	609
3.89933	609
3.90300	606
3.90667	602
3.91033	598
3.91400	595
3.91767	592
3.92133	589
3.92500	587
3.92867	588
3.93233	588
3.93600	587
3.93967	587
3.94333	588
3.94700	587
3.95067	585
3.95433	583
3.95800	580
3.96167	578
3.96533	575
3.96900	571
3.97267	569
3.97633	569
3.98000	568
3.98367	568
3.98733	570
3.99100	570
3.99467	567
3.99833	562

[Status Trace (Column Oven Temperature)]
Interval(msec)	1000
# of Points	240
Start Time(min)	0.006
End Time(min)	3.989
Intensity Units	
Intensity Multiplier	1
R.Time (min)	Intensity
0.00578	35.03
0.02245	35.03
0.03912	35.02
0.05578	35.02
0.07245	35.00
0.08912	34.98
0.10578	34.98
0.12245	34.99
0.13912	35.01
0.15578	35.02
0.17245	35.02
0.18912	35.03
0.20578	35.02
0.22245	35.02
0.23912	35.01
0.25578	35.00
0.27245	35.00
0.28912	35.01
0.30578	35.02
0.32245	35.02
0.33912	35.03
0.35578	35.04
0.37245	35.03
0.38912	35.03
0.40578	35.02
0.42245	35.01
0.43912	34.99
0.45578	34.98
0.47245	34.97
0.48912	34.98
0.50578	34.99
0.52245	34.99
0.53912	34.99
0.55578	35.00
0.57245	35.00
0.58912	35.01
0.60578	35.02
0.62245	35.02
0.63912	35.02
0.65578	35.02
0.67245	35.02
0.68912	35.03
0.70578	35.02
0.72245	35.01
0.73912	35.01
0.75578	35.03
0.77245	35.02
0.78912	35.01
0.80578	35.00
0.82245	35.00
0.83912	35.00
0.85578	35.01
0.87245	35.01
0.88912	35.00
0.90578	35.00
0.92245	35.01
0.93912	35.01
0.95578	35.01
0.97245	35.02
0.98912	35.01
1.00578	35.00
1.02245	35.00
1.03912	35.01
1.05578	35.01
1.07245	35.02
1.08912	35.02
1.10578	35.02
1.12245	35.01
1.13912	35.01
1.15578	35.01
1.17245	35.01
1.18912	35.01
1.20578	35.01
1.22245	35.02
1.23912	35.01
1.25578	35.02
1.27245	35.01
1.28912	35.01
1.30578	35.01
1.32245	35.00
1.33912	35.01
1.35578	35.00
1.37245	35.00
1.38912	34.98
1.40578	34.98
1.42245	34.99
1.43912	34.99
1.45578	34.99
1.47245	34.99
1.48912	34.99
1.50578	34.99
1.52245	34.98
1.53912	34.99
1.55578	34.99
1.57245	34.99
1.58912	35.00
1.60578	35.04
1.62245	35.14
1.63912	35.32
1.65578	35.56
1.67245	35.92
1.68912	36.31
1.70578	36.67
1.72245	36.99
1.73912	37.29
1.75578	37.62
1.77245	37.97
1.78912	38.31
1.80578	38.64
1.82245	38.98
1.83912	39.28
1.85578	39.61
1.87245	39.94
1.88912	40.27
1.90578	40.59
1.92245	40.92
1.93912	41.26
1.95578	41.56
1.97245	41.89
1.98912	42.23
2.00578	42.55
2.02245	42.89
2.03912	43.20
2.05578	43.52
2.07245	43.84
2.08912	44.18
2.10578	44.49
2.12245	44.84
2.13912	45.15
2.15578	45.49
2.17245	45.82
2.18912	46.13
2.20578	46.45
2.22245	46.79
2.23912	47.13
2.25578	47.44
2.27245	47.78
2.28912	48.12
2.30578	48.45
2.32245	48.79
2.33912	49.09
2.35578	49.44
2.37245	49.68
2.38912	49.77
2.40578	49.76
2.42245	49.75
2.43912	49.75
2.45578	49.75
2.47245	49.76
2.48912	49.76
2.50578	49.77
2.52245	49.79
2.53912	49.81
2.55578	49.81
2.57245	49.81
2.58912	49.82
2.60578	49.82
2.62245	49.80
2.63912	49.82
2.65578	49.83
2.67245	49.85
2.68912	49.86
2.70578	49.84
2.72245	49.85
2.73912	49.88
2.75578	49.88
2.77245	49.87
2.78912	49.86
2.80578	49.86
2.82245	49.86
2.83912	49.86
2.85578	49.87
2.87245	49.87
2.88912	49.89
2.90578	49.90
2.92245	49.94
2.93912	49.97
2.95578	49.98
2.97245	50.00
2.98912	50.01
3.00578	50.00
3.02245	50.00
3.03912	50.00
3.05578	49.99
3.07245	50.01
3.08912	50.02
3.10578	50.04
3.12245	50.04
3.13912	50.06
3.15578	50.07
3.17245	50.08
3.18912	50.08
3.20578	50.10
3.22245	50.10
3.23912	50.09
3.25578	50.09
3.27245	50.09
3.28912	50.08
3.30578	50.09
3.32245	50.10
3.33912	50.11
3.35578	50.11
3.37245	50.10
3.38912	50.09
3.40578	50.08
3.42245	50.07
3.43912	50.06
3.45578	50.06
3.47245	50.06
3.48912	50.06
3.50578	50.05
3.52245	50.04
3.53912	50.03
3.55578	50.03
3.57245	50.03
3.58912	50.03
3.60578	50.03
3.62245	50.02
3.63912	50.01
3.65578	50.01
3.67245	50.00
3.68912	50.02
3.70578	50.03
3.72245	50.03
3.73912	50.04
3.75578	50.04
3.77245	50.05
3.78912	50.05
3.80578	50.06
3.82245	50.07
3.83912	50.07
3.85578	50.06
3.87245	50.06
3.88912	50.06
3.90578	50.07
3.92245	50.07
3.93912	50.06
3.95578	50.05
3.97245	50.04
3.98912	50.05

[Status Trace (Injection Unit Temperature)]
Interval(msec)	1000
# of Points	240
Start Time(min)	0.006
End Time(min)	3.989
Intensity Units	
Intensity Multiplier	1
R.Time (min)	Intensity
0.00578	99.98
0.02245	99.97
0.03912	99.98
0.05578	99.97
0.07245	99.98
0.08912	99.98
0.10578	99.97
0.12245	99.98
0.13912	99.98
0.15578	99.97
0.17245	99.97
0.18912	99.98
0.20578	99.98
0.22245	99.98
0.23912	99.98
0.25578	99.98
0.27245	99.98
0.28912	99.98
0.30578	99.98
0.32245	99.98
0.33912	99.98
0.35578	99.98
0.37245	99.98
0.38912	99.98
0.40578	99.98
0.42245	99.98
0.43912	99.97
0.45578	99.98
0.47245	99.98
0.48912	99.98
0.50578	99.98
0.52245	99.98
0.53912	99.98
0.55578	99.97
0.57245	99.98
0.58912	99.98
0.60578	99.98
0.62245	99.98
0.63912	99.98
0.65578	99.98
0.67245	99.98
0.68912	99.98
0.70578	99.98
0.72245	99.98
0.73912	99.98
0.75578	99.98
0.77245	99.98
0.78912	99.98
0.80578	99.98
0.82245	99.98
0.83912	99.98
0.85578	99.98
0.87245	99.98
0.88912	99.98
0.90578	99.98
0.92245	99.98
0.93912	99.98
0.95578	99.98
0.97245	99.98
0.98912	99.98
1.00578	99.98
1.02245	99.97
1.03912	99.98
1.05578	99.98
1.07245	99.98
1.08912	99.98
1.10578	99.98
1.12245	99.98
1.13912	99.98
1.15578	99.98
1.17245	99.98
1.18912	99.98
1.20578	99.98
1.22245	99.98
1.23912	99.99
1.25578	99.98
1.27245	99.98
1.28912	99.99
1.30578	99.99
1.32245	99.99
1.33912	99.99
1.35578	99.99
1.37245	99.99
1.38912	99.99
1.40578	99.99
1.42245	99.99
1.43912	99.99
1.45578	99.99
1.47245	99.99
1.48912	99.99
1.50578	99.99
1.52245	99.99
1.53912	99.99
1.55578	99.99
1.57245	99.99
1.58912	99.99
1.60578	99.99
1.62245	99.99
1.63912	99.99
1.65578	99.99
1.67245	99.99
1.68912	99.99
1.70578	99.99
1.72245	99.99
1.73912	99.99
1.75578	99.99
1.77245	99.99
1.78912	99.99
1.80578	99.99
1.82245	99.99
1.83912	99.99
1.85578	99.98
1.87245	99.98
1.88912	99.98
1.90578	99.98
1.92245	99.98
1.93912	99.98
1.95578	99.98
1.97245	99.98
1.98912	99.98
2.00578	99.97
2.02245	99.98
2.03912	99.98
2.05578	99.97
2.07245	99.97
2.08912	99.97
2.10578	99.97
2.12245	99.97
2.13912	99.97
2.15578	99.97
2.17245	99.96
2.18912	99.97
2.20578	99.96
2.22245	99.96
2.23912	99.96
2.25578	99.96
2.27245	99.96
2.28912	99.96
2.30578	99.96
2.32245	99.96
2.33912	99.96
2.35578	99.96
2.37245	99.96
2.38912	99.96
2.40578	99.96
2.42245	99.96
2.43912	99.95
2.45578	99.96
2.47245	99.96
2.48912	99.96
2.50578	99.96
2.52245	99.96
2.53912	99.96
2.55578	99.96
2.57245	99.97
2.58912	99.97
2.60578	99.96
2.62245	99.97
2.63912	99.97
2.65578	99.97
2.67245	99.97
2.68912	99.98
2.70578	99.97
2.72245	99.98
2.73912	99.98
2.75578	99.98
2.77245	99.98
2.78912	99.99
2.80578	99.98
2.82245	99.99
2.83912	99.99
2.85578	99.99
2.87245	99.99
2.88912	100.00
2.90578	100.00
2.92245	100.00
2.93912	100.00
2.95578	100.00
2.97245	100.00
2.98912	100.01
3.00578	100.01
3.02245	100.01
3.03912	100.01
3.05578	100.01
3.07245	100.02
3.08912	100.01
3.10578	100.02
3.12245	100.02
3.13912	100.02
3.15578	100.02
3.17245	100.02
3.18912	100.02
3.20578	100.02
3.22245	100.03
3.23912	100.02
3.25578	100.02
3.27245	100.03
3.28912	100.03
3.30578	100.03
3.32245	100.03
3.33912	100.03
3.35578	100.04
3.37245	100.04
3.38912	100.04
3.40578	100.04
3.42245	100.04
3.43912	100.03
3.45578	100.04
3.47245	100.04
3.48912	100.04
3.50578	100.04
3.52245	100.04
3.53912	100.04
3.55578	100.04
3.57245	100.04
3.58912	100.04
3.60578	100.04
3.62245	100.05
3.63912	100.04
3.65578	100.05
3.67245	100.04
3.68912	100.04
3.70578	100.04
3.72245	100.04
3.73912	100.05
3.75578	100.05
3.77245	100.05
3.78912	100.05
3.80578	100.05
3.82245	100.05
3.83912	100.05
3.85578	100.05
3.87245	100.05
3.88912	100.05
3.90578	100.05
3.92245	100.04
3.93912	100.04
3.95578	100.04
3.97245	100.05
3.98912	100.05

[Status Trace (Carrier Gas Pressure)]
Interval(msec)	1000
# of Points	240
Start Time(min)	0.006
End Time(min)	3.989
Intensity Units	
Intensity Multiplier	1
R.Time (min)	Intensity
0.00578	58.00
0.02245	55.63
0.03912	56.75
0.05578	58.98
0.07245	59.63
0.08912	58.15
0.10578	57.97
0.12245	58.01
0.13912	58.01
0.15578	58.01
0.17245	58.00
0.18912	58.00
0.20578	58.00
0.22245	58.00
0.23912	58.00
0.25578	58.00
0.27245	58.00
0.28912	58.00
0.30578	58.00
0.32245	58.00
0.33912	58.00
0.35578	58.00
0.37245	58.00
0.38912	58.00
0.40578	58.00
0.42245	58.00
0.43912	58.00
0.45578	58.00
0.47245	58.00
0.48912	58.00
0.50578	58.00
0.52245	58.00
0.53912	58.00
0.55578	58.00
0.57245	58.00
0.58912	58.00
0.60578	58.00
0.62245	58.00
0.63912	58.00
0.65578	58.00
0.67245	58.00
0.68912	58.00
0.70578	58.00
0.72245	58.00
0.73912	58.00
0.75578	58.00
0.77245	58.00
0.78912	58.00
0.80578	58.00
0.82245	58.00
0.83912	58.00
0.85578	58.00
0.87245	58.00
0.88912	58.00
0.90578	58.00
0.92245	58.00
0.93912	58.00
0.95578	58.00
0.97245	58.00
0.98912	58.00
1.00578	58.00
1.02245	58.00
1.03912	58.00
1.05578	58.00
1.07245	58.00
1.08912	58.00
1.10578	58.00
1.12245	58.00
1.13912	58.00
1.15578	58.00
1.17245	58.00
1.18912	58.00
1.20578	58.00
1.22245	58.00
1.23912	58.00
1.25578	58.00
1.27245	58.00
1.28912	58.00
1.30578	58.00
1.32245	58.00
1.33912	58.00
1.35578	58.00
1.37245	58.00
1.38912	58.00
1.40578	58.00
1.42245	58.00
1.43912	58.00
1.45578	58.00
1.47245	58.00
1.48912	58.00
1.50578	58.00
1.52245	58.00
1.53912	58.00
1.55578	58.00
1.57245	58.00
1.58912	58.00
1.60578	58.00
1.62245	58.00
1.63912	58.01
1.65578	58.00
1.67245	58.01
1.68912	58.01
1.70578	58.00
1.72245	58.00
1.73912	58.00
1.75578	58.00
1.77245	58.00
1.78912	58.00
1.80578	58.00
1.82245	58.00
1.83912	58.00
1.85578	58.00
1.87245	58.00
1.88912	58.00
1.90578	58.00
1.92245	58.00
1.93912	58.00
1.95578	58.00
1.97245	58.00
1.98912	58.00
2.00578	58.00
2.02245	58.00
2.03912	58.00
2.05578	58.00
2.07245	58.00
2.08912	58.00
2.10578	58.00
2.12245	58.00
2.13912	58.00
2.15578	58.00
2.17245	58.00
2.18912	58.00
2.20578	58.00
2.22245	58.00
2.23912	58.00
2.25578	58.00
2.27245	58.00
2.28912	58.00
2.30578	58.00
2.32245	58.00
2.33912	58.00
2.35578	58.00
2.37245	58.00
2.38912	57.99
2.40578	57.99
2.42245	58.00
2.43912	58.00
2.45578	58.00
2.47245	58.00
2.48912	58.00
2.50578	57.99
2.52245	57.99
2.53912	58.00
2.55578	58.00
2.57245	58.00
2.58912	58.00
2.60578	58.00
2.62245	58.00
2.63912	58.00
2.65578	58.00
2.67245	58.00
2.68912	58.00
2.70578	58.00
2.72245	58.00
2.73912	58.00
2.75578	58.00
2.77245	58.00
2.78912	58.00
2.80578	58.00
2.82245	58.00
2.83912	58.00
2.85578	58.00
2.87245	58.00
2.88912	58.00
2.90578	58.00
2.92245	58.00
2.93912	58.00
2.95578	58.00
2.97245	58.00
2.98912	58.00
3.00578	58.00
3.02245	58.00
3.03912	58.00
3.05578	58.00
3.07245	58.00
3.08912	58.00
3.10578	58.00
3.12245	58.00
3.13912	58.00
3.15578	58.00
3.17245	58.00
3.18912	58.00
3.20578	58.00
3.22245	58.00
3.23912	58.00
3.25578	58.00
3.27245	58.00
3.28912	58.00
3.30578	58.00
3.32245	58.00
3.33912	58.00
3.35578	58.00
3.37245	58.00
3.38912	58.00
3.40578	58.00
3.42245	58.00
3.43912	58.00
3.45578	58.00
3.47245	58.00
3.48912	58.00
3.50578	58.00
3.52245	58.00
3.53912	58.00
3.55578	58.00
3.57245	58.00
3.58912	58.00
3.60578	58.00
3.62245	58.00
3.63912	58.00
3.65578	58.00
3.67245	58.00
3.68912	58.00
3.70578	58.00
3.72245	58.00
3.73912	58.00
3.75578	58.00
3.77245	58.00
3.78912	58.00
3.80578	58.00
3.82245	58.00
3.83912	58.00
3.85578	58.00
3.87245	58.00
3.88912	58.00
3.90578	58.00
3.92245	58.00
3.93912	58.00
3.95578	58.00
3.97245	58.00
3.98912	58.00

[Status Trace (Carrier Gas Flow)]
Interval(msec)	1000
# of Points	240
Start Time(min)	0.006
End Time(min)	3.989
Intensity Units	
Intensity Multiplier	1
R.Time (min)	Intensity
0.00578	34.52
0.02245	34.54
0.03912	34.55
0.05578	34.55
0.07245	34.50
0.08912	34.52
0.10578	34.51
0.12245	34.52
0.13912	34.52
0.15578	34.52
0.17245	34.51
0.18912	34.52
0.20578	34.52
0.22245	34.52
0.23912	34.51
0.25578	34.52
0.27245	34.52
0.28912	34.51
0.30578	34.52
0.32245	34.52
0.33912	34.52
0.35578	34.52
0.37245	34.51
0.38912	34.52
0.40578	34.52
0.42245	34.52
0.43912	34.52
0.45578	34.52
0.47245	34.52
0.48912	34.52
0.50578	34.52
0.52245	34.52
0.53912	34.52
0.55578	34.52
0.57245	34.52
0.58912	34.52
0.60578	34.52
0.62245	34.52
0.63912	34.52
0.65578	34.52
0.67245	34.51
0.68912	34.53
0.70578	34.52
0.72245	34.52
0.73912	34.51
0.75578	34.51
0.77245	34.52
0.78912	34.52
0.80578	34.52
0.82245	34.52
0.83912	34.52
0.85578	34.52
0.87245	34.52
0.88912	34.51
0.90578	34.52
0.92245	34.52
0.93912	34.52
0.95578	34.52
0.97245	34.51
0.98912	34.52
1.00578	34.52
1.02245	34.52
1.03912	34.52
1.05578	34.52
1.07245	34.52
1.08912	34.51
1.10578	34.52
1.12245	34.52
1.13912	34.52
1.15578	34.52
1.17245	34.51
1.18912	34.52
1.20578	34.52
1.22245	34.52
1.23912	34.52
1.25578	34.52
1.27245	34.52
1.28912	34.52
1.30578	34.52
1.32245	34.51
1.33912	34.52
1.35578	34.52
1.37245	34.52
1.38912	34.52
1.40578	34.52
1.42245	34.52
1.43912	34.52
1.45578	34.51
1.47245	34.52
1.48912	34.52
1.50578	34.52
1.52245	34.51
1.53912	34.51
1.55578	34.52
1.57245	34.52
1.58912	34.52
1.60578	34.52
1.62245	34.52
1.63912	34.52
1.65578	34.52
1.67245	34.51
1.68912	34.52
1.70578	34.52
1.72245	34.51
1.73912	34.52
1.75578	34.52
1.77245	34.52
1.78912	34.51
1.80578	34.52
1.82245	34.53
1.83912	34.52
1.85578	34.51
1.87245	34.52
1.88912	34.52
1.90578	34.52
1.92245	34.52
1.93912	34.52
1.95578	34.52
1.97245	34.52
1.98912	34.51
2.00578	34.52
2.02245	34.52
2.03912	34.52
2.05578	34.51
2.07245	34.52
2.08912	34.52
2.10578	34.52
2.12245	34.52
2.13912	34.52
2.15578	34.52
2.17245	34.52
2.18912	34.52
2.20578	34.52
2.22245	34.52
2.23912	34.52
2.25578	34.51
2.27245	34.52
2.28912	34.52
2.30578	34.52
2.32245	34.52
2.33912	34.52
2.35578	34.52
2.37245	34.52
2.38912	34.51
2.40578	34.52
2.42245	34.52
2.43912	34.52
2.45578	34.51
2.47245	34.52
2.48912	34.52
2.50578	34.51
2.52245	34.52
2.53912	34.52
2.55578	34.52
2.57245	34.52
2.58912	34.51
2.60578	34.52
2.62245	34.51
2.63912	34.52
2.65578	34.52
2.67245	34.52
2.68912	34.52
2.70578	34.52
2.72245	34.52
2.73912	34.52
2.75578	34.52
2.77245	34.52
2.78912	34.51
2.80578	34.52
2.82245	34.52
2.83912	34.52
2.85578	34.52
2.87245	34.52
2.88912	34.52
2.90578	34.52
2.92245	34.52
2.93912	34.52
2.95578	34.52
2.97245	34.52
2.98912	34.52
3.00578	34.52
3.02245	34.52
3.03912	34.52
3.05578	34.52
3.07245	34.51
3.08912	34.52
3.10578	34.52
3.12245	34.52
3.13912	34.51
3.15578	34.52
3.17245	34.52
3.18912	34.52
3.20578	34.52
3.22245	34.52
3.23912	34.52
3.25578	34.52
3.27245	34.52
3.28912	34.52
3.30578	34.52
3.32245	34.51
3.33912	34.52
3.35578	34.52
3.37245	34.53
3.38912	34.52
3.40578	34.52
3.42245	34.52
3.43912	34.52
3.45578	34.52
3.47245	34.52
3.48912	34.52
3.50578	34.52
3.52245	34.52
3.53912	34.52
3.55578	34.52
3.57245	34.52
3.58912	34.51
3.60578	34.51
3.62245	34.52
3.63912	34.52
3.65578	34.52
3.67245	34.52
3.68912	34.52
3.70578	34.51
3.72245	34.52
3.73912	34.52
3.75578	34.52
3.77245	34.52
3.78912	34.52
3.80578	34.51
3.82245	34.52
3.83912	34.52
3.85578	34.52
3.87245	34.52
3.88912	34.52
3.90578	34.52
3.92245	34.52
3.93912	34.52
3.95578	34.52
3.97245	34.52
3.98912	34.52

[Status Trace (Column Flow)]
Interval(msec)	1000
# of Points	240
Start Time(min)	0.006
End Time(min)	3.989
Intensity Units	
Intensity Multiplier	1
R.Time (min)	Intensity
0.00578	5.52
0.02245	5.24
0.03912	5.37
0.05578	5.63
0.07245	5.71
0.08912	5.53
0.10578	5.51
0.12245	5.52
0.13912	5.52
0.15578	5.52
0.17245	5.52
0.18912	5.52
0.20578	5.52
0.22245	5.52
0.23912	5.52
0.25578	5.52
0.27245	5.52
0.28912	5.52
0.30578	5.52
0.32245	5.52
0.33912	5.52
0.35578	5.52
0.37245	5.52
0.38912	5.52
0.40578	5.52
0.42245	5.52
0.43912	5.52
0.45578	5.52
0.47245	5.52
0.48912	5.52
0.50578	5.52
0.52245	5.52
0.53912	5.52
0.55578	5.52
0.57245	5.52
0.58912	5.52
0.60578	5.52
0.62245	5.52
0.63912	5.52
0.65578	5.52
0.67245	5.52
0.68912	5.52
0.70578	5.52
0.72245	5.52
0.73912	5.52
0.75578	5.52
0.77245	5.52
0.78912	5.52
0.80578	5.52
0.82245	5.52
0.83912	5.52
0.85578	5.52
0.87245	5.52
0.88912	5.52
0.90578	5.52
0.92245	5.52
0.93912	5.52
0.95578	5.52
0.97245	5.52
0.98912	5.52
1.00578	5.52
1.02245	5.52
1.03912	5.52
1.05578	5.52
1.07245	5.52
1.08912	5.52
1.10578	5.52
1.12245	5.52
1.13912	5.52
1.15578	5.52
1.17245	5.52
1.18912	5.52
1.20578	5.52
1.22245	5.52
1.23912	5.52
1.25578	5.52
1.27245	5.52
1.28912	5.52
1.30578	5.52
1.32245	5.52
1.33912	5.52
1.35578	5.52
1.37245	5.52
1.38912	5.52
1.40578	5.52
1.42245	5.52
1.43912	5.52
1.45578	5.52
1.47245	5.52
1.48912	5.52
1.50578	5.52
1.52245	5.52
1.53912	5.52
1.55578	5.52
1.57245	5.52
1.58912	5.52
1.60578	5.51
1.62245	5.51
1.63912	5.51
1.65578	5.50
1.67245	5.49
1.68912	5.48
1.70578	5.46
1.72245	5.45
1.73912	5.45
1.75578	5.44
1.77245	5.42
1.78912	5.41
1.80578	5.40
1.82245	5.39
1.83912	5.39
1.85578	5.37
1.87245	5.36
1.88912	5.36
1.90578	5.34
1.92245	5.34
1.93912	5.33
1.95578	5.32
1.97245	5.31
1.98912	5.30
2.00578	5.29
2.02245	5.28
2.03912	5.27
2.05578	5.26
2.07245	5.25
2.08912	5.24
2.10578	5.23
2.12245	5.22
2.13912	5.21
2.15578	5.20
2.17245	5.19
2.18912	5.18
2.20578	5.17
2.22245	5.16
2.23912	5.15
2.25578	5.14
2.27245	5.14
2.28912	5.13
2.30578	5.12
2.32245	5.11
2.33912	5.10
2.35578	5.09
2.37245	5.08
2.38912	5.08
2.40578	5.08
2.42245	5.08
2.43912	5.08
2.45578	5.08
2.47245	5.08
2.48912	5.08
2.50578	5.08
2.52245	5.08
2.53912	5.08
2.55578	5.08
2.57245	5.08
2.58912	5.08
2.60578	5.08
2.62245	5.08
2.63912	5.08
2.65578	5.08
2.67245	5.08
2.68912	5.08
2.70578	5.08
2.72245	5.08
2.73912	5.08
2.75578	5.08
2.77245	5.08
2.78912	5.08
2.80578	5.08
2.82245	5.08
2.83912	5.08
2.85578	5.08
2.87245	5.08
2.88912	5.08
2.90578	5.08
2.92245	5.08
2.93912	5.07
2.95578	5.07
2.97245	5.07
2.98912	5.07
3.00578	5.07
3.02245	5.07
3.03912	5.07
3.05578	5.07
3.07245	5.07
3.08912	5.07
3.10578	5.07
3.12245	5.07
3.13912	5.07
3.15578	5.07
3.17245	5.07
3.18912	5.07
3.20578	5.07
3.22245	5.07
3.23912	5.07
3.25578	5.07
3.27245	5.07
3.28912	5.07
3.30578	5.07
3.32245	5.07
3.33912	5.07
3.35578	5.07
3.37245	5.07
3.38912	5.07
3.40578	5.07
3.42245	5.07
3.43912	5.07
3.45578	5.07
3.47245	5.07
3.48912	5.07
3.50578	5.07
3.52245	5.07
3.53912	5.07
3.55578	5.07
3.57245	5.07
3.58912	5.07
3.60578	5.07
3.62245	5.07
3.63912	5.07
3.65578	5.07
3.67245	5.07
3.68912	5.07
3.70578	5.07
3.72245	5.07
3.73912	5.07
3.75578	5.07
3.77245	5.07
3.78912	5.07
3.80578	5.07
3.82245	5.07
3.83912	5.07
3.85578	5.07
3.87245	5.07
3.88912	5.07
3.90578	5.07
3.92245	5.07
3.93912	5.07
3.95578	5.07
3.97245	5.07
3.98912	5.07

[Status Trace (Linear Velocity)]
Interval(msec)	1000
# of Points	240
Start Time(min)	0.006
End Time(min)	3.989
Intensity Units	
Intensity Multiplier	1
R.Time (min)	Intensity
0.00578	39.01
0.02245	37.46
0.03912	38.20
0.05578	39.66
0.07245	40.08
0.08912	39.11
0.10578	39.00
0.12245	39.02
0.13912	39.02
0.15578	39.02
0.17245	39.02
0.18912	39.02
0.20578	39.01
0.22245	39.01
0.23912	39.02
0.25578	39.02
0.27245	39.02
0.28912	39.02
0.30578	39.01
0.32245	39.02
0.33912	39.01
0.35578	39.01
0.37245	39.01
0.38912	39.01
0.40578	39.01
0.42245	39.01
0.43912	39.02
0.45578	39.02
0.47245	39.02
0.48912	39.02
0.50578	39.02
0.52245	39.02
0.53912	39.02
0.55578	39.02
0.57245	39.02
0.58912	39.01
0.60578	39.01
0.62245	39.01
0.63912	39.01
0.65578	39.01
0.67245	39.01
0.68912	39.01
0.70578	39.01
0.72245	39.01
0.73912	39.01
0.75578	39.01
0.77245	39.01
0.78912	39.01
0.80578	39.02
0.82245	39.02
0.83912	39.02
0.85578	39.02
0.87245	39.01
0.88912	39.01
0.90578	39.01
0.92245	39.01
0.93912	39.01
0.95578	39.01
0.97245	39.01
0.98912	39.01
1.00578	39.02
1.02245	39.02
1.03912	39.02
1.05578	39.01
1.07245	39.01
1.08912	39.01
1.10578	39.01
1.12245	39.01
1.13912	39.01
1.15578	39.01
1.17245	39.01
1.18912	39.01
1.20578	39.01
1.22245	39.01
1.23912	39.01
1.25578	39.01
1.27245	39.01
1.28912	39.01
1.30578	39.01
1.32245	39.02
1.33912	39.01
1.35578	39.02
1.37245	39.02
1.38912	39.02
1.40578	39.02
1.42245	39.02
1.43912	39.02
1.45578	39.02
1.47245	39.02
1.48912	39.02
1.50578	39.02
1.52245	39.02
1.53912	39.02
1.55578	39.02
1.57245	39.02
1.58912	39.02
1.60578	39.01
1.62245	39.00
1.63912	38.99
1.65578	38.96
1.67245	38.93
1.68912	38.90
1.70578	38.86
1.72245	38.82
1.73912	38.80
1.75578	38.77
1.77245	38.73
1.78912	38.70
1.80578	38.67
1.82245	38.64
1.83912	38.61
1.85578	38.58
1.87245	38.55
1.88912	38.52
1.90578	38.49
1.92245	38.46
1.93912	38.43
1.95578	38.39
1.97245	38.37
1.98912	38.34
2.00578	38.30
2.02245	38.27
2.03912	38.25
2.05578	38.21
2.07245	38.19
2.08912	38.16
2.10578	38.12
2.12245	38.09
2.13912	38.07
2.15578	38.03
2.17245	38.01
2.18912	37.98
2.20578	37.95
2.22245	37.92
2.23912	37.89
2.25578	37.86
2.27245	37.83
2.28912	37.80
2.30578	37.77
2.32245	37.74
2.33912	37.71
2.35578	37.68
2.37245	37.66
2.38912	37.65
2.40578	37.65
2.42245	37.65
2.43912	37.65
2.45578	37.65
2.47245	37.65
2.48912	37.65
2.50578	37.65
2.52245	37.64
2.53912	37.65
2.55578	37.65
2.57245	37.65
2.58912	37.65
2.60578	37.65
2.62245	37.65
2.63912	37.65
2.65578	37.65
2.67245	37.64
2.68912	37.64
2.70578	37.64
2.72245	37.65
2.73912	37.64
2.75578	37.64
2.77245	37.64
2.78912	37.64
2.80578	37.64
2.82245	37.64
2.83912	37.64
2.85578	37.64
2.87245	37.64
2.88912	37.64
2.90578	37.64
2.92245	37.64
2.93912	37.63
2.95578	37.63
2.97245	37.63
2.98912	37.63
3.00578	37.63
3.02245	37.63
3.03912	37.63
3.05578	37.63
3.07245	37.63
3.08912	37.63
3.10578	37.63
3.12245	37.63
3.13912	37.63
3.15578	37.63
3.17245	37.62
3.18912	37.62
3.20578	37.62
3.22245	37.62
3.23912	37.62
3.25578	37.62
3.27245	37.62
3.28912	37.62
3.30578	37.62
3.32245	37.62
3.33912	37.62
3.35578	37.62
3.37245	37.62
3.38912	37.62
3.40578	37.62
3.42245	37.62
3.43912	37.63
3.45578	37.63
3.47245	37.63
3.48912	37.63
3.50578	37.63
3.52245	37.63
3.53912	37.63
3.55578	37.63
3.57245	37.63
3.58912	37.63
3.60578	37.63
3.62245	37.63
3.63912	37.63
3.65578	37.63
3.67245	37.63
3.68912	37.63
3.70578	37.63
3.72245	37.63
3.73912	37.63
3.75578	37.63
3.77245	37.63
3.78912	37.63
3.80578	37.63
3.82245	37.63
3.83912	37.63
3.85578	37.63
3.87245	37.63
3.88912	37.63
3.90578	37.63
3.92245	37.63
3.93912	37.63
3.95578	37.63
3.97245	37.63
3.98912	37.63

