[Header]
Application Name	LabSolutions
Version	5.110
Data File Name	C:\Users\User\Desktop\GC Analyses\Jack\Nachusa Grasslands Sampling\T2 Timepoint July 12th\T2_07122022_070.gcd
Output Date	3/14/2023
Output Time	3:42:34 PM

[File Information]
Type	Data File
Generated	3/10/2023 8:14:46 PM
Generated by	System Administrator
Modified	3/10/2023 8:21:20 PM
Modified by	System Administrator

[Sample Information]
Operator Name	System Administrator
Acquired	3/10/2023 8:17:20 PM
Sample Type	0:Unknown
Level	0
Sample Name	070
Sample ID	070
ISTD Amount1	1
ISTD Amount2	1
ISTD Amount3	1
ISTD Amount4	1
ISTD Amount5	1
ISTD Amount6	1
ISTD Amount7	1
ISTD Amount8	1
ISTD Amount9	1
ISTD Amount10	1
ISTD Amount11	1
ISTD Amount12	1
ISTD Amount13	1
ISTD Amount14	1
ISTD Amount15	1
ISTD Amount16	1
ISTD Amount17	1
ISTD Amount18	1
ISTD Amount19	1
ISTD Amount20	1
ISTD Amount21	1
ISTD Amount22	1
ISTD Amount23	1
ISTD Amount24	1
ISTD Amount25	1
ISTD Amount26	1
ISTD Amount27	1
ISTD Amount28	1
ISTD Amount29	1
ISTD Amount30	1
ISTD Amount31	1
ISTD Amount32	1
Sample Amount	1
Dilution Factor	1
Vial#	69
Injection Volume	1
Injection Count	1
Bar Code	

[Original Files]
Data File	C:\Users\User\Desktop\GC Analyses\Jack\Nachusa Grasslands Sampling\T1 Timepoint July 12th\T2_07122022_070.gcd
Method File	C:\LabSolutions\Data\GHG_4min_2022\ghg3_togas_w_acet_4 min_new_int.gcm
Batch File	C:\LabSolutions\Data\AutoSamplerTesting\T2_07122022.gcb
Report Format File	c:\LabSolutions\System\DEFAULT.lsr

[File Description]


[Configuration]
Instrument Name	C0B7VH3-Instrument1
Instrument #	1
Line #	1
# of Detectors	3
Detector ID	DET#1	DET#2	DET#3
Detector Name	FID	PTCD	ECD
# of Channels	1	1	1

[Peak Table(Ch1)]
# of Peaks	3
Peak#	R.Time	I.Time	F.Time	Area	Height	A/H	Conc.	Mark	ID#	Name	k'	Plate #	Plate Ht.	Tailing	Resolution	Sep.Factor	Area Ratio	Height Ratio	Conc. %	Norm Conc.
1	1.476	1.439	1.538	30230	14454	2.091	213.426	   	1	CO	0.000	9487	15.810	1.295	0.000	0.000	0	0	21.987	21.987
2	1.567	1.538	1.641	4641	2255	2.058	89.729	 V 	2	CH4	0.062	10500	14.286	0.000	1.505	0.000	0	0	9.244	9.244
3	1.996	1.949	2.524	2659750	1266599	2.100	667.525	   	3	CO2	0.353	17605	8.520	1.260	7.069	5.680	0	0	68.769	68.769

[Peak Table(Ch2)]
# of Peaks	0

[Peak Table(Ch3)]
# of Peaks	4
Peak#	R.Time	I.Time	F.Time	Area	Height	A/H	Conc.	Mark	ID#	Name	k'	Plate #	Plate Ht.	Tailing	Resolution	Sep.Factor	Area Ratio	Height Ratio	Conc. %	Norm Conc.
1	2.462	2.165	2.513	3314	755	4.391	0.000	   			0.000	9479	15.824	0.000	0.000	0.000	0	0	0.000	0.000
2	2.532	2.513	2.697	1679	373	4.506	0.000	 V 			0.028	5272	28.451	0.000	0.579	0.000	0	0	0.000	0.000
3	2.876	2.803	3.045	19132	5072	3.772	0.489	   	1	N2O	0.168	13189	11.373	1.604	2.876	5.947	0	0	100.000	100.000
4	3.382	3.188	3.995	15964	565	28.278	0.000	   	2	SF6	0.374	251	596.890	2.041	1.061	2.221	0	0	0.000	0.000

[Compound Results(Ch1)]
# of IDs	6
ID#	Name	R.Time	Area	Height	Conc.	Curve	3rd	2nd	1st	Constant	Area Ratio	Height Ratio	Conc. %	Norm Conc.
1	CO	1.476	30230	14454	213.426	Linear	0.000000e+00	0.000000e+00	1.416423e+002	0.000000e+00	0	0	21.987	21.987
2	CH4	1.567	4641	2255	89.729	Linear	0.000000e+00	0.000000e+00	5.171738e+001	0.000000e+00	0	0	9.244	9.244
3	CO2	1.996	2659750	1266599	667.525	Linear	0.000000e+00	0.000000e+00	3.984494e+003	0.000000e+00	0	0	68.769	68.769
4	Ethylene	0.000	0	0	0.000	Linear	0.000000e+00	0.000000e+00	0.000000e+00	0.000000e+00	0	0	0.000	0.000
5	Acetylene	0.000	0	0	0.000	Linear	0.000000e+00	0.000000e+00	0.000000e+00	0.000000e+00	0	0	0.000	0.000
6	Ethane	0.000	0	0	0.000	Linear	0.000000e+00	0.000000e+00	0.000000e+00	0.000000e+00	0	0	0.000	0.000

[Compound Results(Ch2)]
# of IDs	5
ID#	Name	R.Time	Area	Height	Conc.	Curve	3rd	2nd	1st	Constant	Area Ratio	Height Ratio	Conc. %	Norm Conc.
1	Hydrogen	0.000	0	0	0.000	Linear	0.000000e+00	0.000000e+00	0.000000e+00	0.000000e+00	0	0	0.000	0.000
2	Oxygen	0.000	0	0	0.000	Linear	0.000000e+00	0.000000e+00	0.000000e+00	0.000000e+00	0	0	0.000	0.000
3	Nitrogen	0.000	0	0	0.000	Linear	0.000000e+00	0.000000e+00	0.000000e+00	0.000000e+00	0	0	0.000	0.000
4	Methane	0.000	0	0	0.000	Linear	0.000000e+00	0.000000e+00	0.000000e+00	0.000000e+00	0	0	0.000	0.000
5	Carbon Monoxide	0.000	0	0	0.000	Linear	0.000000e+00	0.000000e+00	0.000000e+00	0.000000e+00	0	0	0.000	0.000

[Compound Results(Ch3)]
# of IDs	2
ID#	Name	R.Time	Area	Height	Conc.	Curve	3rd	2nd	1st	Constant	Area Ratio	Height Ratio	Conc. %	Norm Conc.
1	N2O	2.876	19132	5072	0.489	Linear	0.000000e+00	0.000000e+00	3.915173e+004	0.000000e+00	0	0	100.000	100.000
2	SF6	3.382	15964	565	0.000	Linear	0.000000e+00	0.000000e+00	0.000000e+00	0.000000e+00	0	0	0.000	0.000

[Group Results(Ch1)]
# of Groups	0

[Group Results(Ch2)]
# of Groups	0

[Group Results(Ch3)]
# of Groups	0

[Chromatogram (Ch1)]
Interval(msec)	220
# of Points	1091
Start Time(min)	0.002
End Time(min)	3.998
R.Time (min)	Intensity
0.00167	-25
0.00533	-32
0.00900	-33
0.01267	-32
0.01633	-26
0.02000	-18
0.02367	-13
0.02733	-9
0.03100	-6
0.03467	-3
0.03833	0
0.04200	4
0.04567	11
0.04933	19
0.05300	21
0.05667	17
0.06033	13
0.06400	6
0.06767	-2
0.07133	-8
0.07500	-14
0.07867	-16
0.08233	-11
0.08600	-6
0.08967	-9
0.09333	-12
0.09700	-13
0.10067	-15
0.10433	-18
0.10800	-21
0.11167	-20
0.11533	-18
0.11900	-15
0.12267	-9
0.12633	-0
0.13000	6
0.13367	10
0.13733	13
0.14100	13
0.14467	8
0.14833	0
0.15200	-7
0.15567	-9
0.15933	-6
0.16300	2
0.16667	15
0.17033	29
0.17400	36
0.17767	39
0.18133	34
0.18500	26
0.18867	15
0.19233	-2
0.19600	-14
0.19967	-25
0.20333	-33
0.20700	-33
0.21067	-31
0.21433	-30
0.21800	-30
0.22167	-30
0.22533	-30
0.22900	-28
0.23267	-23
0.23633	-18
0.24000	-10
0.24367	-0
0.24733	7
0.25100	10
0.25467	7
0.25833	2
0.26200	-2
0.26567	-8
0.26933	-15
0.27300	-19
0.27667	-17
0.28033	-14
0.28400	-13
0.28767	-12
0.29133	-11
0.29500	-16
0.29867	-23
0.30233	-23
0.30600	-15
0.30967	-3
0.31333	8
0.31700	17
0.32067	25
0.32433	30
0.32800	31
0.33167	33
0.33533	36
0.33900	37
0.34267	36
0.34633	38
0.35000	44
0.35367	47
0.35733	48
0.36100	44
0.36467	37
0.36833	31
0.37200	31
0.37567	36
0.37933	42
0.38300	47
0.38667	47
0.39033	43
0.39400	41
0.39767	37
0.40133	30
0.40500	25
0.40867	23
0.41233	23
0.41600	26
0.41967	32
0.42333	42
0.42700	50
0.43067	52
0.43433	47
0.43800	32
0.44167	13
0.44533	-0
0.44900	-9
0.45267	-16
0.45633	-17
0.46000	-14
0.46367	-10
0.46733	-5
0.47100	-4
0.47467	-4
0.47833	-5
0.48200	-6
0.48567	-6
0.48933	-3
0.49300	0
0.49667	0
0.50033	-3
0.50400	-10
0.50767	-20
0.51133	-27
0.51500	-30
0.51867	-27
0.52233	-21
0.52600	-22
0.52967	-24
0.53333	-20
0.53700	-17
0.54067	-18
0.54433	-20
0.54800	-21
0.55167	-27
0.55533	-34
0.55900	-39
0.56267	-41
0.56633	-37
0.57000	-30
0.57367	-23
0.57733	-14
0.58100	-8
0.58467	-6
0.58833	-9
0.59200	-15
0.59567	-22
0.59933	-28
0.60300	-34
0.60667	-39
0.61033	-41
0.61400	-39
0.61767	-35
0.62133	-31
0.62500	-30
0.62867	-26
0.63233	-20
0.63600	-16
0.63967	-16
0.64333	-19
0.64700	-24
0.65067	-29
0.65433	-28
0.65800	-25
0.66167	-24
0.66533	-28
0.66900	-36
0.67267	-42
0.67633	-44
0.68000	-45
0.68367	-43
0.68733	-38
0.69100	-36
0.69467	-37
0.69833	-38
0.70200	-38
0.70567	-37
0.70933	-35
0.71300	-33
0.71667	-30
0.72033	-28
0.72400	-29
0.72767	-33
0.73133	-38
0.73500	-43
0.73867	-46
0.74233	-45
0.74600	-42
0.74967	-38
0.75333	-31
0.75700	-26
0.76067	-20
0.76433	-13
0.76800	-7
0.77167	-8
0.77533	-16
0.77900	-25
0.78267	-33
0.78633	-39
0.79000	-40
0.79367	-36
0.79733	-29
0.80100	-21
0.80467	-20
0.80833	-28
0.81200	-39
0.81567	-47
0.81933	-53
0.82300	-58
0.82667	-60
0.83033	-64
0.83400	-65
0.83767	-63
0.84133	-60
0.84500	-56
0.84867	-50
0.85233	-40
0.85600	-30
0.85967	-23
0.86333	-18
0.86700	-17
0.87067	-18
0.87433	-21
0.87800	-27
0.88167	-38
0.88533	-49
0.88900	-55
0.89267	-58
0.89633	-62
0.90000	-67
0.90367	-71
0.90733	-71
0.91100	-69
0.91467	-63
0.91833	-56
0.92200	-51
0.92567	-50
0.92933	-45
0.93300	-34
0.93667	-24
0.94033	-20
0.94400	-24
0.94767	-37
0.95133	-53
0.95500	-66
0.95867	-78
0.96233	-89
0.96600	-96
0.96967	-99
0.97333	-98
0.97700	-95
0.98067	-92
0.98433	-87
0.98800	-78
0.99167	-68
0.99533	-66
0.99900	-74
1.00267	-81
1.00633	-79
1.01000	-76
1.01367	-75
1.01733	-74
1.02100	-71
1.02467	-68
1.02833	-66
1.03200	-61
1.03567	-49
1.03933	-32
1.04300	-19
1.04667	-12
1.05033	-11
1.05400	-16
1.05767	-19
1.06133	-23
1.06500	-33
1.06867	-37
1.07233	-35
1.07600	-29
1.07967	-19
1.08333	-10
1.08700	-3
1.09067	-3
1.09433	-11
1.09800	-23
1.10167	-30
1.10533	-35
1.10900	-45
1.11267	-55
1.11633	-62
1.12000	-61
1.12367	-55
1.12733	-49
1.13100	-45
1.13467	-44
1.13833	-41
1.14200	-38
1.14567	-34
1.14933	-28
1.15300	-23
1.15667	-16
1.16033	-11
1.16400	-6
1.16767	-5
1.17133	-9
1.17500	-21
1.17867	-34
1.18233	-44
1.18600	-50
1.18967	-52
1.19333	-52
1.19700	-50
1.20067	-42
1.20433	-32
1.20800	-25
1.21167	-25
1.21533	-29
1.21900	-33
1.22267	-33
1.22633	-29
1.23000	-29
1.23367	-34
1.23733	-44
1.24100	-56
1.24467	-66
1.24833	-71
1.25200	-71
1.25567	-68
1.25933	-65
1.26300	-58
1.26667	-45
1.27033	-34
1.27400	-23
1.27767	-15
1.28133	-11
1.28500	-13
1.28867	-19
1.29233	-27
1.29600	-36
1.29967	-42
1.30333	-49
1.30700	-56
1.31067	-58
1.31433	-57
1.31800	-57
1.32167	-61
1.32533	-65
1.32900	-65
1.33267	-60
1.33633	-51
1.34000	-49
1.34367	-57
1.34733	-64
1.35100	-66
1.35467	-62
1.35833	-55
1.36200	-49
1.36567	-41
1.36933	-41
1.37300	-48
1.37667	-55
1.38033	-55
1.38400	-49
1.38767	-40
1.39133	-35
1.39500	-34
1.39867	-37
1.40233	-43
1.40600	-46
1.40967	-51
1.41333	-57
1.41700	-61
1.42067	-64
1.42433	-65
1.42800	-65
1.43167	-67
1.43533	-65
1.43900	-35
1.44267	73
1.44633	329
1.45000	981
1.45367	2489
1.45733	4913
1.46100	7739
1.46467	10378
1.46833	12486
1.47200	13884
1.47567	14425
1.47933	14001
1.48300	12660
1.48667	10686
1.49033	8497
1.49400	6450
1.49767	4739
1.50133	3417
1.50500	2443
1.50867	1742
1.51233	1248
1.51600	902
1.51967	663
1.52333	499
1.52700	385
1.53067	303
1.53433	244
1.53800	220
1.54167	268
1.54533	444
1.54900	765
1.55267	1175
1.55633	1577
1.56000	1906
1.56367	2134
1.56733	2240
1.57100	2193
1.57467	1984
1.57833	1654
1.58200	1284
1.58567	944
1.58933	666
1.59300	457
1.59667	307
1.60033	203
1.60400	134
1.60767	92
1.61133	67
1.61500	50
1.61867	40
1.62233	35
1.62600	29
1.62967	18
1.63333	7
1.63700	-0
1.64067	-3
1.64433	-11
1.64800	-21
1.65167	-26
1.65533	-28
1.65900	-26
1.66267	-25
1.66633	-27
1.67000	-31
1.67367	-34
1.67733	-32
1.68100	-28
1.68467	-22
1.68833	-19
1.69200	-19
1.69567	-23
1.69933	-31
1.70300	-39
1.70667	-43
1.71033	-44
1.71400	-47
1.71767	-54
1.72133	-61
1.72500	-67
1.72867	-70
1.73233	-71
1.73600	-67
1.73967	-60
1.74333	-55
1.74700	-53
1.75067	-52
1.75433	-51
1.75800	-54
1.76167	-52
1.76533	-52
1.76900	-56
1.77267	-61
1.77633	-62
1.78000	-58
1.78367	-53
1.78733	-47
1.79100	-45
1.79467	-51
1.79833	-59
1.80200	-65
1.80567	-66
1.80933	-63
1.81300	-62
1.81667	-63
1.82033	-65
1.82400	-69
1.82767	-71
1.83133	-69
1.83500	-66
1.83867	-65
1.84233	-67
1.84600	-65
1.84967	-62
1.85333	-61
1.85700	-62
1.86067	-61
1.86433	-58
1.86800	-51
1.87167	-45
1.87533	-43
1.87900	-46
1.88267	-51
1.88633	-54
1.89000	-57
1.89367	-56
1.89733	-56
1.90100	-57
1.90467	-56
1.90833	-54
1.91200	-46
1.91567	-42
1.91933	-44
1.92300	-49
1.92667	-54
1.93033	-53
1.93400	-52
1.93767	-52
1.94133	-52
1.94500	-57
1.94867	-61
1.95233	-26
1.95600	249
1.95967	1855
1.96333	9017
1.96700	33194
1.97067	95792
1.97433	220618
1.97800	414207
1.98167	652978
1.98533	894289
1.98900	1095250
1.99267	1224658
1.99633	1266590
2.00000	1219968
2.00367	1098536
2.00733	928561
2.01100	741372
2.01467	564007
2.01833	413162
2.02200	294711
2.02567	206943
2.02933	144506
2.03300	101282
2.03667	71850
2.04033	51962
2.04400	38534
2.04767	29421
2.05133	23162
2.05500	18787
2.05867	15658
2.06233	13357
2.06600	11619
2.06967	10267
2.07333	9194
2.07700	8329
2.08067	7618
2.08433	7021
2.08800	6516
2.09167	6079
2.09533	5694
2.09900	5356
2.10267	5062
2.10633	4795
2.11000	4548
2.11367	4321
2.11733	4115
2.12100	3928
2.12467	3763
2.12833	3615
2.13200	3475
2.13567	3339
2.13933	3208
2.14300	3086
2.14667	2969
2.15033	2856
2.15400	2751
2.15767	2655
2.16133	2565
2.16500	2483
2.16867	2411
2.17233	2348
2.17600	2287
2.17967	2224
2.18333	2161
2.18700	2101
2.19067	2043
2.19433	1986
2.19800	1929
2.20167	1874
2.20533	1825
2.20900	1782
2.21267	1749
2.21633	1717
2.22000	1684
2.22367	1652
2.22733	1615
2.23100	1567
2.23467	1515
2.23833	1462
2.24200	1417
2.24567	1377
2.24933	1340
2.25300	1305
2.25667	1276
2.26033	1251
2.26400	1229
2.26767	1210
2.27133	1200
2.27500	1193
2.27867	1181
2.28233	1159
2.28600	1132
2.28967	1111
2.29333	1091
2.29700	1070
2.30067	1053
2.30433	1038
2.30800	1027
2.31167	1021
2.31533	1014
2.31900	1000
2.32267	984
2.32633	969
2.33000	950
2.33367	928
2.33733	905
2.34100	882
2.34467	865
2.34833	849
2.35200	835
2.35567	824
2.35933	816
2.36300	813
2.36667	815
2.37033	815
2.37400	813
2.37767	808
2.38133	802
2.38500	793
2.38867	781
2.39233	767
2.39600	752
2.39967	737
2.40333	725
2.40700	715
2.41067	706
2.41433	694
2.41800	685
2.42167	682
2.42533	682
2.42900	683
2.43267	687
2.43633	686
2.44000	673
2.44367	656
2.44733	644
2.45100	637
2.45467	630
2.45833	624
2.46200	622
2.46567	621
2.46933	617
2.47300	608
2.47667	603
2.48033	603
2.48400	605
2.48767	599
2.49133	583
2.49500	569
2.49867	559
2.50233	556
2.50600	560
2.50967	563
2.51333	559
2.51700	557
2.52067	558
2.52433	558
2.52800	557
2.53167	558
2.53533	556
2.53900	545
2.54267	530
2.54633	519
2.55000	510
2.55367	498
2.55733	485
2.56100	472
2.56467	464
2.56833	464
2.57200	468
2.57567	476
2.57933	488
2.58300	497
2.58667	497
2.59033	489
2.59400	479
2.59767	470
2.60133	462
2.60500	459
2.60867	453
2.61233	444
2.61600	440
2.61967	441
2.62333	444
2.62700	444
2.63067	444
2.63433	448
2.63800	454
2.64167	454
2.64533	449
2.64900	443
2.65267	438
2.65633	438
2.66000	444
2.66367	451
2.66733	452
2.67100	445
2.67467	434
2.67833	422
2.68200	412
2.68567	407
2.68933	409
2.69300	417
2.69667	426
2.70033	433
2.70400	439
2.70767	436
2.71133	429
2.71500	423
2.71867	417
2.72233	404
2.72600	394
2.72967	389
2.73333	387
2.73700	388
2.74067	389
2.74433	391
2.74800	396
2.75167	400
2.75533	402
2.75900	403
2.76267	401
2.76633	400
2.77000	402
2.77367	401
2.77733	398
2.78100	398
2.78467	403
2.78833	405
2.79200	401
2.79567	397
2.79933	398
2.80300	399
2.80667	396
2.81033	393
2.81400	389
2.81767	388
2.82133	389
2.82500	389
2.82867	389
2.83233	387
2.83600	386
2.83967	386
2.84333	388
2.84700	393
2.85067	400
2.85433	404
2.85800	404
2.86167	401
2.86533	393
2.86900	385
2.87267	377
2.87633	372
2.88000	369
2.88367	367
2.88733	367
2.89100	371
2.89467	375
2.89833	378
2.90200	383
2.90567	387
2.90933	392
2.91300	393
2.91667	385
2.92033	373
2.92400	364
2.92767	361
2.93133	362
2.93500	367
2.93867	373
2.94233	376
2.94600	374
2.94967	370
2.95333	369
2.95700	369
2.96067	368
2.96433	369
2.96800	372
2.97167	370
2.97533	366
2.97900	359
2.98267	352
2.98633	354
2.99000	362
2.99367	371
2.99733	373
3.00100	374
3.00467	375
3.00833	376
3.01200	377
3.01567	374
3.01933	368
3.02300	358
3.02667	347
3.03033	343
3.03400	340
3.03767	338
3.04133	336
3.04500	336
3.04867	336
3.05233	341
3.05600	350
3.05967	355
3.06333	354
3.06700	345
3.07067	336
3.07433	332
3.07800	331
3.08167	335
3.08533	339
3.08900	342
3.09267	340
3.09633	332
3.10000	326
3.10367	325
3.10733	324
3.11100	322
3.11467	319
3.11833	322
3.12200	328
3.12567	338
3.12933	345
3.13300	346
3.13667	341
3.14033	333
3.14400	324
3.14767	318
3.15133	318
3.15500	324
3.15867	326
3.16233	326
3.16600	323
3.16967	320
3.17333	318
3.17700	317
3.18067	322
3.18433	328
3.18800	333
3.19167	336
3.19533	334
3.19900	325
3.20267	320
3.20633	318
3.21000	314
3.21367	306
3.21733	295
3.22100	282
3.22467	276
3.22833	277
3.23200	280
3.23567	284
3.23933	289
3.24300	296
3.24667	299
3.25033	299
3.25400	299
3.25767	303
3.26133	309
3.26500	312
3.26867	313
3.27233	312
3.27600	311
3.27967	311
3.28333	307
3.28700	302
3.29067	291
3.29433	283
3.29800	280
3.30167	277
3.30533	273
3.30900	268
3.31267	263
3.31633	261
3.32000	263
3.32367	269
3.32733	271
3.33100	272
3.33467	274
3.33833	276
3.34200	284
3.34567	288
3.34933	291
3.35300	295
3.35667	301
3.36033	300
3.36400	294
3.36767	286
3.37133	282
3.37500	283
3.37867	287
3.38233	297
3.38600	301
3.38967	297
3.39333	286
3.39700	271
3.40067	258
3.40433	251
3.40800	248
3.41167	246
3.41533	244
3.41900	245
3.42267	244
3.42633	249
3.43000	257
3.43367	261
3.43733	260
3.44100	258
3.44467	256
3.44833	251
3.45200	246
3.45567	244
3.45933	244
3.46300	245
3.46667	247
3.47033	248
3.47400	249
3.47767	255
3.48133	256
3.48500	253
3.48867	254
3.49233	259
3.49600	264
3.49967	272
3.50333	278
3.50700	283
3.51067	283
3.51433	273
3.51800	258
3.52167	242
3.52533	228
3.52900	216
3.53267	212
3.53633	213
3.54000	221
3.54367	232
3.54733	236
3.55100	235
3.55467	234
3.55833	234
3.56200	237
3.56567	235
3.56933	232
3.57300	228
3.57667	223
3.58033	216
3.58400	205
3.58767	196
3.59133	198
3.59500	208
3.59867	218
3.60233	221
3.60600	218
3.60967	215
3.61333	216
3.61700	219
3.62067	222
3.62433	226
3.62800	225
3.63167	218
3.63533	212
3.63900	205
3.64267	204
3.64633	205
3.65000	207
3.65367	204
3.65733	200
3.66100	192
3.66467	185
3.66833	187
3.67200	192
3.67567	202
3.67933	212
3.68300	211
3.68667	208
3.69033	207
3.69400	207
3.69767	206
3.70133	208
3.70500	211
3.70867	214
3.71233	215
3.71600	217
3.71967	216
3.72333	211
3.72700	203
3.73067	193
3.73433	184
3.73800	179
3.74167	182
3.74533	188
3.74900	197
3.75267	209
3.75633	218
3.76000	221
3.76367	221
3.76733	219
3.77100	210
3.77467	203
3.77833	198
3.78200	195
3.78567	192
3.78933	189
3.79300	188
3.79667	185
3.80033	181
3.80400	183
3.80767	191
3.81133	195
3.81500	196
3.81867	199
3.82233	200
3.82600	197
3.82967	193
3.83333	191
3.83700	189
3.84067	187
3.84433	186
3.84800	186
3.85167	187
3.85533	186
3.85900	184
3.86267	182
3.86633	183
3.87000	186
3.87367	188
3.87733	189
3.88100	190
3.88467	186
3.88833	178
3.89200	171
3.89567	171
3.89933	171
3.90300	168
3.90667	164
3.91033	167
3.91400	175
3.91767	178
3.92133	172
3.92500	161
3.92867	154
3.93233	156
3.93600	160
3.93967	163
3.94333	169
3.94700	172
3.95067	167
3.95433	165
3.95800	165
3.96167	167
3.96533	169
3.96900	172
3.97267	175
3.97633	176
3.98000	173
3.98367	166
3.98733	161
3.99100	163
3.99467	169
3.99833	180

[Chromatogram (Ch2)]
Interval(msec)	220
# of Points	1091
Start Time(min)	0.002
End Time(min)	3.998
R.Time (min)	Intensity
0.00167	1
0.00533	1
0.00900	2
0.01267	2
0.01633	3
0.02000	3
0.02367	3
0.02733	3
0.03100	3
0.03467	3
0.03833	3
0.04200	3
0.04567	3
0.04933	3
0.05300	4
0.05667	4
0.06033	4
0.06400	4
0.06767	4
0.07133	3
0.07500	3
0.07867	3
0.08233	3
0.08600	3
0.08967	3
0.09333	3
0.09700	3
0.10067	3
0.10433	3
0.10800	3
0.11167	3
0.11533	3
0.11900	3
0.12267	3
0.12633	2
0.13000	2
0.13367	2
0.13733	1
0.14100	1
0.14467	1
0.14833	1
0.15200	2
0.15567	2
0.15933	2
0.16300	2
0.16667	2
0.17033	2
0.17400	2
0.17767	2
0.18133	1
0.18500	1
0.18867	0
0.19233	0
0.19600	-0
0.19967	-1
0.20333	-1
0.20700	-1
0.21067	-1
0.21433	-2
0.21800	-2
0.22167	-2
0.22533	-2
0.22900	-2
0.23267	-2
0.23633	-2
0.24000	-1
0.24367	-1
0.24733	-0
0.25100	0
0.25467	1
0.25833	1
0.26200	2
0.26567	2
0.26933	2
0.27300	3
0.27667	3
0.28033	2
0.28400	2
0.28767	2
0.29133	2
0.29500	2
0.29867	2
0.30233	2
0.30600	1
0.30967	1
0.31333	1
0.31700	1
0.32067	1
0.32433	1
0.32800	1
0.33167	1
0.33533	0
0.33900	0
0.34267	0
0.34633	0
0.35000	0
0.35367	0
0.35733	-0
0.36100	-1
0.36467	-1
0.36833	-1
0.37200	-1
0.37567	-1
0.37933	-2
0.38300	-2
0.38667	-2
0.39033	-2
0.39400	-2
0.39767	-2
0.40133	-2
0.40500	-2
0.40867	-1
0.41233	-1
0.41600	-2
0.41967	-2
0.42333	-2
0.42700	-2
0.43067	-1
0.43433	-1
0.43800	-1
0.44167	-1
0.44533	-1
0.44900	-1
0.45267	-1
0.45633	-1
0.46000	-1
0.46367	-1
0.46733	-1
0.47100	-1
0.47467	-2
0.47833	-2
0.48200	-2
0.48567	-3
0.48933	-3
0.49300	-3
0.49667	-4
0.50033	-4
0.50400	-4
0.50767	-5
0.51133	-5
0.51500	-5
0.51867	-5
0.52233	-5
0.52600	-5
0.52967	-5
0.53333	-4
0.53700	-4
0.54067	-4
0.54433	-4
0.54800	-4
0.55167	-3
0.55533	-3
0.55900	-4
0.56267	-4
0.56633	-4
0.57000	-4
0.57367	-4
0.57733	-4
0.58100	-4
0.58467	-4
0.58833	-4
0.59200	-4
0.59567	-3
0.59933	-3
0.60300	-2
0.60667	-2
0.61033	-2
0.61400	-1
0.61767	-1
0.62133	-1
0.62500	-1
0.62867	-0
0.63233	-0
0.63600	-0
0.63967	0
0.64333	0
0.64700	0
0.65067	0
0.65433	0
0.65800	0
0.66167	1
0.66533	1
0.66900	1
0.67267	1
0.67633	1
0.68000	0
0.68367	0
0.68733	0
0.69100	0
0.69467	0
0.69833	1
0.70200	1
0.70567	1
0.70933	2
0.71300	2
0.71667	1
0.72033	1
0.72400	1
0.72767	-0
0.73133	-1
0.73500	-1
0.73867	-2
0.74233	-3
0.74600	-3
0.74967	-3
0.75333	-3
0.75700	-4
0.76067	-4
0.76433	-4
0.76800	-4
0.77167	-3
0.77533	-3
0.77900	-3
0.78267	-2
0.78633	-2
0.79000	-2
0.79367	-2
0.79733	-2
0.80100	-2
0.80467	-1
0.80833	-1
0.81200	-1
0.81567	-1
0.81933	-1
0.82300	-1
0.82667	-1
0.83033	-1
0.83400	-0
0.83767	0
0.84133	1
0.84500	1
0.84867	1
0.85233	1
0.85600	1
0.85967	1
0.86333	2
0.86700	2
0.87067	2
0.87433	2
0.87800	2
0.88167	2
0.88533	2
0.88900	2
0.89267	1
0.89633	1
0.90000	1
0.90367	1
0.90733	1
0.91100	1
0.91467	1
0.91833	1
0.92200	1
0.92567	0
0.92933	0
0.93300	-0
0.93667	-0
0.94033	-0
0.94400	-0
0.94767	-0
0.95133	-0
0.95500	-1
0.95867	-1
0.96233	-0
0.96600	0
0.96967	0
0.97333	1
0.97700	1
0.98067	1
0.98433	1
0.98800	0
0.99167	0
0.99533	0
0.99900	-0
1.00267	-0
1.00633	-1
1.01000	-1
1.01367	-1
1.01733	-1
1.02100	-1
1.02467	-1
1.02833	-1
1.03200	-1
1.03567	-1
1.03933	-2
1.04300	-2
1.04667	-2
1.05033	-2
1.05400	-2
1.05767	-2
1.06133	-1
1.06500	-1
1.06867	-1
1.07233	-1
1.07600	-1
1.07967	-1
1.08333	-1
1.08700	-1
1.09067	-1
1.09433	-1
1.09800	-1
1.10167	-1
1.10533	-1
1.10900	-1
1.11267	-2
1.11633	-2
1.12000	-3
1.12367	-3
1.12733	-3
1.13100	-3
1.13467	-3
1.13833	-3
1.14200	-3
1.14567	-3
1.14933	-2
1.15300	-2
1.15667	-2
1.16033	-1
1.16400	-1
1.16767	-1
1.17133	-1
1.17500	-1
1.17867	-1
1.18233	-0
1.18600	-0
1.18967	0
1.19333	0
1.19700	1
1.20067	1
1.20433	1
1.20800	1
1.21167	1
1.21533	1
1.21900	1
1.22267	1
1.22633	1
1.23000	0
1.23367	-0
1.23733	-0
1.24100	-1
1.24467	-1
1.24833	-1
1.25200	-0
1.25567	-0
1.25933	-0
1.26300	0
1.26667	1
1.27033	1
1.27400	1
1.27767	1
1.28133	1
1.28500	0
1.28867	0
1.29233	-0
1.29600	-1
1.29967	-1
1.30333	-1
1.30700	-1
1.31067	-1
1.31433	-1
1.31800	-1
1.32167	-1
1.32533	-1
1.32900	-1
1.33267	-2
1.33633	-2
1.34000	-2
1.34367	-1
1.34733	-1
1.35100	-1
1.35467	-1
1.35833	-2
1.36200	-2
1.36567	-2
1.36933	-2
1.37300	-2
1.37667	-3
1.38033	-3
1.38400	-3
1.38767	-4
1.39133	-4
1.39500	-4
1.39867	-4
1.40233	-4
1.40600	-4
1.40967	-4
1.41333	-4
1.41700	-4
1.42067	-4
1.42433	-4
1.42800	-4
1.43167	-3
1.43533	-3
1.43900	-3
1.44267	-3
1.44633	-3
1.45000	-3
1.45367	-3
1.45733	-3
1.46100	-3
1.46467	-3
1.46833	-3
1.47200	-3
1.47567	-4
1.47933	-4
1.48300	-4
1.48667	-4
1.49033	-3
1.49400	-3
1.49767	-3
1.50133	-3
1.50500	-3
1.50867	-3
1.51233	-3
1.51600	-3
1.51967	-3
1.52333	-3
1.52700	-2
1.53067	-2
1.53433	-2
1.53800	-1
1.54167	-1
1.54533	-0
1.54900	-0
1.55267	-0
1.55633	-0
1.56000	-1
1.56367	-1
1.56733	-1
1.57100	-1
1.57467	-1
1.57833	-1
1.58200	-1
1.58567	-1
1.58933	-1
1.59300	-1
1.59667	-1
1.60033	-2
1.60400	-2
1.60767	-3
1.61133	-5
1.61500	-7
1.61867	-9
1.62233	-12
1.62600	-16
1.62967	-19
1.63333	-23
1.63700	-26
1.64067	-30
1.64433	-34
1.64800	-38
1.65167	-42
1.65533	-46
1.65900	-49
1.66267	-53
1.66633	-57
1.67000	-61
1.67367	-66
1.67733	-71
1.68100	-75
1.68467	-80
1.68833	-84
1.69200	-88
1.69567	-91
1.69933	-95
1.70300	-97
1.70667	-100
1.71033	-102
1.71400	-103
1.71767	-104
1.72133	-105
1.72500	-106
1.72867	-107
1.73233	-108
1.73600	-108
1.73967	-109
1.74333	-109
1.74700	-110
1.75067	-110
1.75433	-111
1.75800	-111
1.76167	-112
1.76533	-112
1.76900	-112
1.77267	-112
1.77633	-112
1.78000	-112
1.78367	-112
1.78733	-112
1.79100	-112
1.79467	-113
1.79833	-113
1.80200	-113
1.80567	-113
1.80933	-113
1.81300	-112
1.81667	-112
1.82033	-112
1.82400	-111
1.82767	-112
1.83133	-112
1.83500	-112
1.83867	-112
1.84233	-113
1.84600	-113
1.84967	-113
1.85333	-113
1.85700	-114
1.86067	-114
1.86433	-114
1.86800	-115
1.87167	-115
1.87533	-115
1.87900	-115
1.88267	-115
1.88633	-115
1.89000	-114
1.89367	-114
1.89733	-113
1.90100	-113
1.90467	-112
1.90833	-112
1.91200	-111
1.91567	-111
1.91933	-111
1.92300	-111
1.92667	-111
1.93033	-111
1.93400	-111
1.93767	-111
1.94133	-111
1.94500	-111
1.94867	-111
1.95233	-111
1.95600	-111
1.95967	-110
1.96333	-110
1.96700	-110
1.97067	-110
1.97433	-109
1.97800	-108
1.98167	-107
1.98533	-106
1.98900	-105
1.99267	-105
1.99633	-104
2.00000	-103
2.00367	-103
2.00733	-103
2.01100	-103
2.01467	-104
2.01833	-104
2.02200	-103
2.02567	-103
2.02933	-103
2.03300	-102
2.03667	-102
2.04033	-102
2.04400	-102
2.04767	-101
2.05133	-101
2.05500	-101
2.05867	-101
2.06233	-101
2.06600	-101
2.06967	-101
2.07333	-101
2.07700	-101
2.08067	-101
2.08433	-100
2.08800	-100
2.09167	-99
2.09533	-99
2.09900	-99
2.10267	-99
2.10633	-99
2.11000	-99
2.11367	-99
2.11733	-99
2.12100	-99
2.12467	-99
2.12833	-99
2.13200	-98
2.13567	-98
2.13933	-98
2.14300	-97
2.14667	-97
2.15033	-97
2.15400	-97
2.15767	-97
2.16133	-96
2.16500	-96
2.16867	-95
2.17233	-94
2.17600	-94
2.17967	-93
2.18333	-93
2.18700	-93
2.19067	-93
2.19433	-93
2.19800	-94
2.20167	-94
2.20533	-94
2.20900	-94
2.21267	-94
2.21633	-93
2.22000	-92
2.22367	-91
2.22733	-90
2.23100	-89
2.23467	-88
2.23833	-87
2.24200	-87
2.24567	-86
2.24933	-86
2.25300	-85
2.25667	-85
2.26033	-85
2.26400	-85
2.26767	-85
2.27133	-85
2.27500	-85
2.27867	-84
2.28233	-84
2.28600	-84
2.28967	-84
2.29333	-84
2.29700	-83
2.30067	-83
2.30433	-83
2.30800	-83
2.31167	-83
2.31533	-83
2.31900	-83
2.32267	-82
2.32633	-82
2.33000	-82
2.33367	-81
2.33733	-80
2.34100	-79
2.34467	-78
2.34833	-77
2.35200	-76
2.35567	-74
2.35933	-72
2.36300	-71
2.36667	-68
2.37033	-66
2.37400	-63
2.37767	-59
2.38133	-55
2.38500	-51
2.38867	-47
2.39233	-42
2.39600	-38
2.39967	-34
2.40333	-30
2.40700	-26
2.41067	-23
2.41433	-20
2.41800	-18
2.42167	-16
2.42533	-15
2.42900	-14
2.43267	-13
2.43633	-12
2.44000	-11
2.44367	-10
2.44733	-8
2.45100	-7
2.45467	-6
2.45833	-5
2.46200	-4
2.46567	-4
2.46933	-3
2.47300	-1
2.47667	-0
2.48033	1
2.48400	2
2.48767	2
2.49133	3
2.49500	3
2.49867	4
2.50233	5
2.50600	7
2.50967	8
2.51333	9
2.51700	10
2.52067	11
2.52433	11
2.52800	12
2.53167	12
2.53533	12
2.53900	12
2.54267	12
2.54633	13
2.55000	13
2.55367	14
2.55733	14
2.56100	14
2.56467	14
2.56833	14
2.57200	14
2.57567	14
2.57933	15
2.58300	15
2.58667	15
2.59033	16
2.59400	15
2.59767	15
2.60133	15
2.60500	15
2.60867	14
2.61233	14
2.61600	14
2.61967	14
2.62333	14
2.62700	14
2.63067	14
2.63433	15
2.63800	15
2.64167	16
2.64533	17
2.64900	17
2.65267	18
2.65633	18
2.66000	18
2.66367	19
2.66733	19
2.67100	19
2.67467	20
2.67833	20
2.68200	20
2.68567	20
2.68933	21
2.69300	21
2.69667	22
2.70033	22
2.70400	22
2.70767	22
2.71133	22
2.71500	22
2.71867	22
2.72233	22
2.72600	22
2.72967	22
2.73333	23
2.73700	23
2.74067	24
2.74433	24
2.74800	25
2.75167	25
2.75533	25
2.75900	25
2.76267	25
2.76633	25
2.77000	25
2.77367	25
2.77733	25
2.78100	26
2.78467	26
2.78833	26
2.79200	26
2.79567	26
2.79933	26
2.80300	26
2.80667	26
2.81033	26
2.81400	26
2.81767	26
2.82133	26
2.82500	27
2.82867	27
2.83233	27
2.83600	26
2.83967	25
2.84333	23
2.84700	20
2.85067	14
2.85433	5
2.85800	-6
2.86167	-22
2.86533	-42
2.86900	-67
2.87267	-96
2.87633	-129
2.88000	-166
2.88367	-208
2.88733	-252
2.89100	-300
2.89467	-351
2.89833	-403
2.90200	-457
2.90567	-512
2.90933	-567
2.91300	-623
2.91667	-679
2.92033	-733
2.92400	-786
2.92767	-837
2.93133	-890
2.93500	-946
2.93867	-1005
2.94233	-1058
2.94600	-1094
2.94967	-1106
2.95333	-1091
2.95700	-1053
2.96067	-996
2.96433	-925
2.96800	-847
2.97167	-766
2.97533	-685
2.97900	-607
2.98267	-534
2.98633	-466
2.99000	-405
2.99367	-350
2.99733	-301
3.00100	-257
3.00467	-220
3.00833	-187
3.01200	-158
3.01567	-133
3.01933	-112
3.02300	-94
3.02667	-78
3.03033	-64
3.03400	-52
3.03767	-42
3.04133	-34
3.04500	-27
3.04867	-20
3.05233	-15
3.05600	-11
3.05967	-7
3.06333	-4
3.06700	-1
3.07067	1
3.07433	3
3.07800	4
3.08167	5
3.08533	6
3.08900	7
3.09267	8
3.09633	10
3.10000	11
3.10367	11
3.10733	12
3.11100	13
3.11467	13
3.11833	14
3.12200	14
3.12567	15
3.12933	15
3.13300	15
3.13667	16
3.14033	16
3.14400	16
3.14767	16
3.15133	17
3.15500	17
3.15867	18
3.16233	18
3.16600	18
3.16967	19
3.17333	19
3.17700	20
3.18067	20
3.18433	20
3.18800	20
3.19167	21
3.19533	21
3.19900	22
3.20267	22
3.20633	22
3.21000	23
3.21367	23
3.21733	23
3.22100	24
3.22467	24
3.22833	24
3.23200	23
3.23567	23
3.23933	23
3.24300	23
3.24667	23
3.25033	23
3.25400	22
3.25767	22
3.26133	22
3.26500	22
3.26867	22
3.27233	22
3.27600	22
3.27967	22
3.28333	23
3.28700	23
3.29067	23
3.29433	24
3.29800	24
3.30167	25
3.30533	25
3.30900	25
3.31267	26
3.31633	26
3.32000	26
3.32367	26
3.32733	26
3.33100	26
3.33467	26
3.33833	26
3.34200	25
3.34567	25
3.34933	25
3.35300	25
3.35667	25
3.36033	25
3.36400	25
3.36767	26
3.37133	26
3.37500	26
3.37867	26
3.38233	26
3.38600	26
3.38967	26
3.39333	26
3.39700	26
3.40067	26
3.40433	26
3.40800	26
3.41167	26
3.41533	26
3.41900	26
3.42267	27
3.42633	27
3.43000	27
3.43367	27
3.43733	28
3.44100	28
3.44467	28
3.44833	28
3.45200	28
3.45567	28
3.45933	28
3.46300	29
3.46667	29
3.47033	29
3.47400	29
3.47767	29
3.48133	29
3.48500	29
3.48867	28
3.49233	28
3.49600	28
3.49967	28
3.50333	28
3.50700	28
3.51067	28
3.51433	28
3.51800	28
3.52167	28
3.52533	28
3.52900	27
3.53267	27
3.53633	27
3.54000	27
3.54367	27
3.54733	27
3.55100	27
3.55467	27
3.55833	28
3.56200	28
3.56567	27
3.56933	28
3.57300	28
3.57667	28
3.58033	28
3.58400	28
3.58767	28
3.59133	28
3.59500	28
3.59867	28
3.60233	28
3.60600	28
3.60967	28
3.61333	29
3.61700	29
3.62067	29
3.62433	29
3.62800	29
3.63167	29
3.63533	29
3.63900	29
3.64267	29
3.64633	29
3.65000	29
3.65367	29
3.65733	28
3.66100	28
3.66467	28
3.66833	28
3.67200	28
3.67567	28
3.67933	28
3.68300	28
3.68667	28
3.69033	28
3.69400	28
3.69767	28
3.70133	27
3.70500	27
3.70867	27
3.71233	27
3.71600	27
3.71967	27
3.72333	27
3.72700	28
3.73067	28
3.73433	28
3.73800	28
3.74167	28
3.74533	28
3.74900	28
3.75267	28
3.75633	28
3.76000	28
3.76367	28
3.76733	28
3.77100	28
3.77467	29
3.77833	29
3.78200	29
3.78567	29
3.78933	29
3.79300	29
3.79667	29
3.80033	29
3.80400	29
3.80767	29
3.81133	29
3.81500	29
3.81867	28
3.82233	28
3.82600	28
3.82967	28
3.83333	28
3.83700	28
3.84067	28
3.84433	28
3.84800	28
3.85167	27
3.85533	27
3.85900	27
3.86267	27
3.86633	27
3.87000	27
3.87367	27
3.87733	26
3.88100	26
3.88467	26
3.88833	26
3.89200	26
3.89567	26
3.89933	26
3.90300	26
3.90667	26
3.91033	26
3.91400	26
3.91767	26
3.92133	26
3.92500	26
3.92867	25
3.93233	25
3.93600	25
3.93967	25
3.94333	25
3.94700	25
3.95067	25
3.95433	25
3.95800	25
3.96167	25
3.96533	25
3.96900	26
3.97267	26
3.97633	26
3.98000	27
3.98367	27
3.98733	27
3.99100	27
3.99467	28
3.99833	28

[Chromatogram (Ch3)]
Interval(msec)	220
# of Points	1091
Start Time(min)	0.002
End Time(min)	3.998
R.Time (min)	Intensity
0.00167	0
0.00533	1
0.00900	2
0.01267	3
0.01633	4
0.02000	6
0.02367	6
0.02733	8
0.03100	9
0.03467	6
0.03833	4
0.04200	2
0.04567	2
0.04933	3
0.05300	4
0.05667	4
0.06033	6
0.06400	5
0.06767	6
0.07133	7
0.07500	5
0.07867	3
0.08233	2
0.08600	5
0.08967	7
0.09333	8
0.09700	8
0.10067	6
0.10433	6
0.10800	5
0.11167	4
0.11533	2
0.11900	2
0.12267	3
0.12633	2
0.13000	3
0.13367	4
0.13733	5
0.14100	3
0.14467	1
0.14833	1
0.15200	1
0.15567	1
0.15933	1
0.16300	-2
0.16667	-8
0.17033	-10
0.17400	-5
0.17767	-2
0.18133	-3
0.18500	-5
0.18867	-5
0.19233	-4
0.19600	-0
0.19967	-0
0.20333	-2
0.20700	-3
0.21067	-2
0.21433	-1
0.21800	0
0.22167	1
0.22533	0
0.22900	-1
0.23267	-3
0.23633	-4
0.24000	-4
0.24367	-2
0.24733	1
0.25100	2
0.25467	2
0.25833	0
0.26200	-2
0.26567	-3
0.26933	-2
0.27300	-1
0.27667	-1
0.28033	-0
0.28400	-0
0.28767	1
0.29133	1
0.29500	1
0.29867	1
0.30233	-1
0.30600	-3
0.30967	-4
0.31333	-3
0.31700	-2
0.32067	-2
0.32433	-2
0.32800	-3
0.33167	-4
0.33533	-4
0.33900	-3
0.34267	-4
0.34633	-1
0.35000	3
0.35367	4
0.35733	3
0.36100	-0
0.36467	-3
0.36833	-3
0.37200	-4
0.37567	-6
0.37933	-4
0.38300	-1
0.38667	1
0.39033	1
0.39400	3
0.39767	2
0.40133	-0
0.40500	-1
0.40867	-2
0.41233	-1
0.41600	-1
0.41967	-2
0.42333	-3
0.42700	-3
0.43067	-3
0.43433	-3
0.43800	-2
0.44167	-2
0.44533	-2
0.44900	-2
0.45267	-3
0.45633	-3
0.46000	-5
0.46367	-6
0.46733	-4
0.47100	-3
0.47467	-3
0.47833	-3
0.48200	-5
0.48567	-4
0.48933	-3
0.49300	-2
0.49667	-0
0.50033	1
0.50400	2
0.50767	3
0.51133	4
0.51500	6
0.51867	7
0.52233	6
0.52600	6
0.52967	6
0.53333	7
0.53700	7
0.54067	3
0.54433	-1
0.54800	-1
0.55167	-3
0.55533	-4
0.55900	-3
0.56267	-3
0.56633	-1
0.57000	1
0.57367	2
0.57733	-0
0.58100	-0
0.58467	-0
0.58833	-2
0.59200	-4
0.59567	-5
0.59933	-3
0.60300	-0
0.60667	3
0.61033	3
0.61400	3
0.61767	3
0.62133	2
0.62500	1
0.62867	-1
0.63233	-1
0.63600	-1
0.63967	-0
0.64333	-1
0.64700	-0
0.65067	0
0.65433	1
0.65800	2
0.66167	2
0.66533	2
0.66900	3
0.67267	2
0.67633	2
0.68000	4
0.68367	5
0.68733	6
0.69100	5
0.69467	6
0.69833	6
0.70200	8
0.70567	8
0.70933	8
0.71300	7
0.71667	5
0.72033	3
0.72400	1
0.72767	-0
0.73133	-0
0.73500	-0
0.73867	2
0.74233	4
0.74600	6
0.74967	7
0.75333	7
0.75700	7
0.76067	7
0.76433	6
0.76800	6
0.77167	4
0.77533	4
0.77900	4
0.78267	3
0.78633	2
0.79000	5
0.79367	7
0.79733	9
0.80100	11
0.80467	12
0.80833	8
0.81200	4
0.81567	3
0.81933	4
0.82300	4
0.82667	4
0.83033	4
0.83400	4
0.83767	4
0.84133	4
0.84500	4
0.84867	6
0.85233	6
0.85600	5
0.85967	6
0.86333	8
0.86700	7
0.87067	6
0.87433	6
0.87800	6
0.88167	8
0.88533	9
0.88900	8
0.89267	7
0.89633	7
0.90000	8
0.90367	8
0.90733	8
0.91100	9
0.91467	10
0.91833	9
0.92200	9
0.92567	9
0.92933	10
0.93300	11
0.93667	10
0.94033	9
0.94400	9
0.94767	9
0.95133	10
0.95500	12
0.95867	11
0.96233	8
0.96600	8
0.96967	9
0.97333	10
0.97700	11
0.98067	12
0.98433	14
0.98800	15
0.99167	15
0.99533	15
0.99900	14
1.00267	13
1.00633	13
1.01000	12
1.01367	10
1.01733	9
1.02100	11
1.02467	12
1.02833	12
1.03200	11
1.03567	12
1.03933	14
1.04300	13
1.04667	13
1.05033	16
1.05400	15
1.05767	12
1.06133	9
1.06500	8
1.06867	9
1.07233	12
1.07600	16
1.07967	16
1.08333	14
1.08700	10
1.09067	9
1.09433	10
1.09800	10
1.10167	9
1.10533	7
1.10900	7
1.11267	8
1.11633	9
1.12000	11
1.12367	13
1.12733	13
1.13100	12
1.13467	14
1.13833	13
1.14200	11
1.14567	11
1.14933	14
1.15300	15
1.15667	15
1.16033	14
1.16400	11
1.16767	8
1.17133	7
1.17500	7
1.17867	8
1.18233	12
1.18600	14
1.18967	13
1.19333	13
1.19700	13
1.20067	13
1.20433	13
1.20800	12
1.21167	10
1.21533	6
1.21900	4
1.22267	3
1.22633	4
1.23000	5
1.23367	8
1.23733	10
1.24100	11
1.24467	11
1.24833	11
1.25200	12
1.25567	12
1.25933	13
1.26300	13
1.26667	15
1.27033	16
1.27400	16
1.27767	14
1.28133	12
1.28500	11
1.28867	9
1.29233	8
1.29600	10
1.29967	12
1.30333	11
1.30700	10
1.31067	11
1.31433	13
1.31800	14
1.32167	12
1.32533	12
1.32900	12
1.33267	11
1.33633	11
1.34000	11
1.34367	10
1.34733	10
1.35100	11
1.35467	12
1.35833	13
1.36200	16
1.36567	17
1.36933	14
1.37300	12
1.37667	11
1.38033	10
1.38400	9
1.38767	8
1.39133	10
1.39500	11
1.39867	9
1.40233	10
1.40600	12
1.40967	13
1.41333	16
1.41700	17
1.42067	14
1.42433	12
1.42800	12
1.43167	12
1.43533	14
1.43900	15
1.44267	15
1.44633	15
1.45000	13
1.45367	12
1.45733	11
1.46100	10
1.46467	10
1.46833	10
1.47200	12
1.47567	15
1.47933	15
1.48300	15
1.48667	16
1.49033	18
1.49400	16
1.49767	15
1.50133	16
1.50500	18
1.50867	20
1.51233	21
1.51600	20
1.51967	20
1.52333	18
1.52700	16
1.53067	16
1.53433	17
1.53800	18
1.54167	16
1.54533	14
1.54900	14
1.55267	16
1.55633	18
1.56000	19
1.56367	20
1.56733	22
1.57100	23
1.57467	24
1.57833	24
1.58200	25
1.58567	25
1.58933	22
1.59300	19
1.59667	18
1.60033	17
1.60400	19
1.60767	20
1.61133	20
1.61500	19
1.61867	18
1.62233	19
1.62600	18
1.62967	18
1.63333	19
1.63700	21
1.64067	22
1.64433	20
1.64800	19
1.65167	17
1.65533	17
1.65900	19
1.66267	23
1.66633	28
1.67000	30
1.67367	30
1.67733	31
1.68100	31
1.68467	30
1.68833	27
1.69200	24
1.69567	24
1.69933	26
1.70300	27
1.70667	29
1.71033	31
1.71400	33
1.71767	34
1.72133	34
1.72500	34
1.72867	35
1.73233	39
1.73600	40
1.73967	38
1.74333	35
1.74700	34
1.75067	35
1.75433	35
1.75800	35
1.76167	36
1.76533	36
1.76900	35
1.77267	35
1.77633	36
1.78000	37
1.78367	37
1.78733	38
1.79100	36
1.79467	36
1.79833	35
1.80200	36
1.80567	37
1.80933	39
1.81300	39
1.81667	39
1.82033	39
1.82400	41
1.82767	40
1.83133	40
1.83500	41
1.83867	41
1.84233	42
1.84600	43
1.84967	44
1.85333	46
1.85700	46
1.86067	47
1.86433	47
1.86800	45
1.87167	45
1.87533	46
1.87900	50
1.88267	51
1.88633	53
1.89000	55
1.89367	58
1.89733	58
1.90100	58
1.90467	56
1.90833	55
1.91200	53
1.91567	53
1.91933	55
1.92300	57
1.92667	59
1.93033	58
1.93400	60
1.93767	59
1.94133	58
1.94500	59
1.94867	57
1.95233	58
1.95600	62
1.95967	63
1.96333	64
1.96700	64
1.97067	65
1.97433	68
1.97800	70
1.98167	71
1.98533	71
1.98900	71
1.99267	73
1.99633	76
2.00000	77
2.00367	76
2.00733	76
2.01100	76
2.01467	76
2.01833	77
2.02200	78
2.02567	80
2.02933	80
2.03300	80
2.03667	81
2.04033	83
2.04400	84
2.04767	85
2.05133	87
2.05500	89
2.05867	91
2.06233	92
2.06600	93
2.06967	95
2.07333	95
2.07700	96
2.08067	96
2.08433	94
2.08800	95
2.09167	97
2.09533	98
2.09900	101
2.10267	101
2.10633	105
2.11000	108
2.11367	112
2.11733	114
2.12100	115
2.12467	113
2.12833	112
2.13200	114
2.13567	117
2.13933	121
2.14300	123
2.14667	125
2.15033	126
2.15400	126
2.15767	125
2.16133	124
2.16500	124
2.16867	127
2.17233	131
2.17600	134
2.17967	137
2.18333	139
2.18700	141
2.19067	142
2.19433	143
2.19800	142
2.20167	141
2.20533	142
2.20900	144
2.21267	146
2.21633	150
2.22000	153
2.22367	154
2.22733	156
2.23100	157
2.23467	156
2.23833	154
2.24200	156
2.24567	159
2.24933	163
2.25300	165
2.25667	166
2.26033	169
2.26400	170
2.26767	172
2.27133	174
2.27500	175
2.27867	175
2.28233	178
2.28600	179
2.28967	181
2.29333	182
2.29700	183
2.30067	184
2.30433	186
2.30800	188
2.31167	191
2.31533	195
2.31900	196
2.32267	198
2.32633	200
2.33000	202
2.33367	204
2.33733	207
2.34100	209
2.34467	211
2.34833	210
2.35200	211
2.35567	211
2.35933	212
2.36300	213
2.36667	216
2.37033	220
2.37400	223
2.37767	225
2.38133	228
2.38500	230
2.38867	228
2.39233	230
2.39600	232
2.39967	235
2.40333	237
2.40700	239
2.41067	244
2.41433	252
2.41800	256
2.42167	258
2.42533	259
2.42900	262
2.43267	264
2.43633	264
2.44000	268
2.44367	326
2.44733	479
2.45100	646
2.45467	784
2.45833	864
2.46200	869
2.46567	827
2.46933	771
2.47300	724
2.47667	694
2.48033	673
2.48400	643
2.48767	600
2.49133	553
2.49500	506
2.49867	466
2.50233	436
2.50600	417
2.50967	407
2.51333	407
2.51700	417
2.52067	433
2.52433	452
2.52800	473
2.53167	484
2.53533	482
2.53900	469
2.54267	447
2.54633	417
2.55000	388
2.55367	359
2.55733	332
2.56100	311
2.56467	297
2.56833	288
2.57200	281
2.57567	276
2.57933	271
2.58300	269
2.58667	270
2.59033	270
2.59400	268
2.59767	265
2.60133	258
2.60500	250
2.60867	241
2.61233	231
2.61600	218
2.61967	205
2.62333	195
2.62700	187
2.63067	182
2.63433	179
2.63800	179
2.64167	178
2.64533	180
2.64900	180
2.65267	179
2.65633	175
2.66000	170
2.66367	164
2.66733	156
2.67100	149
2.67467	143
2.67833	135
2.68200	129
2.68567	121
2.68933	115
2.69300	111
2.69667	106
2.70033	104
2.70400	103
2.70767	102
2.71133	102
2.71500	104
2.71867	105
2.72233	106
2.72600	108
2.72967	112
2.73333	115
2.73700	120
2.74067	122
2.74433	122
2.74800	122
2.75167	123
2.75533	124
2.75900	127
2.76267	128
2.76633	130
2.77000	133
2.77367	134
2.77733	134
2.78100	135
2.78467	137
2.78833	141
2.79200	144
2.79567	147
2.79933	149
2.80300	151
2.80667	151
2.81033	155
2.81400	160
2.81767	167
2.82133	180
2.82500	207
2.82867	262
2.83233	365
2.83600	537
2.83967	802
2.84333	1174
2.84700	1650
2.85067	2216
2.85433	2838
2.85800	3469
2.86167	4059
2.86533	4559
2.86900	4929
2.87267	5151
2.87633	5224
2.88000	5158
2.88367	4976
2.88733	4707
2.89100	4383
2.89467	4026
2.89833	3661
2.90200	3303
2.90567	2962
2.90933	2646
2.91300	2354
2.91667	2091
2.92033	1855
2.92400	1643
2.92767	1454
2.93133	1289
2.93500	1145
2.93867	1018
2.94233	908
2.94600	812
2.94967	728
2.95333	654
2.95700	590
2.96067	535
2.96433	487
2.96800	443
2.97167	407
2.97533	375
2.97900	349
2.98267	325
2.98633	303
2.99000	284
2.99367	267
2.99733	252
3.00100	239
3.00467	227
3.00833	215
3.01200	205
3.01567	196
3.01933	189
3.02300	182
3.02667	177
3.03033	172
3.03400	166
3.03767	162
3.04133	158
3.04500	156
3.04867	155
3.05233	152
3.05600	148
3.05967	144
3.06333	141
3.06700	141
3.07067	141
3.07433	140
3.07800	137
3.08167	138
3.08533	138
3.08900	137
3.09267	139
3.09633	140
3.10000	138
3.10367	136
3.10733	136
3.11100	136
3.11467	137
3.11833	135
3.12200	132
3.12567	131
3.12933	130
3.13300	129
3.13667	132
3.14033	135
3.14400	134
3.14767	131
3.15133	128
3.15500	126
3.15867	126
3.16233	127
3.16600	128
3.16967	127
3.17333	105
3.17700	68
3.18067	33
3.18433	19
3.18800	32
3.19167	63
3.19533	104
3.19900	149
3.20267	196
3.20633	242
3.21000	285
3.21367	327
3.21733	364
3.22100	398
3.22467	431
3.22833	459
3.23200	485
3.23567	506
3.23933	523
3.24300	538
3.24667	551
3.25033	561
3.25400	572
3.25767	582
3.26133	590
3.26500	597
3.26867	602
3.27233	608
3.27600	612
3.27967	614
3.28333	618
3.28700	623
3.29067	627
3.29433	631
3.29800	634
3.30167	637
3.30533	644
3.30900	650
3.31267	655
3.31633	659
3.32000	661
3.32367	664
3.32733	667
3.33100	673
3.33467	679
3.33833	683
3.34200	687
3.34567	693
3.34933	697
3.35300	700
3.35667	705
3.36033	708
3.36400	710
3.36767	712
3.37133	717
3.37500	722
3.37867	727
3.38233	729
3.38600	730
3.38967	732
3.39333	734
3.39700	737
3.40067	739
3.40433	739
3.40800	739
3.41167	738
3.41533	736
3.41900	738
3.42267	739
3.42633	738
3.43000	737
3.43367	735
3.43733	733
3.44100	732
3.44467	729
3.44833	727
3.45200	724
3.45567	722
3.45933	720
3.46300	717
3.46667	716
3.47033	714
3.47400	709
3.47767	706
3.48133	702
3.48500	699
3.48867	696
3.49233	693
3.49600	692
3.49967	690
3.50333	688
3.50700	685
3.51067	681
3.51433	678
3.51800	674
3.52167	673
3.52533	673
3.52900	672
3.53267	671
3.53633	671
3.54000	671
3.54367	666
3.54733	663
3.55100	664
3.55467	666
3.55833	666
3.56200	667
3.56567	667
3.56933	666
3.57300	665
3.57667	664
3.58033	663
3.58400	664
3.58767	665
3.59133	667
3.59500	667
3.59867	669
3.60233	668
3.60600	666
3.60967	665
3.61333	664
3.61700	665
3.62067	666
3.62433	665
3.62800	663
3.63167	663
3.63533	663
3.63900	662
3.64267	660
3.64633	661
3.65000	662
3.65367	662
3.65733	663
3.66100	662
3.66467	661
3.66833	660
3.67200	662
3.67567	664
3.67933	665
3.68300	664
3.68667	663
3.69033	662
3.69400	661
3.69767	661
3.70133	661
3.70500	661
3.70867	661
3.71233	661
3.71600	662
3.71967	663
3.72333	664
3.72700	663
3.73067	662
3.73433	663
3.73800	662
3.74167	661
3.74533	660
3.74900	659
3.75267	658
3.75633	658
3.76000	658
3.76367	660
3.76733	661
3.77100	660
3.77467	660
3.77833	661
3.78200	658
3.78567	656
3.78933	654
3.79300	654
3.79667	652
3.80033	651
3.80400	651
3.80767	652
3.81133	651
3.81500	647
3.81867	645
3.82233	644
3.82600	642
3.82967	640
3.83333	637
3.83700	636
3.84067	635
3.84433	633
3.84800	634
3.85167	633
3.85533	630
3.85900	628
3.86267	629
3.86633	632
3.87000	634
3.87367	635
3.87733	634
3.88100	632
3.88467	630
3.88833	627
3.89200	625
3.89567	626
3.89933	627
3.90300	625
3.90667	622
3.91033	618
3.91400	616
3.91767	616
3.92133	615
3.92500	615
3.92867	614
3.93233	613
3.93600	609
3.93967	606
3.94333	605
3.94700	603
3.95067	601
3.95433	600
3.95800	598
3.96167	595
3.96533	594
3.96900	593
3.97267	591
3.97633	592
3.98000	592
3.98367	589
3.98733	587
3.99100	585
3.99467	581
3.99833	577

[Status Trace (Column Oven Temperature)]
Interval(msec)	1000
# of Points	240
Start Time(min)	0.002
End Time(min)	3.986
Intensity Units	
Intensity Multiplier	1
R.Time (min)	Intensity
0.00228	35.06
0.01895	35.04
0.03562	35.03
0.05228	35.02
0.06895	35.01
0.08562	35.00
0.10228	35.00
0.11895	35.01
0.13562	35.00
0.15228	34.99
0.16895	35.00
0.18562	35.00
0.20228	35.01
0.21895	35.02
0.23562	35.01
0.25228	35.00
0.26895	34.98
0.28562	34.96
0.30228	34.96
0.31895	34.96
0.33562	34.96
0.35228	34.97
0.36895	34.98
0.38562	34.98
0.40228	34.98
0.41895	34.98
0.43562	34.98
0.45228	34.98
0.46895	34.98
0.48562	35.00
0.50228	35.01
0.51895	35.02
0.53562	35.03
0.55228	35.04
0.56895	35.05
0.58562	35.06
0.60228	35.06
0.61895	35.05
0.63562	35.04
0.65228	35.02
0.66895	35.02
0.68562	35.02
0.70228	34.99
0.71895	35.00
0.73562	35.01
0.75228	35.03
0.76895	35.03
0.78562	35.03
0.80228	35.02
0.81895	35.01
0.83562	35.02
0.85228	35.00
0.86895	34.99
0.88562	34.99
0.90228	34.99
0.91895	35.00
0.93562	34.99
0.95228	34.99
0.96895	34.98
0.98562	34.98
1.00228	34.99
1.01895	34.98
1.03562	34.99
1.05228	34.99
1.06895	34.99
1.08562	34.99
1.10228	35.00
1.11895	35.01
1.13562	35.01
1.15228	35.01
1.16895	35.02
1.18562	35.01
1.20228	34.99
1.21895	34.97
1.23562	34.99
1.25228	34.99
1.26895	34.98
1.28562	34.98
1.30228	34.98
1.31895	34.97
1.33562	34.98
1.35228	34.98
1.36895	34.99
1.38562	35.00
1.40228	35.01
1.41895	35.02
1.43562	35.02
1.45228	35.02
1.46895	35.02
1.48562	35.02
1.50228	35.01
1.51895	35.01
1.53562	34.99
1.55228	34.99
1.56895	35.00
1.58562	35.00
1.60228	35.03
1.61895	35.14
1.63562	35.31
1.65228	35.53
1.66895	35.83
1.68562	36.20
1.70228	36.56
1.71895	36.89
1.73562	37.24
1.75228	37.58
1.76895	37.90
1.78562	38.24
1.80228	38.57
1.81895	38.89
1.83562	39.22
1.85228	39.55
1.86895	39.88
1.88562	40.22
1.90228	40.54
1.91895	40.87
1.93562	41.21
1.95228	41.54
1.96895	41.87
1.98562	42.18
2.00228	42.52
2.01895	42.84
2.03562	43.14
2.05228	43.47
2.06895	43.80
2.08562	44.13
2.10228	44.46
2.11895	44.79
2.13562	45.12
2.15228	45.46
2.16895	45.79
2.18562	46.12
2.20228	46.46
2.21895	46.78
2.23562	47.10
2.25228	47.43
2.26895	47.76
2.28562	48.09
2.30228	48.41
2.31895	48.75
2.33562	49.09
2.35228	49.38
2.36895	49.57
2.38562	49.63
2.40228	49.62
2.41895	49.63
2.43562	49.65
2.45228	49.65
2.46895	49.65
2.48562	49.67
2.50228	49.69
2.51895	49.70
2.53562	49.72
2.55228	49.74
2.56895	49.77
2.58562	49.77
2.60228	49.80
2.61895	49.81
2.63562	49.81
2.65228	49.81
2.66895	49.83
2.68562	49.83
2.70228	49.85
2.71895	49.85
2.73562	49.85
2.75228	49.85
2.76895	49.86
2.78562	49.88
2.80228	49.88
2.81895	49.88
2.83562	49.88
2.85228	49.88
2.86895	49.88
2.88562	49.89
2.90228	49.91
2.91895	49.93
2.93562	49.95
2.95228	49.97
2.96895	49.97
2.98562	49.97
3.00228	49.98
3.01895	49.99
3.03562	49.98
3.05228	50.00
3.06895	50.01
3.08562	50.02
3.10228	50.03
3.11895	50.04
3.13562	50.05
3.15228	50.06
3.16895	50.07
3.18562	50.07
3.20228	50.06
3.21895	50.06
3.23562	50.07
3.25228	50.08
3.26895	50.09
3.28562	50.09
3.30228	50.08
3.31895	50.08
3.33562	50.09
3.35228	50.10
3.36895	50.10
3.38562	50.10
3.40228	50.11
3.41895	50.10
3.43562	50.09
3.45228	50.08
3.46895	50.07
3.48562	50.07
3.50228	50.08
3.51895	50.08
3.53562	50.08
3.55228	50.08
3.56895	50.09
3.58562	50.08
3.60228	50.09
3.61895	50.08
3.63562	50.07
3.65228	50.07
3.66895	50.07
3.68562	50.07
3.70228	50.07
3.71895	50.07
3.73562	50.07
3.75228	50.06
3.76895	50.05
3.78562	50.05
3.80228	50.03
3.81895	50.03
3.83562	50.03
3.85228	50.03
3.86895	50.03
3.88562	50.04
3.90228	50.05
3.91895	50.05
3.93562	50.06
3.95228	50.06
3.96895	50.05
3.98562	50.04

[Status Trace (Injection Unit Temperature)]
Interval(msec)	1000
# of Points	240
Start Time(min)	0.002
End Time(min)	3.986
Intensity Units	
Intensity Multiplier	1
R.Time (min)	Intensity
0.00228	99.97
0.01895	99.97
0.03562	99.97
0.05228	99.98
0.06895	99.97
0.08562	99.98
0.10228	99.97
0.11895	99.98
0.13562	99.98
0.15228	99.97
0.16895	99.98
0.18562	99.98
0.20228	99.98
0.21895	99.98
0.23562	99.98
0.25228	99.98
0.26895	99.97
0.28562	99.98
0.30228	99.98
0.31895	99.98
0.33562	99.98
0.35228	99.98
0.36895	99.98
0.38562	99.98
0.40228	99.98
0.41895	99.98
0.43562	99.98
0.45228	99.98
0.46895	99.98
0.48562	99.98
0.50228	99.98
0.51895	99.98
0.53562	99.98
0.55228	99.98
0.56895	99.98
0.58562	99.98
0.60228	99.99
0.61895	99.98
0.63562	99.98
0.65228	99.98
0.66895	99.98
0.68562	99.98
0.70228	99.98
0.71895	99.98
0.73562	99.98
0.75228	99.98
0.76895	99.98
0.78562	99.98
0.80228	99.99
0.81895	99.98
0.83562	99.98
0.85228	99.98
0.86895	99.98
0.88562	99.98
0.90228	99.98
0.91895	99.99
0.93562	99.98
0.95228	99.98
0.96895	99.98
0.98562	99.99
1.00228	99.99
1.01895	99.98
1.03562	99.98
1.05228	99.98
1.06895	99.98
1.08562	99.98
1.10228	99.98
1.11895	99.99
1.13562	99.98
1.15228	99.98
1.16895	99.98
1.18562	99.98
1.20228	99.98
1.21895	99.98
1.23562	99.98
1.25228	99.98
1.26895	99.98
1.28562	99.98
1.30228	99.98
1.31895	99.98
1.33562	99.98
1.35228	99.98
1.36895	99.97
1.38562	99.97
1.40228	99.98
1.41895	99.97
1.43562	99.98
1.45228	99.98
1.46895	99.98
1.48562	99.98
1.50228	99.97
1.51895	99.97
1.53562	99.97
1.55228	99.98
1.56895	99.97
1.58562	99.98
1.60228	99.97
1.61895	99.97
1.63562	99.97
1.65228	99.98
1.66895	99.98
1.68562	99.97
1.70228	99.98
1.71895	99.98
1.73562	99.98
1.75228	99.98
1.76895	99.98
1.78562	99.98
1.80228	99.98
1.81895	99.98
1.83562	99.98
1.85228	99.98
1.86895	99.98
1.88562	99.98
1.90228	99.98
1.91895	99.98
1.93562	99.98
1.95228	99.97
1.96895	99.98
1.98562	99.98
2.00228	99.97
2.01895	99.98
2.03562	99.98
2.05228	99.98
2.06895	99.98
2.08562	99.98
2.10228	99.98
2.11895	99.98
2.13562	99.98
2.15228	99.98
2.16895	99.97
2.18562	99.98
2.20228	99.97
2.21895	99.98
2.23562	99.98
2.25228	99.98
2.26895	99.98
2.28562	99.98
2.30228	99.98
2.31895	99.98
2.33562	99.97
2.35228	99.97
2.36895	99.97
2.38562	99.97
2.40228	99.98
2.41895	99.97
2.43562	99.98
2.45228	99.97
2.46895	99.98
2.48562	99.98
2.50228	99.97
2.51895	99.97
2.53562	99.98
2.55228	99.97
2.56895	99.97
2.58562	99.98
2.60228	99.98
2.61895	99.98
2.63562	99.98
2.65228	99.98
2.66895	99.98
2.68562	99.98
2.70228	99.98
2.71895	99.98
2.73562	99.99
2.75228	99.99
2.76895	99.98
2.78562	99.99
2.80228	99.98
2.81895	99.99
2.83562	99.99
2.85228	99.99
2.86895	99.99
2.88562	99.99
2.90228	100.00
2.91895	100.00
2.93562	100.00
2.95228	100.00
2.96895	100.00
2.98562	100.00
3.00228	100.00
3.01895	100.00
3.03562	100.00
3.05228	100.00
3.06895	100.01
3.08562	100.00
3.10228	100.01
3.11895	100.01
3.13562	100.02
3.15228	100.01
3.16895	100.01
3.18562	100.02
3.20228	100.02
3.21895	100.01
3.23562	100.02
3.25228	100.02
3.26895	100.02
3.28562	100.03
3.30228	100.02
3.31895	100.02
3.33562	100.02
3.35228	100.02
3.36895	100.03
3.38562	100.03
3.40228	100.03
3.41895	100.03
3.43562	100.03
3.45228	100.03
3.46895	100.04
3.48562	100.03
3.50228	100.04
3.51895	100.04
3.53562	100.04
3.55228	100.04
3.56895	100.04
3.58562	100.04
3.60228	100.04
3.61895	100.04
3.63562	100.05
3.65228	100.05
3.66895	100.05
3.68562	100.05
3.70228	100.05
3.71895	100.04
3.73562	100.05
3.75228	100.05
3.76895	100.05
3.78562	100.05
3.80228	100.05
3.81895	100.04
3.83562	100.05
3.85228	100.04
3.86895	100.05
3.88562	100.05
3.90228	100.05
3.91895	100.05
3.93562	100.05
3.95228	100.05
3.96895	100.05
3.98562	100.05

[Status Trace (Carrier Gas Pressure)]
Interval(msec)	1000
# of Points	240
Start Time(min)	0.002
End Time(min)	3.986
Intensity Units	
Intensity Multiplier	1
R.Time (min)	Intensity
0.00228	58.00
0.01895	56.22
0.03562	56.25
0.05228	58.55
0.06895	59.86
0.08562	58.33
0.10228	57.97
0.11895	58.00
0.13562	58.01
0.15228	58.01
0.16895	58.00
0.18562	58.00
0.20228	58.00
0.21895	58.00
0.23562	58.00
0.25228	58.00
0.26895	58.00
0.28562	58.00
0.30228	58.00
0.31895	58.00
0.33562	58.00
0.35228	58.00
0.36895	58.00
0.38562	58.00
0.40228	58.00
0.41895	58.00
0.43562	58.00
0.45228	58.00
0.46895	58.00
0.48562	58.00
0.50228	58.00
0.51895	58.00
0.53562	58.00
0.55228	58.00
0.56895	58.00
0.58562	58.00
0.60228	58.00
0.61895	58.00
0.63562	58.00
0.65228	58.00
0.66895	58.00
0.68562	58.00
0.70228	58.00
0.71895	58.00
0.73562	58.00
0.75228	58.00
0.76895	58.00
0.78562	58.00
0.80228	58.00
0.81895	58.00
0.83562	58.00
0.85228	58.00
0.86895	58.00
0.88562	58.00
0.90228	58.00
0.91895	58.00
0.93562	58.00
0.95228	58.00
0.96895	58.00
0.98562	58.00
1.00228	58.00
1.01895	58.00
1.03562	58.00
1.05228	58.00
1.06895	58.00
1.08562	58.00
1.10228	58.00
1.11895	58.00
1.13562	58.00
1.15228	58.00
1.16895	58.00
1.18562	58.00
1.20228	58.00
1.21895	58.00
1.23562	58.00
1.25228	58.00
1.26895	58.00
1.28562	58.00
1.30228	58.00
1.31895	58.00
1.33562	58.00
1.35228	58.00
1.36895	58.00
1.38562	58.00
1.40228	58.00
1.41895	58.00
1.43562	58.00
1.45228	58.00
1.46895	58.00
1.48562	58.00
1.50228	58.00
1.51895	58.00
1.53562	58.00
1.55228	58.00
1.56895	58.00
1.58562	58.00
1.60228	58.00
1.61895	58.00
1.63562	58.01
1.65228	58.00
1.66895	58.01
1.68562	58.01
1.70228	58.00
1.71895	58.00
1.73562	58.00
1.75228	58.00
1.76895	58.00
1.78562	58.00
1.80228	58.00
1.81895	58.00
1.83562	58.00
1.85228	58.00
1.86895	58.00
1.88562	58.00
1.90228	58.00
1.91895	58.00
1.93562	58.00
1.95228	58.00
1.96895	58.00
1.98562	58.00
2.00228	58.00
2.01895	58.00
2.03562	58.00
2.05228	58.00
2.06895	58.00
2.08562	58.00
2.10228	58.00
2.11895	58.00
2.13562	58.00
2.15228	58.00
2.16895	58.00
2.18562	58.00
2.20228	58.00
2.21895	58.00
2.23562	58.00
2.25228	58.00
2.26895	58.00
2.28562	58.00
2.30228	58.00
2.31895	58.00
2.33562	58.00
2.35228	58.00
2.36895	58.00
2.38562	57.99
2.40228	57.99
2.41895	58.00
2.43562	58.00
2.45228	58.00
2.46895	58.00
2.48562	58.00
2.50228	57.98
2.51895	58.02
2.53562	57.99
2.55228	58.00
2.56895	58.00
2.58562	58.00
2.60228	58.00
2.61895	58.00
2.63562	58.00
2.65228	58.00
2.66895	58.00
2.68562	58.00
2.70228	58.00
2.71895	58.00
2.73562	58.00
2.75228	58.00
2.76895	58.00
2.78562	58.00
2.80228	58.00
2.81895	58.00
2.83562	58.00
2.85228	58.00
2.86895	58.00
2.88562	58.00
2.90228	58.00
2.91895	58.00
2.93562	58.00
2.95228	58.00
2.96895	58.00
2.98562	58.00
3.00228	58.00
3.01895	58.00
3.03562	58.00
3.05228	58.00
3.06895	58.00
3.08562	58.00
3.10228	58.00
3.11895	58.00
3.13562	58.00
3.15228	58.00
3.16895	58.00
3.18562	58.00
3.20228	58.00
3.21895	58.00
3.23562	58.00
3.25228	58.00
3.26895	58.00
3.28562	58.00
3.30228	58.00
3.31895	58.00
3.33562	58.00
3.35228	58.00
3.36895	58.00
3.38562	58.00
3.40228	58.00
3.41895	58.00
3.43562	58.00
3.45228	58.00
3.46895	58.00
3.48562	58.00
3.50228	58.00
3.51895	58.00
3.53562	58.00
3.55228	58.00
3.56895	58.00
3.58562	58.00
3.60228	58.00
3.61895	58.00
3.63562	58.00
3.65228	58.00
3.66895	58.00
3.68562	58.00
3.70228	58.00
3.71895	58.00
3.73562	58.00
3.75228	58.00
3.76895	58.00
3.78562	58.00
3.80228	58.00
3.81895	58.00
3.83562	58.00
3.85228	58.00
3.86895	58.00
3.88562	58.00
3.90228	58.00
3.91895	58.00
3.93562	58.00
3.95228	58.00
3.96895	58.00
3.98562	58.00

[Status Trace (Carrier Gas Flow)]
Interval(msec)	1000
# of Points	240
Start Time(min)	0.002
End Time(min)	3.986
Intensity Units	
Intensity Multiplier	1
R.Time (min)	Intensity
0.00228	34.52
0.01895	34.60
0.03562	34.54
0.05228	34.54
0.06895	34.50
0.08562	34.52
0.10228	34.52
0.11895	34.51
0.13562	34.52
0.15228	34.52
0.16895	34.52
0.18562	34.52
0.20228	34.52
0.21895	34.52
0.23562	34.52
0.25228	34.52
0.26895	34.52
0.28562	34.52
0.30228	34.52
0.31895	34.52
0.33562	34.51
0.35228	34.52
0.36895	34.52
0.38562	34.52
0.40228	34.52
0.41895	34.52
0.43562	34.52
0.45228	34.52
0.46895	34.52
0.48562	34.52
0.50228	34.52
0.51895	34.52
0.53562	34.52
0.55228	34.52
0.56895	34.52
0.58562	34.52
0.60228	34.52
0.61895	34.52
0.63562	34.52
0.65228	34.52
0.66895	34.52
0.68562	34.52
0.70228	34.52
0.71895	34.52
0.73562	34.52
0.75228	34.52
0.76895	34.52
0.78562	34.52
0.80228	34.52
0.81895	34.52
0.83562	34.52
0.85228	34.52
0.86895	34.52
0.88562	34.52
0.90228	34.52
0.91895	34.52
0.93562	34.52
0.95228	34.52
0.96895	34.52
0.98562	34.52
1.00228	34.52
1.01895	34.52
1.03562	34.51
1.05228	34.52
1.06895	34.52
1.08562	34.52
1.10228	34.52
1.11895	34.52
1.13562	34.52
1.15228	34.52
1.16895	34.52
1.18562	34.52
1.20228	34.52
1.21895	34.52
1.23562	34.52
1.25228	34.52
1.26895	34.52
1.28562	34.52
1.30228	34.52
1.31895	34.52
1.33562	34.52
1.35228	34.52
1.36895	34.52
1.38562	34.52
1.40228	34.52
1.41895	34.52
1.43562	34.51
1.45228	34.52
1.46895	34.52
1.48562	34.52
1.50228	34.52
1.51895	34.52
1.53562	34.52
1.55228	34.52
1.56895	34.52
1.58562	34.52
1.60228	34.52
1.61895	34.52
1.63562	34.52
1.65228	34.52
1.66895	34.52
1.68562	34.52
1.70228	34.51
1.71895	34.52
1.73562	34.52
1.75228	34.52
1.76895	34.52
1.78562	34.52
1.80228	34.52
1.81895	34.52
1.83562	34.52
1.85228	34.52
1.86895	34.52
1.88562	34.51
1.90228	34.52
1.91895	34.52
1.93562	34.52
1.95228	34.52
1.96895	34.52
1.98562	34.52
2.00228	34.52
2.01895	34.52
2.03562	34.52
2.05228	34.52
2.06895	34.52
2.08562	34.52
2.10228	34.52
2.11895	34.52
2.13562	34.52
2.15228	34.52
2.16895	34.52
2.18562	34.52
2.20228	34.52
2.21895	34.52
2.23562	34.52
2.25228	34.52
2.26895	34.52
2.28562	34.52
2.30228	34.52
2.31895	34.52
2.33562	34.52
2.35228	34.52
2.36895	34.52
2.38562	34.56
2.40228	34.52
2.41895	34.52
2.43562	34.52
2.45228	34.52
2.46895	34.52
2.48562	34.52
2.50228	34.57
2.51895	34.52
2.53562	34.52
2.55228	34.52
2.56895	34.52
2.58562	34.53
2.60228	34.52
2.61895	34.52
2.63562	34.52
2.65228	34.52
2.66895	34.52
2.68562	34.52
2.70228	34.52
2.71895	34.52
2.73562	34.51
2.75228	34.52
2.76895	34.52
2.78562	34.51
2.80228	34.52
2.81895	34.52
2.83562	34.52
2.85228	34.52
2.86895	34.52
2.88562	34.51
2.90228	34.52
2.91895	34.52
2.93562	34.52
2.95228	34.52
2.96895	34.52
2.98562	34.52
3.00228	34.52
3.01895	34.52
3.03562	34.52
3.05228	34.52
3.06895	34.52
3.08562	34.52
3.10228	34.52
3.11895	34.52
3.13562	34.52
3.15228	34.52
3.16895	34.52
3.18562	34.52
3.20228	34.52
3.21895	34.52
3.23562	34.52
3.25228	34.52
3.26895	34.52
3.28562	34.52
3.30228	34.52
3.31895	34.52
3.33562	34.52
3.35228	34.52
3.36895	34.53
3.38562	34.52
3.40228	34.52
3.41895	34.52
3.43562	34.51
3.45228	34.52
3.46895	34.52
3.48562	34.52
3.50228	34.52
3.51895	34.52
3.53562	34.52
3.55228	34.52
3.56895	34.52
3.58562	34.52
3.60228	34.52
3.61895	34.52
3.63562	34.52
3.65228	34.52
3.66895	34.52
3.68562	34.52
3.70228	34.52
3.71895	34.52
3.73562	34.52
3.75228	34.52
3.76895	34.52
3.78562	34.52
3.80228	34.52
3.81895	34.52
3.83562	34.52
3.85228	34.52
3.86895	34.52
3.88562	34.52
3.90228	34.52
3.91895	34.52
3.93562	34.52
3.95228	34.52
3.96895	34.52
3.98562	34.52

[Status Trace (Column Flow)]
Interval(msec)	1000
# of Points	240
Start Time(min)	0.002
End Time(min)	3.986
Intensity Units	
Intensity Multiplier	1
R.Time (min)	Intensity
0.00228	5.52
0.01895	5.31
0.03562	5.32
0.05228	5.59
0.06895	5.74
0.08562	5.56
0.10228	5.52
0.11895	5.52
0.13562	5.52
0.15228	5.52
0.16895	5.52
0.18562	5.52
0.20228	5.52
0.21895	5.52
0.23562	5.52
0.25228	5.52
0.26895	5.52
0.28562	5.52
0.30228	5.52
0.31895	5.52
0.33562	5.52
0.35228	5.52
0.36895	5.52
0.38562	5.52
0.40228	5.52
0.41895	5.52
0.43562	5.52
0.45228	5.52
0.46895	5.52
0.48562	5.52
0.50228	5.52
0.51895	5.52
0.53562	5.52
0.55228	5.52
0.56895	5.52
0.58562	5.52
0.60228	5.52
0.61895	5.52
0.63562	5.52
0.65228	5.52
0.66895	5.52
0.68562	5.52
0.70228	5.52
0.71895	5.52
0.73562	5.52
0.75228	5.52
0.76895	5.52
0.78562	5.52
0.80228	5.52
0.81895	5.52
0.83562	5.52
0.85228	5.52
0.86895	5.52
0.88562	5.52
0.90228	5.52
0.91895	5.52
0.93562	5.52
0.95228	5.52
0.96895	5.52
0.98562	5.52
1.00228	5.52
1.01895	5.52
1.03562	5.52
1.05228	5.52
1.06895	5.52
1.08562	5.52
1.10228	5.52
1.11895	5.52
1.13562	5.52
1.15228	5.52
1.16895	5.52
1.18562	5.52
1.20228	5.52
1.21895	5.52
1.23562	5.52
1.25228	5.52
1.26895	5.52
1.28562	5.52
1.30228	5.52
1.31895	5.52
1.33562	5.52
1.35228	5.52
1.36895	5.52
1.38562	5.52
1.40228	5.52
1.41895	5.52
1.43562	5.52
1.45228	5.52
1.46895	5.52
1.48562	5.52
1.50228	5.52
1.51895	5.52
1.53562	5.52
1.55228	5.52
1.56895	5.52
1.58562	5.52
1.60228	5.52
1.61895	5.52
1.63562	5.51
1.65228	5.51
1.66895	5.50
1.68562	5.49
1.70228	5.47
1.71895	5.46
1.73562	5.45
1.75228	5.44
1.76895	5.43
1.78562	5.42
1.80228	5.41
1.81895	5.40
1.83562	5.39
1.85228	5.38
1.86895	5.37
1.88562	5.36
1.90228	5.35
1.91895	5.34
1.93562	5.33
1.95228	5.32
1.96895	5.31
1.98562	5.30
2.00228	5.29
2.01895	5.28
2.03562	5.28
2.05228	5.26
2.06895	5.26
2.08562	5.25
2.10228	5.24
2.11895	5.23
2.13562	5.22
2.15228	5.21
2.16895	5.20
2.18562	5.19
2.20228	5.18
2.21895	5.17
2.23562	5.16
2.25228	5.15
2.26895	5.14
2.28562	5.13
2.30228	5.12
2.31895	5.11
2.33562	5.10
2.35228	5.10
2.36895	5.09
2.38562	5.09
2.40228	5.09
2.41895	5.09
2.43562	5.09
2.45228	5.09
2.46895	5.09
2.48562	5.09
2.50228	5.09
2.51895	5.09
2.53562	5.09
2.55228	5.09
2.56895	5.09
2.58562	5.09
2.60228	5.08
2.61895	5.08
2.63562	5.08
2.65228	5.08
2.66895	5.08
2.68562	5.08
2.70228	5.08
2.71895	5.08
2.73562	5.08
2.75228	5.08
2.76895	5.08
2.78562	5.08
2.80228	5.08
2.81895	5.08
2.83562	5.08
2.85228	5.08
2.86895	5.08
2.88562	5.08
2.90228	5.08
2.91895	5.08
2.93562	5.08
2.95228	5.08
2.96895	5.08
2.98562	5.08
3.00228	5.08
3.01895	5.08
3.03562	5.08
3.05228	5.08
3.06895	5.08
3.08562	5.08
3.10228	5.08
3.11895	5.08
3.13562	5.08
3.15228	5.08
3.16895	5.08
3.18562	5.08
3.20228	5.08
3.21895	5.08
3.23562	5.08
3.25228	5.08
3.26895	5.08
3.28562	5.08
3.30228	5.08
3.31895	5.08
3.33562	5.08
3.35228	5.08
3.36895	5.08
3.38562	5.08
3.40228	5.08
3.41895	5.08
3.43562	5.08
3.45228	5.08
3.46895	5.08
3.48562	5.08
3.50228	5.08
3.51895	5.08
3.53562	5.08
3.55228	5.08
3.56895	5.08
3.58562	5.08
3.60228	5.08
3.61895	5.08
3.63562	5.08
3.65228	5.08
3.66895	5.08
3.68562	5.08
3.70228	5.08
3.71895	5.08
3.73562	5.08
3.75228	5.08
3.76895	5.08
3.78562	5.08
3.80228	5.08
3.81895	5.08
3.83562	5.08
3.85228	5.08
3.86895	5.08
3.88562	5.08
3.90228	5.08
3.91895	5.08
3.93562	5.08
3.95228	5.08
3.96895	5.08
3.98562	5.08

[Status Trace (Linear Velocity)]
Interval(msec)	1000
# of Points	240
Start Time(min)	0.002
End Time(min)	3.986
Intensity Units	
Intensity Multiplier	1
R.Time (min)	Intensity
0.00228	39.01
0.01895	37.85
0.03562	37.87
0.05228	39.37
0.06895	40.24
0.08562	39.23
0.10228	39.00
0.11895	39.02
0.13562	39.02
0.15228	39.02
0.16895	39.02
0.18562	39.02
0.20228	39.02
0.21895	39.02
0.23562	39.02
0.25228	39.02
0.26895	39.02
0.28562	39.02
0.30228	39.02
0.31895	39.02
0.33562	39.02
0.35228	39.02
0.36895	39.02
0.38562	39.02
0.40228	39.02
0.41895	39.02
0.43562	39.02
0.45228	39.02
0.46895	39.02
0.48562	39.02
0.50228	39.02
0.51895	39.01
0.53562	39.01
0.55228	39.01
0.56895	39.01
0.58562	39.01
0.60228	39.01
0.61895	39.01
0.63562	39.01
0.65228	39.01
0.66895	39.02
0.68562	39.02
0.70228	39.02
0.71895	39.02
0.73562	39.02
0.75228	39.01
0.76895	39.01
0.78562	39.01
0.80228	39.02
0.81895	39.02
0.83562	39.02
0.85228	39.02
0.86895	39.02
0.88562	39.02
0.90228	39.02
0.91895	39.02
0.93562	39.02
0.95228	39.02
0.96895	39.02
0.98562	39.02
1.00228	39.02
1.01895	39.02
1.03562	39.02
1.05228	39.02
1.06895	39.02
1.08562	39.02
1.10228	39.02
1.11895	39.02
1.13562	39.02
1.15228	39.01
1.16895	39.01
1.18562	39.02
1.20228	39.02
1.21895	39.02
1.23562	39.02
1.25228	39.02
1.26895	39.02
1.28562	39.02
1.30228	39.02
1.31895	39.02
1.33562	39.02
1.35228	39.02
1.36895	39.02
1.38562	39.02
1.40228	39.02
1.41895	39.02
1.43562	39.01
1.45228	39.01
1.46895	39.01
1.48562	39.01
1.50228	39.02
1.51895	39.02
1.53562	39.02
1.55228	39.02
1.56895	39.02
1.58562	39.02
1.60228	39.01
1.61895	39.01
1.63562	38.99
1.65228	38.97
1.66895	38.94
1.68562	38.91
1.70228	38.87
1.71895	38.84
1.73562	38.81
1.75228	38.77
1.76895	38.74
1.78562	38.71
1.80228	38.68
1.81895	38.65
1.83562	38.62
1.85228	38.58
1.86895	38.55
1.88562	38.52
1.90228	38.49
1.91895	38.46
1.93562	38.43
1.95228	38.40
1.96895	38.37
1.98562	38.34
2.00228	38.31
2.01895	38.28
2.03562	38.25
2.05228	38.22
2.06895	38.19
2.08562	38.16
2.10228	38.13
2.11895	38.10
2.13562	38.07
2.15228	38.04
2.16895	38.01
2.18562	37.98
2.20228	37.95
2.21895	37.92
2.23562	37.89
2.25228	37.86
2.26895	37.83
2.28562	37.81
2.30228	37.77
2.31895	37.74
2.33562	37.72
2.35228	37.69
2.36895	37.67
2.38562	37.66
2.40228	37.66
2.41895	37.66
2.43562	37.66
2.45228	37.66
2.46895	37.66
2.48562	37.66
2.50228	37.65
2.51895	37.67
2.53562	37.65
2.55228	37.66
2.56895	37.65
2.58562	37.65
2.60228	37.65
2.61895	37.65
2.63562	37.65
2.65228	37.65
2.66895	37.65
2.68562	37.65
2.70228	37.65
2.71895	37.65
2.73562	37.65
2.75228	37.65
2.76895	37.65
2.78562	37.64
2.80228	37.64
2.81895	37.64
2.83562	37.64
2.85228	37.64
2.86895	37.64
2.88562	37.64
2.90228	37.64
2.91895	37.64
2.93562	37.64
2.95228	37.64
2.96895	37.63
2.98562	37.64
3.00228	37.63
3.01895	37.63
3.03562	37.63
3.05228	37.63
3.06895	37.63
3.08562	37.63
3.10228	37.63
3.11895	37.63
3.13562	37.63
3.15228	37.63
3.16895	37.63
3.18562	37.63
3.20228	37.63
3.21895	37.63
3.23562	37.63
3.25228	37.63
3.26895	37.63
3.28562	37.62
3.30228	37.63
3.31895	37.63
3.33562	37.63
3.35228	37.62
3.36895	37.62
3.38562	37.62
3.40228	37.62
3.41895	37.62
3.43562	37.62
3.45228	37.62
3.46895	37.63
3.48562	37.63
3.50228	37.63
3.51895	37.63
3.53562	37.63
3.55228	37.63
3.56895	37.62
3.58562	37.62
3.60228	37.63
3.61895	37.63
3.63562	37.63
3.65228	37.63
3.66895	37.63
3.68562	37.63
3.70228	37.63
3.71895	37.63
3.73562	37.63
3.75228	37.63
3.76895	37.63
3.78562	37.63
3.80228	37.63
3.81895	37.63
3.83562	37.63
3.85228	37.63
3.86895	37.63
3.88562	37.63
3.90228	37.63
3.91895	37.63
3.93562	37.63
3.95228	37.63
3.96895	37.63
3.98562	37.63

