[Header]
Application Name	LabSolutions
Version	5.110
Data File Name	C:\Users\User\Desktop\GC Analyses\Jack\Nachusa Grasslands Sampling\T2 Timepoint July 12th\T2_07122022_051.gcd
Output Date	3/14/2023
Output Time	3:42:33 PM

[File Information]
Type	Data File
Generated	3/10/2023 6:04:38 PM
Generated by	System Administrator
Modified	3/10/2023 6:11:31 PM
Modified by	System Administrator

[Sample Information]
Operator Name	System Administrator
Acquired	3/10/2023 6:07:30 PM
Sample Type	0:Unknown
Level	0
Sample Name	051
Sample ID	051
ISTD Amount1	1
ISTD Amount2	1
ISTD Amount3	1
ISTD Amount4	1
ISTD Amount5	1
ISTD Amount6	1
ISTD Amount7	1
ISTD Amount8	1
ISTD Amount9	1
ISTD Amount10	1
ISTD Amount11	1
ISTD Amount12	1
ISTD Amount13	1
ISTD Amount14	1
ISTD Amount15	1
ISTD Amount16	1
ISTD Amount17	1
ISTD Amount18	1
ISTD Amount19	1
ISTD Amount20	1
ISTD Amount21	1
ISTD Amount22	1
ISTD Amount23	1
ISTD Amount24	1
ISTD Amount25	1
ISTD Amount26	1
ISTD Amount27	1
ISTD Amount28	1
ISTD Amount29	1
ISTD Amount30	1
ISTD Amount31	1
ISTD Amount32	1
Sample Amount	1
Dilution Factor	1
Vial#	50
Injection Volume	1
Injection Count	1
Bar Code	

[Original Files]
Data File	C:\Users\User\Desktop\GC Analyses\Jack\Nachusa Grasslands Sampling\T1 Timepoint July 12th\T2_07122022_051.gcd
Method File	C:\LabSolutions\Data\GHG_4min_2022\ghg3_togas_w_acet_4 min_new_int.gcm
Batch File	C:\LabSolutions\Data\AutoSamplerTesting\T2_07122022.gcb
Report Format File	c:\LabSolutions\System\DEFAULT.lsr

[File Description]


[Configuration]
Instrument Name	C0B7VH3-Instrument1
Instrument #	1
Line #	1
# of Detectors	3
Detector ID	DET#1	DET#2	DET#3
Detector Name	FID	PTCD	ECD
# of Channels	1	1	1

[Peak Table(Ch1)]
# of Peaks	3
Peak#	R.Time	I.Time	F.Time	Area	Height	A/H	Conc.	Mark	ID#	Name	k'	Plate #	Plate Ht.	Tailing	Resolution	Sep.Factor	Area Ratio	Height Ratio	Conc. %	Norm Conc.
1	1.476	1.439	1.538	24713	11767	2.100	174.476	   	1	CO	0.000	9277	16.169	1.272	0.000	0.000	0	0	19.368	19.368
2	1.567	1.538	1.633	4560	2261	2.016	88.177	 V 	2	CH4	0.062	10505	14.278	0.000	1.497	0.000	0	0	9.788	9.788
3	1.996	1.949	2.513	2542962	1214260	2.094	638.215	   	3	CO2	0.353	17479	8.582	1.237	7.058	5.680	0	0	70.844	70.844

[Peak Table(Ch2)]
# of Peaks	0

[Peak Table(Ch3)]
# of Peaks	5
Peak#	R.Time	I.Time	F.Time	Area	Height	A/H	Conc.	Mark	ID#	Name	k'	Plate #	Plate Ht.	Tailing	Resolution	Sep.Factor	Area Ratio	Height Ratio	Conc. %	Norm Conc.
1	2.462	2.257	2.513	2448	681	3.595	0.000	   			0.000	8575	17.493	0.000	0.000	0.000	0	0	0.000	0.000
2	2.532	2.513	2.638	1651	389	4.248	0.000	 V 			0.028	4721	31.773	0.000	0.549	0.000	0	0	0.000	0.000
3	2.656	2.638	2.719	235	80	2.931	0.000	 V 			0.079	3561	42.128	0.000	0.766	2.789	0	0	0.000	0.000
4	2.876	2.719	3.012	18971	4923	3.854	0.485	 V 	1	N2O	0.168	13128	11.426	1.647	1.580	2.132	0	0	100.000	100.000
5	3.254	3.016	3.995	17441	476	36.621	0.000	   	2	SF6	0.322	133	1125.994	2.024	0.615	1.912	0	0	0.000	0.000

[Compound Results(Ch1)]
# of IDs	6
ID#	Name	R.Time	Area	Height	Conc.	Curve	3rd	2nd	1st	Constant	Area Ratio	Height Ratio	Conc. %	Norm Conc.
1	CO	1.476	24713	11767	174.476	Linear	0.000000e+00	0.000000e+00	1.416423e+002	0.000000e+00	0	0	19.368	19.368
2	CH4	1.567	4560	2261	88.177	Linear	0.000000e+00	0.000000e+00	5.171738e+001	0.000000e+00	0	0	9.788	9.788
3	CO2	1.996	2542962	1214260	638.215	Linear	0.000000e+00	0.000000e+00	3.984494e+003	0.000000e+00	0	0	70.844	70.844
4	Ethylene	0.000	0	0	0.000	Linear	0.000000e+00	0.000000e+00	0.000000e+00	0.000000e+00	0	0	0.000	0.000
5	Acetylene	0.000	0	0	0.000	Linear	0.000000e+00	0.000000e+00	0.000000e+00	0.000000e+00	0	0	0.000	0.000
6	Ethane	0.000	0	0	0.000	Linear	0.000000e+00	0.000000e+00	0.000000e+00	0.000000e+00	0	0	0.000	0.000

[Compound Results(Ch2)]
# of IDs	5
ID#	Name	R.Time	Area	Height	Conc.	Curve	3rd	2nd	1st	Constant	Area Ratio	Height Ratio	Conc. %	Norm Conc.
1	Hydrogen	0.000	0	0	0.000	Linear	0.000000e+00	0.000000e+00	0.000000e+00	0.000000e+00	0	0	0.000	0.000
2	Oxygen	0.000	0	0	0.000	Linear	0.000000e+00	0.000000e+00	0.000000e+00	0.000000e+00	0	0	0.000	0.000
3	Nitrogen	0.000	0	0	0.000	Linear	0.000000e+00	0.000000e+00	0.000000e+00	0.000000e+00	0	0	0.000	0.000
4	Methane	0.000	0	0	0.000	Linear	0.000000e+00	0.000000e+00	0.000000e+00	0.000000e+00	0	0	0.000	0.000
5	Carbon Monoxide	0.000	0	0	0.000	Linear	0.000000e+00	0.000000e+00	0.000000e+00	0.000000e+00	0	0	0.000	0.000

[Compound Results(Ch3)]
# of IDs	2
ID#	Name	R.Time	Area	Height	Conc.	Curve	3rd	2nd	1st	Constant	Area Ratio	Height Ratio	Conc. %	Norm Conc.
1	N2O	2.876	18971	4923	0.485	Linear	0.000000e+00	0.000000e+00	3.915173e+004	0.000000e+00	0	0	100.000	100.000
2	SF6	3.254	17441	476	0.000	Linear	0.000000e+00	0.000000e+00	0.000000e+00	0.000000e+00	0	0	0.000	0.000

[Group Results(Ch1)]
# of Groups	0

[Group Results(Ch2)]
# of Groups	0

[Group Results(Ch3)]
# of Groups	0

[Chromatogram (Ch1)]
Interval(msec)	220
# of Points	1091
Start Time(min)	0.002
End Time(min)	3.998
R.Time (min)	Intensity
0.00167	6
0.00533	7
0.00900	13
0.01267	20
0.01633	29
0.02000	35
0.02367	41
0.02733	43
0.03100	45
0.03467	49
0.03833	55
0.04200	63
0.04567	73
0.04933	79
0.05300	81
0.05667	81
0.06033	79
0.06400	79
0.06767	83
0.07133	90
0.07500	98
0.07867	105
0.08233	102
0.08600	96
0.08967	92
0.09333	91
0.09700	92
0.10067	97
0.10433	97
0.10800	89
0.11167	76
0.11533	65
0.11900	56
0.12267	52
0.12633	51
0.13000	52
0.13367	59
0.13733	63
0.14100	66
0.14467	74
0.14833	83
0.15200	86
0.15567	83
0.15933	76
0.16300	70
0.16667	62
0.17033	56
0.17400	51
0.17767	46
0.18133	43
0.18500	42
0.18867	44
0.19233	49
0.19600	52
0.19967	50
0.20333	44
0.20700	37
0.21067	31
0.21433	27
0.21800	28
0.22167	32
0.22533	34
0.22900	34
0.23267	35
0.23633	33
0.24000	27
0.24367	22
0.24733	18
0.25100	17
0.25467	18
0.25833	19
0.26200	22
0.26567	26
0.26933	30
0.27300	36
0.27667	46
0.28033	52
0.28400	50
0.28767	43
0.29133	37
0.29500	39
0.29867	44
0.30233	46
0.30600	42
0.30967	37
0.31333	34
0.31700	34
0.32067	38
0.32433	41
0.32800	42
0.33167	42
0.33533	43
0.33900	40
0.34267	37
0.34633	31
0.35000	24
0.35367	24
0.35733	26
0.36100	34
0.36467	48
0.36833	58
0.37200	64
0.37567	68
0.37933	69
0.38300	66
0.38667	62
0.39033	61
0.39400	61
0.39767	59
0.40133	56
0.40500	51
0.40867	47
0.41233	46
0.41600	46
0.41967	45
0.42333	46
0.42700	52
0.43067	59
0.43433	62
0.43800	58
0.44167	54
0.44533	49
0.44900	44
0.45267	41
0.45633	36
0.46000	32
0.46367	33
0.46733	33
0.47100	30
0.47467	27
0.47833	23
0.48200	24
0.48567	25
0.48933	29
0.49300	34
0.49667	39
0.50033	45
0.50400	48
0.50767	49
0.51133	47
0.51500	46
0.51867	44
0.52233	41
0.52600	41
0.52967	42
0.53333	40
0.53700	39
0.54067	37
0.54433	34
0.54800	35
0.55167	41
0.55533	49
0.55900	56
0.56267	60
0.56633	63
0.57000	64
0.57367	68
0.57733	71
0.58100	67
0.58467	62
0.58833	55
0.59200	48
0.59567	47
0.59933	46
0.60300	42
0.60667	33
0.61033	24
0.61400	19
0.61767	17
0.62133	17
0.62500	20
0.62867	24
0.63233	30
0.63600	43
0.63967	55
0.64333	57
0.64700	53
0.65067	48
0.65433	45
0.65800	38
0.66167	29
0.66533	21
0.66900	15
0.67267	11
0.67633	13
0.68000	17
0.68367	24
0.68733	36
0.69100	47
0.69467	51
0.69833	48
0.70200	46
0.70567	45
0.70933	41
0.71300	35
0.71667	28
0.72033	22
0.72400	20
0.72767	22
0.73133	25
0.73500	25
0.73867	28
0.74233	33
0.74600	39
0.74967	44
0.75333	52
0.75700	58
0.76067	62
0.76433	63
0.76800	61
0.77167	59
0.77533	55
0.77900	48
0.78267	44
0.78633	43
0.79000	48
0.79367	53
0.79733	57
0.80100	55
0.80467	49
0.80833	42
0.81200	42
0.81567	48
0.81933	54
0.82300	58
0.82667	62
0.83033	67
0.83400	68
0.83767	65
0.84133	61
0.84500	60
0.84867	65
0.85233	71
0.85600	75
0.85967	77
0.86333	77
0.86700	74
0.87067	68
0.87433	63
0.87800	58
0.88167	53
0.88533	51
0.88900	52
0.89267	55
0.89633	60
0.90000	63
0.90367	64
0.90733	65
0.91100	66
0.91467	65
0.91833	64
0.92200	65
0.92567	69
0.92933	74
0.93300	75
0.93667	74
0.94033	71
0.94400	67
0.94767	64
0.95133	63
0.95500	60
0.95867	61
0.96233	66
0.96600	71
0.96967	72
0.97333	70
0.97700	66
0.98067	59
0.98433	52
0.98800	49
0.99167	48
0.99533	48
0.99900	55
1.00267	64
1.00633	70
1.01000	76
1.01367	78
1.01733	78
1.02100	73
1.02467	65
1.02833	57
1.03200	56
1.03567	62
1.03933	74
1.04300	79
1.04667	71
1.05033	58
1.05400	44
1.05767	33
1.06133	27
1.06500	23
1.06867	24
1.07233	28
1.07600	29
1.07967	30
1.08333	30
1.08700	30
1.09067	36
1.09433	41
1.09800	43
1.10167	47
1.10533	52
1.10900	62
1.11267	72
1.11633	75
1.12000	73
1.12367	69
1.12733	66
1.13100	62
1.13467	57
1.13833	49
1.14200	39
1.14567	31
1.14933	30
1.15300	34
1.15667	41
1.16033	46
1.16400	49
1.16767	47
1.17133	41
1.17500	36
1.17867	36
1.18233	39
1.18600	44
1.18967	48
1.19333	46
1.19700	44
1.20067	45
1.20433	52
1.20800	64
1.21167	73
1.21533	73
1.21900	66
1.22267	60
1.22633	60
1.23000	58
1.23367	53
1.23733	48
1.24100	39
1.24467	32
1.24833	29
1.25200	31
1.25567	36
1.25933	39
1.26300	41
1.26667	45
1.27033	49
1.27400	51
1.27767	52
1.28133	50
1.28500	49
1.28867	46
1.29233	42
1.29600	36
1.29967	32
1.30333	36
1.30700	42
1.31067	45
1.31433	46
1.31800	43
1.32167	39
1.32533	37
1.32900	38
1.33267	42
1.33633	49
1.34000	55
1.34367	59
1.34733	66
1.35100	70
1.35467	64
1.35833	49
1.36200	36
1.36567	27
1.36933	20
1.37300	17
1.37667	20
1.38033	25
1.38400	29
1.38767	30
1.39133	29
1.39500	29
1.39867	30
1.40233	31
1.40600	31
1.40967	32
1.41333	33
1.41700	38
1.42067	41
1.42433	43
1.42800	45
1.43167	46
1.43533	47
1.43900	77
1.44267	188
1.44633	443
1.45000	1059
1.45367	2387
1.45733	4407
1.46100	6688
1.46467	8783
1.46833	10430
1.47200	11490
1.47567	11847
1.47933	11417
1.48300	10261
1.48667	8621
1.49033	6836
1.49400	5193
1.49767	3839
1.50133	2797
1.50500	2028
1.50867	1477
1.51233	1091
1.51600	821
1.51967	633
1.52333	502
1.52700	415
1.53067	353
1.53433	313
1.53800	303
1.54167	366
1.54533	563
1.54900	906
1.55267	1324
1.55633	1723
1.56000	2047
1.56367	2265
1.56733	2348
1.57100	2270
1.57467	2029
1.57833	1682
1.58200	1311
1.58567	981
1.58933	721
1.59300	524
1.59667	380
1.60033	277
1.60400	206
1.60767	163
1.61133	139
1.61500	127
1.61867	122
1.62233	119
1.62600	112
1.62967	101
1.63333	91
1.63700	85
1.64067	84
1.64433	83
1.64800	82
1.65167	80
1.65533	79
1.65900	77
1.66267	73
1.66633	69
1.67000	65
1.67367	61
1.67733	55
1.68100	49
1.68467	46
1.68833	46
1.69200	47
1.69567	46
1.69933	44
1.70300	44
1.70667	43
1.71033	42
1.71400	45
1.71767	53
1.72133	60
1.72500	66
1.72867	69
1.73233	67
1.73600	62
1.73967	57
1.74333	53
1.74700	51
1.75067	49
1.75433	51
1.75800	54
1.76167	57
1.76533	62
1.76900	67
1.77267	69
1.77633	72
1.78000	77
1.78367	76
1.78733	71
1.79100	65
1.79467	59
1.79833	56
1.80200	54
1.80567	50
1.80933	51
1.81300	55
1.81667	53
1.82033	43
1.82400	35
1.82767	30
1.83133	28
1.83500	27
1.83867	26
1.84233	26
1.84600	29
1.84967	35
1.85333	40
1.85700	44
1.86067	47
1.86433	51
1.86800	51
1.87167	45
1.87533	42
1.87900	41
1.88267	41
1.88633	40
1.89000	38
1.89367	39
1.89733	41
1.90100	45
1.90467	54
1.90833	60
1.91200	62
1.91567	61
1.91933	59
1.92300	61
1.92667	64
1.93033	64
1.93400	63
1.93767	65
1.94133	70
1.94500	73
1.94867	79
1.95233	123
1.95600	451
1.95967	2316
1.96333	10340
1.96700	36546
1.97067	102328
1.97433	229683
1.97800	421766
1.98167	653168
1.98533	881948
1.98900	1068116
1.99267	1183787
1.99633	1214386
2.00000	1159778
2.00367	1035143
2.00733	867401
2.01100	686997
2.01467	519005
2.01833	378081
2.02200	268596
2.02567	188121
2.02933	131211
2.03300	91983
2.03667	65353
2.04033	47399
2.04400	35283
2.04767	27045
2.05133	21371
2.05500	17396
2.05867	14549
2.06233	12458
2.06600	10883
2.06967	9667
2.07333	8702
2.07700	7918
2.08067	7271
2.08433	6725
2.08800	6258
2.09167	5850
2.09533	5491
2.09900	5176
2.10267	4898
2.10633	4645
2.11000	4407
2.11367	4191
2.11733	3993
2.12100	3814
2.12467	3649
2.12833	3496
2.13200	3356
2.13567	3228
2.13933	3110
2.14300	3000
2.14667	2899
2.15033	2802
2.15400	2710
2.15767	2623
2.16133	2538
2.16500	2458
2.16867	2386
2.17233	2320
2.17600	2259
2.17967	2199
2.18333	2142
2.18700	2088
2.19067	2033
2.19433	1977
2.19800	1922
2.20167	1875
2.20533	1832
2.20900	1789
2.21267	1745
2.21633	1706
2.22000	1669
2.22367	1631
2.22733	1593
2.23100	1557
2.23467	1522
2.23833	1491
2.24200	1463
2.24567	1438
2.24933	1415
2.25300	1397
2.25667	1378
2.26033	1357
2.26400	1336
2.26767	1311
2.27133	1286
2.27500	1263
2.27867	1239
2.28233	1217
2.28600	1196
2.28967	1172
2.29333	1149
2.29700	1128
2.30067	1113
2.30433	1104
2.30800	1093
2.31167	1079
2.31533	1067
2.31900	1053
2.32267	1034
2.32633	1012
2.33000	995
2.33367	979
2.33733	961
2.34100	950
2.34467	946
2.34833	937
2.35200	924
2.35567	912
2.35933	903
2.36300	897
2.36667	891
2.37033	882
2.37400	872
2.37767	859
2.38133	844
2.38500	829
2.38867	819
2.39233	814
2.39600	811
2.39967	807
2.40333	800
2.40700	793
2.41067	788
2.41433	785
2.41800	781
2.42167	775
2.42533	770
2.42900	765
2.43267	763
2.43633	757
2.44000	744
2.44367	734
2.44733	725
2.45100	714
2.45467	699
2.45833	688
2.46200	680
2.46567	671
2.46933	662
2.47300	654
2.47667	652
2.48033	655
2.48400	656
2.48767	653
2.49133	654
2.49500	657
2.49867	657
2.50233	656
2.50600	652
2.50967	646
2.51333	642
2.51700	640
2.52067	641
2.52433	643
2.52800	643
2.53167	640
2.53533	636
2.53900	635
2.54267	632
2.54633	625
2.55000	618
2.55367	611
2.55733	604
2.56100	594
2.56467	581
2.56833	573
2.57200	569
2.57567	564
2.57933	560
2.58300	558
2.58667	556
2.59033	554
2.59400	553
2.59767	556
2.60133	561
2.60500	564
2.60867	568
2.61233	568
2.61600	562
2.61967	557
2.62333	556
2.62700	554
2.63067	546
2.63433	534
2.63800	525
2.64167	521
2.64533	523
2.64900	527
2.65267	530
2.65633	530
2.66000	529
2.66367	526
2.66733	528
2.67100	532
2.67467	536
2.67833	541
2.68200	542
2.68567	543
2.68933	544
2.69300	540
2.69667	530
2.70033	516
2.70400	500
2.70767	485
2.71133	474
2.71500	470
2.71867	474
2.72233	480
2.72600	486
2.72967	489
2.73333	490
2.73700	494
2.74067	500
2.74433	498
2.74800	496
2.75167	492
2.75533	485
2.75900	482
2.76267	488
2.76633	498
2.77000	504
2.77367	501
2.77733	495
2.78100	490
2.78467	488
2.78833	491
2.79200	494
2.79567	497
2.79933	495
2.80300	492
2.80667	486
2.81033	480
2.81400	478
2.81767	479
2.82133	481
2.82500	485
2.82867	487
2.83233	485
2.83600	484
2.83967	484
2.84333	485
2.84700	488
2.85067	488
2.85433	485
2.85800	485
2.86167	485
2.86533	483
2.86900	483
2.87267	482
2.87633	478
2.88000	476
2.88367	477
2.88733	477
2.89100	478
2.89467	483
2.89833	485
2.90200	483
2.90567	478
2.90933	469
2.91300	460
2.91667	453
2.92033	449
2.92400	448
2.92767	452
2.93133	459
2.93500	468
2.93867	474
2.94233	476
2.94600	474
2.94967	468
2.95333	461
2.95700	458
2.96067	460
2.96433	462
2.96800	461
2.97167	464
2.97533	466
2.97900	465
2.98267	461
2.98633	459
2.99000	456
2.99367	453
2.99733	453
3.00100	458
3.00467	462
3.00833	462
3.01200	456
3.01567	448
3.01933	443
3.02300	440
3.02667	439
3.03033	439
3.03400	439
3.03767	435
3.04133	432
3.04500	433
3.04867	432
3.05233	432
3.05600	434
3.05967	438
3.06333	442
3.06700	443
3.07067	440
3.07433	431
3.07800	420
3.08167	414
3.08533	409
3.08900	406
3.09267	406
3.09633	407
3.10000	409
3.10367	412
3.10733	415
3.11100	413
3.11467	407
3.11833	404
3.12200	402
3.12567	405
3.12933	410
3.13300	416
3.13667	427
3.14033	439
3.14400	446
3.14767	443
3.15133	432
3.15500	421
3.15867	413
3.16233	406
3.16600	399
3.16967	395
3.17333	397
3.17700	400
3.18067	402
3.18433	400
3.18800	395
3.19167	392
3.19533	390
3.19900	385
3.20267	381
3.20633	380
3.21000	384
3.21367	391
3.21733	395
3.22100	399
3.22467	405
3.22833	408
3.23200	407
3.23567	403
3.23933	394
3.24300	385
3.24667	376
3.25033	367
3.25400	361
3.25767	359
3.26133	360
3.26500	366
3.26867	375
3.27233	384
3.27600	387
3.27967	385
3.28333	386
3.28700	389
3.29067	390
3.29433	389
3.29800	388
3.30167	390
3.30533	387
3.30900	382
3.31267	376
3.31633	370
3.32000	365
3.32367	362
3.32733	363
3.33100	365
3.33467	364
3.33833	366
3.34200	369
3.34567	371
3.34933	372
3.35300	374
3.35667	378
3.36033	381
3.36400	381
3.36767	378
3.37133	372
3.37500	369
3.37867	371
3.38233	374
3.38600	376
3.38967	375
3.39333	369
3.39700	365
3.40067	359
3.40433	354
3.40800	352
3.41167	355
3.41533	360
3.41900	363
3.42267	359
3.42633	354
3.43000	350
3.43367	347
3.43733	346
3.44100	348
3.44467	350
3.44833	353
3.45200	357
3.45567	361
3.45933	361
3.46300	358
3.46667	355
3.47033	354
3.47400	352
3.47767	350
3.48133	347
3.48500	346
3.48867	344
3.49233	338
3.49600	333
3.49967	329
3.50333	325
3.50700	323
3.51067	322
3.51433	319
3.51800	318
3.52167	320
3.52533	322
3.52900	329
3.53267	340
3.53633	346
3.54000	348
3.54367	343
3.54733	326
3.55100	319
3.55467	321
3.55833	325
3.56200	328
3.56567	324
3.56933	317
3.57300	312
3.57667	309
3.58033	305
3.58400	304
3.58767	306
3.59133	310
3.59500	314
3.59867	315
3.60233	314
3.60600	313
3.60967	313
3.61333	316
3.61700	322
3.62067	330
3.62433	336
3.62800	334
3.63167	327
3.63533	318
3.63900	312
3.64267	310
3.64633	309
3.65000	306
3.65367	299
3.65733	295
3.66100	293
3.66467	295
3.66833	306
3.67200	317
3.67567	319
3.67933	314
3.68300	307
3.68667	301
3.69033	296
3.69400	293
3.69767	291
3.70133	292
3.70500	300
3.70867	307
3.71233	309
3.71600	308
3.71967	305
3.72333	301
3.72700	296
3.73067	291
3.73433	288
3.73800	287
3.74167	283
3.74533	282
3.74900	285
3.75267	291
3.75633	300
3.76000	306
3.76367	307
3.76733	304
3.77100	297
3.77467	289
3.77833	283
3.78200	281
3.78567	283
3.78933	288
3.79300	291
3.79667	290
3.80033	290
3.80400	287
3.80767	282
3.81133	280
3.81500	279
3.81867	277
3.82233	275
3.82600	274
3.82967	273
3.83333	273
3.83700	279
3.84067	291
3.84433	299
3.84800	304
3.85167	308
3.85533	307
3.85900	299
3.86267	287
3.86633	277
3.87000	271
3.87367	268
3.87733	269
3.88100	270
3.88467	271
3.88833	271
3.89200	269
3.89567	264
3.89933	259
3.90300	259
3.90667	263
3.91033	269
3.91400	271
3.91767	268
3.92133	265
3.92500	263
3.92867	261
3.93233	260
3.93600	258
3.93967	255
3.94333	250
3.94700	246
3.95067	246
3.95433	249
3.95800	256
3.96167	263
3.96533	266
3.96900	268
3.97267	272
3.97633	277
3.98000	279
3.98367	277
3.98733	273
3.99100	271
3.99467	272
3.99833	271

[Chromatogram (Ch2)]
Interval(msec)	220
# of Points	1091
Start Time(min)	0.002
End Time(min)	3.998
R.Time (min)	Intensity
0.00167	0
0.00533	0
0.00900	0
0.01267	0
0.01633	0
0.02000	0
0.02367	0
0.02733	0
0.03100	0
0.03467	0
0.03833	0
0.04200	0
0.04567	0
0.04933	0
0.05300	0
0.05667	0
0.06033	0
0.06400	0
0.06767	0
0.07133	0
0.07500	0
0.07867	0
0.08233	0
0.08600	0
0.08967	0
0.09333	-0
0.09700	-0
0.10067	-0
0.10433	-1
0.10800	-1
0.11167	-1
0.11533	-1
0.11900	-1
0.12267	-1
0.12633	-1
0.13000	-0
0.13367	0
0.13733	0
0.14100	0
0.14467	1
0.14833	1
0.15200	1
0.15567	1
0.15933	2
0.16300	1
0.16667	1
0.17033	1
0.17400	1
0.17767	1
0.18133	1
0.18500	1
0.18867	1
0.19233	1
0.19600	1
0.19967	1
0.20333	0
0.20700	0
0.21067	0
0.21433	0
0.21800	1
0.22167	1
0.22533	1
0.22900	1
0.23267	1
0.23633	1
0.24000	1
0.24367	1
0.24733	1
0.25100	1
0.25467	1
0.25833	1
0.26200	0
0.26567	0
0.26933	-0
0.27300	-0
0.27667	-0
0.28033	-1
0.28400	-1
0.28767	-1
0.29133	-1
0.29500	-1
0.29867	-1
0.30233	-1
0.30600	-1
0.30967	-0
0.31333	-0
0.31700	-0
0.32067	-0
0.32433	-0
0.32800	0
0.33167	0
0.33533	0
0.33900	1
0.34267	1
0.34633	1
0.35000	1
0.35367	0
0.35733	0
0.36100	0
0.36467	0
0.36833	1
0.37200	1
0.37567	1
0.37933	1
0.38300	1
0.38667	1
0.39033	2
0.39400	1
0.39767	1
0.40133	1
0.40500	1
0.40867	1
0.41233	1
0.41600	0
0.41967	0
0.42333	0
0.42700	-0
0.43067	-0
0.43433	-1
0.43800	-1
0.44167	-1
0.44533	-1
0.44900	-0
0.45267	-0
0.45633	0
0.46000	0
0.46367	1
0.46733	1
0.47100	1
0.47467	1
0.47833	1
0.48200	1
0.48567	1
0.48933	1
0.49300	0
0.49667	0
0.50033	-0
0.50400	-0
0.50767	0
0.51133	0
0.51500	0
0.51867	1
0.52233	0
0.52600	0
0.52967	0
0.53333	-0
0.53700	-0
0.54067	-1
0.54433	-1
0.54800	-1
0.55167	-1
0.55533	-1
0.55900	-2
0.56267	-2
0.56633	-2
0.57000	-2
0.57367	-3
0.57733	-3
0.58100	-3
0.58467	-3
0.58833	-2
0.59200	-2
0.59567	-2
0.59933	-1
0.60300	-1
0.60667	-0
0.61033	-0
0.61400	0
0.61767	0
0.62133	0
0.62500	0
0.62867	1
0.63233	1
0.63600	1
0.63967	1
0.64333	1
0.64700	1
0.65067	0
0.65433	0
0.65800	-0
0.66167	-1
0.66533	-1
0.66900	-1
0.67267	-1
0.67633	-2
0.68000	-2
0.68367	-2
0.68733	-2
0.69100	-3
0.69467	-3
0.69833	-3
0.70200	-3
0.70567	-3
0.70933	-3
0.71300	-3
0.71667	-3
0.72033	-3
0.72400	-3
0.72767	-3
0.73133	-3
0.73500	-3
0.73867	-3
0.74233	-2
0.74600	-2
0.74967	-2
0.75333	-2
0.75700	-2
0.76067	-1
0.76433	-1
0.76800	-2
0.77167	-2
0.77533	-2
0.77900	-2
0.78267	-3
0.78633	-3
0.79000	-3
0.79367	-3
0.79733	-3
0.80100	-3
0.80467	-3
0.80833	-3
0.81200	-3
0.81567	-3
0.81933	-3
0.82300	-3
0.82667	-3
0.83033	-3
0.83400	-2
0.83767	-2
0.84133	-2
0.84500	-2
0.84867	-2
0.85233	-2
0.85600	-1
0.85967	-1
0.86333	-0
0.86700	0
0.87067	0
0.87433	1
0.87800	1
0.88167	1
0.88533	2
0.88900	2
0.89267	2
0.89633	2
0.90000	1
0.90367	1
0.90733	0
0.91100	-0
0.91467	-1
0.91833	-1
0.92200	-2
0.92567	-2
0.92933	-2
0.93300	-3
0.93667	-3
0.94033	-3
0.94400	-3
0.94767	-4
0.95133	-4
0.95500	-4
0.95867	-4
0.96233	-4
0.96600	-4
0.96967	-4
0.97333	-3
0.97700	-3
0.98067	-3
0.98433	-3
0.98800	-3
0.99167	-3
0.99533	-3
0.99900	-3
1.00267	-3
1.00633	-3
1.01000	-2
1.01367	-2
1.01733	-2
1.02100	-2
1.02467	-1
1.02833	-1
1.03200	-1
1.03567	-1
1.03933	-1
1.04300	-1
1.04667	-1
1.05033	-0
1.05400	-0
1.05767	-0
1.06133	-1
1.06500	-1
1.06867	-1
1.07233	-1
1.07600	-1
1.07967	-1
1.08333	-1
1.08700	-1
1.09067	-1
1.09433	-1
1.09800	-2
1.10167	-2
1.10533	-2
1.10900	-2
1.11267	-2
1.11633	-2
1.12000	-2
1.12367	-2
1.12733	-2
1.13100	-3
1.13467	-3
1.13833	-2
1.14200	-2
1.14567	-2
1.14933	-2
1.15300	-1
1.15667	-1
1.16033	-1
1.16400	-0
1.16767	0
1.17133	0
1.17500	1
1.17867	1
1.18233	1
1.18600	0
1.18967	0
1.19333	0
1.19700	-0
1.20067	-0
1.20433	-0
1.20800	-1
1.21167	-1
1.21533	-1
1.21900	-2
1.22267	-2
1.22633	-3
1.23000	-3
1.23367	-3
1.23733	-3
1.24100	-3
1.24467	-3
1.24833	-3
1.25200	-3
1.25567	-3
1.25933	-3
1.26300	-3
1.26667	-3
1.27033	-3
1.27400	-3
1.27767	-3
1.28133	-3
1.28500	-2
1.28867	-2
1.29233	-3
1.29600	-3
1.29967	-3
1.30333	-4
1.30700	-4
1.31067	-4
1.31433	-4
1.31800	-5
1.32167	-5
1.32533	-5
1.32900	-5
1.33267	-5
1.33633	-5
1.34000	-6
1.34367	-6
1.34733	-5
1.35100	-5
1.35467	-5
1.35833	-4
1.36200	-4
1.36567	-4
1.36933	-4
1.37300	-4
1.37667	-3
1.38033	-3
1.38400	-3
1.38767	-3
1.39133	-3
1.39500	-2
1.39867	-2
1.40233	-2
1.40600	-2
1.40967	-2
1.41333	-2
1.41700	-2
1.42067	-2
1.42433	-2
1.42800	-2
1.43167	-1
1.43533	-1
1.43900	-1
1.44267	-1
1.44633	-1
1.45000	-1
1.45367	-1
1.45733	-1
1.46100	-1
1.46467	-1
1.46833	-1
1.47200	-1
1.47567	-1
1.47933	-1
1.48300	-1
1.48667	-2
1.49033	-2
1.49400	-2
1.49767	-2
1.50133	-2
1.50500	-3
1.50867	-3
1.51233	-3
1.51600	-3
1.51967	-4
1.52333	-4
1.52700	-4
1.53067	-4
1.53433	-4
1.53800	-4
1.54167	-4
1.54533	-4
1.54900	-4
1.55267	-4
1.55633	-4
1.56000	-4
1.56367	-4
1.56733	-4
1.57100	-4
1.57467	-4
1.57833	-4
1.58200	-4
1.58567	-4
1.58933	-4
1.59300	-4
1.59667	-5
1.60033	-6
1.60400	-7
1.60767	-8
1.61133	-10
1.61500	-11
1.61867	-13
1.62233	-16
1.62600	-18
1.62967	-21
1.63333	-24
1.63700	-27
1.64067	-30
1.64433	-34
1.64800	-37
1.65167	-41
1.65533	-45
1.65900	-48
1.66267	-52
1.66633	-56
1.67000	-61
1.67367	-65
1.67733	-70
1.68100	-75
1.68467	-80
1.68833	-84
1.69200	-88
1.69567	-92
1.69933	-95
1.70300	-97
1.70667	-99
1.71033	-100
1.71400	-102
1.71767	-103
1.72133	-105
1.72500	-107
1.72867	-108
1.73233	-109
1.73600	-110
1.73967	-111
1.74333	-111
1.74700	-112
1.75067	-112
1.75433	-112
1.75800	-111
1.76167	-111
1.76533	-110
1.76900	-109
1.77267	-109
1.77633	-108
1.78000	-108
1.78367	-109
1.78733	-109
1.79100	-110
1.79467	-112
1.79833	-113
1.80200	-114
1.80567	-114
1.80933	-115
1.81300	-115
1.81667	-115
1.82033	-115
1.82400	-115
1.82767	-116
1.83133	-116
1.83500	-116
1.83867	-116
1.84233	-116
1.84600	-115
1.84967	-114
1.85333	-113
1.85700	-112
1.86067	-111
1.86433	-110
1.86800	-110
1.87167	-110
1.87533	-111
1.87900	-112
1.88267	-112
1.88633	-113
1.89000	-113
1.89367	-113
1.89733	-113
1.90100	-113
1.90467	-113
1.90833	-113
1.91200	-112
1.91567	-112
1.91933	-112
1.92300	-112
1.92667	-112
1.93033	-112
1.93400	-111
1.93767	-111
1.94133	-111
1.94500	-111
1.94867	-111
1.95233	-111
1.95600	-111
1.95967	-111
1.96333	-111
1.96700	-110
1.97067	-110
1.97433	-109
1.97800	-109
1.98167	-108
1.98533	-108
1.98900	-108
1.99267	-108
1.99633	-107
2.00000	-107
2.00367	-106
2.00733	-106
2.01100	-106
2.01467	-106
2.01833	-106
2.02200	-106
2.02567	-106
2.02933	-106
2.03300	-106
2.03667	-105
2.04033	-105
2.04400	-104
2.04767	-104
2.05133	-103
2.05500	-102
2.05867	-102
2.06233	-101
2.06600	-101
2.06967	-101
2.07333	-101
2.07700	-101
2.08067	-101
2.08433	-101
2.08800	-100
2.09167	-100
2.09533	-99
2.09900	-99
2.10267	-99
2.10633	-99
2.11000	-99
2.11367	-99
2.11733	-100
2.12100	-100
2.12467	-100
2.12833	-100
2.13200	-100
2.13567	-99
2.13933	-99
2.14300	-98
2.14667	-98
2.15033	-97
2.15400	-96
2.15767	-96
2.16133	-96
2.16500	-95
2.16867	-95
2.17233	-95
2.17600	-95
2.17967	-95
2.18333	-94
2.18700	-94
2.19067	-93
2.19433	-92
2.19800	-92
2.20167	-91
2.20533	-91
2.20900	-90
2.21267	-90
2.21633	-90
2.22000	-90
2.22367	-90
2.22733	-89
2.23100	-89
2.23467	-89
2.23833	-88
2.24200	-88
2.24567	-88
2.24933	-87
2.25300	-87
2.25667	-86
2.26033	-86
2.26400	-86
2.26767	-86
2.27133	-85
2.27500	-85
2.27867	-85
2.28233	-85
2.28600	-85
2.28967	-86
2.29333	-87
2.29700	-87
2.30067	-88
2.30433	-88
2.30800	-88
2.31167	-88
2.31533	-87
2.31900	-86
2.32267	-84
2.32633	-83
2.33000	-82
2.33367	-81
2.33733	-81
2.34100	-80
2.34467	-79
2.34833	-78
2.35200	-77
2.35567	-76
2.35933	-75
2.36300	-74
2.36667	-73
2.37033	-71
2.37400	-69
2.37767	-66
2.38133	-63
2.38500	-59
2.38867	-55
2.39233	-50
2.39600	-46
2.39967	-41
2.40333	-37
2.40700	-32
2.41067	-28
2.41433	-24
2.41800	-21
2.42167	-18
2.42533	-16
2.42900	-15
2.43267	-14
2.43633	-13
2.44000	-12
2.44367	-11
2.44733	-10
2.45100	-9
2.45467	-8
2.45833	-7
2.46200	-6
2.46567	-5
2.46933	-4
2.47300	-2
2.47667	-1
2.48033	-1
2.48400	0
2.48767	1
2.49133	2
2.49500	2
2.49867	3
2.50233	4
2.50600	5
2.50967	6
2.51333	7
2.51700	8
2.52067	9
2.52433	9
2.52800	10
2.53167	10
2.53533	11
2.53900	12
2.54267	13
2.54633	13
2.55000	14
2.55367	14
2.55733	13
2.56100	13
2.56467	13
2.56833	13
2.57200	13
2.57567	14
2.57933	14
2.58300	15
2.58667	15
2.59033	15
2.59400	15
2.59767	15
2.60133	15
2.60500	15
2.60867	15
2.61233	16
2.61600	16
2.61967	17
2.62333	17
2.62700	17
2.63067	18
2.63433	18
2.63800	18
2.64167	18
2.64533	18
2.64900	18
2.65267	18
2.65633	19
2.66000	19
2.66367	20
2.66733	20
2.67100	21
2.67467	21
2.67833	21
2.68200	22
2.68567	22
2.68933	22
2.69300	22
2.69667	23
2.70033	23
2.70400	23
2.70767	23
2.71133	24
2.71500	24
2.71867	25
2.72233	25
2.72600	25
2.72967	25
2.73333	25
2.73700	24
2.74067	24
2.74433	23
2.74800	23
2.75167	22
2.75533	22
2.75900	22
2.76267	22
2.76633	23
2.77000	23
2.77367	23
2.77733	23
2.78100	24
2.78467	24
2.78833	24
2.79200	25
2.79567	25
2.79933	25
2.80300	26
2.80667	26
2.81033	26
2.81400	26
2.81767	26
2.82133	26
2.82500	27
2.82867	27
2.83233	27
2.83600	27
2.83967	26
2.84333	24
2.84700	21
2.85067	15
2.85433	7
2.85800	-5
2.86167	-20
2.86533	-39
2.86900	-62
2.87267	-90
2.87633	-122
2.88000	-159
2.88367	-199
2.88733	-243
2.89100	-290
2.89467	-339
2.89833	-391
2.90200	-445
2.90567	-499
2.90933	-554
2.91300	-609
2.91667	-664
2.92033	-718
2.92400	-771
2.92767	-823
2.93133	-874
2.93500	-929
2.93867	-987
2.94233	-1041
2.94600	-1081
2.94967	-1098
2.95333	-1089
2.95700	-1055
2.96067	-1002
2.96433	-935
2.96800	-859
2.97167	-779
2.97533	-699
2.97900	-621
2.98267	-548
2.98633	-479
2.99000	-417
2.99367	-361
2.99733	-311
3.00100	-266
3.00467	-227
3.00833	-194
3.01200	-164
3.01567	-139
3.01933	-118
3.02300	-99
3.02667	-83
3.03033	-69
3.03400	-58
3.03767	-48
3.04133	-39
3.04500	-32
3.04867	-26
3.05233	-20
3.05600	-15
3.05967	-12
3.06333	-9
3.06700	-6
3.07067	-4
3.07433	-1
3.07800	0
3.08167	2
3.08533	4
3.08900	5
3.09267	7
3.09633	8
3.10000	9
3.10367	10
3.10733	11
3.11100	12
3.11467	13
3.11833	13
3.12200	14
3.12567	14
3.12933	15
3.13300	15
3.13667	15
3.14033	16
3.14400	16
3.14767	17
3.15133	17
3.15500	18
3.15867	18
3.16233	18
3.16600	18
3.16967	18
3.17333	19
3.17700	19
3.18067	19
3.18433	19
3.18800	19
3.19167	19
3.19533	20
3.19900	20
3.20267	20
3.20633	20
3.21000	20
3.21367	20
3.21733	21
3.22100	21
3.22467	21
3.22833	21
3.23200	21
3.23567	21
3.23933	21
3.24300	21
3.24667	21
3.25033	21
3.25400	22
3.25767	22
3.26133	22
3.26500	22
3.26867	22
3.27233	21
3.27600	21
3.27967	21
3.28333	21
3.28700	21
3.29067	22
3.29433	22
3.29800	22
3.30167	22
3.30533	22
3.30900	22
3.31267	23
3.31633	23
3.32000	23
3.32367	23
3.32733	23
3.33100	23
3.33467	24
3.33833	24
3.34200	24
3.34567	25
3.34933	25
3.35300	25
3.35667	25
3.36033	26
3.36400	26
3.36767	26
3.37133	26
3.37500	26
3.37867	27
3.38233	27
3.38600	27
3.38967	27
3.39333	27
3.39700	26
3.40067	26
3.40433	27
3.40800	27
3.41167	27
3.41533	27
3.41900	27
3.42267	27
3.42633	27
3.43000	27
3.43367	27
3.43733	27
3.44100	28
3.44467	28
3.44833	28
3.45200	28
3.45567	29
3.45933	29
3.46300	29
3.46667	29
3.47033	29
3.47400	29
3.47767	29
3.48133	28
3.48500	28
3.48867	28
3.49233	28
3.49600	28
3.49967	28
3.50333	28
3.50700	27
3.51067	27
3.51433	27
3.51800	27
3.52167	27
3.52533	27
3.52900	27
3.53267	27
3.53633	27
3.54000	27
3.54367	27
3.54733	27
3.55100	27
3.55467	27
3.55833	27
3.56200	27
3.56567	26
3.56933	26
3.57300	26
3.57667	26
3.58033	26
3.58400	26
3.58767	26
3.59133	26
3.59500	26
3.59867	26
3.60233	26
3.60600	26
3.60967	26
3.61333	25
3.61700	25
3.62067	25
3.62433	25
3.62800	25
3.63167	25
3.63533	25
3.63900	25
3.64267	25
3.64633	25
3.65000	25
3.65367	25
3.65733	25
3.66100	25
3.66467	25
3.66833	25
3.67200	25
3.67567	25
3.67933	25
3.68300	25
3.68667	25
3.69033	25
3.69400	25
3.69767	25
3.70133	25
3.70500	25
3.70867	25
3.71233	24
3.71600	24
3.71967	24
3.72333	24
3.72700	25
3.73067	25
3.73433	25
3.73800	25
3.74167	25
3.74533	25
3.74900	25
3.75267	25
3.75633	25
3.76000	25
3.76367	25
3.76733	25
3.77100	25
3.77467	25
3.77833	25
3.78200	25
3.78567	25
3.78933	25
3.79300	25
3.79667	25
3.80033	25
3.80400	25
3.80767	25
3.81133	25
3.81500	25
3.81867	25
3.82233	25
3.82600	25
3.82967	25
3.83333	25
3.83700	25
3.84067	25
3.84433	25
3.84800	25
3.85167	25
3.85533	25
3.85900	25
3.86267	26
3.86633	26
3.87000	26
3.87367	26
3.87733	26
3.88100	26
3.88467	26
3.88833	26
3.89200	26
3.89567	26
3.89933	26
3.90300	26
3.90667	26
3.91033	26
3.91400	26
3.91767	26
3.92133	26
3.92500	26
3.92867	26
3.93233	25
3.93600	25
3.93967	25
3.94333	25
3.94700	25
3.95067	25
3.95433	24
3.95800	24
3.96167	24
3.96533	24
3.96900	24
3.97267	24
3.97633	23
3.98000	23
3.98367	23
3.98733	23
3.99100	23
3.99467	22
3.99833	22

[Chromatogram (Ch3)]
Interval(msec)	220
# of Points	1091
Start Time(min)	0.002
End Time(min)	3.998
R.Time (min)	Intensity
0.00167	-0
0.00533	2
0.00900	5
0.01267	7
0.01633	7
0.02000	8
0.02367	11
0.02733	13
0.03100	14
0.03467	17
0.03833	18
0.04200	19
0.04567	22
0.04933	22
0.05300	21
0.05667	18
0.06033	15
0.06400	13
0.06767	11
0.07133	13
0.07500	14
0.07867	16
0.08233	14
0.08600	13
0.08967	15
0.09333	17
0.09700	18
0.10067	20
0.10433	20
0.10800	17
0.11167	14
0.11533	15
0.11900	16
0.12267	17
0.12633	18
0.13000	17
0.13367	16
0.13733	14
0.14100	14
0.14467	13
0.14833	13
0.15200	13
0.15567	13
0.15933	11
0.16300	12
0.16667	13
0.17033	14
0.17400	14
0.17767	14
0.18133	14
0.18500	16
0.18867	17
0.19233	16
0.19600	16
0.19967	14
0.20333	14
0.20700	16
0.21067	15
0.21433	15
0.21800	17
0.22167	18
0.22533	19
0.22900	17
0.23267	18
0.23633	18
0.24000	18
0.24367	18
0.24733	17
0.25100	14
0.25467	10
0.25833	10
0.26200	12
0.26567	15
0.26933	17
0.27300	20
0.27667	20
0.28033	19
0.28400	19
0.28767	19
0.29133	18
0.29500	16
0.29867	14
0.30233	15
0.30600	18
0.30967	21
0.31333	21
0.31700	20
0.32067	19
0.32433	21
0.32800	21
0.33167	20
0.33533	18
0.33900	17
0.34267	17
0.34633	17
0.35000	15
0.35367	11
0.35733	10
0.36100	12
0.36467	12
0.36833	14
0.37200	16
0.37567	16
0.37933	17
0.38300	19
0.38667	20
0.39033	21
0.39400	21
0.39767	20
0.40133	21
0.40500	22
0.40867	22
0.41233	22
0.41600	22
0.41967	21
0.42333	19
0.42700	16
0.43067	17
0.43433	19
0.43800	20
0.44167	20
0.44533	20
0.44900	21
0.45267	22
0.45633	20
0.46000	17
0.46367	16
0.46733	13
0.47100	13
0.47467	16
0.47833	20
0.48200	21
0.48567	20
0.48933	20
0.49300	19
0.49667	18
0.50033	18
0.50400	20
0.50767	21
0.51133	20
0.51500	17
0.51867	14
0.52233	15
0.52600	15
0.52967	15
0.53333	15
0.53700	17
0.54067	20
0.54433	20
0.54800	17
0.55167	16
0.55533	13
0.55900	14
0.56267	17
0.56633	18
0.57000	16
0.57367	16
0.57733	17
0.58100	19
0.58467	20
0.58833	20
0.59200	20
0.59567	20
0.59933	17
0.60300	14
0.60667	12
0.61033	10
0.61400	10
0.61767	11
0.62133	13
0.62500	15
0.62867	14
0.63233	13
0.63600	16
0.63967	19
0.64333	18
0.64700	16
0.65067	15
0.65433	13
0.65800	11
0.66167	11
0.66533	13
0.66900	13
0.67267	13
0.67633	15
0.68000	16
0.68367	17
0.68733	17
0.69100	17
0.69467	18
0.69833	19
0.70200	21
0.70567	23
0.70933	21
0.71300	19
0.71667	19
0.72033	18
0.72400	16
0.72767	13
0.73133	12
0.73500	12
0.73867	10
0.74233	10
0.74600	11
0.74967	14
0.75333	16
0.75700	14
0.76067	11
0.76433	10
0.76800	11
0.77167	12
0.77533	12
0.77900	15
0.78267	17
0.78633	17
0.79000	15
0.79367	12
0.79733	14
0.80100	17
0.80467	19
0.80833	16
0.81200	15
0.81567	15
0.81933	15
0.82300	14
0.82667	13
0.83033	11
0.83400	12
0.83767	14
0.84133	16
0.84500	16
0.84867	16
0.85233	17
0.85600	17
0.85967	16
0.86333	16
0.86700	15
0.87067	14
0.87433	13
0.87800	13
0.88167	13
0.88533	14
0.88900	16
0.89267	15
0.89633	14
0.90000	12
0.90367	11
0.90733	12
0.91100	14
0.91467	17
0.91833	16
0.92200	14
0.92567	15
0.92933	18
0.93300	18
0.93667	18
0.94033	17
0.94400	17
0.94767	18
0.95133	20
0.95500	19
0.95867	19
0.96233	20
0.96600	19
0.96967	20
0.97333	19
0.97700	18
0.98067	15
0.98433	14
0.98800	14
0.99167	15
0.99533	17
0.99900	19
1.00267	18
1.00633	17
1.01000	17
1.01367	15
1.01733	13
1.02100	12
1.02467	14
1.02833	16
1.03200	17
1.03567	17
1.03933	18
1.04300	20
1.04667	20
1.05033	21
1.05400	23
1.05767	23
1.06133	23
1.06500	22
1.06867	20
1.07233	17
1.07600	15
1.07967	17
1.08333	17
1.08700	19
1.09067	24
1.09433	27
1.09800	31
1.10167	30
1.10533	27
1.10900	27
1.11267	26
1.11633	27
1.12000	27
1.12367	27
1.12733	27
1.13100	27
1.13467	26
1.13833	26
1.14200	25
1.14567	25
1.14933	24
1.15300	24
1.15667	24
1.16033	23
1.16400	24
1.16767	25
1.17133	25
1.17500	23
1.17867	22
1.18233	22
1.18600	22
1.18967	24
1.19333	24
1.19700	24
1.20067	24
1.20433	24
1.20800	24
1.21167	25
1.21533	26
1.21900	27
1.22267	28
1.22633	26
1.23000	23
1.23367	22
1.23733	23
1.24100	24
1.24467	27
1.24833	27
1.25200	26
1.25567	25
1.25933	24
1.26300	24
1.26667	26
1.27033	27
1.27400	28
1.27767	30
1.28133	30
1.28500	30
1.28867	27
1.29233	26
1.29600	28
1.29967	27
1.30333	28
1.30700	29
1.31067	28
1.31433	27
1.31800	27
1.32167	26
1.32533	26
1.32900	27
1.33267	26
1.33633	24
1.34000	24
1.34367	25
1.34733	25
1.35100	26
1.35467	27
1.35833	28
1.36200	28
1.36567	28
1.36933	29
1.37300	29
1.37667	28
1.38033	27
1.38400	25
1.38767	24
1.39133	24
1.39500	22
1.39867	23
1.40233	25
1.40600	25
1.40967	27
1.41333	29
1.41700	31
1.42067	29
1.42433	28
1.42800	27
1.43167	26
1.43533	26
1.43900	28
1.44267	29
1.44633	29
1.45000	32
1.45367	33
1.45733	31
1.46100	28
1.46467	26
1.46833	25
1.47200	25
1.47567	25
1.47933	25
1.48300	26
1.48667	28
1.49033	29
1.49400	31
1.49767	32
1.50133	32
1.50500	32
1.50867	32
1.51233	34
1.51600	37
1.51967	37
1.52333	34
1.52700	32
1.53067	32
1.53433	33
1.53800	34
1.54167	36
1.54533	38
1.54900	39
1.55267	40
1.55633	39
1.56000	37
1.56367	36
1.56733	34
1.57100	34
1.57467	34
1.57833	32
1.58200	31
1.58567	33
1.58933	35
1.59300	37
1.59667	38
1.60033	36
1.60400	35
1.60767	34
1.61133	35
1.61500	34
1.61867	33
1.62233	33
1.62600	36
1.62967	38
1.63333	40
1.63700	41
1.64067	42
1.64433	43
1.64800	42
1.65167	40
1.65533	40
1.65900	41
1.66267	42
1.66633	42
1.67000	41
1.67367	41
1.67733	44
1.68100	46
1.68467	45
1.68833	44
1.69200	43
1.69567	46
1.69933	48
1.70300	50
1.70667	48
1.71033	45
1.71400	45
1.71767	44
1.72133	46
1.72500	47
1.72867	49
1.73233	50
1.73600	50
1.73967	48
1.74333	45
1.74700	44
1.75067	43
1.75433	44
1.75800	47
1.76167	50
1.76533	51
1.76900	50
1.77267	49
1.77633	50
1.78000	51
1.78367	52
1.78733	53
1.79100	56
1.79467	58
1.79833	59
1.80200	61
1.80567	65
1.80933	66
1.81300	64
1.81667	64
1.82033	66
1.82400	68
1.82767	69
1.83133	70
1.83500	69
1.83867	68
1.84233	67
1.84600	65
1.84967	61
1.85333	56
1.85700	54
1.86067	58
1.86433	60
1.86800	62
1.87167	63
1.87533	65
1.87900	67
1.88267	68
1.88633	70
1.89000	71
1.89367	69
1.89733	68
1.90100	68
1.90467	69
1.90833	72
1.91200	75
1.91567	80
1.91933	82
1.92300	83
1.92667	81
1.93033	80
1.93400	78
1.93767	76
1.94133	76
1.94500	79
1.94867	80
1.95233	80
1.95600	81
1.95967	81
1.96333	83
1.96700	86
1.97067	87
1.97433	90
1.97800	94
1.98167	96
1.98533	96
1.98900	96
1.99267	98
1.99633	99
2.00000	99
2.00367	100
2.00733	102
2.01100	104
2.01467	105
2.01833	108
2.02200	109
2.02567	108
2.02933	108
2.03300	110
2.03667	111
2.04033	113
2.04400	113
2.04767	114
2.05133	114
2.05500	115
2.05867	117
2.06233	119
2.06600	119
2.06967	119
2.07333	118
2.07700	118
2.08067	120
2.08433	122
2.08800	124
2.09167	126
2.09533	128
2.09900	129
2.10267	130
2.10633	131
2.11000	131
2.11367	131
2.11733	130
2.12100	131
2.12467	133
2.12833	133
2.13200	133
2.13567	133
2.13933	134
2.14300	135
2.14667	138
2.15033	141
2.15400	143
2.15767	146
2.16133	150
2.16500	153
2.16867	155
2.17233	156
2.17600	157
2.17967	157
2.18333	158
2.18700	160
2.19067	161
2.19433	162
2.19800	163
2.20167	166
2.20533	169
2.20900	170
2.21267	171
2.21633	171
2.22000	171
2.22367	171
2.22733	172
2.23100	176
2.23467	180
2.23833	183
2.24200	185
2.24567	189
2.24933	191
2.25300	190
2.25667	188
2.26033	189
2.26400	192
2.26767	193
2.27133	193
2.27500	195
2.27867	196
2.28233	195
2.28600	196
2.28967	199
2.29333	201
2.29700	203
2.30067	206
2.30433	207
2.30800	209
2.31167	212
2.31533	216
2.31900	219
2.32267	221
2.32633	220
2.33000	221
2.33367	223
2.33733	227
2.34100	230
2.34467	233
2.34833	235
2.35200	236
2.35567	237
2.35933	236
2.36300	236
2.36667	238
2.37033	240
2.37400	241
2.37767	242
2.38133	242
2.38500	241
2.38867	240
2.39233	241
2.39600	245
2.39967	251
2.40333	256
2.40700	262
2.41067	264
2.41433	267
2.41800	269
2.42167	273
2.42533	277
2.42900	279
2.43267	281
2.43633	282
2.44000	286
2.44367	343
2.44733	493
2.45100	655
2.45467	791
2.45833	871
2.46200	880
2.46567	849
2.46933	811
2.47300	782
2.47667	764
2.48033	749
2.48400	727
2.48767	692
2.49133	651
2.49500	610
2.49867	574
2.50233	547
2.50600	527
2.50967	512
2.51333	508
2.51700	518
2.52067	537
2.52433	557
2.52800	579
2.53167	591
2.53533	588
2.53900	577
2.54267	559
2.54633	535
2.55000	508
2.55367	482
2.55733	458
2.56100	436
2.56467	420
2.56833	408
2.57200	400
2.57567	395
2.57933	392
2.58300	391
2.58667	390
2.59033	389
2.59400	386
2.59767	383
2.60133	376
2.60500	364
2.60867	349
2.61233	334
2.61600	317
2.61967	304
2.62333	294
2.62700	285
2.63067	280
2.63433	279
2.63800	278
2.64167	280
2.64533	283
2.64900	286
2.65267	287
2.65633	288
2.66000	289
2.66367	288
2.66733	285
2.67100	278
2.67467	271
2.67833	263
2.68200	255
2.68567	250
2.68933	245
2.69300	238
2.69667	232
2.70033	226
2.70400	222
2.70767	221
2.71133	221
2.71500	220
2.71867	221
2.72233	222
2.72600	223
2.72967	226
2.73333	228
2.73700	233
2.74067	235
2.74433	238
2.74800	240
2.75167	242
2.75533	245
2.75900	246
2.76267	247
2.76633	248
2.77000	251
2.77367	252
2.77733	254
2.78100	255
2.78467	256
2.78833	257
2.79200	260
2.79567	263
2.79933	266
2.80300	268
2.80667	269
2.81033	271
2.81400	272
2.81767	277
2.82133	290
2.82500	319
2.82867	375
2.83233	474
2.83600	642
2.83967	902
2.84333	1267
2.84700	1733
2.85067	2283
2.85433	2885
2.85800	3496
2.86167	4062
2.86533	4537
2.86900	4885
2.87267	5087
2.87633	5142
2.88000	5064
2.88367	4879
2.88733	4613
2.89100	4295
2.89467	3949
2.89833	3595
2.90200	3250
2.90567	2922
2.90933	2617
2.91300	2338
2.91667	2087
2.92033	1865
2.92400	1667
2.92767	1490
2.93133	1332
2.93500	1197
2.93867	1081
2.94233	979
2.94600	891
2.94967	816
2.95333	749
2.95700	690
2.96067	638
2.96433	591
2.96800	551
2.97167	519
2.97533	491
2.97900	465
2.98267	440
2.98633	418
2.99000	398
2.99367	378
2.99733	340
3.00100	294
3.00467	259
3.00833	237
3.01200	226
3.01567	228
3.01933	248
3.02300	281
3.02667	320
3.03033	360
3.03400	401
3.03767	440
3.04133	475
3.04500	508
3.04867	535
3.05233	556
3.05600	574
3.05967	592
3.06333	606
3.06700	618
3.07067	629
3.07433	638
3.07800	643
3.08167	648
3.08533	654
3.08900	659
3.09267	664
3.09633	670
3.10000	675
3.10367	677
3.10733	681
3.11100	684
3.11467	687
3.11833	691
3.12200	693
3.12567	694
3.12933	694
3.13300	695
3.13667	698
3.14033	700
3.14400	702
3.14767	705
3.15133	708
3.15500	713
3.15867	715
3.16233	719
3.16600	722
3.16967	725
3.17333	728
3.17700	730
3.18067	731
3.18433	732
3.18800	734
3.19167	735
3.19533	737
3.19900	742
3.20267	749
3.20633	754
3.21000	757
3.21367	762
3.21733	768
3.22100	772
3.22467	776
3.22833	778
3.23200	782
3.23567	787
3.23933	791
3.24300	793
3.24667	795
3.25033	798
3.25400	803
3.25767	804
3.26133	803
3.26500	802
3.26867	804
3.27233	806
3.27600	806
3.27967	806
3.28333	805
3.28700	805
3.29067	804
3.29433	805
3.29800	805
3.30167	807
3.30533	808
3.30900	809
3.31267	809
3.31633	811
3.32000	814
3.32367	816
3.32733	816
3.33100	815
3.33467	815
3.33833	815
3.34200	814
3.34567	816
3.34933	818
3.35300	817
3.35667	814
3.36033	814
3.36400	810
3.36767	809
3.37133	811
3.37500	813
3.37867	813
3.38233	813
3.38600	811
3.38967	808
3.39333	806
3.39700	804
3.40067	804
3.40433	803
3.40800	801
3.41167	800
3.41533	799
3.41900	798
3.42267	796
3.42633	796
3.43000	795
3.43367	794
3.43733	794
3.44100	793
3.44467	793
3.44833	791
3.45200	786
3.45567	782
3.45933	780
3.46300	777
3.46667	775
3.47033	774
3.47400	777
3.47767	778
3.48133	777
3.48500	774
3.48867	771
3.49233	771
3.49600	771
3.49967	770
3.50333	769
3.50700	769
3.51067	768
3.51433	770
3.51800	772
3.52167	771
3.52533	770
3.52900	770
3.53267	767
3.53633	762
3.54000	760
3.54367	760
3.54733	760
3.55100	759
3.55467	760
3.55833	763
3.56200	763
3.56567	763
3.56933	762
3.57300	762
3.57667	760
3.58033	759
3.58400	759
3.58767	759
3.59133	759
3.59500	758
3.59867	760
3.60233	761
3.60600	761
3.60967	761
3.61333	760
3.61700	759
3.62067	758
3.62433	759
3.62800	759
3.63167	758
3.63533	759
3.63900	759
3.64267	759
3.64633	759
3.65000	759
3.65367	758
3.65733	756
3.66100	753
3.66467	753
3.66833	752
3.67200	752
3.67567	753
3.67933	754
3.68300	752
3.68667	751
3.69033	751
3.69400	748
3.69767	749
3.70133	751
3.70500	753
3.70867	754
3.71233	754
3.71600	751
3.71967	749
3.72333	747
3.72700	744
3.73067	741
3.73433	738
3.73800	735
3.74167	734
3.74533	732
3.74900	731
3.75267	731
3.75633	730
3.76000	729
3.76367	728
3.76733	727
3.77100	727
3.77467	726
3.77833	724
3.78200	723
3.78567	722
3.78933	721
3.79300	720
3.79667	720
3.80033	719
3.80400	720
3.80767	720
3.81133	720
3.81500	719
3.81867	719
3.82233	717
3.82600	718
3.82967	717
3.83333	713
3.83700	709
3.84067	707
3.84433	707
3.84800	706
3.85167	704
3.85533	701
3.85900	698
3.86267	697
3.86633	695
3.87000	692
3.87367	690
3.87733	689
3.88100	687
3.88467	682
3.88833	680
3.89200	681
3.89567	680
3.89933	677
3.90300	677
3.90667	677
3.91033	674
3.91400	670
3.91767	667
3.92133	664
3.92500	664
3.92867	662
3.93233	660
3.93600	658
3.93967	657
3.94333	655
3.94700	654
3.95067	653
3.95433	651
3.95800	649
3.96167	647
3.96533	645
3.96900	645
3.97267	644
3.97633	641
3.98000	638
3.98367	635
3.98733	634
3.99100	633
3.99467	632
3.99833	630

[Status Trace (Column Oven Temperature)]
Interval(msec)	1000
# of Points	240
Start Time(min)	0.007
End Time(min)	3.991
Intensity Units	
Intensity Multiplier	1
R.Time (min)	Intensity
0.00737	35.03
0.02403	35.02
0.04070	35.01
0.05737	35.01
0.07403	35.02
0.09070	35.03
0.10737	35.03
0.12403	35.03
0.14070	35.02
0.15737	35.02
0.17403	35.02
0.19070	35.03
0.20737	35.02
0.22403	35.03
0.24070	35.03
0.25737	35.03
0.27403	35.03
0.29070	35.03
0.30737	35.02
0.32403	35.02
0.34070	35.02
0.35737	35.01
0.37403	35.01
0.39070	35.01
0.40737	35.00
0.42403	35.01
0.44070	35.01
0.45737	35.00
0.47403	35.00
0.49070	34.99
0.50737	34.98
0.52403	34.97
0.54070	34.98
0.55737	35.00
0.57403	35.01
0.59070	35.01
0.60737	35.01
0.62403	35.00
0.64070	34.98
0.65737	34.98
0.67403	34.99
0.69070	34.99
0.70737	35.00
0.72403	35.00
0.74070	35.01
0.75737	35.00
0.77403	35.00
0.79070	35.01
0.80737	35.02
0.82403	35.01
0.84070	34.99
0.85737	34.99
0.87403	34.97
0.89070	34.97
0.90737	34.98
0.92403	34.99
0.94070	35.00
0.95737	35.01
0.97403	35.01
0.99070	35.01
1.00737	35.01
1.02403	35.01
1.04070	35.01
1.05737	35.00
1.07403	35.00
1.09070	35.01
1.10737	35.01
1.12403	35.01
1.14070	35.00
1.15737	34.99
1.17403	34.98
1.19070	34.98
1.20737	34.98
1.22403	34.99
1.24070	34.99
1.25737	34.99
1.27403	34.99
1.29070	35.00
1.30737	35.00
1.32403	35.02
1.34070	35.03
1.35737	35.01
1.37403	35.02
1.39070	35.02
1.40737	35.01
1.42403	35.01
1.44070	35.00
1.45737	35.01
1.47403	35.00
1.49070	34.99
1.50737	34.99
1.52403	35.00
1.54070	35.01
1.55737	35.01
1.57403	35.01
1.59070	35.03
1.60737	35.08
1.62403	35.19
1.64070	35.37
1.65737	35.61
1.67403	35.94
1.69070	36.30
1.70737	36.65
1.72403	37.01
1.74070	37.35
1.75737	37.67
1.77403	37.98
1.79070	38.33
1.80737	38.66
1.82403	39.01
1.84070	39.34
1.85737	39.63
1.87403	39.97
1.89070	40.28
1.90737	40.62
1.92403	40.94
1.94070	41.28
1.95737	41.61
1.97403	41.93
1.99070	42.25
2.00737	42.57
2.02403	42.90
2.04070	43.22
2.05737	43.54
2.07403	43.88
2.09070	44.19
2.10737	44.52
2.12403	44.87
2.14070	45.20
2.15737	45.53
2.17403	45.89
2.19070	46.19
2.20737	46.51
2.22403	46.85
2.24070	47.17
2.25737	47.49
2.27403	47.80
2.29070	48.18
2.30737	48.50
2.32403	48.83
2.34070	49.16
2.35737	49.44
2.37403	49.63
2.39070	49.69
2.40737	49.68
2.42403	49.69
2.44070	49.70
2.45737	49.71
2.47403	49.71
2.49070	49.73
2.50737	49.74
2.52403	49.76
2.54070	49.76
2.55737	49.79
2.57403	49.79
2.59070	49.82
2.60737	49.83
2.62403	49.83
2.64070	49.84
2.65737	49.85
2.67403	49.86
2.69070	49.86
2.70737	49.85
2.72403	49.84
2.74070	49.86
2.75737	49.87
2.77403	49.88
2.79070	49.87
2.80737	49.85
2.82403	49.85
2.84070	49.85
2.85737	49.87
2.87403	49.88
2.89070	49.89
2.90737	49.89
2.92403	49.89
2.94070	49.91
2.95737	49.92
2.97403	49.93
2.99070	49.94
3.00737	49.96
3.02403	49.98
3.04070	50.00
3.05737	50.02
3.07403	50.03
3.09070	50.03
3.10737	50.03
3.12403	50.04
3.14070	50.04
3.15737	50.05
3.17403	50.05
3.19070	50.05
3.20737	50.06
3.22403	50.06
3.24070	50.07
3.25737	50.09
3.27403	50.09
3.29070	50.10
3.30737	50.12
3.32403	50.12
3.34070	50.11
3.35737	50.10
3.37403	50.09
3.39070	50.08
3.40737	50.07
3.42403	50.05
3.44070	50.03
3.45737	50.01
3.47403	50.00
3.49070	50.00
3.50737	50.00
3.52403	50.00
3.54070	49.99
3.55737	49.99
3.57403	50.00
3.59070	50.00
3.60737	50.00
3.62403	50.00
3.64070	50.01
3.65737	50.01
3.67403	50.01
3.69070	50.02
3.70737	50.02
3.72403	50.02
3.74070	50.02
3.75737	50.02
3.77403	50.03
3.79070	50.04
3.80737	50.04
3.82403	50.04
3.84070	50.04
3.85737	50.04
3.87403	50.04
3.89070	50.04
3.90737	50.03
3.92403	50.03
3.94070	50.03
3.95737	50.03
3.97403	50.05
3.99070	50.06

[Status Trace (Injection Unit Temperature)]
Interval(msec)	1000
# of Points	240
Start Time(min)	0.007
End Time(min)	3.991
Intensity Units	
Intensity Multiplier	1
R.Time (min)	Intensity
0.00737	99.98
0.02403	99.98
0.04070	99.98
0.05737	99.98
0.07403	99.98
0.09070	99.98
0.10737	99.98
0.12403	99.98
0.14070	99.98
0.15737	99.98
0.17403	99.98
0.19070	99.98
0.20737	99.98
0.22403	99.98
0.24070	99.98
0.25737	99.98
0.27403	99.98
0.29070	99.98
0.30737	99.98
0.32403	99.98
0.34070	99.98
0.35737	99.98
0.37403	99.98
0.39070	99.98
0.40737	99.98
0.42403	99.98
0.44070	99.98
0.45737	99.98
0.47403	99.98
0.49070	99.98
0.50737	99.98
0.52403	99.98
0.54070	99.98
0.55737	99.98
0.57403	99.98
0.59070	99.98
0.60737	99.98
0.62403	99.97
0.64070	99.98
0.65737	99.98
0.67403	99.98
0.69070	99.97
0.70737	99.97
0.72403	99.98
0.74070	99.98
0.75737	99.97
0.77403	99.98
0.79070	99.97
0.80737	99.98
0.82403	99.97
0.84070	99.98
0.85737	99.97
0.87403	99.98
0.89070	99.98
0.90737	99.98
0.92403	99.98
0.94070	99.97
0.95737	99.98
0.97403	99.98
0.99070	99.98
1.00737	99.98
1.02403	99.98
1.04070	99.98
1.05737	99.98
1.07403	99.98
1.09070	99.98
1.10737	99.98
1.12403	99.98
1.14070	99.98
1.15737	99.98
1.17403	99.98
1.19070	99.98
1.20737	99.98
1.22403	99.98
1.24070	99.98
1.25737	99.99
1.27403	99.98
1.29070	99.98
1.30737	99.98
1.32403	99.98
1.34070	99.98
1.35737	99.99
1.37403	99.98
1.39070	99.99
1.40737	99.99
1.42403	99.99
1.44070	99.98
1.45737	99.99
1.47403	99.99
1.49070	99.99
1.50737	99.98
1.52403	99.99
1.54070	99.99
1.55737	99.99
1.57403	99.99
1.59070	99.99
1.60737	99.99
1.62403	99.99
1.64070	99.99
1.65737	99.99
1.67403	99.99
1.69070	99.99
1.70737	99.99
1.72403	99.99
1.74070	99.99
1.75737	99.99
1.77403	99.99
1.79070	99.98
1.80737	99.99
1.82403	99.99
1.84070	99.99
1.85737	99.99
1.87403	99.98
1.89070	99.99
1.90737	99.99
1.92403	99.99
1.94070	99.98
1.95737	99.98
1.97403	99.98
1.99070	99.98
2.00737	99.98
2.02403	99.98
2.04070	99.98
2.05737	99.97
2.07403	99.97
2.09070	99.98
2.10737	99.97
2.12403	99.97
2.14070	99.98
2.15737	99.97
2.17403	99.97
2.19070	99.97
2.20737	99.97
2.22403	99.97
2.24070	99.97
2.25737	99.97
2.27403	99.97
2.29070	99.97
2.30737	99.96
2.32403	99.97
2.34070	99.97
2.35737	99.97
2.37403	99.97
2.39070	99.97
2.40737	99.97
2.42403	99.97
2.44070	99.96
2.45737	99.97
2.47403	99.97
2.49070	99.97
2.50737	99.97
2.52403	99.97
2.54070	99.97
2.55737	99.97
2.57403	99.97
2.59070	99.97
2.60737	99.97
2.62403	99.98
2.64070	99.98
2.65737	99.98
2.67403	99.98
2.69070	99.98
2.70737	99.98
2.72403	99.98
2.74070	99.98
2.75737	99.98
2.77403	99.98
2.79070	99.99
2.80737	99.99
2.82403	99.99
2.84070	99.99
2.85737	99.99
2.87403	99.99
2.89070	99.99
2.90737	100.00
2.92403	100.00
2.94070	100.00
2.95737	100.00
2.97403	100.00
2.99070	100.00
3.00737	100.00
3.02403	100.00
3.04070	100.00
3.05737	100.01
3.07403	100.01
3.09070	100.01
3.10737	100.01
3.12403	100.01
3.14070	100.02
3.15737	100.02
3.17403	100.02
3.19070	100.02
3.20737	100.02
3.22403	100.02
3.24070	100.02
3.25737	100.02
3.27403	100.03
3.29070	100.02
3.30737	100.03
3.32403	100.03
3.34070	100.03
3.35737	100.02
3.37403	100.03
3.39070	100.03
3.40737	100.03
3.42403	100.03
3.44070	100.03
3.45737	100.04
3.47403	100.04
3.49070	100.04
3.50737	100.04
3.52403	100.04
3.54070	100.04
3.55737	100.04
3.57403	100.04
3.59070	100.04
3.60737	100.04
3.62403	100.04
3.64070	100.04
3.65737	100.04
3.67403	100.04
3.69070	100.04
3.70737	100.04
3.72403	100.05
3.74070	100.05
3.75737	100.05
3.77403	100.04
3.79070	100.05
3.80737	100.04
3.82403	100.05
3.84070	100.04
3.85737	100.04
3.87403	100.05
3.89070	100.04
3.90737	100.04
3.92403	100.04
3.94070	100.04
3.95737	100.04
3.97403	100.04
3.99070	100.04

[Status Trace (Carrier Gas Pressure)]
Interval(msec)	1000
# of Points	240
Start Time(min)	0.007
End Time(min)	3.991
Intensity Units	
Intensity Multiplier	1
R.Time (min)	Intensity
0.00737	58.00
0.02403	55.52
0.04070	57.03
0.05737	59.22
0.07403	59.53
0.09070	58.08
0.10737	57.98
0.12403	58.01
0.14070	58.01
0.15737	58.01
0.17403	58.00
0.19070	58.00
0.20737	58.00
0.22403	58.00
0.24070	58.00
0.25737	58.00
0.27403	58.00
0.29070	58.00
0.30737	58.00
0.32403	58.00
0.34070	58.00
0.35737	58.00
0.37403	58.00
0.39070	58.00
0.40737	58.00
0.42403	58.00
0.44070	58.00
0.45737	58.00
0.47403	58.00
0.49070	58.00
0.50737	58.00
0.52403	58.00
0.54070	58.00
0.55737	58.00
0.57403	58.00
0.59070	58.00
0.60737	58.00
0.62403	58.00
0.64070	58.00
0.65737	58.00
0.67403	58.00
0.69070	58.00
0.70737	58.00
0.72403	58.00
0.74070	58.00
0.75737	58.00
0.77403	58.00
0.79070	58.00
0.80737	58.00
0.82403	58.00
0.84070	58.00
0.85737	58.00
0.87403	58.00
0.89070	58.00
0.90737	58.00
0.92403	58.00
0.94070	58.00
0.95737	58.00
0.97403	58.00
0.99070	58.00
1.00737	58.00
1.02403	58.00
1.04070	58.00
1.05737	58.00
1.07403	58.00
1.09070	58.00
1.10737	58.00
1.12403	58.00
1.14070	58.00
1.15737	58.00
1.17403	58.00
1.19070	58.00
1.20737	58.00
1.22403	58.00
1.24070	58.00
1.25737	58.00
1.27403	58.00
1.29070	58.00
1.30737	58.00
1.32403	58.00
1.34070	58.00
1.35737	58.00
1.37403	58.00
1.39070	58.00
1.40737	58.00
1.42403	58.00
1.44070	58.00
1.45737	58.00
1.47403	58.00
1.49070	58.00
1.50737	58.00
1.52403	58.00
1.54070	58.00
1.55737	58.00
1.57403	58.00
1.59070	58.00
1.60737	58.00
1.62403	58.00
1.64070	58.00
1.65737	58.00
1.67403	58.01
1.69070	58.00
1.70737	58.00
1.72403	58.00
1.74070	58.00
1.75737	58.00
1.77403	58.00
1.79070	58.00
1.80737	58.00
1.82403	58.00
1.84070	58.00
1.85737	58.00
1.87403	58.00
1.89070	58.00
1.90737	58.00
1.92403	58.00
1.94070	58.00
1.95737	58.00
1.97403	58.00
1.99070	58.00
2.00737	58.00
2.02403	58.00
2.04070	58.00
2.05737	58.00
2.07403	58.00
2.09070	58.00
2.10737	58.00
2.12403	58.00
2.14070	58.00
2.15737	58.00
2.17403	58.00
2.19070	58.00
2.20737	58.00
2.22403	58.00
2.24070	58.00
2.25737	58.00
2.27403	58.00
2.29070	58.00
2.30737	58.00
2.32403	58.00
2.34070	58.00
2.35737	58.00
2.37403	58.00
2.39070	57.99
2.40737	57.99
2.42403	58.00
2.44070	58.00
2.45737	58.00
2.47403	58.00
2.49070	58.00
2.50737	57.99
2.52403	57.98
2.54070	58.00
2.55737	58.00
2.57403	58.00
2.59070	58.00
2.60737	58.00
2.62403	58.00
2.64070	58.00
2.65737	58.00
2.67403	58.00
2.69070	58.00
2.70737	58.00
2.72403	58.00
2.74070	58.00
2.75737	58.00
2.77403	58.00
2.79070	58.00
2.80737	58.00
2.82403	58.00
2.84070	58.00
2.85737	58.00
2.87403	58.00
2.89070	58.00
2.90737	58.00
2.92403	58.00
2.94070	58.00
2.95737	58.00
2.97403	58.00
2.99070	58.00
3.00737	58.00
3.02403	58.00
3.04070	58.00
3.05737	58.00
3.07403	58.00
3.09070	58.00
3.10737	58.00
3.12403	58.00
3.14070	58.00
3.15737	58.00
3.17403	58.00
3.19070	58.00
3.20737	58.00
3.22403	58.00
3.24070	58.00
3.25737	58.00
3.27403	58.00
3.29070	58.00
3.30737	58.00
3.32403	58.00
3.34070	58.00
3.35737	58.00
3.37403	58.00
3.39070	58.00
3.40737	58.00
3.42403	58.00
3.44070	58.00
3.45737	58.00
3.47403	58.00
3.49070	58.00
3.50737	58.00
3.52403	58.00
3.54070	58.00
3.55737	58.00
3.57403	58.00
3.59070	58.00
3.60737	58.00
3.62403	58.00
3.64070	58.00
3.65737	58.00
3.67403	58.00
3.69070	58.00
3.70737	58.00
3.72403	58.00
3.74070	58.00
3.75737	58.00
3.77403	58.00
3.79070	58.00
3.80737	58.00
3.82403	58.00
3.84070	58.00
3.85737	58.00
3.87403	58.00
3.89070	58.00
3.90737	58.00
3.92403	58.00
3.94070	58.00
3.95737	58.00
3.97403	58.00
3.99070	58.00

[Status Trace (Carrier Gas Flow)]
Interval(msec)	1000
# of Points	240
Start Time(min)	0.007
End Time(min)	3.991
Intensity Units	
Intensity Multiplier	1
R.Time (min)	Intensity
0.00737	34.52
0.02403	34.54
0.04070	34.54
0.05737	34.55
0.07403	34.50
0.09070	34.52
0.10737	34.52
0.12403	34.53
0.14070	34.51
0.15737	34.52
0.17403	34.52
0.19070	34.52
0.20737	34.52
0.22403	34.52
0.24070	34.52
0.25737	34.52
0.27403	34.52
0.29070	34.52
0.30737	34.52
0.32403	34.52
0.34070	34.52
0.35737	34.52
0.37403	34.52
0.39070	34.52
0.40737	34.52
0.42403	34.52
0.44070	34.52
0.45737	34.52
0.47403	34.52
0.49070	34.52
0.50737	34.52
0.52403	34.52
0.54070	34.52
0.55737	34.52
0.57403	34.52
0.59070	34.52
0.60737	34.52
0.62403	34.52
0.64070	34.52
0.65737	34.52
0.67403	34.52
0.69070	34.51
0.70737	34.52
0.72403	34.52
0.74070	34.52
0.75737	34.52
0.77403	34.51
0.79070	34.52
0.80737	34.52
0.82403	34.52
0.84070	34.51
0.85737	34.52
0.87403	34.52
0.89070	34.52
0.90737	34.52
0.92403	34.52
0.94070	34.51
0.95737	34.52
0.97403	34.51
0.99070	34.52
1.00737	34.52
1.02403	34.52
1.04070	34.52
1.05737	34.52
1.07403	34.52
1.09070	34.52
1.10737	34.52
1.12403	34.52
1.14070	34.52
1.15737	34.52
1.17403	34.52
1.19070	34.52
1.20737	34.52
1.22403	34.52
1.24070	34.52
1.25737	34.52
1.27403	34.52
1.29070	34.52
1.30737	34.52
1.32403	34.52
1.34070	34.51
1.35737	34.52
1.37403	34.52
1.39070	34.52
1.40737	34.52
1.42403	34.52
1.44070	34.52
1.45737	34.52
1.47403	34.52
1.49070	34.52
1.50737	34.52
1.52403	34.52
1.54070	34.52
1.55737	34.52
1.57403	34.52
1.59070	34.52
1.60737	34.52
1.62403	34.52
1.64070	34.51
1.65737	34.52
1.67403	34.52
1.69070	34.51
1.70737	34.52
1.72403	34.52
1.74070	34.52
1.75737	34.52
1.77403	34.52
1.79070	34.52
1.80737	34.52
1.82403	34.52
1.84070	34.53
1.85737	34.52
1.87403	34.52
1.89070	34.52
1.90737	34.52
1.92403	34.52
1.94070	34.52
1.95737	34.52
1.97403	34.52
1.99070	34.52
2.00737	34.52
2.02403	34.52
2.04070	34.52
2.05737	34.52
2.07403	34.51
2.09070	34.52
2.10737	34.52
2.12403	34.52
2.14070	34.52
2.15737	34.52
2.17403	34.52
2.19070	34.52
2.20737	34.52
2.22403	34.52
2.24070	34.51
2.25737	34.52
2.27403	34.52
2.29070	34.52
2.30737	34.52
2.32403	34.52
2.34070	34.52
2.35737	34.52
2.37403	34.52
2.39070	34.52
2.40737	34.52
2.42403	34.51
2.44070	34.52
2.45737	34.52
2.47403	34.52
2.49070	34.52
2.50737	34.36
2.52403	34.52
2.54070	34.52
2.55737	34.52
2.57403	34.52
2.59070	34.52
2.60737	34.52
2.62403	34.52
2.64070	34.51
2.65737	34.52
2.67403	34.52
2.69070	34.52
2.70737	34.52
2.72403	34.52
2.74070	34.51
2.75737	34.52
2.77403	34.52
2.79070	34.52
2.80737	34.52
2.82403	34.52
2.84070	34.52
2.85737	34.52
2.87403	34.52
2.89070	34.52
2.90737	34.52
2.92403	34.52
2.94070	34.52
2.95737	34.52
2.97403	34.52
2.99070	34.52
3.00737	34.52
3.02403	34.52
3.04070	34.52
3.05737	34.52
3.07403	34.52
3.09070	34.52
3.10737	34.52
3.12403	34.52
3.14070	34.52
3.15737	34.52
3.17403	34.52
3.19070	34.52
3.20737	34.51
3.22403	34.52
3.24070	34.52
3.25737	34.52
3.27403	34.52
3.29070	34.52
3.30737	34.52
3.32403	34.52
3.34070	34.52
3.35737	34.52
3.37403	34.52
3.39070	34.52
3.40737	34.52
3.42403	34.52
3.44070	34.52
3.45737	34.52
3.47403	34.52
3.49070	34.51
3.50737	34.51
3.52403	34.52
3.54070	34.52
3.55737	34.52
3.57403	34.52
3.59070	34.52
3.60737	34.52
3.62403	34.52
3.64070	34.52
3.65737	34.52
3.67403	34.52
3.69070	34.51
3.70737	34.52
3.72403	34.52
3.74070	34.52
3.75737	34.52
3.77403	34.51
3.79070	34.52
3.80737	34.52
3.82403	34.51
3.84070	34.52
3.85737	34.52
3.87403	34.52
3.89070	34.52
3.90737	34.52
3.92403	34.52
3.94070	34.52
3.95737	34.52
3.97403	34.52
3.99070	34.52

[Status Trace (Column Flow)]
Interval(msec)	1000
# of Points	240
Start Time(min)	0.007
End Time(min)	3.991
Intensity Units	
Intensity Multiplier	1
R.Time (min)	Intensity
0.00737	5.52
0.02403	5.23
0.04070	5.41
0.05737	5.66
0.07403	5.70
0.09070	5.53
0.10737	5.52
0.12403	5.52
0.14070	5.52
0.15737	5.52
0.17403	5.52
0.19070	5.52
0.20737	5.52
0.22403	5.52
0.24070	5.52
0.25737	5.52
0.27403	5.52
0.29070	5.52
0.30737	5.52
0.32403	5.52
0.34070	5.52
0.35737	5.52
0.37403	5.52
0.39070	5.52
0.40737	5.52
0.42403	5.52
0.44070	5.52
0.45737	5.52
0.47403	5.52
0.49070	5.52
0.50737	5.52
0.52403	5.52
0.54070	5.52
0.55737	5.52
0.57403	5.52
0.59070	5.52
0.60737	5.52
0.62403	5.52
0.64070	5.52
0.65737	5.52
0.67403	5.52
0.69070	5.52
0.70737	5.52
0.72403	5.52
0.74070	5.52
0.75737	5.52
0.77403	5.52
0.79070	5.52
0.80737	5.52
0.82403	5.52
0.84070	5.52
0.85737	5.52
0.87403	5.52
0.89070	5.52
0.90737	5.52
0.92403	5.52
0.94070	5.52
0.95737	5.52
0.97403	5.52
0.99070	5.52
1.00737	5.52
1.02403	5.52
1.04070	5.52
1.05737	5.52
1.07403	5.52
1.09070	5.52
1.10737	5.52
1.12403	5.52
1.14070	5.52
1.15737	5.52
1.17403	5.52
1.19070	5.52
1.20737	5.52
1.22403	5.52
1.24070	5.52
1.25737	5.52
1.27403	5.52
1.29070	5.52
1.30737	5.52
1.32403	5.52
1.34070	5.52
1.35737	5.52
1.37403	5.52
1.39070	5.52
1.40737	5.52
1.42403	5.52
1.44070	5.52
1.45737	5.52
1.47403	5.52
1.49070	5.52
1.50737	5.52
1.52403	5.52
1.54070	5.52
1.55737	5.52
1.57403	5.52
1.59070	5.52
1.60737	5.52
1.62403	5.52
1.64070	5.51
1.65737	5.50
1.67403	5.49
1.69070	5.48
1.70737	5.47
1.72403	5.46
1.74070	5.45
1.75737	5.44
1.77403	5.43
1.79070	5.42
1.80737	5.41
1.82403	5.40
1.84070	5.39
1.85737	5.38
1.87403	5.37
1.89070	5.36
1.90737	5.35
1.92403	5.34
1.94070	5.33
1.95737	5.32
1.97403	5.31
1.99070	5.30
2.00737	5.29
2.02403	5.28
2.04070	5.27
2.05737	5.26
2.07403	5.25
2.09070	5.24
2.10737	5.23
2.12403	5.22
2.14070	5.21
2.15737	5.20
2.17403	5.20
2.19070	5.19
2.20737	5.18
2.22403	5.17
2.24070	5.16
2.25737	5.15
2.27403	5.14
2.29070	5.13
2.30737	5.12
2.32403	5.11
2.34070	5.10
2.35737	5.09
2.37403	5.09
2.39070	5.09
2.40737	5.09
2.42403	5.09
2.44070	5.09
2.45737	5.09
2.47403	5.09
2.49070	5.09
2.50737	5.09
2.52403	5.08
2.54070	5.08
2.55737	5.08
2.57403	5.08
2.59070	5.08
2.60737	5.08
2.62403	5.08
2.64070	5.08
2.65737	5.08
2.67403	5.08
2.69070	5.08
2.70737	5.08
2.72403	5.08
2.74070	5.08
2.75737	5.08
2.77403	5.08
2.79070	5.08
2.80737	5.08
2.82403	5.08
2.84070	5.08
2.85737	5.08
2.87403	5.08
2.89070	5.08
2.90737	5.08
2.92403	5.08
2.94070	5.08
2.95737	5.08
2.97403	5.08
2.99070	5.08
3.00737	5.08
3.02403	5.08
3.04070	5.08
3.05737	5.08
3.07403	5.08
3.09070	5.08
3.10737	5.08
3.12403	5.08
3.14070	5.08
3.15737	5.08
3.17403	5.08
3.19070	5.08
3.20737	5.08
3.22403	5.08
3.24070	5.08
3.25737	5.08
3.27403	5.08
3.29070	5.08
3.30737	5.08
3.32403	5.08
3.34070	5.08
3.35737	5.08
3.37403	5.08
3.39070	5.08
3.40737	5.08
3.42403	5.08
3.44070	5.08
3.45737	5.08
3.47403	5.08
3.49070	5.08
3.50737	5.08
3.52403	5.08
3.54070	5.08
3.55737	5.08
3.57403	5.08
3.59070	5.08
3.60737	5.08
3.62403	5.08
3.64070	5.08
3.65737	5.08
3.67403	5.08
3.69070	5.08
3.70737	5.08
3.72403	5.08
3.74070	5.08
3.75737	5.08
3.77403	5.08
3.79070	5.08
3.80737	5.08
3.82403	5.08
3.84070	5.08
3.85737	5.08
3.87403	5.08
3.89070	5.08
3.90737	5.08
3.92403	5.08
3.94070	5.08
3.95737	5.08
3.97403	5.08
3.99070	5.08

[Status Trace (Linear Velocity)]
Interval(msec)	1000
# of Points	240
Start Time(min)	0.007
End Time(min)	3.991
Intensity Units	
Intensity Multiplier	1
R.Time (min)	Intensity
0.00737	39.01
0.02403	37.38
0.04070	38.38
0.05737	39.82
0.07403	40.01
0.09070	39.07
0.10737	39.00
0.12403	39.02
0.14070	39.02
0.15737	39.02
0.17403	39.02
0.19070	39.02
0.20737	39.02
0.22403	39.02
0.24070	39.02
0.25737	39.01
0.27403	39.02
0.29070	39.01
0.30737	39.02
0.32403	39.02
0.34070	39.02
0.35737	39.02
0.37403	39.02
0.39070	39.02
0.40737	39.02
0.42403	39.02
0.44070	39.02
0.45737	39.02
0.47403	39.02
0.49070	39.02
0.50737	39.02
0.52403	39.02
0.54070	39.02
0.55737	39.02
0.57403	39.02
0.59070	39.02
0.60737	39.02
0.62403	39.02
0.64070	39.02
0.65737	39.02
0.67403	39.02
0.69070	39.02
0.70737	39.02
0.72403	39.02
0.74070	39.02
0.75737	39.02
0.77403	39.02
0.79070	39.02
0.80737	39.02
0.82403	39.02
0.84070	39.02
0.85737	39.02
0.87403	39.02
0.89070	39.02
0.90737	39.02
0.92403	39.02
0.94070	39.02
0.95737	39.02
0.97403	39.02
0.99070	39.02
1.00737	39.02
1.02403	39.02
1.04070	39.02
1.05737	39.02
1.07403	39.02
1.09070	39.02
1.10737	39.02
1.12403	39.02
1.14070	39.02
1.15737	39.02
1.17403	39.02
1.19070	39.02
1.20737	39.02
1.22403	39.02
1.24070	39.02
1.25737	39.02
1.27403	39.02
1.29070	39.02
1.30737	39.02
1.32403	39.02
1.34070	39.01
1.35737	39.02
1.37403	39.01
1.39070	39.01
1.40737	39.02
1.42403	39.02
1.44070	39.02
1.45737	39.02
1.47403	39.02
1.49070	39.02
1.50737	39.02
1.52403	39.02
1.54070	39.02
1.55737	39.02
1.57403	39.01
1.59070	39.01
1.60737	39.01
1.62403	39.00
1.64070	38.99
1.65737	38.96
1.67403	38.93
1.69070	38.89
1.70737	38.86
1.72403	38.83
1.74070	38.79
1.75737	38.76
1.77403	38.74
1.79070	38.70
1.80737	38.67
1.82403	38.64
1.84070	38.60
1.85737	38.57
1.87403	38.55
1.89070	38.52
1.90737	38.48
1.92403	38.46
1.94070	38.42
1.95737	38.39
1.97403	38.37
1.99070	38.33
2.00737	38.31
2.02403	38.28
2.04070	38.24
2.05737	38.21
2.07403	38.19
2.09070	38.15
2.10737	38.12
2.12403	38.10
2.14070	38.06
2.15737	38.03
2.17403	38.00
2.19070	37.97
2.20737	37.94
2.22403	37.92
2.24070	37.88
2.25737	37.86
2.27403	37.83
2.29070	37.80
2.30737	37.77
2.32403	37.74
2.34070	37.71
2.35737	37.68
2.37403	37.66
2.39070	37.65
2.40737	37.66
2.42403	37.66
2.44070	37.66
2.45737	37.66
2.47403	37.66
2.49070	37.66
2.50737	37.65
2.52403	37.64
2.54070	37.65
2.55737	37.65
2.57403	37.65
2.59070	37.65
2.60737	37.65
2.62403	37.65
2.64070	37.65
2.65737	37.65
2.67403	37.65
2.69070	37.64
2.70737	37.65
2.72403	37.65
2.74070	37.65
2.75737	37.64
2.77403	37.64
2.79070	37.64
2.80737	37.65
2.82403	37.65
2.84070	37.65
2.85737	37.64
2.87403	37.64
2.89070	37.64
2.90737	37.64
2.92403	37.64
2.94070	37.64
2.95737	37.64
2.97403	37.64
2.99070	37.64
3.00737	37.64
3.02403	37.64
3.04070	37.63
3.05737	37.63
3.07403	37.63
3.09070	37.63
3.10737	37.63
3.12403	37.63
3.14070	37.63
3.15737	37.63
3.17403	37.63
3.19070	37.63
3.20737	37.63
3.22403	37.63
3.24070	37.63
3.25737	37.63
3.27403	37.62
3.29070	37.62
3.30737	37.62
3.32403	37.62
3.34070	37.62
3.35737	37.62
3.37403	37.62
3.39070	37.63
3.40737	37.63
3.42403	37.63
3.44070	37.63
3.45737	37.63
3.47403	37.63
3.49070	37.63
3.50737	37.63
3.52403	37.63
3.54070	37.63
3.55737	37.63
3.57403	37.63
3.59070	37.63
3.60737	37.63
3.62403	37.63
3.64070	37.63
3.65737	37.63
3.67403	37.63
3.69070	37.63
3.70737	37.63
3.72403	37.63
3.74070	37.63
3.75737	37.63
3.77403	37.63
3.79070	37.63
3.80737	37.63
3.82403	37.63
3.84070	37.63
3.85737	37.63
3.87403	37.63
3.89070	37.63
3.90737	37.63
3.92403	37.63
3.94070	37.63
3.95737	37.63
3.97403	37.63
3.99070	37.63

