[Header]
Application Name	LabSolutions
Version	5.110
Data File Name	C:\Users\User\Desktop\GC Analyses\Jack\Nachusa Grasslands Sampling\T2 Timepoint July 12th\T2_07122022_078.gcd
Output Date	3/14/2023
Output Time	3:42:35 PM

[File Information]
Type	Data File
Generated	3/10/2023 9:09:27 PM
Generated by	System Administrator
Modified	3/10/2023 9:16:02 PM
Modified by	System Administrator

[Sample Information]
Operator Name	System Administrator
Acquired	3/10/2023 9:12:01 PM
Sample Type	0:Unknown
Level	0
Sample Name	078
Sample ID	078
ISTD Amount1	1
ISTD Amount2	1
ISTD Amount3	1
ISTD Amount4	1
ISTD Amount5	1
ISTD Amount6	1
ISTD Amount7	1
ISTD Amount8	1
ISTD Amount9	1
ISTD Amount10	1
ISTD Amount11	1
ISTD Amount12	1
ISTD Amount13	1
ISTD Amount14	1
ISTD Amount15	1
ISTD Amount16	1
ISTD Amount17	1
ISTD Amount18	1
ISTD Amount19	1
ISTD Amount20	1
ISTD Amount21	1
ISTD Amount22	1
ISTD Amount23	1
ISTD Amount24	1
ISTD Amount25	1
ISTD Amount26	1
ISTD Amount27	1
ISTD Amount28	1
ISTD Amount29	1
ISTD Amount30	1
ISTD Amount31	1
ISTD Amount32	1
Sample Amount	1
Dilution Factor	1
Vial#	77
Injection Volume	1
Injection Count	1
Bar Code	

[Original Files]
Data File	C:\Users\User\Desktop\GC Analyses\Jack\Nachusa Grasslands Sampling\T1 Timepoint July 12th\T2_07122022_078.gcd
Method File	C:\LabSolutions\Data\GHG_4min_2022\ghg3_togas_w_acet_4 min_new_int.gcm
Batch File	C:\LabSolutions\Data\AutoSamplerTesting\T2_07122022.gcb
Report Format File	c:\LabSolutions\System\DEFAULT.lsr

[File Description]


[Configuration]
Instrument Name	C0B7VH3-Instrument1
Instrument #	1
Line #	1
# of Detectors	3
Detector ID	DET#1	DET#2	DET#3
Detector Name	FID	PTCD	ECD
# of Channels	1	1	1

[Peak Table(Ch1)]
# of Peaks	3
Peak#	R.Time	I.Time	F.Time	Area	Height	A/H	Conc.	Mark	ID#	Name	k'	Plate #	Plate Ht.	Tailing	Resolution	Sep.Factor	Area Ratio	Height Ratio	Conc. %	Norm Conc.
1	1.476	1.435	1.538	45640	22095	2.066	322.221	   	1	CO	0.000	9535	15.732	1.295	0.000	0.000	0	0	32.935	32.935
2	1.567	1.538	1.633	4865	2301	2.114	94.075	 V 	2	CH4	0.062	9651	15.542	0.000	1.475	0.000	0	0	9.616	9.616
3	1.996	1.949	2.634	2239498	1065078	2.103	562.053	   	3	CO2	0.353	17184	8.729	1.269	6.879	5.680	0	0	57.449	57.449

[Peak Table(Ch2)]
# of Peaks	0

[Peak Table(Ch3)]
# of Peaks	4
Peak#	R.Time	I.Time	F.Time	Area	Height	A/H	Conc.	Mark	ID#	Name	k'	Plate #	Plate Ht.	Tailing	Resolution	Sep.Factor	Area Ratio	Height Ratio	Conc. %	Norm Conc.
1	2.462	2.154	2.510	3192	745	4.282	0.000	   			0.000	9526	15.746	0.000	0.000	0.000	0	0	0.000	0.000
2	2.532	2.510	2.693	1736	365	4.760	0.000	 V 			0.028	4025	37.266	0.000	0.535	0.000	0	0	0.000	0.000
3	2.876	2.726	3.085	19040	4979	3.824	0.486	   	1	N2O	0.168	13171	11.388	1.606	2.653	5.947	0	0	100.000	100.000
4	3.496	3.419	3.540	46	12	3.805	0.000	   			0.420	18637	8.048	0.748	6.115	2.496	0	0	0.000	0.000

[Compound Results(Ch1)]
# of IDs	6
ID#	Name	R.Time	Area	Height	Conc.	Curve	3rd	2nd	1st	Constant	Area Ratio	Height Ratio	Conc. %	Norm Conc.
1	CO	1.476	45640	22095	322.221	Linear	0.000000e+00	0.000000e+00	1.416423e+002	0.000000e+00	0	0	32.935	32.935
2	CH4	1.567	4865	2301	94.075	Linear	0.000000e+00	0.000000e+00	5.171738e+001	0.000000e+00	0	0	9.616	9.616
3	CO2	1.996	2239498	1065078	562.053	Linear	0.000000e+00	0.000000e+00	3.984494e+003	0.000000e+00	0	0	57.449	57.449
4	Ethylene	0.000	0	0	0.000	Linear	0.000000e+00	0.000000e+00	0.000000e+00	0.000000e+00	0	0	0.000	0.000
5	Acetylene	0.000	0	0	0.000	Linear	0.000000e+00	0.000000e+00	0.000000e+00	0.000000e+00	0	0	0.000	0.000
6	Ethane	0.000	0	0	0.000	Linear	0.000000e+00	0.000000e+00	0.000000e+00	0.000000e+00	0	0	0.000	0.000

[Compound Results(Ch2)]
# of IDs	5
ID#	Name	R.Time	Area	Height	Conc.	Curve	3rd	2nd	1st	Constant	Area Ratio	Height Ratio	Conc. %	Norm Conc.
1	Hydrogen	0.000	0	0	0.000	Linear	0.000000e+00	0.000000e+00	0.000000e+00	0.000000e+00	0	0	0.000	0.000
2	Oxygen	0.000	0	0	0.000	Linear	0.000000e+00	0.000000e+00	0.000000e+00	0.000000e+00	0	0	0.000	0.000
3	Nitrogen	0.000	0	0	0.000	Linear	0.000000e+00	0.000000e+00	0.000000e+00	0.000000e+00	0	0	0.000	0.000
4	Methane	0.000	0	0	0.000	Linear	0.000000e+00	0.000000e+00	0.000000e+00	0.000000e+00	0	0	0.000	0.000
5	Carbon Monoxide	0.000	0	0	0.000	Linear	0.000000e+00	0.000000e+00	0.000000e+00	0.000000e+00	0	0	0.000	0.000

[Compound Results(Ch3)]
# of IDs	2
ID#	Name	R.Time	Area	Height	Conc.	Curve	3rd	2nd	1st	Constant	Area Ratio	Height Ratio	Conc. %	Norm Conc.
1	N2O	2.876	19040	4979	0.486	Linear	0.000000e+00	0.000000e+00	3.915173e+004	0.000000e+00	0	0	100.000	100.000
2	SF6	0.000	0	0	0.000	Linear	0.000000e+00	0.000000e+00	0.000000e+00	0.000000e+00	0	0	0.000	0.000

[Group Results(Ch1)]
# of Groups	0

[Group Results(Ch2)]
# of Groups	0

[Group Results(Ch3)]
# of Groups	0

[Chromatogram (Ch1)]
Interval(msec)	220
# of Points	1091
Start Time(min)	0.002
End Time(min)	3.998
R.Time (min)	Intensity
0.00167	14
0.00533	16
0.00900	17
0.01267	15
0.01633	17
0.02000	21
0.02367	24
0.02733	22
0.03100	19
0.03467	17
0.03833	12
0.04200	4
0.04567	-2
0.04933	-7
0.05300	-6
0.05667	-2
0.06033	4
0.06400	3
0.06767	-4
0.07133	-15
0.07500	-23
0.07867	-25
0.08233	-24
0.08600	-25
0.08967	-25
0.09333	-23
0.09700	-22
0.10067	-22
0.10433	-17
0.10800	-8
0.11167	-3
0.11533	0
0.11900	1
0.12267	0
0.12633	2
0.13000	8
0.13367	14
0.13733	11
0.14100	7
0.14467	3
0.14833	-1
0.15200	-5
0.15567	-8
0.15933	-8
0.16300	-3
0.16667	5
0.17033	15
0.17400	20
0.17767	20
0.18133	17
0.18500	13
0.18867	13
0.19233	12
0.19600	10
0.19967	9
0.20333	11
0.20700	17
0.21067	20
0.21433	17
0.21800	15
0.22167	15
0.22533	14
0.22900	11
0.23267	11
0.23633	15
0.24000	18
0.24367	20
0.24733	22
0.25100	22
0.25467	19
0.25833	16
0.26200	12
0.26567	1
0.26933	-12
0.27300	-21
0.27667	-24
0.28033	-21
0.28400	-18
0.28767	-13
0.29133	-6
0.29500	2
0.29867	8
0.30233	13
0.30600	15
0.30967	17
0.31333	19
0.31700	17
0.32067	13
0.32433	11
0.32800	11
0.33167	8
0.33533	2
0.33900	-1
0.34267	1
0.34633	2
0.35000	2
0.35367	4
0.35733	4
0.36100	8
0.36467	13
0.36833	22
0.37200	31
0.37567	34
0.37933	29
0.38300	20
0.38667	14
0.39033	9
0.39400	5
0.39767	4
0.40133	6
0.40500	8
0.40867	4
0.41233	-2
0.41600	-6
0.41967	-13
0.42333	-20
0.42700	-21
0.43067	-18
0.43433	-16
0.43800	-14
0.44167	-11
0.44533	-9
0.44900	-7
0.45267	-4
0.45633	3
0.46000	11
0.46367	15
0.46733	16
0.47100	20
0.47467	23
0.47833	24
0.48200	19
0.48567	11
0.48933	4
0.49300	-3
0.49667	-9
0.50033	-13
0.50400	-11
0.50767	-3
0.51133	5
0.51500	10
0.51867	7
0.52233	-0
0.52600	-6
0.52967	-7
0.53333	-7
0.53700	-3
0.54067	-1
0.54433	-4
0.54800	-11
0.55167	-13
0.55533	-12
0.55900	-11
0.56267	-5
0.56633	3
0.57000	7
0.57367	7
0.57733	9
0.58100	12
0.58467	16
0.58833	21
0.59200	23
0.59567	24
0.59933	23
0.60300	17
0.60667	11
0.61033	3
0.61400	-3
0.61767	-4
0.62133	-2
0.62500	1
0.62867	0
0.63233	-5
0.63600	-6
0.63967	-3
0.64333	-1
0.64700	-2
0.65067	-5
0.65433	-10
0.65800	-14
0.66167	-20
0.66533	-26
0.66900	-29
0.67267	-30
0.67633	-30
0.68000	-26
0.68367	-18
0.68733	-8
0.69100	4
0.69467	11
0.69833	15
0.70200	16
0.70567	9
0.70933	-5
0.71300	-16
0.71667	-21
0.72033	-24
0.72400	-23
0.72767	-17
0.73133	-16
0.73500	-16
0.73867	-19
0.74233	-18
0.74600	-12
0.74967	-3
0.75333	5
0.75700	9
0.76067	7
0.76433	3
0.76800	-4
0.77167	-12
0.77533	-18
0.77900	-22
0.78267	-20
0.78633	-15
0.79000	-10
0.79367	-6
0.79733	-3
0.80100	-2
0.80467	1
0.80833	4
0.81200	7
0.81567	7
0.81933	4
0.82300	1
0.82667	-3
0.83033	-6
0.83400	-10
0.83767	-16
0.84133	-19
0.84500	-18
0.84867	-16
0.85233	-16
0.85600	-21
0.85967	-25
0.86333	-21
0.86700	-12
0.87067	-7
0.87433	-7
0.87800	-9
0.88167	-8
0.88533	-4
0.88900	2
0.89267	9
0.89633	15
0.90000	18
0.90367	19
0.90733	19
0.91100	18
0.91467	11
0.91833	-4
0.92200	-25
0.92567	-39
0.92933	-44
0.93300	-46
0.93667	-47
0.94033	-48
0.94400	-50
0.94767	-50
0.95133	-48
0.95500	-42
0.95867	-37
0.96233	-35
0.96600	-36
0.96967	-39
0.97333	-38
0.97700	-34
0.98067	-28
0.98433	-22
0.98800	-15
0.99167	-15
0.99533	-24
0.99900	-33
1.00267	-39
1.00633	-38
1.01000	-31
1.01367	-20
1.01733	-13
1.02100	-14
1.02467	-18
1.02833	-20
1.03200	-18
1.03567	-9
1.03933	-4
1.04300	-3
1.04667	-3
1.05033	0
1.05400	7
1.05767	12
1.06133	13
1.06500	14
1.06867	14
1.07233	9
1.07600	6
1.07967	10
1.08333	15
1.08700	15
1.09067	9
1.09433	3
1.09800	-3
1.10167	-4
1.10533	1
1.10900	3
1.11267	2
1.11633	4
1.12000	6
1.12367	9
1.12733	10
1.13100	8
1.13467	3
1.13833	-1
1.14200	-2
1.14567	1
1.14933	6
1.15300	10
1.15667	13
1.16033	11
1.16400	6
1.16767	4
1.17133	2
1.17500	3
1.17867	10
1.18233	19
1.18600	28
1.18967	33
1.19333	31
1.19700	26
1.20067	22
1.20433	17
1.20800	9
1.21167	3
1.21533	-1
1.21900	-0
1.22267	3
1.22633	5
1.23000	10
1.23367	14
1.23733	14
1.24100	8
1.24467	-2
1.24833	-11
1.25200	-15
1.25567	-14
1.25933	-18
1.26300	-26
1.26667	-27
1.27033	-25
1.27400	-23
1.27767	-21
1.28133	-17
1.28500	-10
1.28867	1
1.29233	9
1.29600	12
1.29967	10
1.30333	7
1.30700	5
1.31067	5
1.31433	5
1.31800	0
1.32167	-6
1.32533	-12
1.32900	-16
1.33267	-16
1.33633	-19
1.34000	-21
1.34367	-18
1.34733	-10
1.35100	3
1.35467	9
1.35833	7
1.36200	1
1.36567	0
1.36933	2
1.37300	2
1.37667	1
1.38033	-1
1.38400	-2
1.38767	-1
1.39133	0
1.39500	1
1.39867	0
1.40233	-2
1.40600	-3
1.40967	-3
1.41333	-4
1.41700	-6
1.42067	-8
1.42433	-11
1.42800	-15
1.43167	-16
1.43533	-12
1.43900	15
1.44267	129
1.44633	449
1.45000	1428
1.45367	3791
1.45733	7577
1.46100	11957
1.46467	16024
1.46833	19244
1.47200	21344
1.47567	22095
1.47933	21335
1.48300	19171
1.48667	16074
1.49033	12691
1.49400	9563
1.49767	6976
1.50133	4991
1.50500	3545
1.50867	2529
1.51233	1827
1.51600	1340
1.51967	1002
1.52333	768
1.52700	605
1.53067	489
1.53433	412
1.53800	376
1.54167	416
1.54533	593
1.54900	919
1.55267	1326
1.55633	1719
1.56000	2035
1.56367	2245
1.56733	2330
1.57100	2261
1.57467	2034
1.57833	1700
1.58200	1339
1.58567	1010
1.58933	736
1.59300	526
1.59667	378
1.60033	274
1.60400	205
1.60767	162
1.61133	135
1.61500	117
1.61867	102
1.62233	88
1.62600	74
1.62967	60
1.63333	49
1.63700	44
1.64067	41
1.64433	44
1.64800	52
1.65167	54
1.65533	50
1.65900	46
1.66267	40
1.66633	34
1.67000	28
1.67367	26
1.67733	27
1.68100	29
1.68467	31
1.68833	29
1.69200	25
1.69567	23
1.69933	24
1.70300	26
1.70667	28
1.71033	25
1.71400	18
1.71767	18
1.72133	20
1.72500	24
1.72867	24
1.73233	23
1.73600	21
1.73967	23
1.74333	30
1.74700	39
1.75067	49
1.75433	48
1.75800	41
1.76167	33
1.76533	24
1.76900	16
1.77267	9
1.77633	5
1.78000	4
1.78367	5
1.78733	1
1.79100	-5
1.79467	-9
1.79833	-11
1.80200	-12
1.80567	-12
1.80933	-11
1.81300	-10
1.81667	-11
1.82033	-12
1.82400	-9
1.82767	-5
1.83133	3
1.83500	7
1.83867	5
1.84233	0
1.84600	1
1.84967	4
1.85333	7
1.85700	8
1.86067	12
1.86433	18
1.86800	20
1.87167	25
1.87533	32
1.87900	33
1.88267	28
1.88633	23
1.89000	17
1.89367	10
1.89733	6
1.90100	8
1.90467	12
1.90833	17
1.91200	22
1.91567	28
1.91933	32
1.92300	36
1.92667	43
1.93033	48
1.93400	49
1.93767	49
1.94133	45
1.94500	41
1.94867	42
1.95233	71
1.95600	287
1.95967	1557
1.96333	7271
1.96700	26631
1.97067	76875
1.97433	177701
1.97800	335775
1.98167	533510
1.98533	735933
1.98900	907689
1.99267	1022532
1.99633	1065149
2.00000	1032287
2.00367	934096
2.00733	792514
2.01100	634400
2.01467	483399
2.01833	354425
2.02200	252925
2.02567	177634
2.02933	124048
2.03300	86952
2.03667	61701
2.04033	44651
2.04400	33141
2.04767	25325
2.05133	19951
2.05500	16194
2.05867	13508
2.06233	11540
2.06600	10060
2.06967	8918
2.07333	8015
2.07700	7287
2.08067	6686
2.08433	6178
2.08800	5738
2.09167	5352
2.09533	5013
2.09900	4716
2.10267	4454
2.10633	4222
2.11000	4013
2.11367	3822
2.11733	3650
2.12100	3496
2.12467	3351
2.12833	3212
2.13200	3081
2.13567	2960
2.13933	2849
2.14300	2741
2.14667	2641
2.15033	2548
2.15400	2459
2.15767	2378
2.16133	2306
2.16500	2239
2.16867	2171
2.17233	2105
2.17600	2044
2.17967	1988
2.18333	1934
2.18700	1885
2.19067	1838
2.19433	1791
2.19800	1745
2.20167	1703
2.20533	1662
2.20900	1622
2.21267	1585
2.21633	1548
2.22000	1514
2.22367	1479
2.22733	1446
2.23100	1418
2.23467	1389
2.23833	1359
2.24200	1328
2.24567	1300
2.24933	1274
2.25300	1251
2.25667	1229
2.26033	1203
2.26400	1179
2.26767	1155
2.27133	1133
2.27500	1112
2.27867	1095
2.28233	1082
2.28600	1073
2.28967	1063
2.29333	1050
2.29700	1035
2.30067	1016
2.30433	995
2.30800	976
2.31167	960
2.31533	945
2.31900	929
2.32267	912
2.32633	896
2.33000	884
2.33367	876
2.33733	870
2.34100	861
2.34467	856
2.34833	855
2.35200	848
2.35567	837
2.35933	825
2.36300	813
2.36667	802
2.37033	793
2.37400	787
2.37767	781
2.38133	773
2.38500	765
2.38867	758
2.39233	747
2.39600	732
2.39967	719
2.40333	710
2.40700	711
2.41067	716
2.41433	717
2.41800	713
2.42167	707
2.42533	702
2.42900	702
2.43267	701
2.43633	697
2.44000	686
2.44367	670
2.44733	658
2.45100	647
2.45467	636
2.45833	623
2.46200	614
2.46567	607
2.46933	604
2.47300	604
2.47667	603
2.48033	598
2.48400	588
2.48767	579
2.49133	576
2.49500	579
2.49867	582
2.50233	583
2.50600	584
2.50967	583
2.51333	577
2.51700	567
2.52067	561
2.52433	561
2.52800	564
2.53167	564
2.53533	564
2.53900	563
2.54267	559
2.54633	553
2.55000	542
2.55367	529
2.55733	519
2.56100	514
2.56467	514
2.56833	518
2.57200	520
2.57567	518
2.57933	516
2.58300	515
2.58667	509
2.59033	502
2.59400	502
2.59767	512
2.60133	517
2.60500	514
2.60867	503
2.61233	489
2.61600	479
2.61967	476
2.62333	476
2.62700	474
2.63067	472
2.63433	471
2.63800	471
2.64167	475
2.64533	478
2.64900	474
2.65267	470
2.65633	467
2.66000	464
2.66367	465
2.66733	469
2.67100	472
2.67467	473
2.67833	469
2.68200	462
2.68567	455
2.68933	453
2.69300	450
2.69667	447
2.70033	443
2.70400	441
2.70767	440
2.71133	436
2.71500	430
2.71867	428
2.72233	428
2.72600	426
2.72967	425
2.73333	428
2.73700	434
2.74067	436
2.74433	430
2.74800	424
2.75167	423
2.75533	425
2.75900	429
2.76267	434
2.76633	432
2.77000	425
2.77367	421
2.77733	421
2.78100	422
2.78467	428
2.78833	433
2.79200	435
2.79567	435
2.79933	436
2.80300	434
2.80667	430
2.81033	422
2.81400	413
2.81767	409
2.82133	408
2.82500	408
2.82867	410
2.83233	415
2.83600	423
2.83967	427
2.84333	427
2.84700	422
2.85067	413
2.85433	403
2.85800	397
2.86167	395
2.86533	394
2.86900	393
2.87267	392
2.87633	396
2.88000	405
2.88367	412
2.88733	413
2.89100	413
2.89467	412
2.89833	410
2.90200	405
2.90567	401
2.90933	397
2.91300	393
2.91667	389
2.92033	389
2.92400	391
2.92767	394
2.93133	398
2.93500	403
2.93867	401
2.94233	398
2.94600	400
2.94967	404
2.95333	408
2.95700	408
2.96067	404
2.96433	397
2.96800	393
2.97167	392
2.97533	391
2.97900	388
2.98267	387
2.98633	388
2.99000	385
2.99367	382
2.99733	385
3.00100	388
3.00467	387
3.00833	386
3.01200	385
3.01567	383
3.01933	382
3.02300	381
3.02667	377
3.03033	374
3.03400	375
3.03767	381
3.04133	384
3.04500	386
3.04867	387
3.05233	387
3.05600	382
3.05967	377
3.06333	375
3.06700	372
3.07067	373
3.07433	376
3.07800	374
3.08167	368
3.08533	364
3.08900	360
3.09267	359
3.09633	361
3.10000	361
3.10367	357
3.10733	357
3.11100	360
3.11467	365
3.11833	368
3.12200	365
3.12567	354
3.12933	344
3.13300	340
3.13667	339
3.14033	338
3.14400	338
3.14767	340
3.15133	342
3.15500	346
3.15867	352
3.16233	351
3.16600	345
3.16967	339
3.17333	338
3.17700	338
3.18067	334
3.18433	327
3.18800	325
3.19167	326
3.19533	328
3.19900	331
3.20267	338
3.20633	341
3.21000	339
3.21367	336
3.21733	335
3.22100	332
3.22467	329
3.22833	327
3.23200	328
3.23567	331
3.23933	335
3.24300	337
3.24667	336
3.25033	332
3.25400	328
3.25767	327
3.26133	321
3.26500	312
3.26867	306
3.27233	307
3.27600	309
3.27967	310
3.28333	314
3.28700	319
3.29067	322
3.29433	322
3.29800	322
3.30167	322
3.30533	320
3.30900	317
3.31267	316
3.31633	317
3.32000	316
3.32367	310
3.32733	302
3.33100	300
3.33467	299
3.33833	296
3.34200	290
3.34567	288
3.34933	291
3.35300	297
3.35667	299
3.36033	295
3.36400	288
3.36767	282
3.37133	277
3.37500	275
3.37867	279
3.38233	281
3.38600	282
3.38967	282
3.39333	280
3.39700	282
3.40067	286
3.40433	291
3.40800	293
3.41167	291
3.41533	290
3.41900	294
3.42267	294
3.42633	283
3.43000	267
3.43367	253
3.43733	250
3.44100	254
3.44467	253
3.44833	252
3.45200	251
3.45567	253
3.45933	255
3.46300	255
3.46667	254
3.47033	252
3.47400	249
3.47767	248
3.48133	248
3.48500	253
3.48867	260
3.49233	267
3.49600	277
3.49967	280
3.50333	278
3.50700	278
3.51067	278
3.51433	283
3.51800	289
3.52167	292
3.52533	291
3.52900	281
3.53267	268
3.53633	258
3.54000	250
3.54367	246
3.54733	247
3.55100	247
3.55467	247
3.55833	249
3.56200	252
3.56567	255
3.56933	259
3.57300	266
3.57667	273
3.58033	283
3.58400	290
3.58767	285
3.59133	271
3.59500	259
3.59867	250
3.60233	244
3.60600	242
3.60967	242
3.61333	240
3.61700	237
3.62067	236
3.62433	240
3.62800	241
3.63167	236
3.63533	230
3.63900	228
3.64267	231
3.64633	238
3.65000	239
3.65367	235
3.65733	232
3.66100	231
3.66467	232
3.66833	233
3.67200	231
3.67567	232
3.67933	239
3.68300	247
3.68667	253
3.69033	256
3.69400	253
3.69767	246
3.70133	239
3.70500	235
3.70867	235
3.71233	229
3.71600	222
3.71967	219
3.72333	216
3.72700	214
3.73067	209
3.73433	210
3.73800	215
3.74167	218
3.74533	222
3.74900	225
3.75267	222
3.75633	212
3.76000	206
3.76367	204
3.76733	208
3.77100	215
3.77467	221
3.77833	224
3.78200	227
3.78567	231
3.78933	239
3.79300	245
3.79667	247
3.80033	244
3.80400	238
3.80767	230
3.81133	222
3.81500	212
3.81867	204
3.82233	204
3.82600	207
3.82967	207
3.83333	206
3.83700	205
3.84067	204
3.84433	208
3.84800	216
3.85167	223
3.85533	225
3.85900	224
3.86267	222
3.86633	214
3.87000	202
3.87367	193
3.87733	188
3.88100	186
3.88467	189
3.88833	195
3.89200	197
3.89567	197
3.89933	197
3.90300	197
3.90667	199
3.91033	208
3.91400	214
3.91767	213
3.92133	209
3.92500	206
3.92867	205
3.93233	206
3.93600	208
3.93967	205
3.94333	201
3.94700	200
3.95067	200
3.95433	200
3.95800	202
3.96167	207
3.96533	212
3.96900	213
3.97267	209
3.97633	203
3.98000	194
3.98367	184
3.98733	175
3.99100	167
3.99467	168
3.99833	171

[Chromatogram (Ch2)]
Interval(msec)	220
# of Points	1091
Start Time(min)	0.002
End Time(min)	3.998
R.Time (min)	Intensity
0.00167	0
0.00533	1
0.00900	1
0.01267	1
0.01633	1
0.02000	1
0.02367	1
0.02733	1
0.03100	1
0.03467	0
0.03833	0
0.04200	0
0.04567	0
0.04933	0
0.05300	1
0.05667	1
0.06033	1
0.06400	1
0.06767	0
0.07133	0
0.07500	-0
0.07867	-0
0.08233	-0
0.08600	0
0.08967	0
0.09333	1
0.09700	1
0.10067	2
0.10433	2
0.10800	3
0.11167	3
0.11533	4
0.11900	4
0.12267	4
0.12633	4
0.13000	4
0.13367	4
0.13733	4
0.14100	3
0.14467	3
0.14833	3
0.15200	3
0.15567	3
0.15933	3
0.16300	3
0.16667	3
0.17033	3
0.17400	3
0.17767	3
0.18133	3
0.18500	3
0.18867	3
0.19233	3
0.19600	3
0.19967	3
0.20333	3
0.20700	3
0.21067	2
0.21433	2
0.21800	2
0.22167	2
0.22533	1
0.22900	1
0.23267	1
0.23633	1
0.24000	1
0.24367	1
0.24733	2
0.25100	2
0.25467	2
0.25833	2
0.26200	2
0.26567	2
0.26933	2
0.27300	2
0.27667	2
0.28033	3
0.28400	3
0.28767	3
0.29133	3
0.29500	4
0.29867	4
0.30233	4
0.30600	4
0.30967	4
0.31333	4
0.31700	4
0.32067	4
0.32433	3
0.32800	3
0.33167	2
0.33533	2
0.33900	1
0.34267	0
0.34633	-0
0.35000	-0
0.35367	-1
0.35733	-1
0.36100	-1
0.36467	-1
0.36833	-1
0.37200	-1
0.37567	-1
0.37933	-1
0.38300	-1
0.38667	-1
0.39033	-0
0.39400	-1
0.39767	-1
0.40133	-1
0.40500	-1
0.40867	-0
0.41233	0
0.41600	0
0.41967	1
0.42333	1
0.42700	1
0.43067	1
0.43433	2
0.43800	2
0.44167	2
0.44533	2
0.44900	2
0.45267	2
0.45633	2
0.46000	2
0.46367	2
0.46733	3
0.47100	3
0.47467	3
0.47833	4
0.48200	4
0.48567	4
0.48933	4
0.49300	4
0.49667	4
0.50033	4
0.50400	4
0.50767	4
0.51133	4
0.51500	5
0.51867	5
0.52233	5
0.52600	5
0.52967	6
0.53333	5
0.53700	5
0.54067	5
0.54433	4
0.54800	3
0.55167	2
0.55533	2
0.55900	1
0.56267	1
0.56633	0
0.57000	0
0.57367	-0
0.57733	-0
0.58100	-0
0.58467	-1
0.58833	-1
0.59200	-1
0.59567	-1
0.59933	-1
0.60300	-0
0.60667	-0
0.61033	0
0.61400	1
0.61767	2
0.62133	2
0.62500	2
0.62867	2
0.63233	3
0.63600	3
0.63967	3
0.64333	3
0.64700	3
0.65067	3
0.65433	3
0.65800	3
0.66167	3
0.66533	3
0.66900	3
0.67267	3
0.67633	3
0.68000	3
0.68367	2
0.68733	2
0.69100	2
0.69467	1
0.69833	1
0.70200	1
0.70567	1
0.70933	1
0.71300	2
0.71667	2
0.72033	2
0.72400	2
0.72767	3
0.73133	3
0.73500	3
0.73867	4
0.74233	4
0.74600	4
0.74967	4
0.75333	3
0.75700	3
0.76067	3
0.76433	3
0.76800	3
0.77167	3
0.77533	3
0.77900	2
0.78267	2
0.78633	2
0.79000	2
0.79367	2
0.79733	2
0.80100	2
0.80467	2
0.80833	2
0.81200	2
0.81567	2
0.81933	2
0.82300	2
0.82667	2
0.83033	2
0.83400	2
0.83767	2
0.84133	2
0.84500	2
0.84867	2
0.85233	1
0.85600	0
0.85967	-0
0.86333	-1
0.86700	-2
0.87067	-2
0.87433	-3
0.87800	-3
0.88167	-4
0.88533	-4
0.88900	-5
0.89267	-5
0.89633	-5
0.90000	-6
0.90367	-6
0.90733	-5
0.91100	-5
0.91467	-5
0.91833	-4
0.92200	-4
0.92567	-3
0.92933	-2
0.93300	-2
0.93667	-2
0.94033	-1
0.94400	-1
0.94767	-1
0.95133	-1
0.95500	-1
0.95867	-1
0.96233	-1
0.96600	-1
0.96967	-1
0.97333	-1
0.97700	-0
0.98067	0
0.98433	1
0.98800	1
0.99167	2
0.99533	2
0.99900	3
1.00267	3
1.00633	4
1.01000	4
1.01367	4
1.01733	4
1.02100	4
1.02467	4
1.02833	4
1.03200	4
1.03567	4
1.03933	4
1.04300	4
1.04667	4
1.05033	4
1.05400	4
1.05767	4
1.06133	4
1.06500	4
1.06867	4
1.07233	5
1.07600	4
1.07967	4
1.08333	4
1.08700	3
1.09067	3
1.09433	2
1.09800	2
1.10167	1
1.10533	1
1.10900	0
1.11267	-0
1.11633	-1
1.12000	-1
1.12367	-2
1.12733	-2
1.13100	-2
1.13467	-2
1.13833	-1
1.14200	-1
1.14567	-1
1.14933	-1
1.15300	-1
1.15667	-1
1.16033	-1
1.16400	-0
1.16767	-0
1.17133	-0
1.17500	-1
1.17867	-1
1.18233	-1
1.18600	-1
1.18967	-2
1.19333	-2
1.19700	-2
1.20067	-2
1.20433	-2
1.20800	-2
1.21167	-2
1.21533	-3
1.21900	-3
1.22267	-3
1.22633	-3
1.23000	-3
1.23367	-3
1.23733	-3
1.24100	-3
1.24467	-3
1.24833	-2
1.25200	-2
1.25567	-2
1.25933	-1
1.26300	-1
1.26667	-1
1.27033	-0
1.27400	-0
1.27767	0
1.28133	0
1.28500	-0
1.28867	-0
1.29233	-1
1.29600	-1
1.29967	-1
1.30333	-1
1.30700	-1
1.31067	-1
1.31433	-1
1.31800	-2
1.32167	-2
1.32533	-2
1.32900	-1
1.33267	-1
1.33633	-1
1.34000	0
1.34367	1
1.34733	1
1.35100	1
1.35467	2
1.35833	2
1.36200	2
1.36567	2
1.36933	2
1.37300	2
1.37667	2
1.38033	2
1.38400	2
1.38767	2
1.39133	2
1.39500	2
1.39867	1
1.40233	1
1.40600	0
1.40967	-1
1.41333	-1
1.41700	-2
1.42067	-2
1.42433	-2
1.42800	-2
1.43167	-2
1.43533	-2
1.43900	-2
1.44267	-2
1.44633	-1
1.45000	-1
1.45367	-1
1.45733	-0
1.46100	0
1.46467	1
1.46833	1
1.47200	2
1.47567	2
1.47933	2
1.48300	2
1.48667	2
1.49033	2
1.49400	2
1.49767	1
1.50133	1
1.50500	1
1.50867	1
1.51233	1
1.51600	1
1.51967	1
1.52333	1
1.52700	1
1.53067	1
1.53433	1
1.53800	0
1.54167	-0
1.54533	-0
1.54900	-1
1.55267	-1
1.55633	-0
1.56000	-0
1.56367	0
1.56733	0
1.57100	-0
1.57467	-0
1.57833	-0
1.58200	-0
1.58567	-0
1.58933	-0
1.59300	-0
1.59667	-1
1.60033	-2
1.60400	-3
1.60767	-4
1.61133	-6
1.61500	-8
1.61867	-10
1.62233	-13
1.62600	-16
1.62967	-18
1.63333	-22
1.63700	-25
1.64067	-28
1.64433	-31
1.64800	-35
1.65167	-38
1.65533	-42
1.65900	-45
1.66267	-50
1.66633	-54
1.67000	-59
1.67367	-65
1.67733	-71
1.68100	-77
1.68467	-82
1.68833	-87
1.69200	-91
1.69567	-95
1.69933	-98
1.70300	-101
1.70667	-103
1.71033	-104
1.71400	-105
1.71767	-106
1.72133	-106
1.72500	-106
1.72867	-106
1.73233	-106
1.73600	-105
1.73967	-105
1.74333	-104
1.74700	-104
1.75067	-104
1.75433	-103
1.75800	-103
1.76167	-103
1.76533	-103
1.76900	-104
1.77267	-105
1.77633	-106
1.78000	-107
1.78367	-108
1.78733	-109
1.79100	-110
1.79467	-111
1.79833	-111
1.80200	-112
1.80567	-113
1.80933	-113
1.81300	-113
1.81667	-113
1.82033	-113
1.82400	-113
1.82767	-112
1.83133	-112
1.83500	-112
1.83867	-112
1.84233	-112
1.84600	-112
1.84967	-112
1.85333	-112
1.85700	-113
1.86067	-113
1.86433	-114
1.86800	-114
1.87167	-113
1.87533	-113
1.87900	-112
1.88267	-110
1.88633	-109
1.89000	-108
1.89367	-107
1.89733	-107
1.90100	-107
1.90467	-107
1.90833	-107
1.91200	-108
1.91567	-108
1.91933	-108
1.92300	-108
1.92667	-108
1.93033	-108
1.93400	-109
1.93767	-109
1.94133	-109
1.94500	-109
1.94867	-109
1.95233	-109
1.95600	-108
1.95967	-108
1.96333	-107
1.96700	-107
1.97067	-106
1.97433	-106
1.97800	-106
1.98167	-106
1.98533	-106
1.98900	-105
1.99267	-105
1.99633	-104
2.00000	-104
2.00367	-104
2.00733	-104
2.01100	-104
2.01467	-105
2.01833	-105
2.02200	-104
2.02567	-104
2.02933	-103
2.03300	-102
2.03667	-102
2.04033	-101
2.04400	-101
2.04767	-101
2.05133	-100
2.05500	-100
2.05867	-100
2.06233	-99
2.06600	-99
2.06967	-98
2.07333	-97
2.07700	-97
2.08067	-97
2.08433	-97
2.08800	-96
2.09167	-96
2.09533	-96
2.09900	-96
2.10267	-95
2.10633	-95
2.11000	-95
2.11367	-95
2.11733	-95
2.12100	-95
2.12467	-95
2.12833	-95
2.13200	-96
2.13567	-96
2.13933	-95
2.14300	-95
2.14667	-94
2.15033	-93
2.15400	-93
2.15767	-92
2.16133	-92
2.16500	-91
2.16867	-91
2.17233	-90
2.17600	-90
2.17967	-90
2.18333	-89
2.18700	-89
2.19067	-89
2.19433	-88
2.19800	-88
2.20167	-88
2.20533	-87
2.20900	-87
2.21267	-87
2.21633	-87
2.22000	-86
2.22367	-86
2.22733	-85
2.23100	-85
2.23467	-84
2.23833	-84
2.24200	-83
2.24567	-83
2.24933	-84
2.25300	-84
2.25667	-84
2.26033	-84
2.26400	-84
2.26767	-83
2.27133	-83
2.27500	-83
2.27867	-82
2.28233	-82
2.28600	-82
2.28967	-82
2.29333	-81
2.29700	-81
2.30067	-81
2.30433	-80
2.30800	-80
2.31167	-79
2.31533	-79
2.31900	-78
2.32267	-78
2.32633	-77
2.33000	-76
2.33367	-76
2.33733	-75
2.34100	-75
2.34467	-75
2.34833	-74
2.35200	-74
2.35567	-73
2.35933	-73
2.36300	-72
2.36667	-71
2.37033	-69
2.37400	-67
2.37767	-64
2.38133	-61
2.38500	-57
2.38867	-52
2.39233	-48
2.39600	-44
2.39967	-39
2.40333	-35
2.40700	-31
2.41067	-26
2.41433	-22
2.41800	-19
2.42167	-16
2.42533	-14
2.42900	-13
2.43267	-12
2.43633	-10
2.44000	-9
2.44367	-8
2.44733	-7
2.45100	-6
2.45467	-5
2.45833	-4
2.46200	-3
2.46567	-2
2.46933	-1
2.47300	0
2.47667	1
2.48033	2
2.48400	3
2.48767	4
2.49133	5
2.49500	6
2.49867	7
2.50233	8
2.50600	9
2.50967	10
2.51333	10
2.51700	10
2.52067	10
2.52433	10
2.52800	11
2.53167	12
2.53533	12
2.53900	13
2.54267	14
2.54633	14
2.55000	14
2.55367	15
2.55733	15
2.56100	15
2.56467	16
2.56833	17
2.57200	18
2.57567	18
2.57933	18
2.58300	18
2.58667	18
2.59033	18
2.59400	17
2.59767	16
2.60133	16
2.60500	15
2.60867	15
2.61233	15
2.61600	15
2.61967	15
2.62333	16
2.62700	16
2.63067	17
2.63433	17
2.63800	18
2.64167	18
2.64533	18
2.64900	19
2.65267	19
2.65633	20
2.66000	20
2.66367	20
2.66733	21
2.67100	21
2.67467	21
2.67833	22
2.68200	22
2.68567	23
2.68933	23
2.69300	24
2.69667	24
2.70033	25
2.70400	25
2.70767	26
2.71133	26
2.71500	26
2.71867	26
2.72233	25
2.72600	25
2.72967	25
2.73333	25
2.73700	26
2.74067	26
2.74433	26
2.74800	27
2.75167	27
2.75533	28
2.75900	28
2.76267	29
2.76633	29
2.77000	30
2.77367	30
2.77733	30
2.78100	30
2.78467	30
2.78833	29
2.79200	28
2.79567	28
2.79933	27
2.80300	27
2.80667	27
2.81033	26
2.81400	26
2.81767	26
2.82133	26
2.82500	26
2.82867	27
2.83233	27
2.83600	27
2.83967	26
2.84333	24
2.84700	21
2.85067	15
2.85433	6
2.85800	-6
2.86167	-21
2.86533	-42
2.86900	-66
2.87267	-94
2.87633	-127
2.88000	-164
2.88367	-205
2.88733	-250
2.89100	-297
2.89467	-347
2.89833	-398
2.90200	-452
2.90567	-506
2.90933	-560
2.91300	-614
2.91667	-669
2.92033	-722
2.92400	-774
2.92767	-824
2.93133	-876
2.93500	-931
2.93867	-990
2.94233	-1043
2.94600	-1080
2.94967	-1093
2.95333	-1080
2.95700	-1043
2.96067	-987
2.96433	-917
2.96800	-841
2.97167	-760
2.97533	-681
2.97900	-604
2.98267	-531
2.98633	-464
2.99000	-403
2.99367	-348
2.99733	-299
3.00100	-256
3.00467	-219
3.00833	-186
3.01200	-157
3.01567	-133
3.01933	-111
3.02300	-92
3.02667	-77
3.03033	-63
3.03400	-51
3.03767	-41
3.04133	-33
3.04500	-26
3.04867	-19
3.05233	-14
3.05600	-10
3.05967	-6
3.06333	-3
3.06700	0
3.07067	3
3.07433	5
3.07800	6
3.08167	8
3.08533	9
3.08900	10
3.09267	11
3.09633	12
3.10000	13
3.10367	14
3.10733	14
3.11100	15
3.11467	16
3.11833	16
3.12200	16
3.12567	17
3.12933	17
3.13300	17
3.13667	18
3.14033	18
3.14400	17
3.14767	17
3.15133	18
3.15500	18
3.15867	18
3.16233	19
3.16600	19
3.16967	20
3.17333	21
3.17700	21
3.18067	22
3.18433	22
3.18800	23
3.19167	23
3.19533	24
3.19900	24
3.20267	25
3.20633	25
3.21000	26
3.21367	26
3.21733	27
3.22100	28
3.22467	28
3.22833	29
3.23200	29
3.23567	29
3.23933	30
3.24300	30
3.24667	30
3.25033	30
3.25400	30
3.25767	30
3.26133	31
3.26500	31
3.26867	31
3.27233	31
3.27600	31
3.27967	31
3.28333	30
3.28700	30
3.29067	30
3.29433	30
3.29800	29
3.30167	29
3.30533	29
3.30900	29
3.31267	29
3.31633	29
3.32000	29
3.32367	28
3.32733	28
3.33100	28
3.33467	28
3.33833	28
3.34200	28
3.34567	28
3.34933	27
3.35300	27
3.35667	27
3.36033	27
3.36400	27
3.36767	27
3.37133	27
3.37500	27
3.37867	27
3.38233	28
3.38600	28
3.38967	28
3.39333	28
3.39700	28
3.40067	29
3.40433	29
3.40800	30
3.41167	30
3.41533	30
3.41900	30
3.42267	30
3.42633	30
3.43000	30
3.43367	30
3.43733	30
3.44100	30
3.44467	30
3.44833	30
3.45200	30
3.45567	30
3.45933	30
3.46300	30
3.46667	30
3.47033	30
3.47400	30
3.47767	30
3.48133	29
3.48500	29
3.48867	29
3.49233	28
3.49600	28
3.49967	28
3.50333	27
3.50700	27
3.51067	27
3.51433	27
3.51800	27
3.52167	27
3.52533	27
3.52900	28
3.53267	28
3.53633	28
3.54000	28
3.54367	28
3.54733	28
3.55100	28
3.55467	28
3.55833	28
3.56200	28
3.56567	28
3.56933	28
3.57300	28
3.57667	28
3.58033	28
3.58400	28
3.58767	28
3.59133	28
3.59500	28
3.59867	28
3.60233	28
3.60600	28
3.60967	28
3.61333	28
3.61700	28
3.62067	28
3.62433	28
3.62800	29
3.63167	29
3.63533	29
3.63900	29
3.64267	29
3.64633	29
3.65000	29
3.65367	29
3.65733	29
3.66100	28
3.66467	28
3.66833	29
3.67200	29
3.67567	29
3.67933	29
3.68300	29
3.68667	30
3.69033	30
3.69400	30
3.69767	30
3.70133	30
3.70500	31
3.70867	31
3.71233	31
3.71600	31
3.71967	31
3.72333	31
3.72700	30
3.73067	30
3.73433	30
3.73800	29
3.74167	29
3.74533	29
3.74900	29
3.75267	28
3.75633	28
3.76000	28
3.76367	28
3.76733	28
3.77100	28
3.77467	28
3.77833	28
3.78200	29
3.78567	29
3.78933	29
3.79300	29
3.79667	29
3.80033	30
3.80400	30
3.80767	30
3.81133	30
3.81500	30
3.81867	30
3.82233	30
3.82600	30
3.82967	30
3.83333	30
3.83700	30
3.84067	30
3.84433	30
3.84800	30
3.85167	29
3.85533	29
3.85900	29
3.86267	29
3.86633	28
3.87000	28
3.87367	28
3.87733	28
3.88100	27
3.88467	27
3.88833	27
3.89200	28
3.89567	28
3.89933	27
3.90300	27
3.90667	27
3.91033	27
3.91400	27
3.91767	27
3.92133	27
3.92500	27
3.92867	27
3.93233	27
3.93600	27
3.93967	27
3.94333	27
3.94700	27
3.95067	27
3.95433	27
3.95800	27
3.96167	28
3.96533	28
3.96900	28
3.97267	29
3.97633	29
3.98000	29
3.98367	30
3.98733	30
3.99100	30
3.99467	30
3.99833	30

[Chromatogram (Ch3)]
Interval(msec)	220
# of Points	1091
Start Time(min)	0.002
End Time(min)	3.998
R.Time (min)	Intensity
0.00167	-1
0.00533	-0
0.00900	0
0.01267	-1
0.01633	-2
0.02000	-5
0.02367	-5
0.02733	-4
0.03100	-2
0.03467	-1
0.03833	-2
0.04200	-1
0.04567	-1
0.04933	-1
0.05300	-2
0.05667	-3
0.06033	-3
0.06400	-4
0.06767	-3
0.07133	-2
0.07500	-1
0.07867	-1
0.08233	-3
0.08600	-4
0.08967	-4
0.09333	-1
0.09700	1
0.10067	-1
0.10433	-4
0.10800	-6
0.11167	-6
0.11533	-5
0.11900	-4
0.12267	-5
0.12633	-3
0.13000	-1
0.13367	-0
0.13733	-1
0.14100	-1
0.14467	-4
0.14833	-6
0.15200	-6
0.15567	-6
0.15933	-5
0.16300	-5
0.16667	-4
0.17033	-2
0.17400	0
0.17767	1
0.18133	1
0.18500	-0
0.18867	1
0.19233	4
0.19600	6
0.19967	5
0.20333	4
0.20700	3
0.21067	4
0.21433	4
0.21800	2
0.22167	1
0.22533	-0
0.22900	0
0.23267	1
0.23633	1
0.24000	-1
0.24367	-1
0.24733	-1
0.25100	-0
0.25467	-2
0.25833	-4
0.26200	-3
0.26567	-1
0.26933	-1
0.27300	-1
0.27667	-2
0.28033	-4
0.28400	-3
0.28767	-3
0.29133	-3
0.29500	-4
0.29867	-3
0.30233	-4
0.30600	-6
0.30967	-9
0.31333	-10
0.31700	-8
0.32067	-7
0.32433	-6
0.32800	-4
0.33167	-2
0.33533	-2
0.33900	-2
0.34267	-1
0.34633	-1
0.35000	-2
0.35367	-6
0.35733	-7
0.36100	-7
0.36467	-8
0.36833	-6
0.37200	-4
0.37567	-5
0.37933	-7
0.38300	-6
0.38667	-5
0.39033	-5
0.39400	-5
0.39767	-4
0.40133	-1
0.40500	-1
0.40867	-2
0.41233	-6
0.41600	-5
0.41967	-4
0.42333	-3
0.42700	-1
0.43067	-1
0.43433	-3
0.43800	-5
0.44167	-3
0.44533	-3
0.44900	-3
0.45267	-6
0.45633	-7
0.46000	-7
0.46367	-6
0.46733	-7
0.47100	-7
0.47467	-8
0.47833	-8
0.48200	-9
0.48567	-8
0.48933	-5
0.49300	-3
0.49667	-4
0.50033	-4
0.50400	-4
0.50767	-4
0.51133	-3
0.51500	-4
0.51867	-5
0.52233	-5
0.52600	-6
0.52967	-5
0.53333	-5
0.53700	-4
0.54067	-3
0.54433	-3
0.54800	-5
0.55167	-6
0.55533	-5
0.55900	-4
0.56267	-3
0.56633	-3
0.57000	-3
0.57367	-4
0.57733	-2
0.58100	-2
0.58467	-3
0.58833	-3
0.59200	-3
0.59567	-1
0.59933	0
0.60300	1
0.60667	-0
0.61033	-1
0.61400	-1
0.61767	-2
0.62133	-3
0.62500	-4
0.62867	-5
0.63233	-6
0.63600	-7
0.63967	-7
0.64333	-7
0.64700	-7
0.65067	-6
0.65433	-6
0.65800	-5
0.66167	-2
0.66533	-1
0.66900	-1
0.67267	-1
0.67633	-1
0.68000	-1
0.68367	-1
0.68733	-2
0.69100	-4
0.69467	-4
0.69833	-5
0.70200	-7
0.70567	-7
0.70933	-6
0.71300	-5
0.71667	-3
0.72033	-4
0.72400	-4
0.72767	-4
0.73133	-7
0.73500	-8
0.73867	-7
0.74233	-5
0.74600	-3
0.74967	-2
0.75333	-1
0.75700	2
0.76067	3
0.76433	-0
0.76800	-3
0.77167	-4
0.77533	-4
0.77900	-4
0.78267	-6
0.78633	-7
0.79000	-6
0.79367	-6
0.79733	-6
0.80100	-5
0.80467	-5
0.80833	-3
0.81200	-3
0.81567	-5
0.81933	-7
0.82300	-8
0.82667	-7
0.83033	-6
0.83400	-5
0.83767	-3
0.84133	-2
0.84500	-1
0.84867	-1
0.85233	-2
0.85600	-3
0.85967	-1
0.86333	-3
0.86700	-5
0.87067	-6
0.87433	-4
0.87800	-0
0.88167	2
0.88533	3
0.88900	4
0.89267	3
0.89633	1
0.90000	0
0.90367	0
0.90733	2
0.91100	3
0.91467	2
0.91833	-0
0.92200	-1
0.92567	-1
0.92933	-1
0.93300	-1
0.93667	-0
0.94033	0
0.94400	0
0.94767	-0
0.95133	-1
0.95500	-2
0.95867	-2
0.96233	-1
0.96600	-0
0.96967	1
0.97333	2
0.97700	1
0.98067	-0
0.98433	-0
0.98800	0
0.99167	2
0.99533	3
0.99900	4
1.00267	4
1.00633	3
1.01000	3
1.01367	3
1.01733	3
1.02100	2
1.02467	0
1.02833	-3
1.03200	-5
1.03567	-4
1.03933	-1
1.04300	2
1.04667	4
1.05033	4
1.05400	2
1.05767	-2
1.06133	-4
1.06500	-3
1.06867	-1
1.07233	1
1.07600	4
1.07967	5
1.08333	5
1.08700	5
1.09067	6
1.09433	5
1.09800	2
1.10167	-0
1.10533	-2
1.10900	-3
1.11267	-2
1.11633	1
1.12000	2
1.12367	2
1.12733	4
1.13100	7
1.13467	8
1.13833	5
1.14200	2
1.14567	1
1.14933	0
1.15300	1
1.15667	2
1.16033	1
1.16400	2
1.16767	4
1.17133	6
1.17500	7
1.17867	5
1.18233	5
1.18600	4
1.18967	3
1.19333	2
1.19700	4
1.20067	4
1.20433	4
1.20800	3
1.21167	3
1.21533	3
1.21900	5
1.22267	6
1.22633	6
1.23000	5
1.23367	5
1.23733	5
1.24100	3
1.24467	5
1.24833	6
1.25200	7
1.25567	7
1.25933	6
1.26300	7
1.26667	6
1.27033	7
1.27400	7
1.27767	7
1.28133	9
1.28500	10
1.28867	12
1.29233	13
1.29600	14
1.29967	15
1.30333	16
1.30700	14
1.31067	12
1.31433	12
1.31800	12
1.32167	11
1.32533	9
1.32900	9
1.33267	8
1.33633	7
1.34000	3
1.34367	1
1.34733	3
1.35100	5
1.35467	6
1.35833	4
1.36200	3
1.36567	3
1.36933	4
1.37300	4
1.37667	3
1.38033	3
1.38400	3
1.38767	3
1.39133	1
1.39500	2
1.39867	2
1.40233	2
1.40600	3
1.40967	2
1.41333	3
1.41700	5
1.42067	7
1.42433	9
1.42800	13
1.43167	12
1.43533	9
1.43900	9
1.44267	11
1.44633	11
1.45000	9
1.45367	9
1.45733	8
1.46100	8
1.46467	7
1.46833	7
1.47200	8
1.47567	6
1.47933	5
1.48300	4
1.48667	6
1.49033	7
1.49400	6
1.49767	6
1.50133	5
1.50500	5
1.50867	6
1.51233	6
1.51600	8
1.51967	9
1.52333	10
1.52700	10
1.53067	9
1.53433	10
1.53800	11
1.54167	12
1.54533	10
1.54900	8
1.55267	8
1.55633	7
1.56000	7
1.56367	7
1.56733	6
1.57100	3
1.57467	2
1.57833	3
1.58200	5
1.58567	5
1.58933	5
1.59300	6
1.59667	7
1.60033	10
1.60400	11
1.60767	9
1.61133	8
1.61500	7
1.61867	8
1.62233	9
1.62600	9
1.62967	7
1.63333	7
1.63700	6
1.64067	7
1.64433	6
1.64800	8
1.65167	10
1.65533	11
1.65900	15
1.66267	19
1.66633	20
1.67000	20
1.67367	21
1.67733	22
1.68100	21
1.68467	21
1.68833	21
1.69200	23
1.69567	25
1.69933	27
1.70300	26
1.70667	26
1.71033	26
1.71400	26
1.71767	27
1.72133	28
1.72500	27
1.72867	25
1.73233	25
1.73600	25
1.73967	24
1.74333	26
1.74700	24
1.75067	26
1.75433	27
1.75800	30
1.76167	32
1.76533	32
1.76900	33
1.77267	33
1.77633	34
1.78000	33
1.78367	32
1.78733	30
1.79100	30
1.79467	33
1.79833	33
1.80200	32
1.80567	31
1.80933	32
1.81300	34
1.81667	34
1.82033	35
1.82400	34
1.82767	34
1.83133	34
1.83500	33
1.83867	35
1.84233	37
1.84600	40
1.84967	40
1.85333	39
1.85700	38
1.86067	37
1.86433	39
1.86800	40
1.87167	42
1.87533	43
1.87900	44
1.88267	46
1.88633	46
1.89000	43
1.89367	43
1.89733	45
1.90100	46
1.90467	48
1.90833	49
1.91200	50
1.91567	50
1.91933	49
1.92300	50
1.92667	51
1.93033	54
1.93400	54
1.93767	52
1.94133	54
1.94500	55
1.94867	55
1.95233	56
1.95600	56
1.95967	55
1.96333	56
1.96700	57
1.97067	59
1.97433	62
1.97800	64
1.98167	64
1.98533	65
1.98900	66
1.99267	68
1.99633	71
2.00000	72
2.00367	73
2.00733	73
2.01100	72
2.01467	71
2.01833	71
2.02200	74
2.02567	77
2.02933	81
2.03300	83
2.03667	85
2.04033	87
2.04400	87
2.04767	86
2.05133	86
2.05500	86
2.05867	86
2.06233	86
2.06600	88
2.06967	89
2.07333	89
2.07700	89
2.08067	88
2.08433	89
2.08800	91
2.09167	93
2.09533	96
2.09900	98
2.10267	100
2.10633	100
2.11000	101
2.11367	102
2.11733	103
2.12100	103
2.12467	104
2.12833	106
2.13200	110
2.13567	114
2.13933	117
2.14300	118
2.14667	116
2.15033	115
2.15400	114
2.15767	114
2.16133	116
2.16500	119
2.16867	121
2.17233	123
2.17600	123
2.17967	123
2.18333	122
2.18700	123
2.19067	126
2.19433	130
2.19800	133
2.20167	136
2.20533	136
2.20900	136
2.21267	138
2.21633	142
2.22000	144
2.22367	145
2.22733	147
2.23100	149
2.23467	148
2.23833	148
2.24200	149
2.24567	152
2.24933	156
2.25300	159
2.25667	159
2.26033	157
2.26400	158
2.26767	159
2.27133	162
2.27500	165
2.27867	167
2.28233	168
2.28600	170
2.28967	171
2.29333	174
2.29700	178
2.30067	181
2.30433	182
2.30800	183
2.31167	185
2.31533	186
2.31900	187
2.32267	189
2.32633	192
2.33000	195
2.33367	199
2.33733	202
2.34100	203
2.34467	204
2.34833	205
2.35200	205
2.35567	206
2.35933	208
2.36300	210
2.36667	213
2.37033	216
2.37400	217
2.37767	217
2.38133	220
2.38500	222
2.38867	222
2.39233	224
2.39600	226
2.39967	229
2.40333	234
2.40700	236
2.41067	240
2.41433	245
2.41800	246
2.42167	247
2.42533	248
2.42900	250
2.43267	253
2.43633	255
2.44000	263
2.44367	325
2.44733	479
2.45100	643
2.45467	776
2.45833	852
2.46200	857
2.46567	816
2.46933	759
2.47300	709
2.47667	677
2.48033	655
2.48400	627
2.48767	585
2.49133	537
2.49500	489
2.49867	450
2.50233	424
2.50600	410
2.50967	405
2.51333	407
2.51700	416
2.52067	431
2.52433	448
2.52800	465
2.53167	476
2.53533	473
2.53900	458
2.54267	435
2.54633	405
2.55000	374
2.55367	348
2.55733	324
2.56100	303
2.56467	288
2.56833	279
2.57200	273
2.57567	268
2.57933	266
2.58300	263
2.58667	262
2.59033	262
2.59400	263
2.59767	260
2.60133	255
2.60500	249
2.60867	241
2.61233	231
2.61600	221
2.61967	213
2.62333	207
2.62700	201
2.63067	196
2.63433	193
2.63800	193
2.64167	193
2.64533	193
2.64900	193
2.65267	191
2.65633	188
2.66000	181
2.66367	172
2.66733	163
2.67100	158
2.67467	152
2.67833	144
2.68200	134
2.68567	124
2.68933	116
2.69300	110
2.69667	105
2.70033	101
2.70400	103
2.70767	105
2.71133	106
2.71500	107
2.71867	108
2.72233	111
2.72600	112
2.72967	114
2.73333	113
2.73700	114
2.74067	114
2.74433	116
2.74800	120
2.75167	126
2.75533	131
2.75900	134
2.76267	137
2.76633	137
2.77000	136
2.77367	135
2.77733	136
2.78100	137
2.78467	139
2.78833	142
2.79200	145
2.79567	144
2.79933	145
2.80300	146
2.80667	149
2.81033	151
2.81400	157
2.81767	167
2.82133	182
2.82500	208
2.82867	261
2.83233	358
2.83600	523
2.83967	778
2.84333	1137
2.84700	1601
2.85067	2151
2.85433	2757
2.85800	3374
2.86167	3951
2.86533	4441
2.86900	4808
2.87267	5028
2.87633	5101
2.88000	5038
2.88367	4860
2.88733	4596
2.89100	4278
2.89467	3930
2.89833	3571
2.90200	3218
2.90567	2879
2.90933	2564
2.91300	2276
2.91667	2017
2.92033	1784
2.92400	1580
2.92767	1402
2.93133	1244
2.93500	1103
2.93867	981
2.94233	874
2.94600	781
2.94967	701
2.95333	631
2.95700	570
2.96067	516
2.96433	469
2.96800	427
2.97167	390
2.97533	358
2.97900	332
2.98267	308
2.98633	285
2.99000	266
2.99367	249
2.99733	235
3.00100	225
3.00467	215
3.00833	206
3.01200	197
3.01567	189
3.01933	180
3.02300	175
3.02667	173
3.03033	171
3.03400	168
3.03767	162
3.04133	156
3.04500	154
3.04867	154
3.05233	153
3.05600	148
3.05967	142
3.06333	138
3.06700	137
3.07067	137
3.07433	140
3.07800	140
3.08167	137
3.08533	135
3.08900	134
3.09267	135
3.09633	135
3.10000	137
3.10367	139
3.10733	140
3.11100	139
3.11467	138
3.11833	136
3.12200	134
3.12567	135
3.12933	136
3.13300	137
3.13667	135
3.14033	135
3.14400	135
3.14767	136
3.15133	137
3.15500	139
3.15867	139
3.16233	139
3.16600	140
3.16967	141
3.17333	142
3.17700	141
3.18067	143
3.18433	143
3.18800	144
3.19167	145
3.19533	146
3.19900	147
3.20267	147
3.20633	145
3.21000	145
3.21367	145
3.21733	147
3.22100	150
3.22467	153
3.22833	155
3.23200	156
3.23567	156
3.23933	155
3.24300	155
3.24667	157
3.25033	158
3.25400	159
3.25767	161
3.26133	162
3.26500	163
3.26867	166
3.27233	164
3.27600	164
3.27967	166
3.28333	167
3.28700	167
3.29067	166
3.29433	167
3.29800	169
3.30167	172
3.30533	173
3.30900	174
3.31267	175
3.31633	175
3.32000	177
3.32367	176
3.32733	176
3.33100	179
3.33467	181
3.33833	180
3.34200	182
3.34567	185
3.34933	186
3.35300	189
3.35667	193
3.36033	196
3.36400	198
3.36767	199
3.37133	199
3.37500	200
3.37867	201
3.38233	203
3.38600	205
3.38967	204
3.39333	204
3.39700	207
3.40067	208
3.40433	208
3.40800	205
3.41167	202
3.41533	203
3.41900	206
3.42267	208
3.42633	210
3.43000	210
3.43367	212
3.43733	215
3.44100	217
3.44467	218
3.44833	222
3.45200	223
3.45567	223
3.45933	222
3.46300	223
3.46667	225
3.47033	226
3.47400	229
3.47767	231
3.48133	233
3.48500	234
3.48867	235
3.49233	237
3.49600	239
3.49967	239
3.50333	238
3.50700	239
3.51067	242
3.51433	244
3.51800	243
3.52167	241
3.52533	239
3.52900	237
3.53267	238
3.53633	239
3.54000	239
3.54367	241
3.54733	243
3.55100	245
3.55467	243
3.55833	242
3.56200	241
3.56567	240
3.56933	237
3.57300	237
3.57667	241
3.58033	243
3.58400	246
3.58767	247
3.59133	247
3.59500	236
3.59867	211
3.60233	190
3.60600	174
3.60967	159
3.61333	152
3.61700	154
3.62067	162
3.62433	177
3.62800	197
3.63167	220
3.63533	245
3.63900	269
3.64267	294
3.64633	317
3.65000	337
3.65367	356
3.65733	377
3.66100	396
3.66467	416
3.66833	434
3.67200	449
3.67567	462
3.67933	473
3.68300	483
3.68667	490
3.69033	496
3.69400	503
3.69767	509
3.70133	514
3.70500	521
3.70867	526
3.71233	530
3.71600	533
3.71967	537
3.72333	539
3.72700	542
3.73067	545
3.73433	548
3.73800	552
3.74167	556
3.74533	559
3.74900	563
3.75267	566
3.75633	568
3.76000	566
3.76367	565
3.76733	565
3.77100	566
3.77467	569
3.77833	571
3.78200	573
3.78567	574
3.78933	574
3.79300	572
3.79667	571
3.80033	570
3.80400	571
3.80767	572
3.81133	571
3.81500	572
3.81867	572
3.82233	572
3.82600	572
3.82967	570
3.83333	569
3.83700	571
3.84067	572
3.84433	574
3.84800	577
3.85167	579
3.85533	583
3.85900	583
3.86267	582
3.86633	578
3.87000	578
3.87367	582
3.87733	583
3.88100	581
3.88467	579
3.88833	581
3.89200	583
3.89567	584
3.89933	584
3.90300	583
3.90667	583
3.91033	584
3.91400	584
3.91767	586
3.92133	588
3.92500	591
3.92867	589
3.93233	588
3.93600	586
3.93967	585
3.94333	586
3.94700	588
3.95067	590
3.95433	590
3.95800	589
3.96167	590
3.96533	590
3.96900	588
3.97267	587
3.97633	588
3.98000	589
3.98367	590
3.98733	589
3.99100	588
3.99467	586
3.99833	583

[Status Trace (Column Oven Temperature)]
Interval(msec)	1000
# of Points	240
Start Time(min)	0.012
End Time(min)	3.995
Intensity Units	
Intensity Multiplier	1
R.Time (min)	Intensity
0.01178	35.04
0.02845	35.05
0.04512	35.06
0.06178	35.06
0.07845	35.06
0.09512	35.05
0.11178	35.05
0.12845	35.05
0.14512	35.04
0.16178	35.03
0.17845	35.02
0.19512	35.02
0.21178	35.01
0.22845	35.01
0.24512	35.01
0.26178	35.01
0.27845	35.00
0.29512	35.00
0.31178	34.99
0.32845	35.00
0.34512	35.01
0.36178	35.02
0.37845	35.04
0.39512	35.04
0.41178	35.04
0.42845	35.04
0.44512	35.05
0.46178	35.04
0.47845	35.02
0.49512	35.01
0.51178	34.99
0.52845	34.98
0.54512	34.98
0.56178	34.99
0.57845	35.00
0.59512	35.01
0.61178	35.00
0.62845	35.00
0.64512	34.98
0.66178	34.98
0.67845	34.98
0.69512	34.98
0.71178	34.97
0.72845	34.97
0.74512	34.96
0.76178	34.96
0.77845	34.96
0.79512	34.96
0.81178	34.96
0.82845	34.94
0.84512	34.96
0.86178	34.98
0.87845	35.00
0.89512	35.02
0.91178	35.02
0.92845	35.02
0.94512	35.03
0.96178	35.03
0.97845	35.02
0.99512	35.01
1.01178	34.99
1.02845	34.97
1.04512	34.95
1.06178	34.95
1.07845	34.94
1.09512	34.94
1.11178	34.95
1.12845	34.95
1.14512	34.96
1.16178	34.98
1.17845	34.98
1.19512	34.98
1.21178	34.99
1.22845	35.00
1.24512	35.00
1.26178	34.99
1.27845	35.00
1.29512	35.00
1.31178	35.02
1.32845	35.02
1.34512	35.00
1.36178	34.99
1.37845	34.98
1.39512	34.98
1.41178	34.99
1.42845	35.00
1.44512	35.01
1.46178	35.00
1.47845	34.99
1.49512	34.99
1.51178	35.00
1.52845	35.00
1.54512	35.00
1.56178	34.98
1.57845	34.98
1.59512	35.00
1.61178	35.08
1.62845	35.22
1.64512	35.42
1.66178	35.69
1.67845	36.07
1.69512	36.44
1.71178	36.79
1.72845	37.12
1.74512	37.42
1.76178	37.74
1.77845	38.08
1.79512	38.43
1.81178	38.76
1.82845	39.10
1.84512	39.42
1.86178	39.77
1.87845	40.07
1.89512	40.39
1.91178	40.72
1.92845	41.05
1.94512	41.38
1.96178	41.70
1.97845	42.04
1.99512	42.36
2.01178	42.71
2.02845	43.02
2.04512	43.36
2.06178	43.68
2.07845	44.01
2.09512	44.32
2.11178	44.65
2.12845	44.99
2.14512	45.29
2.16178	45.63
2.17845	45.94
2.19512	46.26
2.21178	46.59
2.22845	46.91
2.24512	47.26
2.26178	47.60
2.27845	47.94
2.29512	48.26
2.31178	48.60
2.32845	48.92
2.34512	49.23
2.36178	49.53
2.37845	49.67
2.39512	49.72
2.41178	49.71
2.42845	49.72
2.44512	49.72
2.46178	49.73
2.47845	49.75
2.49512	49.74
2.51178	49.78
2.52845	49.78
2.54512	49.81
2.56178	49.81
2.57845	49.80
2.59512	49.83
2.61178	49.84
2.62845	49.84
2.64512	49.84
2.66178	49.86
2.67845	49.85
2.69512	49.84
2.71178	49.85
2.72845	49.86
2.74512	49.86
2.76178	49.85
2.77845	49.85
2.79512	49.88
2.81178	49.90
2.82845	49.90
2.84512	49.91
2.86178	49.92
2.87845	49.91
2.89512	49.90
2.91178	49.90
2.92845	49.90
2.94512	49.92
2.96178	49.94
2.97845	49.97
2.99512	49.99
3.01178	50.01
3.02845	50.01
3.04512	50.02
3.06178	50.04
3.07845	50.06
3.09512	50.07
3.11178	50.08
3.12845	50.10
3.14512	50.13
3.16178	50.12
3.17845	50.11
3.19512	50.10
3.21178	50.08
3.22845	50.07
3.24512	50.04
3.26178	50.02
3.27845	50.02
3.29512	50.01
3.31178	50.01
3.32845	50.01
3.34512	50.03
3.36178	50.04
3.37845	50.04
3.39512	50.04
3.41178	50.03
3.42845	50.03
3.44512	50.01
3.46178	50.01
3.47845	50.02
3.49512	50.04
3.51178	50.04
3.52845	50.05
3.54512	50.06
3.56178	50.06
3.57845	50.06
3.59512	50.07
3.61178	50.07
3.62845	50.06
3.64512	50.07
3.66178	50.07
3.67845	50.06
3.69512	50.06
3.71178	50.06
3.72845	50.06
3.74512	50.07
3.76178	50.07
3.77845	50.08
3.79512	50.07
3.81178	50.07
3.82845	50.06
3.84512	50.06
3.86178	50.07
3.87845	50.08
3.89512	50.09
3.91178	50.10
3.92845	50.10
3.94512	50.10
3.96178	50.09
3.97845	50.08
3.99512	50.07

[Status Trace (Injection Unit Temperature)]
Interval(msec)	1000
# of Points	240
Start Time(min)	0.012
End Time(min)	3.995
Intensity Units	
Intensity Multiplier	1
R.Time (min)	Intensity
0.01178	99.98
0.02845	99.98
0.04512	99.98
0.06178	99.98
0.07845	99.99
0.09512	99.99
0.11178	99.98
0.12845	99.99
0.14512	99.98
0.16178	99.99
0.17845	99.98
0.19512	99.99
0.21178	99.98
0.22845	99.99
0.24512	99.99
0.26178	99.99
0.27845	99.99
0.29512	99.99
0.31178	99.99
0.32845	99.99
0.34512	99.99
0.36178	99.99
0.37845	99.98
0.39512	99.99
0.41178	99.99
0.42845	99.99
0.44512	99.99
0.46178	99.98
0.47845	99.99
0.49512	99.99
0.51178	99.99
0.52845	99.99
0.54512	99.99
0.56178	99.99
0.57845	99.98
0.59512	99.98
0.61178	99.98
0.62845	99.99
0.64512	99.98
0.66178	99.98
0.67845	99.98
0.69512	99.98
0.71178	99.99
0.72845	99.99
0.74512	99.99
0.76178	99.98
0.77845	99.98
0.79512	99.98
0.81178	99.98
0.82845	99.98
0.84512	99.99
0.86178	99.98
0.87845	99.98
0.89512	99.98
0.91178	99.98
0.92845	99.98
0.94512	99.98
0.96178	99.98
0.97845	99.98
0.99512	99.98
1.01178	99.98
1.02845	99.99
1.04512	99.98
1.06178	99.98
1.07845	99.98
1.09512	99.98
1.11178	99.98
1.12845	99.98
1.14512	99.98
1.16178	99.97
1.17845	99.98
1.19512	99.98
1.21178	99.98
1.22845	99.98
1.24512	99.98
1.26178	99.98
1.27845	99.98
1.29512	99.98
1.31178	99.98
1.32845	99.98
1.34512	99.98
1.36178	99.98
1.37845	99.98
1.39512	99.98
1.41178	99.98
1.42845	99.98
1.44512	99.98
1.46178	99.98
1.47845	99.98
1.49512	99.98
1.51178	99.98
1.52845	99.98
1.54512	99.98
1.56178	99.98
1.57845	99.98
1.59512	99.99
1.61178	99.98
1.62845	99.98
1.64512	99.99
1.66178	99.98
1.67845	99.99
1.69512	99.98
1.71178	99.99
1.72845	99.98
1.74512	99.98
1.76178	99.97
1.77845	99.98
1.79512	99.98
1.81178	99.98
1.82845	99.98
1.84512	99.98
1.86178	99.98
1.87845	99.98
1.89512	99.98
1.91178	99.98
1.92845	99.97
1.94512	99.97
1.96178	99.98
1.97845	99.98
1.99512	99.97
2.01178	99.98
2.02845	99.98
2.04512	99.97
2.06178	99.97
2.07845	99.97
2.09512	99.97
2.11178	99.97
2.12845	99.97
2.14512	99.97
2.16178	99.97
2.17845	99.96
2.19512	99.97
2.21178	99.97
2.22845	99.97
2.24512	99.96
2.26178	99.97
2.27845	99.96
2.29512	99.96
2.31178	99.96
2.32845	99.97
2.34512	99.97
2.36178	99.96
2.37845	99.97
2.39512	99.97
2.41178	99.97
2.42845	99.97
2.44512	99.97
2.46178	99.97
2.47845	99.97
2.49512	99.97
2.51178	99.97
2.52845	99.97
2.54512	99.98
2.56178	99.97
2.57845	99.97
2.59512	99.98
2.61178	99.98
2.62845	99.99
2.64512	99.98
2.66178	99.97
2.67845	99.98
2.69512	99.98
2.71178	99.98
2.72845	99.99
2.74512	99.99
2.76178	99.99
2.77845	99.99
2.79512	99.99
2.81178	100.00
2.82845	100.00
2.84512	100.00
2.86178	100.00
2.87845	100.00
2.89512	100.00
2.91178	100.00
2.92845	100.00
2.94512	100.01
2.96178	100.01
2.97845	100.01
2.99512	100.01
3.01178	100.01
3.02845	100.01
3.04512	100.01
3.06178	100.01
3.07845	100.02
3.09512	100.01
3.11178	100.02
3.12845	100.02
3.14512	100.02
3.16178	100.02
3.17845	100.02
3.19512	100.02
3.21178	100.03
3.22845	100.03
3.24512	100.03
3.26178	100.02
3.27845	100.02
3.29512	100.03
3.31178	100.03
3.32845	100.03
3.34512	100.03
3.36178	100.03
3.37845	100.03
3.39512	100.03
3.41178	100.03
3.42845	100.04
3.44512	100.04
3.46178	100.03
3.47845	100.04
3.49512	100.04
3.51178	100.04
3.52845	100.04
3.54512	100.04
3.56178	100.04
3.57845	100.04
3.59512	100.03
3.61178	100.04
3.62845	100.04
3.64512	100.04
3.66178	100.04
3.67845	100.04
3.69512	100.04
3.71178	100.04
3.72845	100.04
3.74512	100.04
3.76178	100.04
3.77845	100.05
3.79512	100.04
3.81178	100.05
3.82845	100.04
3.84512	100.04
3.86178	100.04
3.87845	100.05
3.89512	100.05
3.91178	100.05
3.92845	100.05
3.94512	100.04
3.96178	100.05
3.97845	100.05
3.99512	100.05

[Status Trace (Carrier Gas Pressure)]
Interval(msec)	1000
# of Points	240
Start Time(min)	0.012
End Time(min)	3.995
Intensity Units	
Intensity Multiplier	1
R.Time (min)	Intensity
0.01178	58.00
0.02845	54.94
0.04512	57.59
0.06178	59.67
0.07845	58.93
0.09512	58.00
0.11178	57.99
0.12845	58.01
0.14512	58.01
0.16178	58.00
0.17845	58.00
0.19512	58.00
0.21178	58.00
0.22845	58.00
0.24512	58.00
0.26178	58.00
0.27845	58.00
0.29512	58.00
0.31178	58.00
0.32845	58.00
0.34512	58.00
0.36178	58.00
0.37845	58.00
0.39512	58.00
0.41178	58.00
0.42845	58.00
0.44512	58.00
0.46178	58.00
0.47845	58.00
0.49512	58.00
0.51178	58.00
0.52845	58.00
0.54512	58.00
0.56178	58.00
0.57845	58.00
0.59512	58.00
0.61178	58.00
0.62845	58.00
0.64512	58.00
0.66178	58.00
0.67845	58.00
0.69512	58.00
0.71178	58.00
0.72845	58.00
0.74512	58.00
0.76178	58.00
0.77845	58.00
0.79512	58.00
0.81178	58.00
0.82845	58.00
0.84512	58.00
0.86178	58.00
0.87845	58.00
0.89512	58.00
0.91178	58.00
0.92845	58.00
0.94512	58.00
0.96178	58.00
0.97845	58.00
0.99512	58.00
1.01178	58.00
1.02845	58.00
1.04512	58.00
1.06178	58.00
1.07845	58.00
1.09512	58.00
1.11178	58.00
1.12845	58.00
1.14512	58.00
1.16178	58.00
1.17845	58.00
1.19512	58.00
1.21178	58.00
1.22845	58.00
1.24512	58.00
1.26178	58.00
1.27845	58.00
1.29512	58.00
1.31178	58.00
1.32845	58.00
1.34512	58.00
1.36178	58.00
1.37845	58.00
1.39512	58.00
1.41178	58.00
1.42845	58.00
1.44512	58.00
1.46178	58.00
1.47845	58.00
1.49512	58.00
1.51178	58.00
1.52845	58.00
1.54512	58.00
1.56178	58.00
1.57845	58.00
1.59512	58.00
1.61178	58.00
1.62845	58.00
1.64512	58.00
1.66178	58.01
1.67845	58.01
1.69512	58.00
1.71178	58.00
1.72845	58.00
1.74512	58.00
1.76178	58.00
1.77845	58.00
1.79512	58.00
1.81178	58.00
1.82845	58.00
1.84512	58.00
1.86178	58.00
1.87845	58.00
1.89512	58.00
1.91178	58.00
1.92845	58.00
1.94512	58.00
1.96178	58.00
1.97845	58.00
1.99512	58.00
2.01178	58.00
2.02845	58.00
2.04512	58.00
2.06178	58.00
2.07845	58.00
2.09512	58.00
2.11178	58.00
2.12845	58.00
2.14512	58.00
2.16178	58.00
2.17845	58.00
2.19512	58.00
2.21178	58.00
2.22845	58.00
2.24512	58.00
2.26178	58.00
2.27845	58.00
2.29512	58.00
2.31178	58.00
2.32845	58.00
2.34512	58.00
2.36178	58.00
2.37845	57.99
2.39512	57.99
2.41178	57.99
2.42845	58.00
2.44512	58.00
2.46178	58.00
2.47845	58.00
2.49512	58.00
2.51178	58.00
2.52845	57.99
2.54512	58.00
2.56178	58.00
2.57845	58.00
2.59512	58.00
2.61178	58.00
2.62845	58.00
2.64512	58.00
2.66178	58.00
2.67845	58.00
2.69512	58.00
2.71178	58.00
2.72845	58.00
2.74512	58.00
2.76178	58.00
2.77845	58.00
2.79512	58.00
2.81178	58.00
2.82845	58.00
2.84512	58.00
2.86178	58.00
2.87845	58.00
2.89512	58.00
2.91178	58.00
2.92845	58.00
2.94512	58.00
2.96178	58.00
2.97845	58.00
2.99512	58.00
3.01178	58.00
3.02845	58.00
3.04512	58.00
3.06178	58.00
3.07845	58.00
3.09512	58.00
3.11178	58.00
3.12845	58.00
3.14512	58.00
3.16178	58.00
3.17845	58.00
3.19512	58.00
3.21178	58.00
3.22845	58.00
3.24512	58.00
3.26178	58.00
3.27845	58.00
3.29512	58.00
3.31178	58.00
3.32845	58.00
3.34512	58.00
3.36178	58.00
3.37845	58.00
3.39512	58.00
3.41178	58.00
3.42845	58.00
3.44512	58.00
3.46178	58.00
3.47845	58.00
3.49512	58.00
3.51178	58.00
3.52845	58.00
3.54512	58.00
3.56178	58.00
3.57845	58.00
3.59512	58.00
3.61178	58.00
3.62845	58.00
3.64512	58.00
3.66178	58.00
3.67845	58.00
3.69512	58.00
3.71178	58.00
3.72845	58.00
3.74512	58.00
3.76178	58.00
3.77845	58.00
3.79512	58.00
3.81178	58.00
3.82845	58.00
3.84512	58.00
3.86178	58.00
3.87845	58.00
3.89512	58.00
3.91178	58.00
3.92845	58.00
3.94512	58.00
3.96178	58.00
3.97845	58.00
3.99512	58.00

[Status Trace (Carrier Gas Flow)]
Interval(msec)	1000
# of Points	240
Start Time(min)	0.012
End Time(min)	3.995
Intensity Units	
Intensity Multiplier	1
R.Time (min)	Intensity
0.01178	34.53
0.02845	34.53
0.04512	34.55
0.06178	34.53
0.07845	34.51
0.09512	34.52
0.11178	34.51
0.12845	34.52
0.14512	34.52
0.16178	34.52
0.17845	34.52
0.19512	34.52
0.21178	34.51
0.22845	34.52
0.24512	34.52
0.26178	34.52
0.27845	34.52
0.29512	34.52
0.31178	34.52
0.32845	34.52
0.34512	34.52
0.36178	34.52
0.37845	34.52
0.39512	34.52
0.41178	34.52
0.42845	34.52
0.44512	34.52
0.46178	34.52
0.47845	34.52
0.49512	34.52
0.51178	34.52
0.52845	34.52
0.54512	34.52
0.56178	34.52
0.57845	34.52
0.59512	34.52
0.61178	34.52
0.62845	34.52
0.64512	34.52
0.66178	34.52
0.67845	34.51
0.69512	34.52
0.71178	34.52
0.72845	34.52
0.74512	34.52
0.76178	34.52
0.77845	34.52
0.79512	34.52
0.81178	34.52
0.82845	34.52
0.84512	34.52
0.86178	34.52
0.87845	34.52
0.89512	34.52
0.91178	34.52
0.92845	34.52
0.94512	34.52
0.96178	34.52
0.97845	34.52
0.99512	34.52
1.01178	34.52
1.02845	34.52
1.04512	34.53
1.06178	34.51
1.07845	34.51
1.09512	34.51
1.11178	34.52
1.12845	34.51
1.14512	34.52
1.16178	34.52
1.17845	34.52
1.19512	34.51
1.21178	34.52
1.22845	34.52
1.24512	34.52
1.26178	34.52
1.27845	34.52
1.29512	34.52
1.31178	34.52
1.32845	34.51
1.34512	34.52
1.36178	34.52
1.37845	34.52
1.39512	34.51
1.41178	34.52
1.42845	34.52
1.44512	34.52
1.46178	34.52
1.47845	34.52
1.49512	34.52
1.51178	34.52
1.52845	34.51
1.54512	34.52
1.56178	34.52
1.57845	34.52
1.59512	34.52
1.61178	34.52
1.62845	34.52
1.64512	34.52
1.66178	34.52
1.67845	34.52
1.69512	34.52
1.71178	34.51
1.72845	34.52
1.74512	34.52
1.76178	34.52
1.77845	34.52
1.79512	34.52
1.81178	34.52
1.82845	34.52
1.84512	34.52
1.86178	34.53
1.87845	34.52
1.89512	34.53
1.91178	34.52
1.92845	34.52
1.94512	34.52
1.96178	34.52
1.97845	34.52
1.99512	34.52
2.01178	34.52
2.02845	34.52
2.04512	34.52
2.06178	34.52
2.07845	34.52
2.09512	34.52
2.11178	34.53
2.12845	34.52
2.14512	34.52
2.16178	34.52
2.17845	34.52
2.19512	34.52
2.21178	34.52
2.22845	34.53
2.24512	34.52
2.26178	34.51
2.27845	34.52
2.29512	34.53
2.31178	34.53
2.32845	34.53
2.34512	34.51
2.36178	34.52
2.37845	34.53
2.39512	34.52
2.41178	34.52
2.42845	34.52
2.44512	34.52
2.46178	34.52
2.47845	34.52
2.49512	34.52
2.51178	34.52
2.52845	34.52
2.54512	34.52
2.56178	34.52
2.57845	34.51
2.59512	34.52
2.61178	34.52
2.62845	34.52
2.64512	34.52
2.66178	34.52
2.67845	34.52
2.69512	34.52
2.71178	34.52
2.72845	34.52
2.74512	34.52
2.76178	34.52
2.77845	34.51
2.79512	34.52
2.81178	34.53
2.82845	34.53
2.84512	34.51
2.86178	34.52
2.87845	34.52
2.89512	34.52
2.91178	34.52
2.92845	34.53
2.94512	34.52
2.96178	34.52
2.97845	34.52
2.99512	34.52
3.01178	34.52
3.02845	34.52
3.04512	34.52
3.06178	34.52
3.07845	34.52
3.09512	34.52
3.11178	34.52
3.12845	34.52
3.14512	34.52
3.16178	34.52
3.17845	34.52
3.19512	34.52
3.21178	34.52
3.22845	34.52
3.24512	34.52
3.26178	34.52
3.27845	34.52
3.29512	34.52
3.31178	34.52
3.32845	34.52
3.34512	34.51
3.36178	34.52
3.37845	34.52
3.39512	34.52
3.41178	34.52
3.42845	34.51
3.44512	34.52
3.46178	34.52
3.47845	34.52
3.49512	34.51
3.51178	34.52
3.52845	34.52
3.54512	34.52
3.56178	34.52
3.57845	34.52
3.59512	34.51
3.61178	34.51
3.62845	34.51
3.64512	34.52
3.66178	34.51
3.67845	34.51
3.69512	34.52
3.71178	34.52
3.72845	34.52
3.74512	34.51
3.76178	34.51
3.77845	34.52
3.79512	34.51
3.81178	34.52
3.82845	34.52
3.84512	34.52
3.86178	34.52
3.87845	34.52
3.89512	34.52
3.91178	34.52
3.92845	34.52
3.94512	34.52
3.96178	34.52
3.97845	34.52
3.99512	34.52

[Status Trace (Column Flow)]
Interval(msec)	1000
# of Points	240
Start Time(min)	0.012
End Time(min)	3.995
Intensity Units	
Intensity Multiplier	1
R.Time (min)	Intensity
0.01178	5.52
0.02845	5.17
0.04512	5.47
0.06178	5.72
0.07845	5.63
0.09512	5.52
0.11178	5.52
0.12845	5.52
0.14512	5.52
0.16178	5.52
0.17845	5.52
0.19512	5.52
0.21178	5.52
0.22845	5.52
0.24512	5.52
0.26178	5.52
0.27845	5.52
0.29512	5.52
0.31178	5.52
0.32845	5.52
0.34512	5.52
0.36178	5.52
0.37845	5.52
0.39512	5.52
0.41178	5.52
0.42845	5.52
0.44512	5.52
0.46178	5.52
0.47845	5.52
0.49512	5.52
0.51178	5.52
0.52845	5.52
0.54512	5.52
0.56178	5.52
0.57845	5.52
0.59512	5.52
0.61178	5.52
0.62845	5.52
0.64512	5.52
0.66178	5.52
0.67845	5.52
0.69512	5.52
0.71178	5.52
0.72845	5.52
0.74512	5.52
0.76178	5.52
0.77845	5.52
0.79512	5.53
0.81178	5.53
0.82845	5.53
0.84512	5.53
0.86178	5.52
0.87845	5.52
0.89512	5.52
0.91178	5.52
0.92845	5.52
0.94512	5.52
0.96178	5.52
0.97845	5.52
0.99512	5.52
1.01178	5.52
1.02845	5.52
1.04512	5.52
1.06178	5.53
1.07845	5.53
1.09512	5.53
1.11178	5.53
1.12845	5.52
1.14512	5.52
1.16178	5.52
1.17845	5.52
1.19512	5.52
1.21178	5.52
1.22845	5.52
1.24512	5.52
1.26178	5.52
1.27845	5.52
1.29512	5.52
1.31178	5.52
1.32845	5.52
1.34512	5.52
1.36178	5.52
1.37845	5.52
1.39512	5.52
1.41178	5.52
1.42845	5.52
1.44512	5.52
1.46178	5.52
1.47845	5.52
1.49512	5.52
1.51178	5.52
1.52845	5.52
1.54512	5.52
1.56178	5.52
1.57845	5.52
1.59512	5.52
1.61178	5.52
1.62845	5.52
1.64512	5.51
1.66178	5.50
1.67845	5.49
1.69512	5.48
1.71178	5.47
1.72845	5.46
1.74512	5.45
1.76178	5.44
1.77845	5.43
1.79512	5.42
1.81178	5.41
1.82845	5.40
1.84512	5.39
1.86178	5.38
1.87845	5.37
1.89512	5.36
1.91178	5.35
1.92845	5.34
1.94512	5.33
1.96178	5.32
1.97845	5.31
1.99512	5.30
2.01178	5.29
2.02845	5.28
2.04512	5.27
2.06178	5.26
2.07845	5.25
2.09512	5.24
2.11178	5.23
2.12845	5.22
2.14512	5.21
2.16178	5.20
2.17845	5.19
2.19512	5.19
2.21178	5.18
2.22845	5.17
2.24512	5.16
2.26178	5.15
2.27845	5.14
2.29512	5.13
2.31178	5.12
2.32845	5.11
2.34512	5.10
2.36178	5.09
2.37845	5.09
2.39512	5.09
2.41178	5.09
2.42845	5.09
2.44512	5.09
2.46178	5.09
2.47845	5.09
2.49512	5.09
2.51178	5.09
2.52845	5.09
2.54512	5.09
2.56178	5.09
2.57845	5.09
2.59512	5.09
2.61178	5.08
2.62845	5.08
2.64512	5.08
2.66178	5.08
2.67845	5.08
2.69512	5.08
2.71178	5.08
2.72845	5.08
2.74512	5.08
2.76178	5.08
2.77845	5.08
2.79512	5.08
2.81178	5.08
2.82845	5.08
2.84512	5.08
2.86178	5.08
2.87845	5.08
2.89512	5.08
2.91178	5.08
2.92845	5.08
2.94512	5.08
2.96178	5.08
2.97845	5.08
2.99512	5.08
3.01178	5.08
3.02845	5.08
3.04512	5.08
3.06178	5.08
3.07845	5.08
3.09512	5.08
3.11178	5.08
3.12845	5.08
3.14512	5.08
3.16178	5.08
3.17845	5.08
3.19512	5.08
3.21178	5.08
3.22845	5.08
3.24512	5.08
3.26178	5.08
3.27845	5.08
3.29512	5.08
3.31178	5.08
3.32845	5.08
3.34512	5.08
3.36178	5.08
3.37845	5.08
3.39512	5.08
3.41178	5.08
3.42845	5.08
3.44512	5.08
3.46178	5.08
3.47845	5.08
3.49512	5.08
3.51178	5.08
3.52845	5.08
3.54512	5.08
3.56178	5.08
3.57845	5.08
3.59512	5.08
3.61178	5.08
3.62845	5.08
3.64512	5.08
3.66178	5.08
3.67845	5.08
3.69512	5.08
3.71178	5.08
3.72845	5.08
3.74512	5.08
3.76178	5.08
3.77845	5.08
3.79512	5.08
3.81178	5.08
3.82845	5.08
3.84512	5.08
3.86178	5.08
3.87845	5.08
3.89512	5.08
3.91178	5.08
3.92845	5.08
3.94512	5.08
3.96178	5.08
3.97845	5.08
3.99512	5.08

[Status Trace (Linear Velocity)]
Interval(msec)	1000
# of Points	240
Start Time(min)	0.012
End Time(min)	3.995
Intensity Units	
Intensity Multiplier	1
R.Time (min)	Intensity
0.01178	39.01
0.02845	37.01
0.04512	38.75
0.06178	40.11
0.07845	39.62
0.09512	39.01
0.11178	39.01
0.12845	39.02
0.14512	39.02
0.16178	39.02
0.17845	39.02
0.19512	39.02
0.21178	39.02
0.22845	39.02
0.24512	39.02
0.26178	39.02
0.27845	39.02
0.29512	39.02
0.31178	39.02
0.32845	39.02
0.34512	39.02
0.36178	39.01
0.37845	39.01
0.39512	39.01
0.41178	39.01
0.42845	39.01
0.44512	39.01
0.46178	39.01
0.47845	39.02
0.49512	39.02
0.51178	39.02
0.52845	39.02
0.54512	39.02
0.56178	39.02
0.57845	39.02
0.59512	39.02
0.61178	39.02
0.62845	39.02
0.64512	39.02
0.66178	39.02
0.67845	39.02
0.69512	39.02
0.71178	39.02
0.72845	39.02
0.74512	39.02
0.76178	39.02
0.77845	39.02
0.79512	39.02
0.81178	39.02
0.82845	39.02
0.84512	39.02
0.86178	39.02
0.87845	39.02
0.89512	39.02
0.91178	39.01
0.92845	39.01
0.94512	39.01
0.96178	39.01
0.97845	39.01
0.99512	39.02
1.01178	39.02
1.02845	39.02
1.04512	39.02
1.06178	39.02
1.07845	39.02
1.09512	39.02
1.11178	39.02
1.12845	39.02
1.14512	39.02
1.16178	39.02
1.17845	39.02
1.19512	39.02
1.21178	39.02
1.22845	39.02
1.24512	39.02
1.26178	39.02
1.27845	39.02
1.29512	39.02
1.31178	39.02
1.32845	39.01
1.34512	39.02
1.36178	39.02
1.37845	39.02
1.39512	39.02
1.41178	39.02
1.42845	39.02
1.44512	39.02
1.46178	39.02
1.47845	39.02
1.49512	39.02
1.51178	39.02
1.52845	39.02
1.54512	39.02
1.56178	39.02
1.57845	39.02
1.59512	39.02
1.61178	39.01
1.62845	39.00
1.64512	38.98
1.66178	38.95
1.67845	38.92
1.69512	38.88
1.71178	38.84
1.72845	38.81
1.74512	38.79
1.76178	38.76
1.77845	38.72
1.79512	38.69
1.81178	38.66
1.82845	38.63
1.84512	38.60
1.86178	38.56
1.87845	38.53
1.89512	38.51
1.91178	38.48
1.92845	38.44
1.94512	38.42
1.96178	38.38
1.97845	38.35
1.99512	38.33
2.01178	38.29
2.02845	38.26
2.04512	38.23
2.06178	38.20
2.07845	38.17
2.09512	38.14
2.11178	38.11
2.12845	38.08
2.14512	38.06
2.16178	38.02
2.17845	38.00
2.19512	37.97
2.21178	37.94
2.22845	37.91
2.24512	37.88
2.26178	37.85
2.27845	37.82
2.29512	37.79
2.31178	37.76
2.32845	37.73
2.34512	37.70
2.36178	37.67
2.37845	37.66
2.39512	37.65
2.41178	37.66
2.42845	37.66
2.44512	37.66
2.46178	37.66
2.47845	37.65
2.49512	37.65
2.51178	37.65
2.52845	37.65
2.54512	37.65
2.56178	37.65
2.57845	37.65
2.59512	37.65
2.61178	37.65
2.62845	37.65
2.64512	37.65
2.66178	37.65
2.67845	37.65
2.69512	37.65
2.71178	37.65
2.72845	37.65
2.74512	37.64
2.76178	37.65
2.77845	37.65
2.79512	37.64
2.81178	37.64
2.82845	37.64
2.84512	37.64
2.86178	37.64
2.87845	37.64
2.89512	37.64
2.91178	37.64
2.92845	37.64
2.94512	37.64
2.96178	37.64
2.97845	37.64
2.99512	37.63
3.01178	37.63
3.02845	37.63
3.04512	37.63
3.06178	37.63
3.07845	37.63
3.09512	37.63
3.11178	37.63
3.12845	37.62
3.14512	37.62
3.16178	37.62
3.17845	37.62
3.19512	37.62
3.21178	37.63
3.22845	37.63
3.24512	37.63
3.26178	37.63
3.27845	37.63
3.29512	37.63
3.31178	37.63
3.32845	37.63
3.34512	37.63
3.36178	37.63
3.37845	37.63
3.39512	37.63
3.41178	37.63
3.42845	37.63
3.44512	37.63
3.46178	37.63
3.47845	37.63
3.49512	37.63
3.51178	37.63
3.52845	37.63
3.54512	37.63
3.56178	37.63
3.57845	37.63
3.59512	37.63
3.61178	37.63
3.62845	37.63
3.64512	37.63
3.66178	37.63
3.67845	37.63
3.69512	37.63
3.71178	37.63
3.72845	37.63
3.74512	37.63
3.76178	37.63
3.77845	37.63
3.79512	37.63
3.81178	37.63
3.82845	37.63
3.84512	37.63
3.86178	37.63
3.87845	37.63
3.89512	37.62
3.91178	37.62
3.92845	37.62
3.94512	37.62
3.96178	37.62
3.97845	37.63
3.99512	37.63

