[Header]
Application Name	LabSolutions
Version	5.110
Data File Name	C:\Users\User\Desktop\GC Analyses\Jack\Nachusa Grasslands Sampling\T2 Timepoint July 12th\T2_07122022_022.gcd
Output Date	3/14/2023
Output Time	3:42:31 PM

[File Information]
Type	Data File
Generated	3/10/2023 2:46:06 PM
Generated by	System Administrator
Modified	3/10/2023 2:53:00 PM
Modified by	System Administrator

[Sample Information]
Operator Name	System Administrator
Acquired	3/10/2023 2:48:59 PM
Sample Type	0:Unknown
Level	0
Sample Name	022
Sample ID	022
ISTD Amount1	1
ISTD Amount2	1
ISTD Amount3	1
ISTD Amount4	1
ISTD Amount5	1
ISTD Amount6	1
ISTD Amount7	1
ISTD Amount8	1
ISTD Amount9	1
ISTD Amount10	1
ISTD Amount11	1
ISTD Amount12	1
ISTD Amount13	1
ISTD Amount14	1
ISTD Amount15	1
ISTD Amount16	1
ISTD Amount17	1
ISTD Amount18	1
ISTD Amount19	1
ISTD Amount20	1
ISTD Amount21	1
ISTD Amount22	1
ISTD Amount23	1
ISTD Amount24	1
ISTD Amount25	1
ISTD Amount26	1
ISTD Amount27	1
ISTD Amount28	1
ISTD Amount29	1
ISTD Amount30	1
ISTD Amount31	1
ISTD Amount32	1
Sample Amount	1
Dilution Factor	1
Vial#	21
Injection Volume	1
Injection Count	1
Bar Code	

[Original Files]
Data File	C:\Users\User\Desktop\GC Analyses\Jack\Nachusa Grasslands Sampling\T1 Timepoint July 12th\T2_07122022_022.gcd
Method File	C:\LabSolutions\Data\GHG_4min_2022\ghg3_togas_w_acet_4 min_new_int.gcm
Batch File	C:\LabSolutions\Data\AutoSamplerTesting\T2_07122022.gcb
Report Format File	c:\LabSolutions\System\DEFAULT.lsr

[File Description]


[Configuration]
Instrument Name	C0B7VH3-Instrument1
Instrument #	1
Line #	1
# of Detectors	3
Detector ID	DET#1	DET#2	DET#3
Detector Name	FID	PTCD	ECD
# of Channels	1	1	1

[Peak Table(Ch1)]
# of Peaks	3
Peak#	R.Time	I.Time	F.Time	Area	Height	A/H	Conc.	Mark	ID#	Name	k'	Plate #	Plate Ht.	Tailing	Resolution	Sep.Factor	Area Ratio	Height Ratio	Conc. %	Norm Conc.
1	1.476	1.435	1.538	24052	11385	2.113	169.810	   	1	CO	0.000	9217	16.275	1.268	0.000	0.000	0	0	22.575	22.575
2	1.567	1.538	1.619	4516	2242	2.015	87.322	 V 	2	CH4	0.062	10381	14.450	0.000	1.490	0.000	0	0	11.609	11.609
3	1.996	1.949	2.579	1972596	944382	2.089	495.068	   	3	CO2	0.353	17547	8.549	1.237	7.043	5.680	0	0	65.816	65.816

[Peak Table(Ch2)]
# of Peaks	0

[Peak Table(Ch3)]
# of Peaks	5
Peak#	R.Time	I.Time	F.Time	Area	Height	A/H	Conc.	Mark	ID#	Name	k'	Plate #	Plate Ht.	Tailing	Resolution	Sep.Factor	Area Ratio	Height Ratio	Conc. %	Norm Conc.
1	2.462	2.227	2.513	2340	587	3.989	0.000	   			0.000	8175	18.348	0.000	0.000	0.000	0	0	0.000	0.000
2	2.535	2.513	2.638	1397	327	4.266	0.000	 V 			0.030	3643	41.172	0.000	0.530	0.000	0	0	0.000	0.000
3	2.675	2.638	2.722	234	67	3.476	0.000	 V 			0.086	10101	14.850	0.000	1.015	2.900	0	0	0.000	0.000
4	2.876	2.722	3.041	19143	4915	3.895	0.489	 V 	1	N2O	0.168	13154	11.404	1.678	1.951	1.948	0	0	100.000	100.000
5	3.188	3.045	3.995	14878	419	35.472	0.000	   	2	SF6	0.295	213	705.699	3.325	0.639	1.752	0	0	0.000	0.000

[Compound Results(Ch1)]
# of IDs	6
ID#	Name	R.Time	Area	Height	Conc.	Curve	3rd	2nd	1st	Constant	Area Ratio	Height Ratio	Conc. %	Norm Conc.
1	CO	1.476	24052	11385	169.810	Linear	0.000000e+00	0.000000e+00	1.416423e+002	0.000000e+00	0	0	22.575	22.575
2	CH4	1.567	4516	2242	87.322	Linear	0.000000e+00	0.000000e+00	5.171738e+001	0.000000e+00	0	0	11.609	11.609
3	CO2	1.996	1972596	944382	495.068	Linear	0.000000e+00	0.000000e+00	3.984494e+003	0.000000e+00	0	0	65.816	65.816
4	Ethylene	0.000	0	0	0.000	Linear	0.000000e+00	0.000000e+00	0.000000e+00	0.000000e+00	0	0	0.000	0.000
5	Acetylene	0.000	0	0	0.000	Linear	0.000000e+00	0.000000e+00	0.000000e+00	0.000000e+00	0	0	0.000	0.000
6	Ethane	0.000	0	0	0.000	Linear	0.000000e+00	0.000000e+00	0.000000e+00	0.000000e+00	0	0	0.000	0.000

[Compound Results(Ch2)]
# of IDs	5
ID#	Name	R.Time	Area	Height	Conc.	Curve	3rd	2nd	1st	Constant	Area Ratio	Height Ratio	Conc. %	Norm Conc.
1	Hydrogen	0.000	0	0	0.000	Linear	0.000000e+00	0.000000e+00	0.000000e+00	0.000000e+00	0	0	0.000	0.000
2	Oxygen	0.000	0	0	0.000	Linear	0.000000e+00	0.000000e+00	0.000000e+00	0.000000e+00	0	0	0.000	0.000
3	Nitrogen	0.000	0	0	0.000	Linear	0.000000e+00	0.000000e+00	0.000000e+00	0.000000e+00	0	0	0.000	0.000
4	Methane	0.000	0	0	0.000	Linear	0.000000e+00	0.000000e+00	0.000000e+00	0.000000e+00	0	0	0.000	0.000
5	Carbon Monoxide	0.000	0	0	0.000	Linear	0.000000e+00	0.000000e+00	0.000000e+00	0.000000e+00	0	0	0.000	0.000

[Compound Results(Ch3)]
# of IDs	2
ID#	Name	R.Time	Area	Height	Conc.	Curve	3rd	2nd	1st	Constant	Area Ratio	Height Ratio	Conc. %	Norm Conc.
1	N2O	2.876	19143	4915	0.489	Linear	0.000000e+00	0.000000e+00	3.915173e+004	0.000000e+00	0	0	100.000	100.000
2	SF6	3.188	14878	419	0.000	Linear	0.000000e+00	0.000000e+00	0.000000e+00	0.000000e+00	0	0	0.000	0.000

[Group Results(Ch1)]
# of Groups	0

[Group Results(Ch2)]
# of Groups	0

[Group Results(Ch3)]
# of Groups	0

[Chromatogram (Ch1)]
Interval(msec)	220
# of Points	1091
Start Time(min)	0.002
End Time(min)	3.998
R.Time (min)	Intensity
0.00167	-21
0.00533	-20
0.00900	-17
0.01267	-9
0.01633	-1
0.02000	1
0.02367	-4
0.02733	-11
0.03100	-14
0.03467	-14
0.03833	-10
0.04200	-3
0.04567	6
0.04933	13
0.05300	17
0.05667	17
0.06033	16
0.06400	15
0.06767	13
0.07133	11
0.07500	11
0.07867	13
0.08233	16
0.08600	16
0.08967	10
0.09333	3
0.09700	-1
0.10067	1
0.10433	5
0.10800	10
0.11167	11
0.11533	2
0.11900	-11
0.12267	-17
0.12633	-15
0.13000	-11
0.13367	-12
0.13733	-17
0.14100	-21
0.14467	-24
0.14833	-32
0.15200	-42
0.15567	-47
0.15933	-45
0.16300	-42
0.16667	-41
0.17033	-42
0.17400	-43
0.17767	-39
0.18133	-32
0.18500	-26
0.18867	-24
0.19233	-26
0.19600	-31
0.19967	-36
0.20333	-41
0.20700	-43
0.21067	-43
0.21433	-42
0.21800	-40
0.22167	-39
0.22533	-35
0.22900	-27
0.23267	-19
0.23633	-12
0.24000	-12
0.24367	-13
0.24733	-20
0.25100	-32
0.25467	-42
0.25833	-49
0.26200	-51
0.26567	-51
0.26933	-47
0.27300	-36
0.27667	-24
0.28033	-18
0.28400	-18
0.28767	-20
0.29133	-25
0.29500	-34
0.29867	-44
0.30233	-46
0.30600	-39
0.30967	-35
0.31333	-35
0.31700	-39
0.32067	-45
0.32433	-51
0.32800	-53
0.33167	-59
0.33533	-62
0.33900	-60
0.34267	-54
0.34633	-50
0.35000	-45
0.35367	-39
0.35733	-31
0.36100	-28
0.36467	-29
0.36833	-32
0.37200	-30
0.37567	-26
0.37933	-27
0.38300	-30
0.38667	-31
0.39033	-29
0.39400	-25
0.39767	-28
0.40133	-34
0.40500	-36
0.40867	-36
0.41233	-35
0.41600	-30
0.41967	-21
0.42333	-14
0.42700	-14
0.43067	-18
0.43433	-25
0.43800	-33
0.44167	-40
0.44533	-47
0.44900	-52
0.45267	-55
0.45633	-58
0.46000	-59
0.46367	-58
0.46733	-54
0.47100	-43
0.47467	-35
0.47833	-28
0.48200	-20
0.48567	-15
0.48933	-17
0.49300	-26
0.49667	-38
0.50033	-50
0.50400	-62
0.50767	-70
0.51133	-72
0.51500	-67
0.51867	-65
0.52233	-64
0.52600	-63
0.52967	-62
0.53333	-59
0.53700	-52
0.54067	-46
0.54433	-43
0.54800	-43
0.55167	-43
0.55533	-44
0.55900	-46
0.56267	-44
0.56633	-37
0.57000	-29
0.57367	-28
0.57733	-31
0.58100	-35
0.58467	-39
0.58833	-43
0.59200	-44
0.59567	-43
0.59933	-43
0.60300	-43
0.60667	-47
0.61033	-54
0.61400	-58
0.61767	-64
0.62133	-71
0.62500	-69
0.62867	-61
0.63233	-53
0.63600	-47
0.63967	-44
0.64333	-44
0.64700	-47
0.65067	-49
0.65433	-53
0.65800	-57
0.66167	-61
0.66533	-65
0.66900	-66
0.67267	-66
0.67633	-66
0.68000	-64
0.68367	-59
0.68733	-53
0.69100	-48
0.69467	-46
0.69833	-48
0.70200	-50
0.70567	-52
0.70933	-55
0.71300	-57
0.71667	-56
0.72033	-49
0.72400	-44
0.72767	-41
0.73133	-42
0.73500	-45
0.73867	-45
0.74233	-42
0.74600	-45
0.74967	-52
0.75333	-56
0.75700	-53
0.76067	-48
0.76433	-42
0.76800	-33
0.77167	-25
0.77533	-23
0.77900	-28
0.78267	-38
0.78633	-49
0.79000	-60
0.79367	-70
0.79733	-77
0.80100	-77
0.80467	-72
0.80833	-64
0.81200	-60
0.81567	-57
0.81933	-53
0.82300	-50
0.82667	-52
0.83033	-56
0.83400	-61
0.83767	-58
0.84133	-53
0.84500	-52
0.84867	-54
0.85233	-60
0.85600	-66
0.85967	-71
0.86333	-74
0.86700	-79
0.87067	-83
0.87433	-82
0.87800	-77
0.88167	-70
0.88533	-62
0.88900	-55
0.89267	-48
0.89633	-43
0.90000	-46
0.90367	-51
0.90733	-55
0.91100	-54
0.91467	-49
0.91833	-44
0.92200	-39
0.92567	-37
0.92933	-36
0.93300	-37
0.93667	-41
0.94033	-44
0.94400	-45
0.94767	-44
0.95133	-39
0.95500	-32
0.95867	-28
0.96233	-28
0.96600	-24
0.96967	-19
0.97333	-14
0.97700	-11
0.98067	-13
0.98433	-15
0.98800	-15
0.99167	-15
0.99533	-18
0.99900	-26
1.00267	-38
1.00633	-47
1.01000	-48
1.01367	-45
1.01733	-42
1.02100	-42
1.02467	-39
1.02833	-34
1.03200	-28
1.03567	-21
1.03933	-17
1.04300	-19
1.04667	-26
1.05033	-33
1.05400	-34
1.05767	-26
1.06133	-13
1.06500	-8
1.06867	-4
1.07233	-6
1.07600	-13
1.07967	-25
1.08333	-36
1.08700	-48
1.09067	-58
1.09433	-60
1.09800	-56
1.10167	-47
1.10533	-41
1.10900	-43
1.11267	-49
1.11633	-55
1.12000	-59
1.12367	-58
1.12733	-56
1.13100	-55
1.13467	-52
1.13833	-49
1.14200	-45
1.14567	-40
1.14933	-34
1.15300	-30
1.15667	-27
1.16033	-23
1.16400	-19
1.16767	-15
1.17133	-15
1.17500	-21
1.17867	-33
1.18233	-47
1.18600	-58
1.18967	-62
1.19333	-61
1.19700	-56
1.20067	-48
1.20433	-41
1.20800	-37
1.21167	-36
1.21533	-33
1.21900	-29
1.22267	-28
1.22633	-33
1.23000	-40
1.23367	-46
1.23733	-51
1.24100	-53
1.24467	-52
1.24833	-50
1.25200	-49
1.25567	-47
1.25933	-45
1.26300	-42
1.26667	-38
1.27033	-29
1.27400	-16
1.27767	-5
1.28133	-2
1.28500	-8
1.28867	-20
1.29233	-35
1.29600	-49
1.29967	-58
1.30333	-62
1.30700	-65
1.31067	-71
1.31433	-79
1.31800	-87
1.32167	-92
1.32533	-92
1.32900	-87
1.33267	-80
1.33633	-74
1.34000	-65
1.34367	-59
1.34733	-57
1.35100	-60
1.35467	-60
1.35833	-59
1.36200	-57
1.36567	-55
1.36933	-57
1.37300	-63
1.37667	-65
1.38033	-66
1.38400	-68
1.38767	-68
1.39133	-66
1.39500	-67
1.39867	-67
1.40233	-63
1.40600	-57
1.40967	-58
1.41333	-61
1.41700	-64
1.42067	-67
1.42433	-75
1.42800	-84
1.43167	-85
1.43533	-75
1.43900	-37
1.44267	81
1.44633	345
1.45000	960
1.45367	2255
1.45733	4216
1.46100	6422
1.46467	8435
1.46833	10008
1.47200	11009
1.47567	11326
1.47933	10889
1.48300	9761
1.48667	8176
1.49033	6459
1.49400	4878
1.49767	3573
1.50133	2570
1.50500	1836
1.50867	1315
1.51233	949
1.51600	690
1.51967	508
1.52333	382
1.52700	294
1.53067	234
1.53433	198
1.53800	196
1.54167	267
1.54533	464
1.54900	796
1.55267	1201
1.55633	1593
1.56000	1912
1.56367	2130
1.56733	2218
1.57100	2144
1.57467	1915
1.57833	1576
1.58200	1207
1.58567	875
1.58933	613
1.59300	419
1.59667	281
1.60033	183
1.60400	111
1.60767	60
1.61133	26
1.61500	6
1.61867	-4
1.62233	-9
1.62600	-9
1.62967	-7
1.63333	-7
1.63700	-8
1.64067	-6
1.64433	-3
1.64800	-3
1.65167	-8
1.65533	-15
1.65900	-28
1.66267	-40
1.66633	-48
1.67000	-52
1.67367	-49
1.67733	-44
1.68100	-43
1.68467	-45
1.68833	-48
1.69200	-49
1.69567	-49
1.69933	-47
1.70300	-47
1.70667	-45
1.71033	-42
1.71400	-38
1.71767	-36
1.72133	-35
1.72500	-39
1.72867	-47
1.73233	-53
1.73600	-56
1.73967	-57
1.74333	-59
1.74700	-60
1.75067	-63
1.75433	-71
1.75800	-75
1.76167	-72
1.76533	-65
1.76900	-60
1.77267	-55
1.77633	-52
1.78000	-52
1.78367	-50
1.78733	-47
1.79100	-47
1.79467	-47
1.79833	-49
1.80200	-50
1.80567	-51
1.80933	-56
1.81300	-62
1.81667	-61
1.82033	-55
1.82400	-46
1.82767	-40
1.83133	-39
1.83500	-43
1.83867	-51
1.84233	-58
1.84600	-60
1.84967	-62
1.85333	-62
1.85700	-59
1.86067	-56
1.86433	-58
1.86800	-62
1.87167	-65
1.87533	-64
1.87900	-57
1.88267	-50
1.88633	-47
1.89000	-51
1.89367	-58
1.89733	-63
1.90100	-65
1.90467	-66
1.90833	-65
1.91200	-63
1.91567	-58
1.91933	-54
1.92300	-48
1.92667	-46
1.93033	-46
1.93400	-49
1.93767	-51
1.94133	-52
1.94500	-54
1.94867	-51
1.95233	-10
1.95600	265
1.95967	1764
1.96333	8087
1.96700	28392
1.97067	78682
1.97433	175233
1.97800	320982
1.98167	498237
1.98533	675940
1.98900	823247
1.99267	916999
1.99633	944362
2.00000	904442
2.00367	808446
2.00733	677499
2.01100	536122
2.01467	404476
2.01833	294196
2.02200	208685
2.02567	145951
2.02933	101659
2.03300	71169
2.03667	50497
2.04033	36583
2.04400	27211
2.04767	20848
2.05133	16471
2.05500	13397
2.05867	11190
2.06233	9563
2.06600	8327
2.06967	7363
2.07333	6595
2.07700	5977
2.08067	5474
2.08433	5058
2.08800	4701
2.09167	4386
2.09533	4103
2.09900	3853
2.10267	3636
2.10633	3445
2.11000	3272
2.11367	3116
2.11733	2972
2.12100	2834
2.12467	2707
2.12833	2594
2.13200	2493
2.13567	2398
2.13933	2307
2.14300	2226
2.14667	2152
2.15033	2083
2.15400	2013
2.15767	1943
2.16133	1876
2.16500	1812
2.16867	1753
2.17233	1699
2.17600	1646
2.17967	1594
2.18333	1546
2.18700	1500
2.19067	1457
2.19433	1420
2.19800	1388
2.20167	1356
2.20533	1322
2.20900	1286
2.21267	1254
2.21633	1224
2.22000	1188
2.22367	1153
2.22733	1123
2.23100	1097
2.23467	1071
2.23833	1051
2.24200	1032
2.24567	1013
2.24933	994
2.25300	974
2.25667	956
2.26033	937
2.26400	916
2.26767	896
2.27133	883
2.27500	876
2.27867	869
2.28233	855
2.28600	840
2.28967	825
2.29333	804
2.29700	782
2.30067	760
2.30433	735
2.30800	710
2.31167	692
2.31533	684
2.31900	679
2.32267	674
2.32633	666
2.33000	657
2.33367	646
2.33733	637
2.34100	629
2.34467	623
2.34833	619
2.35200	613
2.35567	606
2.35933	602
2.36300	598
2.36667	594
2.37033	590
2.37400	587
2.37767	585
2.38133	581
2.38500	572
2.38867	553
2.39233	531
2.39600	518
2.39967	513
2.40333	509
2.40700	508
2.41067	512
2.41433	513
2.41800	510
2.42167	508
2.42533	506
2.42900	500
2.43267	491
2.43633	483
2.44000	478
2.44367	475
2.44733	473
2.45100	472
2.45467	473
2.45833	473
2.46200	467
2.46567	457
2.46933	449
2.47300	447
2.47667	450
2.48033	450
2.48400	447
2.48767	443
2.49133	438
2.49500	433
2.49867	428
2.50233	423
2.50600	421
2.50967	421
2.51333	421
2.51700	417
2.52067	412
2.52433	408
2.52800	406
2.53167	403
2.53533	401
2.53900	397
2.54267	393
2.54633	393
2.55000	397
2.55367	402
2.55733	406
2.56100	403
2.56467	396
2.56833	387
2.57200	380
2.57567	369
2.57933	358
2.58300	349
2.58667	346
2.59033	349
2.59400	353
2.59767	355
2.60133	355
2.60500	357
2.60867	359
2.61233	359
2.61600	365
2.61967	371
2.62333	374
2.62700	374
2.63067	372
2.63433	369
2.63800	367
2.64167	362
2.64533	358
2.64900	355
2.65267	352
2.65633	350
2.66000	353
2.66367	352
2.66733	350
2.67100	354
2.67467	363
2.67833	370
2.68200	370
2.68567	362
2.68933	357
2.69300	357
2.69667	354
2.70033	349
2.70400	344
2.70767	342
2.71133	344
2.71500	346
2.71867	346
2.72233	342
2.72600	335
2.72967	335
2.73333	338
2.73700	347
2.74067	358
2.74433	368
2.74800	372
2.75167	371
2.75533	369
2.75900	369
2.76267	366
2.76633	362
2.77000	356
2.77367	353
2.77733	352
2.78100	354
2.78467	358
2.78833	359
2.79200	360
2.79567	358
2.79933	351
2.80300	343
2.80667	339
2.81033	341
2.81400	342
2.81767	342
2.82133	342
2.82500	344
2.82867	352
2.83233	361
2.83600	366
2.83967	369
2.84333	370
2.84700	368
2.85067	366
2.85433	363
2.85800	360
2.86167	357
2.86533	355
2.86900	355
2.87267	353
2.87633	347
2.88000	343
2.88367	341
2.88733	339
2.89100	337
2.89467	341
2.89833	346
2.90200	352
2.90567	359
2.90933	365
2.91300	366
2.91667	361
2.92033	357
2.92400	352
2.92767	347
2.93133	340
2.93500	334
2.93867	333
2.94233	337
2.94600	346
2.94967	353
2.95333	354
2.95700	352
2.96067	352
2.96433	359
2.96800	371
2.97167	381
2.97533	382
2.97900	376
2.98267	369
2.98633	366
2.99000	362
2.99367	357
2.99733	356
3.00100	361
3.00467	368
3.00833	378
3.01200	386
3.01567	390
3.01933	389
3.02300	384
3.02667	379
3.03033	376
3.03400	374
3.03767	372
3.04133	368
3.04500	364
3.04867	363
3.05233	366
3.05600	373
3.05967	380
3.06333	384
3.06700	383
3.07067	376
3.07433	372
3.07800	371
3.08167	377
3.08533	385
3.08900	387
3.09267	382
3.09633	377
3.10000	374
3.10367	369
3.10733	362
3.11100	356
3.11467	353
3.11833	354
3.12200	355
3.12567	356
3.12933	359
3.13300	367
3.13667	379
3.14033	385
3.14400	386
3.14767	381
3.15133	372
3.15500	362
3.15867	355
3.16233	353
3.16600	353
3.16967	353
3.17333	352
3.17700	354
3.18067	358
3.18433	361
3.18800	366
3.19167	371
3.19533	377
3.19900	380
3.20267	379
3.20633	378
3.21000	380
3.21367	386
3.21733	390
3.22100	392
3.22467	392
3.22833	391
3.23200	379
3.23567	367
3.23933	360
3.24300	356
3.24667	356
3.25033	357
3.25400	361
3.25767	367
3.26133	375
3.26500	382
3.26867	385
3.27233	386
3.27600	386
3.27967	379
3.28333	370
3.28700	364
3.29067	362
3.29433	364
3.29800	367
3.30167	368
3.30533	368
3.30900	368
3.31267	370
3.31633	369
3.32000	363
3.32367	360
3.32733	358
3.33100	352
3.33467	350
3.33833	354
3.34200	359
3.34567	359
3.34933	353
3.35300	347
3.35667	346
3.36033	348
3.36400	352
3.36767	359
3.37133	366
3.37500	368
3.37867	363
3.38233	354
3.38600	344
3.38967	337
3.39333	334
3.39700	338
3.40067	339
3.40433	340
3.40800	341
3.41167	338
3.41533	334
3.41900	335
3.42267	337
3.42633	338
3.43000	339
3.43367	342
3.43733	347
3.44100	354
3.44467	358
3.44833	357
3.45200	354
3.45567	347
3.45933	342
3.46300	339
3.46667	337
3.47033	337
3.47400	342
3.47767	349
3.48133	351
3.48500	349
3.48867	347
3.49233	348
3.49600	353
3.49967	368
3.50333	386
3.50700	398
3.51067	397
3.51433	385
3.51800	368
3.52167	351
3.52533	338
3.52900	329
3.53267	326
3.53633	326
3.54000	325
3.54367	325
3.54733	329
3.55100	330
3.55467	330
3.55833	328
3.56200	326
3.56567	329
3.56933	336
3.57300	343
3.57667	348
3.58033	351
3.58400	355
3.58767	354
3.59133	348
3.59500	339
3.59867	336
3.60233	340
3.60600	346
3.60967	348
3.61333	344
3.61700	333
3.62067	320
3.62433	309
3.62800	303
3.63167	298
3.63533	295
3.63900	295
3.64267	295
3.64633	294
3.65000	297
3.65367	301
3.65733	303
3.66100	305
3.66467	304
3.66833	304
3.67200	306
3.67567	308
3.67933	309
3.68300	308
3.68667	310
3.69033	316
3.69400	324
3.69767	328
3.70133	327
3.70500	325
3.70867	324
3.71233	323
3.71600	319
3.71967	314
3.72333	311
3.72700	308
3.73067	307
3.73433	305
3.73800	305
3.74167	309
3.74533	313
3.74900	315
3.75267	317
3.75633	318
3.76000	320
3.76367	322
3.76733	322
3.77100	326
3.77467	331
3.77833	332
3.78200	328
3.78567	320
3.78933	310
3.79300	297
3.79667	287
3.80033	282
3.80400	277
3.80767	275
3.81133	277
3.81500	280
3.81867	288
3.82233	294
3.82600	296
3.82967	293
3.83333	290
3.83700	287
3.84067	283
3.84433	280
3.84800	278
3.85167	277
3.85533	272
3.85900	270
3.86267	272
3.86633	275
3.87000	282
3.87367	291
3.87733	299
3.88100	301
3.88467	300
3.88833	301
3.89200	303
3.89567	300
3.89933	297
3.90300	294
3.90667	287
3.91033	281
3.91400	270
3.91767	259
3.92133	252
3.92500	253
3.92867	256
3.93233	258
3.93600	260
3.93967	263
3.94333	269
3.94700	275
3.95067	281
3.95433	286
3.95800	291
3.96167	300
3.96533	302
3.96900	294
3.97267	282
3.97633	273
3.98000	266
3.98367	262
3.98733	259
3.99100	254
3.99467	251
3.99833	253

[Chromatogram (Ch2)]
Interval(msec)	220
# of Points	1091
Start Time(min)	0.002
End Time(min)	3.998
R.Time (min)	Intensity
0.00167	-0
0.00533	-0
0.00900	0
0.01267	0
0.01633	1
0.02000	1
0.02367	1
0.02733	2
0.03100	2
0.03467	2
0.03833	2
0.04200	2
0.04567	2
0.04933	2
0.05300	2
0.05667	1
0.06033	1
0.06400	1
0.06767	1
0.07133	2
0.07500	2
0.07867	2
0.08233	2
0.08600	2
0.08967	2
0.09333	2
0.09700	2
0.10067	2
0.10433	2
0.10800	2
0.11167	3
0.11533	3
0.11900	3
0.12267	3
0.12633	3
0.13000	3
0.13367	4
0.13733	4
0.14100	4
0.14467	4
0.14833	5
0.15200	5
0.15567	5
0.15933	5
0.16300	5
0.16667	5
0.17033	5
0.17400	5
0.17767	5
0.18133	5
0.18500	4
0.18867	4
0.19233	4
0.19600	4
0.19967	4
0.20333	4
0.20700	4
0.21067	4
0.21433	4
0.21800	4
0.22167	4
0.22533	4
0.22900	4
0.23267	4
0.23633	4
0.24000	4
0.24367	4
0.24733	4
0.25100	4
0.25467	3
0.25833	3
0.26200	3
0.26567	3
0.26933	3
0.27300	3
0.27667	3
0.28033	3
0.28400	3
0.28767	3
0.29133	3
0.29500	3
0.29867	3
0.30233	3
0.30600	3
0.30967	2
0.31333	2
0.31700	2
0.32067	2
0.32433	2
0.32800	2
0.33167	1
0.33533	1
0.33900	1
0.34267	1
0.34633	1
0.35000	1
0.35367	1
0.35733	1
0.36100	1
0.36467	1
0.36833	0
0.37200	0
0.37567	0
0.37933	-0
0.38300	-0
0.38667	-0
0.39033	-0
0.39400	-0
0.39767	0
0.40133	-0
0.40500	-0
0.40867	-0
0.41233	-1
0.41600	-1
0.41967	-1
0.42333	-0
0.42700	-0
0.43067	-0
0.43433	-1
0.43800	-1
0.44167	-1
0.44533	-1
0.44900	-1
0.45267	-1
0.45633	-1
0.46000	-0
0.46367	0
0.46733	0
0.47100	1
0.47467	1
0.47833	1
0.48200	1
0.48567	2
0.48933	2
0.49300	2
0.49667	2
0.50033	2
0.50400	2
0.50767	2
0.51133	2
0.51500	1
0.51867	1
0.52233	1
0.52600	1
0.52967	1
0.53333	1
0.53700	1
0.54067	1
0.54433	1
0.54800	1
0.55167	1
0.55533	1
0.55900	1
0.56267	1
0.56633	2
0.57000	2
0.57367	2
0.57733	2
0.58100	2
0.58467	3
0.58833	3
0.59200	3
0.59567	3
0.59933	3
0.60300	3
0.60667	3
0.61033	3
0.61400	3
0.61767	3
0.62133	3
0.62500	3
0.62867	2
0.63233	2
0.63600	2
0.63967	2
0.64333	2
0.64700	2
0.65067	2
0.65433	2
0.65800	1
0.66167	1
0.66533	1
0.66900	1
0.67267	1
0.67633	1
0.68000	1
0.68367	1
0.68733	1
0.69100	1
0.69467	1
0.69833	1
0.70200	1
0.70567	1
0.70933	1
0.71300	1
0.71667	2
0.72033	2
0.72400	1
0.72767	1
0.73133	1
0.73500	1
0.73867	1
0.74233	2
0.74600	2
0.74967	2
0.75333	2
0.75700	2
0.76067	2
0.76433	2
0.76800	1
0.77167	1
0.77533	1
0.77900	1
0.78267	1
0.78633	1
0.79000	1
0.79367	1
0.79733	1
0.80100	1
0.80467	1
0.80833	1
0.81200	1
0.81567	1
0.81933	1
0.82300	1
0.82667	1
0.83033	1
0.83400	0
0.83767	0
0.84133	0
0.84500	-0
0.84867	-0
0.85233	-1
0.85600	-1
0.85967	-1
0.86333	-1
0.86700	-1
0.87067	-2
0.87433	-2
0.87800	-2
0.88167	-2
0.88533	-2
0.88900	-2
0.89267	-1
0.89633	-1
0.90000	-1
0.90367	-1
0.90733	-0
0.91100	-0
0.91467	-0
0.91833	-0
0.92200	-0
0.92567	-0
0.92933	0
0.93300	-0
0.93667	-0
0.94033	-0
0.94400	-0
0.94767	-0
0.95133	-0
0.95500	-0
0.95867	-0
0.96233	-1
0.96600	-1
0.96967	-1
0.97333	-1
0.97700	-1
0.98067	-1
0.98433	-1
0.98800	-1
0.99167	-1
0.99533	-1
0.99900	-1
1.00267	-1
1.00633	-1
1.01000	-1
1.01367	-1
1.01733	-1
1.02100	-1
1.02467	-1
1.02833	-1
1.03200	-1
1.03567	-1
1.03933	-1
1.04300	-1
1.04667	-1
1.05033	-1
1.05400	-0
1.05767	-0
1.06133	0
1.06500	0
1.06867	0
1.07233	1
1.07600	1
1.07967	1
1.08333	1
1.08700	1
1.09067	0
1.09433	0
1.09800	0
1.10167	0
1.10533	0
1.10900	0
1.11267	0
1.11633	0
1.12000	0
1.12367	0
1.12733	0
1.13100	-0
1.13467	0
1.13833	0
1.14200	0
1.14567	0
1.14933	0
1.15300	1
1.15667	1
1.16033	1
1.16400	0
1.16767	0
1.17133	-0
1.17500	-0
1.17867	-1
1.18233	-1
1.18600	-1
1.18967	-1
1.19333	-1
1.19700	-1
1.20067	-1
1.20433	-1
1.20800	-1
1.21167	-1
1.21533	-2
1.21900	-2
1.22267	-2
1.22633	-2
1.23000	-2
1.23367	-2
1.23733	-2
1.24100	-2
1.24467	-2
1.24833	-2
1.25200	-2
1.25567	-2
1.25933	-1
1.26300	-1
1.26667	-1
1.27033	-1
1.27400	-1
1.27767	-1
1.28133	-1
1.28500	-1
1.28867	-1
1.29233	-1
1.29600	-1
1.29967	-1
1.30333	-1
1.30700	-1
1.31067	-1
1.31433	-1
1.31800	-1
1.32167	-1
1.32533	-1
1.32900	-1
1.33267	-1
1.33633	-1
1.34000	-1
1.34367	-1
1.34733	-2
1.35100	-2
1.35467	-2
1.35833	-1
1.36200	-1
1.36567	-1
1.36933	-1
1.37300	-1
1.37667	-1
1.38033	-0
1.38400	-0
1.38767	-0
1.39133	-0
1.39500	-1
1.39867	-1
1.40233	-1
1.40600	-1
1.40967	-1
1.41333	-1
1.41700	-1
1.42067	-0
1.42433	-0
1.42800	-0
1.43167	0
1.43533	0
1.43900	0
1.44267	1
1.44633	1
1.45000	1
1.45367	1
1.45733	1
1.46100	0
1.46467	0
1.46833	0
1.47200	0
1.47567	-0
1.47933	-0
1.48300	-1
1.48667	-1
1.49033	-2
1.49400	-2
1.49767	-2
1.50133	-2
1.50500	-2
1.50867	-2
1.51233	-2
1.51600	-2
1.51967	-1
1.52333	-1
1.52700	-1
1.53067	-1
1.53433	-0
1.53800	-0
1.54167	-0
1.54533	0
1.54900	0
1.55267	0
1.55633	0
1.56000	0
1.56367	0
1.56733	1
1.57100	1
1.57467	1
1.57833	1
1.58200	1
1.58567	0
1.58933	0
1.59300	-1
1.59667	-1
1.60033	-2
1.60400	-3
1.60767	-5
1.61133	-6
1.61500	-9
1.61867	-11
1.62233	-14
1.62600	-17
1.62967	-20
1.63333	-23
1.63700	-26
1.64067	-30
1.64433	-33
1.64800	-37
1.65167	-40
1.65533	-44
1.65900	-47
1.66267	-51
1.66633	-55
1.67000	-60
1.67367	-64
1.67733	-69
1.68100	-74
1.68467	-79
1.68833	-83
1.69200	-87
1.69567	-91
1.69933	-94
1.70300	-96
1.70667	-98
1.71033	-99
1.71400	-101
1.71767	-102
1.72133	-103
1.72500	-104
1.72867	-104
1.73233	-105
1.73600	-106
1.73967	-106
1.74333	-107
1.74700	-107
1.75067	-107
1.75433	-107
1.75800	-108
1.76167	-108
1.76533	-108
1.76900	-109
1.77267	-110
1.77633	-110
1.78000	-111
1.78367	-111
1.78733	-111
1.79100	-111
1.79467	-112
1.79833	-113
1.80200	-113
1.80567	-114
1.80933	-114
1.81300	-113
1.81667	-113
1.82033	-112
1.82400	-111
1.82767	-110
1.83133	-109
1.83500	-109
1.83867	-109
1.84233	-109
1.84600	-109
1.84967	-110
1.85333	-110
1.85700	-111
1.86067	-112
1.86433	-112
1.86800	-112
1.87167	-112
1.87533	-112
1.87900	-112
1.88267	-111
1.88633	-111
1.89000	-111
1.89367	-111
1.89733	-111
1.90100	-111
1.90467	-111
1.90833	-111
1.91200	-111
1.91567	-111
1.91933	-110
1.92300	-110
1.92667	-110
1.93033	-110
1.93400	-110
1.93767	-109
1.94133	-109
1.94500	-109
1.94867	-109
1.95233	-108
1.95600	-108
1.95967	-107
1.96333	-107
1.96700	-106
1.97067	-106
1.97433	-106
1.97800	-105
1.98167	-105
1.98533	-105
1.98900	-105
1.99267	-105
1.99633	-105
2.00000	-105
2.00367	-105
2.00733	-105
2.01100	-105
2.01467	-105
2.01833	-105
2.02200	-104
2.02567	-104
2.02933	-103
2.03300	-102
2.03667	-102
2.04033	-101
2.04400	-101
2.04767	-100
2.05133	-100
2.05500	-99
2.05867	-99
2.06233	-99
2.06600	-99
2.06967	-100
2.07333	-100
2.07700	-100
2.08067	-100
2.08433	-100
2.08800	-100
2.09167	-99
2.09533	-99
2.09900	-99
2.10267	-98
2.10633	-97
2.11000	-96
2.11367	-95
2.11733	-95
2.12100	-94
2.12467	-94
2.12833	-94
2.13200	-94
2.13567	-94
2.13933	-94
2.14300	-94
2.14667	-93
2.15033	-92
2.15400	-92
2.15767	-92
2.16133	-92
2.16500	-92
2.16867	-92
2.17233	-91
2.17600	-91
2.17967	-91
2.18333	-90
2.18700	-90
2.19067	-90
2.19433	-91
2.19800	-91
2.20167	-91
2.20533	-92
2.20900	-92
2.21267	-91
2.21633	-91
2.22000	-90
2.22367	-88
2.22733	-87
2.23100	-86
2.23467	-86
2.23833	-85
2.24200	-85
2.24567	-85
2.24933	-85
2.25300	-85
2.25667	-85
2.26033	-85
2.26400	-85
2.26767	-85
2.27133	-85
2.27500	-86
2.27867	-87
2.28233	-87
2.28600	-87
2.28967	-87
2.29333	-86
2.29700	-86
2.30067	-85
2.30433	-84
2.30800	-83
2.31167	-83
2.31533	-82
2.31900	-81
2.32267	-81
2.32633	-80
2.33000	-80
2.33367	-79
2.33733	-78
2.34100	-78
2.34467	-77
2.34833	-77
2.35200	-77
2.35567	-75
2.35933	-74
2.36300	-73
2.36667	-71
2.37033	-69
2.37400	-67
2.37767	-64
2.38133	-60
2.38500	-57
2.38867	-52
2.39233	-48
2.39600	-43
2.39967	-38
2.40333	-34
2.40700	-30
2.41067	-27
2.41433	-24
2.41800	-21
2.42167	-18
2.42533	-15
2.42900	-13
2.43267	-12
2.43633	-11
2.44000	-10
2.44367	-9
2.44733	-9
2.45100	-8
2.45467	-7
2.45833	-6
2.46200	-5
2.46567	-4
2.46933	-4
2.47300	-3
2.47667	-2
2.48033	-2
2.48400	-1
2.48767	0
2.49133	1
2.49500	3
2.49867	4
2.50233	4
2.50600	5
2.50967	6
2.51333	7
2.51700	8
2.52067	9
2.52433	10
2.52800	11
2.53167	11
2.53533	12
2.53900	12
2.54267	12
2.54633	13
2.55000	13
2.55367	13
2.55733	14
2.56100	14
2.56467	15
2.56833	15
2.57200	16
2.57567	16
2.57933	16
2.58300	16
2.58667	16
2.59033	16
2.59400	16
2.59767	15
2.60133	15
2.60500	15
2.60867	15
2.61233	16
2.61600	16
2.61967	16
2.62333	17
2.62700	17
2.63067	17
2.63433	17
2.63800	18
2.64167	18
2.64533	19
2.64900	20
2.65267	20
2.65633	21
2.66000	21
2.66367	21
2.66733	22
2.67100	22
2.67467	22
2.67833	22
2.68200	22
2.68567	23
2.68933	23
2.69300	23
2.69667	23
2.70033	23
2.70400	24
2.70767	24
2.71133	23
2.71500	23
2.71867	23
2.72233	23
2.72600	23
2.72967	23
2.73333	23
2.73700	23
2.74067	23
2.74433	24
2.74800	24
2.75167	25
2.75533	25
2.75900	26
2.76267	26
2.76633	27
2.77000	27
2.77367	27
2.77733	27
2.78100	27
2.78467	27
2.78833	27
2.79200	27
2.79567	27
2.79933	27
2.80300	27
2.80667	27
2.81033	27
2.81400	27
2.81767	27
2.82133	26
2.82500	26
2.82867	26
2.83233	25
2.83600	24
2.83967	23
2.84333	21
2.84700	18
2.85067	12
2.85433	4
2.85800	-7
2.86167	-22
2.86533	-41
2.86900	-65
2.87267	-93
2.87633	-125
2.88000	-162
2.88367	-202
2.88733	-246
2.89100	-293
2.89467	-342
2.89833	-394
2.90200	-447
2.90567	-501
2.90933	-556
2.91300	-611
2.91667	-666
2.92033	-720
2.92400	-773
2.92767	-824
2.93133	-876
2.93500	-932
2.93867	-991
2.94233	-1045
2.94600	-1083
2.94967	-1098
2.95333	-1086
2.95700	-1051
2.96067	-996
2.96433	-928
2.96800	-851
2.97167	-770
2.97533	-690
2.97900	-613
2.98267	-539
2.98633	-472
2.99000	-410
2.99367	-355
2.99733	-305
3.00100	-261
3.00467	-223
3.00833	-190
3.01200	-161
3.01567	-135
3.01933	-114
3.02300	-95
3.02667	-79
3.03033	-66
3.03400	-54
3.03767	-44
3.04133	-36
3.04500	-29
3.04867	-22
3.05233	-17
3.05600	-12
3.05967	-7
3.06333	-4
3.06700	-0
3.07067	2
3.07433	4
3.07800	6
3.08167	8
3.08533	9
3.08900	10
3.09267	11
3.09633	12
3.10000	12
3.10367	13
3.10733	13
3.11100	13
3.11467	14
3.11833	14
3.12200	14
3.12567	15
3.12933	15
3.13300	16
3.13667	16
3.14033	17
3.14400	17
3.14767	17
3.15133	18
3.15500	18
3.15867	19
3.16233	19
3.16600	19
3.16967	19
3.17333	20
3.17700	20
3.18067	20
3.18433	20
3.18800	20
3.19167	20
3.19533	21
3.19900	21
3.20267	21
3.20633	21
3.21000	22
3.21367	22
3.21733	22
3.22100	22
3.22467	22
3.22833	22
3.23200	22
3.23567	22
3.23933	22
3.24300	22
3.24667	22
3.25033	23
3.25400	23
3.25767	23
3.26133	23
3.26500	23
3.26867	23
3.27233	23
3.27600	23
3.27967	23
3.28333	23
3.28700	23
3.29067	23
3.29433	23
3.29800	23
3.30167	23
3.30533	23
3.30900	24
3.31267	24
3.31633	24
3.32000	24
3.32367	24
3.32733	24
3.33100	24
3.33467	24
3.33833	25
3.34200	25
3.34567	25
3.34933	25
3.35300	26
3.35667	26
3.36033	26
3.36400	26
3.36767	26
3.37133	26
3.37500	27
3.37867	27
3.38233	27
3.38600	27
3.38967	27
3.39333	27
3.39700	27
3.40067	27
3.40433	27
3.40800	27
3.41167	27
3.41533	27
3.41900	27
3.42267	27
3.42633	27
3.43000	27
3.43367	27
3.43733	27
3.44100	27
3.44467	27
3.44833	27
3.45200	27
3.45567	27
3.45933	27
3.46300	27
3.46667	26
3.47033	26
3.47400	26
3.47767	27
3.48133	27
3.48500	27
3.48867	27
3.49233	27
3.49600	27
3.49967	27
3.50333	27
3.50700	27
3.51067	27
3.51433	27
3.51800	27
3.52167	28
3.52533	28
3.52900	28
3.53267	28
3.53633	28
3.54000	28
3.54367	28
3.54733	27
3.55100	27
3.55467	27
3.55833	27
3.56200	27
3.56567	27
3.56933	26
3.57300	26
3.57667	26
3.58033	27
3.58400	27
3.58767	27
3.59133	27
3.59500	27
3.59867	27
3.60233	27
3.60600	27
3.60967	27
3.61333	27
3.61700	27
3.62067	27
3.62433	27
3.62800	27
3.63167	27
3.63533	27
3.63900	27
3.64267	27
3.64633	27
3.65000	28
3.65367	28
3.65733	28
3.66100	28
3.66467	29
3.66833	29
3.67200	29
3.67567	29
3.67933	30
3.68300	30
3.68667	30
3.69033	30
3.69400	30
3.69767	30
3.70133	30
3.70500	30
3.70867	30
3.71233	30
3.71600	30
3.71967	30
3.72333	30
3.72700	30
3.73067	30
3.73433	30
3.73800	30
3.74167	31
3.74533	31
3.74900	30
3.75267	30
3.75633	30
3.76000	30
3.76367	30
3.76733	30
3.77100	30
3.77467	30
3.77833	31
3.78200	31
3.78567	31
3.78933	31
3.79300	31
3.79667	31
3.80033	31
3.80400	30
3.80767	30
3.81133	30
3.81500	30
3.81867	29
3.82233	29
3.82600	29
3.82967	29
3.83333	29
3.83700	29
3.84067	29
3.84433	28
3.84800	28
3.85167	28
3.85533	27
3.85900	27
3.86267	27
3.86633	27
3.87000	26
3.87367	26
3.87733	26
3.88100	26
3.88467	26
3.88833	26
3.89200	26
3.89567	27
3.89933	27
3.90300	27
3.90667	26
3.91033	26
3.91400	26
3.91767	26
3.92133	26
3.92500	26
3.92867	26
3.93233	26
3.93600	26
3.93967	26
3.94333	26
3.94700	27
3.95067	27
3.95433	27
3.95800	28
3.96167	28
3.96533	28
3.96900	28
3.97267	28
3.97633	28
3.98000	28
3.98367	28
3.98733	28
3.99100	28
3.99467	28
3.99833	28

[Chromatogram (Ch3)]
Interval(msec)	220
# of Points	1091
Start Time(min)	0.002
End Time(min)	3.998
R.Time (min)	Intensity
0.00167	-0
0.00533	-0
0.00900	0
0.01267	1
0.01633	1
0.02000	0
0.02367	0
0.02733	0
0.03100	-0
0.03467	0
0.03833	1
0.04200	1
0.04567	2
0.04933	-0
0.05300	-2
0.05667	-2
0.06033	0
0.06400	2
0.06767	4
0.07133	4
0.07500	4
0.07867	3
0.08233	2
0.08600	2
0.08967	2
0.09333	2
0.09700	2
0.10067	5
0.10433	4
0.10800	1
0.11167	-0
0.11533	-1
0.11900	1
0.12267	2
0.12633	2
0.13000	2
0.13367	3
0.13733	1
0.14100	-1
0.14467	-0
0.14833	2
0.15200	3
0.15567	4
0.15933	4
0.16300	4
0.16667	6
0.17033	6
0.17400	5
0.17767	5
0.18133	3
0.18500	3
0.18867	3
0.19233	4
0.19600	5
0.19967	4
0.20333	2
0.20700	0
0.21067	-1
0.21433	-0
0.21800	2
0.22167	4
0.22533	7
0.22900	4
0.23267	-0
0.23633	-3
0.24000	-2
0.24367	-1
0.24733	-2
0.25100	-3
0.25467	-0
0.25833	2
0.26200	3
0.26567	5
0.26933	5
0.27300	5
0.27667	4
0.28033	2
0.28400	2
0.28767	4
0.29133	6
0.29500	6
0.29867	6
0.30233	5
0.30600	6
0.30967	7
0.31333	8
0.31700	8
0.32067	7
0.32433	5
0.32800	3
0.33167	2
0.33533	2
0.33900	1
0.34267	1
0.34633	3
0.35000	7
0.35367	6
0.35733	6
0.36100	7
0.36467	6
0.36833	6
0.37200	6
0.37567	6
0.37933	6
0.38300	5
0.38667	4
0.39033	4
0.39400	5
0.39767	4
0.40133	3
0.40500	3
0.40867	4
0.41233	8
0.41600	9
0.41967	8
0.42333	6
0.42700	4
0.43067	5
0.43433	7
0.43800	8
0.44167	8
0.44533	8
0.44900	6
0.45267	4
0.45633	4
0.46000	6
0.46367	7
0.46733	10
0.47100	13
0.47467	14
0.47833	14
0.48200	14
0.48567	14
0.48933	13
0.49300	15
0.49667	16
0.50033	15
0.50400	13
0.50767	13
0.51133	12
0.51500	12
0.51867	11
0.52233	12
0.52600	13
0.52967	14
0.53333	16
0.53700	17
0.54067	17
0.54433	17
0.54800	17
0.55167	17
0.55533	18
0.55900	17
0.56267	17
0.56633	19
0.57000	21
0.57367	22
0.57733	22
0.58100	21
0.58467	23
0.58833	26
0.59200	28
0.59567	28
0.59933	27
0.60300	26
0.60667	24
0.61033	25
0.61400	25
0.61767	25
0.62133	26
0.62500	28
0.62867	28
0.63233	25
0.63600	22
0.63967	22
0.64333	21
0.64700	21
0.65067	22
0.65433	22
0.65800	21
0.66167	22
0.66533	25
0.66900	26
0.67267	27
0.67633	26
0.68000	24
0.68367	23
0.68733	24
0.69100	24
0.69467	24
0.69833	26
0.70200	28
0.70567	28
0.70933	28
0.71300	27
0.71667	26
0.72033	25
0.72400	24
0.72767	23
0.73133	22
0.73500	22
0.73867	22
0.74233	20
0.74600	20
0.74967	21
0.75333	22
0.75700	22
0.76067	21
0.76433	21
0.76800	19
0.77167	20
0.77533	23
0.77900	23
0.78267	21
0.78633	19
0.79000	21
0.79367	19
0.79733	16
0.80100	15
0.80467	15
0.80833	17
0.81200	19
0.81567	19
0.81933	18
0.82300	18
0.82667	18
0.83033	18
0.83400	19
0.83767	20
0.84133	19
0.84500	17
0.84867	16
0.85233	15
0.85600	13
0.85967	14
0.86333	14
0.86700	16
0.87067	19
0.87433	21
0.87800	20
0.88167	20
0.88533	20
0.88900	21
0.89267	21
0.89633	20
0.90000	19
0.90367	19
0.90733	21
0.91100	21
0.91467	20
0.91833	19
0.92200	20
0.92567	23
0.92933	24
0.93300	24
0.93667	22
0.94033	24
0.94400	23
0.94767	21
0.95133	18
0.95500	16
0.95867	15
0.96233	16
0.96600	18
0.96967	19
0.97333	18
0.97700	18
0.98067	18
0.98433	18
0.98800	18
0.99167	18
0.99533	18
0.99900	16
1.00267	15
1.00633	15
1.01000	14
1.01367	16
1.01733	18
1.02100	17
1.02467	16
1.02833	17
1.03200	17
1.03567	18
1.03933	18
1.04300	18
1.04667	17
1.05033	16
1.05400	16
1.05767	14
1.06133	11
1.06500	10
1.06867	11
1.07233	11
1.07600	10
1.07967	8
1.08333	6
1.08700	5
1.09067	6
1.09433	9
1.09800	11
1.10167	10
1.10533	9
1.10900	9
1.11267	8
1.11633	7
1.12000	7
1.12367	6
1.12733	7
1.13100	9
1.13467	10
1.13833	10
1.14200	11
1.14567	13
1.14933	14
1.15300	14
1.15667	15
1.16033	14
1.16400	12
1.16767	10
1.17133	10
1.17500	12
1.17867	14
1.18233	16
1.18600	16
1.18967	15
1.19333	16
1.19700	16
1.20067	18
1.20433	19
1.20800	19
1.21167	17
1.21533	16
1.21900	15
1.22267	16
1.22633	18
1.23000	21
1.23367	20
1.23733	18
1.24100	16
1.24467	15
1.24833	15
1.25200	14
1.25567	14
1.25933	14
1.26300	14
1.26667	12
1.27033	12
1.27400	15
1.27767	18
1.28133	19
1.28500	21
1.28867	21
1.29233	20
1.29600	20
1.29967	19
1.30333	18
1.30700	17
1.31067	15
1.31433	14
1.31800	16
1.32167	18
1.32533	17
1.32900	15
1.33267	16
1.33633	18
1.34000	20
1.34367	21
1.34733	22
1.35100	24
1.35467	22
1.35833	21
1.36200	20
1.36567	20
1.36933	19
1.37300	20
1.37667	23
1.38033	23
1.38400	24
1.38767	26
1.39133	26
1.39500	24
1.39867	23
1.40233	23
1.40600	22
1.40967	22
1.41333	22
1.41700	23
1.42067	22
1.42433	22
1.42800	23
1.43167	25
1.43533	25
1.43900	24
1.44267	22
1.44633	22
1.45000	23
1.45367	24
1.45733	25
1.46100	25
1.46467	23
1.46833	21
1.47200	22
1.47567	23
1.47933	22
1.48300	21
1.48667	20
1.49033	19
1.49400	20
1.49767	22
1.50133	24
1.50500	25
1.50867	23
1.51233	21
1.51600	20
1.51967	20
1.52333	20
1.52700	20
1.53067	18
1.53433	18
1.53800	17
1.54167	19
1.54533	19
1.54900	21
1.55267	22
1.55633	22
1.56000	22
1.56367	21
1.56733	20
1.57100	20
1.57467	18
1.57833	18
1.58200	18
1.58567	19
1.58933	22
1.59300	24
1.59667	26
1.60033	27
1.60400	25
1.60767	23
1.61133	21
1.61500	22
1.61867	22
1.62233	24
1.62600	27
1.62967	25
1.63333	24
1.63700	24
1.64067	24
1.64433	24
1.64800	24
1.65167	24
1.65533	23
1.65900	24
1.66267	26
1.66633	27
1.67000	30
1.67367	33
1.67733	33
1.68100	32
1.68467	31
1.68833	32
1.69200	32
1.69567	33
1.69933	32
1.70300	32
1.70667	33
1.71033	35
1.71400	36
1.71767	36
1.72133	35
1.72500	35
1.72867	37
1.73233	39
1.73600	41
1.73967	42
1.74333	42
1.74700	42
1.75067	42
1.75433	42
1.75800	42
1.76167	40
1.76533	37
1.76900	35
1.77267	35
1.77633	36
1.78000	37
1.78367	39
1.78733	40
1.79100	40
1.79467	38
1.79833	36
1.80200	33
1.80567	33
1.80933	33
1.81300	34
1.81667	35
1.82033	36
1.82400	40
1.82767	44
1.83133	44
1.83500	41
1.83867	40
1.84233	41
1.84600	42
1.84967	42
1.85333	41
1.85700	42
1.86067	46
1.86433	49
1.86800	49
1.87167	52
1.87533	52
1.87900	50
1.88267	49
1.88633	46
1.89000	44
1.89367	44
1.89733	44
1.90100	44
1.90467	45
1.90833	46
1.91200	48
1.91567	50
1.91933	49
1.92300	49
1.92667	53
1.93033	55
1.93400	56
1.93767	57
1.94133	58
1.94500	61
1.94867	61
1.95233	61
1.95600	62
1.95967	63
1.96333	62
1.96700	61
1.97067	62
1.97433	63
1.97800	65
1.98167	68
1.98533	70
1.98900	71
1.99267	70
1.99633	67
2.00000	67
2.00367	69
2.00733	70
2.01100	72
2.01467	73
2.01833	73
2.02200	74
2.02567	76
2.02933	78
2.03300	78
2.03667	80
2.04033	81
2.04400	84
2.04767	84
2.05133	84
2.05500	85
2.05867	87
2.06233	90
2.06600	93
2.06967	95
2.07333	96
2.07700	94
2.08067	94
2.08433	95
2.08800	94
2.09167	95
2.09533	97
2.09900	100
2.10267	101
2.10633	102
2.11000	104
2.11367	106
2.11733	108
2.12100	108
2.12467	106
2.12833	105
2.13200	106
2.13567	108
2.13933	110
2.14300	110
2.14667	111
2.15033	110
2.15400	110
2.15767	112
2.16133	114
2.16500	115
2.16867	117
2.17233	118
2.17600	119
2.17967	121
2.18333	123
2.18700	125
2.19067	127
2.19433	128
2.19800	129
2.20167	130
2.20533	131
2.20900	131
2.21267	132
2.21633	132
2.22000	131
2.22367	130
2.22733	132
2.23100	135
2.23467	136
2.23833	134
2.24200	135
2.24567	135
2.24933	135
2.25300	136
2.25667	137
2.26033	139
2.26400	140
2.26767	144
2.27133	146
2.27500	146
2.27867	146
2.28233	149
2.28600	151
2.28967	151
2.29333	148
2.29700	148
2.30067	148
2.30433	150
2.30800	152
2.31167	156
2.31533	158
2.31900	158
2.32267	159
2.32633	160
2.33000	161
2.33367	163
2.33733	165
2.34100	166
2.34467	168
2.34833	171
2.35200	173
2.35567	175
2.35933	176
2.36300	179
2.36667	182
2.37033	183
2.37400	183
2.37767	184
2.38133	184
2.38500	186
2.38867	189
2.39233	191
2.39600	194
2.39967	197
2.40333	200
2.40700	204
2.41067	208
2.41433	213
2.41800	216
2.42167	218
2.42533	219
2.42900	220
2.43267	221
2.43633	223
2.44000	227
2.44367	275
2.44733	398
2.45100	529
2.45467	637
2.45833	697
2.46200	702
2.46567	672
2.46933	637
2.47300	610
2.47667	593
2.48033	582
2.48400	564
2.48767	534
2.49133	499
2.49500	464
2.49867	432
2.50233	407
2.50600	390
2.50967	379
2.51333	374
2.51700	375
2.52067	385
2.52433	400
2.52800	416
2.53167	430
2.53533	437
2.53900	434
2.54267	424
2.54633	407
2.55000	386
2.55367	362
2.55733	341
2.56100	321
2.56467	304
2.56833	292
2.57200	283
2.57567	275
2.57933	269
2.58300	265
2.58667	266
2.59033	266
2.59400	265
2.59767	260
2.60133	252
2.60500	241
2.60867	225
2.61233	204
2.61600	185
2.61967	170
2.62333	157
2.62700	146
2.63067	137
2.63433	133
2.63800	133
2.64167	136
2.64533	143
2.64900	149
2.65267	154
2.65633	160
2.66000	163
2.66367	163
2.66733	165
2.67100	166
2.67467	167
2.67833	166
2.68200	162
2.68567	156
2.68933	149
2.69300	143
2.69667	138
2.70033	132
2.70400	128
2.70767	124
2.71133	121
2.71500	116
2.71867	113
2.72233	113
2.72600	115
2.72967	117
2.73333	118
2.73700	118
2.74067	119
2.74433	120
2.74800	121
2.75167	121
2.75533	121
2.75900	123
2.76267	123
2.76633	125
2.77000	127
2.77367	128
2.77733	129
2.78100	130
2.78467	132
2.78833	132
2.79200	131
2.79567	131
2.79933	132
2.80300	131
2.80667	132
2.81033	136
2.81400	140
2.81767	145
2.82133	156
2.82500	182
2.82867	236
2.83233	334
2.83600	502
2.83967	761
2.84333	1123
2.84700	1588
2.85067	2139
2.85433	2742
2.85800	3350
2.86167	3914
2.86533	4388
2.86900	4737
2.87267	4941
2.87633	4999
2.88000	4922
2.88367	4733
2.88733	4464
2.89100	4143
2.89467	3797
2.89833	3447
2.90200	3103
2.90567	2775
2.90933	2469
2.91300	2190
2.91667	1938
2.92033	1713
2.92400	1515
2.92767	1340
2.93133	1186
2.93500	1050
2.93867	933
2.94233	833
2.94600	744
2.94967	664
2.95333	597
2.95700	540
2.96067	491
2.96433	449
2.96800	414
2.97167	383
2.97533	355
2.97900	330
2.98267	306
2.98633	285
2.99000	265
2.99367	251
2.99733	239
3.00100	229
3.00467	217
3.00833	205
3.01200	197
3.01567	191
3.01933	185
3.02300	178
3.02667	172
3.03033	161
3.03400	137
3.03767	99
3.04133	72
3.04500	69
3.04867	88
3.05233	119
3.05600	159
3.05967	197
3.06333	234
3.06700	269
3.07067	302
3.07433	329
3.07800	354
3.08167	377
3.08533	396
3.08900	411
3.09267	426
3.09633	439
3.10000	449
3.10367	458
3.10733	468
3.11100	478
3.11467	485
3.11833	489
3.12200	493
3.12567	497
3.12933	502
3.13300	507
3.13667	513
3.14033	517
3.14400	522
3.14767	523
3.15133	525
3.15500	527
3.15867	527
3.16233	528
3.16600	530
3.16967	534
3.17333	538
3.17700	540
3.18067	542
3.18433	545
3.18800	547
3.19167	547
3.19533	548
3.19900	549
3.20267	548
3.20633	547
3.21000	547
3.21367	549
3.21733	550
3.22100	552
3.22467	553
3.22833	556
3.23200	558
3.23567	560
3.23933	560
3.24300	560
3.24667	560
3.25033	559
3.25400	558
3.25767	559
3.26133	559
3.26500	562
3.26867	564
3.27233	563
3.27600	561
3.27967	558
3.28333	560
3.28700	562
3.29067	565
3.29433	570
3.29800	574
3.30167	576
3.30533	578
3.30900	580
3.31267	581
3.31633	580
3.32000	581
3.32367	582
3.32733	583
3.33100	583
3.33467	585
3.33833	589
3.34200	591
3.34567	592
3.34933	592
3.35300	594
3.35667	596
3.36033	596
3.36400	596
3.36767	596
3.37133	597
3.37500	598
3.37867	598
3.38233	598
3.38600	597
3.38967	594
3.39333	593
3.39700	592
3.40067	591
3.40433	593
3.40800	594
3.41167	596
3.41533	596
3.41900	594
3.42267	593
3.42633	591
3.43000	590
3.43367	589
3.43733	586
3.44100	583
3.44467	583
3.44833	583
3.45200	582
3.45567	581
3.45933	581
3.46300	581
3.46667	580
3.47033	580
3.47400	577
3.47767	575
3.48133	572
3.48500	567
3.48867	566
3.49233	566
3.49600	566
3.49967	565
3.50333	559
3.50700	556
3.51067	553
3.51433	553
3.51800	553
3.52167	549
3.52533	550
3.52900	550
3.53267	548
3.53633	548
3.54000	550
3.54367	552
3.54733	554
3.55100	553
3.55467	549
3.55833	547
3.56200	545
3.56567	543
3.56933	542
3.57300	543
3.57667	543
3.58033	542
3.58400	539
3.58767	538
3.59133	536
3.59500	534
3.59867	534
3.60233	535
3.60600	536
3.60967	535
3.61333	535
3.61700	534
3.62067	535
3.62433	535
3.62800	535
3.63167	536
3.63533	537
3.63900	538
3.64267	540
3.64633	540
3.65000	539
3.65367	539
3.65733	537
3.66100	536
3.66467	538
3.66833	540
3.67200	542
3.67567	541
3.67933	538
3.68300	536
3.68667	533
3.69033	533
3.69400	533
3.69767	534
3.70133	534
3.70500	533
3.70867	531
3.71233	529
3.71600	528
3.71967	528
3.72333	528
3.72700	528
3.73067	527
3.73433	525
3.73800	523
3.74167	521
3.74533	520
3.74900	519
3.75267	520
3.75633	521
3.76000	522
3.76367	522
3.76733	521
3.77100	521
3.77467	522
3.77833	523
3.78200	523
3.78567	520
3.78933	518
3.79300	517
3.79667	517
3.80033	517
3.80400	521
3.80767	522
3.81133	521
3.81500	516
3.81867	512
3.82233	511
3.82600	512
3.82967	512
3.83333	512
3.83700	509
3.84067	504
3.84433	502
3.84800	503
3.85167	502
3.85533	501
3.85900	499
3.86267	496
3.86633	495
3.87000	493
3.87367	492
3.87733	491
3.88100	491
3.88467	490
3.88833	490
3.89200	491
3.89567	490
3.89933	488
3.90300	486
3.90667	484
3.91033	482
3.91400	481
3.91767	481
3.92133	480
3.92500	477
3.92867	474
3.93233	473
3.93600	473
3.93967	472
3.94333	472
3.94700	471
3.95067	470
3.95433	471
3.95800	471
3.96167	471
3.96533	470
3.96900	469
3.97267	465
3.97633	463
3.98000	460
3.98367	459
3.98733	457
3.99100	456
3.99467	453
3.99833	447

[Status Trace (Column Oven Temperature)]
Interval(msec)	1000
# of Points	239
Start Time(min)	0.014
End Time(min)	3.981
Intensity Units	
Intensity Multiplier	1
R.Time (min)	Intensity
0.01417	35.07
0.03083	35.06
0.04750	35.06
0.06417	35.06
0.08083	35.06
0.09750	35.07
0.11417	35.07
0.13083	35.06
0.14750	35.06
0.16417	35.06
0.18083	35.06
0.19750	35.04
0.21417	35.03
0.23083	35.03
0.24750	35.02
0.26417	35.02
0.28083	35.01
0.29750	35.01
0.31417	35.01
0.33083	35.01
0.34750	35.02
0.36417	35.02
0.38083	35.02
0.39750	35.03
0.41417	35.04
0.43083	35.05
0.44750	35.04
0.46417	35.04
0.48083	35.03
0.49750	35.02
0.51417	35.02
0.53083	35.03
0.54750	35.02
0.56417	35.02
0.58083	35.01
0.59750	35.01
0.61417	35.01
0.63083	35.00
0.64750	35.01
0.66417	35.00
0.68083	35.01
0.69750	35.00
0.71417	35.01
0.73083	35.00
0.74750	34.99
0.76417	34.98
0.78083	34.97
0.79750	34.97
0.81417	34.97
0.83083	34.99
0.84750	34.99
0.86417	34.99
0.88083	35.00
0.89750	35.00
0.91417	35.00
0.93083	35.00
0.94750	35.00
0.96417	34.99
0.98083	34.99
0.99750	35.00
1.01417	35.00
1.03083	35.01
1.04750	35.00
1.06417	34.99
1.08083	34.98
1.09750	34.98
1.11417	34.97
1.13083	34.98
1.14750	34.97
1.16417	34.97
1.18083	34.98
1.19750	34.98
1.21417	35.00
1.23083	35.00
1.24750	35.00
1.26417	35.00
1.28083	35.00
1.29750	35.00
1.31417	35.00
1.33083	34.99
1.34750	34.99
1.36417	34.99
1.38083	35.00
1.39750	35.00
1.41417	35.00
1.43083	34.99
1.44750	34.98
1.46417	34.99
1.48083	34.99
1.49750	35.00
1.51417	35.00
1.53083	34.99
1.54750	35.00
1.56417	35.00
1.58083	35.00
1.59750	35.02
1.61417	35.11
1.63083	35.26
1.64750	35.46
1.66417	35.74
1.68083	36.11
1.69750	36.47
1.71417	36.81
1.73083	37.14
1.74750	37.46
1.76417	37.79
1.78083	38.13
1.79750	38.48
1.81417	38.80
1.83083	39.09
1.84750	39.43
1.86417	39.77
1.88083	40.09
1.89750	40.42
1.91417	40.74
1.93083	41.08
1.94750	41.40
1.96417	41.73
1.98083	42.06
1.99750	42.38
2.01417	42.71
2.03083	43.04
2.04750	43.33
2.06417	43.66
2.08083	43.99
2.09750	44.31
2.11417	44.64
2.13083	44.96
2.14750	45.28
2.16417	45.62
2.18083	45.94
2.19750	46.31
2.21417	46.63
2.23083	46.95
2.24750	47.28
2.26417	47.63
2.28083	47.98
2.29750	48.30
2.31417	48.63
2.33083	48.95
2.34750	49.27
2.36417	49.51
2.38083	49.63
2.39750	49.65
2.41417	49.65
2.43083	49.66
2.44750	49.66
2.46417	49.68
2.48083	49.69
2.49750	49.72
2.51417	49.73
2.53083	49.74
2.54750	49.76
2.56417	49.76
2.58083	49.78
2.59750	49.80
2.61417	49.81
2.63083	49.83
2.64750	49.83
2.66417	49.83
2.68083	49.84
2.69750	49.84
2.71417	49.85
2.73083	49.85
2.74750	49.86
2.76417	49.85
2.78083	49.86
2.79750	49.85
2.81417	49.87
2.83083	49.89
2.84750	49.90
2.86417	49.89
2.88083	49.89
2.89750	49.90
2.91417	49.92
2.93083	49.94
2.94750	49.95
2.96417	49.96
2.98083	49.97
2.99750	49.97
3.01417	49.98
3.03083	50.00
3.04750	50.00
3.06417	49.99
3.08083	49.99
3.09750	50.00
3.11417	50.01
3.13083	50.02
3.14750	50.03
3.16417	50.04
3.18083	50.04
3.19750	50.04
3.21417	50.05
3.23083	50.06
3.24750	50.06
3.26417	50.07
3.28083	50.08
3.29750	50.08
3.31417	50.09
3.33083	50.09
3.34750	50.09
3.36417	50.09
3.38083	50.09
3.39750	50.09
3.41417	50.08
3.43083	50.09
3.44750	50.09
3.46417	50.10
3.48083	50.10
3.49750	50.10
3.51417	50.09
3.53083	50.09
3.54750	50.09
3.56417	50.09
3.58083	50.10
3.59750	50.10
3.61417	50.11
3.63083	50.11
3.64750	50.11
3.66417	50.09
3.68083	50.08
3.69750	50.06
3.71417	50.05
3.73083	50.04
3.74750	50.03
3.76417	50.02
3.78083	50.00
3.79750	49.99
3.81417	49.99
3.83083	49.99
3.84750	50.00
3.86417	50.00
3.88083	50.00
3.89750	50.01
3.91417	50.01
3.93083	50.02
3.94750	50.02
3.96417	50.01
3.98083	50.01

[Status Trace (Injection Unit Temperature)]
Interval(msec)	1000
# of Points	239
Start Time(min)	0.014
End Time(min)	3.981
Intensity Units	
Intensity Multiplier	1
R.Time (min)	Intensity
0.01417	99.98
0.03083	99.99
0.04750	99.99
0.06417	99.99
0.08083	99.99
0.09750	99.98
0.11417	99.99
0.13083	99.99
0.14750	99.99
0.16417	99.99
0.18083	99.98
0.19750	99.99
0.21417	99.99
0.23083	99.99
0.24750	99.99
0.26417	99.99
0.28083	99.99
0.29750	99.99
0.31417	99.99
0.33083	99.99
0.34750	99.98
0.36417	99.99
0.38083	99.98
0.39750	99.98
0.41417	99.98
0.43083	99.99
0.44750	99.99
0.46417	99.99
0.48083	99.99
0.49750	99.99
0.51417	99.99
0.53083	99.99
0.54750	99.99
0.56417	99.98
0.58083	99.98
0.59750	99.98
0.61417	99.99
0.63083	99.99
0.64750	99.98
0.66417	99.99
0.68083	99.99
0.69750	99.98
0.71417	99.98
0.73083	99.98
0.74750	99.98
0.76417	99.98
0.78083	99.98
0.79750	99.98
0.81417	99.98
0.83083	99.99
0.84750	99.98
0.86417	99.98
0.88083	99.98
0.89750	99.98
0.91417	99.98
0.93083	99.98
0.94750	99.98
0.96417	99.98
0.98083	99.98
0.99750	99.98
1.01417	99.98
1.03083	99.98
1.04750	99.98
1.06417	99.98
1.08083	99.98
1.09750	99.98
1.11417	99.98
1.13083	99.98
1.14750	99.98
1.16417	99.98
1.18083	99.98
1.19750	99.98
1.21417	99.98
1.23083	99.98
1.24750	99.99
1.26417	99.98
1.28083	99.98
1.29750	99.98
1.31417	99.99
1.33083	99.99
1.34750	99.99
1.36417	99.99
1.38083	99.98
1.39750	99.99
1.41417	99.99
1.43083	99.99
1.44750	99.99
1.46417	99.99
1.48083	99.99
1.49750	99.99
1.51417	99.99
1.53083	99.99
1.54750	99.99
1.56417	99.99
1.58083	99.99
1.59750	99.99
1.61417	99.99
1.63083	99.99
1.64750	99.99
1.66417	99.99
1.68083	99.99
1.69750	99.99
1.71417	99.99
1.73083	99.98
1.74750	99.98
1.76417	99.98
1.78083	99.99
1.79750	99.99
1.81417	99.99
1.83083	99.98
1.84750	99.98
1.86417	99.98
1.88083	99.98
1.89750	99.98
1.91417	99.98
1.93083	99.98
1.94750	99.98
1.96417	99.98
1.98083	99.98
1.99750	99.98
2.01417	99.98
2.03083	99.98
2.04750	99.97
2.06417	99.97
2.08083	99.97
2.09750	99.98
2.11417	99.97
2.13083	99.97
2.14750	99.97
2.16417	99.97
2.18083	99.97
2.19750	99.97
2.21417	99.97
2.23083	99.97
2.24750	99.97
2.26417	99.96
2.28083	99.96
2.29750	99.97
2.31417	99.96
2.33083	99.96
2.34750	99.97
2.36417	99.97
2.38083	99.96
2.39750	99.96
2.41417	99.97
2.43083	99.96
2.44750	99.96
2.46417	99.97
2.48083	99.96
2.49750	99.96
2.51417	99.96
2.53083	99.97
2.54750	99.97
2.56417	99.97
2.58083	99.97
2.59750	99.97
2.61417	99.97
2.63083	99.97
2.64750	99.97
2.66417	99.97
2.68083	99.97
2.69750	99.98
2.71417	99.98
2.73083	99.97
2.74750	99.98
2.76417	99.98
2.78083	99.98
2.79750	99.98
2.81417	99.99
2.83083	99.99
2.84750	99.99
2.86417	99.99
2.88083	99.99
2.89750	100.00
2.91417	100.00
2.93083	100.00
2.94750	100.00
2.96417	100.01
2.98083	100.01
2.99750	100.01
3.01417	100.01
3.03083	100.01
3.04750	100.01
3.06417	100.01
3.08083	100.02
3.09750	100.02
3.11417	100.02
3.13083	100.02
3.14750	100.02
3.16417	100.02
3.18083	100.02
3.19750	100.03
3.21417	100.02
3.23083	100.03
3.24750	100.03
3.26417	100.03
3.28083	100.04
3.29750	100.03
3.31417	100.03
3.33083	100.03
3.34750	100.04
3.36417	100.04
3.38083	100.04
3.39750	100.03
3.41417	100.04
3.43083	100.03
3.44750	100.04
3.46417	100.04
3.48083	100.03
3.49750	100.03
3.51417	100.04
3.53083	100.04
3.54750	100.04
3.56417	100.04
3.58083	100.04
3.59750	100.04
3.61417	100.04
3.63083	100.04
3.64750	100.04
3.66417	100.04
3.68083	100.04
3.69750	100.03
3.71417	100.04
3.73083	100.04
3.74750	100.04
3.76417	100.04
3.78083	100.04
3.79750	100.04
3.81417	100.04
3.83083	100.04
3.84750	100.04
3.86417	100.04
3.88083	100.04
3.89750	100.04
3.91417	100.04
3.93083	100.04
3.94750	100.04
3.96417	100.04
3.98083	100.04

[Status Trace (Carrier Gas Pressure)]
Interval(msec)	1000
# of Points	239
Start Time(min)	0.014
End Time(min)	3.981
Intensity Units	
Intensity Multiplier	1
R.Time (min)	Intensity
0.01417	57.36
0.03083	55.40
0.04750	57.95
0.06417	59.85
0.08083	58.72
0.09750	57.98
0.11417	58.00
0.13083	58.01
0.14750	58.01
0.16417	58.00
0.18083	58.00
0.19750	58.00
0.21417	58.00
0.23083	58.00
0.24750	58.00
0.26417	58.00
0.28083	58.00
0.29750	58.00
0.31417	58.00
0.33083	58.00
0.34750	58.00
0.36417	58.00
0.38083	58.00
0.39750	58.00
0.41417	58.00
0.43083	58.00
0.44750	58.00
0.46417	58.00
0.48083	58.00
0.49750	58.00
0.51417	58.00
0.53083	58.00
0.54750	58.00
0.56417	58.00
0.58083	58.00
0.59750	58.00
0.61417	58.00
0.63083	58.00
0.64750	58.00
0.66417	58.00
0.68083	58.00
0.69750	58.00
0.71417	58.00
0.73083	58.00
0.74750	58.00
0.76417	58.00
0.78083	58.00
0.79750	58.00
0.81417	58.00
0.83083	58.00
0.84750	58.00
0.86417	58.00
0.88083	58.00
0.89750	58.00
0.91417	58.00
0.93083	58.00
0.94750	58.00
0.96417	58.00
0.98083	58.00
0.99750	58.00
1.01417	58.00
1.03083	58.00
1.04750	58.00
1.06417	58.00
1.08083	58.00
1.09750	58.00
1.11417	58.00
1.13083	58.00
1.14750	58.00
1.16417	58.00
1.18083	58.00
1.19750	58.00
1.21417	58.00
1.23083	58.00
1.24750	58.00
1.26417	58.00
1.28083	58.00
1.29750	58.00
1.31417	58.00
1.33083	58.00
1.34750	58.00
1.36417	58.00
1.38083	58.00
1.39750	58.00
1.41417	58.00
1.43083	58.00
1.44750	58.00
1.46417	58.00
1.48083	58.00
1.49750	58.00
1.51417	58.00
1.53083	58.00
1.54750	58.00
1.56417	58.00
1.58083	58.00
1.59750	58.00
1.61417	58.00
1.63083	58.00
1.64750	58.00
1.66417	58.01
1.68083	58.01
1.69750	58.00
1.71417	58.00
1.73083	58.00
1.74750	58.00
1.76417	58.00
1.78083	58.00
1.79750	58.00
1.81417	58.00
1.83083	58.00
1.84750	58.00
1.86417	58.00
1.88083	58.00
1.89750	58.00
1.91417	58.00
1.93083	58.00
1.94750	58.00
1.96417	58.00
1.98083	58.00
1.99750	58.00
2.01417	58.00
2.03083	58.00
2.04750	58.00
2.06417	58.00
2.08083	58.00
2.09750	58.00
2.11417	58.00
2.13083	58.00
2.14750	58.00
2.16417	58.00
2.18083	58.00
2.19750	58.00
2.21417	58.00
2.23083	58.00
2.24750	58.00
2.26417	58.00
2.28083	58.00
2.29750	58.00
2.31417	58.00
2.33083	58.00
2.34750	58.00
2.36417	58.00
2.38083	57.99
2.39750	57.99
2.41417	58.00
2.43083	58.00
2.44750	58.00
2.46417	58.00
2.48083	58.00
2.49750	58.00
2.51417	57.99
2.53083	57.99
2.54750	58.00
2.56417	58.00
2.58083	58.00
2.59750	58.00
2.61417	58.00
2.63083	58.00
2.64750	58.00
2.66417	58.00
2.68083	58.00
2.69750	58.00
2.71417	58.00
2.73083	58.00
2.74750	58.00
2.76417	58.00
2.78083	58.00
2.79750	58.00
2.81417	58.00
2.83083	58.00
2.84750	58.00
2.86417	58.00
2.88083	58.00
2.89750	58.00
2.91417	58.00
2.93083	58.00
2.94750	58.00
2.96417	58.00
2.98083	58.00
2.99750	58.00
3.01417	58.00
3.03083	58.00
3.04750	58.00
3.06417	58.00
3.08083	58.00
3.09750	58.00
3.11417	58.00
3.13083	58.00
3.14750	58.00
3.16417	58.00
3.18083	58.00
3.19750	58.00
3.21417	58.00
3.23083	58.00
3.24750	58.00
3.26417	58.00
3.28083	58.00
3.29750	58.00
3.31417	58.00
3.33083	58.00
3.34750	58.00
3.36417	58.00
3.38083	58.00
3.39750	58.00
3.41417	58.00
3.43083	58.00
3.44750	58.00
3.46417	58.00
3.48083	58.00
3.49750	58.00
3.51417	58.00
3.53083	58.00
3.54750	58.00
3.56417	58.00
3.58083	58.00
3.59750	58.00
3.61417	58.00
3.63083	58.00
3.64750	58.00
3.66417	58.00
3.68083	58.00
3.69750	58.00
3.71417	58.00
3.73083	58.00
3.74750	58.00
3.76417	58.00
3.78083	58.00
3.79750	58.00
3.81417	58.00
3.83083	58.00
3.84750	58.00
3.86417	58.00
3.88083	58.00
3.89750	58.00
3.91417	58.00
3.93083	58.00
3.94750	58.00
3.96417	58.00
3.98083	58.00

[Status Trace (Carrier Gas Flow)]
Interval(msec)	1000
# of Points	239
Start Time(min)	0.014
End Time(min)	3.981
Intensity Units	
Intensity Multiplier	1
R.Time (min)	Intensity
0.01417	33.93
0.03083	34.54
0.04750	34.55
0.06417	34.51
0.08083	34.51
0.09750	34.52
0.11417	34.52
0.13083	34.52
0.14750	34.52
0.16417	34.52
0.18083	34.52
0.19750	34.52
0.21417	34.51
0.23083	34.51
0.24750	34.52
0.26417	34.52
0.28083	34.52
0.29750	34.52
0.31417	34.52
0.33083	34.52
0.34750	34.52
0.36417	34.52
0.38083	34.52
0.39750	34.52
0.41417	34.52
0.43083	34.51
0.44750	34.52
0.46417	34.51
0.48083	34.52
0.49750	34.52
0.51417	34.52
0.53083	34.52
0.54750	34.52
0.56417	34.52
0.58083	34.52
0.59750	34.52
0.61417	34.52
0.63083	34.52
0.64750	34.51
0.66417	34.51
0.68083	34.52
0.69750	34.52
0.71417	34.52
0.73083	34.52
0.74750	34.52
0.76417	34.52
0.78083	34.52
0.79750	34.52
0.81417	34.52
0.83083	34.52
0.84750	34.52
0.86417	34.52
0.88083	34.52
0.89750	34.52
0.91417	34.52
0.93083	34.52
0.94750	34.51
0.96417	34.51
0.98083	34.51
0.99750	34.52
1.01417	34.52
1.03083	34.52
1.04750	34.52
1.06417	34.51
1.08083	34.52
1.09750	34.52
1.11417	34.52
1.13083	34.52
1.14750	34.52
1.16417	34.51
1.18083	34.51
1.19750	34.52
1.21417	34.52
1.23083	34.52
1.24750	34.51
1.26417	34.52
1.28083	34.52
1.29750	34.52
1.31417	34.52
1.33083	34.52
1.34750	34.52
1.36417	34.52
1.38083	34.51
1.39750	34.52
1.41417	34.52
1.43083	34.52
1.44750	34.52
1.46417	34.51
1.48083	34.51
1.49750	34.52
1.51417	34.52
1.53083	34.51
1.54750	34.52
1.56417	34.52
1.58083	34.52
1.59750	34.52
1.61417	34.52
1.63083	34.52
1.64750	34.52
1.66417	34.52
1.68083	34.52
1.69750	34.52
1.71417	34.52
1.73083	34.52
1.74750	34.52
1.76417	34.52
1.78083	34.52
1.79750	34.52
1.81417	34.52
1.83083	34.52
1.84750	34.52
1.86417	34.52
1.88083	34.51
1.89750	34.52
1.91417	34.52
1.93083	34.52
1.94750	34.52
1.96417	34.52
1.98083	34.52
1.99750	34.52
2.01417	34.52
2.03083	34.52
2.04750	34.52
2.06417	34.52
2.08083	34.51
2.09750	34.52
2.11417	34.52
2.13083	34.52
2.14750	34.51
2.16417	34.53
2.18083	34.51
2.19750	34.52
2.21417	34.52
2.23083	34.52
2.24750	34.51
2.26417	34.52
2.28083	34.52
2.29750	34.52
2.31417	34.52
2.33083	34.52
2.34750	34.52
2.36417	34.52
2.38083	34.51
2.39750	34.52
2.41417	34.52
2.43083	34.51
2.44750	34.52
2.46417	34.51
2.48083	34.52
2.49750	34.52
2.51417	34.52
2.53083	34.52
2.54750	34.52
2.56417	34.52
2.58083	34.52
2.59750	34.52
2.61417	34.52
2.63083	34.52
2.64750	34.52
2.66417	34.52
2.68083	34.52
2.69750	34.51
2.71417	34.53
2.73083	34.53
2.74750	34.51
2.76417	34.52
2.78083	34.52
2.79750	34.52
2.81417	34.52
2.83083	34.51
2.84750	34.52
2.86417	34.52
2.88083	34.52
2.89750	34.51
2.91417	34.51
2.93083	34.51
2.94750	34.52
2.96417	34.51
2.98083	34.53
2.99750	34.52
3.01417	34.52
3.03083	34.52
3.04750	34.52
3.06417	34.51
3.08083	34.52
3.09750	34.52
3.11417	34.52
3.13083	34.52
3.14750	34.53
3.16417	34.52
3.18083	34.51
3.19750	34.51
3.21417	34.53
3.23083	34.52
3.24750	34.52
3.26417	34.51
3.28083	34.51
3.29750	34.51
3.31417	34.52
3.33083	34.53
3.34750	34.53
3.36417	34.51
3.38083	34.52
3.39750	34.51
3.41417	34.52
3.43083	34.51
3.44750	34.53
3.46417	34.51
3.48083	34.52
3.49750	34.52
3.51417	34.51
3.53083	34.52
3.54750	34.53
3.56417	34.52
3.58083	34.52
3.59750	34.51
3.61417	34.53
3.63083	34.52
3.64750	34.52
3.66417	34.51
3.68083	34.52
3.69750	34.53
3.71417	34.53
3.73083	34.52
3.74750	34.52
3.76417	34.52
3.78083	34.52
3.79750	34.52
3.81417	34.53
3.83083	34.53
3.84750	34.51
3.86417	34.53
3.88083	34.52
3.89750	34.51
3.91417	34.52
3.93083	34.52
3.94750	34.52
3.96417	34.52
3.98083	34.52

[Status Trace (Column Flow)]
Interval(msec)	1000
# of Points	239
Start Time(min)	0.014
End Time(min)	3.981
Intensity Units	
Intensity Multiplier	1
R.Time (min)	Intensity
0.01417	5.44
0.03083	5.21
0.04750	5.51
0.06417	5.73
0.08083	5.60
0.09750	5.51
0.11417	5.51
0.13083	5.51
0.14750	5.51
0.16417	5.51
0.18083	5.51
0.19750	5.51
0.21417	5.51
0.23083	5.51
0.24750	5.51
0.26417	5.52
0.28083	5.52
0.29750	5.52
0.31417	5.52
0.33083	5.52
0.34750	5.51
0.36417	5.51
0.38083	5.51
0.39750	5.51
0.41417	5.51
0.43083	5.51
0.44750	5.51
0.46417	5.51
0.48083	5.51
0.49750	5.51
0.51417	5.51
0.53083	5.51
0.54750	5.51
0.56417	5.51
0.58083	5.51
0.59750	5.51
0.61417	5.51
0.63083	5.52
0.64750	5.51
0.66417	5.52
0.68083	5.52
0.69750	5.52
0.71417	5.52
0.73083	5.52
0.74750	5.52
0.76417	5.52
0.78083	5.52
0.79750	5.52
0.81417	5.52
0.83083	5.52
0.84750	5.52
0.86417	5.52
0.88083	5.52
0.89750	5.52
0.91417	5.52
0.93083	5.52
0.94750	5.52
0.96417	5.52
0.98083	5.52
0.99750	5.52
1.01417	5.52
1.03083	5.52
1.04750	5.52
1.06417	5.52
1.08083	5.52
1.09750	5.52
1.11417	5.52
1.13083	5.52
1.14750	5.52
1.16417	5.52
1.18083	5.52
1.19750	5.52
1.21417	5.52
1.23083	5.52
1.24750	5.52
1.26417	5.52
1.28083	5.52
1.29750	5.52
1.31417	5.52
1.33083	5.52
1.34750	5.52
1.36417	5.52
1.38083	5.52
1.39750	5.52
1.41417	5.52
1.43083	5.52
1.44750	5.52
1.46417	5.52
1.48083	5.52
1.49750	5.52
1.51417	5.52
1.53083	5.52
1.54750	5.52
1.56417	5.52
1.58083	5.52
1.59750	5.52
1.61417	5.51
1.63083	5.51
1.64750	5.50
1.66417	5.49
1.68083	5.48
1.69750	5.47
1.71417	5.46
1.73083	5.45
1.74750	5.44
1.76417	5.43
1.78083	5.42
1.79750	5.41
1.81417	5.40
1.83083	5.39
1.84750	5.38
1.86417	5.37
1.88083	5.36
1.89750	5.35
1.91417	5.34
1.93083	5.33
1.94750	5.32
1.96417	5.31
1.98083	5.30
1.99750	5.29
2.01417	5.28
2.03083	5.27
2.04750	5.26
2.06417	5.25
2.08083	5.24
2.09750	5.23
2.11417	5.22
2.13083	5.22
2.14750	5.21
2.16417	5.20
2.18083	5.19
2.19750	5.18
2.21417	5.17
2.23083	5.16
2.24750	5.15
2.26417	5.14
2.28083	5.13
2.29750	5.12
2.31417	5.11
2.33083	5.10
2.34750	5.09
2.36417	5.09
2.38083	5.08
2.39750	5.08
2.41417	5.08
2.43083	5.08
2.44750	5.08
2.46417	5.08
2.48083	5.08
2.49750	5.08
2.51417	5.08
2.53083	5.08
2.54750	5.08
2.56417	5.08
2.58083	5.08
2.59750	5.08
2.61417	5.08
2.63083	5.08
2.64750	5.08
2.66417	5.08
2.68083	5.08
2.69750	5.08
2.71417	5.08
2.73083	5.08
2.74750	5.08
2.76417	5.08
2.78083	5.08
2.79750	5.08
2.81417	5.08
2.83083	5.08
2.84750	5.08
2.86417	5.08
2.88083	5.08
2.89750	5.08
2.91417	5.08
2.93083	5.07
2.94750	5.07
2.96417	5.07
2.98083	5.07
2.99750	5.07
3.01417	5.07
3.03083	5.07
3.04750	5.07
3.06417	5.07
3.08083	5.07
3.09750	5.07
3.11417	5.07
3.13083	5.07
3.14750	5.07
3.16417	5.07
3.18083	5.07
3.19750	5.07
3.21417	5.07
3.23083	5.07
3.24750	5.07
3.26417	5.07
3.28083	5.07
3.29750	5.07
3.31417	5.07
3.33083	5.07
3.34750	5.07
3.36417	5.07
3.38083	5.07
3.39750	5.07
3.41417	5.07
3.43083	5.07
3.44750	5.07
3.46417	5.07
3.48083	5.07
3.49750	5.07
3.51417	5.07
3.53083	5.07
3.54750	5.07
3.56417	5.07
3.58083	5.07
3.59750	5.07
3.61417	5.07
3.63083	5.07
3.64750	5.07
3.66417	5.07
3.68083	5.07
3.69750	5.07
3.71417	5.07
3.73083	5.07
3.74750	5.07
3.76417	5.07
3.78083	5.07
3.79750	5.07
3.81417	5.07
3.83083	5.07
3.84750	5.07
3.86417	5.07
3.88083	5.07
3.89750	5.07
3.91417	5.07
3.93083	5.07
3.94750	5.07
3.96417	5.07
3.98083	5.07

[Status Trace (Linear Velocity)]
Interval(msec)	1000
# of Points	239
Start Time(min)	0.014
End Time(min)	3.981
Intensity Units	
Intensity Multiplier	1
R.Time (min)	Intensity
0.01417	38.59
0.03083	37.31
0.04750	38.97
0.06417	40.22
0.08083	39.48
0.09750	38.99
0.11417	39.01
0.13083	39.02
0.14750	39.01
0.16417	39.01
0.18083	39.01
0.19750	39.01
0.21417	39.01
0.23083	39.01
0.24750	39.01
0.26417	39.01
0.28083	39.02
0.29750	39.02
0.31417	39.02
0.33083	39.02
0.34750	39.01
0.36417	39.01
0.38083	39.01
0.39750	39.01
0.41417	39.01
0.43083	39.01
0.44750	39.01
0.46417	39.01
0.48083	39.01
0.49750	39.01
0.51417	39.01
0.53083	39.01
0.54750	39.01
0.56417	39.01
0.58083	39.01
0.59750	39.01
0.61417	39.01
0.63083	39.02
0.64750	39.01
0.66417	39.02
0.68083	39.02
0.69750	39.02
0.71417	39.01
0.73083	39.02
0.74750	39.02
0.76417	39.02
0.78083	39.02
0.79750	39.02
0.81417	39.02
0.83083	39.02
0.84750	39.02
0.86417	39.02
0.88083	39.02
0.89750	39.02
0.91417	39.02
0.93083	39.02
0.94750	39.02
0.96417	39.02
0.98083	39.02
0.99750	39.02
1.01417	39.01
1.03083	39.01
1.04750	39.02
1.06417	39.02
1.08083	39.02
1.09750	39.02
1.11417	39.02
1.13083	39.02
1.14750	39.02
1.16417	39.02
1.18083	39.02
1.19750	39.02
1.21417	39.02
1.23083	39.02
1.24750	39.01
1.26417	39.01
1.28083	39.01
1.29750	39.02
1.31417	39.02
1.33083	39.02
1.34750	39.02
1.36417	39.02
1.38083	39.01
1.39750	39.02
1.41417	39.01
1.43083	39.02
1.44750	39.02
1.46417	39.02
1.48083	39.02
1.49750	39.02
1.51417	39.01
1.53083	39.02
1.54750	39.02
1.56417	39.02
1.58083	39.01
1.59750	39.01
1.61417	39.01
1.63083	39.00
1.64750	38.97
1.66417	38.95
1.68083	38.92
1.69750	38.88
1.71417	38.84
1.73083	38.81
1.74750	38.78
1.76417	38.75
1.78083	38.72
1.79750	38.68
1.81417	38.65
1.83083	38.63
1.84750	38.59
1.86417	38.56
1.88083	38.53
1.89750	38.50
1.91417	38.47
1.93083	38.44
1.94750	38.41
1.96417	38.38
1.98083	38.35
1.99750	38.32
2.01417	38.29
2.03083	38.26
2.04750	38.23
2.06417	38.20
2.08083	38.17
2.09750	38.14
2.11417	38.11
2.13083	38.09
2.14750	38.05
2.16417	38.02
2.18083	38.00
2.19750	37.96
2.21417	37.93
2.23083	37.91
2.24750	37.87
2.26417	37.84
2.28083	37.81
2.29750	37.78
2.31417	37.75
2.33083	37.73
2.34750	37.70
2.36417	37.67
2.38083	37.66
2.39750	37.66
2.41417	37.66
2.43083	37.66
2.44750	37.66
2.46417	37.66
2.48083	37.66
2.49750	37.66
2.51417	37.65
2.53083	37.65
2.54750	37.65
2.56417	37.65
2.58083	37.65
2.59750	37.65
2.61417	37.65
2.63083	37.65
2.64750	37.65
2.66417	37.65
2.68083	37.65
2.69750	37.65
2.71417	37.64
2.73083	37.64
2.74750	37.64
2.76417	37.64
2.78083	37.64
2.79750	37.64
2.81417	37.64
2.83083	37.64
2.84750	37.64
2.86417	37.64
2.88083	37.64
2.89750	37.64
2.91417	37.64
2.93083	37.64
2.94750	37.64
2.96417	37.63
2.98083	37.63
2.99750	37.63
3.01417	37.63
3.03083	37.63
3.04750	37.63
3.06417	37.63
3.08083	37.63
3.09750	37.63
3.11417	37.63
3.13083	37.63
3.14750	37.63
3.16417	37.63
3.18083	37.63
3.19750	37.63
3.21417	37.63
3.23083	37.63
3.24750	37.63
3.26417	37.63
3.28083	37.62
3.29750	37.62
3.31417	37.62
3.33083	37.62
3.34750	37.62
3.36417	37.62
3.38083	37.62
3.39750	37.62
3.41417	37.62
3.43083	37.62
3.44750	37.62
3.46417	37.62
3.48083	37.62
3.49750	37.62
3.51417	37.62
3.53083	37.62
3.54750	37.62
3.56417	37.62
3.58083	37.62
3.59750	37.62
3.61417	37.62
3.63083	37.62
3.64750	37.62
3.66417	37.62
3.68083	37.62
3.69750	37.63
3.71417	37.63
3.73083	37.63
3.74750	37.63
3.76417	37.63
3.78083	37.63
3.79750	37.63
3.81417	37.63
3.83083	37.63
3.84750	37.63
3.86417	37.63
3.88083	37.63
3.89750	37.63
3.91417	37.63
3.93083	37.63
3.94750	37.63
3.96417	37.63
3.98083	37.63

