[Header]
Application Name	LabSolutions
Version	5.110
Data File Name	C:\Users\User\Desktop\GC Analyses\Jack\Nachusa Grasslands Sampling\T2 Timepoint July 12th\T2_07122022_020.gcd
Output Date	3/14/2023
Output Time	3:42:31 PM

[File Information]
Type	Data File
Generated	3/10/2023 2:32:15 PM
Generated by	System Administrator
Modified	3/10/2023 2:39:03 PM
Modified by	System Administrator

[Sample Information]
Operator Name	System Administrator
Acquired	3/10/2023 2:35:03 PM
Sample Type	0:Unknown
Level	0
Sample Name	020
Sample ID	020
ISTD Amount1	1
ISTD Amount2	1
ISTD Amount3	1
ISTD Amount4	1
ISTD Amount5	1
ISTD Amount6	1
ISTD Amount7	1
ISTD Amount8	1
ISTD Amount9	1
ISTD Amount10	1
ISTD Amount11	1
ISTD Amount12	1
ISTD Amount13	1
ISTD Amount14	1
ISTD Amount15	1
ISTD Amount16	1
ISTD Amount17	1
ISTD Amount18	1
ISTD Amount19	1
ISTD Amount20	1
ISTD Amount21	1
ISTD Amount22	1
ISTD Amount23	1
ISTD Amount24	1
ISTD Amount25	1
ISTD Amount26	1
ISTD Amount27	1
ISTD Amount28	1
ISTD Amount29	1
ISTD Amount30	1
ISTD Amount31	1
ISTD Amount32	1
Sample Amount	1
Dilution Factor	1
Vial#	19
Injection Volume	1
Injection Count	1
Bar Code	

[Original Files]
Data File	C:\Users\User\Desktop\GC Analyses\Jack\Nachusa Grasslands Sampling\T1 Timepoint July 12th\T2_07122022_020.gcd
Method File	C:\LabSolutions\Data\GHG_4min_2022\ghg3_togas_w_acet_4 min_new_int.gcm
Batch File	C:\LabSolutions\Data\AutoSamplerTesting\T2_07122022.gcb
Report Format File	c:\LabSolutions\System\DEFAULT.lsr

[File Description]


[Configuration]
Instrument Name	C0B7VH3-Instrument1
Instrument #	1
Line #	1
# of Detectors	3
Detector ID	DET#1	DET#2	DET#3
Detector Name	FID	PTCD	ECD
# of Channels	1	1	1

[Peak Table(Ch1)]
# of Peaks	3
Peak#	R.Time	I.Time	F.Time	Area	Height	A/H	Conc.	Mark	ID#	Name	k'	Plate #	Plate Ht.	Tailing	Resolution	Sep.Factor	Area Ratio	Height Ratio	Conc. %	Norm Conc.
1	1.476	1.435	1.538	29272	14004	2.090	206.664	   	1	CO	0.000	9353	16.037	1.275	0.000	0.000	0	0	27.435	27.435
2	1.567	1.538	1.630	4665	2291	2.037	90.202	 V 	2	CH4	0.062	10443	14.364	0.000	1.498	0.000	0	0	11.974	11.974
3	1.996	1.949	2.491	1818629	871263	2.087	456.427	   	3	CO2	0.353	17240	8.701	1.249	7.023	5.680	0	0	60.591	60.591

[Peak Table(Ch2)]
# of Peaks	0

[Peak Table(Ch3)]
# of Peaks	5
Peak#	R.Time	I.Time	F.Time	Area	Height	A/H	Conc.	Mark	ID#	Name	k'	Plate #	Plate Ht.	Tailing	Resolution	Sep.Factor	Area Ratio	Height Ratio	Conc. %	Norm Conc.
1	2.462	2.282	2.513	2259	619	3.646	0.000	   			0.000	7445	20.147	0.000	0.000	0.000	0	0	0.000	0.000
2	2.535	2.513	2.634	1842	387	4.764	0.000	 V 			0.030	2744	54.656	0.000	0.477	0.000	0	0	0.000	0.000
3	2.671	2.634	2.726	633	145	4.374	0.000	 V 			0.085	2546	58.921	0.000	0.669	2.850	0	0	0.000	0.000
4	2.876	2.726	3.049	20462	5072	4.034	0.523	 V 	1	N2O	0.168	12972	11.563	1.689	1.313	1.982	0	0	100.000	100.000
5	3.144	3.052	3.665	8960	382	23.455	0.000	   	2	SF6	0.277	480	312.794	3.329	0.793	1.646	0	0	0.000	0.000

[Compound Results(Ch1)]
# of IDs	6
ID#	Name	R.Time	Area	Height	Conc.	Curve	3rd	2nd	1st	Constant	Area Ratio	Height Ratio	Conc. %	Norm Conc.
1	CO	1.476	29272	14004	206.664	Linear	0.000000e+00	0.000000e+00	1.416423e+002	0.000000e+00	0	0	27.435	27.435
2	CH4	1.567	4665	2291	90.202	Linear	0.000000e+00	0.000000e+00	5.171738e+001	0.000000e+00	0	0	11.974	11.974
3	CO2	1.996	1818629	871263	456.427	Linear	0.000000e+00	0.000000e+00	3.984494e+003	0.000000e+00	0	0	60.591	60.591
4	Ethylene	0.000	0	0	0.000	Linear	0.000000e+00	0.000000e+00	0.000000e+00	0.000000e+00	0	0	0.000	0.000
5	Acetylene	0.000	0	0	0.000	Linear	0.000000e+00	0.000000e+00	0.000000e+00	0.000000e+00	0	0	0.000	0.000
6	Ethane	0.000	0	0	0.000	Linear	0.000000e+00	0.000000e+00	0.000000e+00	0.000000e+00	0	0	0.000	0.000

[Compound Results(Ch2)]
# of IDs	5
ID#	Name	R.Time	Area	Height	Conc.	Curve	3rd	2nd	1st	Constant	Area Ratio	Height Ratio	Conc. %	Norm Conc.
1	Hydrogen	0.000	0	0	0.000	Linear	0.000000e+00	0.000000e+00	0.000000e+00	0.000000e+00	0	0	0.000	0.000
2	Oxygen	0.000	0	0	0.000	Linear	0.000000e+00	0.000000e+00	0.000000e+00	0.000000e+00	0	0	0.000	0.000
3	Nitrogen	0.000	0	0	0.000	Linear	0.000000e+00	0.000000e+00	0.000000e+00	0.000000e+00	0	0	0.000	0.000
4	Methane	0.000	0	0	0.000	Linear	0.000000e+00	0.000000e+00	0.000000e+00	0.000000e+00	0	0	0.000	0.000
5	Carbon Monoxide	0.000	0	0	0.000	Linear	0.000000e+00	0.000000e+00	0.000000e+00	0.000000e+00	0	0	0.000	0.000

[Compound Results(Ch3)]
# of IDs	2
ID#	Name	R.Time	Area	Height	Conc.	Curve	3rd	2nd	1st	Constant	Area Ratio	Height Ratio	Conc. %	Norm Conc.
1	N2O	2.876	20462	5072	0.523	Linear	0.000000e+00	0.000000e+00	3.915173e+004	0.000000e+00	0	0	100.000	100.000
2	SF6	3.144	8960	382	0.000	Linear	0.000000e+00	0.000000e+00	0.000000e+00	0.000000e+00	0	0	0.000	0.000

[Group Results(Ch1)]
# of Groups	0

[Group Results(Ch2)]
# of Groups	0

[Group Results(Ch3)]
# of Groups	0

[Chromatogram (Ch1)]
Interval(msec)	220
# of Points	1091
Start Time(min)	0.002
End Time(min)	3.998
R.Time (min)	Intensity
0.00167	-7
0.00533	-9
0.00900	-13
0.01267	-18
0.01633	-18
0.02000	-17
0.02367	-15
0.02733	-9
0.03100	-0
0.03467	12
0.03833	24
0.04200	31
0.04567	31
0.04933	29
0.05300	26
0.05667	21
0.06033	18
0.06400	18
0.06767	24
0.07133	29
0.07500	33
0.07867	37
0.08233	39
0.08600	42
0.08967	47
0.09333	54
0.09700	62
0.10067	66
0.10433	65
0.10800	61
0.11167	61
0.11533	62
0.11900	62
0.12267	55
0.12633	45
0.13000	38
0.13367	38
0.13733	45
0.14100	56
0.14467	67
0.14833	75
0.15200	80
0.15567	83
0.15933	87
0.16300	85
0.16667	75
0.17033	60
0.17400	47
0.17767	41
0.18133	43
0.18500	48
0.18867	56
0.19233	57
0.19600	51
0.19967	43
0.20333	37
0.20700	35
0.21067	34
0.21433	31
0.21800	33
0.22167	36
0.22533	35
0.22900	34
0.23267	32
0.23633	29
0.24000	24
0.24367	20
0.24733	20
0.25100	16
0.25467	11
0.25833	5
0.26200	5
0.26567	9
0.26933	16
0.27300	23
0.27667	26
0.28033	24
0.28400	23
0.28767	23
0.29133	23
0.29500	20
0.29867	15
0.30233	10
0.30600	8
0.30967	8
0.31333	8
0.31700	8
0.32067	8
0.32433	6
0.32800	5
0.33167	6
0.33533	6
0.33900	6
0.34267	5
0.34633	5
0.35000	4
0.35367	3
0.35733	1
0.36100	-1
0.36467	-6
0.36833	-9
0.37200	-14
0.37567	-15
0.37933	-13
0.38300	-10
0.38667	-7
0.39033	0
0.39400	8
0.39767	13
0.40133	14
0.40500	14
0.40867	13
0.41233	10
0.41600	10
0.41967	10
0.42333	8
0.42700	9
0.43067	14
0.43433	19
0.43800	22
0.44167	23
0.44533	23
0.44900	24
0.45267	19
0.45633	10
0.46000	0
0.46367	-4
0.46733	-9
0.47100	-17
0.47467	-25
0.47833	-30
0.48200	-34
0.48567	-35
0.48933	-29
0.49300	-17
0.49667	-3
0.50033	6
0.50400	9
0.50767	8
0.51133	5
0.51500	1
0.51867	-1
0.52233	-2
0.52600	-0
0.52967	1
0.53333	1
0.53700	1
0.54067	3
0.54433	8
0.54800	11
0.55167	10
0.55533	7
0.55900	2
0.56267	-5
0.56633	-8
0.57000	-9
0.57367	-9
0.57733	-12
0.58100	-16
0.58467	-16
0.58833	-12
0.59200	-6
0.59567	1
0.59933	9
0.60300	17
0.60667	21
0.61033	20
0.61400	15
0.61767	11
0.62133	4
0.62500	-1
0.62867	-2
0.63233	1
0.63600	5
0.63967	5
0.64333	6
0.64700	10
0.65067	8
0.65433	4
0.65800	2
0.66167	-0
0.66533	2
0.66900	7
0.67267	12
0.67633	13
0.68000	10
0.68367	7
0.68733	7
0.69100	4
0.69467	3
0.69833	1
0.70200	-3
0.70567	-5
0.70933	-4
0.71300	-1
0.71667	3
0.72033	5
0.72400	2
0.72767	-1
0.73133	-1
0.73500	2
0.73867	6
0.74233	10
0.74600	14
0.74967	17
0.75333	21
0.75700	22
0.76067	23
0.76433	23
0.76800	21
0.77167	20
0.77533	19
0.77900	18
0.78267	15
0.78633	8
0.79000	1
0.79367	-3
0.79733	-8
0.80100	-12
0.80467	-18
0.80833	-26
0.81200	-32
0.81567	-35
0.81933	-35
0.82300	-28
0.82667	-20
0.83033	-15
0.83400	-15
0.83767	-18
0.84133	-23
0.84500	-25
0.84867	-22
0.85233	-16
0.85600	-12
0.85967	-8
0.86333	-6
0.86700	-4
0.87067	-5
0.87433	-9
0.87800	-7
0.88167	3
0.88533	9
0.88900	14
0.89267	21
0.89633	32
0.90000	41
0.90367	45
0.90733	42
0.91100	38
0.91467	32
0.91833	26
0.92200	21
0.92567	18
0.92933	18
0.93300	21
0.93667	23
0.94033	21
0.94400	20
0.94767	22
0.95133	29
0.95500	37
0.95867	39
0.96233	36
0.96600	32
0.96967	26
0.97333	21
0.97700	18
0.98067	17
0.98433	19
0.98800	20
0.99167	20
0.99533	25
0.99900	34
1.00267	43
1.00633	47
1.01000	45
1.01367	39
1.01733	34
1.02100	29
1.02467	27
1.02833	27
1.03200	29
1.03567	33
1.03933	36
1.04300	38
1.04667	34
1.05033	28
1.05400	25
1.05767	25
1.06133	30
1.06500	41
1.06867	48
1.07233	44
1.07600	34
1.07967	29
1.08333	28
1.08700	33
1.09067	37
1.09433	40
1.09800	40
1.10167	39
1.10533	42
1.10900	42
1.11267	40
1.11633	36
1.12000	31
1.12367	29
1.12733	30
1.13100	35
1.13467	42
1.13833	45
1.14200	45
1.14567	44
1.14933	44
1.15300	41
1.15667	37
1.16033	35
1.16400	35
1.16767	35
1.17133	35
1.17500	39
1.17867	44
1.18233	44
1.18600	37
1.18967	26
1.19333	16
1.19700	11
1.20067	12
1.20433	17
1.20800	24
1.21167	26
1.21533	26
1.21900	20
1.22267	12
1.22633	5
1.23000	3
1.23367	8
1.23733	15
1.24100	21
1.24467	27
1.24833	29
1.25200	29
1.25567	25
1.25933	23
1.26300	22
1.26667	22
1.27033	20
1.27400	19
1.27767	26
1.28133	33
1.28500	39
1.28867	46
1.29233	46
1.29600	45
1.29967	43
1.30333	41
1.30700	34
1.31067	26
1.31433	25
1.31800	33
1.32167	43
1.32533	46
1.32900	37
1.33267	22
1.33633	12
1.34000	11
1.34367	13
1.34733	20
1.35100	26
1.35467	24
1.35833	19
1.36200	14
1.36567	11
1.36933	6
1.37300	1
1.37667	-1
1.38033	0
1.38400	4
1.38767	10
1.39133	16
1.39500	21
1.39867	24
1.40233	23
1.40600	21
1.40967	20
1.41333	21
1.41700	20
1.42067	20
1.42433	20
1.42800	21
1.43167	24
1.43533	29
1.43900	54
1.44267	159
1.44633	431
1.45000	1141
1.45367	2707
1.45733	5115
1.46100	7848
1.46467	10357
1.46833	12326
1.47200	13601
1.47567	14040
1.47933	13534
1.48300	12154
1.48667	10194
1.49033	8063
1.49400	6097
1.49767	4472
1.50133	3225
1.50500	2316
1.50867	1672
1.51233	1220
1.51600	905
1.51967	686
1.52333	536
1.52700	433
1.53067	358
1.53433	303
1.53800	280
1.54167	332
1.54533	522
1.54900	859
1.55267	1279
1.55633	1687
1.56000	2020
1.56367	2246
1.56733	2342
1.57100	2276
1.57467	2044
1.57833	1696
1.58200	1321
1.58567	979
1.58933	705
1.59300	508
1.59667	373
1.60033	280
1.60400	214
1.60767	167
1.61133	137
1.61500	121
1.61867	106
1.62233	88
1.62600	73
1.62967	61
1.63333	56
1.63700	57
1.64067	62
1.64433	68
1.64800	71
1.65167	68
1.65533	63
1.65900	57
1.66267	48
1.66633	42
1.67000	40
1.67367	46
1.67733	56
1.68100	61
1.68467	60
1.68833	52
1.69200	43
1.69567	38
1.69933	36
1.70300	33
1.70667	30
1.71033	32
1.71400	38
1.71767	44
1.72133	46
1.72500	42
1.72867	38
1.73233	37
1.73600	42
1.73967	48
1.74333	47
1.74700	42
1.75067	39
1.75433	43
1.75800	46
1.76167	40
1.76533	29
1.76900	30
1.77267	38
1.77633	44
1.78000	42
1.78367	38
1.78733	31
1.79100	22
1.79467	16
1.79833	13
1.80200	16
1.80567	23
1.80933	31
1.81300	38
1.81667	43
1.82033	47
1.82400	54
1.82767	63
1.83133	66
1.83500	63
1.83867	56
1.84233	51
1.84600	48
1.84967	51
1.85333	51
1.85700	47
1.86067	42
1.86433	38
1.86800	33
1.87167	27
1.87533	19
1.87900	16
1.88267	18
1.88633	21
1.89000	23
1.89367	24
1.89733	27
1.90100	31
1.90467	36
1.90833	42
1.91200	50
1.91567	62
1.91933	75
1.92300	80
1.92667	71
1.93033	58
1.93400	47
1.93767	42
1.94133	46
1.94500	52
1.94867	58
1.95233	87
1.95600	304
1.95967	1549
1.96333	6915
1.96700	24434
1.97067	68482
1.97433	154311
1.97800	285691
1.98167	447399
1.98533	611631
1.98900	750198
1.99267	841025
1.99633	871361
2.00000	839193
2.00367	753980
2.00733	634878
2.01100	504508
2.01467	381941
2.01833	278551
2.02200	197974
2.02567	138644
2.02933	96652
2.03300	67700
2.03667	48047
2.04033	34798
2.04400	25863
2.04767	19797
2.05133	15629
2.05500	12710
2.05867	10615
2.06233	9078
2.06600	7921
2.06967	7024
2.07333	6310
2.07700	5728
2.08067	5249
2.08433	4843
2.08800	4498
2.09167	4203
2.09533	3945
2.09900	3716
2.10267	3511
2.10633	3332
2.11000	3172
2.11367	3026
2.11733	2890
2.12100	2764
2.12467	2650
2.12833	2547
2.13200	2449
2.13567	2354
2.13933	2265
2.14300	2186
2.14667	2119
2.15033	2062
2.15400	2010
2.15767	1956
2.16133	1893
2.16500	1824
2.16867	1755
2.17233	1688
2.17600	1626
2.17967	1571
2.18333	1526
2.18700	1486
2.19067	1451
2.19433	1421
2.19800	1395
2.20167	1369
2.20533	1338
2.20900	1303
2.21267	1273
2.21633	1244
2.22000	1220
2.22367	1199
2.22733	1177
2.23100	1154
2.23467	1130
2.23833	1106
2.24200	1083
2.24567	1063
2.24933	1045
2.25300	1032
2.25667	1017
2.26033	1001
2.26400	983
2.26767	966
2.27133	952
2.27500	939
2.27867	924
2.28233	905
2.28600	884
2.28967	865
2.29333	850
2.29700	833
2.30067	816
2.30433	802
2.30800	791
2.31167	782
2.31533	774
2.31900	769
2.32267	763
2.32633	752
2.33000	741
2.33367	731
2.33733	724
2.34100	717
2.34467	711
2.34833	704
2.35200	697
2.35567	690
2.35933	684
2.36300	677
2.36667	668
2.37033	661
2.37400	658
2.37767	659
2.38133	660
2.38500	656
2.38867	650
2.39233	647
2.39600	644
2.39967	639
2.40333	629
2.40700	620
2.41067	611
2.41433	605
2.41800	599
2.42167	590
2.42533	583
2.42900	581
2.43267	580
2.43633	576
2.44000	569
2.44367	559
2.44733	552
2.45100	550
2.45467	552
2.45833	550
2.46200	545
2.46567	542
2.46933	539
2.47300	538
2.47667	533
2.48033	526
2.48400	522
2.48767	517
2.49133	515
2.49500	519
2.49867	526
2.50233	532
2.50600	533
2.50967	531
2.51333	526
2.51700	519
2.52067	512
2.52433	510
2.52800	507
2.53167	503
2.53533	500
2.53900	496
2.54267	489
2.54633	487
2.55000	486
2.55367	487
2.55733	491
2.56100	491
2.56467	487
2.56833	479
2.57200	472
2.57567	465
2.57933	455
2.58300	449
2.58667	449
2.59033	450
2.59400	449
2.59767	448
2.60133	450
2.60500	452
2.60867	455
2.61233	457
2.61600	456
2.61967	456
2.62333	458
2.62700	458
2.63067	455
2.63433	449
2.63800	449
2.64167	458
2.64533	470
2.64900	472
2.65267	464
2.65633	451
2.66000	439
2.66367	429
2.66733	422
2.67100	419
2.67467	419
2.67833	418
2.68200	415
2.68567	412
2.68933	412
2.69300	414
2.69667	418
2.70033	424
2.70400	429
2.70767	428
2.71133	428
2.71500	433
2.71867	441
2.72233	446
2.72600	444
2.72967	440
2.73333	437
2.73700	436
2.74067	434
2.74433	432
2.74800	431
2.75167	431
2.75533	431
2.75900	435
2.76267	441
2.76633	442
2.77000	441
2.77367	441
2.77733	441
2.78100	442
2.78467	443
2.78833	442
2.79200	441
2.79567	439
2.79933	436
2.80300	431
2.80667	427
2.81033	425
2.81400	427
2.81767	437
2.82133	444
2.82500	448
2.82867	446
2.83233	441
2.83600	440
2.83967	440
2.84333	437
2.84700	435
2.85067	433
2.85433	431
2.85800	432
2.86167	435
2.86533	438
2.86900	439
2.87267	441
2.87633	442
2.88000	442
2.88367	445
2.88733	456
2.89100	469
2.89467	476
2.89833	475
2.90200	465
2.90567	451
2.90933	435
2.91300	422
2.91667	415
2.92033	414
2.92400	414
2.92767	415
2.93133	413
2.93500	410
2.93867	413
2.94233	416
2.94600	417
2.94967	416
2.95333	416
2.95700	420
2.96067	426
2.96433	431
2.96800	438
2.97167	445
2.97533	448
2.97900	447
2.98267	443
2.98633	444
2.99000	446
2.99367	441
2.99733	431
3.00100	427
3.00467	428
3.00833	438
3.01200	448
3.01567	451
3.01933	455
3.02300	459
3.02667	463
3.03033	464
3.03400	457
3.03767	446
3.04133	438
3.04500	433
3.04867	436
3.05233	444
3.05600	447
3.05967	443
3.06333	438
3.06700	433
3.07067	427
3.07433	423
3.07800	421
3.08167	421
3.08533	421
3.08900	419
3.09267	418
3.09633	414
3.10000	413
3.10367	417
3.10733	417
3.11100	419
3.11467	423
3.11833	428
3.12200	432
3.12567	434
3.12933	434
3.13300	433
3.13667	430
3.14033	426
3.14400	424
3.14767	423
3.15133	424
3.15500	428
3.15867	432
3.16233	433
3.16600	433
3.16967	433
3.17333	437
3.17700	441
3.18067	440
3.18433	432
3.18800	422
3.19167	415
3.19533	415
3.19900	416
3.20267	411
3.20633	405
3.21000	398
3.21367	394
3.21733	391
3.22100	392
3.22467	397
3.22833	404
3.23200	409
3.23567	410
3.23933	411
3.24300	411
3.24667	414
3.25033	418
3.25400	419
3.25767	420
3.26133	419
3.26500	416
3.26867	415
3.27233	411
3.27600	406
3.27967	402
3.28333	396
3.28700	393
3.29067	394
3.29433	396
3.29800	400
3.30167	408
3.30533	414
3.30900	413
3.31267	409
3.31633	408
3.32000	412
3.32367	418
3.32733	420
3.33100	418
3.33467	413
3.33833	410
3.34200	408
3.34567	407
3.34933	407
3.35300	406
3.35667	409
3.36033	415
3.36400	416
3.36767	409
3.37133	398
3.37500	389
3.37867	385
3.38233	386
3.38600	389
3.38967	385
3.39333	378
3.39700	373
3.40067	369
3.40433	368
3.40800	371
3.41167	376
3.41533	384
3.41900	396
3.42267	403
3.42633	408
3.43000	410
3.43367	406
3.43733	398
3.44100	392
3.44467	388
3.44833	384
3.45200	382
3.45567	382
3.45933	382
3.46300	381
3.46667	379
3.47033	374
3.47400	367
3.47767	362
3.48133	364
3.48500	365
3.48867	361
3.49233	356
3.49600	352
3.49967	350
3.50333	346
3.50700	342
3.51067	341
3.51433	342
3.51800	343
3.52167	343
3.52533	343
3.52900	346
3.53267	351
3.53633	351
3.54000	348
3.54367	348
3.54733	353
3.55100	357
3.55467	361
3.55833	365
3.56200	369
3.56567	368
3.56933	365
3.57300	361
3.57667	356
3.58033	355
3.58400	356
3.58767	357
3.59133	359
3.59500	360
3.59867	358
3.60233	355
3.60600	355
3.60967	352
3.61333	352
3.61700	351
3.62067	348
3.62433	345
3.62800	342
3.63167	337
3.63533	330
3.63900	322
3.64267	317
3.64633	318
3.65000	322
3.65367	329
3.65733	333
3.66100	335
3.66467	337
3.66833	339
3.67200	344
3.67567	341
3.67933	332
3.68300	324
3.68667	320
3.69033	318
3.69400	316
3.69767	314
3.70133	311
3.70500	308
3.70867	306
3.71233	305
3.71600	307
3.71967	315
3.72333	329
3.72700	345
3.73067	355
3.73433	356
3.73800	346
3.74167	332
3.74533	321
3.74900	308
3.75267	297
3.75633	290
3.76000	288
3.76367	291
3.76733	294
3.77100	297
3.77467	298
3.77833	299
3.78200	301
3.78567	306
3.78933	311
3.79300	313
3.79667	310
3.80033	302
3.80400	296
3.80767	291
3.81133	288
3.81500	289
3.81867	294
3.82233	303
3.82600	307
3.82967	308
3.83333	308
3.83700	307
3.84067	308
3.84433	305
3.84800	300
3.85167	298
3.85533	299
3.85900	300
3.86267	300
3.86633	299
3.87000	298
3.87367	296
3.87733	298
3.88100	301
3.88467	303
3.88833	302
3.89200	303
3.89567	306
3.89933	306
3.90300	296
3.90667	283
3.91033	273
3.91400	267
3.91767	261
3.92133	257
3.92500	255
3.92867	254
3.93233	256
3.93600	258
3.93967	263
3.94333	270
3.94700	276
3.95067	277
3.95433	273
3.95800	262
3.96167	250
3.96533	243
3.96900	241
3.97267	240
3.97633	241
3.98000	245
3.98367	251
3.98733	253
3.99100	258
3.99467	263
3.99833	265

[Chromatogram (Ch2)]
Interval(msec)	220
# of Points	1091
Start Time(min)	0.002
End Time(min)	3.998
R.Time (min)	Intensity
0.00167	-0
0.00533	-0
0.00900	-0
0.01267	-0
0.01633	-0
0.02000	-0
0.02367	-0
0.02733	-0
0.03100	-0
0.03467	-0
0.03833	-0
0.04200	-0
0.04567	-0
0.04933	-0
0.05300	-0
0.05667	-0
0.06033	-0
0.06400	-0
0.06767	-0
0.07133	-0
0.07500	-0
0.07867	-0
0.08233	-0
0.08600	0
0.08967	1
0.09333	1
0.09700	2
0.10067	2
0.10433	2
0.10800	2
0.11167	2
0.11533	2
0.11900	2
0.12267	2
0.12633	2
0.13000	2
0.13367	2
0.13733	2
0.14100	2
0.14467	2
0.14833	2
0.15200	1
0.15567	1
0.15933	1
0.16300	1
0.16667	1
0.17033	1
0.17400	1
0.17767	1
0.18133	1
0.18500	1
0.18867	1
0.19233	0
0.19600	-0
0.19967	-1
0.20333	-1
0.20700	-1
0.21067	-1
0.21433	-1
0.21800	-0
0.22167	-0
0.22533	0
0.22900	0
0.23267	0
0.23633	1
0.24000	1
0.24367	1
0.24733	1
0.25100	1
0.25467	2
0.25833	2
0.26200	2
0.26567	2
0.26933	2
0.27300	1
0.27667	1
0.28033	1
0.28400	1
0.28767	0
0.29133	0
0.29500	-0
0.29867	-0
0.30233	-0
0.30600	-1
0.30967	-1
0.31333	-1
0.31700	-1
0.32067	-2
0.32433	-2
0.32800	-2
0.33167	-2
0.33533	-2
0.33900	-2
0.34267	-1
0.34633	-1
0.35000	-1
0.35367	-0
0.35733	-0
0.36100	0
0.36467	0
0.36833	0
0.37200	1
0.37567	1
0.37933	1
0.38300	1
0.38667	1
0.39033	1
0.39400	0
0.39767	0
0.40133	0
0.40500	0
0.40867	0
0.41233	0
0.41600	0
0.41967	-0
0.42333	-0
0.42700	-1
0.43067	-1
0.43433	-1
0.43800	-0
0.44167	-0
0.44533	-0
0.44900	-0
0.45267	-0
0.45633	-0
0.46000	-0
0.46367	-0
0.46733	-0
0.47100	-0
0.47467	0
0.47833	0
0.48200	0
0.48567	0
0.48933	0
0.49300	0
0.49667	0
0.50033	0
0.50400	0
0.50767	0
0.51133	0
0.51500	0
0.51867	0
0.52233	0
0.52600	-0
0.52967	-0
0.53333	-0
0.53700	-0
0.54067	-0
0.54433	-0
0.54800	-0
0.55167	0
0.55533	0
0.55900	0
0.56267	0
0.56633	0
0.57000	0
0.57367	0
0.57733	0
0.58100	0
0.58467	0
0.58833	0
0.59200	0
0.59567	0
0.59933	0
0.60300	0
0.60667	0
0.61033	0
0.61400	0
0.61767	0
0.62133	0
0.62500	0
0.62867	0
0.63233	0
0.63600	0
0.63967	-0
0.64333	0
0.64700	0
0.65067	0
0.65433	0
0.65800	0
0.66167	1
0.66533	1
0.66900	1
0.67267	2
0.67633	2
0.68000	2
0.68367	2
0.68733	2
0.69100	2
0.69467	2
0.69833	2
0.70200	1
0.70567	1
0.70933	1
0.71300	1
0.71667	1
0.72033	0
0.72400	0
0.72767	-0
0.73133	-0
0.73500	-0
0.73867	-0
0.74233	-0
0.74600	-0
0.74967	0
0.75333	0
0.75700	0
0.76067	0
0.76433	0
0.76800	1
0.77167	1
0.77533	1
0.77900	1
0.78267	1
0.78633	1
0.79000	1
0.79367	1
0.79733	1
0.80100	1
0.80467	1
0.80833	1
0.81200	1
0.81567	1
0.81933	1
0.82300	1
0.82667	1
0.83033	0
0.83400	0
0.83767	-0
0.84133	-1
0.84500	-1
0.84867	-1
0.85233	-1
0.85600	-1
0.85967	-1
0.86333	-1
0.86700	-1
0.87067	-1
0.87433	-1
0.87800	-0
0.88167	-0
0.88533	-0
0.88900	0
0.89267	0
0.89633	0
0.90000	1
0.90367	1
0.90733	1
0.91100	1
0.91467	1
0.91833	0
0.92200	0
0.92567	0
0.92933	-0
0.93300	-0
0.93667	-0
0.94033	-1
0.94400	-1
0.94767	-1
0.95133	-1
0.95500	-1
0.95867	-1
0.96233	-1
0.96600	-1
0.96967	-2
0.97333	-2
0.97700	-2
0.98067	-2
0.98433	-2
0.98800	-2
0.99167	-2
0.99533	-2
0.99900	-2
1.00267	-2
1.00633	-2
1.01000	-1
1.01367	-1
1.01733	-0
1.02100	0
1.02467	0
1.02833	1
1.03200	1
1.03567	1
1.03933	1
1.04300	1
1.04667	1
1.05033	1
1.05400	1
1.05767	1
1.06133	1
1.06500	0
1.06867	-0
1.07233	-0
1.07600	-1
1.07967	-1
1.08333	-1
1.08700	-2
1.09067	-2
1.09433	-2
1.09800	-2
1.10167	-2
1.10533	-2
1.10900	-2
1.11267	-2
1.11633	-2
1.12000	-2
1.12367	-2
1.12733	-2
1.13100	-2
1.13467	-2
1.13833	-2
1.14200	-2
1.14567	-2
1.14933	-2
1.15300	-2
1.15667	-2
1.16033	-2
1.16400	-2
1.16767	-2
1.17133	-2
1.17500	-1
1.17867	-1
1.18233	-1
1.18600	-1
1.18967	-1
1.19333	-1
1.19700	-1
1.20067	-1
1.20433	-1
1.20800	-1
1.21167	-2
1.21533	-2
1.21900	-2
1.22267	-2
1.22633	-2
1.23000	-3
1.23367	-3
1.23733	-3
1.24100	-3
1.24467	-4
1.24833	-4
1.25200	-4
1.25567	-4
1.25933	-4
1.26300	-3
1.26667	-3
1.27033	-3
1.27400	-2
1.27767	-2
1.28133	-2
1.28500	-2
1.28867	-2
1.29233	-2
1.29600	-2
1.29967	-2
1.30333	-2
1.30700	-2
1.31067	-2
1.31433	-2
1.31800	-2
1.32167	-2
1.32533	-2
1.32900	-3
1.33267	-3
1.33633	-2
1.34000	-2
1.34367	-2
1.34733	-2
1.35100	-1
1.35467	-1
1.35833	-1
1.36200	-0
1.36567	0
1.36933	0
1.37300	-0
1.37667	-0
1.38033	-0
1.38400	-0
1.38767	-0
1.39133	-0
1.39500	-0
1.39867	-0
1.40233	-0
1.40600	-0
1.40967	-0
1.41333	-0
1.41700	-0
1.42067	-0
1.42433	-1
1.42800	-1
1.43167	-1
1.43533	-1
1.43900	-2
1.44267	-2
1.44633	-2
1.45000	-2
1.45367	-2
1.45733	-2
1.46100	-2
1.46467	-2
1.46833	-2
1.47200	-2
1.47567	-2
1.47933	-2
1.48300	-2
1.48667	-2
1.49033	-2
1.49400	-2
1.49767	-1
1.50133	-1
1.50500	-1
1.50867	-1
1.51233	-2
1.51600	-2
1.51967	-2
1.52333	-2
1.52700	-2
1.53067	-2
1.53433	-2
1.53800	-2
1.54167	-3
1.54533	-3
1.54900	-3
1.55267	-3
1.55633	-3
1.56000	-3
1.56367	-3
1.56733	-2
1.57100	-2
1.57467	-1
1.57833	-1
1.58200	-1
1.58567	-1
1.58933	-1
1.59300	-1
1.59667	-2
1.60033	-2
1.60400	-3
1.60767	-5
1.61133	-7
1.61500	-9
1.61867	-12
1.62233	-15
1.62600	-18
1.62967	-21
1.63333	-24
1.63700	-28
1.64067	-31
1.64433	-35
1.64800	-38
1.65167	-42
1.65533	-45
1.65900	-49
1.66267	-53
1.66633	-57
1.67000	-61
1.67367	-66
1.67733	-71
1.68100	-76
1.68467	-81
1.68833	-85
1.69200	-89
1.69567	-92
1.69933	-95
1.70300	-97
1.70667	-99
1.71033	-100
1.71400	-101
1.71767	-101
1.72133	-102
1.72500	-103
1.72867	-104
1.73233	-105
1.73600	-106
1.73967	-107
1.74333	-108
1.74700	-108
1.75067	-109
1.75433	-109
1.75800	-109
1.76167	-108
1.76533	-108
1.76900	-108
1.77267	-108
1.77633	-108
1.78000	-109
1.78367	-110
1.78733	-111
1.79100	-113
1.79467	-114
1.79833	-115
1.80200	-115
1.80567	-116
1.80933	-116
1.81300	-115
1.81667	-115
1.82033	-114
1.82400	-112
1.82767	-111
1.83133	-110
1.83500	-109
1.83867	-108
1.84233	-107
1.84600	-107
1.84967	-108
1.85333	-108
1.85700	-109
1.86067	-109
1.86433	-110
1.86800	-111
1.87167	-111
1.87533	-112
1.87900	-112
1.88267	-112
1.88633	-112
1.89000	-112
1.89367	-112
1.89733	-112
1.90100	-111
1.90467	-111
1.90833	-111
1.91200	-111
1.91567	-111
1.91933	-111
1.92300	-111
1.92667	-111
1.93033	-110
1.93400	-110
1.93767	-110
1.94133	-109
1.94500	-109
1.94867	-108
1.95233	-108
1.95600	-108
1.95967	-108
1.96333	-108
1.96700	-108
1.97067	-108
1.97433	-108
1.97800	-108
1.98167	-108
1.98533	-108
1.98900	-107
1.99267	-107
1.99633	-107
2.00000	-106
2.00367	-106
2.00733	-105
2.01100	-105
2.01467	-104
2.01833	-104
2.02200	-104
2.02567	-104
2.02933	-104
2.03300	-105
2.03667	-105
2.04033	-105
2.04400	-105
2.04767	-104
2.05133	-104
2.05500	-103
2.05867	-102
2.06233	-102
2.06600	-101
2.06967	-100
2.07333	-100
2.07700	-100
2.08067	-100
2.08433	-100
2.08800	-101
2.09167	-101
2.09533	-101
2.09900	-101
2.10267	-101
2.10633	-101
2.11000	-101
2.11367	-101
2.11733	-100
2.12100	-100
2.12467	-99
2.12833	-98
2.13200	-97
2.13567	-97
2.13933	-96
2.14300	-95
2.14667	-94
2.15033	-94
2.15400	-94
2.15767	-94
2.16133	-94
2.16500	-94
2.16867	-94
2.17233	-93
2.17600	-93
2.17967	-93
2.18333	-92
2.18700	-92
2.19067	-92
2.19433	-93
2.19800	-93
2.20167	-93
2.20533	-93
2.20900	-92
2.21267	-92
2.21633	-92
2.22000	-91
2.22367	-91
2.22733	-90
2.23100	-89
2.23467	-89
2.23833	-88
2.24200	-87
2.24567	-86
2.24933	-85
2.25300	-85
2.25667	-85
2.26033	-85
2.26400	-86
2.26767	-87
2.27133	-87
2.27500	-88
2.27867	-88
2.28233	-88
2.28600	-87
2.28967	-86
2.29333	-85
2.29700	-84
2.30067	-83
2.30433	-82
2.30800	-82
2.31167	-82
2.31533	-82
2.31900	-82
2.32267	-81
2.32633	-81
2.33000	-81
2.33367	-81
2.33733	-80
2.34100	-80
2.34467	-79
2.34833	-78
2.35200	-77
2.35567	-75
2.35933	-74
2.36300	-72
2.36667	-71
2.37033	-69
2.37400	-66
2.37767	-63
2.38133	-60
2.38500	-56
2.38867	-53
2.39233	-48
2.39600	-44
2.39967	-39
2.40333	-35
2.40700	-31
2.41067	-27
2.41433	-23
2.41800	-20
2.42167	-17
2.42533	-16
2.42900	-14
2.43267	-14
2.43633	-13
2.44000	-12
2.44367	-11
2.44733	-10
2.45100	-9
2.45467	-8
2.45833	-7
2.46200	-6
2.46567	-5
2.46933	-4
2.47300	-3
2.47667	-2
2.48033	-1
2.48400	0
2.48767	1
2.49133	2
2.49500	3
2.49867	4
2.50233	5
2.50600	5
2.50967	6
2.51333	6
2.51700	7
2.52067	8
2.52433	9
2.52800	10
2.53167	11
2.53533	12
2.53900	13
2.54267	13
2.54633	13
2.55000	13
2.55367	13
2.55733	13
2.56100	14
2.56467	14
2.56833	15
2.57200	15
2.57567	16
2.57933	16
2.58300	16
2.58667	15
2.59033	15
2.59400	14
2.59767	14
2.60133	14
2.60500	15
2.60867	15
2.61233	16
2.61600	16
2.61967	17
2.62333	18
2.62700	18
2.63067	18
2.63433	19
2.63800	19
2.64167	19
2.64533	19
2.64900	19
2.65267	19
2.65633	20
2.66000	20
2.66367	20
2.66733	20
2.67100	20
2.67467	20
2.67833	21
2.68200	21
2.68567	21
2.68933	22
2.69300	22
2.69667	23
2.70033	23
2.70400	23
2.70767	23
2.71133	23
2.71500	23
2.71867	23
2.72233	23
2.72600	23
2.72967	23
2.73333	24
2.73700	24
2.74067	24
2.74433	25
2.74800	25
2.75167	26
2.75533	26
2.75900	26
2.76267	27
2.76633	27
2.77000	27
2.77367	28
2.77733	27
2.78100	27
2.78467	26
2.78833	26
2.79200	25
2.79567	24
2.79933	24
2.80300	23
2.80667	23
2.81033	23
2.81400	23
2.81767	23
2.82133	23
2.82500	24
2.82867	24
2.83233	25
2.83600	25
2.83967	24
2.84333	23
2.84700	19
2.85067	14
2.85433	5
2.85800	-7
2.86167	-22
2.86533	-42
2.86900	-67
2.87267	-95
2.87633	-129
2.88000	-166
2.88367	-207
2.88733	-251
2.89100	-298
2.89467	-348
2.89833	-400
2.90200	-453
2.90567	-508
2.90933	-563
2.91300	-618
2.91667	-673
2.92033	-727
2.92400	-779
2.92767	-830
2.93133	-882
2.93500	-938
2.93867	-997
2.94233	-1050
2.94600	-1086
2.94967	-1099
2.95333	-1086
2.95700	-1049
2.96067	-993
2.96433	-923
2.96800	-846
2.97167	-766
2.97533	-685
2.97900	-608
2.98267	-535
2.98633	-468
2.99000	-406
2.99367	-351
2.99733	-301
3.00100	-258
3.00467	-220
3.00833	-187
3.01200	-158
3.01567	-133
3.01933	-111
3.02300	-93
3.02667	-77
3.03033	-64
3.03400	-52
3.03767	-42
3.04133	-34
3.04500	-27
3.04867	-21
3.05233	-16
3.05600	-12
3.05967	-8
3.06333	-5
3.06700	-2
3.07067	0
3.07433	3
3.07800	4
3.08167	6
3.08533	7
3.08900	9
3.09267	10
3.09633	10
3.10000	11
3.10367	12
3.10733	13
3.11100	13
3.11467	14
3.11833	14
3.12200	15
3.12567	15
3.12933	16
3.13300	16
3.13667	17
3.14033	17
3.14400	18
3.14767	18
3.15133	18
3.15500	18
3.15867	19
3.16233	19
3.16600	19
3.16967	19
3.17333	19
3.17700	19
3.18067	19
3.18433	19
3.18800	19
3.19167	19
3.19533	19
3.19900	20
3.20267	20
3.20633	20
3.21000	21
3.21367	21
3.21733	21
3.22100	21
3.22467	21
3.22833	21
3.23200	22
3.23567	22
3.23933	23
3.24300	23
3.24667	24
3.25033	24
3.25400	25
3.25767	25
3.26133	25
3.26500	26
3.26867	26
3.27233	27
3.27600	27
3.27967	27
3.28333	27
3.28700	27
3.29067	27
3.29433	28
3.29800	28
3.30167	28
3.30533	28
3.30900	28
3.31267	28
3.31633	28
3.32000	29
3.32367	29
3.32733	29
3.33100	29
3.33467	29
3.33833	29
3.34200	29
3.34567	29
3.34933	29
3.35300	29
3.35667	29
3.36033	29
3.36400	29
3.36767	28
3.37133	28
3.37500	28
3.37867	28
3.38233	28
3.38600	28
3.38967	29
3.39333	29
3.39700	29
3.40067	29
3.40433	29
3.40800	29
3.41167	29
3.41533	29
3.41900	30
3.42267	30
3.42633	30
3.43000	30
3.43367	30
3.43733	30
3.44100	30
3.44467	30
3.44833	30
3.45200	29
3.45567	29
3.45933	29
3.46300	28
3.46667	28
3.47033	28
3.47400	28
3.47767	28
3.48133	28
3.48500	28
3.48867	28
3.49233	28
3.49600	28
3.49967	28
3.50333	28
3.50700	29
3.51067	29
3.51433	29
3.51800	29
3.52167	29
3.52533	29
3.52900	29
3.53267	29
3.53633	29
3.54000	28
3.54367	28
3.54733	28
3.55100	28
3.55467	28
3.55833	27
3.56200	27
3.56567	26
3.56933	26
3.57300	26
3.57667	26
3.58033	26
3.58400	25
3.58767	25
3.59133	25
3.59500	25
3.59867	25
3.60233	25
3.60600	25
3.60967	26
3.61333	26
3.61700	26
3.62067	26
3.62433	26
3.62800	26
3.63167	26
3.63533	26
3.63900	26
3.64267	26
3.64633	26
3.65000	26
3.65367	26
3.65733	26
3.66100	26
3.66467	26
3.66833	26
3.67200	26
3.67567	26
3.67933	26
3.68300	26
3.68667	26
3.69033	26
3.69400	26
3.69767	27
3.70133	27
3.70500	27
3.70867	28
3.71233	28
3.71600	28
3.71967	29
3.72333	29
3.72700	29
3.73067	29
3.73433	29
3.73800	29
3.74167	29
3.74533	29
3.74900	29
3.75267	28
3.75633	28
3.76000	28
3.76367	28
3.76733	28
3.77100	28
3.77467	28
3.77833	28
3.78200	28
3.78567	27
3.78933	27
3.79300	27
3.79667	27
3.80033	27
3.80400	27
3.80767	27
3.81133	27
3.81500	27
3.81867	27
3.82233	28
3.82600	28
3.82967	28
3.83333	28
3.83700	28
3.84067	28
3.84433	28
3.84800	28
3.85167	28
3.85533	28
3.85900	28
3.86267	28
3.86633	28
3.87000	27
3.87367	27
3.87733	27
3.88100	27
3.88467	27
3.88833	27
3.89200	27
3.89567	27
3.89933	27
3.90300	27
3.90667	27
3.91033	27
3.91400	27
3.91767	27
3.92133	27
3.92500	27
3.92867	27
3.93233	27
3.93600	27
3.93967	27
3.94333	27
3.94700	27
3.95067	27
3.95433	27
3.95800	27
3.96167	27
3.96533	27
3.96900	27
3.97267	27
3.97633	27
3.98000	27
3.98367	27
3.98733	27
3.99100	27
3.99467	27
3.99833	27

[Chromatogram (Ch3)]
Interval(msec)	220
# of Points	1091
Start Time(min)	0.002
End Time(min)	3.998
R.Time (min)	Intensity
0.00167	1
0.00533	2
0.00900	3
0.01267	4
0.01633	3
0.02000	1
0.02367	-0
0.02733	-0
0.03100	-3
0.03467	-4
0.03833	-3
0.04200	0
0.04567	1
0.04933	-1
0.05300	-2
0.05667	-2
0.06033	-2
0.06400	-2
0.06767	-4
0.07133	-4
0.07500	-1
0.07867	1
0.08233	-0
0.08600	-1
0.08967	1
0.09333	2
0.09700	1
0.10067	0
0.10433	2
0.10800	1
0.11167	1
0.11533	-2
0.11900	-5
0.12267	-5
0.12633	-4
0.13000	-4
0.13367	-4
0.13733	-3
0.14100	-1
0.14467	-1
0.14833	-2
0.15200	-3
0.15567	-3
0.15933	-4
0.16300	-5
0.16667	-6
0.17033	-5
0.17400	0
0.17767	4
0.18133	5
0.18500	5
0.18867	4
0.19233	3
0.19600	3
0.19967	3
0.20333	3
0.20700	2
0.21067	3
0.21433	4
0.21800	4
0.22167	2
0.22533	2
0.22900	2
0.23267	2
0.23633	3
0.24000	3
0.24367	1
0.24733	1
0.25100	3
0.25467	3
0.25833	2
0.26200	1
0.26567	2
0.26933	2
0.27300	2
0.27667	2
0.28033	2
0.28400	0
0.28767	-2
0.29133	-3
0.29500	-5
0.29867	-6
0.30233	-5
0.30600	-5
0.30967	-5
0.31333	-3
0.31700	-4
0.32067	-5
0.32433	-3
0.32800	-2
0.33167	-3
0.33533	-3
0.33900	-2
0.34267	-3
0.34633	-1
0.35000	-2
0.35367	-3
0.35733	-3
0.36100	-1
0.36467	1
0.36833	1
0.37200	2
0.37567	4
0.37933	6
0.38300	7
0.38667	6
0.39033	4
0.39400	5
0.39767	5
0.40133	6
0.40500	4
0.40867	3
0.41233	6
0.41600	6
0.41967	5
0.42333	6
0.42700	7
0.43067	7
0.43433	7
0.43800	8
0.44167	7
0.44533	8
0.44900	8
0.45267	7
0.45633	7
0.46000	5
0.46367	3
0.46733	1
0.47100	-1
0.47467	-2
0.47833	-1
0.48200	2
0.48567	5
0.48933	5
0.49300	4
0.49667	4
0.50033	3
0.50400	3
0.50767	3
0.51133	2
0.51500	2
0.51867	1
0.52233	2
0.52600	3
0.52967	3
0.53333	3
0.53700	4
0.54067	4
0.54433	4
0.54800	4
0.55167	5
0.55533	6
0.55900	7
0.56267	5
0.56633	4
0.57000	2
0.57367	1
0.57733	3
0.58100	4
0.58467	5
0.58833	5
0.59200	5
0.59567	5
0.59933	4
0.60300	3
0.60667	5
0.61033	7
0.61400	8
0.61767	7
0.62133	6
0.62500	5
0.62867	4
0.63233	6
0.63600	9
0.63967	11
0.64333	11
0.64700	9
0.65067	5
0.65433	3
0.65800	4
0.66167	5
0.66533	6
0.66900	8
0.67267	10
0.67633	11
0.68000	11
0.68367	12
0.68733	12
0.69100	10
0.69467	9
0.69833	7
0.70200	7
0.70567	6
0.70933	6
0.71300	6
0.71667	4
0.72033	4
0.72400	6
0.72767	7
0.73133	5
0.73500	5
0.73867	6
0.74233	7
0.74600	6
0.74967	7
0.75333	9
0.75700	9
0.76067	10
0.76433	12
0.76800	12
0.77167	11
0.77533	9
0.77900	9
0.78267	9
0.78633	8
0.79000	9
0.79367	11
0.79733	12
0.80100	13
0.80467	13
0.80833	15
0.81200	15
0.81567	15
0.81933	13
0.82300	13
0.82667	13
0.83033	14
0.83400	16
0.83767	17
0.84133	18
0.84500	17
0.84867	14
0.85233	13
0.85600	13
0.85967	12
0.86333	12
0.86700	12
0.87067	13
0.87433	14
0.87800	14
0.88167	14
0.88533	14
0.88900	12
0.89267	12
0.89633	12
0.90000	13
0.90367	14
0.90733	15
0.91100	16
0.91467	17
0.91833	17
0.92200	16
0.92567	15
0.92933	16
0.93300	16
0.93667	18
0.94033	20
0.94400	20
0.94767	19
0.95133	18
0.95500	17
0.95867	17
0.96233	18
0.96600	19
0.96967	18
0.97333	16
0.97700	15
0.98067	13
0.98433	13
0.98800	12
0.99167	12
0.99533	11
0.99900	11
1.00267	11
1.00633	10
1.01000	12
1.01367	13
1.01733	12
1.02100	11
1.02467	13
1.02833	14
1.03200	17
1.03567	17
1.03933	17
1.04300	18
1.04667	17
1.05033	17
1.05400	15
1.05767	14
1.06133	14
1.06500	17
1.06867	18
1.07233	21
1.07600	23
1.07967	25
1.08333	24
1.08700	23
1.09067	20
1.09433	19
1.09800	19
1.10167	19
1.10533	17
1.10900	16
1.11267	15
1.11633	15
1.12000	16
1.12367	15
1.12733	14
1.13100	14
1.13467	14
1.13833	14
1.14200	15
1.14567	14
1.14933	13
1.15300	11
1.15667	9
1.16033	8
1.16400	9
1.16767	11
1.17133	12
1.17500	12
1.17867	13
1.18233	16
1.18600	16
1.18967	15
1.19333	15
1.19700	13
1.20067	12
1.20433	13
1.20800	15
1.21167	17
1.21533	17
1.21900	16
1.22267	14
1.22633	14
1.23000	15
1.23367	16
1.23733	13
1.24100	10
1.24467	9
1.24833	9
1.25200	9
1.25567	10
1.25933	12
1.26300	12
1.26667	14
1.27033	16
1.27400	19
1.27767	19
1.28133	20
1.28500	18
1.28867	16
1.29233	18
1.29600	18
1.29967	18
1.30333	19
1.30700	20
1.31067	19
1.31433	17
1.31800	18
1.32167	19
1.32533	22
1.32900	25
1.33267	24
1.33633	23
1.34000	23
1.34367	23
1.34733	23
1.35100	22
1.35467	22
1.35833	24
1.36200	25
1.36567	25
1.36933	26
1.37300	27
1.37667	26
1.38033	25
1.38400	25
1.38767	25
1.39133	27
1.39500	27
1.39867	26
1.40233	24
1.40600	21
1.40967	20
1.41333	19
1.41700	20
1.42067	20
1.42433	19
1.42800	18
1.43167	17
1.43533	16
1.43900	17
1.44267	18
1.44633	20
1.45000	20
1.45367	19
1.45733	18
1.46100	16
1.46467	16
1.46833	14
1.47200	13
1.47567	15
1.47933	17
1.48300	18
1.48667	17
1.49033	17
1.49400	16
1.49767	13
1.50133	15
1.50500	16
1.50867	18
1.51233	19
1.51600	19
1.51967	18
1.52333	16
1.52700	16
1.53067	16
1.53433	17
1.53800	19
1.54167	21
1.54533	22
1.54900	23
1.55267	22
1.55633	20
1.56000	18
1.56367	18
1.56733	17
1.57100	16
1.57467	15
1.57833	17
1.58200	19
1.58567	20
1.58933	22
1.59300	19
1.59667	19
1.60033	19
1.60400	19
1.60767	18
1.61133	17
1.61500	18
1.61867	21
1.62233	22
1.62600	21
1.62967	21
1.63333	21
1.63700	20
1.64067	19
1.64433	20
1.64800	22
1.65167	25
1.65533	26
1.65900	27
1.66267	29
1.66633	32
1.67000	33
1.67367	33
1.67733	34
1.68100	35
1.68467	33
1.68833	31
1.69200	30
1.69567	30
1.69933	30
1.70300	28
1.70667	28
1.71033	28
1.71400	27
1.71767	29
1.72133	31
1.72500	31
1.72867	29
1.73233	30
1.73600	33
1.73967	35
1.74333	34
1.74700	33
1.75067	34
1.75433	35
1.75800	34
1.76167	35
1.76533	34
1.76900	32
1.77267	34
1.77633	36
1.78000	35
1.78367	34
1.78733	34
1.79100	36
1.79467	37
1.79833	35
1.80200	34
1.80567	34
1.80933	34
1.81300	33
1.81667	31
1.82033	31
1.82400	31
1.82767	32
1.83133	32
1.83500	34
1.83867	36
1.84233	38
1.84600	40
1.84967	41
1.85333	40
1.85700	39
1.86067	40
1.86433	41
1.86800	41
1.87167	42
1.87533	42
1.87900	44
1.88267	45
1.88633	49
1.89000	53
1.89367	54
1.89733	53
1.90100	52
1.90467	53
1.90833	52
1.91200	52
1.91567	53
1.91933	53
1.92300	53
1.92667	53
1.93033	54
1.93400	57
1.93767	58
1.94133	58
1.94500	60
1.94867	60
1.95233	59
1.95600	60
1.95967	61
1.96333	62
1.96700	63
1.97067	66
1.97433	70
1.97800	73
1.98167	75
1.98533	75
1.98900	76
1.99267	76
1.99633	74
2.00000	74
2.00367	76
2.00733	77
2.01100	77
2.01467	77
2.01833	78
2.02200	78
2.02567	79
2.02933	80
2.03300	81
2.03667	83
2.04033	86
2.04400	87
2.04767	88
2.05133	89
2.05500	90
2.05867	90
2.06233	88
2.06600	88
2.06967	89
2.07333	90
2.07700	90
2.08067	92
2.08433	94
2.08800	94
2.09167	96
2.09533	97
2.09900	99
2.10267	99
2.10633	102
2.11000	102
2.11367	104
2.11733	104
2.12100	103
2.12467	102
2.12833	104
2.13200	107
2.13567	109
2.13933	109
2.14300	108
2.14667	109
2.15033	111
2.15400	112
2.15767	111
2.16133	110
2.16500	111
2.16867	114
2.17233	116
2.17600	114
2.17967	113
2.18333	115
2.18700	118
2.19067	121
2.19433	123
2.19800	124
2.20167	126
2.20533	127
2.20900	130
2.21267	134
2.21633	135
2.22000	136
2.22367	136
2.22733	138
2.23100	141
2.23467	144
2.23833	146
2.24200	145
2.24567	144
2.24933	146
2.25300	148
2.25667	151
2.26033	153
2.26400	155
2.26767	158
2.27133	159
2.27500	160
2.27867	159
2.28233	159
2.28600	160
2.28967	162
2.29333	163
2.29700	163
2.30067	165
2.30433	164
2.30800	165
2.31167	167
2.31533	169
2.31900	170
2.32267	170
2.32633	173
2.33000	174
2.33367	178
2.33733	181
2.34100	181
2.34467	181
2.34833	181
2.35200	184
2.35567	187
2.35933	189
2.36300	194
2.36667	196
2.37033	197
2.37400	199
2.37767	199
2.38133	201
2.38500	202
2.38867	203
2.39233	202
2.39600	205
2.39967	210
2.40333	215
2.40700	220
2.41067	223
2.41433	227
2.41800	231
2.42167	235
2.42533	238
2.42900	242
2.43267	244
2.43633	246
2.44000	250
2.44367	301
2.44733	432
2.45100	574
2.45467	692
2.45833	766
2.46200	781
2.46567	759
2.46933	729
2.47300	705
2.47667	693
2.48033	687
2.48400	672
2.48767	646
2.49133	611
2.49500	573
2.49867	539
2.50233	514
2.50600	497
2.50967	487
2.51333	484
2.51700	485
2.52067	492
2.52433	508
2.52800	527
2.53167	542
2.53533	549
2.53900	549
2.54267	539
2.54633	521
2.55000	500
2.55367	477
2.55733	456
2.56100	439
2.56467	422
2.56833	409
2.57200	400
2.57567	395
2.57933	390
2.58300	385
2.58667	383
2.59033	380
2.59400	379
2.59767	376
2.60133	370
2.60500	362
2.60867	348
2.61233	333
2.61600	318
2.61967	304
2.62333	291
2.62700	281
2.63067	275
2.63433	271
2.63800	272
2.64167	276
2.64533	280
2.64900	285
2.65267	288
2.65633	295
2.66000	300
2.66367	305
2.66733	308
2.67100	309
2.67467	307
2.67833	302
2.68200	296
2.68567	291
2.68933	284
2.69300	277
2.69667	271
2.70033	269
2.70400	265
2.70767	259
2.71133	253
2.71500	250
2.71867	248
2.72233	248
2.72600	249
2.72967	251
2.73333	251
2.73700	250
2.74067	251
2.74433	255
2.74800	258
2.75167	260
2.75533	261
2.75900	262
2.76267	263
2.76633	263
2.77000	263
2.77367	263
2.77733	264
2.78100	265
2.78467	266
2.78833	268
2.79200	269
2.79567	268
2.79933	267
2.80300	266
2.80667	267
2.81033	270
2.81400	271
2.81767	274
2.82133	286
2.82500	313
2.82867	367
2.83233	464
2.83600	633
2.83967	896
2.84333	1267
2.84700	1745
2.85067	2311
2.85433	2928
2.85800	3551
2.86167	4128
2.86533	4611
2.86900	4969
2.87267	5180
2.87633	5240
2.88000	5165
2.88367	4978
2.88733	4707
2.89100	4381
2.89467	4028
2.89833	3665
2.90200	3308
2.90567	2971
2.90933	2659
2.91300	2371
2.91667	2111
2.92033	1882
2.92400	1680
2.92767	1502
2.93133	1345
2.93500	1205
2.93867	1083
2.94233	977
2.94600	885
2.94967	807
2.95333	740
2.95700	682
2.96067	630
2.96433	583
2.96800	545
2.97167	514
2.97533	487
2.97900	460
2.98267	435
2.98633	415
2.99000	396
2.99367	379
2.99733	366
3.00100	357
3.00467	344
3.00833	331
3.01200	320
3.01567	311
3.01933	303
3.02300	295
3.02667	288
3.03033	283
3.03400	278
3.03767	267
3.04133	234
3.04500	192
3.04867	171
3.05233	176
3.05600	201
3.05967	237
3.06333	279
3.06700	321
3.07067	360
3.07433	396
3.07800	426
3.08167	454
3.08533	480
3.08900	505
3.09267	526
3.09633	543
3.10000	556
3.10367	567
3.10733	576
3.11100	585
3.11467	594
3.11833	601
3.12200	605
3.12567	611
3.12933	617
3.13300	619
3.13667	621
3.14033	624
3.14400	629
3.14767	631
3.15133	632
3.15500	635
3.15867	638
3.16233	638
3.16600	638
3.16967	639
3.17333	641
3.17700	644
3.18067	647
3.18433	651
3.18800	654
3.19167	659
3.19533	664
3.19900	666
3.20267	670
3.20633	674
3.21000	677
3.21367	678
3.21733	682
3.22100	684
3.22467	687
3.22833	689
3.23200	692
3.23567	693
3.23933	696
3.24300	699
3.24667	701
3.25033	705
3.25400	707
3.25767	709
3.26133	711
3.26500	714
3.26867	716
3.27233	720
3.27600	721
3.27967	722
3.28333	724
3.28700	726
3.29067	727
3.29433	729
3.29800	729
3.30167	727
3.30533	727
3.30900	727
3.31267	726
3.31633	723
3.32000	721
3.32367	720
3.32733	722
3.33100	723
3.33467	723
3.33833	724
3.34200	725
3.34567	725
3.34933	724
3.35300	724
3.35667	724
3.36033	725
3.36400	726
3.36767	725
3.37133	723
3.37500	720
3.37867	719
3.38233	718
3.38600	717
3.38967	716
3.39333	715
3.39700	716
3.40067	717
3.40433	717
3.40800	712
3.41167	710
3.41533	709
3.41900	707
3.42267	708
3.42633	711
3.43000	709
3.43367	710
3.43733	710
3.44100	706
3.44467	706
3.44833	705
3.45200	702
3.45567	700
3.45933	698
3.46300	698
3.46667	697
3.47033	695
3.47400	693
3.47767	692
3.48133	691
3.48500	688
3.48867	685
3.49233	682
3.49600	681
3.49967	680
3.50333	680
3.50700	679
3.51067	679
3.51433	677
3.51800	674
3.52167	673
3.52533	671
3.52900	670
3.53267	669
3.53633	668
3.54000	667
3.54367	666
3.54733	665
3.55100	662
3.55467	660
3.55833	660
3.56200	659
3.56567	658
3.56933	656
3.57300	653
3.57667	652
3.58033	654
3.58400	657
3.58767	659
3.59133	659
3.59500	659
3.59867	660
3.60233	662
3.60600	662
3.60967	661
3.61333	660
3.61700	658
3.62067	654
3.62433	651
3.62800	650
3.63167	650
3.63533	649
3.63900	651
3.64267	655
3.64633	656
3.65000	656
3.65367	656
3.65733	655
3.66100	654
3.66467	652
3.66833	648
3.67200	647
3.67567	647
3.67933	647
3.68300	646
3.68667	647
3.69033	646
3.69400	646
3.69767	644
3.70133	642
3.70500	641
3.70867	640
3.71233	641
3.71600	641
3.71967	644
3.72333	647
3.72700	647
3.73067	647
3.73433	647
3.73800	645
3.74167	645
3.74533	644
3.74900	643
3.75267	641
3.75633	639
3.76000	637
3.76367	635
3.76733	636
3.77100	635
3.77467	633
3.77833	633
3.78200	632
3.78567	632
3.78933	631
3.79300	629
3.79667	628
3.80033	628
3.80400	629
3.80767	628
3.81133	625
3.81500	623
3.81867	621
3.82233	620
3.82600	619
3.82967	618
3.83333	618
3.83700	617
3.84067	617
3.84433	617
3.84800	615
3.85167	613
3.85533	611
3.85900	609
3.86267	609
3.86633	610
3.87000	609
3.87367	609
3.87733	607
3.88100	605
3.88467	603
3.88833	599
3.89200	596
3.89567	595
3.89933	594
3.90300	595
3.90667	594
3.91033	592
3.91400	590
3.91767	588
3.92133	588
3.92500	586
3.92867	583
3.93233	580
3.93600	577
3.93967	577
3.94333	575
3.94700	572
3.95067	572
3.95433	574
3.95800	575
3.96167	575
3.96533	574
3.96900	573
3.97267	570
3.97633	568
3.98000	567
3.98367	567
3.98733	566
3.99100	567
3.99467	564
3.99833	559

[Status Trace (Column Oven Temperature)]
Interval(msec)	1000
# of Points	240
Start Time(min)	0.013
End Time(min)	3.996
Intensity Units	
Intensity Multiplier	1
R.Time (min)	Intensity
0.01252	35.05
0.02918	35.06
0.04585	35.06
0.06252	35.05
0.07918	35.06
0.09585	35.06
0.11252	35.06
0.12918	35.05
0.14585	35.05
0.16252	35.05
0.17918	35.05
0.19585	35.05
0.21252	35.05
0.22918	35.05
0.24585	35.04
0.26252	35.03
0.27918	35.03
0.29585	35.04
0.31252	35.04
0.32918	35.06
0.34585	35.06
0.36252	35.05
0.37918	35.04
0.39585	35.03
0.41252	35.04
0.42918	35.03
0.44585	35.03
0.46252	35.03
0.47918	35.03
0.49585	35.02
0.51252	35.02
0.52918	35.03
0.54585	35.03
0.56252	35.03
0.57918	35.03
0.59585	35.03
0.61252	35.02
0.62918	35.02
0.64585	35.03
0.66252	35.02
0.67918	35.01
0.69585	35.01
0.71252	35.01
0.72918	35.01
0.74585	35.00
0.76252	34.99
0.77918	34.99
0.79585	34.98
0.81252	34.99
0.82918	34.98
0.84585	34.99
0.86252	34.99
0.87918	34.99
0.89585	34.98
0.91252	34.97
0.92918	34.97
0.94585	34.97
0.96252	34.98
0.97918	34.99
0.99585	34.99
1.01252	34.98
1.02918	34.97
1.04585	34.96
1.06252	34.97
1.07918	34.97
1.09585	34.98
1.11252	34.97
1.12918	34.98
1.14585	34.98
1.16252	34.98
1.17918	34.98
1.19585	34.99
1.21252	34.99
1.22918	35.00
1.24585	35.00
1.26252	35.00
1.27918	35.00
1.29585	35.00
1.31252	35.00
1.32918	35.00
1.34585	34.99
1.36252	34.99
1.37918	34.98
1.39585	34.98
1.41252	34.97
1.42918	34.97
1.44585	34.98
1.46252	34.98
1.47918	34.99
1.49585	34.99
1.51252	34.99
1.52918	34.99
1.54585	35.00
1.56252	34.99
1.57918	34.99
1.59585	35.00
1.61252	35.08
1.62918	35.23
1.64585	35.44
1.66252	35.71
1.67918	36.07
1.69585	36.43
1.71252	36.77
1.72918	37.12
1.74585	37.45
1.76252	37.76
1.77918	38.09
1.79585	38.46
1.81252	38.79
1.82918	39.07
1.84585	39.40
1.86252	39.73
1.87918	40.06
1.89585	40.38
1.91252	40.71
1.92918	41.03
1.94585	41.34
1.96252	41.67
1.97918	42.00
1.99585	42.32
2.01252	42.64
2.02918	42.98
2.04585	43.30
2.06252	43.62
2.07918	43.96
2.09585	44.27
2.11252	44.63
2.12918	44.95
2.14585	45.28
2.16252	45.59
2.17918	45.91
2.19585	46.25
2.21252	46.59
2.22918	46.92
2.24585	47.24
2.26252	47.60
2.27918	47.95
2.29585	48.26
2.31252	48.60
2.32918	48.93
2.34585	49.23
2.36252	49.49
2.37918	49.62
2.39585	49.67
2.41252	49.65
2.42918	49.67
2.44585	49.68
2.46252	49.69
2.47918	49.70
2.49585	49.71
2.51252	49.74
2.52918	49.74
2.54585	49.77
2.56252	49.77
2.57918	49.81
2.59585	49.82
2.61252	49.82
2.62918	49.82
2.64585	49.83
2.66252	49.85
2.67918	49.85
2.69585	49.85
2.71252	49.87
2.72918	49.86
2.74585	49.86
2.76252	49.84
2.77918	49.86
2.79585	49.90
2.81252	49.91
2.82918	49.91
2.84585	49.91
2.86252	49.92
2.87918	49.92
2.89585	49.93
2.91252	49.94
2.92918	49.95
2.94585	49.97
2.96252	49.98
2.97918	49.99
2.99585	49.99
3.01252	50.00
3.02918	50.00
3.04585	50.01
3.06252	50.02
3.07918	50.03
3.09585	50.04
3.11252	50.05
3.12918	50.06
3.14585	50.07
3.16252	50.08
3.17918	50.10
3.19585	50.10
3.21252	50.11
3.22918	50.10
3.24585	50.11
3.26252	50.10
3.27918	50.09
3.29585	50.07
3.31252	50.05
3.32918	50.04
3.34585	50.03
3.36252	50.03
3.37918	50.02
3.39585	50.02
3.41252	50.01
3.42918	50.01
3.44585	50.01
3.46252	50.01
3.47918	50.00
3.49585	50.00
3.51252	50.00
3.52918	50.01
3.54585	50.02
3.56252	50.03
3.57918	50.03
3.59585	50.04
3.61252	50.04
3.62918	50.06
3.64585	50.07
3.66252	50.08
3.67918	50.08
3.69585	50.08
3.71252	50.07
3.72918	50.07
3.74585	50.07
3.76252	50.07
3.77918	50.07
3.79585	50.06
3.81252	50.06
3.82918	50.05
3.84585	50.05
3.86252	50.06
3.87918	50.07
3.89585	50.07
3.91252	50.08
3.92918	50.08
3.94585	50.09
3.96252	50.09
3.97918	50.09
3.99585	50.10

[Status Trace (Injection Unit Temperature)]
Interval(msec)	1000
# of Points	240
Start Time(min)	0.013
End Time(min)	3.996
Intensity Units	
Intensity Multiplier	1
R.Time (min)	Intensity
0.01252	99.98
0.02918	99.98
0.04585	99.98
0.06252	99.98
0.07918	99.98
0.09585	99.98
0.11252	99.98
0.12918	99.98
0.14585	99.98
0.16252	99.98
0.17918	99.98
0.19585	99.98
0.21252	99.98
0.22918	99.98
0.24585	99.98
0.26252	99.98
0.27918	99.98
0.29585	99.98
0.31252	99.98
0.32918	99.98
0.34585	99.98
0.36252	99.98
0.37918	99.98
0.39585	99.99
0.41252	99.98
0.42918	99.98
0.44585	99.98
0.46252	99.98
0.47918	99.98
0.49585	99.98
0.51252	99.99
0.52918	99.98
0.54585	99.98
0.56252	99.98
0.57918	99.98
0.59585	99.99
0.61252	99.98
0.62918	99.98
0.64585	99.99
0.66252	99.98
0.67918	99.98
0.69585	99.99
0.71252	99.99
0.72918	99.99
0.74585	99.99
0.76252	99.99
0.77918	99.99
0.79585	99.99
0.81252	99.98
0.82918	99.99
0.84585	99.98
0.86252	99.99
0.87918	99.99
0.89585	99.99
0.91252	99.98
0.92918	99.99
0.94585	99.98
0.96252	99.98
0.97918	99.98
0.99585	99.99
1.01252	99.98
1.02918	99.98
1.04585	99.99
1.06252	99.98
1.07918	99.98
1.09585	99.98
1.11252	99.98
1.12918	99.98
1.14585	99.98
1.16252	99.98
1.17918	99.98
1.19585	99.98
1.21252	99.98
1.22918	99.98
1.24585	99.98
1.26252	99.98
1.27918	99.98
1.29585	99.98
1.31252	99.98
1.32918	99.98
1.34585	99.98
1.36252	99.98
1.37918	99.97
1.39585	99.98
1.41252	99.98
1.42918	99.98
1.44585	99.98
1.46252	99.98
1.47918	99.98
1.49585	99.98
1.51252	99.98
1.52918	99.98
1.54585	99.98
1.56252	99.98
1.57918	99.98
1.59585	99.98
1.61252	99.99
1.62918	99.98
1.64585	99.98
1.66252	99.98
1.67918	99.98
1.69585	99.99
1.71252	99.98
1.72918	99.99
1.74585	99.98
1.76252	99.98
1.77918	99.99
1.79585	99.98
1.81252	99.98
1.82918	99.98
1.84585	99.99
1.86252	99.99
1.87918	99.99
1.89585	99.99
1.91252	99.99
1.92918	99.99
1.94585	99.99
1.96252	99.98
1.97918	99.98
1.99585	99.98
2.01252	99.98
2.02918	99.98
2.04585	99.98
2.06252	99.98
2.07918	99.98
2.09585	99.98
2.11252	99.98
2.12918	99.98
2.14585	99.98
2.16252	99.97
2.17918	99.98
2.19585	99.97
2.21252	99.97
2.22918	99.97
2.24585	99.97
2.26252	99.97
2.27918	99.97
2.29585	99.97
2.31252	99.96
2.32918	99.97
2.34585	99.97
2.36252	99.97
2.37918	99.96
2.39585	99.96
2.41252	99.97
2.42918	99.97
2.44585	99.97
2.46252	99.97
2.47918	99.97
2.49585	99.97
2.51252	99.96
2.52918	99.96
2.54585	99.97
2.56252	99.97
2.57918	99.96
2.59585	99.97
2.61252	99.97
2.62918	99.97
2.64585	99.97
2.66252	99.97
2.67918	99.97
2.69585	99.97
2.71252	99.98
2.72918	99.98
2.74585	99.98
2.76252	99.98
2.77918	99.98
2.79585	99.98
2.81252	99.98
2.82918	99.99
2.84585	99.99
2.86252	99.99
2.87918	99.99
2.89585	99.99
2.91252	99.99
2.92918	100.00
2.94585	99.99
2.96252	100.00
2.97918	100.00
2.99585	100.00
3.01252	100.00
3.02918	100.00
3.04585	100.00
3.06252	100.01
3.07918	100.01
3.09585	100.01
3.11252	100.01
3.12918	100.01
3.14585	100.02
3.16252	100.02
3.17918	100.02
3.19585	100.02
3.21252	100.02
3.22918	100.02
3.24585	100.02
3.26252	100.03
3.27918	100.03
3.29585	100.03
3.31252	100.03
3.32918	100.03
3.34585	100.03
3.36252	100.03
3.37918	100.03
3.39585	100.03
3.41252	100.03
3.42918	100.04
3.44585	100.04
3.46252	100.04
3.47918	100.04
3.49585	100.04
3.51252	100.04
3.52918	100.04
3.54585	100.05
3.56252	100.04
3.57918	100.04
3.59585	100.04
3.61252	100.04
3.62918	100.04
3.64585	100.05
3.66252	100.04
3.67918	100.05
3.69585	100.05
3.71252	100.05
3.72918	100.04
3.74585	100.05
3.76252	100.05
3.77918	100.05
3.79585	100.05
3.81252	100.04
3.82918	100.04
3.84585	100.05
3.86252	100.05
3.87918	100.05
3.89585	100.05
3.91252	100.05
3.92918	100.05
3.94585	100.05
3.96252	100.05
3.97918	100.05
3.99585	100.05

[Status Trace (Carrier Gas Pressure)]
Interval(msec)	1000
# of Points	240
Start Time(min)	0.013
End Time(min)	3.996
Intensity Units	
Intensity Multiplier	1
R.Time (min)	Intensity
0.01252	57.96
0.02918	54.95
0.04585	57.74
0.06252	59.76
0.07918	58.90
0.09585	57.99
0.11252	57.99
0.12918	58.01
0.14585	58.01
0.16252	58.00
0.17918	58.00
0.19585	58.00
0.21252	58.00
0.22918	58.00
0.24585	58.00
0.26252	58.00
0.27918	58.00
0.29585	58.00
0.31252	58.00
0.32918	58.00
0.34585	58.00
0.36252	58.00
0.37918	58.00
0.39585	58.00
0.41252	58.00
0.42918	58.00
0.44585	58.00
0.46252	58.00
0.47918	58.00
0.49585	58.00
0.51252	58.00
0.52918	58.00
0.54585	58.00
0.56252	58.00
0.57918	58.00
0.59585	58.00
0.61252	58.00
0.62918	58.00
0.64585	58.00
0.66252	58.00
0.67918	58.00
0.69585	58.00
0.71252	58.00
0.72918	58.00
0.74585	58.00
0.76252	58.00
0.77918	58.00
0.79585	58.00
0.81252	58.00
0.82918	58.00
0.84585	58.00
0.86252	58.00
0.87918	58.00
0.89585	58.00
0.91252	58.00
0.92918	58.00
0.94585	58.00
0.96252	58.00
0.97918	58.00
0.99585	58.00
1.01252	58.00
1.02918	58.00
1.04585	58.00
1.06252	58.00
1.07918	58.00
1.09585	58.00
1.11252	58.00
1.12918	58.00
1.14585	58.00
1.16252	58.00
1.17918	58.00
1.19585	58.00
1.21252	58.00
1.22918	58.00
1.24585	58.00
1.26252	58.00
1.27918	58.00
1.29585	58.00
1.31252	58.00
1.32918	58.00
1.34585	58.00
1.36252	58.00
1.37918	58.00
1.39585	58.00
1.41252	58.00
1.42918	58.00
1.44585	58.00
1.46252	58.00
1.47918	58.00
1.49585	58.00
1.51252	58.00
1.52918	58.00
1.54585	58.00
1.56252	58.00
1.57918	58.00
1.59585	58.00
1.61252	58.00
1.62918	58.00
1.64585	58.00
1.66252	58.00
1.67918	58.01
1.69585	58.00
1.71252	58.00
1.72918	58.00
1.74585	58.00
1.76252	58.00
1.77918	58.00
1.79585	58.00
1.81252	58.00
1.82918	58.00
1.84585	58.00
1.86252	58.00
1.87918	58.00
1.89585	58.00
1.91252	58.00
1.92918	58.00
1.94585	58.00
1.96252	58.00
1.97918	58.00
1.99585	58.00
2.01252	58.00
2.02918	58.00
2.04585	58.00
2.06252	58.00
2.07918	58.00
2.09585	58.00
2.11252	58.00
2.12918	58.00
2.14585	58.00
2.16252	58.00
2.17918	58.00
2.19585	58.00
2.21252	58.00
2.22918	58.00
2.24585	58.00
2.26252	58.00
2.27918	58.00
2.29585	58.00
2.31252	58.00
2.32918	58.00
2.34585	58.00
2.36252	58.00
2.37918	58.00
2.39585	57.99
2.41252	57.99
2.42918	58.00
2.44585	58.00
2.46252	58.00
2.47918	58.00
2.49585	58.00
2.51252	57.99
2.52918	57.99
2.54585	58.00
2.56252	58.00
2.57918	58.00
2.59585	58.00
2.61252	58.00
2.62918	58.00
2.64585	58.00
2.66252	58.00
2.67918	58.00
2.69585	58.00
2.71252	58.00
2.72918	58.00
2.74585	58.00
2.76252	58.00
2.77918	58.00
2.79585	58.00
2.81252	58.00
2.82918	58.00
2.84585	58.00
2.86252	58.00
2.87918	58.00
2.89585	58.00
2.91252	58.00
2.92918	58.00
2.94585	58.00
2.96252	58.00
2.97918	58.00
2.99585	58.00
3.01252	58.00
3.02918	58.00
3.04585	58.00
3.06252	58.00
3.07918	58.00
3.09585	58.00
3.11252	58.00
3.12918	58.00
3.14585	58.00
3.16252	58.00
3.17918	58.00
3.19585	58.00
3.21252	58.00
3.22918	58.00
3.24585	58.00
3.26252	58.00
3.27918	58.00
3.29585	58.00
3.31252	58.00
3.32918	58.00
3.34585	58.00
3.36252	58.00
3.37918	58.00
3.39585	58.00
3.41252	58.00
3.42918	58.00
3.44585	58.00
3.46252	58.00
3.47918	58.00
3.49585	58.00
3.51252	58.00
3.52918	58.00
3.54585	58.00
3.56252	58.00
3.57918	58.00
3.59585	58.00
3.61252	58.00
3.62918	58.00
3.64585	58.00
3.66252	58.00
3.67918	58.00
3.69585	58.00
3.71252	58.00
3.72918	58.00
3.74585	58.00
3.76252	58.00
3.77918	58.00
3.79585	58.00
3.81252	58.00
3.82918	58.00
3.84585	58.00
3.86252	58.00
3.87918	58.00
3.89585	58.00
3.91252	58.00
3.92918	58.00
3.94585	58.00
3.96252	58.00
3.97918	58.00
3.99585	58.00

[Status Trace (Carrier Gas Flow)]
Interval(msec)	1000
# of Points	240
Start Time(min)	0.013
End Time(min)	3.996
Intensity Units	
Intensity Multiplier	1
R.Time (min)	Intensity
0.01252	34.65
0.02918	34.53
0.04585	34.55
0.06252	34.53
0.07918	34.51
0.09585	34.52
0.11252	34.52
0.12918	34.52
0.14585	34.52
0.16252	34.52
0.17918	34.52
0.19585	34.52
0.21252	34.52
0.22918	34.52
0.24585	34.52
0.26252	34.52
0.27918	34.52
0.29585	34.52
0.31252	34.52
0.32918	34.52
0.34585	34.52
0.36252	34.52
0.37918	34.52
0.39585	34.52
0.41252	34.52
0.42918	34.52
0.44585	34.52
0.46252	34.52
0.47918	34.52
0.49585	34.52
0.51252	34.52
0.52918	34.52
0.54585	34.52
0.56252	34.52
0.57918	34.52
0.59585	34.52
0.61252	34.52
0.62918	34.52
0.64585	34.52
0.66252	34.52
0.67918	34.52
0.69585	34.52
0.71252	34.52
0.72918	34.52
0.74585	34.52
0.76252	34.52
0.77918	34.52
0.79585	34.52
0.81252	34.52
0.82918	34.52
0.84585	34.52
0.86252	34.52
0.87918	34.52
0.89585	34.52
0.91252	34.52
0.92918	34.52
0.94585	34.52
0.96252	34.52
0.97918	34.52
0.99585	34.52
1.01252	34.52
1.02918	34.52
1.04585	34.52
1.06252	34.52
1.07918	34.52
1.09585	34.52
1.11252	34.52
1.12918	34.53
1.14585	34.52
1.16252	34.52
1.17918	34.51
1.19585	34.52
1.21252	34.52
1.22918	34.52
1.24585	34.51
1.26252	34.52
1.27918	34.52
1.29585	34.52
1.31252	34.52
1.32918	34.52
1.34585	34.52
1.36252	34.52
1.37918	34.52
1.39585	34.52
1.41252	34.52
1.42918	34.52
1.44585	34.52
1.46252	34.52
1.47918	34.52
1.49585	34.52
1.51252	34.52
1.52918	34.52
1.54585	34.52
1.56252	34.52
1.57918	34.52
1.59585	34.52
1.61252	34.52
1.62918	34.52
1.64585	34.52
1.66252	34.52
1.67918	34.52
1.69585	34.52
1.71252	34.52
1.72918	34.52
1.74585	34.52
1.76252	34.52
1.77918	34.52
1.79585	34.52
1.81252	34.52
1.82918	34.52
1.84585	34.52
1.86252	34.52
1.87918	34.52
1.89585	34.52
1.91252	34.52
1.92918	34.52
1.94585	34.52
1.96252	34.52
1.97918	34.52
1.99585	34.52
2.01252	34.52
2.02918	34.51
2.04585	34.52
2.06252	34.52
2.07918	34.52
2.09585	34.52
2.11252	34.52
2.12918	34.52
2.14585	34.52
2.16252	34.52
2.17918	34.52
2.19585	34.51
2.21252	34.52
2.22918	34.52
2.24585	34.51
2.26252	34.52
2.27918	34.52
2.29585	34.52
2.31252	34.52
2.32918	34.52
2.34585	34.51
2.36252	34.52
2.37918	34.51
2.39585	34.52
2.41252	34.52
2.42918	34.52
2.44585	34.52
2.46252	34.51
2.47918	34.52
2.49585	34.52
2.51252	34.52
2.52918	34.52
2.54585	34.52
2.56252	34.51
2.57918	34.52
2.59585	34.51
2.61252	34.52
2.62918	34.52
2.64585	34.52
2.66252	34.53
2.67918	34.52
2.69585	34.52
2.71252	34.51
2.72918	34.52
2.74585	34.52
2.76252	34.52
2.77918	34.52
2.79585	34.52
2.81252	34.52
2.82918	34.52
2.84585	34.52
2.86252	34.52
2.87918	34.52
2.89585	34.52
2.91252	34.52
2.92918	34.52
2.94585	34.52
2.96252	34.52
2.97918	34.52
2.99585	34.52
3.01252	34.52
3.02918	34.51
3.04585	34.51
3.06252	34.52
3.07918	34.52
3.09585	34.52
3.11252	34.52
3.12918	34.52
3.14585	34.52
3.16252	34.52
3.17918	34.51
3.19585	34.52
3.21252	34.52
3.22918	34.52
3.24585	34.52
3.26252	34.52
3.27918	34.52
3.29585	34.52
3.31252	34.51
3.32918	34.52
3.34585	34.52
3.36252	34.52
3.37918	34.52
3.39585	34.52
3.41252	34.52
3.42918	34.52
3.44585	34.52
3.46252	34.52
3.47918	34.52
3.49585	34.52
3.51252	34.52
3.52918	34.52
3.54585	34.52
3.56252	34.52
3.57918	34.52
3.59585	34.52
3.61252	34.52
3.62918	34.52
3.64585	34.52
3.66252	34.52
3.67918	34.51
3.69585	34.52
3.71252	34.52
3.72918	34.52
3.74585	34.52
3.76252	34.52
3.77918	34.52
3.79585	34.52
3.81252	34.52
3.82918	34.52
3.84585	34.52
3.86252	34.52
3.87918	34.51
3.89585	34.52
3.91252	34.52
3.92918	34.51
3.94585	34.52
3.96252	34.51
3.97918	34.52
3.99585	34.52

[Status Trace (Column Flow)]
Interval(msec)	1000
# of Points	240
Start Time(min)	0.013
End Time(min)	3.996
Intensity Units	
Intensity Multiplier	1
R.Time (min)	Intensity
0.01252	5.51
0.02918	5.16
0.04585	5.48
0.06252	5.72
0.07918	5.62
0.09585	5.51
0.11252	5.51
0.12918	5.51
0.14585	5.51
0.16252	5.51
0.17918	5.51
0.19585	5.51
0.21252	5.51
0.22918	5.51
0.24585	5.51
0.26252	5.51
0.27918	5.51
0.29585	5.51
0.31252	5.51
0.32918	5.51
0.34585	5.51
0.36252	5.51
0.37918	5.51
0.39585	5.51
0.41252	5.51
0.42918	5.51
0.44585	5.51
0.46252	5.51
0.47918	5.51
0.49585	5.51
0.51252	5.51
0.52918	5.51
0.54585	5.51
0.56252	5.51
0.57918	5.51
0.59585	5.51
0.61252	5.51
0.62918	5.51
0.64585	5.51
0.66252	5.51
0.67918	5.51
0.69585	5.51
0.71252	5.51
0.72918	5.51
0.74585	5.51
0.76252	5.52
0.77918	5.52
0.79585	5.52
0.81252	5.52
0.82918	5.52
0.84585	5.52
0.86252	5.52
0.87918	5.52
0.89585	5.52
0.91252	5.52
0.92918	5.52
0.94585	5.52
0.96252	5.52
0.97918	5.52
0.99585	5.52
1.01252	5.52
1.02918	5.52
1.04585	5.52
1.06252	5.52
1.07918	5.52
1.09585	5.52
1.11252	5.52
1.12918	5.52
1.14585	5.52
1.16252	5.52
1.17918	5.52
1.19585	5.52
1.21252	5.52
1.22918	5.52
1.24585	5.52
1.26252	5.51
1.27918	5.51
1.29585	5.52
1.31252	5.52
1.32918	5.51
1.34585	5.52
1.36252	5.52
1.37918	5.52
1.39585	5.52
1.41252	5.52
1.42918	5.52
1.44585	5.52
1.46252	5.52
1.47918	5.52
1.49585	5.52
1.51252	5.52
1.52918	5.52
1.54585	5.51
1.56252	5.52
1.57918	5.52
1.59585	5.51
1.61252	5.51
1.62918	5.51
1.64585	5.50
1.66252	5.49
1.67918	5.48
1.69585	5.47
1.71252	5.46
1.72918	5.45
1.74585	5.44
1.76252	5.43
1.77918	5.42
1.79585	5.41
1.81252	5.40
1.82918	5.39
1.84585	5.38
1.86252	5.37
1.87918	5.36
1.89585	5.35
1.91252	5.34
1.92918	5.33
1.94585	5.32
1.96252	5.31
1.97918	5.30
1.99585	5.29
2.01252	5.28
2.02918	5.27
2.04585	5.26
2.06252	5.25
2.07918	5.24
2.09585	5.23
2.11252	5.22
2.12918	5.22
2.14585	5.21
2.16252	5.20
2.17918	5.19
2.19585	5.18
2.21252	5.17
2.22918	5.16
2.24585	5.15
2.26252	5.14
2.27918	5.13
2.29585	5.12
2.31252	5.11
2.32918	5.10
2.34585	5.09
2.36252	5.09
2.37918	5.08
2.39585	5.08
2.41252	5.08
2.42918	5.08
2.44585	5.08
2.46252	5.08
2.47918	5.08
2.49585	5.08
2.51252	5.08
2.52918	5.08
2.54585	5.08
2.56252	5.08
2.57918	5.08
2.59585	5.08
2.61252	5.08
2.62918	5.08
2.64585	5.08
2.66252	5.08
2.67918	5.08
2.69585	5.08
2.71252	5.08
2.72918	5.08
2.74585	5.08
2.76252	5.08
2.77918	5.08
2.79585	5.08
2.81252	5.07
2.82918	5.07
2.84585	5.07
2.86252	5.07
2.87918	5.07
2.89585	5.07
2.91252	5.07
2.92918	5.07
2.94585	5.07
2.96252	5.07
2.97918	5.07
2.99585	5.07
3.01252	5.07
3.02918	5.07
3.04585	5.07
3.06252	5.07
3.07918	5.07
3.09585	5.07
3.11252	5.07
3.12918	5.07
3.14585	5.07
3.16252	5.07
3.17918	5.07
3.19585	5.07
3.21252	5.07
3.22918	5.07
3.24585	5.07
3.26252	5.07
3.27918	5.07
3.29585	5.07
3.31252	5.07
3.32918	5.07
3.34585	5.07
3.36252	5.07
3.37918	5.07
3.39585	5.07
3.41252	5.07
3.42918	5.07
3.44585	5.07
3.46252	5.07
3.47918	5.07
3.49585	5.07
3.51252	5.07
3.52918	5.07
3.54585	5.07
3.56252	5.07
3.57918	5.07
3.59585	5.07
3.61252	5.07
3.62918	5.07
3.64585	5.07
3.66252	5.07
3.67918	5.07
3.69585	5.07
3.71252	5.07
3.72918	5.07
3.74585	5.07
3.76252	5.07
3.77918	5.07
3.79585	5.07
3.81252	5.07
3.82918	5.07
3.84585	5.07
3.86252	5.07
3.87918	5.07
3.89585	5.07
3.91252	5.07
3.92918	5.07
3.94585	5.07
3.96252	5.07
3.97918	5.07
3.99585	5.07

[Status Trace (Linear Velocity)]
Interval(msec)	1000
# of Points	240
Start Time(min)	0.013
End Time(min)	3.996
Intensity Units	
Intensity Multiplier	1
R.Time (min)	Intensity
0.01252	38.99
0.02918	37.01
0.04585	38.84
0.06252	40.16
0.07918	39.60
0.09585	39.00
0.11252	39.01
0.12918	39.02
0.14585	39.02
0.16252	39.01
0.17918	39.01
0.19585	39.01
0.21252	39.01
0.22918	39.01
0.24585	39.01
0.26252	39.01
0.27918	39.01
0.29585	39.01
0.31252	39.01
0.32918	39.01
0.34585	39.01
0.36252	39.01
0.37918	39.01
0.39585	39.01
0.41252	39.01
0.42918	39.01
0.44585	39.01
0.46252	39.01
0.47918	39.01
0.49585	39.01
0.51252	39.01
0.52918	39.01
0.54585	39.01
0.56252	39.01
0.57918	39.01
0.59585	39.01
0.61252	39.01
0.62918	39.01
0.64585	39.01
0.66252	39.01
0.67918	39.01
0.69585	39.01
0.71252	39.01
0.72918	39.01
0.74585	39.02
0.76252	39.02
0.77918	39.02
0.79585	39.02
0.81252	39.02
0.82918	39.02
0.84585	39.02
0.86252	39.02
0.87918	39.02
0.89585	39.02
0.91252	39.02
0.92918	39.02
0.94585	39.02
0.96252	39.02
0.97918	39.02
0.99585	39.02
1.01252	39.02
1.02918	39.02
1.04585	39.02
1.06252	39.02
1.07918	39.02
1.09585	39.02
1.11252	39.02
1.12918	39.02
1.14585	39.02
1.16252	39.02
1.17918	39.02
1.19585	39.02
1.21252	39.02
1.22918	39.02
1.24585	39.02
1.26252	39.01
1.27918	39.01
1.29585	39.02
1.31252	39.02
1.32918	39.02
1.34585	39.02
1.36252	39.02
1.37918	39.02
1.39585	39.02
1.41252	39.02
1.42918	39.02
1.44585	39.02
1.46252	39.02
1.47918	39.02
1.49585	39.02
1.51252	39.02
1.52918	39.02
1.54585	39.02
1.56252	39.02
1.57918	39.02
1.59585	39.02
1.61252	39.01
1.62918	39.00
1.64585	38.98
1.66252	38.95
1.67918	38.92
1.69585	38.88
1.71252	38.85
1.72918	38.82
1.74585	38.78
1.76252	38.75
1.77918	38.73
1.79585	38.69
1.81252	38.65
1.82918	38.63
1.84585	38.60
1.86252	38.57
1.87918	38.54
1.89585	38.50
1.91252	38.47
1.92918	38.45
1.94585	38.42
1.96252	38.39
1.97918	38.36
1.99585	38.32
2.01252	38.30
2.02918	38.27
2.04585	38.23
2.06252	38.20
2.07918	38.18
2.09585	38.15
2.11252	38.11
2.12918	38.09
2.14585	38.05
2.16252	38.03
2.17918	38.00
2.19585	37.97
2.21252	37.93
2.22918	37.91
2.24585	37.88
2.26252	37.85
2.27918	37.82
2.29585	37.78
2.31252	37.76
2.32918	37.73
2.34585	37.70
2.36252	37.68
2.37918	37.66
2.39585	37.66
2.41252	37.66
2.42918	37.66
2.44585	37.66
2.46252	37.66
2.47918	37.66
2.49585	37.66
2.51252	37.65
2.52918	37.65
2.54585	37.65
2.56252	37.65
2.57918	37.65
2.59585	37.65
2.61252	37.65
2.62918	37.65
2.64585	37.65
2.66252	37.65
2.67918	37.64
2.69585	37.64
2.71252	37.64
2.72918	37.64
2.74585	37.64
2.76252	37.64
2.77918	37.64
2.79585	37.64
2.81252	37.64
2.82918	37.64
2.84585	37.64
2.86252	37.64
2.87918	37.64
2.89585	37.64
2.91252	37.64
2.92918	37.64
2.94585	37.63
2.96252	37.63
2.97918	37.63
2.99585	37.63
3.01252	37.63
3.02918	37.63
3.04585	37.63
3.06252	37.63
3.07918	37.63
3.09585	37.63
3.11252	37.63
3.12918	37.63
3.14585	37.63
3.16252	37.62
3.17918	37.62
3.19585	37.62
3.21252	37.62
3.22918	37.62
3.24585	37.62
3.26252	37.62
3.27918	37.62
3.29585	37.62
3.31252	37.63
3.32918	37.63
3.34585	37.63
3.36252	37.63
3.37918	37.63
3.39585	37.63
3.41252	37.63
3.42918	37.63
3.44585	37.63
3.46252	37.63
3.47918	37.63
3.49585	37.63
3.51252	37.63
3.52918	37.63
3.54585	37.63
3.56252	37.63
3.57918	37.63
3.59585	37.63
3.61252	37.63
3.62918	37.63
3.64585	37.63
3.66252	37.62
3.67918	37.62
3.69585	37.62
3.71252	37.62
3.72918	37.63
3.74585	37.62
3.76252	37.63
3.77918	37.63
3.79585	37.63
3.81252	37.63
3.82918	37.63
3.84585	37.63
3.86252	37.63
3.87918	37.63
3.89585	37.62
3.91252	37.62
3.92918	37.62
3.94585	37.62
3.96252	37.62
3.97918	37.62
3.99585	37.62

