[Header]
Application Name	LabSolutions
Version	5.110
Data File Name	C:\Users\User\Desktop\GC Analyses\Jack\Nachusa Grasslands Sampling\T2 Timepoint July 12th\T2_07122022_008.gcd
Output Date	3/14/2023
Output Time	3:42:30 PM

[File Information]
Type	Data File
Generated	3/10/2023 1:10:41 PM
Generated by	System Administrator
Modified	3/10/2023 1:17:22 PM
Modified by	System Administrator

[Sample Information]
Operator Name	System Administrator
Acquired	3/10/2023 1:13:21 PM
Sample Type	0:Unknown
Level	0
Sample Name	008
Sample ID	008
ISTD Amount1	1
ISTD Amount2	1
ISTD Amount3	1
ISTD Amount4	1
ISTD Amount5	1
ISTD Amount6	1
ISTD Amount7	1
ISTD Amount8	1
ISTD Amount9	1
ISTD Amount10	1
ISTD Amount11	1
ISTD Amount12	1
ISTD Amount13	1
ISTD Amount14	1
ISTD Amount15	1
ISTD Amount16	1
ISTD Amount17	1
ISTD Amount18	1
ISTD Amount19	1
ISTD Amount20	1
ISTD Amount21	1
ISTD Amount22	1
ISTD Amount23	1
ISTD Amount24	1
ISTD Amount25	1
ISTD Amount26	1
ISTD Amount27	1
ISTD Amount28	1
ISTD Amount29	1
ISTD Amount30	1
ISTD Amount31	1
ISTD Amount32	1
Sample Amount	1
Dilution Factor	1
Vial#	7
Injection Volume	1
Injection Count	1
Bar Code	

[Original Files]
Data File	C:\Users\User\Desktop\GC Analyses\Jack\Nachusa Grasslands Sampling\T1 Timepoint July 12th\T2_07122022_008.gcd
Method File	C:\LabSolutions\Data\GHG_4min_2022\ghg3_togas_w_acet_4 min_new_int.gcm
Batch File	C:\LabSolutions\Data\AutoSamplerTesting\T2_07122022.gcb
Report Format File	c:\LabSolutions\System\DEFAULT.lsr

[File Description]


[Configuration]
Instrument Name	C0B7VH3-Instrument1
Instrument #	1
Line #	1
# of Detectors	3
Detector ID	DET#1	DET#2	DET#3
Detector Name	FID	PTCD	ECD
# of Channels	1	1	1

[Peak Table(Ch1)]
# of Peaks	3
Peak#	R.Time	I.Time	F.Time	Area	Height	A/H	Conc.	Mark	ID#	Name	k'	Plate #	Plate Ht.	Tailing	Resolution	Sep.Factor	Area Ratio	Height Ratio	Conc. %	Norm Conc.
1	1.476	1.439	1.538	20985	9849	2.131	148.153	   	1	CO	0.000	9217	16.275	1.286	0.000	0.000	0	0	23.769	23.769
2	1.567	1.538	1.626	4388	2157	2.034	84.841	 V 	2	CH4	0.062	10598	14.154	0.000	1.498	0.000	0	0	13.612	13.612
3	1.996	1.949	2.491	1555146	747010	2.082	390.300	   	3	CO2	0.353	17392	8.624	1.259	7.065	5.680	0	0	62.619	62.619

[Peak Table(Ch2)]
# of Peaks	0

[Peak Table(Ch3)]
# of Peaks	5
Peak#	R.Time	I.Time	F.Time	Area	Height	A/H	Conc.	Mark	ID#	Name	k'	Plate #	Plate Ht.	Tailing	Resolution	Sep.Factor	Area Ratio	Height Ratio	Conc. %	Norm Conc.
1	2.462	2.253	2.517	1758	521	3.375	0.000	   			0.000	8987	16.691	0.000	0.000	0.000	0	0	0.000	0.000
2	2.539	2.517	2.642	1183	288	4.108	0.000	 V 			0.031	4218	35.565	0.000	0.592	0.000	0	0	0.000	0.000
3	2.678	2.642	2.755	157	51	3.078	0.000	 V 			0.088	15861	9.457	0.000	1.154	2.810	0	0	0.000	0.000
4	2.876	2.807	3.107	18520	4907	3.774	0.473	   	1	N2O	0.168	13452	11.151	1.638	2.149	1.915	0	0	100.000	100.000
5	3.353	3.155	3.969	11182	389	28.725	0.000	   	2	SF6	0.362	387	387.915	2.030	1.220	2.150	0	0	0.000	0.000

[Compound Results(Ch1)]
# of IDs	6
ID#	Name	R.Time	Area	Height	Conc.	Curve	3rd	2nd	1st	Constant	Area Ratio	Height Ratio	Conc. %	Norm Conc.
1	CO	1.476	20985	9849	148.153	Linear	0.000000e+00	0.000000e+00	1.416423e+002	0.000000e+00	0	0	23.769	23.769
2	CH4	1.567	4388	2157	84.841	Linear	0.000000e+00	0.000000e+00	5.171738e+001	0.000000e+00	0	0	13.612	13.612
3	CO2	1.996	1555146	747010	390.300	Linear	0.000000e+00	0.000000e+00	3.984494e+003	0.000000e+00	0	0	62.619	62.619
4	Ethylene	0.000	0	0	0.000	Linear	0.000000e+00	0.000000e+00	0.000000e+00	0.000000e+00	0	0	0.000	0.000
5	Acetylene	0.000	0	0	0.000	Linear	0.000000e+00	0.000000e+00	0.000000e+00	0.000000e+00	0	0	0.000	0.000
6	Ethane	0.000	0	0	0.000	Linear	0.000000e+00	0.000000e+00	0.000000e+00	0.000000e+00	0	0	0.000	0.000

[Compound Results(Ch2)]
# of IDs	5
ID#	Name	R.Time	Area	Height	Conc.	Curve	3rd	2nd	1st	Constant	Area Ratio	Height Ratio	Conc. %	Norm Conc.
1	Hydrogen	0.000	0	0	0.000	Linear	0.000000e+00	0.000000e+00	0.000000e+00	0.000000e+00	0	0	0.000	0.000
2	Oxygen	0.000	0	0	0.000	Linear	0.000000e+00	0.000000e+00	0.000000e+00	0.000000e+00	0	0	0.000	0.000
3	Nitrogen	0.000	0	0	0.000	Linear	0.000000e+00	0.000000e+00	0.000000e+00	0.000000e+00	0	0	0.000	0.000
4	Methane	0.000	0	0	0.000	Linear	0.000000e+00	0.000000e+00	0.000000e+00	0.000000e+00	0	0	0.000	0.000
5	Carbon Monoxide	0.000	0	0	0.000	Linear	0.000000e+00	0.000000e+00	0.000000e+00	0.000000e+00	0	0	0.000	0.000

[Compound Results(Ch3)]
# of IDs	2
ID#	Name	R.Time	Area	Height	Conc.	Curve	3rd	2nd	1st	Constant	Area Ratio	Height Ratio	Conc. %	Norm Conc.
1	N2O	2.876	18520	4907	0.473	Linear	0.000000e+00	0.000000e+00	3.915173e+004	0.000000e+00	0	0	100.000	100.000
2	SF6	3.353	11182	389	0.000	Linear	0.000000e+00	0.000000e+00	0.000000e+00	0.000000e+00	0	0	0.000	0.000

[Group Results(Ch1)]
# of Groups	0

[Group Results(Ch2)]
# of Groups	0

[Group Results(Ch3)]
# of Groups	0

[Chromatogram (Ch1)]
Interval(msec)	220
# of Points	1091
Start Time(min)	0.002
End Time(min)	3.998
R.Time (min)	Intensity
0.00167	-41
0.00533	-40
0.00900	-33
0.01267	-24
0.01633	-21
0.02000	-19
0.02367	-16
0.02733	-12
0.03100	-11
0.03467	-12
0.03833	-15
0.04200	-20
0.04567	-21
0.04933	-18
0.05300	-14
0.05667	-10
0.06033	-6
0.06400	-3
0.06767	-1
0.07133	-6
0.07500	-14
0.07867	-22
0.08233	-25
0.08600	-22
0.08967	-14
0.09333	-9
0.09700	-5
0.10067	-1
0.10433	0
0.10800	-3
0.11167	-10
0.11533	-20
0.11900	-26
0.12267	-24
0.12633	-22
0.13000	-21
0.13367	-21
0.13733	-20
0.14100	-19
0.14467	-17
0.14833	-13
0.15200	-9
0.15567	-7
0.15933	-6
0.16300	-4
0.16667	-7
0.17033	-10
0.17400	-14
0.17767	-17
0.18133	-18
0.18500	-15
0.18867	-10
0.19233	-3
0.19600	2
0.19967	5
0.20333	3
0.20700	3
0.21067	4
0.21433	6
0.21800	11
0.22167	22
0.22533	37
0.22900	48
0.23267	51
0.23633	47
0.24000	39
0.24367	31
0.24733	22
0.25100	13
0.25467	8
0.25833	10
0.26200	14
0.26567	18
0.26933	18
0.27300	14
0.27667	9
0.28033	1
0.28400	-4
0.28767	-10
0.29133	-13
0.29500	-15
0.29867	-17
0.30233	-19
0.30600	-20
0.30967	-19
0.31333	-15
0.31700	-7
0.32067	-0
0.32433	6
0.32800	10
0.33167	9
0.33533	2
0.33900	-10
0.34267	-22
0.34633	-33
0.35000	-41
0.35367	-42
0.35733	-39
0.36100	-33
0.36467	-31
0.36833	-33
0.37200	-34
0.37567	-30
0.37933	-23
0.38300	-19
0.38667	-18
0.39033	-18
0.39400	-18
0.39767	-16
0.40133	-15
0.40500	-16
0.40867	-18
0.41233	-21
0.41600	-27
0.41967	-37
0.42333	-46
0.42700	-49
0.43067	-52
0.43433	-54
0.43800	-50
0.44167	-42
0.44533	-37
0.44900	-33
0.45267	-30
0.45633	-26
0.46000	-23
0.46367	-28
0.46733	-38
0.47100	-49
0.47467	-57
0.47833	-62
0.48200	-63
0.48567	-60
0.48933	-54
0.49300	-46
0.49667	-40
0.50033	-41
0.50400	-46
0.50767	-48
0.51133	-46
0.51500	-44
0.51867	-45
0.52233	-46
0.52600	-40
0.52967	-37
0.53333	-40
0.53700	-46
0.54067	-48
0.54433	-46
0.54800	-40
0.55167	-32
0.55533	-25
0.55900	-19
0.56267	-15
0.56633	-15
0.57000	-17
0.57367	-24
0.57733	-32
0.58100	-34
0.58467	-33
0.58833	-39
0.59200	-49
0.59567	-53
0.59933	-52
0.60300	-47
0.60667	-41
0.61033	-43
0.61400	-49
0.61767	-54
0.62133	-54
0.62500	-54
0.62867	-50
0.63233	-45
0.63600	-41
0.63967	-39
0.64333	-41
0.64700	-45
0.65067	-42
0.65433	-34
0.65800	-31
0.66167	-28
0.66533	-30
0.66900	-38
0.67267	-44
0.67633	-49
0.68000	-54
0.68367	-57
0.68733	-55
0.69100	-50
0.69467	-49
0.69833	-52
0.70200	-55
0.70567	-55
0.70933	-53
0.71300	-53
0.71667	-52
0.72033	-52
0.72400	-54
0.72767	-55
0.73133	-57
0.73500	-56
0.73867	-53
0.74233	-48
0.74600	-42
0.74967	-40
0.75333	-40
0.75700	-43
0.76067	-50
0.76433	-55
0.76800	-59
0.77167	-61
0.77533	-62
0.77900	-61
0.78267	-58
0.78633	-57
0.79000	-59
0.79367	-63
0.79733	-67
0.80100	-67
0.80467	-63
0.80833	-55
0.81200	-47
0.81567	-45
0.81933	-49
0.82300	-55
0.82667	-59
0.83033	-57
0.83400	-51
0.83767	-47
0.84133	-44
0.84500	-42
0.84867	-40
0.85233	-36
0.85600	-38
0.85967	-44
0.86333	-56
0.86700	-72
0.87067	-83
0.87433	-89
0.87800	-85
0.88167	-75
0.88533	-65
0.88900	-59
0.89267	-56
0.89633	-55
0.90000	-55
0.90367	-60
0.90733	-65
0.91100	-67
0.91467	-64
0.91833	-58
0.92200	-50
0.92567	-45
0.92933	-44
0.93300	-47
0.93667	-56
0.94033	-67
0.94400	-75
0.94767	-78
0.95133	-83
0.95500	-89
0.95867	-96
0.96233	-106
0.96600	-113
0.96967	-113
0.97333	-110
0.97700	-103
0.98067	-90
0.98433	-78
0.98800	-69
0.99167	-68
0.99533	-72
0.99900	-73
1.00267	-70
1.00633	-63
1.01000	-58
1.01367	-54
1.01733	-48
1.02100	-38
1.02467	-29
1.02833	-24
1.03200	-23
1.03567	-28
1.03933	-38
1.04300	-45
1.04667	-52
1.05033	-56
1.05400	-57
1.05767	-54
1.06133	-51
1.06500	-50
1.06867	-50
1.07233	-47
1.07600	-43
1.07967	-41
1.08333	-41
1.08700	-42
1.09067	-43
1.09433	-45
1.09800	-47
1.10167	-46
1.10533	-43
1.10900	-42
1.11267	-38
1.11633	-34
1.12000	-30
1.12367	-26
1.12733	-27
1.13100	-29
1.13467	-33
1.13833	-37
1.14200	-39
1.14567	-38
1.14933	-35
1.15300	-34
1.15667	-32
1.16033	-29
1.16400	-30
1.16767	-36
1.17133	-39
1.17500	-40
1.17867	-41
1.18233	-44
1.18600	-47
1.18967	-50
1.19333	-53
1.19700	-54
1.20067	-49
1.20433	-39
1.20800	-31
1.21167	-27
1.21533	-26
1.21900	-23
1.22267	-22
1.22633	-27
1.23000	-37
1.23367	-47
1.23733	-51
1.24100	-50
1.24467	-43
1.24833	-37
1.25200	-38
1.25567	-44
1.25933	-50
1.26300	-57
1.26667	-58
1.27033	-58
1.27400	-58
1.27767	-57
1.28133	-53
1.28500	-46
1.28867	-36
1.29233	-26
1.29600	-22
1.29967	-25
1.30333	-35
1.30700	-47
1.31067	-57
1.31433	-61
1.31800	-60
1.32167	-60
1.32533	-63
1.32900	-64
1.33267	-61
1.33633	-56
1.34000	-51
1.34367	-48
1.34733	-46
1.35100	-47
1.35467	-53
1.35833	-60
1.36200	-66
1.36567	-69
1.36933	-72
1.37300	-75
1.37667	-74
1.38033	-73
1.38400	-74
1.38767	-77
1.39133	-75
1.39500	-69
1.39867	-64
1.40233	-62
1.40600	-60
1.40967	-58
1.41333	-54
1.41700	-45
1.42067	-39
1.42433	-40
1.42800	-46
1.43167	-52
1.43533	-51
1.43900	-25
1.44267	86
1.44633	337
1.45000	881
1.45367	1979
1.45733	3637
1.46100	5518
1.46467	7251
1.46833	8618
1.47200	9508
1.47567	9827
1.47933	9506
1.48300	8579
1.48667	7234
1.49033	5750
1.49400	4371
1.49767	3224
1.50133	2337
1.50500	1683
1.50867	1215
1.51233	886
1.51600	655
1.51967	496
1.52333	386
1.52700	309
1.53067	256
1.53433	214
1.53800	198
1.54167	246
1.54533	417
1.54900	731
1.55267	1124
1.55633	1510
1.56000	1826
1.56367	2047
1.56733	2144
1.57100	2090
1.57467	1887
1.57833	1571
1.58200	1216
1.58567	888
1.58933	623
1.59300	425
1.59667	288
1.60033	198
1.60400	139
1.60767	94
1.61133	58
1.61500	31
1.61867	13
1.62233	-0
1.62600	-8
1.62967	-11
1.63333	-11
1.63700	-13
1.64067	-20
1.64433	-25
1.64800	-30
1.65167	-33
1.65533	-34
1.65900	-32
1.66267	-25
1.66633	-16
1.67000	-8
1.67367	-4
1.67733	-3
1.68100	-5
1.68467	-9
1.68833	-18
1.69200	-29
1.69567	-38
1.69933	-43
1.70300	-46
1.70667	-44
1.71033	-38
1.71400	-31
1.71767	-24
1.72133	-23
1.72500	-29
1.72867	-39
1.73233	-51
1.73600	-59
1.73967	-62
1.74333	-63
1.74700	-60
1.75067	-56
1.75433	-53
1.75800	-53
1.76167	-55
1.76533	-58
1.76900	-63
1.77267	-70
1.77633	-71
1.78000	-69
1.78367	-64
1.78733	-59
1.79100	-55
1.79467	-49
1.79833	-47
1.80200	-47
1.80567	-44
1.80933	-39
1.81300	-33
1.81667	-28
1.82033	-28
1.82400	-34
1.82767	-44
1.83133	-58
1.83500	-72
1.83867	-79
1.84233	-82
1.84600	-81
1.84967	-76
1.85333	-68
1.85700	-62
1.86067	-58
1.86433	-55
1.86800	-58
1.87167	-64
1.87533	-70
1.87900	-68
1.88267	-64
1.88633	-67
1.89000	-76
1.89367	-82
1.89733	-81
1.90100	-76
1.90467	-70
1.90833	-66
1.91200	-61
1.91567	-56
1.91933	-53
1.92300	-53
1.92667	-52
1.93033	-52
1.93400	-57
1.93767	-64
1.94133	-68
1.94500	-64
1.94867	-60
1.95233	-38
1.95600	132
1.95967	1100
1.96333	5328
1.96700	19323
1.97067	54878
1.97433	124956
1.97800	233916
1.98167	370583
1.98533	512172
1.98900	634081
1.99267	716385
1.99633	746983
2.00000	723327
2.00367	653028
2.00733	552008
2.01100	439884
2.01467	333629
2.01833	243557
2.02200	173131
2.02567	121166
2.02933	84347
2.03300	58951
2.03667	41711
2.04033	30094
2.04400	22267
2.04767	16961
2.05133	13326
2.05500	10793
2.05867	8983
2.06233	7659
2.06600	6663
2.06967	5887
2.07333	5273
2.07700	4776
2.08067	4362
2.08433	4009
2.08800	3705
2.09167	3443
2.09533	3214
2.09900	3012
2.10267	2836
2.10633	2678
2.11000	2538
2.11367	2415
2.11733	2303
2.12100	2199
2.12467	2101
2.12833	2010
2.13200	1927
2.13567	1853
2.13933	1784
2.14300	1718
2.14667	1655
2.15033	1600
2.15400	1545
2.15767	1491
2.16133	1439
2.16500	1389
2.16867	1343
2.17233	1304
2.17600	1269
2.17967	1232
2.18333	1195
2.18700	1161
2.19067	1129
2.19433	1100
2.19800	1071
2.20167	1042
2.20533	1011
2.20900	981
2.21267	954
2.21633	928
2.22000	903
2.22367	880
2.22733	858
2.23100	840
2.23467	824
2.23833	811
2.24200	794
2.24567	776
2.24933	757
2.25300	741
2.25667	723
2.26033	707
2.26400	693
2.26767	681
2.27133	665
2.27500	646
2.27867	627
2.28233	615
2.28600	610
2.28967	608
2.29333	606
2.29700	599
2.30067	590
2.30433	580
2.30800	572
2.31167	563
2.31533	552
2.31900	540
2.32267	530
2.32633	521
2.33000	514
2.33367	505
2.33733	494
2.34100	479
2.34467	466
2.34833	459
2.35200	458
2.35567	458
2.35933	458
2.36300	458
2.36667	457
2.37033	454
2.37400	449
2.37767	445
2.38133	439
2.38500	431
2.38867	421
2.39233	408
2.39600	399
2.39967	394
2.40333	392
2.40700	390
2.41067	390
2.41433	389
2.41800	390
2.42167	390
2.42533	383
2.42900	373
2.43267	364
2.43633	359
2.44000	359
2.44367	360
2.44733	359
2.45100	358
2.45467	358
2.45833	352
2.46200	343
2.46567	337
2.46933	335
2.47300	333
2.47667	331
2.48033	329
2.48400	330
2.48767	328
2.49133	324
2.49500	322
2.49867	322
2.50233	324
2.50600	326
2.50967	329
2.51333	334
2.51700	336
2.52067	335
2.52433	334
2.52800	332
2.53167	328
2.53533	315
2.53900	300
2.54267	289
2.54633	285
2.55000	289
2.55367	296
2.55733	303
2.56100	306
2.56467	305
2.56833	299
2.57200	290
2.57567	281
2.57933	275
2.58300	273
2.58667	272
2.59033	272
2.59400	274
2.59767	274
2.60133	273
2.60500	273
2.60867	272
2.61233	275
2.61600	283
2.61967	294
2.62333	305
2.62700	312
2.63067	313
2.63433	311
2.63800	306
2.64167	303
2.64533	295
2.64900	283
2.65267	278
2.65633	279
2.66000	280
2.66367	279
2.66733	277
2.67100	275
2.67467	272
2.67833	269
2.68200	269
2.68567	274
2.68933	277
2.69300	278
2.69667	279
2.70033	276
2.70400	274
2.70767	272
2.71133	277
2.71500	287
2.71867	294
2.72233	296
2.72600	296
2.72967	296
2.73333	297
2.73700	297
2.74067	294
2.74433	287
2.74800	282
2.75167	275
2.75533	271
2.75900	273
2.76267	277
2.76633	284
2.77000	291
2.77367	297
2.77733	301
2.78100	302
2.78467	299
2.78833	297
2.79200	296
2.79567	295
2.79933	294
2.80300	296
2.80667	301
2.81033	301
2.81400	296
2.81767	293
2.82133	290
2.82500	287
2.82867	289
2.83233	290
2.83600	288
2.83967	288
2.84333	287
2.84700	285
2.85067	285
2.85433	288
2.85800	290
2.86167	292
2.86533	294
2.86900	296
2.87267	299
2.87633	300
2.88000	302
2.88367	305
2.88733	309
2.89100	312
2.89467	313
2.89833	309
2.90200	303
2.90567	297
2.90933	296
2.91300	303
2.91667	315
2.92033	323
2.92400	326
2.92767	325
2.93133	323
2.93500	317
2.93867	310
2.94233	300
2.94600	292
2.94967	289
2.95333	291
2.95700	298
2.96067	308
2.96433	314
2.96800	315
2.97167	314
2.97533	312
2.97900	309
2.98267	307
2.98633	305
2.99000	304
2.99367	309
2.99733	316
3.00100	317
3.00467	314
3.00833	309
3.01200	306
3.01567	308
3.01933	316
3.02300	324
3.02667	326
3.03033	323
3.03400	321
3.03767	318
3.04133	317
3.04500	317
3.04867	319
3.05233	318
3.05600	316
3.05967	315
3.06333	317
3.06700	319
3.07067	321
3.07433	323
3.07800	322
3.08167	317
3.08533	313
3.08900	315
3.09267	323
3.09633	331
3.10000	337
3.10367	339
3.10733	335
3.11100	334
3.11467	333
3.11833	335
3.12200	333
3.12567	329
3.12933	328
3.13300	332
3.13667	337
3.14033	345
3.14400	351
3.14767	352
3.15133	349
3.15500	346
3.15867	340
3.16233	335
3.16600	337
3.16967	345
3.17333	353
3.17700	352
3.18067	341
3.18433	329
3.18800	321
3.19167	322
3.19533	327
3.19900	332
3.20267	333
3.20633	328
3.21000	323
3.21367	322
3.21733	321
3.22100	319
3.22467	318
3.22833	318
3.23200	319
3.23567	321
3.23933	324
3.24300	328
3.24667	330
3.25033	331
3.25400	333
3.25767	335
3.26133	339
3.26500	346
3.26867	348
3.27233	344
3.27600	339
3.27967	339
3.28333	341
3.28700	341
3.29067	341
3.29433	339
3.29800	337
3.30167	332
3.30533	325
3.30900	318
3.31267	315
3.31633	311
3.32000	308
3.32367	306
3.32733	308
3.33100	311
3.33467	313
3.33833	314
3.34200	312
3.34567	310
3.34933	312
3.35300	318
3.35667	324
3.36033	329
3.36400	337
3.36767	343
3.37133	346
3.37500	345
3.37867	343
3.38233	339
3.38600	335
3.38967	332
3.39333	331
3.39700	330
3.40067	329
3.40433	327
3.40800	322
3.41167	317
3.41533	314
3.41900	315
3.42267	320
3.42633	328
3.43000	333
3.43367	337
3.43733	338
3.44100	339
3.44467	343
3.44833	344
3.45200	339
3.45567	333
3.45933	333
3.46300	338
3.46667	342
3.47033	341
3.47400	337
3.47767	329
3.48133	317
3.48500	299
3.48867	284
3.49233	282
3.49600	281
3.49967	281
3.50333	280
3.50700	281
3.51067	287
3.51433	298
3.51800	313
3.52167	323
3.52533	326
3.52900	325
3.53267	321
3.53633	319
3.54000	320
3.54367	321
3.54733	323
3.55100	323
3.55467	326
3.55833	328
3.56200	327
3.56567	321
3.56933	313
3.57300	308
3.57667	305
3.58033	302
3.58400	298
3.58767	296
3.59133	299
3.59500	309
3.59867	319
3.60233	322
3.60600	321
3.60967	318
3.61333	314
3.61700	308
3.62067	304
3.62433	303
3.62800	303
3.63167	299
3.63533	293
3.63900	285
3.64267	281
3.64633	281
3.65000	282
3.65367	284
3.65733	287
3.66100	295
3.66467	304
3.66833	308
3.67200	304
3.67567	299
3.67933	300
3.68300	303
3.68667	303
3.69033	302
3.69400	300
3.69767	296
3.70133	289
3.70500	279
3.70867	270
3.71233	264
3.71600	262
3.71967	263
3.72333	266
3.72700	267
3.73067	270
3.73433	275
3.73800	278
3.74167	278
3.74533	275
3.74900	272
3.75267	274
3.75633	281
3.76000	290
3.76367	294
3.76733	294
3.77100	291
3.77467	283
3.77833	274
3.78200	267
3.78567	263
3.78933	263
3.79300	269
3.79667	277
3.80033	284
3.80400	283
3.80767	276
3.81133	270
3.81500	264
3.81867	259
3.82233	258
3.82600	260
3.82967	264
3.83333	268
3.83700	271
3.84067	273
3.84433	274
3.84800	274
3.85167	272
3.85533	269
3.85900	266
3.86267	266
3.86633	270
3.87000	274
3.87367	277
3.87733	279
3.88100	280
3.88467	276
3.88833	268
3.89200	259
3.89567	251
3.89933	245
3.90300	244
3.90667	244
3.91033	245
3.91400	249
3.91767	254
3.92133	257
3.92500	253
3.92867	246
3.93233	239
3.93600	235
3.93967	233
3.94333	234
3.94700	241
3.95067	250
3.95433	260
3.95800	264
3.96167	260
3.96533	251
3.96900	243
3.97267	242
3.97633	245
3.98000	247
3.98367	247
3.98733	247
3.99100	248
3.99467	251
3.99833	256

[Chromatogram (Ch2)]
Interval(msec)	220
# of Points	1091
Start Time(min)	0.002
End Time(min)	3.998
R.Time (min)	Intensity
0.00167	2
0.00533	2
0.00900	2
0.01267	3
0.01633	3
0.02000	3
0.02367	3
0.02733	3
0.03100	3
0.03467	3
0.03833	4
0.04200	4
0.04567	4
0.04933	4
0.05300	4
0.05667	4
0.06033	4
0.06400	4
0.06767	4
0.07133	4
0.07500	4
0.07867	4
0.08233	4
0.08600	4
0.08967	4
0.09333	4
0.09700	3
0.10067	3
0.10433	3
0.10800	3
0.11167	3
0.11533	3
0.11900	3
0.12267	3
0.12633	4
0.13000	4
0.13367	4
0.13733	4
0.14100	5
0.14467	5
0.14833	5
0.15200	5
0.15567	5
0.15933	5
0.16300	5
0.16667	5
0.17033	5
0.17400	5
0.17767	4
0.18133	4
0.18500	5
0.18867	5
0.19233	5
0.19600	5
0.19967	5
0.20333	5
0.20700	5
0.21067	5
0.21433	5
0.21800	5
0.22167	5
0.22533	5
0.22900	5
0.23267	5
0.23633	5
0.24000	5
0.24367	5
0.24733	5
0.25100	5
0.25467	4
0.25833	4
0.26200	4
0.26567	4
0.26933	4
0.27300	4
0.27667	3
0.28033	3
0.28400	3
0.28767	3
0.29133	3
0.29500	3
0.29867	3
0.30233	4
0.30600	4
0.30967	4
0.31333	4
0.31700	5
0.32067	5
0.32433	5
0.32800	5
0.33167	6
0.33533	6
0.33900	6
0.34267	6
0.34633	6
0.35000	6
0.35367	6
0.35733	6
0.36100	5
0.36467	5
0.36833	5
0.37200	5
0.37567	5
0.37933	5
0.38300	5
0.38667	4
0.39033	4
0.39400	3
0.39767	3
0.40133	3
0.40500	3
0.40867	2
0.41233	2
0.41600	2
0.41967	2
0.42333	2
0.42700	2
0.43067	2
0.43433	2
0.43800	3
0.44167	3
0.44533	3
0.44900	4
0.45267	4
0.45633	4
0.46000	4
0.46367	4
0.46733	4
0.47100	4
0.47467	4
0.47833	4
0.48200	3
0.48567	3
0.48933	4
0.49300	4
0.49667	4
0.50033	5
0.50400	5
0.50767	5
0.51133	5
0.51500	4
0.51867	4
0.52233	4
0.52600	4
0.52967	4
0.53333	4
0.53700	4
0.54067	4
0.54433	3
0.54800	3
0.55167	3
0.55533	3
0.55900	3
0.56267	3
0.56633	2
0.57000	2
0.57367	2
0.57733	2
0.58100	2
0.58467	2
0.58833	2
0.59200	2
0.59567	2
0.59933	2
0.60300	2
0.60667	1
0.61033	1
0.61400	1
0.61767	1
0.62133	1
0.62500	1
0.62867	1
0.63233	1
0.63600	1
0.63967	2
0.64333	2
0.64700	2
0.65067	3
0.65433	3
0.65800	3
0.66167	4
0.66533	4
0.66900	4
0.67267	4
0.67633	4
0.68000	4
0.68367	4
0.68733	4
0.69100	4
0.69467	4
0.69833	4
0.70200	4
0.70567	4
0.70933	3
0.71300	3
0.71667	3
0.72033	3
0.72400	3
0.72767	3
0.73133	3
0.73500	3
0.73867	3
0.74233	3
0.74600	3
0.74967	3
0.75333	3
0.75700	2
0.76067	3
0.76433	3
0.76800	2
0.77167	2
0.77533	2
0.77900	1
0.78267	1
0.78633	1
0.79000	1
0.79367	1
0.79733	1
0.80100	1
0.80467	2
0.80833	2
0.81200	3
0.81567	3
0.81933	3
0.82300	4
0.82667	4
0.83033	4
0.83400	4
0.83767	4
0.84133	4
0.84500	4
0.84867	4
0.85233	3
0.85600	3
0.85967	3
0.86333	3
0.86700	2
0.87067	2
0.87433	2
0.87800	2
0.88167	2
0.88533	2
0.88900	2
0.89267	2
0.89633	2
0.90000	2
0.90367	2
0.90733	2
0.91100	3
0.91467	3
0.91833	3
0.92200	3
0.92567	3
0.92933	3
0.93300	3
0.93667	3
0.94033	3
0.94400	2
0.94767	2
0.95133	2
0.95500	2
0.95867	2
0.96233	1
0.96600	1
0.96967	1
0.97333	1
0.97700	0
0.98067	0
0.98433	0
0.98800	1
0.99167	1
0.99533	1
0.99900	1
1.00267	1
1.00633	2
1.01000	2
1.01367	2
1.01733	3
1.02100	3
1.02467	3
1.02833	3
1.03200	3
1.03567	2
1.03933	2
1.04300	2
1.04667	2
1.05033	1
1.05400	1
1.05767	1
1.06133	1
1.06500	1
1.06867	2
1.07233	2
1.07600	2
1.07967	2
1.08333	2
1.08700	2
1.09067	2
1.09433	2
1.09800	2
1.10167	2
1.10533	2
1.10900	1
1.11267	1
1.11633	1
1.12000	1
1.12367	1
1.12733	1
1.13100	1
1.13467	1
1.13833	1
1.14200	1
1.14567	1
1.14933	1
1.15300	1
1.15667	1
1.16033	1
1.16400	1
1.16767	1
1.17133	1
1.17500	0
1.17867	0
1.18233	0
1.18600	-0
1.18967	-0
1.19333	0
1.19700	0
1.20067	1
1.20433	1
1.20800	1
1.21167	1
1.21533	2
1.21900	2
1.22267	3
1.22633	3
1.23000	4
1.23367	4
1.23733	4
1.24100	4
1.24467	4
1.24833	4
1.25200	5
1.25567	5
1.25933	5
1.26300	5
1.26667	5
1.27033	5
1.27400	4
1.27767	4
1.28133	4
1.28500	4
1.28867	3
1.29233	3
1.29600	3
1.29967	2
1.30333	2
1.30700	3
1.31067	3
1.31433	3
1.31800	3
1.32167	3
1.32533	2
1.32900	2
1.33267	2
1.33633	2
1.34000	1
1.34367	0
1.34733	-0
1.35100	-0
1.35467	-0
1.35833	-0
1.36200	0
1.36567	0
1.36933	1
1.37300	1
1.37667	1
1.38033	1
1.38400	1
1.38767	0
1.39133	0
1.39500	0
1.39867	0
1.40233	0
1.40600	0
1.40967	1
1.41333	1
1.41700	1
1.42067	1
1.42433	2
1.42800	2
1.43167	2
1.43533	2
1.43900	2
1.44267	2
1.44633	2
1.45000	3
1.45367	3
1.45733	3
1.46100	3
1.46467	3
1.46833	3
1.47200	2
1.47567	2
1.47933	2
1.48300	2
1.48667	2
1.49033	3
1.49400	3
1.49767	3
1.50133	3
1.50500	2
1.50867	3
1.51233	3
1.51600	3
1.51967	3
1.52333	3
1.52700	4
1.53067	4
1.53433	4
1.53800	4
1.54167	4
1.54533	4
1.54900	3
1.55267	3
1.55633	2
1.56000	2
1.56367	1
1.56733	1
1.57100	1
1.57467	1
1.57833	1
1.58200	1
1.58567	2
1.58933	1
1.59300	1
1.59667	-0
1.60033	-1
1.60400	-2
1.60767	-4
1.61133	-5
1.61500	-7
1.61867	-9
1.62233	-12
1.62600	-15
1.62967	-18
1.63333	-21
1.63700	-25
1.64067	-28
1.64433	-32
1.64800	-36
1.65167	-39
1.65533	-43
1.65900	-47
1.66267	-51
1.66633	-55
1.67000	-59
1.67367	-64
1.67733	-69
1.68100	-73
1.68467	-78
1.68833	-83
1.69200	-86
1.69567	-90
1.69933	-92
1.70300	-95
1.70667	-97
1.71033	-98
1.71400	-100
1.71767	-101
1.72133	-102
1.72500	-102
1.72867	-103
1.73233	-103
1.73600	-104
1.73967	-104
1.74333	-104
1.74700	-104
1.75067	-104
1.75433	-105
1.75800	-106
1.76167	-107
1.76533	-108
1.76900	-108
1.77267	-109
1.77633	-109
1.78000	-109
1.78367	-109
1.78733	-109
1.79100	-108
1.79467	-108
1.79833	-107
1.80200	-107
1.80567	-107
1.80933	-108
1.81300	-108
1.81667	-109
1.82033	-109
1.82400	-110
1.82767	-110
1.83133	-110
1.83500	-110
1.83867	-110
1.84233	-109
1.84600	-109
1.84967	-108
1.85333	-109
1.85700	-109
1.86067	-109
1.86433	-109
1.86800	-110
1.87167	-110
1.87533	-110
1.87900	-111
1.88267	-111
1.88633	-111
1.89000	-111
1.89367	-110
1.89733	-110
1.90100	-110
1.90467	-110
1.90833	-110
1.91200	-110
1.91567	-110
1.91933	-110
1.92300	-109
1.92667	-109
1.93033	-108
1.93400	-108
1.93767	-108
1.94133	-107
1.94500	-107
1.94867	-107
1.95233	-107
1.95600	-107
1.95967	-107
1.96333	-107
1.96700	-107
1.97067	-107
1.97433	-106
1.97800	-106
1.98167	-105
1.98533	-105
1.98900	-104
1.99267	-104
1.99633	-103
2.00000	-103
2.00367	-103
2.00733	-103
2.01100	-103
2.01467	-103
2.01833	-103
2.02200	-103
2.02567	-102
2.02933	-102
2.03300	-101
2.03667	-101
2.04033	-101
2.04400	-101
2.04767	-101
2.05133	-101
2.05500	-101
2.05867	-102
2.06233	-102
2.06600	-103
2.06967	-103
2.07333	-102
2.07700	-101
2.08067	-100
2.08433	-100
2.08800	-99
2.09167	-98
2.09533	-98
2.09900	-97
2.10267	-96
2.10633	-96
2.11000	-95
2.11367	-94
2.11733	-93
2.12100	-92
2.12467	-92
2.12833	-91
2.13200	-91
2.13567	-91
2.13933	-91
2.14300	-91
2.14667	-91
2.15033	-90
2.15400	-90
2.15767	-90
2.16133	-89
2.16500	-89
2.16867	-88
2.17233	-88
2.17600	-88
2.17967	-88
2.18333	-88
2.18700	-87
2.19067	-87
2.19433	-87
2.19800	-87
2.20167	-88
2.20533	-88
2.20900	-88
2.21267	-87
2.21633	-87
2.22000	-87
2.22367	-86
2.22733	-86
2.23100	-85
2.23467	-85
2.23833	-85
2.24200	-84
2.24567	-84
2.24933	-84
2.25300	-84
2.25667	-83
2.26033	-83
2.26400	-82
2.26767	-82
2.27133	-82
2.27500	-82
2.27867	-82
2.28233	-81
2.28600	-81
2.28967	-80
2.29333	-80
2.29700	-80
2.30067	-79
2.30433	-79
2.30800	-78
2.31167	-78
2.31533	-78
2.31900	-77
2.32267	-77
2.32633	-77
2.33000	-76
2.33367	-76
2.33733	-76
2.34100	-75
2.34467	-75
2.34833	-74
2.35200	-73
2.35567	-72
2.35933	-71
2.36300	-69
2.36667	-67
2.37033	-65
2.37400	-63
2.37767	-60
2.38133	-56
2.38500	-53
2.38867	-48
2.39233	-44
2.39600	-40
2.39967	-35
2.40333	-31
2.40700	-27
2.41067	-24
2.41433	-21
2.41800	-18
2.42167	-16
2.42533	-14
2.42900	-12
2.43267	-11
2.43633	-10
2.44000	-9
2.44367	-8
2.44733	-7
2.45100	-6
2.45467	-5
2.45833	-5
2.46200	-4
2.46567	-3
2.46933	-2
2.47300	-1
2.47667	1
2.48033	2
2.48400	4
2.48767	5
2.49133	7
2.49500	8
2.49867	9
2.50233	9
2.50600	9
2.50967	9
2.51333	9
2.51700	9
2.52067	10
2.52433	11
2.52800	12
2.53167	12
2.53533	13
2.53900	14
2.54267	15
2.54633	15
2.55000	16
2.55367	17
2.55733	17
2.56100	18
2.56467	18
2.56833	19
2.57200	19
2.57567	18
2.57933	18
2.58300	18
2.58667	17
2.59033	17
2.59400	18
2.59767	18
2.60133	19
2.60500	20
2.60867	20
2.61233	20
2.61600	20
2.61967	20
2.62333	19
2.62700	19
2.63067	19
2.63433	19
2.63800	20
2.64167	20
2.64533	21
2.64900	22
2.65267	23
2.65633	23
2.66000	24
2.66367	25
2.66733	25
2.67100	25
2.67467	25
2.67833	24
2.68200	24
2.68567	24
2.68933	23
2.69300	23
2.69667	23
2.70033	23
2.70400	24
2.70767	24
2.71133	25
2.71500	25
2.71867	26
2.72233	27
2.72600	28
2.72967	29
2.73333	29
2.73700	30
2.74067	30
2.74433	30
2.74800	31
2.75167	31
2.75533	31
2.75900	30
2.76267	30
2.76633	30
2.77000	30
2.77367	29
2.77733	29
2.78100	29
2.78467	29
2.78833	28
2.79200	28
2.79567	28
2.79933	27
2.80300	27
2.80667	27
2.81033	27
2.81400	27
2.81767	27
2.82133	27
2.82500	27
2.82867	28
2.83233	28
2.83600	28
2.83967	27
2.84333	25
2.84700	22
2.85067	16
2.85433	8
2.85800	-3
2.86167	-18
2.86533	-37
2.86900	-61
2.87267	-89
2.87633	-122
2.88000	-158
2.88367	-199
2.88733	-243
2.89100	-290
2.89467	-339
2.89833	-391
2.90200	-444
2.90567	-499
2.90933	-553
2.91300	-608
2.91667	-663
2.92033	-717
2.92400	-770
2.92767	-821
2.93133	-873
2.93500	-929
2.93867	-987
2.94233	-1041
2.94600	-1080
2.94967	-1096
2.95333	-1085
2.95700	-1051
2.96067	-997
2.96433	-928
2.96800	-852
2.97167	-771
2.97533	-691
2.97900	-613
2.98267	-540
2.98633	-472
2.99000	-410
2.99367	-354
2.99733	-304
3.00100	-260
3.00467	-221
3.00833	-188
3.01200	-158
3.01567	-133
3.01933	-111
3.02300	-93
3.02667	-77
3.03033	-63
3.03400	-51
3.03767	-41
3.04133	-33
3.04500	-25
3.04867	-19
3.05233	-13
3.05600	-9
3.05967	-5
3.06333	-1
3.06700	2
3.07067	4
3.07433	6
3.07800	8
3.08167	10
3.08533	12
3.08900	13
3.09267	14
3.09633	15
3.10000	16
3.10367	17
3.10733	18
3.11100	18
3.11467	19
3.11833	19
3.12200	20
3.12567	20
3.12933	20
3.13300	20
3.13667	21
3.14033	21
3.14400	21
3.14767	22
3.15133	22
3.15500	22
3.15867	22
3.16233	22
3.16600	22
3.16967	22
3.17333	22
3.17700	23
3.18067	23
3.18433	23
3.18800	24
3.19167	24
3.19533	24
3.19900	25
3.20267	25
3.20633	25
3.21000	26
3.21367	26
3.21733	27
3.22100	27
3.22467	27
3.22833	27
3.23200	27
3.23567	27
3.23933	27
3.24300	26
3.24667	26
3.25033	26
3.25400	26
3.25767	27
3.26133	27
3.26500	27
3.26867	28
3.27233	28
3.27600	29
3.27967	29
3.28333	30
3.28700	31
3.29067	31
3.29433	32
3.29800	32
3.30167	32
3.30533	32
3.30900	32
3.31267	32
3.31633	33
3.32000	33
3.32367	33
3.32733	33
3.33100	33
3.33467	33
3.33833	32
3.34200	32
3.34567	32
3.34933	32
3.35300	32
3.35667	32
3.36033	32
3.36400	31
3.36767	31
3.37133	31
3.37500	31
3.37867	31
3.38233	31
3.38600	31
3.38967	31
3.39333	31
3.39700	31
3.40067	31
3.40433	31
3.40800	31
3.41167	31
3.41533	31
3.41900	31
3.42267	32
3.42633	32
3.43000	32
3.43367	32
3.43733	32
3.44100	31
3.44467	32
3.44833	32
3.45200	32
3.45567	32
3.45933	32
3.46300	32
3.46667	31
3.47033	31
3.47400	31
3.47767	30
3.48133	30
3.48500	30
3.48867	30
3.49233	29
3.49600	29
3.49967	29
3.50333	29
3.50700	29
3.51067	29
3.51433	29
3.51800	29
3.52167	29
3.52533	30
3.52900	30
3.53267	29
3.53633	29
3.54000	29
3.54367	29
3.54733	29
3.55100	29
3.55467	29
3.55833	29
3.56200	29
3.56567	29
3.56933	29
3.57300	29
3.57667	29
3.58033	29
3.58400	29
3.58767	29
3.59133	29
3.59500	29
3.59867	29
3.60233	29
3.60600	29
3.60967	30
3.61333	30
3.61700	30
3.62067	30
3.62433	30
3.62800	31
3.63167	31
3.63533	30
3.63900	30
3.64267	30
3.64633	30
3.65000	30
3.65367	30
3.65733	30
3.66100	30
3.66467	30
3.66833	30
3.67200	31
3.67567	31
3.67933	31
3.68300	31
3.68667	31
3.69033	31
3.69400	31
3.69767	31
3.70133	30
3.70500	30
3.70867	30
3.71233	30
3.71600	30
3.71967	30
3.72333	31
3.72700	31
3.73067	31
3.73433	31
3.73800	31
3.74167	31
3.74533	31
3.74900	31
3.75267	31
3.75633	32
3.76000	32
3.76367	32
3.76733	32
3.77100	32
3.77467	32
3.77833	32
3.78200	33
3.78567	33
3.78933	33
3.79300	33
3.79667	33
3.80033	33
3.80400	33
3.80767	33
3.81133	33
3.81500	33
3.81867	33
3.82233	32
3.82600	32
3.82967	32
3.83333	32
3.83700	32
3.84067	32
3.84433	32
3.84800	31
3.85167	31
3.85533	30
3.85900	30
3.86267	30
3.86633	30
3.87000	30
3.87367	30
3.87733	30
3.88100	30
3.88467	30
3.88833	30
3.89200	30
3.89567	30
3.89933	30
3.90300	31
3.90667	31
3.91033	31
3.91400	31
3.91767	32
3.92133	32
3.92500	32
3.92867	32
3.93233	32
3.93600	33
3.93967	33
3.94333	32
3.94700	32
3.95067	32
3.95433	32
3.95800	31
3.96167	31
3.96533	31
3.96900	31
3.97267	31
3.97633	30
3.98000	30
3.98367	30
3.98733	30
3.99100	29
3.99467	29
3.99833	29

[Chromatogram (Ch3)]
Interval(msec)	220
# of Points	1091
Start Time(min)	0.002
End Time(min)	3.998
R.Time (min)	Intensity
0.00167	-1
0.00533	-2
0.00900	-1
0.01267	-2
0.01633	-2
0.02000	-2
0.02367	-3
0.02733	-2
0.03100	-3
0.03467	-3
0.03833	-2
0.04200	-3
0.04567	-3
0.04933	-4
0.05300	-4
0.05667	-5
0.06033	-8
0.06400	-11
0.06767	-10
0.07133	-8
0.07500	-7
0.07867	-4
0.08233	-1
0.08600	-1
0.08967	-2
0.09333	-3
0.09700	-3
0.10067	-3
0.10433	-4
0.10800	-0
0.11167	2
0.11533	3
0.11900	2
0.12267	1
0.12633	1
0.13000	2
0.13367	2
0.13733	-0
0.14100	0
0.14467	1
0.14833	1
0.15200	2
0.15567	-0
0.15933	-1
0.16300	-1
0.16667	-3
0.17033	-2
0.17400	-2
0.17767	-4
0.18133	-4
0.18500	-3
0.18867	-3
0.19233	-2
0.19600	-1
0.19967	1
0.20333	2
0.20700	2
0.21067	3
0.21433	4
0.21800	2
0.22167	3
0.22533	4
0.22900	3
0.23267	3
0.23633	2
0.24000	2
0.24367	2
0.24733	-0
0.25100	-1
0.25467	1
0.25833	4
0.26200	4
0.26567	5
0.26933	3
0.27300	4
0.27667	3
0.28033	3
0.28400	3
0.28767	3
0.29133	0
0.29500	-2
0.29867	-1
0.30233	-2
0.30600	-3
0.30967	-4
0.31333	-3
0.31700	-2
0.32067	-2
0.32433	-1
0.32800	1
0.33167	2
0.33533	-0
0.33900	-4
0.34267	-5
0.34633	-3
0.35000	-2
0.35367	-3
0.35733	-4
0.36100	-3
0.36467	-1
0.36833	-0
0.37200	0
0.37567	-0
0.37933	-0
0.38300	-1
0.38667	-1
0.39033	-1
0.39400	1
0.39767	2
0.40133	2
0.40500	1
0.40867	0
0.41233	2
0.41600	1
0.41967	-2
0.42333	-5
0.42700	-7
0.43067	-8
0.43433	-7
0.43800	-7
0.44167	-6
0.44533	-4
0.44900	-1
0.45267	0
0.45633	-1
0.46000	-1
0.46367	-4
0.46733	-7
0.47100	-9
0.47467	-9
0.47833	-7
0.48200	-7
0.48567	-7
0.48933	-4
0.49300	-3
0.49667	-3
0.50033	-2
0.50400	-0
0.50767	-1
0.51133	-2
0.51500	-4
0.51867	-4
0.52233	-2
0.52600	-2
0.52967	-3
0.53333	-3
0.53700	-3
0.54067	-4
0.54433	-4
0.54800	-3
0.55167	-4
0.55533	-4
0.55900	-3
0.56267	-2
0.56633	-1
0.57000	-0
0.57367	-0
0.57733	-1
0.58100	-3
0.58467	-5
0.58833	-4
0.59200	-1
0.59567	2
0.59933	2
0.60300	1
0.60667	-1
0.61033	-3
0.61400	-6
0.61767	-8
0.62133	-7
0.62500	-3
0.62867	0
0.63233	2
0.63600	2
0.63967	-0
0.64333	-0
0.64700	0
0.65067	0
0.65433	-0
0.65800	0
0.66167	0
0.66533	-4
0.66900	-6
0.67267	-6
0.67633	-5
0.68000	-4
0.68367	-4
0.68733	-3
0.69100	-3
0.69467	-2
0.69833	-2
0.70200	-2
0.70567	-0
0.70933	1
0.71300	3
0.71667	4
0.72033	5
0.72400	7
0.72767	6
0.73133	5
0.73500	2
0.73867	2
0.74233	5
0.74600	6
0.74967	6
0.75333	4
0.75700	1
0.76067	-0
0.76433	-1
0.76800	-3
0.77167	-2
0.77533	-1
0.77900	-0
0.78267	1
0.78633	2
0.79000	3
0.79367	3
0.79733	3
0.80100	1
0.80467	1
0.80833	1
0.81200	-2
0.81567	-4
0.81933	-4
0.82300	-3
0.82667	-2
0.83033	-2
0.83400	-2
0.83767	-2
0.84133	-2
0.84500	-1
0.84867	-0
0.85233	3
0.85600	6
0.85967	6
0.86333	4
0.86700	1
0.87067	-0
0.87433	-0
0.87800	1
0.88167	1
0.88533	-0
0.88900	-2
0.89267	-3
0.89633	-4
0.90000	-3
0.90367	-3
0.90733	-2
0.91100	-0
0.91467	0
0.91833	0
0.92200	1
0.92567	2
0.92933	1
0.93300	1
0.93667	1
0.94033	1
0.94400	1
0.94767	2
0.95133	3
0.95500	2
0.95867	3
0.96233	2
0.96600	1
0.96967	1
0.97333	2
0.97700	3
0.98067	4
0.98433	5
0.98800	5
0.99167	3
0.99533	3
0.99900	2
1.00267	2
1.00633	2
1.01000	2
1.01367	4
1.01733	4
1.02100	5
1.02467	6
1.02833	4
1.03200	2
1.03567	3
1.03933	3
1.04300	2
1.04667	3
1.05033	3
1.05400	2
1.05767	1
1.06133	1
1.06500	1
1.06867	1
1.07233	2
1.07600	4
1.07967	8
1.08333	9
1.08700	7
1.09067	7
1.09433	7
1.09800	7
1.10167	6
1.10533	5
1.10900	5
1.11267	6
1.11633	7
1.12000	7
1.12367	7
1.12733	6
1.13100	5
1.13467	3
1.13833	4
1.14200	3
1.14567	3
1.14933	1
1.15300	0
1.15667	2
1.16033	5
1.16400	6
1.16767	6
1.17133	2
1.17500	1
1.17867	4
1.18233	6
1.18600	8
1.18967	8
1.19333	6
1.19700	6
1.20067	7
1.20433	8
1.20800	9
1.21167	7
1.21533	4
1.21900	3
1.22267	3
1.22633	3
1.23000	2
1.23367	1
1.23733	1
1.24100	4
1.24467	5
1.24833	5
1.25200	5
1.25567	6
1.25933	5
1.26300	5
1.26667	4
1.27033	6
1.27400	6
1.27767	7
1.28133	7
1.28500	6
1.28867	5
1.29233	3
1.29600	3
1.29967	4
1.30333	6
1.30700	5
1.31067	4
1.31433	6
1.31800	4
1.32167	2
1.32533	1
1.32900	0
1.33267	2
1.33633	4
1.34000	4
1.34367	5
1.34733	8
1.35100	10
1.35467	10
1.35833	9
1.36200	8
1.36567	7
1.36933	6
1.37300	7
1.37667	8
1.38033	9
1.38400	9
1.38767	8
1.39133	7
1.39500	7
1.39867	9
1.40233	9
1.40600	8
1.40967	8
1.41333	7
1.41700	6
1.42067	5
1.42433	5
1.42800	5
1.43167	5
1.43533	5
1.43900	7
1.44267	9
1.44633	10
1.45000	9
1.45367	8
1.45733	7
1.46100	6
1.46467	4
1.46833	2
1.47200	2
1.47567	3
1.47933	7
1.48300	9
1.48667	9
1.49033	8
1.49400	6
1.49767	5
1.50133	6
1.50500	6
1.50867	5
1.51233	3
1.51600	3
1.51967	4
1.52333	3
1.52700	4
1.53067	4
1.53433	3
1.53800	2
1.54167	2
1.54533	3
1.54900	5
1.55267	5
1.55633	4
1.56000	4
1.56367	4
1.56733	3
1.57100	0
1.57467	-1
1.57833	-2
1.58200	-2
1.58567	0
1.58933	2
1.59300	2
1.59667	4
1.60033	6
1.60400	7
1.60767	6
1.61133	5
1.61500	4
1.61867	4
1.62233	4
1.62600	5
1.62967	7
1.63333	9
1.63700	10
1.64067	11
1.64433	12
1.64800	14
1.65167	15
1.65533	17
1.65900	18
1.66267	19
1.66633	20
1.67000	19
1.67367	20
1.67733	22
1.68100	23
1.68467	22
1.68833	18
1.69200	17
1.69567	16
1.69933	17
1.70300	17
1.70667	16
1.71033	16
1.71400	15
1.71767	15
1.72133	17
1.72500	17
1.72867	17
1.73233	18
1.73600	20
1.73967	20
1.74333	19
1.74700	20
1.75067	20
1.75433	19
1.75800	21
1.76167	21
1.76533	20
1.76900	21
1.77267	23
1.77633	24
1.78000	22
1.78367	20
1.78733	20
1.79100	18
1.79467	18
1.79833	18
1.80200	19
1.80567	19
1.80933	18
1.81300	18
1.81667	19
1.82033	21
1.82400	22
1.82767	21
1.83133	22
1.83500	25
1.83867	26
1.84233	27
1.84600	28
1.84967	28
1.85333	30
1.85700	30
1.86067	30
1.86433	29
1.86800	29
1.87167	29
1.87533	29
1.87900	31
1.88267	31
1.88633	30
1.89000	29
1.89367	29
1.89733	30
1.90100	32
1.90467	34
1.90833	35
1.91200	35
1.91567	34
1.91933	32
1.92300	33
1.92667	32
1.93033	34
1.93400	38
1.93767	39
1.94133	38
1.94500	38
1.94867	39
1.95233	40
1.95600	41
1.95967	43
1.96333	45
1.96700	46
1.97067	45
1.97433	42
1.97800	41
1.98167	39
1.98533	40
1.98900	43
1.99267	46
1.99633	47
2.00000	46
2.00367	44
2.00733	43
2.01100	45
2.01467	49
2.01833	52
2.02200	56
2.02567	57
2.02933	57
2.03300	56
2.03667	54
2.04033	53
2.04400	51
2.04767	52
2.05133	53
2.05500	54
2.05867	54
2.06233	57
2.06600	59
2.06967	58
2.07333	59
2.07700	59
2.08067	60
2.08433	62
2.08800	64
2.09167	64
2.09533	64
2.09900	63
2.10267	63
2.10633	65
2.11000	64
2.11367	64
2.11733	63
2.12100	62
2.12467	64
2.12833	67
2.13200	69
2.13567	71
2.13933	74
2.14300	77
2.14667	79
2.15033	80
2.15400	81
2.15767	83
2.16133	84
2.16500	84
2.16867	86
2.17233	87
2.17600	88
2.17967	90
2.18333	93
2.18700	97
2.19067	100
2.19433	102
2.19800	103
2.20167	104
2.20533	105
2.20900	107
2.21267	108
2.21633	108
2.22000	108
2.22367	108
2.22733	109
2.23100	112
2.23467	112
2.23833	110
2.24200	109
2.24567	110
2.24933	112
2.25300	115
2.25667	119
2.26033	122
2.26400	120
2.26767	119
2.27133	122
2.27500	123
2.27867	124
2.28233	125
2.28600	125
2.28967	126
2.29333	128
2.29700	129
2.30067	128
2.30433	128
2.30800	129
2.31167	132
2.31533	135
2.31900	135
2.32267	135
2.32633	139
2.33000	141
2.33367	143
2.33733	147
2.34100	149
2.34467	152
2.34833	154
2.35200	154
2.35567	154
2.35933	156
2.36300	157
2.36667	158
2.37033	157
2.37400	157
2.37767	160
2.38133	163
2.38500	166
2.38867	165
2.39233	165
2.39600	167
2.39967	171
2.40333	174
2.40700	178
2.41067	182
2.41433	185
2.41800	187
2.42167	190
2.42533	192
2.42900	193
2.43267	196
2.43633	197
2.44000	202
2.44367	249
2.44733	368
2.45100	495
2.45467	601
2.45833	669
2.46200	683
2.46567	662
2.46933	632
2.47300	609
2.47667	595
2.48033	587
2.48400	576
2.48767	556
2.49133	524
2.49500	490
2.49867	461
2.50233	436
2.50600	418
2.50967	407
2.51333	401
2.51700	401
2.52067	409
2.52433	422
2.52800	438
2.53167	453
2.53533	464
2.53900	467
2.54267	464
2.54633	455
2.55000	438
2.55367	420
2.55733	403
2.56100	387
2.56467	374
2.56833	362
2.57200	350
2.57567	341
2.57933	336
2.58300	333
2.58667	333
2.59033	333
2.59400	330
2.59767	327
2.60133	320
2.60500	310
2.60867	298
2.61233	282
2.61600	266
2.61967	250
2.62333	235
2.62700	225
2.63067	219
2.63433	214
2.63800	213
2.64167	213
2.64533	216
2.64900	223
2.65267	231
2.65633	240
2.66000	248
2.66367	252
2.66733	256
2.67100	259
2.67467	260
2.67833	261
2.68200	260
2.68567	256
2.68933	251
2.69300	246
2.69667	242
2.70033	240
2.70400	239
2.70767	239
2.71133	236
2.71500	231
2.71867	226
2.72233	226
2.72600	225
2.72967	225
2.73333	227
2.73700	227
2.74067	227
2.74433	228
2.74800	230
2.75167	229
2.75533	228
2.75900	227
2.76267	228
2.76633	229
2.77000	229
2.77367	230
2.77733	233
2.78100	234
2.78467	236
2.78833	236
2.79200	237
2.79567	236
2.79933	235
2.80300	233
2.80667	232
2.81033	234
2.81400	236
2.81767	240
2.82133	250
2.82500	273
2.82867	322
2.83233	417
2.83600	578
2.83967	828
2.84333	1182
2.84700	1644
2.85067	2191
2.85433	2795
2.85800	3411
2.86167	3988
2.86533	4476
2.86900	4843
2.87267	5062
2.87633	5133
2.88000	5068
2.88367	4886
2.88733	4618
2.89100	4299
2.89467	3951
2.89833	3594
2.90200	3244
2.90567	2912
2.90933	2602
2.91300	2319
2.91667	2063
2.92033	1832
2.92400	1628
2.92767	1448
2.93133	1293
2.93500	1157
2.93867	1038
2.94233	936
2.94600	848
2.94967	770
2.95333	703
2.95700	645
2.96067	596
2.96433	552
2.96800	514
2.97167	477
2.97533	446
2.97900	420
2.98267	396
2.98633	376
2.99000	360
2.99367	346
2.99733	335
3.00100	323
3.00467	311
3.00833	301
3.01200	294
3.01567	287
3.01933	277
3.02300	269
3.02667	264
3.03033	259
3.03400	253
3.03767	249
3.04133	246
3.04500	241
3.04867	238
3.05233	236
3.05600	234
3.05967	230
3.06333	228
3.06700	227
3.07067	226
3.07433	222
3.07800	219
3.08167	217
3.08533	214
3.08900	211
3.09267	209
3.09633	208
3.10000	207
3.10367	206
3.10733	204
3.11100	203
3.11467	203
3.11833	203
3.12200	203
3.12567	203
3.12933	202
3.13300	202
3.13667	202
3.14033	202
3.14400	198
3.14767	187
3.15133	180
3.15500	181
3.15867	194
3.16233	211
3.16600	233
3.16967	260
3.17333	289
3.17700	320
3.18067	351
3.18433	380
3.18800	406
3.19167	430
3.19533	450
3.19900	469
3.20267	487
3.20633	504
3.21000	521
3.21367	534
3.21733	543
3.22100	549
3.22467	555
3.22833	563
3.23200	572
3.23567	578
3.23933	584
3.24300	591
3.24667	596
3.25033	601
3.25400	603
3.25767	605
3.26133	606
3.26500	608
3.26867	613
3.27233	618
3.27600	620
3.27967	620
3.28333	622
3.28700	624
3.29067	628
3.29433	632
3.29800	633
3.30167	634
3.30533	636
3.30900	636
3.31267	638
3.31633	640
3.32000	642
3.32367	642
3.32733	645
3.33100	648
3.33467	649
3.33833	651
3.34200	652
3.34567	654
3.34933	658
3.35300	660
3.35667	660
3.36033	659
3.36400	658
3.36767	658
3.37133	660
3.37500	663
3.37867	665
3.38233	666
3.38600	665
3.38967	663
3.39333	663
3.39700	664
3.40067	665
3.40433	667
3.40800	671
3.41167	672
3.41533	671
3.41900	672
3.42267	673
3.42633	673
3.43000	672
3.43367	670
3.43733	669
3.44100	666
3.44467	665
3.44833	665
3.45200	663
3.45567	662
3.45933	662
3.46300	661
3.46667	662
3.47033	662
3.47400	662
3.47767	661
3.48133	659
3.48500	659
3.48867	658
3.49233	657
3.49600	656
3.49967	655
3.50333	654
3.50700	652
3.51067	651
3.51433	651
3.51800	650
3.52167	647
3.52533	643
3.52900	641
3.53267	639
3.53633	638
3.54000	634
3.54367	629
3.54733	628
3.55100	629
3.55467	629
3.55833	630
3.56200	628
3.56567	626
3.56933	623
3.57300	621
3.57667	620
3.58033	620
3.58400	620
3.58767	617
3.59133	614
3.59500	612
3.59867	608
3.60233	608
3.60600	609
3.60967	608
3.61333	607
3.61700	607
3.62067	608
3.62433	609
3.62800	608
3.63167	606
3.63533	606
3.63900	606
3.64267	606
3.64633	603
3.65000	600
3.65367	600
3.65733	600
3.66100	599
3.66467	601
3.66833	601
3.67200	599
3.67567	597
3.67933	596
3.68300	597
3.68667	597
3.69033	594
3.69400	591
3.69767	590
3.70133	590
3.70500	590
3.70867	591
3.71233	591
3.71600	590
3.71967	589
3.72333	589
3.72700	589
3.73067	590
3.73433	593
3.73800	593
3.74167	591
3.74533	591
3.74900	591
3.75267	590
3.75633	588
3.76000	588
3.76367	589
3.76733	589
3.77100	590
3.77467	593
3.77833	596
3.78200	598
3.78567	596
3.78933	595
3.79300	593
3.79667	590
3.80033	589
3.80400	588
3.80767	588
3.81133	586
3.81500	584
3.81867	581
3.82233	581
3.82600	583
3.82967	584
3.83333	584
3.83700	585
3.84067	585
3.84433	583
3.84800	580
3.85167	578
3.85533	575
3.85900	574
3.86267	575
3.86633	575
3.87000	574
3.87367	574
3.87733	574
3.88100	573
3.88467	572
3.88833	571
3.89200	570
3.89567	567
3.89933	565
3.90300	566
3.90667	566
3.91033	564
3.91400	562
3.91767	560
3.92133	561
3.92500	562
3.92867	562
3.93233	561
3.93600	558
3.93967	556
3.94333	556
3.94700	556
3.95067	552
3.95433	549
3.95800	548
3.96167	551
3.96533	550
3.96900	549
3.97267	549
3.97633	548
3.98000	547
3.98367	547
3.98733	546
3.99100	544
3.99467	543
3.99833	540

[Status Trace (Column Oven Temperature)]
Interval(msec)	1000
# of Points	240
Start Time(min)	0.004
End Time(min)	3.988
Intensity Units	
Intensity Multiplier	1
R.Time (min)	Intensity
0.00435	35.08
0.02102	35.08
0.03768	35.07
0.05435	35.07
0.07102	35.06
0.08768	35.07
0.10435	35.08
0.12102	35.07
0.13768	35.07
0.15435	35.07
0.17102	35.07
0.18768	35.06
0.20435	35.05
0.22102	35.05
0.23768	35.04
0.25435	35.04
0.27102	35.05
0.28768	35.04
0.30435	35.04
0.32102	35.02
0.33768	35.01
0.35435	34.99
0.37102	35.00
0.38768	35.00
0.40435	35.01
0.42102	35.01
0.43768	35.00
0.45435	34.99
0.47102	35.00
0.48768	35.00
0.50435	34.99
0.52102	34.98
0.53768	34.98
0.55435	34.99
0.57102	34.99
0.58768	34.99
0.60435	35.00
0.62102	35.01
0.63768	35.01
0.65435	34.99
0.67102	35.00
0.68768	35.00
0.70435	34.98
0.72102	34.98
0.73768	34.99
0.75435	34.99
0.77102	35.00
0.78768	35.00
0.80435	35.00
0.82102	35.00
0.83768	34.99
0.85435	34.99
0.87102	34.99
0.88768	34.98
0.90435	34.98
0.92102	34.99
0.93768	34.99
0.95435	35.00
0.97102	34.99
0.98768	35.00
1.00435	34.99
1.02102	34.99
1.03768	34.99
1.05435	34.99
1.07102	35.00
1.08768	35.00
1.10435	35.00
1.12102	35.01
1.13768	35.01
1.15435	35.01
1.17102	35.02
1.18768	35.03
1.20435	35.03
1.22102	35.01
1.23768	35.00
1.25435	34.99
1.27102	34.99
1.28768	34.99
1.30435	34.99
1.32102	34.99
1.33768	35.01
1.35435	35.02
1.37102	35.02
1.38768	35.03
1.40435	35.02
1.42102	35.02
1.43768	35.01
1.45435	35.01
1.47102	35.01
1.48768	35.00
1.50435	34.99
1.52102	34.99
1.53768	34.99
1.55435	34.99
1.57102	34.98
1.58768	35.00
1.60435	35.05
1.62102	35.16
1.63768	35.34
1.65435	35.57
1.67102	35.89
1.68768	36.25
1.70435	36.61
1.72102	36.95
1.73768	37.27
1.75435	37.62
1.77102	37.95
1.78768	38.26
1.80435	38.59
1.82102	38.93
1.83768	39.25
1.85435	39.58
1.87102	39.92
1.88768	40.25
1.90435	40.60
1.92102	40.92
1.93768	41.25
1.95435	41.58
1.97102	41.91
1.98768	42.22
2.00435	42.54
2.02102	42.86
2.03768	43.20
2.05435	43.53
2.07102	43.85
2.08768	44.18
2.10435	44.50
2.12102	44.82
2.13768	45.16
2.15435	45.47
2.17102	45.80
2.18768	46.11
2.20435	46.45
2.22102	46.77
2.23768	47.11
2.25435	47.43
2.27102	47.77
2.28768	48.09
2.30435	48.42
2.32102	48.75
2.33768	49.10
2.35435	49.38
2.37102	49.59
2.38768	49.66
2.40435	49.67
2.42102	49.67
2.43768	49.69
2.45435	49.70
2.47102	49.72
2.48768	49.71
2.50435	49.76
2.52102	49.77
2.53768	49.79
2.55435	49.80
2.57102	49.81
2.58768	49.83
2.60435	49.83
2.62102	49.86
2.63768	49.86
2.65435	49.84
2.67102	49.85
2.68768	49.88
2.70435	49.88
2.72102	49.87
2.73768	49.86
2.75435	49.85
2.77102	49.86
2.78768	49.88
2.80435	49.91
2.82102	49.91
2.83768	49.92
2.85435	49.92
2.87102	49.92
2.88768	49.93
2.90435	49.93
2.92102	49.94
2.93768	49.95
2.95435	49.97
2.97102	50.00
2.98768	50.02
3.00435	50.02
3.02102	50.03
3.03768	50.03
3.05435	50.04
3.07102	50.04
3.08768	50.05
3.10435	50.04
3.12102	50.05
3.13768	50.06
3.15435	50.07
3.17102	50.08
3.18768	50.08
3.20435	50.09
3.22102	50.09
3.23768	50.10
3.25435	50.11
3.27102	50.10
3.28768	50.09
3.30435	50.07
3.32102	50.05
3.33768	50.05
3.35435	50.04
3.37102	50.04
3.38768	50.04
3.40435	50.03
3.42102	50.02
3.43768	50.01
3.45435	50.01
3.47102	50.02
3.48768	50.02
3.50435	50.04
3.52102	50.05
3.53768	50.06
3.55435	50.07
3.57102	50.08
3.58768	50.08
3.60435	50.08
3.62102	50.08
3.63768	50.08
3.65435	50.09
3.67102	50.08
3.68768	50.08
3.70435	50.09
3.72102	50.09
3.73768	50.09
3.75435	50.08
3.77102	50.07
3.78768	50.05
3.80435	50.05
3.82102	50.04
3.83768	50.04
3.85435	50.05
3.87102	50.06
3.88768	50.07
3.90435	50.07
3.92102	50.06
3.93768	50.06
3.95435	50.06
3.97102	50.07
3.98768	50.09

[Status Trace (Injection Unit Temperature)]
Interval(msec)	1000
# of Points	240
Start Time(min)	0.004
End Time(min)	3.988
Intensity Units	
Intensity Multiplier	1
R.Time (min)	Intensity
0.00435	99.98
0.02102	99.98
0.03768	99.98
0.05435	99.98
0.07102	99.97
0.08768	99.98
0.10435	99.97
0.12102	99.98
0.13768	99.98
0.15435	99.98
0.17102	99.98
0.18768	99.98
0.20435	99.97
0.22102	99.98
0.23768	99.98
0.25435	99.98
0.27102	99.98
0.28768	99.98
0.30435	99.98
0.32102	99.98
0.33768	99.98
0.35435	99.98
0.37102	99.98
0.38768	99.97
0.40435	99.98
0.42102	99.98
0.43768	99.98
0.45435	99.98
0.47102	99.98
0.48768	99.98
0.50435	99.98
0.52102	99.98
0.53768	99.98
0.55435	99.98
0.57102	99.98
0.58768	99.98
0.60435	99.98
0.62102	99.98
0.63768	99.98
0.65435	99.98
0.67102	99.98
0.68768	99.98
0.70435	99.98
0.72102	99.98
0.73768	99.98
0.75435	99.98
0.77102	99.98
0.78768	99.98
0.80435	99.99
0.82102	99.98
0.83768	99.98
0.85435	99.99
0.87102	99.99
0.88768	99.98
0.90435	99.99
0.92102	99.98
0.93768	99.99
0.95435	99.99
0.97102	99.99
0.98768	99.98
1.00435	99.98
1.02102	99.99
1.03768	99.98
1.05435	99.99
1.07102	99.99
1.08768	99.98
1.10435	99.99
1.12102	99.99
1.13768	99.98
1.15435	99.99
1.17102	99.99
1.18768	99.99
1.20435	99.99
1.22102	99.99
1.23768	99.99
1.25435	99.98
1.27102	99.99
1.28768	99.99
1.30435	99.99
1.32102	99.99
1.33768	99.99
1.35435	99.99
1.37102	99.99
1.38768	99.99
1.40435	99.99
1.42102	99.99
1.43768	99.98
1.45435	99.98
1.47102	99.99
1.48768	99.99
1.50435	99.98
1.52102	99.99
1.53768	99.98
1.55435	99.99
1.57102	99.98
1.58768	99.98
1.60435	99.98
1.62102	99.99
1.63768	99.98
1.65435	99.99
1.67102	99.99
1.68768	99.98
1.70435	99.98
1.72102	99.99
1.73768	99.98
1.75435	99.99
1.77102	99.99
1.78768	99.98
1.80435	99.98
1.82102	99.98
1.83768	99.98
1.85435	99.98
1.87102	99.98
1.88768	99.98
1.90435	99.99
1.92102	99.98
1.93768	99.98
1.95435	99.98
1.97102	99.98
1.98768	99.98
2.00435	99.97
2.02102	99.98
2.03768	99.98
2.05435	99.98
2.07102	99.97
2.08768	99.97
2.10435	99.97
2.12102	99.97
2.13768	99.97
2.15435	99.97
2.17102	99.97
2.18768	99.97
2.20435	99.97
2.22102	99.97
2.23768	99.97
2.25435	99.97
2.27102	99.97
2.28768	99.97
2.30435	99.97
2.32102	99.97
2.33768	99.97
2.35435	99.97
2.37102	99.97
2.38768	99.97
2.40435	99.97
2.42102	99.97
2.43768	99.97
2.45435	99.97
2.47102	99.97
2.48768	99.96
2.50435	99.98
2.52102	99.97
2.53768	99.97
2.55435	99.97
2.57102	99.98
2.58768	99.98
2.60435	99.98
2.62102	99.98
2.63768	99.98
2.65435	99.98
2.67102	99.98
2.68768	99.98
2.70435	99.98
2.72102	99.99
2.73768	99.99
2.75435	99.99
2.77102	100.00
2.78768	99.99
2.80435	100.00
2.82102	100.00
2.83768	100.00
2.85435	100.00
2.87102	100.00
2.88768	100.00
2.90435	100.00
2.92102	100.00
2.93768	100.01
2.95435	100.01
2.97102	100.00
2.98768	100.01
3.00435	100.01
3.02102	100.01
3.03768	100.01
3.05435	100.01
3.07102	100.01
3.08768	100.01
3.10435	100.02
3.12102	100.02
3.13768	100.02
3.15435	100.02
3.17102	100.02
3.18768	100.02
3.20435	100.02
3.22102	100.02
3.23768	100.02
3.25435	100.02
3.27102	100.02
3.28768	100.02
3.30435	100.02
3.32102	100.02
3.33768	100.02
3.35435	100.03
3.37102	100.03
3.38768	100.03
3.40435	100.03
3.42102	100.03
3.43768	100.03
3.45435	100.03
3.47102	100.03
3.48768	100.03
3.50435	100.03
3.52102	100.03
3.53768	100.03
3.55435	100.03
3.57102	100.03
3.58768	100.03
3.60435	100.04
3.62102	100.03
3.63768	100.03
3.65435	100.04
3.67102	100.03
3.68768	100.03
3.70435	100.03
3.72102	100.04
3.73768	100.04
3.75435	100.04
3.77102	100.04
3.78768	100.04
3.80435	100.03
3.82102	100.03
3.83768	100.04
3.85435	100.03
3.87102	100.04
3.88768	100.04
3.90435	100.04
3.92102	100.04
3.93768	100.04
3.95435	100.04
3.97102	100.04
3.98768	100.04

[Status Trace (Carrier Gas Pressure)]
Interval(msec)	1000
# of Points	240
Start Time(min)	0.004
End Time(min)	3.988
Intensity Units	
Intensity Multiplier	1
R.Time (min)	Intensity
0.00435	58.00
0.02102	55.97
0.03768	56.60
0.05435	58.85
0.07102	59.78
0.08768	58.19
0.10435	57.97
0.12102	58.01
0.13768	58.01
0.15435	58.01
0.17102	58.00
0.18768	58.00
0.20435	58.00
0.22102	58.00
0.23768	58.00
0.25435	58.00
0.27102	58.00
0.28768	58.00
0.30435	58.00
0.32102	58.00
0.33768	58.00
0.35435	58.00
0.37102	58.00
0.38768	58.00
0.40435	58.00
0.42102	58.00
0.43768	58.00
0.45435	58.00
0.47102	58.00
0.48768	58.00
0.50435	58.00
0.52102	58.00
0.53768	58.00
0.55435	58.00
0.57102	58.00
0.58768	58.00
0.60435	58.00
0.62102	58.00
0.63768	58.00
0.65435	58.00
0.67102	58.00
0.68768	58.00
0.70435	58.00
0.72102	58.00
0.73768	58.00
0.75435	58.00
0.77102	58.00
0.78768	58.00
0.80435	58.00
0.82102	58.00
0.83768	58.00
0.85435	58.00
0.87102	58.00
0.88768	58.00
0.90435	58.00
0.92102	58.00
0.93768	58.00
0.95435	58.00
0.97102	58.00
0.98768	58.00
1.00435	58.00
1.02102	58.00
1.03768	58.00
1.05435	58.00
1.07102	58.00
1.08768	58.00
1.10435	58.00
1.12102	58.00
1.13768	58.00
1.15435	58.00
1.17102	58.00
1.18768	58.00
1.20435	58.00
1.22102	58.00
1.23768	58.00
1.25435	58.00
1.27102	58.00
1.28768	58.00
1.30435	58.00
1.32102	58.00
1.33768	58.00
1.35435	58.00
1.37102	58.00
1.38768	58.00
1.40435	58.00
1.42102	58.00
1.43768	58.00
1.45435	58.00
1.47102	58.00
1.48768	58.00
1.50435	58.00
1.52102	58.00
1.53768	58.00
1.55435	58.00
1.57102	58.00
1.58768	58.00
1.60435	58.00
1.62102	58.00
1.63768	58.01
1.65435	58.00
1.67102	58.01
1.68768	58.01
1.70435	58.00
1.72102	58.00
1.73768	58.00
1.75435	58.00
1.77102	58.00
1.78768	58.00
1.80435	58.00
1.82102	58.00
1.83768	58.00
1.85435	58.00
1.87102	58.00
1.88768	58.00
1.90435	58.00
1.92102	58.00
1.93768	58.00
1.95435	58.00
1.97102	58.00
1.98768	58.00
2.00435	58.00
2.02102	58.00
2.03768	58.00
2.05435	58.00
2.07102	58.00
2.08768	58.00
2.10435	58.00
2.12102	58.00
2.13768	58.00
2.15435	58.00
2.17102	58.00
2.18768	58.00
2.20435	58.00
2.22102	58.00
2.23768	58.00
2.25435	58.00
2.27102	58.00
2.28768	58.00
2.30435	58.00
2.32102	58.00
2.33768	58.00
2.35435	58.00
2.37102	58.00
2.38768	57.99
2.40435	57.99
2.42102	58.00
2.43768	58.00
2.45435	58.00
2.47102	58.00
2.48768	58.00
2.50435	57.99
2.52102	57.99
2.53768	58.00
2.55435	58.00
2.57102	58.00
2.58768	58.00
2.60435	58.00
2.62102	58.00
2.63768	58.00
2.65435	58.00
2.67102	58.00
2.68768	58.00
2.70435	58.00
2.72102	58.00
2.73768	58.00
2.75435	58.00
2.77102	58.00
2.78768	58.00
2.80435	58.00
2.82102	58.00
2.83768	58.00
2.85435	58.00
2.87102	58.00
2.88768	58.00
2.90435	58.00
2.92102	58.00
2.93768	58.00
2.95435	58.00
2.97102	58.00
2.98768	58.00
3.00435	58.00
3.02102	58.00
3.03768	58.00
3.05435	58.00
3.07102	58.00
3.08768	58.00
3.10435	58.00
3.12102	58.00
3.13768	58.00
3.15435	58.00
3.17102	58.00
3.18768	58.00
3.20435	58.00
3.22102	58.00
3.23768	58.00
3.25435	58.00
3.27102	58.00
3.28768	58.00
3.30435	58.00
3.32102	58.00
3.33768	58.00
3.35435	58.00
3.37102	58.00
3.38768	58.00
3.40435	58.00
3.42102	58.00
3.43768	58.00
3.45435	58.00
3.47102	58.00
3.48768	58.00
3.50435	58.00
3.52102	58.00
3.53768	58.00
3.55435	58.00
3.57102	58.00
3.58768	58.00
3.60435	58.00
3.62102	58.00
3.63768	58.00
3.65435	58.00
3.67102	58.00
3.68768	58.00
3.70435	58.00
3.72102	58.00
3.73768	58.00
3.75435	58.00
3.77102	58.00
3.78768	58.00
3.80435	58.00
3.82102	58.00
3.83768	58.00
3.85435	58.00
3.87102	58.00
3.88768	58.00
3.90435	58.00
3.92102	58.00
3.93768	58.00
3.95435	58.00
3.97102	58.00
3.98768	58.00

[Status Trace (Carrier Gas Flow)]
Interval(msec)	1000
# of Points	240
Start Time(min)	0.004
End Time(min)	3.988
Intensity Units	
Intensity Multiplier	1
R.Time (min)	Intensity
0.00435	34.52
0.02102	34.57
0.03768	34.54
0.05435	34.55
0.07102	34.49
0.08768	34.52
0.10435	34.52
0.12102	34.52
0.13768	34.52
0.15435	34.52
0.17102	34.51
0.18768	34.52
0.20435	34.52
0.22102	34.52
0.23768	34.52
0.25435	34.51
0.27102	34.52
0.28768	34.52
0.30435	34.52
0.32102	34.52
0.33768	34.52
0.35435	34.52
0.37102	34.52
0.38768	34.51
0.40435	34.51
0.42102	34.52
0.43768	34.52
0.45435	34.53
0.47102	34.52
0.48768	34.52
0.50435	34.52
0.52102	34.52
0.53768	34.52
0.55435	34.52
0.57102	34.52
0.58768	34.52
0.60435	34.51
0.62102	34.52
0.63768	34.52
0.65435	34.52
0.67102	34.52
0.68768	34.52
0.70435	34.52
0.72102	34.52
0.73768	34.52
0.75435	34.51
0.77102	34.52
0.78768	34.52
0.80435	34.52
0.82102	34.51
0.83768	34.52
0.85435	34.52
0.87102	34.52
0.88768	34.52
0.90435	34.52
0.92102	34.52
0.93768	34.52
0.95435	34.52
0.97102	34.52
0.98768	34.52
1.00435	34.52
1.02102	34.52
1.03768	34.51
1.05435	34.51
1.07102	34.52
1.08768	34.52
1.10435	34.52
1.12102	34.52
1.13768	34.52
1.15435	34.52
1.17102	34.51
1.18768	34.51
1.20435	34.52
1.22102	34.52
1.23768	34.52
1.25435	34.52
1.27102	34.52
1.28768	34.51
1.30435	34.52
1.32102	34.52
1.33768	34.51
1.35435	34.52
1.37102	34.52
1.38768	34.52
1.40435	34.52
1.42102	34.52
1.43768	34.52
1.45435	34.52
1.47102	34.52
1.48768	34.52
1.50435	34.52
1.52102	34.52
1.53768	34.52
1.55435	34.52
1.57102	34.52
1.58768	34.52
1.60435	34.52
1.62102	34.52
1.63768	34.51
1.65435	34.52
1.67102	34.52
1.68768	34.52
1.70435	34.52
1.72102	34.52
1.73768	34.51
1.75435	34.53
1.77102	34.51
1.78768	34.52
1.80435	34.52
1.82102	34.52
1.83768	34.52
1.85435	34.52
1.87102	34.51
1.88768	34.52
1.90435	34.52
1.92102	34.52
1.93768	34.52
1.95435	34.51
1.97102	34.52
1.98768	34.52
2.00435	34.51
2.02102	34.52
2.03768	34.52
2.05435	34.52
2.07102	34.52
2.08768	34.51
2.10435	34.51
2.12102	34.52
2.13768	34.52
2.15435	34.52
2.17102	34.52
2.18768	34.52
2.20435	34.52
2.22102	34.51
2.23768	34.52
2.25435	34.51
2.27102	34.53
2.28768	34.52
2.30435	34.52
2.32102	34.52
2.33768	34.52
2.35435	34.51
2.37102	34.51
2.38768	34.52
2.40435	34.52
2.42102	34.53
2.43768	34.52
2.45435	34.51
2.47102	34.52
2.48768	34.52
2.50435	34.55
2.52102	34.52
2.53768	34.52
2.55435	34.52
2.57102	34.52
2.58768	34.52
2.60435	34.52
2.62102	34.52
2.63768	34.52
2.65435	34.52
2.67102	34.52
2.68768	34.51
2.70435	34.52
2.72102	34.53
2.73768	34.52
2.75435	34.52
2.77102	34.52
2.78768	34.52
2.80435	34.52
2.82102	34.52
2.83768	34.51
2.85435	34.53
2.87102	34.53
2.88768	34.53
2.90435	34.52
2.92102	34.52
2.93768	34.52
2.95435	34.52
2.97102	34.52
2.98768	34.52
3.00435	34.52
3.02102	34.52
3.03768	34.52
3.05435	34.52
3.07102	34.52
3.08768	34.52
3.10435	34.52
3.12102	34.52
3.13768	34.52
3.15435	34.52
3.17102	34.51
3.18768	34.52
3.20435	34.52
3.22102	34.52
3.23768	34.52
3.25435	34.52
3.27102	34.52
3.28768	34.52
3.30435	34.52
3.32102	34.52
3.33768	34.52
3.35435	34.52
3.37102	34.51
3.38768	34.52
3.40435	34.52
3.42102	34.52
3.43768	34.52
3.45435	34.52
3.47102	34.52
3.48768	34.52
3.50435	34.52
3.52102	34.52
3.53768	34.51
3.55435	34.52
3.57102	34.52
3.58768	34.52
3.60435	34.52
3.62102	34.52
3.63768	34.53
3.65435	34.52
3.67102	34.52
3.68768	34.52
3.70435	34.52
3.72102	34.52
3.73768	34.52
3.75435	34.51
3.77102	34.52
3.78768	34.52
3.80435	34.52
3.82102	34.52
3.83768	34.52
3.85435	34.52
3.87102	34.52
3.88768	34.52
3.90435	34.52
3.92102	34.52
3.93768	34.52
3.95435	34.52
3.97102	34.52
3.98768	34.52

[Status Trace (Column Flow)]
Interval(msec)	1000
# of Points	240
Start Time(min)	0.004
End Time(min)	3.988
Intensity Units	
Intensity Multiplier	1
R.Time (min)	Intensity
0.00435	5.51
0.02102	5.28
0.03768	5.35
0.05435	5.61
0.07102	5.72
0.08768	5.53
0.10435	5.51
0.12102	5.51
0.13768	5.51
0.15435	5.51
0.17102	5.51
0.18768	5.51
0.20435	5.51
0.22102	5.51
0.23768	5.51
0.25435	5.51
0.27102	5.51
0.28768	5.51
0.30435	5.51
0.32102	5.51
0.33768	5.51
0.35435	5.51
0.37102	5.51
0.38768	5.51
0.40435	5.51
0.42102	5.51
0.43768	5.51
0.45435	5.51
0.47102	5.51
0.48768	5.51
0.50435	5.51
0.52102	5.51
0.53768	5.51
0.55435	5.51
0.57102	5.51
0.58768	5.51
0.60435	5.51
0.62102	5.51
0.63768	5.51
0.65435	5.51
0.67102	5.51
0.68768	5.51
0.70435	5.51
0.72102	5.51
0.73768	5.51
0.75435	5.51
0.77102	5.51
0.78768	5.51
0.80435	5.51
0.82102	5.51
0.83768	5.51
0.85435	5.51
0.87102	5.51
0.88768	5.51
0.90435	5.51
0.92102	5.51
0.93768	5.51
0.95435	5.51
0.97102	5.51
0.98768	5.51
1.00435	5.51
1.02102	5.51
1.03768	5.51
1.05435	5.51
1.07102	5.51
1.08768	5.51
1.10435	5.51
1.12102	5.51
1.13768	5.51
1.15435	5.51
1.17102	5.51
1.18768	5.51
1.20435	5.51
1.22102	5.51
1.23768	5.51
1.25435	5.51
1.27102	5.51
1.28768	5.51
1.30435	5.51
1.32102	5.51
1.33768	5.51
1.35435	5.51
1.37102	5.51
1.38768	5.51
1.40435	5.51
1.42102	5.51
1.43768	5.51
1.45435	5.51
1.47102	5.51
1.48768	5.51
1.50435	5.51
1.52102	5.51
1.53768	5.51
1.55435	5.51
1.57102	5.51
1.58768	5.51
1.60435	5.51
1.62102	5.51
1.63768	5.50
1.65435	5.49
1.67102	5.49
1.68768	5.47
1.70435	5.46
1.72102	5.45
1.73768	5.44
1.75435	5.43
1.77102	5.42
1.78768	5.41
1.80435	5.40
1.82102	5.39
1.83768	5.38
1.85435	5.37
1.87102	5.36
1.88768	5.35
1.90435	5.34
1.92102	5.33
1.93768	5.32
1.95435	5.31
1.97102	5.30
1.98768	5.29
2.00435	5.28
2.02102	5.27
2.03768	5.26
2.05435	5.25
2.07102	5.24
2.08768	5.23
2.10435	5.23
2.12102	5.22
2.13768	5.21
2.15435	5.20
2.17102	5.19
2.18768	5.18
2.20435	5.17
2.22102	5.16
2.23768	5.15
2.25435	5.14
2.27102	5.13
2.28768	5.12
2.30435	5.11
2.32102	5.11
2.33768	5.09
2.35435	5.09
2.37102	5.08
2.38768	5.08
2.40435	5.08
2.42102	5.08
2.43768	5.08
2.45435	5.08
2.47102	5.08
2.48768	5.08
2.50435	5.08
2.52102	5.08
2.53768	5.07
2.55435	5.08
2.57102	5.07
2.58768	5.07
2.60435	5.07
2.62102	5.07
2.63768	5.07
2.65435	5.07
2.67102	5.07
2.68768	5.07
2.70435	5.07
2.72102	5.07
2.73768	5.07
2.75435	5.07
2.77102	5.07
2.78768	5.07
2.80435	5.07
2.82102	5.07
2.83768	5.07
2.85435	5.07
2.87102	5.07
2.88768	5.07
2.90435	5.07
2.92102	5.07
2.93768	5.07
2.95435	5.07
2.97102	5.07
2.98768	5.07
3.00435	5.07
3.02102	5.07
3.03768	5.07
3.05435	5.07
3.07102	5.07
3.08768	5.07
3.10435	5.07
3.12102	5.07
3.13768	5.07
3.15435	5.07
3.17102	5.07
3.18768	5.07
3.20435	5.07
3.22102	5.07
3.23768	5.07
3.25435	5.07
3.27102	5.07
3.28768	5.07
3.30435	5.07
3.32102	5.07
3.33768	5.07
3.35435	5.07
3.37102	5.07
3.38768	5.07
3.40435	5.07
3.42102	5.07
3.43768	5.07
3.45435	5.07
3.47102	5.07
3.48768	5.07
3.50435	5.07
3.52102	5.07
3.53768	5.07
3.55435	5.07
3.57102	5.07
3.58768	5.07
3.60435	5.07
3.62102	5.07
3.63768	5.07
3.65435	5.07
3.67102	5.07
3.68768	5.07
3.70435	5.07
3.72102	5.07
3.73768	5.07
3.75435	5.07
3.77102	5.07
3.78768	5.07
3.80435	5.07
3.82102	5.07
3.83768	5.07
3.85435	5.07
3.87102	5.07
3.88768	5.07
3.90435	5.07
3.92102	5.07
3.93768	5.07
3.95435	5.07
3.97102	5.07
3.98768	5.07

[Status Trace (Linear Velocity)]
Interval(msec)	1000
# of Points	240
Start Time(min)	0.004
End Time(min)	3.988
Intensity Units	
Intensity Multiplier	1
R.Time (min)	Intensity
0.00435	39.01
0.02102	37.68
0.03768	38.09
0.05435	39.57
0.07102	40.17
0.08768	39.13
0.10435	38.99
0.12102	39.01
0.13768	39.01
0.15435	39.01
0.17102	39.01
0.18768	39.01
0.20435	39.01
0.22102	39.01
0.23768	39.01
0.25435	39.01
0.27102	39.01
0.28768	39.01
0.30435	39.01
0.32102	39.01
0.33768	39.01
0.35435	39.02
0.37102	39.01
0.38768	39.01
0.40435	39.01
0.42102	39.01
0.43768	39.01
0.45435	39.02
0.47102	39.01
0.48768	39.01
0.50435	39.01
0.52102	39.02
0.53768	39.02
0.55435	39.02
0.57102	39.01
0.58768	39.02
0.60435	39.02
0.62102	39.01
0.63768	39.01
0.65435	39.02
0.67102	39.01
0.68768	39.01
0.70435	39.02
0.72102	39.02
0.73768	39.02
0.75435	39.02
0.77102	39.01
0.78768	39.01
0.80435	39.01
0.82102	39.01
0.83768	39.02
0.85435	39.02
0.87102	39.02
0.88768	39.02
0.90435	39.02
0.92102	39.02
0.93768	39.02
0.95435	39.02
0.97102	39.02
0.98768	39.01
1.00435	39.01
1.02102	39.02
1.03768	39.02
1.05435	39.02
1.07102	39.01
1.08768	39.01
1.10435	39.01
1.12102	39.01
1.13768	39.01
1.15435	39.01
1.17102	39.01
1.18768	39.01
1.20435	39.01
1.22102	39.01
1.23768	39.01
1.25435	39.02
1.27102	39.01
1.28768	39.02
1.30435	39.02
1.32102	39.02
1.33768	39.01
1.35435	39.01
1.37102	39.01
1.38768	39.01
1.40435	39.01
1.42102	39.01
1.43768	39.01
1.45435	39.01
1.47102	39.01
1.48768	39.01
1.50435	39.01
1.52102	39.02
1.53768	39.02
1.55435	39.02
1.57102	39.02
1.58768	39.01
1.60435	39.01
1.62102	39.00
1.63768	38.99
1.65435	38.96
1.67102	38.94
1.68768	38.90
1.70435	38.86
1.72102	38.83
1.73768	38.80
1.75435	38.77
1.77102	38.74
1.78768	38.70
1.80435	38.67
1.82102	38.64
1.83768	38.61
1.85435	38.58
1.87102	38.55
1.88768	38.52
1.90435	38.48
1.92102	38.46
1.93768	38.42
1.95435	38.39
1.97102	38.36
1.98768	38.33
2.00435	38.30
2.02102	38.28
2.03768	38.24
2.05435	38.21
2.07102	38.19
2.08768	38.15
2.10435	38.12
2.12102	38.10
2.13768	38.07
2.15435	38.03
2.17102	38.01
2.18768	37.98
2.20435	37.95
2.22102	37.92
2.23768	37.89
2.25435	37.86
2.27102	37.83
2.28768	37.80
2.30435	37.77
2.32102	37.74
2.33768	37.71
2.35435	37.68
2.37102	37.67
2.38768	37.66
2.40435	37.65
2.42102	37.66
2.43768	37.66
2.45435	37.66
2.47102	37.65
2.48768	37.65
2.50435	37.65
2.52102	37.65
2.53768	37.65
2.55435	37.65
2.57102	37.65
2.58768	37.65
2.60435	37.64
2.62102	37.64
2.63768	37.64
2.65435	37.64
2.67102	37.64
2.68768	37.64
2.70435	37.64
2.72102	37.64
2.73768	37.64
2.75435	37.64
2.77102	37.64
2.78768	37.64
2.80435	37.64
2.82102	37.64
2.83768	37.64
2.85435	37.64
2.87102	37.64
2.88768	37.64
2.90435	37.64
2.92102	37.64
2.93768	37.63
2.95435	37.63
2.97102	37.63
2.98768	37.63
3.00435	37.63
3.02102	37.63
3.03768	37.63
3.05435	37.63
3.07102	37.63
3.08768	37.63
3.10435	37.63
3.12102	37.63
3.13768	37.62
3.15435	37.62
3.17102	37.62
3.18768	37.62
3.20435	37.62
3.22102	37.62
3.23768	37.62
3.25435	37.62
3.27102	37.62
3.28768	37.62
3.30435	37.62
3.32102	37.63
3.33768	37.63
3.35435	37.63
3.37102	37.63
3.38768	37.63
3.40435	37.63
3.42102	37.63
3.43768	37.63
3.45435	37.63
3.47102	37.63
3.48768	37.63
3.50435	37.63
3.52102	37.63
3.53768	37.63
3.55435	37.62
3.57102	37.62
3.58768	37.62
3.60435	37.62
3.62102	37.62
3.63768	37.62
3.65435	37.62
3.67102	37.62
3.68768	37.62
3.70435	37.62
3.72102	37.62
3.73768	37.62
3.75435	37.62
3.77102	37.62
3.78768	37.63
3.80435	37.63
3.82102	37.63
3.83768	37.63
3.85435	37.63
3.87102	37.63
3.88768	37.62
3.90435	37.62
3.92102	37.62
3.93768	37.63
3.95435	37.63
3.97102	37.62
3.98768	37.62

