[Header]
Application Name	LabSolutions
Version	5.110
Data File Name	C:\Users\User\Desktop\GC Analyses\Jack\Nachusa Grasslands Sampling\T2 Timepoint July 12th\T2_07122022_025.gcd
Output Date	3/14/2023
Output Time	3:42:31 PM

[File Information]
Type	Data File
Generated	3/10/2023 3:06:43 PM
Generated by	System Administrator
Modified	3/10/2023 3:13:20 PM
Modified by	System Administrator

[Sample Information]
Operator Name	System Administrator
Acquired	3/10/2023 3:09:19 PM
Sample Type	0:Unknown
Level	0
Sample Name	025
Sample ID	025
ISTD Amount1	1
ISTD Amount2	1
ISTD Amount3	1
ISTD Amount4	1
ISTD Amount5	1
ISTD Amount6	1
ISTD Amount7	1
ISTD Amount8	1
ISTD Amount9	1
ISTD Amount10	1
ISTD Amount11	1
ISTD Amount12	1
ISTD Amount13	1
ISTD Amount14	1
ISTD Amount15	1
ISTD Amount16	1
ISTD Amount17	1
ISTD Amount18	1
ISTD Amount19	1
ISTD Amount20	1
ISTD Amount21	1
ISTD Amount22	1
ISTD Amount23	1
ISTD Amount24	1
ISTD Amount25	1
ISTD Amount26	1
ISTD Amount27	1
ISTD Amount28	1
ISTD Amount29	1
ISTD Amount30	1
ISTD Amount31	1
ISTD Amount32	1
Sample Amount	1
Dilution Factor	1
Vial#	24
Injection Volume	1
Injection Count	1
Bar Code	

[Original Files]
Data File	C:\Users\User\Desktop\GC Analyses\Jack\Nachusa Grasslands Sampling\T1 Timepoint July 12th\T2_07122022_025.gcd
Method File	C:\LabSolutions\Data\GHG_4min_2022\ghg3_togas_w_acet_4 min_new_int.gcm
Batch File	C:\LabSolutions\Data\AutoSamplerTesting\T2_07122022.gcb
Report Format File	c:\LabSolutions\System\DEFAULT.lsr

[File Description]


[Configuration]
Instrument Name	C0B7VH3-Instrument1
Instrument #	1
Line #	1
# of Detectors	3
Detector ID	DET#1	DET#2	DET#3
Detector Name	FID	PTCD	ECD
# of Channels	1	1	1

[Peak Table(Ch1)]
# of Peaks	3
Peak#	R.Time	I.Time	F.Time	Area	Height	A/H	Conc.	Mark	ID#	Name	k'	Plate #	Plate Ht.	Tailing	Resolution	Sep.Factor	Area Ratio	Height Ratio	Conc. %	Norm Conc.
1	1.476	1.432	1.538	25943	12360	2.099	183.156	   	1	CO	0.000	9456	15.863	1.298	0.000	0.000	0	0	16.573	16.573
2	1.567	1.538	1.619	4460	2204	2.024	86.232	 V 	2	CH4	0.062	10650	14.084	0.000	1.510	0.000	0	0	7.803	7.803
3	1.996	1.949	2.524	3329949	1587773	2.097	835.727	   	3	CO2	0.353	17595	8.525	1.256	7.094	5.680	0	0	75.624	75.624

[Peak Table(Ch2)]
# of Peaks	0

[Peak Table(Ch3)]
# of Peaks	5
Peak#	R.Time	I.Time	F.Time	Area	Height	A/H	Conc.	Mark	ID#	Name	k'	Plate #	Plate Ht.	Tailing	Resolution	Sep.Factor	Area Ratio	Height Ratio	Conc. %	Norm Conc.
1	2.462	2.363	2.513	1832	575	3.186	0.000	   			0.000	9071	16.536	0.000	0.000	0.000	0	0	0.000	0.000
2	2.535	2.513	2.631	1373	332	4.137	0.000	 V 			0.030	4412	34.000	0.000	0.573	0.000	0	0	0.000	0.000
3	2.667	2.642	2.700	67	35	1.926	0.000	   			0.083	34133	4.395	1.144	1.255	2.800	0	0	0.000	0.000
4	2.876	2.807	3.045	18888	5039	3.748	0.482	   	1	N2O	0.168	13380	11.211	1.620	2.659	2.018	0	0	100.000	100.000
5	3.404	3.239	3.995	10603	399	26.590	0.000	   	2	SF6	0.383	515	291.423	2.290	1.509	2.274	0	0	0.000	0.000

[Compound Results(Ch1)]
# of IDs	6
ID#	Name	R.Time	Area	Height	Conc.	Curve	3rd	2nd	1st	Constant	Area Ratio	Height Ratio	Conc. %	Norm Conc.
1	CO	1.476	25943	12360	183.156	Linear	0.000000e+00	0.000000e+00	1.416423e+002	0.000000e+00	0	0	16.573	16.573
2	CH4	1.567	4460	2204	86.232	Linear	0.000000e+00	0.000000e+00	5.171738e+001	0.000000e+00	0	0	7.803	7.803
3	CO2	1.996	3329949	1587773	835.727	Linear	0.000000e+00	0.000000e+00	3.984494e+003	0.000000e+00	0	0	75.624	75.624
4	Ethylene	0.000	0	0	0.000	Linear	0.000000e+00	0.000000e+00	0.000000e+00	0.000000e+00	0	0	0.000	0.000
5	Acetylene	0.000	0	0	0.000	Linear	0.000000e+00	0.000000e+00	0.000000e+00	0.000000e+00	0	0	0.000	0.000
6	Ethane	0.000	0	0	0.000	Linear	0.000000e+00	0.000000e+00	0.000000e+00	0.000000e+00	0	0	0.000	0.000

[Compound Results(Ch2)]
# of IDs	5
ID#	Name	R.Time	Area	Height	Conc.	Curve	3rd	2nd	1st	Constant	Area Ratio	Height Ratio	Conc. %	Norm Conc.
1	Hydrogen	0.000	0	0	0.000	Linear	0.000000e+00	0.000000e+00	0.000000e+00	0.000000e+00	0	0	0.000	0.000
2	Oxygen	0.000	0	0	0.000	Linear	0.000000e+00	0.000000e+00	0.000000e+00	0.000000e+00	0	0	0.000	0.000
3	Nitrogen	0.000	0	0	0.000	Linear	0.000000e+00	0.000000e+00	0.000000e+00	0.000000e+00	0	0	0.000	0.000
4	Methane	0.000	0	0	0.000	Linear	0.000000e+00	0.000000e+00	0.000000e+00	0.000000e+00	0	0	0.000	0.000
5	Carbon Monoxide	0.000	0	0	0.000	Linear	0.000000e+00	0.000000e+00	0.000000e+00	0.000000e+00	0	0	0.000	0.000

[Compound Results(Ch3)]
# of IDs	2
ID#	Name	R.Time	Area	Height	Conc.	Curve	3rd	2nd	1st	Constant	Area Ratio	Height Ratio	Conc. %	Norm Conc.
1	N2O	2.876	18888	5039	0.482	Linear	0.000000e+00	0.000000e+00	3.915173e+004	0.000000e+00	0	0	100.000	100.000
2	SF6	3.404	10603	399	0.000	Linear	0.000000e+00	0.000000e+00	0.000000e+00	0.000000e+00	0	0	0.000	0.000

[Group Results(Ch1)]
# of Groups	0

[Group Results(Ch2)]
# of Groups	0

[Group Results(Ch3)]
# of Groups	0

[Chromatogram (Ch1)]
Interval(msec)	220
# of Points	1091
Start Time(min)	0.002
End Time(min)	3.998
R.Time (min)	Intensity
0.00167	25
0.00533	33
0.00900	35
0.01267	36
0.01633	36
0.02000	33
0.02367	33
0.02733	39
0.03100	50
0.03467	57
0.03833	58
0.04200	55
0.04567	51
0.04933	50
0.05300	52
0.05667	55
0.06033	55
0.06400	52
0.06767	47
0.07133	41
0.07500	37
0.07867	34
0.08233	26
0.08600	18
0.08967	19
0.09333	30
0.09700	49
0.10067	60
0.10433	61
0.10800	57
0.11167	54
0.11533	57
0.11900	61
0.12267	65
0.12633	67
0.13000	64
0.13367	55
0.13733	47
0.14100	39
0.14467	32
0.14833	26
0.15200	23
0.15567	23
0.15933	29
0.16300	32
0.16667	30
0.17033	27
0.17400	26
0.17767	27
0.18133	30
0.18500	32
0.18867	35
0.19233	34
0.19600	35
0.19967	36
0.20333	35
0.20700	36
0.21067	38
0.21433	45
0.21800	55
0.22167	65
0.22533	68
0.22900	62
0.23267	54
0.23633	46
0.24000	39
0.24367	38
0.24733	38
0.25100	38
0.25467	40
0.25833	44
0.26200	52
0.26567	59
0.26933	66
0.27300	69
0.27667	68
0.28033	64
0.28400	62
0.28767	62
0.29133	63
0.29500	69
0.29867	79
0.30233	88
0.30600	87
0.30967	76
0.31333	66
0.31700	65
0.32067	68
0.32433	73
0.32800	80
0.33167	88
0.33533	93
0.33900	92
0.34267	90
0.34633	87
0.35000	81
0.35367	78
0.35733	79
0.36100	77
0.36467	71
0.36833	66
0.37200	66
0.37567	69
0.37933	71
0.38300	73
0.38667	77
0.39033	81
0.39400	82
0.39767	79
0.40133	77
0.40500	75
0.40867	73
0.41233	70
0.41600	69
0.41967	67
0.42333	60
0.42700	51
0.43067	45
0.43433	43
0.43800	43
0.44167	42
0.44533	43
0.44900	45
0.45267	46
0.45633	46
0.46000	48
0.46367	48
0.46733	50
0.47100	57
0.47467	62
0.47833	62
0.48200	57
0.48567	49
0.48933	39
0.49300	29
0.49667	21
0.50033	16
0.50400	14
0.50767	14
0.51133	20
0.51500	29
0.51867	38
0.52233	42
0.52600	41
0.52967	39
0.53333	42
0.53700	46
0.54067	44
0.54433	39
0.54800	38
0.55167	44
0.55533	53
0.55900	58
0.56267	56
0.56633	54
0.57000	52
0.57367	45
0.57733	36
0.58100	27
0.58467	21
0.58833	22
0.59200	26
0.59567	30
0.59933	33
0.60300	33
0.60667	33
0.61033	34
0.61400	35
0.61767	35
0.62133	34
0.62500	31
0.62867	30
0.63233	31
0.63600	31
0.63967	31
0.64333	31
0.64700	34
0.65067	36
0.65433	36
0.65800	35
0.66167	35
0.66533	37
0.66900	38
0.67267	40
0.67633	45
0.68000	51
0.68367	52
0.68733	45
0.69100	35
0.69467	29
0.69833	25
0.70200	21
0.70567	16
0.70933	11
0.71300	9
0.71667	10
0.72033	13
0.72400	16
0.72767	18
0.73133	18
0.73500	20
0.73867	24
0.74233	24
0.74600	18
0.74967	11
0.75333	8
0.75700	6
0.76067	8
0.76433	13
0.76800	17
0.77167	17
0.77533	15
0.77900	17
0.78267	20
0.78633	22
0.79000	20
0.79367	14
0.79733	11
0.80100	14
0.80467	20
0.80833	26
0.81200	28
0.81567	26
0.81933	24
0.82300	21
0.82667	22
0.83033	25
0.83400	26
0.83767	27
0.84133	31
0.84500	38
0.84867	38
0.85233	29
0.85600	17
0.85967	9
0.86333	9
0.86700	15
0.87067	18
0.87433	15
0.87800	8
0.88167	-1
0.88533	-4
0.88900	-2
0.89267	6
0.89633	10
0.90000	11
0.90367	9
0.90733	2
0.91100	-3
0.91467	-5
0.91833	-3
0.92200	2
0.92567	7
0.92933	10
0.93300	8
0.93667	9
0.94033	15
0.94400	18
0.94767	16
0.95133	9
0.95500	1
0.95867	-2
0.96233	-2
0.96600	1
0.96967	4
0.97333	5
0.97700	0
0.98067	-9
0.98433	-18
0.98800	-25
0.99167	-26
0.99533	-27
0.99900	-28
1.00267	-30
1.00633	-29
1.01000	-23
1.01367	-12
1.01733	-1
1.02100	6
1.02467	7
1.02833	6
1.03200	4
1.03567	-1
1.03933	-9
1.04300	-14
1.04667	-15
1.05033	-14
1.05400	-10
1.05767	-5
1.06133	2
1.06500	4
1.06867	2
1.07233	-2
1.07600	-1
1.07967	6
1.08333	17
1.08700	28
1.09067	36
1.09433	31
1.09800	16
1.10167	-2
1.10533	-20
1.10900	-36
1.11267	-47
1.11633	-52
1.12000	-55
1.12367	-54
1.12733	-46
1.13100	-37
1.13467	-30
1.13833	-25
1.14200	-17
1.14567	-9
1.14933	-4
1.15300	1
1.15667	3
1.16033	4
1.16400	3
1.16767	-0
1.17133	-4
1.17500	-9
1.17867	-9
1.18233	-11
1.18600	-16
1.18967	-22
1.19333	-22
1.19700	-15
1.20067	-5
1.20433	2
1.20800	6
1.21167	9
1.21533	9
1.21900	1
1.22267	-5
1.22633	-9
1.23000	-12
1.23367	-16
1.23733	-20
1.24100	-23
1.24467	-27
1.24833	-27
1.25200	-24
1.25567	-17
1.25933	-12
1.26300	-15
1.26667	-16
1.27033	-19
1.27400	-25
1.27767	-25
1.28133	-21
1.28500	-16
1.28867	-15
1.29233	-11
1.29600	-8
1.29967	-10
1.30333	-14
1.30700	-19
1.31067	-26
1.31433	-34
1.31800	-44
1.32167	-48
1.32533	-46
1.32900	-44
1.33267	-44
1.33633	-41
1.34000	-34
1.34367	-25
1.34733	-18
1.35100	-17
1.35467	-15
1.35833	-14
1.36200	-14
1.36567	-15
1.36933	-15
1.37300	-15
1.37667	-22
1.38033	-33
1.38400	-42
1.38767	-44
1.39133	-41
1.39500	-34
1.39867	-30
1.40233	-32
1.40600	-32
1.40967	-26
1.41333	-25
1.41700	-27
1.42067	-30
1.42433	-31
1.42800	-26
1.43167	-16
1.43533	-10
1.43900	8
1.44267	87
1.44633	308
1.45000	883
1.45367	2184
1.45733	4250
1.46100	6653
1.46467	8901
1.46833	10699
1.47200	11892
1.47567	12356
1.47933	12005
1.48300	10871
1.48667	9189
1.49033	7314
1.49400	5555
1.49767	4088
1.50133	2957
1.50500	2121
1.50867	1520
1.51233	1102
1.51600	815
1.51967	615
1.52333	475
1.52700	378
1.53067	307
1.53433	252
1.53800	227
1.54167	275
1.54533	449
1.54900	765
1.55267	1167
1.55633	1564
1.56000	1896
1.56367	2124
1.56733	2226
1.57100	2177
1.57467	1969
1.57833	1646
1.58200	1285
1.58567	953
1.58933	682
1.59300	481
1.59667	338
1.60033	241
1.60400	176
1.60767	129
1.61133	87
1.61500	56
1.61867	36
1.62233	27
1.62600	26
1.62967	28
1.63333	30
1.63700	29
1.64067	24
1.64433	18
1.64800	16
1.65167	13
1.65533	2
1.65900	-10
1.66267	-15
1.66633	-13
1.67000	-8
1.67367	-4
1.67733	-3
1.68100	-3
1.68467	-2
1.68833	-0
1.69200	1
1.69567	0
1.69933	3
1.70300	4
1.70667	3
1.71033	-2
1.71400	-11
1.71767	-23
1.72133	-32
1.72500	-33
1.72867	-29
1.73233	-24
1.73600	-17
1.73967	-11
1.74333	-6
1.74700	-5
1.75067	-8
1.75433	-13
1.75800	-14
1.76167	-9
1.76533	-3
1.76900	1
1.77267	2
1.77633	0
1.78000	-0
1.78367	0
1.78733	1
1.79100	0
1.79467	-5
1.79833	-15
1.80200	-22
1.80567	-26
1.80933	-28
1.81300	-26
1.81667	-20
1.82033	-10
1.82400	-7
1.82767	-6
1.83133	-5
1.83500	-4
1.83867	-2
1.84233	-0
1.84600	-2
1.84967	0
1.85333	4
1.85700	9
1.86067	13
1.86433	9
1.86800	-2
1.87167	-15
1.87533	-27
1.87900	-36
1.88267	-38
1.88633	-33
1.89000	-24
1.89367	-8
1.89733	10
1.90100	17
1.90467	20
1.90833	21
1.91200	21
1.91567	21
1.91933	17
1.92300	12
1.92667	8
1.93033	2
1.93400	-8
1.93767	-18
1.94133	-21
1.94500	-18
1.94867	-9
1.95233	37
1.95600	362
1.95967	2293
1.96333	11066
1.96700	41366
1.97067	121199
1.97433	281660
1.97800	529989
1.98167	834074
1.98533	1137743
1.98900	1386687
1.99267	1542736
1.99633	1587825
2.00000	1522647
2.00367	1366485
2.00733	1152696
2.01100	919391
2.01467	699095
2.01833	511946
2.02200	365013
2.02567	256127
2.02933	178661
2.03300	125033
2.03667	88527
2.04033	63876
2.04400	47243
2.04767	35957
2.05133	28209
2.05500	22797
2.05867	18938
2.06233	16113
2.06600	13988
2.06967	12353
2.07333	11064
2.07700	10026
2.08067	9173
2.08433	8456
2.08800	7844
2.09167	7311
2.09533	6844
2.09900	6430
2.10267	6064
2.10633	5742
2.11000	5445
2.11367	5170
2.11733	4921
2.12100	4697
2.12467	4494
2.12833	4312
2.13200	4143
2.13567	3985
2.13933	3838
2.14300	3694
2.14667	3556
2.15033	3429
2.15400	3311
2.15767	3200
2.16133	3095
2.16500	2999
2.16867	2910
2.17233	2829
2.17600	2750
2.17967	2677
2.18333	2605
2.18700	2535
2.19067	2467
2.19433	2402
2.19800	2339
2.20167	2279
2.20533	2219
2.20900	2158
2.21267	2102
2.21633	2052
2.22000	2010
2.22367	1968
2.22733	1927
2.23100	1891
2.23467	1857
2.23833	1821
2.24200	1786
2.24567	1750
2.24933	1710
2.25300	1665
2.25667	1622
2.26033	1584
2.26400	1554
2.26767	1529
2.27133	1504
2.27500	1479
2.27867	1456
2.28233	1433
2.28600	1405
2.28967	1376
2.29333	1347
2.29700	1321
2.30067	1299
2.30433	1282
2.30800	1267
2.31167	1249
2.31533	1228
2.31900	1211
2.32267	1203
2.32633	1192
2.33000	1175
2.33367	1161
2.33733	1149
2.34100	1135
2.34467	1122
2.34833	1105
2.35200	1084
2.35567	1062
2.35933	1041
2.36300	1016
2.36667	993
2.37033	976
2.37400	960
2.37767	943
2.38133	934
2.38500	933
2.38867	937
2.39233	940
2.39600	937
2.39967	928
2.40333	918
2.40700	907
2.41067	898
2.41433	891
2.41800	882
2.42167	867
2.42533	852
2.42900	839
2.43267	827
2.43633	814
2.44000	801
2.44367	794
2.44733	794
2.45100	793
2.45467	789
2.45833	783
2.46200	779
2.46567	778
2.46933	774
2.47300	769
2.47667	767
2.48033	759
2.48400	746
2.48767	734
2.49133	726
2.49500	722
2.49867	717
2.50233	714
2.50600	712
2.50967	713
2.51333	717
2.51700	724
2.52067	729
2.52433	728
2.52800	730
2.53167	730
2.53533	724
2.53900	719
2.54267	720
2.54633	722
2.55000	715
2.55367	703
2.55733	692
2.56100	684
2.56467	680
2.56833	676
2.57200	674
2.57567	672
2.57933	661
2.58300	650
2.58667	645
2.59033	642
2.59400	640
2.59767	641
2.60133	640
2.60500	637
2.60867	634
2.61233	630
2.61600	631
2.61967	637
2.62333	637
2.62700	630
2.63067	625
2.63433	625
2.63800	626
2.64167	627
2.64533	626
2.64900	630
2.65267	635
2.65633	636
2.66000	630
2.66367	622
2.66733	611
2.67100	600
2.67467	591
2.67833	588
2.68200	590
2.68567	592
2.68933	592
2.69300	589
2.69667	586
2.70033	581
2.70400	576
2.70767	577
2.71133	581
2.71500	582
2.71867	581
2.72233	580
2.72600	576
2.72967	569
2.73333	565
2.73700	563
2.74067	563
2.74433	560
2.74800	557
2.75167	557
2.75533	557
2.75900	555
2.76267	551
2.76633	547
2.77000	542
2.77367	537
2.77733	536
2.78100	539
2.78467	544
2.78833	549
2.79200	550
2.79567	545
2.79933	539
2.80300	538
2.80667	542
2.81033	547
2.81400	548
2.81767	546
2.82133	547
2.82500	549
2.82867	548
2.83233	541
2.83600	530
2.83967	518
2.84333	509
2.84700	511
2.85067	521
2.85433	531
2.85800	538
2.86167	541
2.86533	540
2.86900	535
2.87267	526
2.87633	512
2.88000	498
2.88367	490
2.88733	488
2.89100	492
2.89467	497
2.89833	501
2.90200	509
2.90567	518
2.90933	520
2.91300	520
2.91667	521
2.92033	520
2.92400	521
2.92767	524
2.93133	526
2.93500	525
2.93867	527
2.94233	528
2.94600	528
2.94967	520
2.95333	508
2.95700	499
2.96067	494
2.96433	490
2.96800	487
2.97167	486
2.97533	485
2.97900	488
2.98267	490
2.98633	490
2.99000	491
2.99367	491
2.99733	495
3.00100	501
3.00467	506
3.00833	511
3.01200	519
3.01567	531
3.01933	540
3.02300	540
3.02667	532
3.03033	524
3.03400	515
3.03767	505
3.04133	494
3.04500	483
3.04867	477
3.05233	476
3.05600	478
3.05967	482
3.06333	487
3.06700	489
3.07067	488
3.07433	490
3.07800	496
3.08167	502
3.08533	507
3.08900	507
3.09267	504
3.09633	498
3.10000	491
3.10367	488
3.10733	486
3.11100	482
3.11467	479
3.11833	478
3.12200	478
3.12567	479
3.12933	486
3.13300	495
3.13667	500
3.14033	498
3.14400	491
3.14767	484
3.15133	473
3.15500	460
3.15867	447
3.16233	437
3.16600	430
3.16967	430
3.17333	434
3.17700	443
3.18067	454
3.18433	461
3.18800	464
3.19167	461
3.19533	457
3.19900	454
3.20267	452
3.20633	452
3.21000	453
3.21367	455
3.21733	464
3.22100	478
3.22467	491
3.22833	495
3.23200	492
3.23567	480
3.23933	465
3.24300	451
3.24667	436
3.25033	422
3.25400	415
3.25767	412
3.26133	412
3.26500	415
3.26867	421
3.27233	426
3.27600	432
3.27967	433
3.28333	428
3.28700	421
3.29067	416
3.29433	417
3.29800	421
3.30167	427
3.30533	434
3.30900	440
3.31267	444
3.31633	446
3.32000	447
3.32367	452
3.32733	452
3.33100	449
3.33467	445
3.33833	440
3.34200	436
3.34567	431
3.34933	427
3.35300	423
3.35667	423
3.36033	427
3.36400	426
3.36767	420
3.37133	413
3.37500	412
3.37867	415
3.38233	421
3.38600	426
3.38967	427
3.39333	426
3.39700	420
3.40067	414
3.40433	412
3.40800	416
3.41167	423
3.41533	429
3.41900	428
3.42267	421
3.42633	415
3.43000	410
3.43367	410
3.43733	412
3.44100	409
3.44467	405
3.44833	401
3.45200	401
3.45567	406
3.45933	411
3.46300	412
3.46667	408
3.47033	405
3.47400	402
3.47767	399
3.48133	396
3.48500	394
3.48867	393
3.49233	389
3.49600	383
3.49967	376
3.50333	372
3.50700	372
3.51067	373
3.51433	372
3.51800	374
3.52167	380
3.52533	388
3.52900	397
3.53267	401
3.53633	401
3.54000	396
3.54367	388
3.54733	381
3.55100	380
3.55467	383
3.55833	383
3.56200	383
3.56567	382
3.56933	383
3.57300	384
3.57667	379
3.58033	369
3.58400	364
3.58767	363
3.59133	362
3.59500	357
3.59867	350
3.60233	345
3.60600	341
3.60967	338
3.61333	332
3.61700	326
3.62067	326
3.62433	332
3.62800	345
3.63167	358
3.63533	368
3.63900	372
3.64267	369
3.64633	365
3.65000	364
3.65367	361
3.65733	356
3.66100	353
3.66467	351
3.66833	347
3.67200	348
3.67567	352
3.67933	351
3.68300	339
3.68667	326
3.69033	322
3.69400	329
3.69767	336
3.70133	342
3.70500	348
3.70867	354
3.71233	355
3.71600	351
3.71967	342
3.72333	333
3.72700	326
3.73067	324
3.73433	324
3.73800	329
3.74167	333
3.74533	336
3.74900	331
3.75267	323
3.75633	317
3.76000	319
3.76367	327
3.76733	333
3.77100	333
3.77467	328
3.77833	322
3.78200	320
3.78567	320
3.78933	322
3.79300	328
3.79667	331
3.80033	332
3.80400	333
3.80767	336
3.81133	342
3.81500	347
3.81867	349
3.82233	350
3.82600	348
3.82967	346
3.83333	341
3.83700	333
3.84067	325
3.84433	322
3.84800	319
3.85167	315
3.85533	313
3.85900	311
3.86267	308
3.86633	305
3.87000	300
3.87367	295
3.87733	292
3.88100	294
3.88467	290
3.88833	283
3.89200	281
3.89567	284
3.89933	290
3.90300	298
3.90667	306
3.91033	311
3.91400	310
3.91767	307
3.92133	305
3.92500	309
3.92867	312
3.93233	309
3.93600	304
3.93967	304
3.94333	307
3.94700	308
3.95067	305
3.95433	299
3.95800	295
3.96167	293
3.96533	291
3.96900	289
3.97267	287
3.97633	286
3.98000	287
3.98367	290
3.98733	290
3.99100	287
3.99467	285
3.99833	283

[Chromatogram (Ch2)]
Interval(msec)	220
# of Points	1091
Start Time(min)	0.002
End Time(min)	3.998
R.Time (min)	Intensity
0.00167	1
0.00533	2
0.00900	2
0.01267	3
0.01633	3
0.02000	3
0.02367	3
0.02733	3
0.03100	2
0.03467	2
0.03833	2
0.04200	2
0.04567	2
0.04933	2
0.05300	2
0.05667	2
0.06033	2
0.06400	2
0.06767	2
0.07133	3
0.07500	3
0.07867	4
0.08233	4
0.08600	4
0.08967	5
0.09333	5
0.09700	5
0.10067	5
0.10433	5
0.10800	5
0.11167	5
0.11533	5
0.11900	5
0.12267	5
0.12633	5
0.13000	4
0.13367	4
0.13733	4
0.14100	4
0.14467	3
0.14833	3
0.15200	3
0.15567	3
0.15933	3
0.16300	3
0.16667	4
0.17033	4
0.17400	4
0.17767	4
0.18133	4
0.18500	4
0.18867	4
0.19233	5
0.19600	5
0.19967	5
0.20333	5
0.20700	5
0.21067	5
0.21433	4
0.21800	4
0.22167	4
0.22533	4
0.22900	3
0.23267	3
0.23633	3
0.24000	3
0.24367	3
0.24733	3
0.25100	3
0.25467	3
0.25833	3
0.26200	3
0.26567	3
0.26933	3
0.27300	3
0.27667	3
0.28033	2
0.28400	2
0.28767	2
0.29133	1
0.29500	1
0.29867	1
0.30233	2
0.30600	2
0.30967	3
0.31333	3
0.31700	4
0.32067	4
0.32433	4
0.32800	4
0.33167	5
0.33533	5
0.33900	5
0.34267	4
0.34633	4
0.35000	4
0.35367	4
0.35733	4
0.36100	3
0.36467	3
0.36833	3
0.37200	3
0.37567	3
0.37933	3
0.38300	4
0.38667	4
0.39033	4
0.39400	4
0.39767	4
0.40133	4
0.40500	4
0.40867	3
0.41233	3
0.41600	3
0.41967	2
0.42333	2
0.42700	2
0.43067	2
0.43433	2
0.43800	2
0.44167	2
0.44533	2
0.44900	2
0.45267	2
0.45633	2
0.46000	2
0.46367	2
0.46733	3
0.47100	3
0.47467	3
0.47833	3
0.48200	3
0.48567	3
0.48933	3
0.49300	3
0.49667	3
0.50033	3
0.50400	4
0.50767	4
0.51133	5
0.51500	5
0.51867	5
0.52233	5
0.52600	5
0.52967	5
0.53333	5
0.53700	5
0.54067	5
0.54433	5
0.54800	5
0.55167	5
0.55533	4
0.55900	4
0.56267	4
0.56633	4
0.57000	3
0.57367	3
0.57733	3
0.58100	3
0.58467	2
0.58833	2
0.59200	2
0.59567	2
0.59933	2
0.60300	1
0.60667	1
0.61033	0
0.61400	-0
0.61767	-1
0.62133	-1
0.62500	-2
0.62867	-2
0.63233	-2
0.63600	-2
0.63967	-2
0.64333	-2
0.64700	-2
0.65067	-2
0.65433	-2
0.65800	-2
0.66167	-2
0.66533	-2
0.66900	-1
0.67267	-1
0.67633	-1
0.68000	-0
0.68367	-0
0.68733	-0
0.69100	0
0.69467	-0
0.69833	-0
0.70200	-0
0.70567	-1
0.70933	-1
0.71300	-1
0.71667	-0
0.72033	0
0.72400	1
0.72767	1
0.73133	2
0.73500	3
0.73867	3
0.74233	3
0.74600	4
0.74967	4
0.75333	4
0.75700	5
0.76067	5
0.76433	4
0.76800	4
0.77167	4
0.77533	3
0.77900	3
0.78267	3
0.78633	3
0.79000	3
0.79367	4
0.79733	4
0.80100	4
0.80467	4
0.80833	5
0.81200	5
0.81567	5
0.81933	6
0.82300	6
0.82667	5
0.83033	5
0.83400	5
0.83767	4
0.84133	3
0.84500	3
0.84867	2
0.85233	2
0.85600	1
0.85967	1
0.86333	1
0.86700	1
0.87067	0
0.87433	0
0.87800	0
0.88167	1
0.88533	1
0.88900	1
0.89267	1
0.89633	2
0.90000	2
0.90367	2
0.90733	2
0.91100	2
0.91467	2
0.91833	3
0.92200	3
0.92567	3
0.92933	4
0.93300	4
0.93667	4
0.94033	4
0.94400	4
0.94767	4
0.95133	4
0.95500	4
0.95867	4
0.96233	4
0.96600	4
0.96967	4
0.97333	4
0.97700	4
0.98067	3
0.98433	3
0.98800	3
0.99167	3
0.99533	3
0.99900	3
1.00267	2
1.00633	2
1.01000	3
1.01367	3
1.01733	3
1.02100	4
1.02467	4
1.02833	5
1.03200	5
1.03567	4
1.03933	4
1.04300	4
1.04667	4
1.05033	4
1.05400	4
1.05767	4
1.06133	4
1.06500	4
1.06867	4
1.07233	4
1.07600	4
1.07967	3
1.08333	3
1.08700	3
1.09067	3
1.09433	3
1.09800	2
1.10167	2
1.10533	2
1.10900	2
1.11267	1
1.11633	1
1.12000	1
1.12367	1
1.12733	1
1.13100	0
1.13467	0
1.13833	0
1.14200	0
1.14567	1
1.14933	1
1.15300	0
1.15667	0
1.16033	1
1.16400	0
1.16767	0
1.17133	0
1.17500	-0
1.17867	-0
1.18233	-1
1.18600	-1
1.18967	-1
1.19333	-1
1.19700	-1
1.20067	-0
1.20433	-0
1.20800	-0
1.21167	0
1.21533	0
1.21900	-0
1.22267	-0
1.22633	-0
1.23000	-0
1.23367	-0
1.23733	-1
1.24100	-1
1.24467	-2
1.24833	-2
1.25200	-2
1.25567	-2
1.25933	-2
1.26300	-2
1.26667	-2
1.27033	-1
1.27400	-1
1.27767	-0
1.28133	0
1.28500	1
1.28867	1
1.29233	1
1.29600	2
1.29967	2
1.30333	2
1.30700	3
1.31067	3
1.31433	3
1.31800	3
1.32167	3
1.32533	3
1.32900	3
1.33267	3
1.33633	3
1.34000	3
1.34367	4
1.34733	4
1.35100	4
1.35467	5
1.35833	5
1.36200	5
1.36567	5
1.36933	5
1.37300	5
1.37667	6
1.38033	6
1.38400	6
1.38767	6
1.39133	6
1.39500	6
1.39867	6
1.40233	6
1.40600	6
1.40967	6
1.41333	6
1.41700	6
1.42067	5
1.42433	5
1.42800	4
1.43167	4
1.43533	4
1.43900	4
1.44267	3
1.44633	3
1.45000	3
1.45367	3
1.45733	2
1.46100	2
1.46467	1
1.46833	1
1.47200	0
1.47567	0
1.47933	0
1.48300	-0
1.48667	-0
1.49033	-0
1.49400	-1
1.49767	-1
1.50133	-1
1.50500	-1
1.50867	-1
1.51233	-0
1.51600	0
1.51967	1
1.52333	1
1.52700	1
1.53067	2
1.53433	2
1.53800	2
1.54167	2
1.54533	2
1.54900	1
1.55267	1
1.55633	1
1.56000	1
1.56367	1
1.56733	1
1.57100	1
1.57467	1
1.57833	1
1.58200	1
1.58567	1
1.58933	1
1.59300	1
1.59667	1
1.60033	-0
1.60400	-1
1.60767	-2
1.61133	-4
1.61500	-7
1.61867	-9
1.62233	-12
1.62600	-15
1.62967	-19
1.63333	-22
1.63700	-25
1.64067	-29
1.64433	-32
1.64800	-35
1.65167	-38
1.65533	-40
1.65900	-44
1.66267	-47
1.66633	-50
1.67000	-54
1.67367	-58
1.67733	-63
1.68100	-68
1.68467	-73
1.68833	-77
1.69200	-82
1.69567	-86
1.69933	-89
1.70300	-93
1.70667	-95
1.71033	-97
1.71400	-99
1.71767	-100
1.72133	-102
1.72500	-102
1.72867	-103
1.73233	-103
1.73600	-103
1.73967	-102
1.74333	-102
1.74700	-101
1.75067	-100
1.75433	-100
1.75800	-99
1.76167	-99
1.76533	-100
1.76900	-101
1.77267	-102
1.77633	-103
1.78000	-104
1.78367	-105
1.78733	-106
1.79100	-106
1.79467	-107
1.79833	-108
1.80200	-108
1.80567	-109
1.80933	-109
1.81300	-109
1.81667	-109
1.82033	-109
1.82400	-109
1.82767	-110
1.83133	-110
1.83500	-110
1.83867	-110
1.84233	-111
1.84600	-111
1.84967	-111
1.85333	-111
1.85700	-111
1.86067	-110
1.86433	-110
1.86800	-110
1.87167	-109
1.87533	-109
1.87900	-108
1.88267	-108
1.88633	-107
1.89000	-107
1.89367	-106
1.89733	-106
1.90100	-106
1.90467	-105
1.90833	-105
1.91200	-105
1.91567	-105
1.91933	-105
1.92300	-104
1.92667	-104
1.93033	-104
1.93400	-103
1.93767	-103
1.94133	-103
1.94500	-103
1.94867	-103
1.95233	-103
1.95600	-103
1.95967	-103
1.96333	-104
1.96700	-104
1.97067	-105
1.97433	-105
1.97800	-105
1.98167	-104
1.98533	-104
1.98900	-104
1.99267	-104
1.99633	-104
2.00000	-104
2.00367	-105
2.00733	-105
2.01100	-105
2.01467	-104
2.01833	-104
2.02200	-103
2.02567	-103
2.02933	-101
2.03300	-100
2.03667	-99
2.04033	-99
2.04400	-98
2.04767	-97
2.05133	-98
2.05500	-98
2.05867	-98
2.06233	-98
2.06600	-98
2.06967	-99
2.07333	-98
2.07700	-98
2.08067	-98
2.08433	-98
2.08800	-98
2.09167	-98
2.09533	-98
2.09900	-98
2.10267	-97
2.10633	-97
2.11000	-96
2.11367	-96
2.11733	-95
2.12100	-95
2.12467	-95
2.12833	-94
2.13200	-94
2.13567	-94
2.13933	-94
2.14300	-93
2.14667	-92
2.15033	-91
2.15400	-91
2.15767	-90
2.16133	-90
2.16500	-90
2.16867	-90
2.17233	-90
2.17600	-90
2.17967	-90
2.18333	-90
2.18700	-90
2.19067	-89
2.19433	-89
2.19800	-88
2.20167	-87
2.20533	-87
2.20900	-86
2.21267	-86
2.21633	-86
2.22000	-86
2.22367	-86
2.22733	-85
2.23100	-85
2.23467	-84
2.23833	-83
2.24200	-82
2.24567	-82
2.24933	-81
2.25300	-81
2.25667	-80
2.26033	-79
2.26400	-79
2.26767	-79
2.27133	-79
2.27500	-79
2.27867	-80
2.28233	-80
2.28600	-80
2.28967	-81
2.29333	-81
2.29700	-80
2.30067	-80
2.30433	-79
2.30800	-79
2.31167	-78
2.31533	-77
2.31900	-77
2.32267	-76
2.32633	-76
2.33000	-76
2.33367	-76
2.33733	-75
2.34100	-75
2.34467	-74
2.34833	-73
2.35200	-72
2.35567	-70
2.35933	-69
2.36300	-67
2.36667	-65
2.37033	-63
2.37400	-60
2.37767	-57
2.38133	-53
2.38500	-50
2.38867	-46
2.39233	-41
2.39600	-37
2.39967	-33
2.40333	-29
2.40700	-25
2.41067	-21
2.41433	-18
2.41800	-15
2.42167	-13
2.42533	-11
2.42900	-10
2.43267	-8
2.43633	-7
2.44000	-5
2.44367	-4
2.44733	-3
2.45100	-3
2.45467	-2
2.45833	-1
2.46200	-0
2.46567	1
2.46933	1
2.47300	2
2.47667	3
2.48033	4
2.48400	5
2.48767	6
2.49133	8
2.49500	9
2.49867	10
2.50233	11
2.50600	12
2.50967	12
2.51333	13
2.51700	13
2.52067	14
2.52433	15
2.52800	15
2.53167	16
2.53533	17
2.53900	18
2.54267	18
2.54633	18
2.55000	19
2.55367	19
2.55733	19
2.56100	19
2.56467	19
2.56833	19
2.57200	19
2.57567	19
2.57933	19
2.58300	19
2.58667	19
2.59033	20
2.59400	20
2.59767	20
2.60133	20
2.60500	20
2.60867	20
2.61233	21
2.61600	21
2.61967	21
2.62333	21
2.62700	21
2.63067	21
2.63433	21
2.63800	21
2.64167	21
2.64533	20
2.64900	20
2.65267	20
2.65633	19
2.66000	20
2.66367	20
2.66733	20
2.67100	21
2.67467	21
2.67833	22
2.68200	23
2.68567	24
2.68933	25
2.69300	26
2.69667	27
2.70033	28
2.70400	29
2.70767	29
2.71133	29
2.71500	28
2.71867	28
2.72233	27
2.72600	27
2.72967	27
2.73333	27
2.73700	26
2.74067	27
2.74433	27
2.74800	27
2.75167	28
2.75533	28
2.75900	29
2.76267	29
2.76633	30
2.77000	30
2.77367	30
2.77733	31
2.78100	31
2.78467	31
2.78833	31
2.79200	31
2.79567	32
2.79933	32
2.80300	32
2.80667	31
2.81033	31
2.81400	31
2.81767	31
2.82133	30
2.82500	30
2.82867	29
2.83233	28
2.83600	27
2.83967	26
2.84333	24
2.84700	20
2.85067	14
2.85433	6
2.85800	-6
2.86167	-22
2.86533	-42
2.86900	-67
2.87267	-96
2.87633	-129
2.88000	-166
2.88367	-207
2.88733	-252
2.89100	-300
2.89467	-350
2.89833	-402
2.90200	-455
2.90567	-510
2.90933	-565
2.91300	-619
2.91667	-674
2.92033	-727
2.92400	-779
2.92767	-829
2.93133	-881
2.93500	-936
2.93867	-994
2.94233	-1045
2.94600	-1080
2.94967	-1090
2.95333	-1074
2.95700	-1035
2.96067	-978
2.96433	-907
2.96800	-830
2.97167	-749
2.97533	-670
2.97900	-593
2.98267	-521
2.98633	-455
2.99000	-395
2.99367	-341
2.99733	-293
3.00100	-250
3.00467	-213
3.00833	-180
3.01200	-152
3.01567	-127
3.01933	-106
3.02300	-88
3.02667	-72
3.03033	-59
3.03400	-47
3.03767	-37
3.04133	-29
3.04500	-22
3.04867	-16
3.05233	-11
3.05600	-7
3.05967	-3
3.06333	0
3.06700	3
3.07067	5
3.07433	7
3.07800	9
3.08167	11
3.08533	12
3.08900	13
3.09267	14
3.09633	15
3.10000	16
3.10367	17
3.10733	17
3.11100	18
3.11467	18
3.11833	18
3.12200	18
3.12567	19
3.12933	19
3.13300	19
3.13667	20
3.14033	21
3.14400	21
3.14767	22
3.15133	22
3.15500	23
3.15867	23
3.16233	23
3.16600	24
3.16967	24
3.17333	24
3.17700	25
3.18067	25
3.18433	25
3.18800	25
3.19167	25
3.19533	26
3.19900	26
3.20267	26
3.20633	26
3.21000	26
3.21367	26
3.21733	26
3.22100	27
3.22467	27
3.22833	27
3.23200	27
3.23567	27
3.23933	27
3.24300	27
3.24667	27
3.25033	27
3.25400	27
3.25767	27
3.26133	27
3.26500	27
3.26867	27
3.27233	28
3.27600	28
3.27967	28
3.28333	28
3.28700	27
3.29067	27
3.29433	27
3.29800	27
3.30167	27
3.30533	27
3.30900	27
3.31267	27
3.31633	27
3.32000	27
3.32367	27
3.32733	27
3.33100	27
3.33467	27
3.33833	28
3.34200	28
3.34567	28
3.34933	29
3.35300	29
3.35667	29
3.36033	30
3.36400	30
3.36767	30
3.37133	31
3.37500	31
3.37867	31
3.38233	31
3.38600	31
3.38967	31
3.39333	32
3.39700	32
3.40067	32
3.40433	33
3.40800	33
3.41167	33
3.41533	33
3.41900	33
3.42267	33
3.42633	33
3.43000	33
3.43367	33
3.43733	33
3.44100	33
3.44467	33
3.44833	33
3.45200	33
3.45567	33
3.45933	33
3.46300	32
3.46667	32
3.47033	32
3.47400	31
3.47767	31
3.48133	31
3.48500	31
3.48867	31
3.49233	30
3.49600	30
3.49967	30
3.50333	30
3.50700	31
3.51067	31
3.51433	31
3.51800	31
3.52167	31
3.52533	31
3.52900	31
3.53267	31
3.53633	31
3.54000	31
3.54367	31
3.54733	31
3.55100	30
3.55467	30
3.55833	30
3.56200	30
3.56567	30
3.56933	30
3.57300	30
3.57667	30
3.58033	30
3.58400	30
3.58767	31
3.59133	31
3.59500	31
3.59867	31
3.60233	31
3.60600	31
3.60967	31
3.61333	31
3.61700	31
3.62067	31
3.62433	31
3.62800	31
3.63167	31
3.63533	31
3.63900	31
3.64267	31
3.64633	31
3.65000	31
3.65367	31
3.65733	31
3.66100	31
3.66467	31
3.66833	31
3.67200	31
3.67567	31
3.67933	31
3.68300	31
3.68667	30
3.69033	30
3.69400	30
3.69767	30
3.70133	30
3.70500	30
3.70867	31
3.71233	31
3.71600	31
3.71967	31
3.72333	31
3.72700	31
3.73067	31
3.73433	31
3.73800	31
3.74167	31
3.74533	31
3.74900	31
3.75267	31
3.75633	31
3.76000	31
3.76367	31
3.76733	31
3.77100	31
3.77467	31
3.77833	30
3.78200	30
3.78567	31
3.78933	31
3.79300	31
3.79667	31
3.80033	31
3.80400	31
3.80767	31
3.81133	32
3.81500	32
3.81867	32
3.82233	32
3.82600	32
3.82967	32
3.83333	32
3.83700	32
3.84067	32
3.84433	32
3.84800	32
3.85167	31
3.85533	31
3.85900	31
3.86267	31
3.86633	31
3.87000	31
3.87367	31
3.87733	31
3.88100	31
3.88467	31
3.88833	31
3.89200	30
3.89567	31
3.89933	31
3.90300	31
3.90667	31
3.91033	31
3.91400	31
3.91767	31
3.92133	31
3.92500	31
3.92867	31
3.93233	31
3.93600	31
3.93967	31
3.94333	31
3.94700	31
3.95067	31
3.95433	31
3.95800	31
3.96167	31
3.96533	31
3.96900	31
3.97267	31
3.97633	31
3.98000	31
3.98367	31
3.98733	31
3.99100	31
3.99467	31
3.99833	31

[Chromatogram (Ch3)]
Interval(msec)	220
# of Points	1091
Start Time(min)	0.002
End Time(min)	3.998
R.Time (min)	Intensity
0.00167	0
0.00533	2
0.00900	3
0.01267	3
0.01633	4
0.02000	3
0.02367	4
0.02733	4
0.03100	4
0.03467	4
0.03833	5
0.04200	4
0.04567	2
0.04933	2
0.05300	3
0.05667	2
0.06033	3
0.06400	5
0.06767	5
0.07133	5
0.07500	4
0.07867	5
0.08233	3
0.08600	3
0.08967	3
0.09333	3
0.09700	2
0.10067	2
0.10433	3
0.10800	6
0.11167	8
0.11533	8
0.11900	5
0.12267	4
0.12633	4
0.13000	4
0.13367	4
0.13733	7
0.14100	11
0.14467	11
0.14833	10
0.15200	10
0.15567	9
0.15933	11
0.16300	13
0.16667	13
0.17033	13
0.17400	14
0.17767	12
0.18133	10
0.18500	8
0.18867	6
0.19233	7
0.19600	10
0.19967	11
0.20333	13
0.20700	13
0.21067	12
0.21433	11
0.21800	9
0.22167	8
0.22533	8
0.22900	6
0.23267	4
0.23633	4
0.24000	4
0.24367	4
0.24733	5
0.25100	7
0.25467	10
0.25833	10
0.26200	6
0.26567	2
0.26933	3
0.27300	5
0.27667	8
0.28033	9
0.28400	10
0.28767	11
0.29133	12
0.29500	12
0.29867	11
0.30233	11
0.30600	14
0.30967	17
0.31333	16
0.31700	12
0.32067	8
0.32433	5
0.32800	6
0.33167	6
0.33533	7
0.33900	8
0.34267	8
0.34633	8
0.35000	8
0.35367	9
0.35733	11
0.36100	13
0.36467	12
0.36833	9
0.37200	8
0.37567	11
0.37933	13
0.38300	12
0.38667	11
0.39033	8
0.39400	6
0.39767	4
0.40133	5
0.40500	6
0.40867	7
0.41233	9
0.41600	10
0.41967	10
0.42333	8
0.42700	8
0.43067	9
0.43433	8
0.43800	7
0.44167	7
0.44533	6
0.44900	7
0.45267	7
0.45633	10
0.46000	11
0.46367	12
0.46733	11
0.47100	10
0.47467	11
0.47833	11
0.48200	11
0.48567	9
0.48933	8
0.49300	7
0.49667	7
0.50033	7
0.50400	7
0.50767	6
0.51133	4
0.51500	4
0.51867	5
0.52233	9
0.52600	9
0.52967	11
0.53333	12
0.53700	12
0.54067	10
0.54433	8
0.54800	8
0.55167	9
0.55533	12
0.55900	13
0.56267	13
0.56633	13
0.57000	11
0.57367	9
0.57733	8
0.58100	7
0.58467	9
0.58833	9
0.59200	8
0.59567	7
0.59933	6
0.60300	8
0.60667	9
0.61033	11
0.61400	12
0.61767	12
0.62133	12
0.62500	12
0.62867	11
0.63233	10
0.63600	12
0.63967	13
0.64333	13
0.64700	13
0.65067	10
0.65433	5
0.65800	2
0.66167	1
0.66533	2
0.66900	3
0.67267	4
0.67633	5
0.68000	6
0.68367	9
0.68733	13
0.69100	15
0.69467	15
0.69833	14
0.70200	11
0.70567	9
0.70933	7
0.71300	7
0.71667	6
0.72033	2
0.72400	1
0.72767	2
0.73133	4
0.73500	3
0.73867	5
0.74233	7
0.74600	8
0.74967	6
0.75333	5
0.75700	7
0.76067	10
0.76433	11
0.76800	12
0.77167	12
0.77533	12
0.77900	12
0.78267	11
0.78633	11
0.79000	11
0.79367	13
0.79733	14
0.80100	15
0.80467	16
0.80833	18
0.81200	20
0.81567	20
0.81933	18
0.82300	16
0.82667	13
0.83033	12
0.83400	11
0.83767	11
0.84133	10
0.84500	9
0.84867	10
0.85233	10
0.85600	9
0.85967	10
0.86333	10
0.86700	10
0.87067	12
0.87433	14
0.87800	12
0.88167	9
0.88533	8
0.88900	9
0.89267	12
0.89633	14
0.90000	15
0.90367	14
0.90733	15
0.91100	16
0.91467	18
0.91833	17
0.92200	15
0.92567	13
0.92933	12
0.93300	12
0.93667	13
0.94033	14
0.94400	14
0.94767	14
0.95133	13
0.95500	11
0.95867	11
0.96233	11
0.96600	12
0.96967	14
0.97333	14
0.97700	15
0.98067	16
0.98433	16
0.98800	15
0.99167	15
0.99533	17
0.99900	18
1.00267	19
1.00633	18
1.01000	18
1.01367	19
1.01733	19
1.02100	19
1.02467	17
1.02833	15
1.03200	14
1.03567	15
1.03933	15
1.04300	13
1.04667	15
1.05033	16
1.05400	17
1.05767	18
1.06133	18
1.06500	18
1.06867	17
1.07233	18
1.07600	16
1.07967	14
1.08333	14
1.08700	15
1.09067	14
1.09433	13
1.09800	12
1.10167	11
1.10533	12
1.10900	14
1.11267	17
1.11633	18
1.12000	18
1.12367	18
1.12733	18
1.13100	19
1.13467	19
1.13833	20
1.14200	20
1.14567	21
1.14933	20
1.15300	19
1.15667	16
1.16033	16
1.16400	16
1.16767	15
1.17133	15
1.17500	17
1.17867	19
1.18233	20
1.18600	20
1.18967	18
1.19333	16
1.19700	16
1.20067	16
1.20433	17
1.20800	17
1.21167	16
1.21533	16
1.21900	17
1.22267	20
1.22633	24
1.23000	23
1.23367	21
1.23733	20
1.24100	18
1.24467	17
1.24833	18
1.25200	18
1.25567	17
1.25933	16
1.26300	16
1.26667	17
1.27033	17
1.27400	15
1.27767	13
1.28133	14
1.28500	15
1.28867	15
1.29233	14
1.29600	16
1.29967	17
1.30333	18
1.30700	20
1.31067	20
1.31433	19
1.31800	16
1.32167	14
1.32533	12
1.32900	11
1.33267	10
1.33633	9
1.34000	9
1.34367	9
1.34733	9
1.35100	11
1.35467	13
1.35833	15
1.36200	15
1.36567	16
1.36933	16
1.37300	17
1.37667	19
1.38033	23
1.38400	24
1.38767	24
1.39133	22
1.39500	25
1.39867	25
1.40233	23
1.40600	21
1.40967	21
1.41333	21
1.41700	20
1.42067	19
1.42433	18
1.42800	18
1.43167	17
1.43533	17
1.43900	17
1.44267	17
1.44633	17
1.45000	17
1.45367	17
1.45733	15
1.46100	16
1.46467	19
1.46833	22
1.47200	24
1.47567	26
1.47933	27
1.48300	26
1.48667	25
1.49033	24
1.49400	24
1.49767	23
1.50133	22
1.50500	23
1.50867	22
1.51233	22
1.51600	22
1.51967	22
1.52333	21
1.52700	19
1.53067	16
1.53433	17
1.53800	16
1.54167	14
1.54533	13
1.54900	16
1.55267	18
1.55633	18
1.56000	19
1.56367	21
1.56733	24
1.57100	23
1.57467	22
1.57833	20
1.58200	19
1.58567	16
1.58933	15
1.59300	15
1.59667	15
1.60033	16
1.60400	18
1.60767	18
1.61133	18
1.61500	17
1.61867	19
1.62233	21
1.62600	22
1.62967	22
1.63333	22
1.63700	22
1.64067	21
1.64433	21
1.64800	24
1.65167	26
1.65533	28
1.65900	28
1.66267	27
1.66633	28
1.67000	27
1.67367	25
1.67733	25
1.68100	25
1.68467	25
1.68833	27
1.69200	30
1.69567	30
1.69933	29
1.70300	28
1.70667	29
1.71033	29
1.71400	30
1.71767	29
1.72133	30
1.72500	31
1.72867	31
1.73233	31
1.73600	31
1.73967	30
1.74333	28
1.74700	27
1.75067	28
1.75433	27
1.75800	29
1.76167	32
1.76533	34
1.76900	35
1.77267	34
1.77633	35
1.78000	35
1.78367	34
1.78733	33
1.79100	31
1.79467	30
1.79833	31
1.80200	33
1.80567	33
1.80933	34
1.81300	36
1.81667	36
1.82033	35
1.82400	34
1.82767	35
1.83133	37
1.83500	37
1.83867	37
1.84233	38
1.84600	39
1.84967	36
1.85333	37
1.85700	36
1.86067	35
1.86433	38
1.86800	39
1.87167	39
1.87533	40
1.87900	41
1.88267	42
1.88633	43
1.89000	44
1.89367	43
1.89733	43
1.90100	44
1.90467	44
1.90833	44
1.91200	45
1.91567	45
1.91933	45
1.92300	44
1.92667	44
1.93033	47
1.93400	47
1.93767	49
1.94133	49
1.94500	50
1.94867	50
1.95233	49
1.95600	49
1.95967	48
1.96333	48
1.96700	52
1.97067	55
1.97433	59
1.97800	61
1.98167	62
1.98533	61
1.98900	61
1.99267	61
1.99633	61
2.00000	61
2.00367	63
2.00733	67
2.01100	70
2.01467	71
2.01833	72
2.02200	72
2.02567	71
2.02933	73
2.03300	76
2.03667	77
2.04033	79
2.04400	80
2.04767	79
2.05133	80
2.05500	82
2.05867	84
2.06233	87
2.06600	89
2.06967	91
2.07333	92
2.07700	92
2.08067	90
2.08433	91
2.08800	91
2.09167	91
2.09533	91
2.09900	92
2.10267	95
2.10633	96
2.11000	97
2.11367	98
2.11733	99
2.12100	101
2.12467	100
2.12833	102
2.13200	105
2.13567	105
2.13933	105
2.14300	106
2.14667	105
2.15033	107
2.15400	108
2.15767	110
2.16133	109
2.16500	111
2.16867	112
2.17233	115
2.17600	116
2.17967	117
2.18333	116
2.18700	120
2.19067	125
2.19433	129
2.19800	128
2.20167	127
2.20533	127
2.20900	128
2.21267	130
2.21633	131
2.22000	129
2.22367	129
2.22733	131
2.23100	134
2.23467	138
2.23833	143
2.24200	146
2.24567	146
2.24933	145
2.25300	146
2.25667	148
2.26033	150
2.26400	151
2.26767	153
2.27133	155
2.27500	158
2.27867	158
2.28233	159
2.28600	160
2.28967	163
2.29333	164
2.29700	163
2.30067	165
2.30433	168
2.30800	170
2.31167	171
2.31533	173
2.31900	175
2.32267	179
2.32633	181
2.33000	182
2.33367	184
2.33733	187
2.34100	188
2.34467	189
2.34833	191
2.35200	192
2.35567	192
2.35933	194
2.36300	197
2.36667	200
2.37033	202
2.37400	203
2.37767	206
2.38133	208
2.38500	208
2.38867	206
2.39233	207
2.39600	211
2.39967	215
2.40333	219
2.40700	221
2.41067	226
2.41433	230
2.41800	234
2.42167	237
2.42533	242
2.42900	248
2.43267	251
2.43633	251
2.44000	255
2.44367	303
2.44733	432
2.45100	571
2.45467	683
2.45833	750
2.46200	758
2.46567	729
2.46933	693
2.47300	664
2.47667	647
2.48033	639
2.48400	624
2.48767	596
2.49133	559
2.49500	519
2.49867	485
2.50233	458
2.50600	441
2.50967	430
2.51333	428
2.51700	433
2.52067	444
2.52433	459
2.52800	479
2.53167	496
2.53533	505
2.53900	502
2.54267	492
2.54633	475
2.55000	452
2.55367	429
2.55733	407
2.56100	387
2.56467	372
2.56833	360
2.57200	351
2.57567	343
2.57933	337
2.58300	334
2.58667	332
2.59033	333
2.59400	331
2.59767	325
2.60133	312
2.60500	296
2.60867	277
2.61233	254
2.61600	229
2.61967	205
2.62333	186
2.62700	171
2.63067	159
2.63433	154
2.63800	155
2.64167	159
2.64533	164
2.64900	171
2.65267	176
2.65633	182
2.66000	188
2.66367	195
2.66733	197
2.67100	195
2.67467	193
2.67833	190
2.68200	186
2.68567	183
2.68933	180
2.69300	175
2.69667	170
2.70033	167
2.70400	166
2.70767	164
2.71133	162
2.71500	163
2.71867	165
2.72233	166
2.72600	167
2.72967	168
2.73333	170
2.73700	172
2.74067	174
2.74433	178
2.74800	181
2.75167	183
2.75533	185
2.75900	188
2.76267	190
2.76633	189
2.77000	189
2.77367	189
2.77733	187
2.78100	185
2.78467	185
2.78833	187
2.79200	191
2.79567	194
2.79933	194
2.80300	194
2.80667	197
2.81033	199
2.81400	199
2.81767	204
2.82133	215
2.82500	241
2.82867	290
2.83233	383
2.83600	544
2.83967	797
2.84333	1156
2.84700	1621
2.85067	2182
2.85433	2802
2.85800	3433
2.86167	4023
2.86533	4529
2.86900	4914
2.87267	5151
2.87633	5235
2.88000	5178
2.88367	5004
2.88733	4741
2.89100	4419
2.89467	4065
2.89833	3696
2.90200	3332
2.90567	2987
2.90933	2669
2.91300	2375
2.91667	2109
2.92033	1872
2.92400	1662
2.92767	1477
2.93133	1314
2.93500	1171
2.93867	1045
2.94233	936
2.94600	840
2.94967	760
2.95333	690
2.95700	625
2.96067	570
2.96433	524
2.96800	481
2.97167	445
2.97533	418
2.97900	393
2.98267	369
2.98633	346
2.99000	327
2.99367	309
2.99733	292
3.00100	277
3.00467	264
3.00833	254
3.01200	246
3.01567	240
3.01933	234
3.02300	228
3.02667	221
3.03033	213
3.03400	206
3.03767	201
3.04133	198
3.04500	194
3.04867	189
3.05233	184
3.05600	179
3.05967	174
3.06333	171
3.06700	171
3.07067	169
3.07433	166
3.07800	166
3.08167	168
3.08533	170
3.08900	168
3.09267	165
3.09633	164
3.10000	164
3.10367	161
3.10733	159
3.11100	157
3.11467	156
3.11833	155
3.12200	153
3.12567	152
3.12933	151
3.13300	150
3.13667	150
3.14033	149
3.14400	149
3.14767	149
3.15133	147
3.15500	147
3.15867	148
3.16233	148
3.16600	148
3.16967	146
3.17333	147
3.17700	150
3.18067	152
3.18433	153
3.18800	155
3.19167	156
3.19533	157
3.19900	156
3.20267	155
3.20633	156
3.21000	156
3.21367	153
3.21733	153
3.22100	154
3.22467	153
3.22833	147
3.23200	141
3.23567	141
3.23933	150
3.24300	165
3.24667	186
3.25033	212
3.25400	241
3.25767	268
3.26133	296
3.26500	324
3.26867	352
3.27233	376
3.27600	398
3.27967	422
3.28333	445
3.28700	462
3.29067	476
3.29433	491
3.29800	505
3.30167	515
3.30533	524
3.30900	532
3.31267	540
3.31633	547
3.32000	553
3.32367	558
3.32733	564
3.33100	570
3.33467	577
3.33833	582
3.34200	586
3.34567	591
3.34933	594
3.35300	596
3.35667	597
3.36033	599
3.36400	603
3.36767	606
3.37133	609
3.37500	611
3.37867	612
3.38233	614
3.38600	615
3.38967	617
3.39333	619
3.39700	621
3.40067	625
3.40433	631
3.40800	632
3.41167	632
3.41533	632
3.41900	633
3.42267	636
3.42633	638
3.43000	639
3.43367	641
3.43733	644
3.44100	646
3.44467	646
3.44833	646
3.45200	645
3.45567	648
3.45933	649
3.46300	648
3.46667	647
3.47033	646
3.47400	646
3.47767	645
3.48133	645
3.48500	642
3.48867	639
3.49233	636
3.49600	635
3.49967	635
3.50333	636
3.50700	636
3.51067	635
3.51433	634
3.51800	633
3.52167	633
3.52533	633
3.52900	631
3.53267	626
3.53633	623
3.54000	623
3.54367	622
3.54733	620
3.55100	619
3.55467	618
3.55833	616
3.56200	615
3.56567	614
3.56933	615
3.57300	614
3.57667	614
3.58033	614
3.58400	616
3.58767	615
3.59133	614
3.59500	612
3.59867	610
3.60233	608
3.60600	606
3.60967	605
3.61333	605
3.61700	604
3.62067	601
3.62433	597
3.62800	596
3.63167	594
3.63533	589
3.63900	587
3.64267	587
3.64633	589
3.65000	590
3.65367	591
3.65733	589
3.66100	587
3.66467	588
3.66833	588
3.67200	588
3.67567	585
3.67933	584
3.68300	586
3.68667	586
3.69033	585
3.69400	587
3.69767	588
3.70133	588
3.70500	586
3.70867	586
3.71233	587
3.71600	587
3.71967	585
3.72333	582
3.72700	582
3.73067	581
3.73433	581
3.73800	583
3.74167	585
3.74533	585
3.74900	586
3.75267	585
3.75633	581
3.76000	578
3.76367	577
3.76733	578
3.77100	579
3.77467	581
3.77833	583
3.78200	582
3.78567	581
3.78933	581
3.79300	582
3.79667	584
3.80033	585
3.80400	585
3.80767	585
3.81133	584
3.81500	584
3.81867	583
3.82233	582
3.82600	581
3.82967	581
3.83333	579
3.83700	576
3.84067	575
3.84433	577
3.84800	577
3.85167	577
3.85533	576
3.85900	577
3.86267	578
3.86633	577
3.87000	576
3.87367	574
3.87733	571
3.88100	571
3.88467	570
3.88833	567
3.89200	566
3.89567	565
3.89933	565
3.90300	565
3.90667	563
3.91033	561
3.91400	560
3.91767	561
3.92133	559
3.92500	555
3.92867	552
3.93233	553
3.93600	556
3.93967	557
3.94333	554
3.94700	550
3.95067	547
3.95433	544
3.95800	544
3.96167	543
3.96533	542
3.96900	541
3.97267	541
3.97633	540
3.98000	538
3.98367	535
3.98733	532
3.99100	531
3.99467	528
3.99833	524

[Status Trace (Column Oven Temperature)]
Interval(msec)	1000
# of Points	240
Start Time(min)	0.006
End Time(min)	3.989
Intensity Units	
Intensity Multiplier	1
R.Time (min)	Intensity
0.00595	35.05
0.02262	35.04
0.03928	35.04
0.05595	35.04
0.07262	35.04
0.08928	35.03
0.10595	35.02
0.12262	35.03
0.13928	35.03
0.15595	35.04
0.17262	35.03
0.18928	35.02
0.20595	35.02
0.22262	35.02
0.23928	35.02
0.25595	35.03
0.27262	35.03
0.28928	35.03
0.30595	35.02
0.32262	35.01
0.33928	35.00
0.35595	35.00
0.37262	35.00
0.38928	34.99
0.40595	34.99
0.42262	35.01
0.43928	35.01
0.45595	35.00
0.47262	34.98
0.48928	34.99
0.50595	34.98
0.52262	34.97
0.53928	34.95
0.55595	34.96
0.57262	34.97
0.58928	34.97
0.60595	34.99
0.62262	35.01
0.63928	35.01
0.65595	35.03
0.67262	35.04
0.68928	35.05
0.70595	35.06
0.72262	35.05
0.73928	35.03
0.75595	35.02
0.77262	35.02
0.78928	35.01
0.80595	35.00
0.82262	34.99
0.83928	34.99
0.85595	35.00
0.87262	35.01
0.88928	35.00
0.90595	34.99
0.92262	34.99
0.93928	34.98
0.95595	34.97
0.97262	34.97
0.98928	34.98
1.00595	34.97
1.02262	34.96
1.03928	34.96
1.05595	34.96
1.07262	34.95
1.08928	34.94
1.10595	34.95
1.12262	34.95
1.13928	34.96
1.15595	34.97
1.17262	34.99
1.18928	35.00
1.20595	35.00
1.22262	35.01
1.23928	35.03
1.25595	35.04
1.27262	35.05
1.28928	35.05
1.30595	35.04
1.32262	35.03
1.33928	35.01
1.35595	35.00
1.37262	34.99
1.38928	34.97
1.40595	34.96
1.42262	34.97
1.43928	34.97
1.45595	34.98
1.47262	34.99
1.48928	35.00
1.50595	35.01
1.52262	35.00
1.53928	35.01
1.55595	35.01
1.57262	35.02
1.58928	35.02
1.60595	35.08
1.62262	35.21
1.63928	35.38
1.65595	35.61
1.67262	35.93
1.68928	36.30
1.70595	36.67
1.72262	37.01
1.73928	37.32
1.75595	37.61
1.77262	37.96
1.78928	38.30
1.80595	38.63
1.82262	38.96
1.83928	39.30
1.85595	39.63
1.87262	39.96
1.88928	40.28
1.90595	40.60
1.92262	40.90
1.93928	41.22
1.95595	41.56
1.97262	41.90
1.98928	42.23
2.00595	42.57
2.02262	42.89
2.03928	43.20
2.05595	43.53
2.07262	43.86
2.08928	44.19
2.10595	44.52
2.12262	44.85
2.13928	45.17
2.15595	45.50
2.17262	45.85
2.18928	46.17
2.20595	46.50
2.22262	46.84
2.23928	47.15
2.25595	47.48
2.27262	47.80
2.28928	48.15
2.30595	48.46
2.32262	48.79
2.33928	49.12
2.35595	49.41
2.37262	49.59
2.38928	49.66
2.40595	49.64
2.42262	49.65
2.43928	49.65
2.45595	49.66
2.47262	49.69
2.48928	49.69
2.50595	49.71
2.52262	49.72
2.53928	49.73
2.55595	49.74
2.57262	49.76
2.58928	49.76
2.60595	49.77
2.62262	49.79
2.63928	49.81
2.65595	49.85
2.67262	49.87
2.68928	49.85
2.70595	49.84
2.72262	49.87
2.73928	49.88
2.75595	49.88
2.77262	49.86
2.78928	49.85
2.80595	49.85
2.82262	49.88
2.83928	49.89
2.85595	49.91
2.87262	49.93
2.88928	49.95
2.90595	49.95
2.92262	49.96
2.93928	49.96
2.95595	49.97
2.97262	49.97
2.98928	49.98
3.00595	49.98
3.02262	49.98
3.03928	49.99
3.05595	50.00
3.07262	50.01
3.08928	50.01
3.10595	50.03
3.12262	50.05
3.13928	50.05
3.15595	50.05
3.17262	50.05
3.18928	50.05
3.20595	50.06
3.22262	50.06
3.23928	50.06
3.25595	50.06
3.27262	50.07
3.28928	50.08
3.30595	50.09
3.32262	50.10
3.33928	50.11
3.35595	50.10
3.37262	50.10
3.38928	50.09
3.40595	50.07
3.42262	50.06
3.43928	50.05
3.45595	50.05
3.47262	50.05
3.48928	50.06
3.50595	50.05
3.52262	50.06
3.53928	50.06
3.55595	50.07
3.57262	50.08
3.58928	50.09
3.60595	50.09
3.62262	50.09
3.63928	50.09
3.65595	50.09
3.67262	50.09
3.68928	50.09
3.70595	50.09
3.72262	50.09
3.73928	50.09
3.75595	50.08
3.77262	50.09
3.78928	50.09
3.80595	50.08
3.82262	50.06
3.83928	50.06
3.85595	50.07
3.87262	50.07
3.88928	50.07
3.90595	50.06
3.92262	50.06
3.93928	50.06
3.95595	50.06
3.97262	50.06
3.98928	50.06

[Status Trace (Injection Unit Temperature)]
Interval(msec)	1000
# of Points	240
Start Time(min)	0.006
End Time(min)	3.989
Intensity Units	
Intensity Multiplier	1
R.Time (min)	Intensity
0.00595	99.98
0.02262	99.98
0.03928	99.98
0.05595	99.98
0.07262	99.98
0.08928	99.98
0.10595	99.98
0.12262	99.98
0.13928	99.98
0.15595	99.98
0.17262	99.99
0.18928	99.98
0.20595	99.99
0.22262	99.98
0.23928	99.98
0.25595	99.98
0.27262	99.98
0.28928	99.98
0.30595	99.98
0.32262	99.98
0.33928	99.98
0.35595	99.98
0.37262	99.98
0.38928	99.98
0.40595	99.98
0.42262	99.98
0.43928	99.98
0.45595	99.98
0.47262	99.98
0.48928	99.98
0.50595	99.98
0.52262	99.97
0.53928	99.98
0.55595	99.97
0.57262	99.98
0.58928	99.98
0.60595	99.98
0.62262	99.98
0.63928	99.98
0.65595	99.98
0.67262	99.98
0.68928	99.98
0.70595	99.98
0.72262	99.98
0.73928	99.98
0.75595	99.98
0.77262	99.97
0.78928	99.98
0.80595	99.98
0.82262	99.98
0.83928	99.97
0.85595	99.98
0.87262	99.98
0.88928	99.98
0.90595	99.98
0.92262	99.97
0.93928	99.98
0.95595	99.98
0.97262	99.98
0.98928	99.98
1.00595	99.98
1.02262	99.98
1.03928	99.98
1.05595	99.98
1.07262	99.98
1.08928	99.98
1.10595	99.98
1.12262	99.98
1.13928	99.98
1.15595	99.98
1.17262	99.98
1.18928	99.98
1.20595	99.98
1.22262	99.98
1.23928	99.98
1.25595	99.98
1.27262	99.98
1.28928	99.98
1.30595	99.98
1.32262	99.98
1.33928	99.98
1.35595	99.98
1.37262	99.98
1.38928	99.98
1.40595	99.98
1.42262	99.98
1.43928	99.98
1.45595	99.98
1.47262	99.98
1.48928	99.98
1.50595	99.98
1.52262	99.98
1.53928	99.98
1.55595	99.99
1.57262	99.98
1.58928	99.99
1.60595	99.99
1.62262	99.99
1.63928	99.99
1.65595	99.98
1.67262	99.99
1.68928	99.98
1.70595	99.99
1.72262	99.98
1.73928	99.98
1.75595	99.98
1.77262	99.98
1.78928	99.98
1.80595	99.99
1.82262	99.98
1.83928	99.98
1.85595	99.98
1.87262	99.98
1.88928	99.98
1.90595	99.98
1.92262	99.98
1.93928	99.98
1.95595	99.98
1.97262	99.98
1.98928	99.98
2.00595	99.98
2.02262	99.98
2.03928	99.98
2.05595	99.98
2.07262	99.97
2.08928	99.97
2.10595	99.97
2.12262	99.97
2.13928	99.97
2.15595	99.97
2.17262	99.96
2.18928	99.97
2.20595	99.97
2.22262	99.96
2.23928	99.96
2.25595	99.96
2.27262	99.96
2.28928	99.96
2.30595	99.96
2.32262	99.96
2.33928	99.96
2.35595	99.96
2.37262	99.96
2.38928	99.96
2.40595	99.95
2.42262	99.96
2.43928	99.96
2.45595	99.97
2.47262	99.96
2.48928	99.97
2.50595	99.97
2.52262	99.97
2.53928	99.96
2.55595	99.97
2.57262	99.97
2.58928	99.97
2.60595	99.97
2.62262	99.97
2.63928	99.97
2.65595	99.98
2.67262	99.98
2.68928	99.98
2.70595	99.98
2.72262	99.98
2.73928	99.99
2.75595	99.98
2.77262	99.99
2.78928	99.99
2.80595	99.99
2.82262	100.00
2.83928	100.00
2.85595	100.00
2.87262	100.00
2.88928	100.00
2.90595	100.00
2.92262	100.00
2.93928	100.00
2.95595	100.01
2.97262	100.01
2.98928	100.01
3.00595	100.01
3.02262	100.01
3.03928	100.01
3.05595	100.01
3.07262	100.02
3.08928	100.02
3.10595	100.02
3.12262	100.02
3.13928	100.02
3.15595	100.03
3.17262	100.03
3.18928	100.02
3.20595	100.02
3.22262	100.03
3.23928	100.02
3.25595	100.03
3.27262	100.03
3.28928	100.03
3.30595	100.03
3.32262	100.03
3.33928	100.03
3.35595	100.03
3.37262	100.03
3.38928	100.03
3.40595	100.03
3.42262	100.04
3.43928	100.03
3.45595	100.04
3.47262	100.04
3.48928	100.04
3.50595	100.04
3.52262	100.04
3.53928	100.04
3.55595	100.04
3.57262	100.04
3.58928	100.04
3.60595	100.04
3.62262	100.05
3.63928	100.04
3.65595	100.04
3.67262	100.03
3.68928	100.05
3.70595	100.04
3.72262	100.04
3.73928	100.05
3.75595	100.05
3.77262	100.04
3.78928	100.04
3.80595	100.04
3.82262	100.05
3.83928	100.05
3.85595	100.05
3.87262	100.05
3.88928	100.05
3.90595	100.04
3.92262	100.05
3.93928	100.05
3.95595	100.05
3.97262	100.05
3.98928	100.05

[Status Trace (Carrier Gas Pressure)]
Interval(msec)	1000
# of Points	240
Start Time(min)	0.006
End Time(min)	3.989
Intensity Units	
Intensity Multiplier	1
R.Time (min)	Intensity
0.00595	58.00
0.02262	55.66
0.03928	56.89
0.05595	58.98
0.07262	59.63
0.08928	58.11
0.10595	57.97
0.12262	58.01
0.13928	58.01
0.15595	58.01
0.17262	58.00
0.18928	58.00
0.20595	58.00
0.22262	58.00
0.23928	58.00
0.25595	58.00
0.27262	58.00
0.28928	58.00
0.30595	58.00
0.32262	58.00
0.33928	58.00
0.35595	58.00
0.37262	58.00
0.38928	58.00
0.40595	58.00
0.42262	58.00
0.43928	58.00
0.45595	58.00
0.47262	58.00
0.48928	58.00
0.50595	58.00
0.52262	58.00
0.53928	58.00
0.55595	58.00
0.57262	58.00
0.58928	58.00
0.60595	58.00
0.62262	58.00
0.63928	58.00
0.65595	58.00
0.67262	58.00
0.68928	58.00
0.70595	58.00
0.72262	58.00
0.73928	58.00
0.75595	58.00
0.77262	58.00
0.78928	58.00
0.80595	58.00
0.82262	58.00
0.83928	58.00
0.85595	58.00
0.87262	58.00
0.88928	58.00
0.90595	58.00
0.92262	58.00
0.93928	58.00
0.95595	58.00
0.97262	58.00
0.98928	58.00
1.00595	58.00
1.02262	58.00
1.03928	58.00
1.05595	58.00
1.07262	58.00
1.08928	58.00
1.10595	58.00
1.12262	58.00
1.13928	58.00
1.15595	58.00
1.17262	58.00
1.18928	58.00
1.20595	58.00
1.22262	58.00
1.23928	58.00
1.25595	58.00
1.27262	58.00
1.28928	58.00
1.30595	58.00
1.32262	58.00
1.33928	58.00
1.35595	58.00
1.37262	58.00
1.38928	58.00
1.40595	58.00
1.42262	58.00
1.43928	58.00
1.45595	58.00
1.47262	58.00
1.48928	58.00
1.50595	58.00
1.52262	58.00
1.53928	58.00
1.55595	58.00
1.57262	58.00
1.58928	58.00
1.60595	58.00
1.62262	58.01
1.63928	58.00
1.65595	58.00
1.67262	58.01
1.68928	58.01
1.70595	58.00
1.72262	58.00
1.73928	58.00
1.75595	58.00
1.77262	58.00
1.78928	58.00
1.80595	58.00
1.82262	58.00
1.83928	58.00
1.85595	58.00
1.87262	58.00
1.88928	58.00
1.90595	58.00
1.92262	58.00
1.93928	58.00
1.95595	58.00
1.97262	58.00
1.98928	58.00
2.00595	58.00
2.02262	58.00
2.03928	58.00
2.05595	58.00
2.07262	58.00
2.08928	58.00
2.10595	58.00
2.12262	58.00
2.13928	58.00
2.15595	58.00
2.17262	58.00
2.18928	58.00
2.20595	58.00
2.22262	58.00
2.23928	58.00
2.25595	58.00
2.27262	58.00
2.28928	58.00
2.30595	58.00
2.32262	58.00
2.33928	58.00
2.35595	58.00
2.37262	58.00
2.38928	57.99
2.40595	57.99
2.42262	58.00
2.43928	58.00
2.45595	58.00
2.47262	58.00
2.48928	58.00
2.50595	57.99
2.52262	57.99
2.53928	58.00
2.55595	58.00
2.57262	58.00
2.58928	58.00
2.60595	58.00
2.62262	58.00
2.63928	58.00
2.65595	58.00
2.67262	58.00
2.68928	58.00
2.70595	58.00
2.72262	58.00
2.73928	58.00
2.75595	58.00
2.77262	58.00
2.78928	58.00
2.80595	58.00
2.82262	58.00
2.83928	58.00
2.85595	58.00
2.87262	58.00
2.88928	58.00
2.90595	58.00
2.92262	58.00
2.93928	58.00
2.95595	58.00
2.97262	58.00
2.98928	58.00
3.00595	58.00
3.02262	58.00
3.03928	58.00
3.05595	58.00
3.07262	58.00
3.08928	58.00
3.10595	58.00
3.12262	58.00
3.13928	58.00
3.15595	58.00
3.17262	58.00
3.18928	58.00
3.20595	58.00
3.22262	58.00
3.23928	58.00
3.25595	58.00
3.27262	58.00
3.28928	58.00
3.30595	58.00
3.32262	58.00
3.33928	58.00
3.35595	58.00
3.37262	58.00
3.38928	58.00
3.40595	58.00
3.42262	58.00
3.43928	58.00
3.45595	58.00
3.47262	58.00
3.48928	58.00
3.50595	58.00
3.52262	58.00
3.53928	58.00
3.55595	58.00
3.57262	58.00
3.58928	58.00
3.60595	58.00
3.62262	58.00
3.63928	58.00
3.65595	58.00
3.67262	58.00
3.68928	58.00
3.70595	58.00
3.72262	58.00
3.73928	58.00
3.75595	58.00
3.77262	58.00
3.78928	58.00
3.80595	58.00
3.82262	58.00
3.83928	58.00
3.85595	58.00
3.87262	58.00
3.88928	58.00
3.90595	58.00
3.92262	58.00
3.93928	58.00
3.95595	58.00
3.97262	58.00
3.98928	58.00

[Status Trace (Carrier Gas Flow)]
Interval(msec)	1000
# of Points	240
Start Time(min)	0.006
End Time(min)	3.989
Intensity Units	
Intensity Multiplier	1
R.Time (min)	Intensity
0.00595	34.52
0.02262	34.54
0.03928	34.55
0.05595	34.55
0.07262	34.50
0.08928	34.51
0.10595	34.52
0.12262	34.51
0.13928	34.52
0.15595	34.52
0.17262	34.52
0.18928	34.52
0.20595	34.52
0.22262	34.52
0.23928	34.52
0.25595	34.52
0.27262	34.52
0.28928	34.52
0.30595	34.52
0.32262	34.52
0.33928	34.52
0.35595	34.52
0.37262	34.52
0.38928	34.52
0.40595	34.52
0.42262	34.52
0.43928	34.52
0.45595	34.52
0.47262	34.52
0.48928	34.52
0.50595	34.52
0.52262	34.52
0.53928	34.52
0.55595	34.52
0.57262	34.52
0.58928	34.52
0.60595	34.52
0.62262	34.52
0.63928	34.52
0.65595	34.52
0.67262	34.52
0.68928	34.52
0.70595	34.51
0.72262	34.52
0.73928	34.52
0.75595	34.52
0.77262	34.52
0.78928	34.52
0.80595	34.52
0.82262	34.52
0.83928	34.52
0.85595	34.52
0.87262	34.52
0.88928	34.52
0.90595	34.52
0.92262	34.52
0.93928	34.52
0.95595	34.52
0.97262	34.52
0.98928	34.52
1.00595	34.52
1.02262	34.52
1.03928	34.52
1.05595	34.52
1.07262	34.52
1.08928	34.52
1.10595	34.52
1.12262	34.52
1.13928	34.52
1.15595	34.52
1.17262	34.52
1.18928	34.52
1.20595	34.52
1.22262	34.52
1.23928	34.52
1.25595	34.51
1.27262	34.52
1.28928	34.52
1.30595	34.52
1.32262	34.52
1.33928	34.52
1.35595	34.52
1.37262	34.52
1.38928	34.52
1.40595	34.52
1.42262	34.52
1.43928	34.52
1.45595	34.52
1.47262	34.52
1.48928	34.52
1.50595	34.52
1.52262	34.51
1.53928	34.52
1.55595	34.52
1.57262	34.52
1.58928	34.52
1.60595	34.52
1.62262	34.52
1.63928	34.52
1.65595	34.51
1.67262	34.51
1.68928	34.52
1.70595	34.52
1.72262	34.52
1.73928	34.51
1.75595	34.52
1.77262	34.52
1.78928	34.51
1.80595	34.52
1.82262	34.52
1.83928	34.52
1.85595	34.51
1.87262	34.52
1.88928	34.52
1.90595	34.52
1.92262	34.52
1.93928	34.52
1.95595	34.52
1.97262	34.52
1.98928	34.52
2.00595	34.51
2.02262	34.52
2.03928	34.52
2.05595	34.52
2.07262	34.52
2.08928	34.51
2.10595	34.52
2.12262	34.52
2.13928	34.52
2.15595	34.52
2.17262	34.52
2.18928	34.52
2.20595	34.52
2.22262	34.52
2.23928	34.51
2.25595	34.52
2.27262	34.52
2.28928	34.52
2.30595	34.52
2.32262	34.52
2.33928	34.52
2.35595	34.52
2.37262	34.52
2.38928	34.52
2.40595	34.53
2.42262	34.52
2.43928	34.52
2.45595	34.52
2.47262	34.52
2.48928	34.52
2.50595	34.51
2.52262	34.52
2.53928	34.52
2.55595	34.52
2.57262	34.52
2.58928	34.51
2.60595	34.52
2.62262	34.52
2.63928	34.52
2.65595	34.52
2.67262	34.52
2.68928	34.52
2.70595	34.52
2.72262	34.52
2.73928	34.52
2.75595	34.52
2.77262	34.52
2.78928	34.52
2.80595	34.52
2.82262	34.52
2.83928	34.52
2.85595	34.52
2.87262	34.52
2.88928	34.52
2.90595	34.52
2.92262	34.52
2.93928	34.52
2.95595	34.52
2.97262	34.52
2.98928	34.52
3.00595	34.52
3.02262	34.52
3.03928	34.52
3.05595	34.52
3.07262	34.52
3.08928	34.52
3.10595	34.52
3.12262	34.52
3.13928	34.52
3.15595	34.52
3.17262	34.52
3.18928	34.52
3.20595	34.52
3.22262	34.52
3.23928	34.51
3.25595	34.52
3.27262	34.52
3.28928	34.52
3.30595	34.52
3.32262	34.52
3.33928	34.53
3.35595	34.52
3.37262	34.52
3.38928	34.52
3.40595	34.52
3.42262	34.52
3.43928	34.52
3.45595	34.52
3.47262	34.52
3.48928	34.52
3.50595	34.52
3.52262	34.51
3.53928	34.52
3.55595	34.52
3.57262	34.52
3.58928	34.52
3.60595	34.52
3.62262	34.52
3.63928	34.52
3.65595	34.52
3.67262	34.52
3.68928	34.52
3.70595	34.52
3.72262	34.51
3.73928	34.52
3.75595	34.52
3.77262	34.52
3.78928	34.52
3.80595	34.52
3.82262	34.52
3.83928	34.52
3.85595	34.52
3.87262	34.51
3.88928	34.52
3.90595	34.52
3.92262	34.52
3.93928	34.52
3.95595	34.52
3.97262	34.52
3.98928	34.52

[Status Trace (Column Flow)]
Interval(msec)	1000
# of Points	240
Start Time(min)	0.006
End Time(min)	3.989
Intensity Units	
Intensity Multiplier	1
R.Time (min)	Intensity
0.00595	5.51
0.02262	5.24
0.03928	5.39
0.05595	5.63
0.07262	5.71
0.08928	5.53
0.10595	5.51
0.12262	5.52
0.13928	5.52
0.15595	5.52
0.17262	5.52
0.18928	5.52
0.20595	5.52
0.22262	5.52
0.23928	5.52
0.25595	5.52
0.27262	5.51
0.28928	5.51
0.30595	5.51
0.32262	5.52
0.33928	5.52
0.35595	5.52
0.37262	5.52
0.38928	5.52
0.40595	5.52
0.42262	5.52
0.43928	5.52
0.45595	5.52
0.47262	5.52
0.48928	5.52
0.50595	5.52
0.52262	5.52
0.53928	5.52
0.55595	5.52
0.57262	5.52
0.58928	5.52
0.60595	5.52
0.62262	5.52
0.63928	5.52
0.65595	5.51
0.67262	5.51
0.68928	5.51
0.70595	5.51
0.72262	5.51
0.73928	5.51
0.75595	5.52
0.77262	5.52
0.78928	5.52
0.80595	5.52
0.82262	5.52
0.83928	5.52
0.85595	5.52
0.87262	5.52
0.88928	5.52
0.90595	5.52
0.92262	5.52
0.93928	5.52
0.95595	5.52
0.97262	5.52
0.98928	5.52
1.00595	5.52
1.02262	5.52
1.03928	5.52
1.05595	5.52
1.07262	5.52
1.08928	5.52
1.10595	5.52
1.12262	5.52
1.13928	5.52
1.15595	5.52
1.17262	5.52
1.18928	5.52
1.20595	5.52
1.22262	5.52
1.23928	5.51
1.25595	5.51
1.27262	5.51
1.28928	5.51
1.30595	5.51
1.32262	5.51
1.33928	5.52
1.35595	5.52
1.37262	5.52
1.38928	5.52
1.40595	5.52
1.42262	5.52
1.43928	5.52
1.45595	5.52
1.47262	5.52
1.48928	5.52
1.50595	5.51
1.52262	5.52
1.53928	5.52
1.55595	5.52
1.57262	5.51
1.58928	5.51
1.60595	5.51
1.62262	5.51
1.63928	5.50
1.65595	5.50
1.67262	5.49
1.68928	5.48
1.70595	5.46
1.72262	5.45
1.73928	5.44
1.75595	5.44
1.77262	5.42
1.78928	5.41
1.80595	5.40
1.82262	5.39
1.83928	5.38
1.85595	5.37
1.87262	5.36
1.88928	5.35
1.90595	5.34
1.92262	5.33
1.93928	5.32
1.95595	5.32
1.97262	5.30
1.98928	5.30
2.00595	5.29
2.02262	5.28
2.03928	5.27
2.05595	5.26
2.07262	5.25
2.08928	5.24
2.10595	5.23
2.12262	5.22
2.13928	5.21
2.15595	5.20
2.17262	5.19
2.18928	5.18
2.20595	5.17
2.22262	5.16
2.23928	5.15
2.25595	5.14
2.27262	5.13
2.28928	5.12
2.30595	5.12
2.32262	5.11
2.33928	5.10
2.35595	5.09
2.37262	5.08
2.38928	5.08
2.40595	5.08
2.42262	5.08
2.43928	5.08
2.45595	5.08
2.47262	5.08
2.48928	5.08
2.50595	5.08
2.52262	5.08
2.53928	5.08
2.55595	5.08
2.57262	5.08
2.58928	5.08
2.60595	5.08
2.62262	5.08
2.63928	5.08
2.65595	5.08
2.67262	5.08
2.68928	5.08
2.70595	5.08
2.72262	5.08
2.73928	5.08
2.75595	5.08
2.77262	5.08
2.78928	5.08
2.80595	5.08
2.82262	5.08
2.83928	5.08
2.85595	5.08
2.87262	5.07
2.88928	5.07
2.90595	5.07
2.92262	5.07
2.93928	5.07
2.95595	5.07
2.97262	5.07
2.98928	5.07
3.00595	5.07
3.02262	5.07
3.03928	5.07
3.05595	5.07
3.07262	5.07
3.08928	5.07
3.10595	5.07
3.12262	5.07
3.13928	5.07
3.15595	5.07
3.17262	5.07
3.18928	5.07
3.20595	5.07
3.22262	5.07
3.23928	5.07
3.25595	5.07
3.27262	5.07
3.28928	5.07
3.30595	5.07
3.32262	5.07
3.33928	5.07
3.35595	5.07
3.37262	5.07
3.38928	5.07
3.40595	5.07
3.42262	5.07
3.43928	5.07
3.45595	5.07
3.47262	5.07
3.48928	5.07
3.50595	5.07
3.52262	5.07
3.53928	5.07
3.55595	5.07
3.57262	5.07
3.58928	5.07
3.60595	5.07
3.62262	5.07
3.63928	5.07
3.65595	5.07
3.67262	5.07
3.68928	5.07
3.70595	5.07
3.72262	5.07
3.73928	5.07
3.75595	5.07
3.77262	5.07
3.78928	5.07
3.80595	5.07
3.82262	5.07
3.83928	5.07
3.85595	5.07
3.87262	5.07
3.88928	5.07
3.90595	5.07
3.92262	5.07
3.93928	5.07
3.95595	5.07
3.97262	5.07
3.98928	5.07

[Status Trace (Linear Velocity)]
Interval(msec)	1000
# of Points	240
Start Time(min)	0.006
End Time(min)	3.989
Intensity Units	
Intensity Multiplier	1
R.Time (min)	Intensity
0.00595	39.01
0.02262	37.48
0.03928	38.28
0.05595	39.65
0.07262	40.08
0.08928	39.09
0.10595	39.00
0.12262	39.02
0.13928	39.02
0.15595	39.02
0.17262	39.01
0.18928	39.01
0.20595	39.01
0.22262	39.01
0.23928	39.01
0.25595	39.01
0.27262	39.01
0.28928	39.01
0.30595	39.01
0.32262	39.02
0.33928	39.02
0.35595	39.01
0.37262	39.01
0.38928	39.02
0.40595	39.02
0.42262	39.02
0.43928	39.01
0.45595	39.02
0.47262	39.02
0.48928	39.02
0.50595	39.02
0.52262	39.02
0.53928	39.02
0.55595	39.02
0.57262	39.02
0.58928	39.02
0.60595	39.02
0.62262	39.02
0.63928	39.01
0.65595	39.01
0.67262	39.01
0.68928	39.01
0.70595	39.01
0.72262	39.01
0.73928	39.01
0.75595	39.01
0.77262	39.01
0.78928	39.01
0.80595	39.02
0.82262	39.02
0.83928	39.02
0.85595	39.02
0.87262	39.01
0.88928	39.01
0.90595	39.02
0.92262	39.02
0.93928	39.02
0.95595	39.02
0.97262	39.02
0.98928	39.02
1.00595	39.02
1.02262	39.02
1.03928	39.02
1.05595	39.02
1.07262	39.02
1.08928	39.02
1.10595	39.02
1.12262	39.02
1.13928	39.02
1.15595	39.02
1.17262	39.02
1.18928	39.02
1.20595	39.01
1.22262	39.01
1.23928	39.01
1.25595	39.01
1.27262	39.01
1.28928	39.01
1.30595	39.01
1.32262	39.01
1.33928	39.01
1.35595	39.01
1.37262	39.02
1.38928	39.02
1.40595	39.02
1.42262	39.02
1.43928	39.02
1.45595	39.02
1.47262	39.02
1.48928	39.02
1.50595	39.01
1.52262	39.01
1.53928	39.01
1.55595	39.01
1.57262	39.01
1.58928	39.01
1.60595	39.01
1.62262	39.00
1.63928	38.98
1.65595	38.96
1.67262	38.93
1.68928	38.89
1.70595	38.86
1.72262	38.82
1.73928	38.79
1.75595	38.77
1.77262	38.73
1.78928	38.70
1.80595	38.67
1.82262	38.64
1.83928	38.61
1.85595	38.58
1.87262	38.54
1.88928	38.51
1.90595	38.49
1.92262	38.46
1.93928	38.43
1.95595	38.40
1.97262	38.36
1.98928	38.33
2.00595	38.31
2.02262	38.27
2.03928	38.24
2.05595	38.22
2.07262	38.18
2.08928	38.15
2.10595	38.13
2.12262	38.09
2.13928	38.06
2.15595	38.04
2.17262	38.00
2.18928	37.97
2.20595	37.95
2.22262	37.91
2.23928	37.88
2.25595	37.86
2.27262	37.83
2.28928	37.80
2.30595	37.77
2.32262	37.74
2.33928	37.71
2.35595	37.68
2.37262	37.66
2.38928	37.66
2.40595	37.66
2.42262	37.66
2.43928	37.66
2.45595	37.66
2.47262	37.66
2.48928	37.66
2.50595	37.65
2.52262	37.65
2.53928	37.65
2.55595	37.65
2.57262	37.65
2.58928	37.65
2.60595	37.65
2.62262	37.65
2.63928	37.65
2.65595	37.64
2.67262	37.64
2.68928	37.64
2.70595	37.65
2.72262	37.64
2.73928	37.64
2.75595	37.64
2.77262	37.64
2.78928	37.64
2.80595	37.64
2.82262	37.64
2.83928	37.64
2.85595	37.64
2.87262	37.64
2.88928	37.64
2.90595	37.64
2.92262	37.63
2.93928	37.63
2.95595	37.63
2.97262	37.63
2.98928	37.63
3.00595	37.63
3.02262	37.63
3.03928	37.63
3.05595	37.63
3.07262	37.63
3.08928	37.63
3.10595	37.63
3.12262	37.63
3.13928	37.63
3.15595	37.63
3.17262	37.63
3.18928	37.63
3.20595	37.63
3.22262	37.63
3.23928	37.63
3.25595	37.63
3.27262	37.62
3.28928	37.62
3.30595	37.62
3.32262	37.62
3.33928	37.62
3.35595	37.62
3.37262	37.62
3.38928	37.62
3.40595	37.62
3.42262	37.63
3.43928	37.63
3.45595	37.63
3.47262	37.63
3.48928	37.63
3.50595	37.63
3.52262	37.63
3.53928	37.63
3.55595	37.63
3.57262	37.62
3.58928	37.62
3.60595	37.62
3.62262	37.62
3.63928	37.62
3.65595	37.62
3.67262	37.62
3.68928	37.62
3.70595	37.62
3.72262	37.62
3.73928	37.62
3.75595	37.62
3.77262	37.62
3.78928	37.62
3.80595	37.62
3.82262	37.63
3.83928	37.63
3.85595	37.63
3.87262	37.62
3.88928	37.63
3.90595	37.63
3.92262	37.63
3.93928	37.63
3.95595	37.63
3.97262	37.63
3.98928	37.63

