[Header]
Application Name	LabSolutions
Version	5.110
Data File Name	C:\Users\User\Desktop\GC Analyses\Jack\Nachusa Grasslands Sampling\T2 Timepoint July 12th\T2_07122022_031.gcd
Output Date	3/14/2023
Output Time	3:42:31 PM

[File Information]
Type	Data File
Generated	3/10/2023 3:48:06 PM
Generated by	System Administrator
Modified	3/10/2023 3:54:49 PM
Modified by	System Administrator

[Sample Information]
Operator Name	System Administrator
Acquired	3/10/2023 3:50:49 PM
Sample Type	0:Unknown
Level	0
Sample Name	031
Sample ID	031
ISTD Amount1	1
ISTD Amount2	1
ISTD Amount3	1
ISTD Amount4	1
ISTD Amount5	1
ISTD Amount6	1
ISTD Amount7	1
ISTD Amount8	1
ISTD Amount9	1
ISTD Amount10	1
ISTD Amount11	1
ISTD Amount12	1
ISTD Amount13	1
ISTD Amount14	1
ISTD Amount15	1
ISTD Amount16	1
ISTD Amount17	1
ISTD Amount18	1
ISTD Amount19	1
ISTD Amount20	1
ISTD Amount21	1
ISTD Amount22	1
ISTD Amount23	1
ISTD Amount24	1
ISTD Amount25	1
ISTD Amount26	1
ISTD Amount27	1
ISTD Amount28	1
ISTD Amount29	1
ISTD Amount30	1
ISTD Amount31	1
ISTD Amount32	1
Sample Amount	1
Dilution Factor	1
Vial#	30
Injection Volume	1
Injection Count	1
Bar Code	

[Original Files]
Data File	C:\Users\User\Desktop\GC Analyses\Jack\Nachusa Grasslands Sampling\T1 Timepoint July 12th\T2_07122022_031.gcd
Method File	C:\LabSolutions\Data\GHG_4min_2022\ghg3_togas_w_acet_4 min_new_int.gcm
Batch File	C:\LabSolutions\Data\AutoSamplerTesting\T2_07122022.gcb
Report Format File	c:\LabSolutions\System\DEFAULT.lsr

[File Description]


[Configuration]
Instrument Name	C0B7VH3-Instrument1
Instrument #	1
Line #	1
# of Detectors	3
Detector ID	DET#1	DET#2	DET#3
Detector Name	FID	PTCD	ECD
# of Channels	1	1	1

[Peak Table(Ch1)]
# of Peaks	3
Peak#	R.Time	I.Time	F.Time	Area	Height	A/H	Conc.	Mark	ID#	Name	k'	Plate #	Plate Ht.	Tailing	Resolution	Sep.Factor	Area Ratio	Height Ratio	Conc. %	Norm Conc.
1	1.476	1.435	1.538	23743	11232	2.114	167.628	   	1	CO	0.000	9323	16.090	1.287	0.000	0.000	0	0	20.534	20.534
2	1.567	1.538	1.630	4628	2261	2.047	89.485	 V 	2	CH4	0.062	10263	14.615	0.000	1.490	0.000	0	0	10.962	10.962
3	1.996	1.949	2.400	2228287	1068749	2.085	559.240	   	3	CO2	0.353	17240	8.701	1.259	6.993	5.680	0	0	68.505	68.505

[Peak Table(Ch2)]
# of Peaks	0

[Peak Table(Ch3)]
# of Peaks	5
Peak#	R.Time	I.Time	F.Time	Area	Height	A/H	Conc.	Mark	ID#	Name	k'	Plate #	Plate Ht.	Tailing	Resolution	Sep.Factor	Area Ratio	Height Ratio	Conc. %	Norm Conc.
1	2.462	2.059	2.513	3034	637	4.762	0.000	   			0.000	8333	18.001	0.000	0.000	0.000	0	0	0.000	0.000
2	2.535	2.513	2.638	1438	348	4.134	0.000	 V 			0.030	4096	36.625	0.000	0.551	0.000	0	0	0.000	0.000
3	2.664	2.638	2.708	140	56	2.495	0.000	 V 			0.082	16288	9.209	0.000	1.061	2.750	0	0	0.000	0.000
4	2.876	2.810	3.056	18346	4874	3.764	0.469	   	1	N2O	0.168	13402	11.192	1.633	2.326	2.055	0	0	100.000	100.000
5	3.353	3.155	3.995	12793	433	29.555	0.000	   	2	SF6	0.362	307	488.476	2.112	1.102	2.150	0	0	0.000	0.000

[Compound Results(Ch1)]
# of IDs	6
ID#	Name	R.Time	Area	Height	Conc.	Curve	3rd	2nd	1st	Constant	Area Ratio	Height Ratio	Conc. %	Norm Conc.
1	CO	1.476	23743	11232	167.628	Linear	0.000000e+00	0.000000e+00	1.416423e+002	0.000000e+00	0	0	20.534	20.534
2	CH4	1.567	4628	2261	89.485	Linear	0.000000e+00	0.000000e+00	5.171738e+001	0.000000e+00	0	0	10.962	10.962
3	CO2	1.996	2228287	1068749	559.240	Linear	0.000000e+00	0.000000e+00	3.984494e+003	0.000000e+00	0	0	68.505	68.505
4	Ethylene	0.000	0	0	0.000	Linear	0.000000e+00	0.000000e+00	0.000000e+00	0.000000e+00	0	0	0.000	0.000
5	Acetylene	0.000	0	0	0.000	Linear	0.000000e+00	0.000000e+00	0.000000e+00	0.000000e+00	0	0	0.000	0.000
6	Ethane	0.000	0	0	0.000	Linear	0.000000e+00	0.000000e+00	0.000000e+00	0.000000e+00	0	0	0.000	0.000

[Compound Results(Ch2)]
# of IDs	5
ID#	Name	R.Time	Area	Height	Conc.	Curve	3rd	2nd	1st	Constant	Area Ratio	Height Ratio	Conc. %	Norm Conc.
1	Hydrogen	0.000	0	0	0.000	Linear	0.000000e+00	0.000000e+00	0.000000e+00	0.000000e+00	0	0	0.000	0.000
2	Oxygen	0.000	0	0	0.000	Linear	0.000000e+00	0.000000e+00	0.000000e+00	0.000000e+00	0	0	0.000	0.000
3	Nitrogen	0.000	0	0	0.000	Linear	0.000000e+00	0.000000e+00	0.000000e+00	0.000000e+00	0	0	0.000	0.000
4	Methane	0.000	0	0	0.000	Linear	0.000000e+00	0.000000e+00	0.000000e+00	0.000000e+00	0	0	0.000	0.000
5	Carbon Monoxide	0.000	0	0	0.000	Linear	0.000000e+00	0.000000e+00	0.000000e+00	0.000000e+00	0	0	0.000	0.000

[Compound Results(Ch3)]
# of IDs	2
ID#	Name	R.Time	Area	Height	Conc.	Curve	3rd	2nd	1st	Constant	Area Ratio	Height Ratio	Conc. %	Norm Conc.
1	N2O	2.876	18346	4874	0.469	Linear	0.000000e+00	0.000000e+00	3.915173e+004	0.000000e+00	0	0	100.000	100.000
2	SF6	3.353	12793	433	0.000	Linear	0.000000e+00	0.000000e+00	0.000000e+00	0.000000e+00	0	0	0.000	0.000

[Group Results(Ch1)]
# of Groups	0

[Group Results(Ch2)]
# of Groups	0

[Group Results(Ch3)]
# of Groups	0

[Chromatogram (Ch1)]
Interval(msec)	220
# of Points	1091
Start Time(min)	0.002
End Time(min)	3.998
R.Time (min)	Intensity
0.00167	14
0.00533	14
0.00900	9
0.01267	4
0.01633	2
0.02000	7
0.02367	12
0.02733	12
0.03100	8
0.03467	4
0.03833	-3
0.04200	-8
0.04567	-10
0.04933	-14
0.05300	-15
0.05667	-14
0.06033	-14
0.06400	-13
0.06767	-8
0.07133	-5
0.07500	2
0.07867	12
0.08233	20
0.08600	22
0.08967	16
0.09333	6
0.09700	-3
0.10067	-13
0.10433	-20
0.10800	-23
0.11167	-19
0.11533	-15
0.11900	-13
0.12267	-10
0.12633	-5
0.13000	-3
0.13367	-4
0.13733	-4
0.14100	-5
0.14467	-3
0.14833	-1
0.15200	2
0.15567	8
0.15933	13
0.16300	14
0.16667	14
0.17033	15
0.17400	20
0.17767	31
0.18133	41
0.18500	48
0.18867	53
0.19233	53
0.19600	53
0.19967	52
0.20333	50
0.20700	49
0.21067	54
0.21433	61
0.21800	65
0.22167	65
0.22533	62
0.22900	56
0.23267	49
0.23633	46
0.24000	47
0.24367	54
0.24733	61
0.25100	66
0.25467	69
0.25833	69
0.26200	66
0.26567	61
0.26933	55
0.27300	52
0.27667	48
0.28033	44
0.28400	46
0.28767	53
0.29133	58
0.29500	58
0.29867	53
0.30233	46
0.30600	37
0.30967	26
0.31333	17
0.31700	8
0.32067	-5
0.32433	-16
0.32800	-23
0.33167	-23
0.33533	-16
0.33900	-10
0.34267	-5
0.34633	0
0.35000	5
0.35367	4
0.35733	1
0.36100	-2
0.36467	-4
0.36833	-5
0.37200	1
0.37567	10
0.37933	14
0.38300	12
0.38667	11
0.39033	8
0.39400	2
0.39767	-7
0.40133	-18
0.40500	-28
0.40867	-36
0.41233	-40
0.41600	-42
0.41967	-43
0.42333	-44
0.42700	-44
0.43067	-42
0.43433	-32
0.43800	-19
0.44167	-10
0.44533	-4
0.44900	-0
0.45267	1
0.45633	2
0.46000	-2
0.46367	-11
0.46733	-20
0.47100	-24
0.47467	-26
0.47833	-25
0.48200	-21
0.48567	-11
0.48933	-6
0.49300	-12
0.49667	-22
0.50033	-32
0.50400	-43
0.50767	-47
0.51133	-45
0.51500	-39
0.51867	-31
0.52233	-23
0.52600	-17
0.52967	-14
0.53333	-15
0.53700	-19
0.54067	-23
0.54433	-25
0.54800	-23
0.55167	-22
0.55533	-23
0.55900	-32
0.56267	-45
0.56633	-54
0.57000	-51
0.57367	-40
0.57733	-33
0.58100	-33
0.58467	-36
0.58833	-39
0.59200	-40
0.59567	-38
0.59933	-32
0.60300	-27
0.60667	-25
0.61033	-28
0.61400	-34
0.61767	-36
0.62133	-31
0.62500	-22
0.62867	-16
0.63233	-14
0.63600	-13
0.63967	-15
0.64333	-15
0.64700	-15
0.65067	-19
0.65433	-23
0.65800	-27
0.66167	-27
0.66533	-25
0.66900	-25
0.67267	-28
0.67633	-29
0.68000	-28
0.68367	-29
0.68733	-28
0.69100	-28
0.69467	-32
0.69833	-37
0.70200	-35
0.70567	-33
0.70933	-30
0.71300	-32
0.71667	-38
0.72033	-41
0.72400	-37
0.72767	-33
0.73133	-29
0.73500	-29
0.73867	-32
0.74233	-35
0.74600	-35
0.74967	-30
0.75333	-23
0.75700	-16
0.76067	-11
0.76433	-11
0.76800	-13
0.77167	-14
0.77533	-22
0.77900	-29
0.78267	-30
0.78633	-28
0.79000	-26
0.79367	-28
0.79733	-27
0.80100	-25
0.80467	-23
0.80833	-21
0.81200	-20
0.81567	-25
0.81933	-34
0.82300	-44
0.82667	-51
0.83033	-50
0.83400	-44
0.83767	-44
0.84133	-47
0.84500	-51
0.84867	-55
0.85233	-56
0.85600	-55
0.85967	-52
0.86333	-48
0.86700	-43
0.87067	-41
0.87433	-37
0.87800	-33
0.88167	-30
0.88533	-32
0.88900	-37
0.89267	-43
0.89633	-46
0.90000	-41
0.90367	-38
0.90733	-40
0.91100	-38
0.91467	-37
0.91833	-40
0.92200	-43
0.92567	-46
0.92933	-46
0.93300	-43
0.93667	-38
0.94033	-34
0.94400	-36
0.94767	-42
0.95133	-49
0.95500	-54
0.95867	-58
0.96233	-63
0.96600	-65
0.96967	-66
0.97333	-63
0.97700	-60
0.98067	-58
0.98433	-59
0.98800	-57
0.99167	-56
0.99533	-55
0.99900	-52
1.00267	-47
1.00633	-42
1.01000	-38
1.01367	-37
1.01733	-38
1.02100	-39
1.02467	-42
1.02833	-47
1.03200	-54
1.03567	-57
1.03933	-56
1.04300	-57
1.04667	-62
1.05033	-65
1.05400	-62
1.05767	-56
1.06133	-57
1.06500	-62
1.06867	-66
1.07233	-70
1.07600	-70
1.07967	-66
1.08333	-59
1.08700	-52
1.09067	-51
1.09433	-56
1.09800	-60
1.10167	-58
1.10533	-51
1.10900	-48
1.11267	-51
1.11633	-57
1.12000	-61
1.12367	-59
1.12733	-53
1.13100	-44
1.13467	-40
1.13833	-45
1.14200	-54
1.14567	-62
1.14933	-68
1.15300	-73
1.15667	-75
1.16033	-73
1.16400	-71
1.16767	-70
1.17133	-68
1.17500	-65
1.17867	-65
1.18233	-66
1.18600	-65
1.18967	-64
1.19333	-67
1.19700	-72
1.20067	-74
1.20433	-74
1.20800	-75
1.21167	-77
1.21533	-75
1.21900	-70
1.22267	-66
1.22633	-60
1.23000	-58
1.23367	-60
1.23733	-60
1.24100	-59
1.24467	-58
1.24833	-56
1.25200	-55
1.25567	-57
1.25933	-62
1.26300	-67
1.26667	-75
1.27033	-85
1.27400	-90
1.27767	-88
1.28133	-88
1.28500	-84
1.28867	-82
1.29233	-86
1.29600	-85
1.29967	-81
1.30333	-77
1.30700	-73
1.31067	-68
1.31433	-66
1.31800	-66
1.32167	-69
1.32533	-72
1.32900	-72
1.33267	-70
1.33633	-67
1.34000	-68
1.34367	-69
1.34733	-71
1.35100	-77
1.35467	-83
1.35833	-88
1.36200	-88
1.36567	-86
1.36933	-78
1.37300	-67
1.37667	-61
1.38033	-58
1.38400	-56
1.38767	-55
1.39133	-56
1.39500	-57
1.39867	-62
1.40233	-74
1.40600	-80
1.40967	-79
1.41333	-79
1.41700	-78
1.42067	-79
1.42433	-84
1.42800	-85
1.43167	-81
1.43533	-74
1.43900	-53
1.44267	39
1.44633	274
1.45000	843
1.45367	2078
1.45733	3980
1.46100	6154
1.46467	8161
1.46833	9746
1.47200	10785
1.47567	11168
1.47933	10810
1.48300	9754
1.48667	8224
1.49033	6537
1.49400	4960
1.49767	3641
1.50133	2618
1.50500	1868
1.50867	1334
1.51233	958
1.51600	693
1.51967	505
1.52333	374
1.52700	285
1.53067	226
1.53433	189
1.53800	183
1.54167	247
1.54533	434
1.54900	764
1.55267	1175
1.55633	1574
1.56000	1899
1.56367	2123
1.56733	2219
1.57100	2159
1.57467	1940
1.57833	1607
1.58200	1240
1.58567	900
1.58933	622
1.59300	418
1.59667	278
1.60033	184
1.60400	119
1.60767	74
1.61133	41
1.61500	18
1.61867	2
1.62233	-10
1.62600	-19
1.62967	-27
1.63333	-32
1.63700	-29
1.64067	-22
1.64433	-22
1.64800	-29
1.65167	-34
1.65533	-34
1.65900	-33
1.66267	-33
1.66633	-36
1.67000	-42
1.67367	-50
1.67733	-59
1.68100	-66
1.68467	-69
1.68833	-70
1.69200	-73
1.69567	-75
1.69933	-74
1.70300	-69
1.70667	-59
1.71033	-49
1.71400	-43
1.71767	-43
1.72133	-45
1.72500	-46
1.72867	-49
1.73233	-49
1.73600	-49
1.73967	-47
1.74333	-46
1.74700	-47
1.75067	-52
1.75433	-58
1.75800	-64
1.76167	-69
1.76533	-70
1.76900	-70
1.77267	-67
1.77633	-65
1.78000	-64
1.78367	-68
1.78733	-73
1.79100	-74
1.79467	-69
1.79833	-64
1.80200	-63
1.80567	-64
1.80933	-66
1.81300	-69
1.81667	-70
1.82033	-69
1.82400	-66
1.82767	-64
1.83133	-62
1.83500	-60
1.83867	-61
1.84233	-62
1.84600	-64
1.84967	-65
1.85333	-67
1.85700	-65
1.86067	-61
1.86433	-58
1.86800	-55
1.87167	-50
1.87533	-43
1.87900	-39
1.88267	-34
1.88633	-32
1.89000	-33
1.89367	-39
1.89733	-52
1.90100	-66
1.90467	-77
1.90833	-80
1.91200	-75
1.91567	-69
1.91933	-64
1.92300	-59
1.92667	-53
1.93033	-49
1.93400	-51
1.93767	-54
1.94133	-57
1.94500	-55
1.94867	-48
1.95233	-11
1.95600	227
1.95967	1581
1.96333	7563
1.96700	27617
1.97067	79284
1.97433	182156
1.97800	342289
1.98167	541696
1.98533	745143
1.98900	916766
1.99267	1029728
1.99633	1068777
2.00000	1031548
2.00367	929432
2.00733	785194
2.01100	626089
2.01467	475442
2.01833	347575
2.02200	247424
2.02567	173405
2.02933	120869
2.03300	84572
2.03667	59900
2.04033	43265
2.04400	32053
2.04767	24448
2.05133	19222
2.05500	15568
2.05867	12956
2.06233	11043
2.06600	9603
2.06967	8489
2.07333	7608
2.07700	6891
2.08067	6299
2.08433	5803
2.08800	5382
2.09167	5022
2.09533	4707
2.09900	4426
2.10267	4174
2.10633	3947
2.11000	3745
2.11367	3565
2.11733	3400
2.12100	3249
2.12467	3109
2.12833	2984
2.13200	2871
2.13567	2761
2.13933	2651
2.14300	2543
2.14667	2441
2.15033	2349
2.15400	2269
2.15767	2193
2.16133	2117
2.16500	2046
2.16867	1980
2.17233	1919
2.17600	1864
2.17967	1814
2.18333	1766
2.18700	1719
2.19067	1672
2.19433	1624
2.19800	1577
2.20167	1534
2.20533	1496
2.20900	1464
2.21267	1440
2.21633	1417
2.22000	1387
2.22367	1348
2.22733	1309
2.23100	1273
2.23467	1239
2.23833	1203
2.24200	1165
2.24567	1132
2.24933	1103
2.25300	1074
2.25667	1045
2.26033	1020
2.26400	1007
2.26767	999
2.27133	988
2.27500	967
2.27867	951
2.28233	940
2.28600	931
2.28967	922
2.29333	908
2.29700	895
2.30067	883
2.30433	868
2.30800	849
2.31167	828
2.31533	813
2.31900	804
2.32267	797
2.32633	790
2.33000	781
2.33367	769
2.33733	758
2.34100	747
2.34467	736
2.34833	723
2.35200	713
2.35567	703
2.35933	693
2.36300	686
2.36667	677
2.37033	670
2.37400	665
2.37767	662
2.38133	661
2.38500	660
2.38867	659
2.39233	663
2.39600	669
2.39967	669
2.40333	663
2.40700	654
2.41067	644
2.41433	637
2.41800	633
2.42167	628
2.42533	619
2.42900	612
2.43267	605
2.43633	591
2.44000	571
2.44367	553
2.44733	543
2.45100	536
2.45467	534
2.45833	537
2.46200	540
2.46567	544
2.46933	547
2.47300	545
2.47667	538
2.48033	526
2.48400	513
2.48767	503
2.49133	499
2.49500	499
2.49867	502
2.50233	502
2.50600	498
2.50967	493
2.51333	489
2.51700	486
2.52067	484
2.52433	488
2.52800	492
2.53167	493
2.53533	490
2.53900	486
2.54267	480
2.54633	475
2.55000	469
2.55367	464
2.55733	460
2.56100	456
2.56467	452
2.56833	450
2.57200	451
2.57567	451
2.57933	455
2.58300	460
2.58667	464
2.59033	465
2.59400	459
2.59767	454
2.60133	453
2.60500	449
2.60867	444
2.61233	437
2.61600	430
2.61967	425
2.62333	424
2.62700	424
2.63067	422
2.63433	417
2.63800	415
2.64167	418
2.64533	424
2.64900	429
2.65267	431
2.65633	425
2.66000	416
2.66367	410
2.66733	404
2.67100	397
2.67467	389
2.67833	386
2.68200	385
2.68567	387
2.68933	393
2.69300	397
2.69667	396
2.70033	392
2.70400	388
2.70767	388
2.71133	391
2.71500	392
2.71867	390
2.72233	386
2.72600	380
2.72967	377
2.73333	378
2.73700	382
2.74067	387
2.74433	387
2.74800	382
2.75167	379
2.75533	381
2.75900	387
2.76267	393
2.76633	392
2.77000	386
2.77367	382
2.77733	378
2.78100	375
2.78467	371
2.78833	370
2.79200	374
2.79567	378
2.79933	380
2.80300	381
2.80667	381
2.81033	379
2.81400	379
2.81767	384
2.82133	389
2.82500	393
2.82867	393
2.83233	389
2.83600	383
2.83967	375
2.84333	366
2.84700	356
2.85067	346
2.85433	341
2.85800	338
2.86167	340
2.86533	344
2.86900	348
2.87267	357
2.87633	365
2.88000	371
2.88367	374
2.88733	375
2.89100	374
2.89467	372
2.89833	370
2.90200	372
2.90567	374
2.90933	377
2.91300	379
2.91667	376
2.92033	375
2.92400	380
2.92767	386
2.93133	391
2.93500	392
2.93867	389
2.94233	380
2.94600	372
2.94967	368
2.95333	367
2.95700	369
2.96067	369
2.96433	367
2.96800	362
2.97167	359
2.97533	354
2.97900	350
2.98267	348
2.98633	352
2.99000	358
2.99367	363
2.99733	371
3.00100	380
3.00467	389
3.00833	394
3.01200	396
3.01567	394
3.01933	391
3.02300	381
3.02667	367
3.03033	355
3.03400	348
3.03767	347
3.04133	350
3.04500	353
3.04867	348
3.05233	338
3.05600	331
3.05967	328
3.06333	333
3.06700	340
3.07067	346
3.07433	350
3.07800	351
3.08167	352
3.08533	352
3.08900	349
3.09267	349
3.09633	350
3.10000	350
3.10367	349
3.10733	349
3.11100	349
3.11467	347
3.11833	344
3.12200	339
3.12567	336
3.12933	336
3.13300	331
3.13667	324
3.14033	320
3.14400	321
3.14767	324
3.15133	329
3.15500	335
3.15867	341
3.16233	347
3.16600	352
3.16967	351
3.17333	345
3.17700	340
3.18067	337
3.18433	334
3.18800	334
3.19167	336
3.19533	336
3.19900	334
3.20267	332
3.20633	330
3.21000	327
3.21367	323
3.21733	321
3.22100	321
3.22467	320
3.22833	320
3.23200	325
3.23567	331
3.23933	331
3.24300	329
3.24667	325
3.25033	324
3.25400	326
3.25767	329
3.26133	328
3.26500	324
3.26867	323
3.27233	326
3.27600	331
3.27967	339
3.28333	347
3.28700	354
3.29067	354
3.29433	347
3.29800	334
3.30167	318
3.30533	306
3.30900	300
3.31267	296
3.31633	299
3.32000	304
3.32367	307
3.32733	311
3.33100	315
3.33467	319
3.33833	319
3.34200	313
3.34567	308
3.34933	309
3.35300	306
3.35667	298
3.36033	292
3.36400	292
3.36767	299
3.37133	309
3.37500	317
3.37867	318
3.38233	311
3.38600	304
3.38967	302
3.39333	302
3.39700	305
3.40067	310
3.40433	311
3.40800	313
3.41167	312
3.41533	306
3.41900	297
3.42267	285
3.42633	279
3.43000	280
3.43367	285
3.43733	290
3.44100	296
3.44467	300
3.44833	301
3.45200	295
3.45567	286
3.45933	281
3.46300	283
3.46667	289
3.47033	295
3.47400	297
3.47767	294
3.48133	291
3.48500	290
3.48867	291
3.49233	292
3.49600	297
3.49967	303
3.50333	302
3.50700	297
3.51067	296
3.51433	299
3.51800	296
3.52167	287
3.52533	277
3.52900	269
3.53267	264
3.53633	260
3.54000	262
3.54367	266
3.54733	270
3.55100	277
3.55467	286
3.55833	292
3.56200	292
3.56567	288
3.56933	285
3.57300	286
3.57667	289
3.58033	292
3.58400	293
3.58767	289
3.59133	284
3.59500	283
3.59867	284
3.60233	285
3.60600	280
3.60967	270
3.61333	261
3.61700	257
3.62067	254
3.62433	253
3.62800	250
3.63167	246
3.63533	244
3.63900	244
3.64267	248
3.64633	253
3.65000	263
3.65367	272
3.65733	276
3.66100	275
3.66467	271
3.66833	267
3.67200	259
3.67567	252
3.67933	250
3.68300	256
3.68667	268
3.69033	278
3.69400	283
3.69767	283
3.70133	279
3.70500	271
3.70867	262
3.71233	254
3.71600	252
3.71967	254
3.72333	254
3.72700	254
3.73067	255
3.73433	257
3.73800	255
3.74167	252
3.74533	249
3.74900	251
3.75267	252
3.75633	252
3.76000	249
3.76367	247
3.76733	244
3.77100	240
3.77467	237
3.77833	234
3.78200	231
3.78567	229
3.78933	230
3.79300	229
3.79667	232
3.80033	240
3.80400	249
3.80767	255
3.81133	252
3.81500	243
3.81867	239
3.82233	238
3.82600	236
3.82967	232
3.83333	226
3.83700	219
3.84067	212
3.84433	209
3.84800	207
3.85167	205
3.85533	201
3.85900	199
3.86267	199
3.86633	203
3.87000	209
3.87367	214
3.87733	219
3.88100	221
3.88467	220
3.88833	214
3.89200	207
3.89567	206
3.89933	210
3.90300	215
3.90667	218
3.91033	221
3.91400	227
3.91767	232
3.92133	229
3.92500	222
3.92867	215
3.93233	209
3.93600	205
3.93967	203
3.94333	199
3.94700	195
3.95067	194
3.95433	197
3.95800	201
3.96167	203
3.96533	204
3.96900	205
3.97267	205
3.97633	206
3.98000	207
3.98367	205
3.98733	202
3.99100	200
3.99467	199
3.99833	196

[Chromatogram (Ch2)]
Interval(msec)	220
# of Points	1091
Start Time(min)	0.002
End Time(min)	3.998
R.Time (min)	Intensity
0.00167	-1
0.00533	-1
0.00900	-1
0.01267	-1
0.01633	-1
0.02000	-1
0.02367	-1
0.02733	-1
0.03100	-1
0.03467	-1
0.03833	-1
0.04200	-0
0.04567	-0
0.04933	-0
0.05300	-0
0.05667	0
0.06033	0
0.06400	1
0.06767	1
0.07133	1
0.07500	2
0.07867	2
0.08233	2
0.08600	3
0.08967	3
0.09333	3
0.09700	3
0.10067	3
0.10433	3
0.10800	3
0.11167	3
0.11533	3
0.11900	3
0.12267	3
0.12633	3
0.13000	3
0.13367	3
0.13733	3
0.14100	4
0.14467	4
0.14833	4
0.15200	4
0.15567	4
0.15933	3
0.16300	3
0.16667	3
0.17033	2
0.17400	2
0.17767	1
0.18133	1
0.18500	1
0.18867	0
0.19233	0
0.19600	0
0.19967	-0
0.20333	-0
0.20700	-0
0.21067	-0
0.21433	-0
0.21800	-1
0.22167	-1
0.22533	-0
0.22900	-0
0.23267	-0
0.23633	0
0.24000	0
0.24367	0
0.24733	0
0.25100	1
0.25467	1
0.25833	1
0.26200	1
0.26567	1
0.26933	2
0.27300	2
0.27667	2
0.28033	2
0.28400	2
0.28767	2
0.29133	2
0.29500	2
0.29867	1
0.30233	1
0.30600	1
0.30967	1
0.31333	1
0.31700	1
0.32067	1
0.32433	1
0.32800	2
0.33167	2
0.33533	2
0.33900	2
0.34267	2
0.34633	2
0.35000	2
0.35367	2
0.35733	2
0.36100	2
0.36467	2
0.36833	2
0.37200	1
0.37567	1
0.37933	1
0.38300	1
0.38667	1
0.39033	1
0.39400	1
0.39767	1
0.40133	1
0.40500	1
0.40867	1
0.41233	1
0.41600	1
0.41967	2
0.42333	2
0.42700	2
0.43067	2
0.43433	2
0.43800	3
0.44167	3
0.44533	3
0.44900	3
0.45267	3
0.45633	4
0.46000	4
0.46367	4
0.46733	4
0.47100	4
0.47467	4
0.47833	4
0.48200	4
0.48567	4
0.48933	4
0.49300	4
0.49667	4
0.50033	4
0.50400	4
0.50767	3
0.51133	3
0.51500	2
0.51867	1
0.52233	0
0.52600	-0
0.52967	-0
0.53333	-0
0.53700	-0
0.54067	-0
0.54433	0
0.54800	1
0.55167	1
0.55533	1
0.55900	1
0.56267	2
0.56633	2
0.57000	2
0.57367	2
0.57733	2
0.58100	2
0.58467	1
0.58833	1
0.59200	1
0.59567	0
0.59933	0
0.60300	-0
0.60667	-0
0.61033	-0
0.61400	0
0.61767	1
0.62133	1
0.62500	1
0.62867	1
0.63233	1
0.63600	1
0.63967	1
0.64333	1
0.64700	1
0.65067	1
0.65433	1
0.65800	1
0.66167	1
0.66533	1
0.66900	0
0.67267	0
0.67633	-0
0.68000	-0
0.68367	-0
0.68733	-0
0.69100	-0
0.69467	0
0.69833	0
0.70200	-0
0.70567	0
0.70933	0
0.71300	0
0.71667	1
0.72033	1
0.72400	1
0.72767	1
0.73133	1
0.73500	1
0.73867	1
0.74233	1
0.74600	2
0.74967	2
0.75333	1
0.75700	1
0.76067	1
0.76433	1
0.76800	1
0.77167	1
0.77533	1
0.77900	1
0.78267	1
0.78633	1
0.79000	0
0.79367	0
0.79733	0
0.80100	0
0.80467	1
0.80833	1
0.81200	1
0.81567	1
0.81933	1
0.82300	1
0.82667	1
0.83033	1
0.83400	1
0.83767	0
0.84133	0
0.84500	-0
0.84867	-0
0.85233	-0
0.85600	-0
0.85967	-0
0.86333	-0
0.86700	0
0.87067	0
0.87433	0
0.87800	0
0.88167	0
0.88533	-0
0.88900	-0
0.89267	-1
0.89633	-1
0.90000	-1
0.90367	-2
0.90733	-2
0.91100	-2
0.91467	-2
0.91833	-2
0.92200	-2
0.92567	-2
0.92933	-2
0.93300	-1
0.93667	-2
0.94033	-2
0.94400	-2
0.94767	-2
0.95133	-2
0.95500	-2
0.95867	-3
0.96233	-3
0.96600	-3
0.96967	-3
0.97333	-3
0.97700	-3
0.98067	-3
0.98433	-3
0.98800	-2
0.99167	-2
0.99533	-2
0.99900	-1
1.00267	-1
1.00633	-1
1.01000	-1
1.01367	-0
1.01733	-0
1.02100	0
1.02467	0
1.02833	1
1.03200	1
1.03567	1
1.03933	1
1.04300	1
1.04667	1
1.05033	1
1.05400	1
1.05767	1
1.06133	1
1.06500	0
1.06867	0
1.07233	0
1.07600	0
1.07967	0
1.08333	-0
1.08700	-0
1.09067	-0
1.09433	-1
1.09800	-1
1.10167	-1
1.10533	-1
1.10900	-1
1.11267	-1
1.11633	-2
1.12000	-2
1.12367	-3
1.12733	-3
1.13100	-3
1.13467	-3
1.13833	-3
1.14200	-3
1.14567	-3
1.14933	-3
1.15300	-3
1.15667	-3
1.16033	-3
1.16400	-3
1.16767	-3
1.17133	-3
1.17500	-3
1.17867	-3
1.18233	-2
1.18600	-2
1.18967	-2
1.19333	-1
1.19700	-1
1.20067	-1
1.20433	-0
1.20800	0
1.21167	0
1.21533	0
1.21900	0
1.22267	0
1.22633	0
1.23000	0
1.23367	0
1.23733	1
1.24100	1
1.24467	1
1.24833	1
1.25200	1
1.25567	1
1.25933	1
1.26300	1
1.26667	2
1.27033	2
1.27400	2
1.27767	2
1.28133	1
1.28500	1
1.28867	1
1.29233	1
1.29600	0
1.29967	0
1.30333	-0
1.30700	-1
1.31067	-1
1.31433	-1
1.31800	-0
1.32167	-0
1.32533	-0
1.32900	-0
1.33267	-0
1.33633	-0
1.34000	-1
1.34367	-1
1.34733	-1
1.35100	-1
1.35467	-0
1.35833	-0
1.36200	0
1.36567	1
1.36933	1
1.37300	1
1.37667	1
1.38033	1
1.38400	1
1.38767	1
1.39133	0
1.39500	0
1.39867	-0
1.40233	-0
1.40600	-1
1.40967	-1
1.41333	-1
1.41700	-1
1.42067	-1
1.42433	-1
1.42800	-1
1.43167	-1
1.43533	-1
1.43900	-1
1.44267	-1
1.44633	-1
1.45000	-1
1.45367	-1
1.45733	-1
1.46100	-1
1.46467	-1
1.46833	-0
1.47200	-0
1.47567	-0
1.47933	-0
1.48300	0
1.48667	0
1.49033	1
1.49400	1
1.49767	1
1.50133	1
1.50500	1
1.50867	1
1.51233	0
1.51600	-0
1.51967	-0
1.52333	-1
1.52700	-1
1.53067	-1
1.53433	-2
1.53800	-2
1.54167	-2
1.54533	-2
1.54900	-2
1.55267	-2
1.55633	-2
1.56000	-1
1.56367	-1
1.56733	-1
1.57100	-1
1.57467	-1
1.57833	-1
1.58200	-2
1.58567	-2
1.58933	-2
1.59300	-2
1.59667	-3
1.60033	-4
1.60400	-5
1.60767	-6
1.61133	-8
1.61500	-10
1.61867	-13
1.62233	-16
1.62600	-19
1.62967	-22
1.63333	-25
1.63700	-29
1.64067	-33
1.64433	-36
1.64800	-40
1.65167	-44
1.65533	-48
1.65900	-51
1.66267	-55
1.66633	-58
1.67000	-62
1.67367	-66
1.67733	-70
1.68100	-74
1.68467	-79
1.68833	-83
1.69200	-87
1.69567	-90
1.69933	-93
1.70300	-96
1.70667	-98
1.71033	-99
1.71400	-101
1.71767	-102
1.72133	-103
1.72500	-104
1.72867	-105
1.73233	-105
1.73600	-106
1.73967	-107
1.74333	-107
1.74700	-108
1.75067	-108
1.75433	-109
1.75800	-109
1.76167	-109
1.76533	-108
1.76900	-108
1.77267	-108
1.77633	-108
1.78000	-108
1.78367	-108
1.78733	-109
1.79100	-109
1.79467	-110
1.79833	-111
1.80200	-112
1.80567	-113
1.80933	-113
1.81300	-113
1.81667	-114
1.82033	-114
1.82400	-113
1.82767	-113
1.83133	-113
1.83500	-113
1.83867	-113
1.84233	-113
1.84600	-112
1.84967	-112
1.85333	-111
1.85700	-111
1.86067	-111
1.86433	-111
1.86800	-111
1.87167	-111
1.87533	-111
1.87900	-112
1.88267	-112
1.88633	-112
1.89000	-112
1.89367	-112
1.89733	-112
1.90100	-112
1.90467	-112
1.90833	-112
1.91200	-112
1.91567	-111
1.91933	-111
1.92300	-110
1.92667	-110
1.93033	-110
1.93400	-109
1.93767	-109
1.94133	-109
1.94500	-110
1.94867	-110
1.95233	-110
1.95600	-110
1.95967	-110
1.96333	-110
1.96700	-109
1.97067	-109
1.97433	-108
1.97800	-107
1.98167	-107
1.98533	-106
1.98900	-106
1.99267	-105
1.99633	-105
2.00000	-104
2.00367	-104
2.00733	-104
2.01100	-104
2.01467	-103
2.01833	-103
2.02200	-103
2.02567	-103
2.02933	-103
2.03300	-104
2.03667	-104
2.04033	-104
2.04400	-104
2.04767	-104
2.05133	-104
2.05500	-103
2.05867	-103
2.06233	-103
2.06600	-102
2.06967	-102
2.07333	-102
2.07700	-101
2.08067	-101
2.08433	-101
2.08800	-100
2.09167	-100
2.09533	-100
2.09900	-99
2.10267	-98
2.10633	-97
2.11000	-96
2.11367	-95
2.11733	-94
2.12100	-93
2.12467	-93
2.12833	-93
2.13200	-93
2.13567	-93
2.13933	-93
2.14300	-93
2.14667	-93
2.15033	-92
2.15400	-92
2.15767	-92
2.16133	-91
2.16500	-91
2.16867	-91
2.17233	-90
2.17600	-90
2.17967	-90
2.18333	-90
2.18700	-90
2.19067	-89
2.19433	-89
2.19800	-89
2.20167	-89
2.20533	-88
2.20900	-88
2.21267	-87
2.21633	-87
2.22000	-86
2.22367	-86
2.22733	-85
2.23100	-85
2.23467	-84
2.23833	-84
2.24200	-84
2.24567	-83
2.24933	-83
2.25300	-83
2.25667	-82
2.26033	-82
2.26400	-82
2.26767	-81
2.27133	-81
2.27500	-81
2.27867	-81
2.28233	-81
2.28600	-81
2.28967	-81
2.29333	-82
2.29700	-82
2.30067	-81
2.30433	-81
2.30800	-80
2.31167	-79
2.31533	-79
2.31900	-79
2.32267	-80
2.32633	-80
2.33000	-81
2.33367	-81
2.33733	-81
2.34100	-80
2.34467	-80
2.34833	-79
2.35200	-77
2.35567	-76
2.35933	-74
2.36300	-72
2.36667	-69
2.37033	-66
2.37400	-63
2.37767	-59
2.38133	-55
2.38500	-51
2.38867	-47
2.39233	-42
2.39600	-38
2.39967	-33
2.40333	-29
2.40700	-26
2.41067	-22
2.41433	-20
2.41800	-18
2.42167	-16
2.42533	-14
2.42900	-13
2.43267	-11
2.43633	-10
2.44000	-8
2.44367	-7
2.44733	-7
2.45100	-6
2.45467	-6
2.45833	-6
2.46200	-5
2.46567	-4
2.46933	-3
2.47300	-2
2.47667	-1
2.48033	-0
2.48400	1
2.48767	1
2.49133	2
2.49500	3
2.49867	4
2.50233	5
2.50600	7
2.50967	8
2.51333	9
2.51700	10
2.52067	10
2.52433	11
2.52800	11
2.53167	12
2.53533	12
2.53900	13
2.54267	14
2.54633	14
2.55000	14
2.55367	15
2.55733	15
2.56100	15
2.56467	15
2.56833	15
2.57200	15
2.57567	15
2.57933	15
2.58300	15
2.58667	15
2.59033	15
2.59400	16
2.59767	17
2.60133	17
2.60500	18
2.60867	18
2.61233	17
2.61600	17
2.61967	16
2.62333	16
2.62700	15
2.63067	15
2.63433	15
2.63800	15
2.64167	16
2.64533	16
2.64900	17
2.65267	17
2.65633	18
2.66000	20
2.66367	21
2.66733	22
2.67100	23
2.67467	24
2.67833	24
2.68200	25
2.68567	24
2.68933	24
2.69300	24
2.69667	23
2.70033	23
2.70400	23
2.70767	23
2.71133	23
2.71500	23
2.71867	23
2.72233	24
2.72600	24
2.72967	25
2.73333	25
2.73700	25
2.74067	26
2.74433	27
2.74800	27
2.75167	28
2.75533	28
2.75900	28
2.76267	28
2.76633	28
2.77000	27
2.77367	27
2.77733	26
2.78100	26
2.78467	25
2.78833	25
2.79200	25
2.79567	25
2.79933	24
2.80300	25
2.80667	25
2.81033	25
2.81400	26
2.81767	26
2.82133	27
2.82500	27
2.82867	27
2.83233	27
2.83600	28
2.83967	27
2.84333	25
2.84700	22
2.85067	16
2.85433	8
2.85800	-4
2.86167	-19
2.86533	-39
2.86900	-63
2.87267	-92
2.87633	-124
2.88000	-161
2.88367	-201
2.88733	-245
2.89100	-292
2.89467	-342
2.89833	-393
2.90200	-446
2.90567	-500
2.90933	-555
2.91300	-610
2.91667	-664
2.92033	-718
2.92400	-771
2.92767	-822
2.93133	-874
2.93500	-929
2.93867	-988
2.94233	-1042
2.94600	-1081
2.94967	-1097
2.95333	-1087
2.95700	-1052
2.96067	-998
2.96433	-930
2.96800	-854
2.97167	-774
2.97533	-693
2.97900	-615
2.98267	-542
2.98633	-474
2.99000	-412
2.99367	-356
2.99733	-307
3.00100	-263
3.00467	-225
3.00833	-191
3.01200	-162
3.01567	-137
3.01933	-115
3.02300	-96
3.02667	-80
3.03033	-66
3.03400	-54
3.03767	-44
3.04133	-35
3.04500	-28
3.04867	-22
3.05233	-17
3.05600	-12
3.05967	-8
3.06333	-5
3.06700	-2
3.07067	0
3.07433	3
3.07800	4
3.08167	6
3.08533	7
3.08900	8
3.09267	9
3.09633	11
3.10000	12
3.10367	13
3.10733	14
3.11100	15
3.11467	15
3.11833	16
3.12200	17
3.12567	17
3.12933	18
3.13300	18
3.13667	18
3.14033	19
3.14400	19
3.14767	19
3.15133	20
3.15500	20
3.15867	20
3.16233	20
3.16600	20
3.16967	19
3.17333	19
3.17700	20
3.18067	20
3.18433	20
3.18800	20
3.19167	20
3.19533	20
3.19900	21
3.20267	21
3.20633	21
3.21000	21
3.21367	21
3.21733	22
3.22100	22
3.22467	23
3.22833	23
3.23200	23
3.23567	24
3.23933	24
3.24300	25
3.24667	25
3.25033	26
3.25400	26
3.25767	26
3.26133	26
3.26500	26
3.26867	26
3.27233	26
3.27600	26
3.27967	26
3.28333	26
3.28700	26
3.29067	26
3.29433	27
3.29800	27
3.30167	27
3.30533	27
3.30900	27
3.31267	28
3.31633	28
3.32000	28
3.32367	29
3.32733	29
3.33100	29
3.33467	28
3.33833	28
3.34200	28
3.34567	28
3.34933	28
3.35300	28
3.35667	28
3.36033	28
3.36400	28
3.36767	28
3.37133	28
3.37500	28
3.37867	28
3.38233	28
3.38600	28
3.38967	28
3.39333	28
3.39700	28
3.40067	28
3.40433	27
3.40800	27
3.41167	27
3.41533	27
3.41900	27
3.42267	27
3.42633	27
3.43000	27
3.43367	27
3.43733	27
3.44100	27
3.44467	27
3.44833	26
3.45200	26
3.45567	26
3.45933	27
3.46300	26
3.46667	26
3.47033	26
3.47400	26
3.47767	26
3.48133	26
3.48500	26
3.48867	27
3.49233	27
3.49600	27
3.49967	28
3.50333	28
3.50700	29
3.51067	29
3.51433	29
3.51800	30
3.52167	30
3.52533	30
3.52900	30
3.53267	30
3.53633	30
3.54000	30
3.54367	30
3.54733	30
3.55100	30
3.55467	30
3.55833	30
3.56200	31
3.56567	31
3.56933	31
3.57300	31
3.57667	31
3.58033	31
3.58400	31
3.58767	31
3.59133	30
3.59500	30
3.59867	29
3.60233	29
3.60600	29
3.60967	28
3.61333	28
3.61700	28
3.62067	28
3.62433	28
3.62800	28
3.63167	27
3.63533	27
3.63900	27
3.64267	27
3.64633	27
3.65000	27
3.65367	27
3.65733	27
3.66100	27
3.66467	27
3.66833	27
3.67200	27
3.67567	27
3.67933	28
3.68300	28
3.68667	28
3.69033	28
3.69400	28
3.69767	28
3.70133	28
3.70500	28
3.70867	28
3.71233	28
3.71600	28
3.71967	28
3.72333	28
3.72700	28
3.73067	28
3.73433	28
3.73800	28
3.74167	28
3.74533	28
3.74900	28
3.75267	28
3.75633	28
3.76000	28
3.76367	28
3.76733	28
3.77100	27
3.77467	27
3.77833	27
3.78200	27
3.78567	27
3.78933	27
3.79300	27
3.79667	27
3.80033	27
3.80400	27
3.80767	27
3.81133	26
3.81500	26
3.81867	26
3.82233	26
3.82600	26
3.82967	26
3.83333	26
3.83700	26
3.84067	27
3.84433	27
3.84800	27
3.85167	27
3.85533	27
3.85900	28
3.86267	28
3.86633	28
3.87000	28
3.87367	28
3.87733	29
3.88100	29
3.88467	29
3.88833	29
3.89200	29
3.89567	29
3.89933	29
3.90300	29
3.90667	29
3.91033	29
3.91400	29
3.91767	29
3.92133	29
3.92500	29
3.92867	28
3.93233	28
3.93600	28
3.93967	28
3.94333	28
3.94700	28
3.95067	28
3.95433	28
3.95800	28
3.96167	28
3.96533	28
3.96900	28
3.97267	28
3.97633	28
3.98000	28
3.98367	28
3.98733	28
3.99100	28
3.99467	28
3.99833	28

[Chromatogram (Ch3)]
Interval(msec)	220
# of Points	1091
Start Time(min)	0.002
End Time(min)	3.998
R.Time (min)	Intensity
0.00167	0
0.00533	2
0.00900	3
0.01267	4
0.01633	5
0.02000	5
0.02367	6
0.02733	6
0.03100	7
0.03467	9
0.03833	11
0.04200	12
0.04567	11
0.04933	8
0.05300	7
0.05667	9
0.06033	12
0.06400	11
0.06767	10
0.07133	8
0.07500	5
0.07867	2
0.08233	1
0.08600	3
0.08967	5
0.09333	5
0.09700	6
0.10067	4
0.10433	3
0.10800	3
0.11167	4
0.11533	5
0.11900	6
0.12267	6
0.12633	9
0.13000	9
0.13367	8
0.13733	7
0.14100	8
0.14467	7
0.14833	6
0.15200	5
0.15567	4
0.15933	6
0.16300	7
0.16667	7
0.17033	6
0.17400	4
0.17767	3
0.18133	4
0.18500	6
0.18867	6
0.19233	5
0.19600	4
0.19967	5
0.20333	5
0.20700	4
0.21067	4
0.21433	5
0.21800	5
0.22167	6
0.22533	5
0.22900	5
0.23267	5
0.23633	6
0.24000	9
0.24367	9
0.24733	7
0.25100	4
0.25467	3
0.25833	4
0.26200	6
0.26567	6
0.26933	5
0.27300	3
0.27667	1
0.28033	1
0.28400	3
0.28767	5
0.29133	5
0.29500	6
0.29867	7
0.30233	6
0.30600	6
0.30967	7
0.31333	7
0.31700	7
0.32067	7
0.32433	6
0.32800	3
0.33167	3
0.33533	4
0.33900	3
0.34267	3
0.34633	3
0.35000	4
0.35367	4
0.35733	3
0.36100	5
0.36467	8
0.36833	10
0.37200	9
0.37567	7
0.37933	7
0.38300	6
0.38667	5
0.39033	4
0.39400	3
0.39767	3
0.40133	5
0.40500	9
0.40867	12
0.41233	12
0.41600	10
0.41967	7
0.42333	7
0.42700	6
0.43067	5
0.43433	4
0.43800	5
0.44167	6
0.44533	5
0.44900	5
0.45267	6
0.45633	8
0.46000	10
0.46367	10
0.46733	10
0.47100	9
0.47467	10
0.47833	10
0.48200	11
0.48567	11
0.48933	11
0.49300	10
0.49667	7
0.50033	6
0.50400	6
0.50767	7
0.51133	7
0.51500	7
0.51867	9
0.52233	11
0.52600	11
0.52967	11
0.53333	9
0.53700	8
0.54067	10
0.54433	11
0.54800	9
0.55167	8
0.55533	7
0.55900	9
0.56267	8
0.56633	7
0.57000	8
0.57367	10
0.57733	12
0.58100	11
0.58467	9
0.58833	9
0.59200	11
0.59567	11
0.59933	10
0.60300	9
0.60667	9
0.61033	10
0.61400	9
0.61767	7
0.62133	6
0.62500	9
0.62867	10
0.63233	10
0.63600	7
0.63967	5
0.64333	7
0.64700	10
0.65067	12
0.65433	12
0.65800	11
0.66167	11
0.66533	11
0.66900	9
0.67267	8
0.67633	9
0.68000	12
0.68367	14
0.68733	13
0.69100	12
0.69467	11
0.69833	11
0.70200	8
0.70567	8
0.70933	11
0.71300	14
0.71667	12
0.72033	9
0.72400	11
0.72767	15
0.73133	16
0.73500	14
0.73867	11
0.74233	8
0.74600	9
0.74967	10
0.75333	14
0.75700	16
0.76067	15
0.76433	15
0.76800	15
0.77167	14
0.77533	12
0.77900	11
0.78267	9
0.78633	6
0.79000	5
0.79367	4
0.79733	4
0.80100	5
0.80467	7
0.80833	9
0.81200	10
0.81567	8
0.81933	5
0.82300	6
0.82667	7
0.83033	8
0.83400	8
0.83767	6
0.84133	5
0.84500	4
0.84867	4
0.85233	4
0.85600	6
0.85967	8
0.86333	9
0.86700	10
0.87067	12
0.87433	14
0.87800	16
0.88167	14
0.88533	12
0.88900	10
0.89267	11
0.89633	11
0.90000	13
0.90367	16
0.90733	18
0.91100	18
0.91467	18
0.91833	18
0.92200	17
0.92567	16
0.92933	17
0.93300	19
0.93667	19
0.94033	18
0.94400	16
0.94767	16
0.95133	15
0.95500	15
0.95867	16
0.96233	18
0.96600	18
0.96967	15
0.97333	15
0.97700	16
0.98067	15
0.98433	15
0.98800	16
0.99167	16
0.99533	16
0.99900	15
1.00267	12
1.00633	12
1.01000	13
1.01367	15
1.01733	15
1.02100	14
1.02467	13
1.02833	12
1.03200	11
1.03567	11
1.03933	12
1.04300	16
1.04667	18
1.05033	17
1.05400	15
1.05767	13
1.06133	13
1.06500	11
1.06867	12
1.07233	13
1.07600	14
1.07967	17
1.08333	18
1.08700	18
1.09067	18
1.09433	18
1.09800	17
1.10167	15
1.10533	16
1.10900	15
1.11267	13
1.11633	12
1.12000	11
1.12367	9
1.12733	7
1.13100	9
1.13467	11
1.13833	13
1.14200	14
1.14567	12
1.14933	12
1.15300	12
1.15667	14
1.16033	14
1.16400	14
1.16767	17
1.17133	19
1.17500	18
1.17867	17
1.18233	15
1.18600	13
1.18967	12
1.19333	11
1.19700	12
1.20067	15
1.20433	15
1.20800	15
1.21167	16
1.21533	18
1.21900	15
1.22267	16
1.22633	16
1.23000	16
1.23367	18
1.23733	20
1.24100	21
1.24467	18
1.24833	14
1.25200	14
1.25567	14
1.25933	14
1.26300	15
1.26667	17
1.27033	19
1.27400	18
1.27767	17
1.28133	16
1.28500	15
1.28867	15
1.29233	15
1.29600	13
1.29967	14
1.30333	16
1.30700	16
1.31067	16
1.31433	19
1.31800	20
1.32167	21
1.32533	19
1.32900	17
1.33267	18
1.33633	18
1.34000	18
1.34367	17
1.34733	19
1.35100	20
1.35467	21
1.35833	21
1.36200	21
1.36567	20
1.36933	18
1.37300	18
1.37667	18
1.38033	18
1.38400	18
1.38767	15
1.39133	14
1.39500	14
1.39867	12
1.40233	11
1.40600	11
1.40967	12
1.41333	13
1.41700	13
1.42067	14
1.42433	13
1.42800	13
1.43167	13
1.43533	16
1.43900	18
1.44267	19
1.44633	19
1.45000	19
1.45367	19
1.45733	20
1.46100	21
1.46467	22
1.46833	22
1.47200	22
1.47567	22
1.47933	21
1.48300	20
1.48667	18
1.49033	20
1.49400	22
1.49767	23
1.50133	23
1.50500	25
1.50867	26
1.51233	26
1.51600	25
1.51967	24
1.52333	24
1.52700	20
1.53067	19
1.53433	19
1.53800	19
1.54167	19
1.54533	21
1.54900	20
1.55267	19
1.55633	19
1.56000	18
1.56367	17
1.56733	15
1.57100	15
1.57467	15
1.57833	16
1.58200	16
1.58567	16
1.58933	16
1.59300	16
1.59667	17
1.60033	18
1.60400	19
1.60767	21
1.61133	22
1.61500	24
1.61867	24
1.62233	23
1.62600	23
1.62967	25
1.63333	26
1.63700	26
1.64067	25
1.64433	24
1.64800	24
1.65167	24
1.65533	25
1.65900	26
1.66267	27
1.66633	29
1.67000	28
1.67367	27
1.67733	26
1.68100	28
1.68467	29
1.68833	29
1.69200	29
1.69567	28
1.69933	28
1.70300	30
1.70667	31
1.71033	32
1.71400	33
1.71767	34
1.72133	34
1.72500	35
1.72867	36
1.73233	38
1.73600	40
1.73967	40
1.74333	40
1.74700	39
1.75067	40
1.75433	40
1.75800	39
1.76167	37
1.76533	36
1.76900	35
1.77267	35
1.77633	37
1.78000	40
1.78367	42
1.78733	40
1.79100	40
1.79467	39
1.79833	38
1.80200	38
1.80567	39
1.80933	40
1.81300	42
1.81667	41
1.82033	41
1.82400	42
1.82767	44
1.83133	44
1.83500	44
1.83867	43
1.84233	42
1.84600	42
1.84967	41
1.85333	41
1.85700	41
1.86067	40
1.86433	40
1.86800	40
1.87167	40
1.87533	43
1.87900	46
1.88267	49
1.88633	51
1.89000	52
1.89367	52
1.89733	51
1.90100	52
1.90467	54
1.90833	54
1.91200	55
1.91567	55
1.91933	54
1.92300	54
1.92667	55
1.93033	56
1.93400	57
1.93767	59
1.94133	59
1.94500	59
1.94867	60
1.95233	62
1.95600	61
1.95967	62
1.96333	63
1.96700	62
1.97067	64
1.97433	66
1.97800	67
1.98167	68
1.98533	70
1.98900	71
1.99267	71
1.99633	71
2.00000	72
2.00367	71
2.00733	72
2.01100	73
2.01467	74
2.01833	76
2.02200	80
2.02567	81
2.02933	80
2.03300	80
2.03667	79
2.04033	79
2.04400	80
2.04767	81
2.05133	82
2.05500	82
2.05867	84
2.06233	85
2.06600	86
2.06967	88
2.07333	90
2.07700	91
2.08067	91
2.08433	93
2.08800	94
2.09167	95
2.09533	96
2.09900	96
2.10267	98
2.10633	97
2.11000	98
2.11367	100
2.11733	100
2.12100	101
2.12467	103
2.12833	105
2.13200	106
2.13567	109
2.13933	111
2.14300	114
2.14667	117
2.15033	118
2.15400	117
2.15767	114
2.16133	113
2.16500	114
2.16867	118
2.17233	120
2.17600	121
2.17967	123
2.18333	126
2.18700	129
2.19067	130
2.19433	130
2.19800	132
2.20167	133
2.20533	134
2.20900	136
2.21267	138
2.21633	140
2.22000	145
2.22367	148
2.22733	149
2.23100	148
2.23467	148
2.23833	148
2.24200	150
2.24567	151
2.24933	154
2.25300	159
2.25667	162
2.26033	163
2.26400	163
2.26767	163
2.27133	164
2.27500	167
2.27867	170
2.28233	170
2.28600	168
2.28967	167
2.29333	168
2.29700	171
2.30067	173
2.30433	177
2.30800	179
2.31167	182
2.31533	185
2.31900	189
2.32267	192
2.32633	194
2.33000	195
2.33367	196
2.33733	197
2.34100	199
2.34467	203
2.34833	206
2.35200	207
2.35567	207
2.35933	208
2.36300	211
2.36667	211
2.37033	212
2.37400	212
2.37767	212
2.38133	213
2.38500	215
2.38867	218
2.39233	221
2.39600	224
2.39967	226
2.40333	229
2.40700	232
2.41067	236
2.41433	240
2.41800	244
2.42167	247
2.42533	249
2.42900	253
2.43267	258
2.43633	260
2.44000	265
2.44367	320
2.44733	453
2.45100	592
2.45467	706
2.45833	772
2.46200	775
2.46567	741
2.46933	700
2.47300	670
2.47667	651
2.48033	641
2.48400	624
2.48767	594
2.49133	557
2.49500	519
2.49867	482
2.50233	453
2.50600	435
2.50967	424
2.51333	419
2.51700	423
2.52067	434
2.52433	451
2.52800	469
2.53167	485
2.53533	496
2.53900	496
2.54267	485
2.54633	466
2.55000	442
2.55367	416
2.55733	392
2.56100	373
2.56467	357
2.56833	341
2.57200	332
2.57567	325
2.57933	319
2.58300	316
2.58667	314
2.59033	313
2.59400	312
2.59767	309
2.60133	303
2.60500	293
2.60867	279
2.61233	262
2.61600	244
2.61967	225
2.62333	209
2.62700	197
2.63067	189
2.63433	188
2.63800	188
2.64167	189
2.64533	195
2.64900	202
2.65267	209
2.65633	214
2.66000	218
2.66367	221
2.66733	221
2.67100	218
2.67467	214
2.67833	208
2.68200	202
2.68567	197
2.68933	192
2.69300	187
2.69667	182
2.70033	178
2.70400	175
2.70767	171
2.71133	167
2.71500	163
2.71867	160
2.72233	158
2.72600	157
2.72967	159
2.73333	162
2.73700	163
2.74067	163
2.74433	162
2.74800	163
2.75167	164
2.75533	165
2.75900	163
2.76267	163
2.76633	164
2.77000	166
2.77367	168
2.77733	169
2.78100	169
2.78467	170
2.78833	172
2.79200	173
2.79567	173
2.79933	174
2.80300	177
2.80667	180
2.81033	182
2.81400	184
2.81767	189
2.82133	198
2.82500	222
2.82867	272
2.83233	367
2.83600	530
2.83967	788
2.84333	1150
2.84700	1614
2.85067	2166
2.85433	2772
2.85800	3382
2.86167	3949
2.86533	4427
2.86900	4781
2.87267	4989
2.87633	5051
2.88000	4980
2.88367	4797
2.88733	4532
2.89100	4215
2.89467	3869
2.89833	3514
2.90200	3165
2.90567	2834
2.90933	2528
2.91300	2247
2.91667	1995
2.92033	1769
2.92400	1569
2.92767	1394
2.93133	1243
2.93500	1112
2.93867	994
2.94233	888
2.94600	797
2.94967	718
2.95333	652
2.95700	593
2.96067	543
2.96433	499
2.96800	459
2.97167	423
2.97533	394
2.97900	370
2.98267	346
2.98633	323
2.99000	304
2.99367	288
2.99733	276
3.00100	265
3.00467	253
3.00833	241
3.01200	229
3.01567	219
3.01933	210
3.02300	203
3.02667	196
3.03033	190
3.03400	186
3.03767	180
3.04133	175
3.04500	170
3.04867	166
3.05233	163
3.05600	160
3.05967	160
3.06333	160
3.06700	159
3.07067	156
3.07433	153
3.07800	152
3.08167	148
3.08533	146
3.08900	147
3.09267	147
3.09633	145
3.10000	144
3.10367	140
3.10733	138
3.11100	137
3.11467	137
3.11833	137
3.12200	136
3.12567	134
3.12933	133
3.13300	134
3.13667	134
3.14033	134
3.14400	130
3.14767	125
3.15133	126
3.15500	130
3.15867	141
3.16233	158
3.16600	182
3.16967	212
3.17333	242
3.17700	273
3.18067	303
3.18433	332
3.18800	357
3.19167	382
3.19533	408
3.19900	431
3.20267	453
3.20633	469
3.21000	482
3.21367	492
3.21733	502
3.22100	512
3.22467	522
3.22833	532
3.23200	539
3.23567	546
3.23933	552
3.24300	557
3.24667	561
3.25033	565
3.25400	570
3.25767	575
3.26133	580
3.26500	585
3.26867	590
3.27233	595
3.27600	599
3.27967	602
3.28333	608
3.28700	611
3.29067	612
3.29433	614
3.29800	618
3.30167	620
3.30533	624
3.30900	628
3.31267	632
3.31633	635
3.32000	637
3.32367	638
3.32733	636
3.33100	637
3.33467	639
3.33833	642
3.34200	646
3.34567	649
3.34933	651
3.35300	654
3.35667	655
3.36033	656
3.36400	657
3.36767	659
3.37133	661
3.37500	661
3.37867	659
3.38233	660
3.38600	660
3.38967	659
3.39333	661
3.39700	663
3.40067	664
3.40433	663
3.40800	662
3.41167	660
3.41533	660
3.41900	661
3.42267	661
3.42633	660
3.43000	659
3.43367	658
3.43733	657
3.44100	658
3.44467	657
3.44833	655
3.45200	655
3.45567	655
3.45933	654
3.46300	652
3.46667	652
3.47033	653
3.47400	651
3.47767	647
3.48133	645
3.48500	645
3.48867	643
3.49233	641
3.49600	638
3.49967	635
3.50333	633
3.50700	632
3.51067	629
3.51433	626
3.51800	624
3.52167	620
3.52533	617
3.52900	615
3.53267	611
3.53633	609
3.54000	607
3.54367	605
3.54733	606
3.55100	607
3.55467	608
3.55833	607
3.56200	606
3.56567	606
3.56933	607
3.57300	608
3.57667	605
3.58033	602
3.58400	601
3.58767	601
3.59133	602
3.59500	602
3.59867	599
3.60233	598
3.60600	596
3.60967	595
3.61333	594
3.61700	592
3.62067	594
3.62433	595
3.62800	595
3.63167	593
3.63533	591
3.63900	591
3.64267	591
3.64633	589
3.65000	589
3.65367	589
3.65733	590
3.66100	589
3.66467	587
3.66833	585
3.67200	583
3.67567	583
3.67933	586
3.68300	588
3.68667	586
3.69033	585
3.69400	586
3.69767	586
3.70133	585
3.70500	586
3.70867	587
3.71233	589
3.71600	588
3.71967	587
3.72333	587
3.72700	587
3.73067	587
3.73433	585
3.73800	584
3.74167	583
3.74533	582
3.74900	584
3.75267	584
3.75633	583
3.76000	581
3.76367	581
3.76733	582
3.77100	581
3.77467	584
3.77833	586
3.78200	587
3.78567	586
3.78933	585
3.79300	583
3.79667	584
3.80033	584
3.80400	584
3.80767	584
3.81133	583
3.81500	582
3.81867	582
3.82233	581
3.82600	581
3.82967	579
3.83333	577
3.83700	576
3.84067	572
3.84433	568
3.84800	566
3.85167	565
3.85533	564
3.85900	562
3.86267	562
3.86633	562
3.87000	560
3.87367	556
3.87733	554
3.88100	555
3.88467	554
3.88833	554
3.89200	555
3.89567	554
3.89933	554
3.90300	551
3.90667	549
3.91033	548
3.91400	549
3.91767	549
3.92133	549
3.92500	547
3.92867	546
3.93233	546
3.93600	545
3.93967	542
3.94333	538
3.94700	535
3.95067	534
3.95433	535
3.95800	534
3.96167	531
3.96533	528
3.96900	526
3.97267	524
3.97633	524
3.98000	524
3.98367	522
3.98733	520
3.99100	517
3.99467	516
3.99833	512

[Status Trace (Column Oven Temperature)]
Interval(msec)	1000
# of Points	240
Start Time(min)	0.004
End Time(min)	3.988
Intensity Units	
Intensity Multiplier	1
R.Time (min)	Intensity
0.00428	35.04
0.02095	35.05
0.03762	35.05
0.05428	35.05
0.07095	35.05
0.08762	35.03
0.10428	35.04
0.12095	35.03
0.13762	35.03
0.15428	35.03
0.17095	35.04
0.18762	35.03
0.20428	35.03
0.22095	35.03
0.23762	35.04
0.25428	35.03
0.27095	35.03
0.28762	35.04
0.30428	35.04
0.32095	35.03
0.33762	35.03
0.35428	35.03
0.37095	35.04
0.38762	35.03
0.40428	35.02
0.42095	35.01
0.43762	35.01
0.45428	34.99
0.47095	34.98
0.48762	34.97
0.50428	34.98
0.52095	34.99
0.53762	35.00
0.55428	34.99
0.57095	34.98
0.58762	34.99
0.60428	34.99
0.62095	34.98
0.63762	34.97
0.65428	34.97
0.67095	34.97
0.68762	34.96
0.70428	34.97
0.72095	34.98
0.73762	34.97
0.75428	34.96
0.77095	34.97
0.78762	34.98
0.80428	34.97
0.82095	34.97
0.83762	34.96
0.85428	34.96
0.87095	34.96
0.88762	34.98
0.90428	34.99
0.92095	34.99
0.93762	34.99
0.95428	35.00
0.97095	35.00
0.98762	35.00
1.00428	35.01
1.02095	34.99
1.03762	34.98
1.05428	34.97
1.07095	34.97
1.08762	34.97
1.10428	34.98
1.12095	35.00
1.13762	35.01
1.15428	35.02
1.17095	35.03
1.18762	35.03
1.20428	35.02
1.22095	35.01
1.23762	35.01
1.25428	35.01
1.27095	35.00
1.28762	35.00
1.30428	35.00
1.32095	35.00
1.33762	35.00
1.35428	35.00
1.37095	34.99
1.38762	34.99
1.40428	35.00
1.42095	35.00
1.43762	35.00
1.45428	34.99
1.47095	34.98
1.48762	34.96
1.50428	34.96
1.52095	34.97
1.53762	34.98
1.55428	34.99
1.57095	34.98
1.58762	34.98
1.60428	35.03
1.62095	35.15
1.63762	35.34
1.65428	35.59
1.67095	35.89
1.68762	36.24
1.70428	36.60
1.72095	36.95
1.73762	37.28
1.75428	37.62
1.77095	37.93
1.78762	38.27
1.80428	38.61
1.82095	38.95
1.83762	39.28
1.85428	39.60
1.87095	39.94
1.88762	40.27
1.90428	40.60
1.92095	40.92
1.93762	41.26
1.95428	41.58
1.97095	41.91
1.98762	42.22
2.00428	42.56
2.02095	42.89
2.03762	43.21
2.05428	43.54
2.07095	43.86
2.08762	44.21
2.10428	44.52
2.12095	44.84
2.13762	45.16
2.15428	45.49
2.17095	45.83
2.18762	46.15
2.20428	46.48
2.22095	46.79
2.23762	47.13
2.25428	47.45
2.27095	47.76
2.28762	48.10
2.30428	48.41
2.32095	48.77
2.33762	49.11
2.35428	49.38
2.37095	49.56
2.38762	49.61
2.40428	49.61
2.42095	49.63
2.43762	49.63
2.45428	49.65
2.47095	49.65
2.48762	49.71
2.50428	49.71
2.52095	49.74
2.53762	49.75
2.55428	49.76
2.57095	49.78
2.58762	49.79
2.60428	49.78
2.62095	49.83
2.63762	49.85
2.65428	49.85
2.67095	49.83
2.68762	49.85
2.70428	49.86
2.72095	49.86
2.73762	49.86
2.75428	49.84
2.77095	49.87
2.78762	49.90
2.80428	49.91
2.82095	49.91
2.83762	49.90
2.85428	49.90
2.87095	49.89
2.88762	49.89
2.90428	49.90
2.92095	49.91
2.93762	49.93
2.95428	49.95
2.97095	49.97
2.98762	49.98
3.00428	49.99
3.02095	50.00
3.03762	50.00
3.05428	50.01
3.07095	50.03
3.08762	50.04
3.10428	50.05
3.12095	50.04
3.13762	50.06
3.15428	50.06
3.17095	50.08
3.18762	50.09
3.20428	50.10
3.22095	50.10
3.23762	50.09
3.25428	50.08
3.27095	50.09
3.28762	50.09
3.30428	50.08
3.32095	50.06
3.33762	50.06
3.35428	50.06
3.37095	50.06
3.38762	50.06
3.40428	50.07
3.42095	50.08
3.43762	50.09
3.45428	50.10
3.47095	50.10
3.48762	50.10
3.50428	50.09
3.52095	50.07
3.53762	50.05
3.55428	50.03
3.57095	50.02
3.58762	50.02
3.60428	50.03
3.62095	50.04
3.63762	50.04
3.65428	50.04
3.67095	50.04
3.68762	50.04
3.70428	50.03
3.72095	50.04
3.73762	50.03
3.75428	50.04
3.77095	50.04
3.78762	50.05
3.80428	50.06
3.82095	50.06
3.83762	50.05
3.85428	50.05
3.87095	50.05
3.88762	50.04
3.90428	50.04
3.92095	50.04
3.93762	50.04
3.95428	50.04
3.97095	50.03
3.98762	50.03

[Status Trace (Injection Unit Temperature)]
Interval(msec)	1000
# of Points	240
Start Time(min)	0.004
End Time(min)	3.988
Intensity Units	
Intensity Multiplier	1
R.Time (min)	Intensity
0.00428	99.98
0.02095	99.98
0.03762	99.98
0.05428	99.98
0.07095	99.98
0.08762	99.98
0.10428	99.98
0.12095	99.98
0.13762	99.98
0.15428	99.98
0.17095	99.98
0.18762	99.98
0.20428	99.98
0.22095	99.98
0.23762	99.98
0.25428	99.98
0.27095	99.98
0.28762	99.98
0.30428	99.98
0.32095	99.98
0.33762	99.98
0.35428	99.98
0.37095	99.98
0.38762	99.99
0.40428	99.98
0.42095	99.97
0.43762	99.98
0.45428	99.98
0.47095	99.99
0.48762	99.98
0.50428	99.98
0.52095	99.98
0.53762	99.98
0.55428	99.99
0.57095	99.98
0.58762	99.98
0.60428	99.98
0.62095	99.99
0.63762	99.98
0.65428	99.98
0.67095	99.98
0.68762	99.98
0.70428	99.98
0.72095	99.98
0.73762	99.98
0.75428	99.98
0.77095	99.98
0.78762	99.98
0.80428	99.98
0.82095	99.98
0.83762	99.98
0.85428	99.98
0.87095	99.98
0.88762	99.98
0.90428	99.98
0.92095	99.98
0.93762	99.98
0.95428	99.98
0.97095	99.98
0.98762	99.98
1.00428	99.97
1.02095	99.98
1.03762	99.97
1.05428	99.98
1.07095	99.98
1.08762	99.98
1.10428	99.98
1.12095	99.98
1.13762	99.98
1.15428	99.98
1.17095	99.98
1.18762	99.98
1.20428	99.98
1.22095	99.98
1.23762	99.98
1.25428	99.98
1.27095	99.99
1.28762	99.98
1.30428	99.98
1.32095	99.98
1.33762	99.98
1.35428	99.98
1.37095	99.98
1.38762	99.98
1.40428	99.98
1.42095	99.98
1.43762	99.99
1.45428	99.99
1.47095	99.99
1.48762	99.98
1.50428	99.99
1.52095	99.98
1.53762	99.98
1.55428	99.98
1.57095	99.98
1.58762	99.99
1.60428	99.99
1.62095	99.98
1.63762	99.98
1.65428	99.98
1.67095	99.99
1.68762	99.98
1.70428	99.98
1.72095	99.98
1.73762	99.98
1.75428	99.98
1.77095	99.98
1.78762	99.98
1.80428	99.98
1.82095	99.98
1.83762	99.98
1.85428	99.98
1.87095	99.98
1.88762	99.98
1.90428	99.98
1.92095	99.98
1.93762	99.98
1.95428	99.98
1.97095	99.98
1.98762	99.98
2.00428	99.98
2.02095	99.98
2.03762	99.98
2.05428	99.97
2.07095	99.98
2.08762	99.98
2.10428	99.97
2.12095	99.97
2.13762	99.97
2.15428	99.97
2.17095	99.97
2.18762	99.98
2.20428	99.97
2.22095	99.97
2.23762	99.96
2.25428	99.97
2.27095	99.97
2.28762	99.97
2.30428	99.97
2.32095	99.97
2.33762	99.98
2.35428	99.97
2.37095	99.97
2.38762	99.97
2.40428	99.97
2.42095	99.97
2.43762	99.97
2.45428	99.97
2.47095	99.97
2.48762	99.97
2.50428	99.97
2.52095	99.98
2.53762	99.98
2.55428	99.97
2.57095	99.97
2.58762	99.97
2.60428	99.98
2.62095	99.98
2.63762	99.98
2.65428	99.98
2.67095	99.98
2.68762	99.98
2.70428	99.98
2.72095	99.98
2.73762	99.98
2.75428	99.98
2.77095	99.98
2.78762	99.99
2.80428	99.99
2.82095	99.99
2.83762	99.99
2.85428	100.00
2.87095	100.00
2.88762	100.00
2.90428	100.00
2.92095	100.00
2.93762	100.00
2.95428	100.00
2.97095	100.00
2.98762	100.00
3.00428	100.00
3.02095	100.01
3.03762	100.01
3.05428	100.01
3.07095	100.01
3.08762	100.01
3.10428	100.01
3.12095	100.01
3.13762	100.01
3.15428	100.02
3.17095	100.02
3.18762	100.02
3.20428	100.02
3.22095	100.02
3.23762	100.02
3.25428	100.02
3.27095	100.02
3.28762	100.02
3.30428	100.03
3.32095	100.03
3.33762	100.03
3.35428	100.02
3.37095	100.02
3.38762	100.03
3.40428	100.03
3.42095	100.03
3.43762	100.03
3.45428	100.03
3.47095	100.03
3.48762	100.03
3.50428	100.02
3.52095	100.04
3.53762	100.03
3.55428	100.03
3.57095	100.04
3.58762	100.03
3.60428	100.03
3.62095	100.04
3.63762	100.03
3.65428	100.04
3.67095	100.04
3.68762	100.04
3.70428	100.04
3.72095	100.05
3.73762	100.04
3.75428	100.04
3.77095	100.04
3.78762	100.04
3.80428	100.04
3.82095	100.04
3.83762	100.05
3.85428	100.04
3.87095	100.04
3.88762	100.05
3.90428	100.04
3.92095	100.04
3.93762	100.04
3.95428	100.05
3.97095	100.05
3.98762	100.04

[Status Trace (Carrier Gas Pressure)]
Interval(msec)	1000
# of Points	240
Start Time(min)	0.004
End Time(min)	3.988
Intensity Units	
Intensity Multiplier	1
R.Time (min)	Intensity
0.00428	58.00
0.02095	55.92
0.03762	56.64
0.05428	58.76
0.07095	59.77
0.08762	58.18
0.10428	57.97
0.12095	58.01
0.13762	58.01
0.15428	58.01
0.17095	58.00
0.18762	58.00
0.20428	58.00
0.22095	58.00
0.23762	58.00
0.25428	58.00
0.27095	58.00
0.28762	58.00
0.30428	58.00
0.32095	58.00
0.33762	58.00
0.35428	58.00
0.37095	58.00
0.38762	58.00
0.40428	58.00
0.42095	58.00
0.43762	58.00
0.45428	58.00
0.47095	58.00
0.48762	58.00
0.50428	58.00
0.52095	58.00
0.53762	58.00
0.55428	58.00
0.57095	58.00
0.58762	58.00
0.60428	58.00
0.62095	58.00
0.63762	58.00
0.65428	58.00
0.67095	58.00
0.68762	58.00
0.70428	58.00
0.72095	58.00
0.73762	58.00
0.75428	58.00
0.77095	58.00
0.78762	58.00
0.80428	58.00
0.82095	58.00
0.83762	58.00
0.85428	58.00
0.87095	58.00
0.88762	58.00
0.90428	58.00
0.92095	58.00
0.93762	58.00
0.95428	58.00
0.97095	58.00
0.98762	58.00
1.00428	58.00
1.02095	58.00
1.03762	58.00
1.05428	58.00
1.07095	58.00
1.08762	58.00
1.10428	58.00
1.12095	58.00
1.13762	58.00
1.15428	58.00
1.17095	58.00
1.18762	58.00
1.20428	58.00
1.22095	58.00
1.23762	58.00
1.25428	58.00
1.27095	58.00
1.28762	58.00
1.30428	58.00
1.32095	58.00
1.33762	58.00
1.35428	58.00
1.37095	58.00
1.38762	58.00
1.40428	58.00
1.42095	58.00
1.43762	58.00
1.45428	58.00
1.47095	58.00
1.48762	58.00
1.50428	58.00
1.52095	58.00
1.53762	58.00
1.55428	58.00
1.57095	58.00
1.58762	58.00
1.60428	58.00
1.62095	58.00
1.63762	58.01
1.65428	58.00
1.67095	58.00
1.68762	58.00
1.70428	58.00
1.72095	58.00
1.73762	58.00
1.75428	58.00
1.77095	58.00
1.78762	58.00
1.80428	58.00
1.82095	58.00
1.83762	58.00
1.85428	58.00
1.87095	58.00
1.88762	58.00
1.90428	58.00
1.92095	58.00
1.93762	58.00
1.95428	58.00
1.97095	58.00
1.98762	58.00
2.00428	58.00
2.02095	58.00
2.03762	58.00
2.05428	58.00
2.07095	58.00
2.08762	58.00
2.10428	58.00
2.12095	58.00
2.13762	58.00
2.15428	58.00
2.17095	58.00
2.18762	58.00
2.20428	58.00
2.22095	58.00
2.23762	58.00
2.25428	58.00
2.27095	58.00
2.28762	58.00
2.30428	58.00
2.32095	58.00
2.33762	58.00
2.35428	58.00
2.37095	58.00
2.38762	57.99
2.40428	57.99
2.42095	58.00
2.43762	58.00
2.45428	58.00
2.47095	58.00
2.48762	58.00
2.50428	57.98
2.52095	57.99
2.53762	58.00
2.55428	58.00
2.57095	58.00
2.58762	58.00
2.60428	58.00
2.62095	58.00
2.63762	58.00
2.65428	58.00
2.67095	58.00
2.68762	58.00
2.70428	58.00
2.72095	58.00
2.73762	58.00
2.75428	58.00
2.77095	58.00
2.78762	58.00
2.80428	58.00
2.82095	58.00
2.83762	58.00
2.85428	58.00
2.87095	58.00
2.88762	58.00
2.90428	58.00
2.92095	58.00
2.93762	58.00
2.95428	58.00
2.97095	58.00
2.98762	58.00
3.00428	58.00
3.02095	58.00
3.03762	58.00
3.05428	58.00
3.07095	58.00
3.08762	58.00
3.10428	58.00
3.12095	58.00
3.13762	58.00
3.15428	58.00
3.17095	58.00
3.18762	58.00
3.20428	58.00
3.22095	58.00
3.23762	58.00
3.25428	58.00
3.27095	58.00
3.28762	58.00
3.30428	58.00
3.32095	58.00
3.33762	58.00
3.35428	58.00
3.37095	58.00
3.38762	58.00
3.40428	58.00
3.42095	58.00
3.43762	58.00
3.45428	58.00
3.47095	58.00
3.48762	58.00
3.50428	58.00
3.52095	58.00
3.53762	58.00
3.55428	58.00
3.57095	58.00
3.58762	58.00
3.60428	58.00
3.62095	58.00
3.63762	58.00
3.65428	58.00
3.67095	58.00
3.68762	58.00
3.70428	58.00
3.72095	58.00
3.73762	58.00
3.75428	58.00
3.77095	58.00
3.78762	58.00
3.80428	58.00
3.82095	58.00
3.83762	58.00
3.85428	58.00
3.87095	58.00
3.88762	58.00
3.90428	58.00
3.92095	58.00
3.93762	58.00
3.95428	58.00
3.97095	58.00
3.98762	58.00

[Status Trace (Carrier Gas Flow)]
Interval(msec)	1000
# of Points	240
Start Time(min)	0.004
End Time(min)	3.988
Intensity Units	
Intensity Multiplier	1
R.Time (min)	Intensity
0.00428	34.52
0.02095	34.56
0.03762	34.54
0.05428	34.55
0.07095	34.49
0.08762	34.52
0.10428	34.52
0.12095	34.52
0.13762	34.52
0.15428	34.51
0.17095	34.52
0.18762	34.52
0.20428	34.53
0.22095	34.52
0.23762	34.51
0.25428	34.52
0.27095	34.52
0.28762	34.52
0.30428	34.52
0.32095	34.51
0.33762	34.52
0.35428	34.52
0.37095	34.52
0.38762	34.51
0.40428	34.52
0.42095	34.52
0.43762	34.52
0.45428	34.52
0.47095	34.52
0.48762	34.52
0.50428	34.51
0.52095	34.52
0.53762	34.52
0.55428	34.52
0.57095	34.52
0.58762	34.52
0.60428	34.52
0.62095	34.52
0.63762	34.52
0.65428	34.52
0.67095	34.52
0.68762	34.52
0.70428	34.52
0.72095	34.51
0.73762	34.52
0.75428	34.52
0.77095	34.52
0.78762	34.52
0.80428	34.52
0.82095	34.51
0.83762	34.52
0.85428	34.52
0.87095	34.52
0.88762	34.52
0.90428	34.52
0.92095	34.52
0.93762	34.52
0.95428	34.51
0.97095	34.52
0.98762	34.52
1.00428	34.52
1.02095	34.52
1.03762	34.52
1.05428	34.52
1.07095	34.52
1.08762	34.52
1.10428	34.52
1.12095	34.53
1.13762	34.52
1.15428	34.52
1.17095	34.52
1.18762	34.52
1.20428	34.52
1.22095	34.52
1.23762	34.51
1.25428	34.52
1.27095	34.52
1.28762	34.51
1.30428	34.52
1.32095	34.52
1.33762	34.52
1.35428	34.52
1.37095	34.52
1.38762	34.52
1.40428	34.51
1.42095	34.52
1.43762	34.52
1.45428	34.52
1.47095	34.52
1.48762	34.51
1.50428	34.52
1.52095	34.52
1.53762	34.51
1.55428	34.52
1.57095	34.52
1.58762	34.52
1.60428	34.51
1.62095	34.52
1.63762	34.52
1.65428	34.52
1.67095	34.52
1.68762	34.51
1.70428	34.52
1.72095	34.52
1.73762	34.53
1.75428	34.51
1.77095	34.52
1.78762	34.52
1.80428	34.52
1.82095	34.51
1.83762	34.51
1.85428	34.52
1.87095	34.52
1.88762	34.52
1.90428	34.52
1.92095	34.52
1.93762	34.53
1.95428	34.51
1.97095	34.52
1.98762	34.52
2.00428	34.51
2.02095	34.51
2.03762	34.52
2.05428	34.52
2.07095	34.52
2.08762	34.52
2.10428	34.52
2.12095	34.52
2.13762	34.52
2.15428	34.52
2.17095	34.51
2.18762	34.52
2.20428	34.52
2.22095	34.52
2.23762	34.52
2.25428	34.52
2.27095	34.52
2.28762	34.52
2.30428	34.52
2.32095	34.52
2.33762	34.52
2.35428	34.52
2.37095	34.52
2.38762	34.52
2.40428	34.52
2.42095	34.52
2.43762	34.51
2.45428	34.52
2.47095	34.52
2.48762	34.52
2.50428	34.63
2.52095	34.52
2.53762	34.52
2.55428	34.52
2.57095	34.51
2.58762	34.52
2.60428	34.52
2.62095	34.52
2.63762	34.51
2.65428	34.52
2.67095	34.52
2.68762	34.52
2.70428	34.52
2.72095	34.52
2.73762	34.52
2.75428	34.52
2.77095	34.52
2.78762	34.52
2.80428	34.52
2.82095	34.52
2.83762	34.52
2.85428	34.52
2.87095	34.52
2.88762	34.52
2.90428	34.52
2.92095	34.51
2.93762	34.52
2.95428	34.52
2.97095	34.51
2.98762	34.52
3.00428	34.52
3.02095	34.52
3.03762	34.52
3.05428	34.52
3.07095	34.52
3.08762	34.52
3.10428	34.52
3.12095	34.52
3.13762	34.52
3.15428	34.52
3.17095	34.52
3.18762	34.52
3.20428	34.52
3.22095	34.52
3.23762	34.52
3.25428	34.52
3.27095	34.52
3.28762	34.52
3.30428	34.51
3.32095	34.52
3.33762	34.52
3.35428	34.51
3.37095	34.52
3.38762	34.52
3.40428	34.52
3.42095	34.52
3.43762	34.51
3.45428	34.52
3.47095	34.52
3.48762	34.52
3.50428	34.52
3.52095	34.52
3.53762	34.52
3.55428	34.52
3.57095	34.52
3.58762	34.52
3.60428	34.52
3.62095	34.51
3.63762	34.52
3.65428	34.52
3.67095	34.52
3.68762	34.51
3.70428	34.52
3.72095	34.52
3.73762	34.52
3.75428	34.52
3.77095	34.52
3.78762	34.52
3.80428	34.52
3.82095	34.52
3.83762	34.52
3.85428	34.52
3.87095	34.52
3.88762	34.52
3.90428	34.52
3.92095	34.52
3.93762	34.52
3.95428	34.52
3.97095	34.52
3.98762	34.52

[Status Trace (Column Flow)]
Interval(msec)	1000
# of Points	240
Start Time(min)	0.004
End Time(min)	3.988
Intensity Units	
Intensity Multiplier	1
R.Time (min)	Intensity
0.00428	5.51
0.02095	5.27
0.03762	5.36
0.05428	5.60
0.07095	5.72
0.08762	5.54
0.10428	5.51
0.12095	5.51
0.13762	5.52
0.15428	5.51
0.17095	5.51
0.18762	5.51
0.20428	5.51
0.22095	5.51
0.23762	5.51
0.25428	5.51
0.27095	5.51
0.28762	5.51
0.30428	5.51
0.32095	5.51
0.33762	5.51
0.35428	5.51
0.37095	5.51
0.38762	5.51
0.40428	5.51
0.42095	5.51
0.43762	5.51
0.45428	5.52
0.47095	5.52
0.48762	5.52
0.50428	5.52
0.52095	5.52
0.53762	5.52
0.55428	5.52
0.57095	5.52
0.58762	5.52
0.60428	5.52
0.62095	5.52
0.63762	5.52
0.65428	5.52
0.67095	5.52
0.68762	5.52
0.70428	5.52
0.72095	5.52
0.73762	5.52
0.75428	5.52
0.77095	5.52
0.78762	5.52
0.80428	5.52
0.82095	5.52
0.83762	5.52
0.85428	5.52
0.87095	5.52
0.88762	5.52
0.90428	5.52
0.92095	5.52
0.93762	5.52
0.95428	5.52
0.97095	5.52
0.98762	5.52
1.00428	5.51
1.02095	5.52
1.03762	5.52
1.05428	5.52
1.07095	5.52
1.08762	5.52
1.10428	5.52
1.12095	5.52
1.13762	5.51
1.15428	5.51
1.17095	5.51
1.18762	5.51
1.20428	5.51
1.22095	5.51
1.23762	5.51
1.25428	5.51
1.27095	5.52
1.28762	5.52
1.30428	5.52
1.32095	5.52
1.33762	5.52
1.35428	5.52
1.37095	5.52
1.38762	5.52
1.40428	5.52
1.42095	5.52
1.43762	5.52
1.45428	5.52
1.47095	5.52
1.48762	5.52
1.50428	5.52
1.52095	5.52
1.53762	5.52
1.55428	5.52
1.57095	5.52
1.58762	5.52
1.60428	5.51
1.62095	5.51
1.63762	5.51
1.65428	5.50
1.67095	5.49
1.68762	5.48
1.70428	5.47
1.72095	5.45
1.73762	5.44
1.75428	5.43
1.77095	5.42
1.78762	5.41
1.80428	5.40
1.82095	5.39
1.83762	5.38
1.85428	5.37
1.87095	5.36
1.88762	5.35
1.90428	5.34
1.92095	5.33
1.93762	5.32
1.95428	5.31
1.97095	5.30
1.98762	5.30
2.00428	5.29
2.02095	5.28
2.03762	5.27
2.05428	5.26
2.07095	5.25
2.08762	5.24
2.10428	5.23
2.12095	5.22
2.13762	5.21
2.15428	5.20
2.17095	5.19
2.18762	5.18
2.20428	5.17
2.22095	5.16
2.23762	5.15
2.25428	5.14
2.27095	5.13
2.28762	5.13
2.30428	5.12
2.32095	5.11
2.33762	5.10
2.35428	5.09
2.37095	5.08
2.38762	5.08
2.40428	5.08
2.42095	5.08
2.43762	5.08
2.45428	5.08
2.47095	5.08
2.48762	5.08
2.50428	5.08
2.52095	5.08
2.53762	5.08
2.55428	5.08
2.57095	5.08
2.58762	5.08
2.60428	5.08
2.62095	5.08
2.63762	5.08
2.65428	5.08
2.67095	5.08
2.68762	5.08
2.70428	5.08
2.72095	5.08
2.73762	5.08
2.75428	5.08
2.77095	5.08
2.78762	5.08
2.80428	5.08
2.82095	5.08
2.83762	5.08
2.85428	5.08
2.87095	5.08
2.88762	5.08
2.90428	5.08
2.92095	5.07
2.93762	5.07
2.95428	5.07
2.97095	5.07
2.98762	5.07
3.00428	5.07
3.02095	5.07
3.03762	5.07
3.05428	5.07
3.07095	5.07
3.08762	5.07
3.10428	5.07
3.12095	5.07
3.13762	5.07
3.15428	5.07
3.17095	5.07
3.18762	5.07
3.20428	5.07
3.22095	5.07
3.23762	5.07
3.25428	5.07
3.27095	5.07
3.28762	5.07
3.30428	5.07
3.32095	5.07
3.33762	5.07
3.35428	5.07
3.37095	5.07
3.38762	5.07
3.40428	5.07
3.42095	5.07
3.43762	5.07
3.45428	5.07
3.47095	5.07
3.48762	5.07
3.50428	5.07
3.52095	5.07
3.53762	5.07
3.55428	5.07
3.57095	5.07
3.58762	5.07
3.60428	5.07
3.62095	5.07
3.63762	5.07
3.65428	5.07
3.67095	5.07
3.68762	5.07
3.70428	5.07
3.72095	5.07
3.73762	5.07
3.75428	5.07
3.77095	5.07
3.78762	5.07
3.80428	5.07
3.82095	5.07
3.83762	5.07
3.85428	5.07
3.87095	5.07
3.88762	5.07
3.90428	5.07
3.92095	5.07
3.93762	5.07
3.95428	5.07
3.97095	5.07
3.98762	5.07

[Status Trace (Linear Velocity)]
Interval(msec)	1000
# of Points	240
Start Time(min)	0.004
End Time(min)	3.988
Intensity Units	
Intensity Multiplier	1
R.Time (min)	Intensity
0.00428	39.01
0.02095	37.65
0.03762	38.12
0.05428	39.51
0.07095	40.17
0.08762	39.13
0.10428	38.99
0.12095	39.02
0.13762	39.02
0.15428	39.02
0.17095	39.01
0.18762	39.01
0.20428	39.01
0.22095	39.01
0.23762	39.01
0.25428	39.01
0.27095	39.01
0.28762	39.01
0.30428	39.01
0.32095	39.01
0.33762	39.01
0.35428	39.01
0.37095	39.01
0.38762	39.01
0.40428	39.01
0.42095	39.01
0.43762	39.01
0.45428	39.02
0.47095	39.02
0.48762	39.02
0.50428	39.02
0.52095	39.02
0.53762	39.01
0.55428	39.02
0.57095	39.02
0.58762	39.02
0.60428	39.02
0.62095	39.02
0.63762	39.02
0.65428	39.02
0.67095	39.02
0.68762	39.02
0.70428	39.02
0.72095	39.02
0.73762	39.02
0.75428	39.02
0.77095	39.02
0.78762	39.02
0.80428	39.02
0.82095	39.02
0.83762	39.02
0.85428	39.02
0.87095	39.02
0.88762	39.02
0.90428	39.02
0.92095	39.02
0.93762	39.02
0.95428	39.02
0.97095	39.02
0.98762	39.01
1.00428	39.01
1.02095	39.02
1.03762	39.02
1.05428	39.02
1.07095	39.02
1.08762	39.02
1.10428	39.02
1.12095	39.02
1.13762	39.01
1.15428	39.01
1.17095	39.01
1.18762	39.01
1.20428	39.01
1.22095	39.01
1.23762	39.01
1.25428	39.01
1.27095	39.01
1.28762	39.02
1.30428	39.02
1.32095	39.02
1.33762	39.02
1.35428	39.02
1.37095	39.02
1.38762	39.02
1.40428	39.02
1.42095	39.01
1.43762	39.01
1.45428	39.02
1.47095	39.02
1.48762	39.02
1.50428	39.02
1.52095	39.02
1.53762	39.02
1.55428	39.02
1.57095	39.02
1.58762	39.02
1.60428	39.01
1.62095	39.00
1.63762	38.99
1.65428	38.96
1.67095	38.93
1.68762	38.90
1.70428	38.87
1.72095	38.83
1.73762	38.80
1.75428	38.77
1.77095	38.74
1.78762	38.70
1.80428	38.67
1.82095	38.64
1.83762	38.61
1.85428	38.58
1.87095	38.55
1.88762	38.52
1.90428	38.49
1.92095	38.45
1.93762	38.42
1.95428	38.40
1.97095	38.36
1.98762	38.33
2.00428	38.31
2.02095	38.27
2.03762	38.24
2.05428	38.22
2.07095	38.18
2.08762	38.15
2.10428	38.13
2.12095	38.09
2.13762	38.07
2.15428	38.04
2.17095	38.00
2.18762	37.98
2.20428	37.95
2.22095	37.92
2.23762	37.89
2.25428	37.86
2.27095	37.83
2.28762	37.80
2.30428	37.77
2.32095	37.74
2.33762	37.71
2.35428	37.69
2.37095	37.67
2.38762	37.66
2.40428	37.66
2.42095	37.66
2.43762	37.66
2.45428	37.66
2.47095	37.66
2.48762	37.66
2.50428	37.64
2.52095	37.65
2.53762	37.65
2.55428	37.65
2.57095	37.65
2.58762	37.65
2.60428	37.65
2.62095	37.65
2.63762	37.64
2.65428	37.64
2.67095	37.65
2.68762	37.65
2.70428	37.64
2.72095	37.64
2.73762	37.64
2.75428	37.64
2.77095	37.64
2.78762	37.64
2.80428	37.64
2.82095	37.64
2.83762	37.64
2.85428	37.64
2.87095	37.64
2.88762	37.64
2.90428	37.64
2.92095	37.64
2.93762	37.64
2.95428	37.64
2.97095	37.63
2.98762	37.63
3.00428	37.63
3.02095	37.63
3.03762	37.63
3.05428	37.63
3.07095	37.63
3.08762	37.63
3.10428	37.63
3.12095	37.63
3.13762	37.63
3.15428	37.63
3.17095	37.62
3.18762	37.62
3.20428	37.62
3.22095	37.62
3.23762	37.62
3.25428	37.62
3.27095	37.62
3.28762	37.62
3.30428	37.62
3.32095	37.63
3.33762	37.63
3.35428	37.63
3.37095	37.63
3.38762	37.63
3.40428	37.63
3.42095	37.62
3.43762	37.62
3.45428	37.62
3.47095	37.62
3.48762	37.62
3.50428	37.62
3.52095	37.63
3.53762	37.63
3.55428	37.63
3.57095	37.63
3.58762	37.63
3.60428	37.63
3.62095	37.63
3.63762	37.63
3.65428	37.63
3.67095	37.63
3.68762	37.63
3.70428	37.63
3.72095	37.63
3.73762	37.63
3.75428	37.63
3.77095	37.63
3.78762	37.63
3.80428	37.63
3.82095	37.63
3.83762	37.63
3.85428	37.63
3.87095	37.63
3.88762	37.63
3.90428	37.63
3.92095	37.63
3.93762	37.63
3.95428	37.63
3.97095	37.63
3.98762	37.63

