[Header]
Application Name	LabSolutions
Version	5.110
Data File Name	C:\Users\User\Desktop\GC Analyses\Jack\Nachusa Grasslands Sampling\T2 Timepoint July 12th\T2_07122022_087.gcd
Output Date	3/14/2023
Output Time	3:42:35 PM

[File Information]
Type	Data File
Generated	3/10/2023 10:10:52 PM
Generated by	System Administrator
Modified	3/10/2023 10:17:36 PM
Modified by	System Administrator

[Sample Information]
Operator Name	System Administrator
Acquired	3/10/2023 10:13:35 PM
Sample Type	0:Unknown
Level	0
Sample Name	087
Sample ID	087
ISTD Amount1	1
ISTD Amount2	1
ISTD Amount3	1
ISTD Amount4	1
ISTD Amount5	1
ISTD Amount6	1
ISTD Amount7	1
ISTD Amount8	1
ISTD Amount9	1
ISTD Amount10	1
ISTD Amount11	1
ISTD Amount12	1
ISTD Amount13	1
ISTD Amount14	1
ISTD Amount15	1
ISTD Amount16	1
ISTD Amount17	1
ISTD Amount18	1
ISTD Amount19	1
ISTD Amount20	1
ISTD Amount21	1
ISTD Amount22	1
ISTD Amount23	1
ISTD Amount24	1
ISTD Amount25	1
ISTD Amount26	1
ISTD Amount27	1
ISTD Amount28	1
ISTD Amount29	1
ISTD Amount30	1
ISTD Amount31	1
ISTD Amount32	1
Sample Amount	1
Dilution Factor	1
Vial#	86
Injection Volume	1
Injection Count	1
Bar Code	

[Original Files]
Data File	C:\Users\User\Desktop\GC Analyses\Jack\Nachusa Grasslands Sampling\T1 Timepoint July 12th\T2_07122022_087.gcd
Method File	C:\LabSolutions\Data\GHG_4min_2022\ghg3_togas_w_acet_4 min_new_int.gcm
Batch File	C:\LabSolutions\Data\AutoSamplerTesting\T2_07122022.gcb
Report Format File	c:\LabSolutions\System\DEFAULT.lsr

[File Description]


[Configuration]
Instrument Name	C0B7VH3-Instrument1
Instrument #	1
Line #	1
# of Detectors	3
Detector ID	DET#1	DET#2	DET#3
Detector Name	FID	PTCD	ECD
# of Channels	1	1	1

[Peak Table(Ch1)]
# of Peaks	3
Peak#	R.Time	I.Time	F.Time	Area	Height	A/H	Conc.	Mark	ID#	Name	k'	Plate #	Plate Ht.	Tailing	Resolution	Sep.Factor	Area Ratio	Height Ratio	Conc. %	Norm Conc.
1	1.476	1.435	1.538	27901	13302	2.098	196.979	   	1	CO	0.000	9318	16.099	1.288	0.000	0.000	0	0	24.610	24.610
2	1.567	1.538	1.637	4642	2255	2.059	89.757	 V 	2	CH4	0.062	10236	14.654	0.000	1.489	0.000	0	0	11.214	11.214
3	1.996	1.949	2.543	2046688	978108	2.092	513.663	   	3	CO2	0.353	17479	8.582	1.248	7.012	5.680	0	0	64.176	64.176

[Peak Table(Ch2)]
# of Peaks	0

[Peak Table(Ch3)]
# of Peaks	5
Peak#	R.Time	I.Time	F.Time	Area	Height	A/H	Conc.	Mark	ID#	Name	k'	Plate #	Plate Ht.	Tailing	Resolution	Sep.Factor	Area Ratio	Height Ratio	Conc. %	Norm Conc.
1	2.462	2.290	2.513	2062	644	3.204	0.000	   			0.000	12198	12.297	0.000	0.000	0.000	0	0	0.000	0.000
2	2.532	2.513	2.631	772	252	3.068	0.000	 V 			0.028	9249	16.219	0.000	0.716	0.000	0	0	0.000	0.000
3	2.876	2.722	3.012	19833	5065	3.916	0.507	   	1	N2O	0.168	12921	11.609	1.697	3.338	5.947	0	0	100.000	100.000
4	3.104	3.016	3.159	3742	531	7.040	0.000	   	2	SF6	0.261	129	1164.386	0.000	0.380	1.549	0	0	0.000	0.000
5	3.302	3.159	3.995	15980	566	28.226	0.000	 V 	2	SF6	0.341	19	7706.180	0.000	0.097	1.309	0	0	0.000	0.000

[Compound Results(Ch1)]
# of IDs	6
ID#	Name	R.Time	Area	Height	Conc.	Curve	3rd	2nd	1st	Constant	Area Ratio	Height Ratio	Conc. %	Norm Conc.
1	CO	1.476	27901	13302	196.979	Linear	0.000000e+00	0.000000e+00	1.416423e+002	0.000000e+00	0	0	24.610	24.610
2	CH4	1.567	4642	2255	89.757	Linear	0.000000e+00	0.000000e+00	5.171738e+001	0.000000e+00	0	0	11.214	11.214
3	CO2	1.996	2046688	978108	513.663	Linear	0.000000e+00	0.000000e+00	3.984494e+003	0.000000e+00	0	0	64.176	64.176
4	Ethylene	0.000	0	0	0.000	Linear	0.000000e+00	0.000000e+00	0.000000e+00	0.000000e+00	0	0	0.000	0.000
5	Acetylene	0.000	0	0	0.000	Linear	0.000000e+00	0.000000e+00	0.000000e+00	0.000000e+00	0	0	0.000	0.000
6	Ethane	0.000	0	0	0.000	Linear	0.000000e+00	0.000000e+00	0.000000e+00	0.000000e+00	0	0	0.000	0.000

[Compound Results(Ch2)]
# of IDs	5
ID#	Name	R.Time	Area	Height	Conc.	Curve	3rd	2nd	1st	Constant	Area Ratio	Height Ratio	Conc. %	Norm Conc.
1	Hydrogen	0.000	0	0	0.000	Linear	0.000000e+00	0.000000e+00	0.000000e+00	0.000000e+00	0	0	0.000	0.000
2	Oxygen	0.000	0	0	0.000	Linear	0.000000e+00	0.000000e+00	0.000000e+00	0.000000e+00	0	0	0.000	0.000
3	Nitrogen	0.000	0	0	0.000	Linear	0.000000e+00	0.000000e+00	0.000000e+00	0.000000e+00	0	0	0.000	0.000
4	Methane	0.000	0	0	0.000	Linear	0.000000e+00	0.000000e+00	0.000000e+00	0.000000e+00	0	0	0.000	0.000
5	Carbon Monoxide	0.000	0	0	0.000	Linear	0.000000e+00	0.000000e+00	0.000000e+00	0.000000e+00	0	0	0.000	0.000

[Compound Results(Ch3)]
# of IDs	2
ID#	Name	R.Time	Area	Height	Conc.	Curve	3rd	2nd	1st	Constant	Area Ratio	Height Ratio	Conc. %	Norm Conc.
1	N2O	2.876	19833	5065	0.507	Linear	0.000000e+00	0.000000e+00	3.915173e+004	0.000000e+00	0	0	100.000	100.000
2	SF6	3.302	19722	1098	0.000	Linear	0.000000e+00	0.000000e+00	0.000000e+00	0.000000e+00	0	0	0.000	0.000

[Group Results(Ch1)]
# of Groups	0

[Group Results(Ch2)]
# of Groups	0

[Group Results(Ch3)]
# of Groups	0

[Chromatogram (Ch1)]
Interval(msec)	220
# of Points	1091
Start Time(min)	0.002
End Time(min)	3.998
R.Time (min)	Intensity
0.00167	21
0.00533	22
0.00900	23
0.01267	29
0.01633	37
0.02000	42
0.02367	41
0.02733	34
0.03100	30
0.03467	30
0.03833	31
0.04200	34
0.04567	33
0.04933	30
0.05300	25
0.05667	24
0.06033	24
0.06400	24
0.06767	23
0.07133	20
0.07500	17
0.07867	9
0.08233	2
0.08600	1
0.08967	6
0.09333	13
0.09700	21
0.10067	25
0.10433	24
0.10800	22
0.11167	23
0.11533	25
0.11900	25
0.12267	29
0.12633	45
0.13000	64
0.13367	75
0.13733	80
0.14100	81
0.14467	80
0.14833	72
0.15200	55
0.15567	37
0.15933	22
0.16300	11
0.16667	4
0.17033	5
0.17400	16
0.17767	32
0.18133	45
0.18500	52
0.18867	56
0.19233	64
0.19600	73
0.19967	83
0.20333	90
0.20700	97
0.21067	100
0.21433	100
0.21800	98
0.22167	98
0.22533	96
0.22900	94
0.23267	94
0.23633	95
0.24000	97
0.24367	99
0.24733	104
0.25100	108
0.25467	108
0.25833	106
0.26200	103
0.26567	99
0.26933	95
0.27300	89
0.27667	85
0.28033	85
0.28400	86
0.28767	86
0.29133	85
0.29500	83
0.29867	83
0.30233	81
0.30600	78
0.30967	74
0.31333	68
0.31700	60
0.32067	54
0.32433	49
0.32800	45
0.33167	45
0.33533	45
0.33900	46
0.34267	48
0.34633	48
0.35000	48
0.35367	49
0.35733	54
0.36100	56
0.36467	59
0.36833	61
0.37200	64
0.37567	66
0.37933	64
0.38300	60
0.38667	55
0.39033	51
0.39400	48
0.39767	42
0.40133	37
0.40500	37
0.40867	40
0.41233	43
0.41600	41
0.41967	39
0.42333	37
0.42700	36
0.43067	37
0.43433	44
0.43800	49
0.44167	50
0.44533	54
0.44900	62
0.45267	64
0.45633	59
0.46000	57
0.46367	60
0.46733	66
0.47100	70
0.47467	68
0.47833	59
0.48200	45
0.48567	31
0.48933	23
0.49300	24
0.49667	26
0.50033	29
0.50400	34
0.50767	40
0.51133	46
0.51500	52
0.51867	55
0.52233	55
0.52600	54
0.52967	52
0.53333	51
0.53700	51
0.54067	56
0.54433	64
0.54800	70
0.55167	71
0.55533	66
0.55900	55
0.56267	46
0.56633	40
0.57000	38
0.57367	43
0.57733	51
0.58100	58
0.58467	62
0.58833	66
0.59200	69
0.59567	65
0.59933	58
0.60300	49
0.60667	43
0.61033	41
0.61400	39
0.61767	39
0.62133	40
0.62500	41
0.62867	45
0.63233	52
0.63600	60
0.63967	61
0.64333	58
0.64700	53
0.65067	49
0.65433	46
0.65800	49
0.66167	49
0.66533	45
0.66900	46
0.67267	53
0.67633	54
0.68000	51
0.68367	47
0.68733	46
0.69100	47
0.69467	50
0.69833	49
0.70200	47
0.70567	47
0.70933	49
0.71300	48
0.71667	50
0.72033	57
0.72400	63
0.72767	64
0.73133	60
0.73500	56
0.73867	55
0.74233	56
0.74600	61
0.74967	69
0.75333	78
0.75700	84
0.76067	88
0.76433	87
0.76800	74
0.77167	53
0.77533	39
0.77900	34
0.78267	36
0.78633	39
0.79000	42
0.79367	46
0.79733	50
0.80100	52
0.80467	51
0.80833	43
0.81200	32
0.81567	24
0.81933	21
0.82300	21
0.82667	25
0.83033	32
0.83400	40
0.83767	41
0.84133	35
0.84500	27
0.84867	18
0.85233	13
0.85600	14
0.85967	22
0.86333	33
0.86700	46
0.87067	58
0.87433	62
0.87800	62
0.88167	60
0.88533	53
0.88900	43
0.89267	31
0.89633	19
0.90000	8
0.90367	4
0.90733	6
0.91100	12
0.91467	18
0.91833	20
0.92200	21
0.92567	22
0.92933	21
0.93300	24
0.93667	27
0.94033	33
0.94400	39
0.94767	41
0.95133	40
0.95500	36
0.95867	26
0.96233	18
0.96600	13
0.96967	11
0.97333	14
0.97700	20
0.98067	28
0.98433	31
0.98800	29
0.99167	28
0.99533	25
0.99900	23
1.00267	24
1.00633	28
1.01000	35
1.01367	43
1.01733	51
1.02100	57
1.02467	61
1.02833	58
1.03200	53
1.03567	50
1.03933	49
1.04300	51
1.04667	54
1.05033	58
1.05400	60
1.05767	60
1.06133	59
1.06500	58
1.06867	57
1.07233	56
1.07600	53
1.07967	44
1.08333	33
1.08700	25
1.09067	19
1.09433	15
1.09800	14
1.10167	18
1.10533	23
1.10900	31
1.11267	38
1.11633	42
1.12000	45
1.12367	46
1.12733	43
1.13100	41
1.13467	41
1.13833	43
1.14200	49
1.14567	57
1.14933	65
1.15300	70
1.15667	71
1.16033	65
1.16400	61
1.16767	64
1.17133	65
1.17500	59
1.17867	45
1.18233	32
1.18600	27
1.18967	24
1.19333	23
1.19700	21
1.20067	21
1.20433	24
1.20800	29
1.21167	36
1.21533	40
1.21900	39
1.22267	39
1.22633	41
1.23000	43
1.23367	44
1.23733	50
1.24100	54
1.24467	55
1.24833	53
1.25200	49
1.25567	50
1.25933	56
1.26300	59
1.26667	58
1.27033	58
1.27400	58
1.27767	55
1.28133	49
1.28500	42
1.28867	36
1.29233	33
1.29600	32
1.29967	29
1.30333	28
1.30700	27
1.31067	25
1.31433	22
1.31800	26
1.32167	37
1.32533	45
1.32900	47
1.33267	51
1.33633	59
1.34000	65
1.34367	68
1.34733	61
1.35100	48
1.35467	33
1.35833	21
1.36200	14
1.36567	13
1.36933	16
1.37300	17
1.37667	18
1.38033	21
1.38400	26
1.38767	26
1.39133	21
1.39500	17
1.39867	16
1.40233	11
1.40600	8
1.40967	8
1.41333	11
1.41700	15
1.42067	17
1.42433	17
1.42800	15
1.43167	14
1.43533	21
1.43900	53
1.44267	163
1.44633	420
1.45000	1059
1.45367	2491
1.45733	4739
1.46100	7331
1.46467	9742
1.46833	11655
1.47200	12895
1.47567	13331
1.47933	12878
1.48300	11592
1.48667	9748
1.49033	7735
1.49400	5876
1.49767	4333
1.50133	3140
1.50500	2263
1.50867	1639
1.51233	1200
1.51600	898
1.51967	691
1.52333	548
1.52700	447
1.53067	372
1.53433	318
1.53800	296
1.54167	346
1.54533	524
1.54900	852
1.55267	1261
1.55633	1655
1.56000	1980
1.56367	2207
1.56733	2304
1.57100	2243
1.57467	2023
1.57833	1691
1.58200	1326
1.58567	989
1.58933	715
1.59300	512
1.59667	369
1.60033	275
1.60400	211
1.60767	168
1.61133	142
1.61500	125
1.61867	113
1.62233	102
1.62600	90
1.62967	81
1.63333	73
1.63700	65
1.64067	62
1.64433	65
1.64800	66
1.65167	65
1.65533	65
1.65900	65
1.66267	62
1.66633	58
1.67000	53
1.67367	47
1.67733	45
1.68100	47
1.68467	54
1.68833	59
1.69200	59
1.69567	56
1.69933	53
1.70300	56
1.70667	61
1.71033	62
1.71400	58
1.71767	54
1.72133	53
1.72500	52
1.72867	51
1.73233	47
1.73600	42
1.73967	35
1.74333	32
1.74700	35
1.75067	42
1.75433	52
1.75800	60
1.76167	64
1.76533	68
1.76900	70
1.77267	66
1.77633	58
1.78000	49
1.78367	41
1.78733	38
1.79100	43
1.79467	60
1.79833	80
1.80200	89
1.80567	88
1.80933	80
1.81300	69
1.81667	63
1.82033	60
1.82400	57
1.82767	53
1.83133	49
1.83500	43
1.83867	36
1.84233	28
1.84600	24
1.84967	22
1.85333	20
1.85700	23
1.86067	31
1.86433	42
1.86800	46
1.87167	47
1.87533	50
1.87900	53
1.88267	53
1.88633	52
1.89000	51
1.89367	48
1.89733	46
1.90100	44
1.90467	46
1.90833	52
1.91200	62
1.91567	74
1.91933	81
1.92300	82
1.92667	83
1.93033	87
1.93400	90
1.93767	93
1.94133	91
1.94500	86
1.94867	85
1.95233	114
1.95600	352
1.95967	1741
1.96333	7803
1.96700	27733
1.97067	77968
1.97433	175893
1.97800	325646
1.98167	509221
1.98533	694148
1.98900	848221
1.99267	947423
1.99633	978230
2.00000	939282
2.00367	841956
2.00733	707849
2.01100	562012
2.01467	425399
2.01833	310380
2.02200	220811
2.02567	154864
2.02933	108170
2.03300	75950
2.03667	54049
2.04033	39265
2.04400	29284
2.04767	22494
2.05133	17815
2.05500	14535
2.05867	12182
2.06233	10448
2.06600	9140
2.06967	8127
2.07333	7321
2.07700	6668
2.08067	6125
2.08433	5663
2.08800	5268
2.09167	4929
2.09533	4633
2.09900	4374
2.10267	4144
2.10633	3936
2.11000	3748
2.11367	3579
2.11733	3424
2.12100	3282
2.12467	3154
2.12833	3035
2.13200	2917
2.13567	2796
2.13933	2677
2.14300	2567
2.14667	2467
2.15033	2382
2.15400	2311
2.15767	2238
2.16133	2162
2.16500	2093
2.16867	2033
2.17233	1979
2.17600	1928
2.17967	1879
2.18333	1833
2.18700	1791
2.19067	1746
2.19433	1703
2.19800	1664
2.20167	1631
2.20533	1602
2.20900	1570
2.21267	1530
2.21633	1488
2.22000	1451
2.22367	1420
2.22733	1392
2.23100	1365
2.23467	1341
2.23833	1311
2.24200	1277
2.24567	1248
2.24933	1226
2.25300	1207
2.25667	1194
2.26033	1183
2.26400	1171
2.26767	1155
2.27133	1136
2.27500	1119
2.27867	1103
2.28233	1084
2.28600	1063
2.28967	1037
2.29333	1010
2.29700	987
2.30067	971
2.30433	962
2.30800	954
2.31167	945
2.31533	939
2.31900	934
2.32267	927
2.32633	916
2.33000	901
2.33367	884
2.33733	867
2.34100	858
2.34467	855
2.34833	851
2.35200	839
2.35567	825
2.35933	810
2.36300	795
2.36667	780
2.37033	767
2.37400	763
2.37767	763
2.38133	763
2.38500	756
2.38867	744
2.39233	731
2.39600	722
2.39967	713
2.40333	703
2.40700	693
2.41067	687
2.41433	688
2.41800	685
2.42167	679
2.42533	672
2.42900	665
2.43267	662
2.43633	660
2.44000	661
2.44367	663
2.44733	664
2.45100	659
2.45467	652
2.45833	644
2.46200	632
2.46567	616
2.46933	604
2.47300	600
2.47667	600
2.48033	608
2.48400	616
2.48767	617
2.49133	614
2.49500	607
2.49867	595
2.50233	579
2.50600	566
2.50967	562
2.51333	567
2.51700	576
2.52067	584
2.52433	587
2.52800	584
2.53167	581
2.53533	574
2.53900	563
2.54267	554
2.54633	549
2.55000	546
2.55367	545
2.55733	548
2.56100	549
2.56467	550
2.56833	546
2.57200	536
2.57567	525
2.57933	515
2.58300	508
2.58667	504
2.59033	504
2.59400	507
2.59767	516
2.60133	522
2.60500	520
2.60867	514
2.61233	510
2.61600	505
2.61967	498
2.62333	494
2.62700	494
2.63067	494
2.63433	494
2.63800	494
2.64167	495
2.64533	501
2.64900	510
2.65267	518
2.65633	522
2.66000	521
2.66367	510
2.66733	492
2.67100	476
2.67467	470
2.67833	471
2.68200	473
2.68567	474
2.68933	475
2.69300	477
2.69667	475
2.70033	468
2.70400	464
2.70767	463
2.71133	465
2.71500	469
2.71867	474
2.72233	473
2.72600	466
2.72967	463
2.73333	465
2.73700	468
2.74067	467
2.74433	467
2.74800	466
2.75167	460
2.75533	453
2.75900	450
2.76267	454
2.76633	458
2.77000	458
2.77367	460
2.77733	461
2.78100	459
2.78467	457
2.78833	453
2.79200	451
2.79567	451
2.79933	453
2.80300	454
2.80667	456
2.81033	455
2.81400	448
2.81767	439
2.82133	434
2.82500	432
2.82867	432
2.83233	431
2.83600	431
2.83967	432
2.84333	429
2.84700	428
2.85067	432
2.85433	436
2.85800	434
2.86167	428
2.86533	419
2.86900	412
2.87267	412
2.87633	413
2.88000	414
2.88367	416
2.88733	417
2.89100	418
2.89467	417
2.89833	417
2.90200	421
2.90567	424
2.90933	425
2.91300	422
2.91667	420
2.92033	421
2.92400	422
2.92767	423
2.93133	426
2.93500	429
2.93867	431
2.94233	429
2.94600	420
2.94967	411
2.95333	403
2.95700	397
2.96067	392
2.96433	387
2.96800	384
2.97167	384
2.97533	387
2.97900	391
2.98267	392
2.98633	395
2.99000	399
2.99367	407
2.99733	411
3.00100	412
3.00467	409
3.00833	406
3.01200	407
3.01567	408
3.01933	402
3.02300	396
3.02667	392
3.03033	389
3.03400	390
3.03767	395
3.04133	396
3.04500	391
3.04867	384
3.05233	381
3.05600	381
3.05967	380
3.06333	379
3.06700	376
3.07067	374
3.07433	374
3.07800	375
3.08167	375
3.08533	369
3.08900	363
3.09267	361
3.09633	362
3.10000	363
3.10367	366
3.10733	369
3.11100	366
3.11467	361
3.11833	359
3.12200	358
3.12567	360
3.12933	367
3.13300	373
3.13667	372
3.14033	362
3.14400	350
3.14767	344
3.15133	343
3.15500	342
3.15867	341
3.16233	343
3.16600	346
3.16967	348
3.17333	347
3.17700	344
3.18067	339
3.18433	335
3.18800	335
3.19167	330
3.19533	321
3.19900	315
3.20267	311
3.20633	311
3.21000	313
3.21367	316
3.21733	320
3.22100	322
3.22467	325
3.22833	326
3.23200	327
3.23567	326
3.23933	322
3.24300	319
3.24667	311
3.25033	303
3.25400	302
3.25767	307
3.26133	313
3.26500	317
3.26867	318
3.27233	319
3.27600	323
3.27967	328
3.28333	329
3.28700	326
3.29067	321
3.29433	316
3.29800	313
3.30167	317
3.30533	316
3.30900	311
3.31267	309
3.31633	312
3.32000	316
3.32367	319
3.32733	322
3.33100	322
3.33467	319
3.33833	312
3.34200	303
3.34567	295
3.34933	289
3.35300	285
3.35667	282
3.36033	282
3.36400	284
3.36767	288
3.37133	290
3.37500	290
3.37867	288
3.38233	285
3.38600	284
3.38967	283
3.39333	281
3.39700	283
3.40067	284
3.40433	283
3.40800	278
3.41167	273
3.41533	270
3.41900	273
3.42267	282
3.42633	289
3.43000	290
3.43367	287
3.43733	286
3.44100	279
3.44467	267
3.44833	256
3.45200	250
3.45567	250
3.45933	254
3.46300	262
3.46667	272
3.47033	280
3.47400	280
3.47767	275
3.48133	268
3.48500	260
3.48867	253
3.49233	246
3.49600	241
3.49967	240
3.50333	243
3.50700	248
3.51067	253
3.51433	256
3.51800	256
3.52167	254
3.52533	249
3.52900	245
3.53267	245
3.53633	242
3.54000	241
3.54367	242
3.54733	245
3.55100	250
3.55467	254
3.55833	256
3.56200	261
3.56567	264
3.56933	262
3.57300	252
3.57667	240
3.58033	231
3.58400	227
3.58767	226
3.59133	224
3.59500	219
3.59867	214
3.60233	212
3.60600	212
3.60967	214
3.61333	218
3.61700	222
3.62067	226
3.62433	231
3.62800	237
3.63167	245
3.63533	247
3.63900	247
3.64267	243
3.64633	237
3.65000	229
3.65367	221
3.65733	217
3.66100	218
3.66467	222
3.66833	222
3.67200	219
3.67567	215
3.67933	212
3.68300	210
3.68667	209
3.69033	213
3.69400	222
3.69767	229
3.70133	226
3.70500	222
3.70867	220
3.71233	221
3.71600	224
3.71967	226
3.72333	226
3.72700	226
3.73067	222
3.73433	218
3.73800	217
3.74167	219
3.74533	222
3.74900	224
3.75267	226
3.75633	224
3.76000	217
3.76367	211
3.76733	207
3.77100	205
3.77467	201
3.77833	193
3.78200	186
3.78567	180
3.78933	175
3.79300	174
3.79667	173
3.80033	174
3.80400	178
3.80767	180
3.81133	180
3.81500	180
3.81867	185
3.82233	188
3.82600	187
3.82967	187
3.83333	188
3.83700	184
3.84067	178
3.84433	173
3.84800	167
3.85167	166
3.85533	168
3.85900	169
3.86267	174
3.86633	185
3.87000	188
3.87367	185
3.87733	187
3.88100	194
3.88467	204
3.88833	212
3.89200	217
3.89567	220
3.89933	219
3.90300	212
3.90667	199
3.91033	181
3.91400	161
3.91767	143
3.92133	131
3.92500	127
3.92867	130
3.93233	141
3.93600	153
3.93967	161
3.94333	165
3.94700	167
3.95067	167
3.95433	162
3.95800	157
3.96167	158
3.96533	164
3.96900	172
3.97267	173
3.97633	171
3.98000	174
3.98367	179
3.98733	182
3.99100	176
3.99467	166
3.99833	156

[Chromatogram (Ch2)]
Interval(msec)	220
# of Points	1091
Start Time(min)	0.002
End Time(min)	3.998
R.Time (min)	Intensity
0.00167	1
0.00533	2
0.00900	2
0.01267	2
0.01633	2
0.02000	2
0.02367	2
0.02733	2
0.03100	2
0.03467	2
0.03833	2
0.04200	2
0.04567	1
0.04933	1
0.05300	0
0.05667	-0
0.06033	-1
0.06400	-1
0.06767	-1
0.07133	-1
0.07500	-1
0.07867	-1
0.08233	-1
0.08600	-2
0.08967	-2
0.09333	-2
0.09700	-2
0.10067	-2
0.10433	-2
0.10800	-2
0.11167	-2
0.11533	-2
0.11900	-2
0.12267	-2
0.12633	-2
0.13000	-2
0.13367	-2
0.13733	-2
0.14100	-1
0.14467	-1
0.14833	-1
0.15200	-1
0.15567	-1
0.15933	-1
0.16300	-1
0.16667	-1
0.17033	-1
0.17400	-0
0.17767	-0
0.18133	0
0.18500	0
0.18867	0
0.19233	-0
0.19600	-0
0.19967	-0
0.20333	-0
0.20700	-1
0.21067	-1
0.21433	-1
0.21800	-1
0.22167	-1
0.22533	-1
0.22900	-1
0.23267	-1
0.23633	-1
0.24000	-0
0.24367	-0
0.24733	-1
0.25100	-1
0.25467	-1
0.25833	-1
0.26200	-0
0.26567	-0
0.26933	-0
0.27300	-0
0.27667	-0
0.28033	-0
0.28400	-1
0.28767	-1
0.29133	-1
0.29500	-1
0.29867	-1
0.30233	-1
0.30600	-1
0.30967	-1
0.31333	-1
0.31700	-1
0.32067	-1
0.32433	-1
0.32800	-0
0.33167	0
0.33533	1
0.33900	1
0.34267	1
0.34633	1
0.35000	1
0.35367	1
0.35733	1
0.36100	2
0.36467	2
0.36833	2
0.37200	2
0.37567	2
0.37933	2
0.38300	2
0.38667	2
0.39033	3
0.39400	3
0.39767	3
0.40133	3
0.40500	3
0.40867	3
0.41233	3
0.41600	3
0.41967	3
0.42333	3
0.42700	3
0.43067	3
0.43433	2
0.43800	2
0.44167	2
0.44533	1
0.44900	1
0.45267	0
0.45633	-0
0.46000	-1
0.46367	-2
0.46733	-3
0.47100	-3
0.47467	-4
0.47833	-4
0.48200	-5
0.48567	-5
0.48933	-4
0.49300	-4
0.49667	-4
0.50033	-4
0.50400	-3
0.50767	-3
0.51133	-3
0.51500	-2
0.51867	-2
0.52233	-1
0.52600	-1
0.52967	-1
0.53333	-1
0.53700	-1
0.54067	-1
0.54433	-1
0.54800	-1
0.55167	-1
0.55533	-1
0.55900	-1
0.56267	-2
0.56633	-2
0.57000	-2
0.57367	-2
0.57733	-2
0.58100	-2
0.58467	-3
0.58833	-3
0.59200	-3
0.59567	-3
0.59933	-3
0.60300	-2
0.60667	-2
0.61033	-2
0.61400	-2
0.61767	-2
0.62133	-2
0.62500	-2
0.62867	-2
0.63233	-2
0.63600	-2
0.63967	-2
0.64333	-2
0.64700	-2
0.65067	-2
0.65433	-2
0.65800	-2
0.66167	-2
0.66533	-2
0.66900	-2
0.67267	-2
0.67633	-2
0.68000	-2
0.68367	-2
0.68733	-2
0.69100	-2
0.69467	-2
0.69833	-2
0.70200	-2
0.70567	-2
0.70933	-2
0.71300	-1
0.71667	-1
0.72033	-1
0.72400	-0
0.72767	-0
0.73133	-0
0.73500	-0
0.73867	-0
0.74233	-1
0.74600	-1
0.74967	-1
0.75333	-2
0.75700	-2
0.76067	-2
0.76433	-2
0.76800	-2
0.77167	-3
0.77533	-3
0.77900	-3
0.78267	-3
0.78633	-3
0.79000	-3
0.79367	-3
0.79733	-3
0.80100	-2
0.80467	-2
0.80833	-2
0.81200	-2
0.81567	-2
0.81933	-2
0.82300	-2
0.82667	-2
0.83033	-2
0.83400	-2
0.83767	-2
0.84133	-2
0.84500	-2
0.84867	-2
0.85233	-2
0.85600	-2
0.85967	-2
0.86333	-2
0.86700	-2
0.87067	-1
0.87433	-1
0.87800	-1
0.88167	-1
0.88533	-1
0.88900	-1
0.89267	-1
0.89633	-1
0.90000	-2
0.90367	-2
0.90733	-2
0.91100	-2
0.91467	-2
0.91833	-2
0.92200	-2
0.92567	-2
0.92933	-2
0.93300	-2
0.93667	-2
0.94033	-2
0.94400	-2
0.94767	-2
0.95133	-2
0.95500	-2
0.95867	-2
0.96233	-2
0.96600	-1
0.96967	-1
0.97333	-1
0.97700	-1
0.98067	-2
0.98433	-2
0.98800	-2
0.99167	-2
0.99533	-2
0.99900	-2
1.00267	-2
1.00633	-2
1.01000	-2
1.01367	-2
1.01733	-2
1.02100	-2
1.02467	-2
1.02833	-2
1.03200	-2
1.03567	-2
1.03933	-2
1.04300	-2
1.04667	-2
1.05033	-2
1.05400	-2
1.05767	-3
1.06133	-3
1.06500	-3
1.06867	-3
1.07233	-3
1.07600	-3
1.07967	-2
1.08333	-2
1.08700	-2
1.09067	-2
1.09433	-2
1.09800	-1
1.10167	-1
1.10533	-0
1.10900	-0
1.11267	-0
1.11633	-0
1.12000	-0
1.12367	-1
1.12733	-1
1.13100	-2
1.13467	-2
1.13833	-3
1.14200	-3
1.14567	-3
1.14933	-3
1.15300	-3
1.15667	-4
1.16033	-4
1.16400	-4
1.16767	-4
1.17133	-3
1.17500	-3
1.17867	-3
1.18233	-3
1.18600	-3
1.18967	-2
1.19333	-2
1.19700	-1
1.20067	-1
1.20433	-0
1.20800	-0
1.21167	-0
1.21533	-0
1.21900	0
1.22267	0
1.22633	0
1.23000	0
1.23367	0
1.23733	0
1.24100	0
1.24467	-0
1.24833	-1
1.25200	-1
1.25567	-1
1.25933	-2
1.26300	-2
1.26667	-2
1.27033	-2
1.27400	-3
1.27767	-3
1.28133	-3
1.28500	-3
1.28867	-4
1.29233	-4
1.29600	-4
1.29967	-4
1.30333	-4
1.30700	-4
1.31067	-4
1.31433	-5
1.31800	-5
1.32167	-5
1.32533	-5
1.32900	-5
1.33267	-4
1.33633	-5
1.34000	-5
1.34367	-5
1.34733	-5
1.35100	-5
1.35467	-4
1.35833	-4
1.36200	-4
1.36567	-4
1.36933	-4
1.37300	-3
1.37667	-3
1.38033	-3
1.38400	-3
1.38767	-3
1.39133	-3
1.39500	-3
1.39867	-3
1.40233	-3
1.40600	-3
1.40967	-3
1.41333	-3
1.41700	-3
1.42067	-3
1.42433	-2
1.42800	-2
1.43167	-2
1.43533	-2
1.43900	-2
1.44267	-2
1.44633	-3
1.45000	-3
1.45367	-3
1.45733	-3
1.46100	-3
1.46467	-3
1.46833	-3
1.47200	-3
1.47567	-3
1.47933	-3
1.48300	-3
1.48667	-3
1.49033	-3
1.49400	-3
1.49767	-3
1.50133	-3
1.50500	-3
1.50867	-3
1.51233	-3
1.51600	-3
1.51967	-3
1.52333	-3
1.52700	-3
1.53067	-3
1.53433	-3
1.53800	-3
1.54167	-3
1.54533	-3
1.54900	-3
1.55267	-2
1.55633	-2
1.56000	-2
1.56367	-2
1.56733	-2
1.57100	-2
1.57467	-3
1.57833	-3
1.58200	-3
1.58567	-3
1.58933	-3
1.59300	-4
1.59667	-5
1.60033	-6
1.60400	-7
1.60767	-8
1.61133	-10
1.61500	-11
1.61867	-14
1.62233	-16
1.62600	-19
1.62967	-23
1.63333	-26
1.63700	-29
1.64067	-33
1.64433	-36
1.64800	-40
1.65167	-44
1.65533	-47
1.65900	-51
1.66267	-55
1.66633	-59
1.67000	-63
1.67367	-67
1.67733	-71
1.68100	-76
1.68467	-81
1.68833	-85
1.69200	-89
1.69567	-93
1.69933	-96
1.70300	-99
1.70667	-101
1.71033	-102
1.71400	-103
1.71767	-104
1.72133	-105
1.72500	-105
1.72867	-105
1.73233	-106
1.73600	-106
1.73967	-106
1.74333	-107
1.74700	-107
1.75067	-108
1.75433	-109
1.75800	-110
1.76167	-111
1.76533	-111
1.76900	-112
1.77267	-112
1.77633	-112
1.78000	-112
1.78367	-112
1.78733	-112
1.79100	-112
1.79467	-112
1.79833	-113
1.80200	-114
1.80567	-114
1.80933	-114
1.81300	-114
1.81667	-114
1.82033	-114
1.82400	-114
1.82767	-114
1.83133	-114
1.83500	-115
1.83867	-115
1.84233	-115
1.84600	-115
1.84967	-115
1.85333	-115
1.85700	-115
1.86067	-114
1.86433	-114
1.86800	-114
1.87167	-114
1.87533	-114
1.87900	-114
1.88267	-115
1.88633	-115
1.89000	-115
1.89367	-115
1.89733	-115
1.90100	-115
1.90467	-115
1.90833	-114
1.91200	-114
1.91567	-113
1.91933	-113
1.92300	-112
1.92667	-112
1.93033	-113
1.93400	-113
1.93767	-113
1.94133	-113
1.94500	-112
1.94867	-112
1.95233	-112
1.95600	-111
1.95967	-110
1.96333	-110
1.96700	-110
1.97067	-109
1.97433	-109
1.97800	-108
1.98167	-108
1.98533	-108
1.98900	-108
1.99267	-107
1.99633	-107
2.00000	-107
2.00367	-107
2.00733	-107
2.01100	-107
2.01467	-106
2.01833	-106
2.02200	-106
2.02567	-106
2.02933	-105
2.03300	-105
2.03667	-106
2.04033	-106
2.04400	-106
2.04767	-106
2.05133	-106
2.05500	-106
2.05867	-106
2.06233	-106
2.06600	-105
2.06967	-105
2.07333	-105
2.07700	-104
2.08067	-103
2.08433	-103
2.08800	-102
2.09167	-102
2.09533	-101
2.09900	-101
2.10267	-100
2.10633	-100
2.11000	-100
2.11367	-100
2.11733	-100
2.12100	-100
2.12467	-100
2.12833	-100
2.13200	-99
2.13567	-99
2.13933	-98
2.14300	-97
2.14667	-97
2.15033	-96
2.15400	-95
2.15767	-95
2.16133	-94
2.16500	-94
2.16867	-94
2.17233	-94
2.17600	-94
2.17967	-94
2.18333	-93
2.18700	-93
2.19067	-93
2.19433	-93
2.19800	-92
2.20167	-92
2.20533	-92
2.20900	-91
2.21267	-91
2.21633	-91
2.22000	-90
2.22367	-89
2.22733	-89
2.23100	-88
2.23467	-87
2.23833	-87
2.24200	-86
2.24567	-86
2.24933	-85
2.25300	-85
2.25667	-86
2.26033	-86
2.26400	-87
2.26767	-87
2.27133	-87
2.27500	-87
2.27867	-86
2.28233	-86
2.28600	-85
2.28967	-85
2.29333	-84
2.29700	-84
2.30067	-84
2.30433	-84
2.30800	-84
2.31167	-83
2.31533	-83
2.31900	-82
2.32267	-82
2.32633	-81
2.33000	-81
2.33367	-80
2.33733	-80
2.34100	-79
2.34467	-79
2.34833	-78
2.35200	-77
2.35567	-76
2.35933	-75
2.36300	-73
2.36667	-72
2.37033	-69
2.37400	-66
2.37767	-63
2.38133	-59
2.38500	-56
2.38867	-51
2.39233	-47
2.39600	-43
2.39967	-38
2.40333	-34
2.40700	-30
2.41067	-26
2.41433	-22
2.41800	-19
2.42167	-17
2.42533	-15
2.42900	-14
2.43267	-13
2.43633	-12
2.44000	-11
2.44367	-10
2.44733	-9
2.45100	-8
2.45467	-7
2.45833	-6
2.46200	-6
2.46567	-5
2.46933	-5
2.47300	-4
2.47667	-4
2.48033	-3
2.48400	-2
2.48767	-1
2.49133	0
2.49500	1
2.49867	2
2.50233	3
2.50600	4
2.50967	5
2.51333	6
2.51700	7
2.52067	8
2.52433	8
2.52800	9
2.53167	9
2.53533	10
2.53900	10
2.54267	11
2.54633	12
2.55000	13
2.55367	14
2.55733	14
2.56100	14
2.56467	14
2.56833	13
2.57200	12
2.57567	11
2.57933	11
2.58300	11
2.58667	11
2.59033	11
2.59400	12
2.59767	12
2.60133	12
2.60500	13
2.60867	12
2.61233	12
2.61600	13
2.61967	13
2.62333	13
2.62700	14
2.63067	14
2.63433	14
2.63800	15
2.64167	15
2.64533	15
2.64900	16
2.65267	16
2.65633	16
2.66000	16
2.66367	17
2.66733	17
2.67100	18
2.67467	18
2.67833	18
2.68200	19
2.68567	19
2.68933	20
2.69300	20
2.69667	21
2.70033	21
2.70400	21
2.70767	22
2.71133	22
2.71500	22
2.71867	23
2.72233	23
2.72600	24
2.72967	24
2.73333	25
2.73700	25
2.74067	25
2.74433	25
2.74800	25
2.75167	24
2.75533	24
2.75900	24
2.76267	23
2.76633	23
2.77000	24
2.77367	24
2.77733	24
2.78100	24
2.78467	24
2.78833	24
2.79200	24
2.79567	24
2.79933	24
2.80300	24
2.80667	25
2.81033	25
2.81400	25
2.81767	25
2.82133	26
2.82500	26
2.82867	26
2.83233	26
2.83600	26
2.83967	25
2.84333	23
2.84700	20
2.85067	14
2.85433	6
2.85800	-6
2.86167	-22
2.86533	-42
2.86900	-66
2.87267	-94
2.87633	-127
2.88000	-164
2.88367	-205
2.88733	-249
2.89100	-297
2.89467	-347
2.89833	-399
2.90200	-452
2.90567	-507
2.90933	-562
2.91300	-617
2.91667	-672
2.92033	-726
2.92400	-778
2.92767	-829
2.93133	-881
2.93500	-936
2.93867	-995
2.94233	-1048
2.94600	-1086
2.94967	-1100
2.95333	-1088
2.95700	-1052
2.96067	-997
2.96433	-928
2.96800	-851
2.97167	-771
2.97533	-691
2.97900	-613
2.98267	-540
2.98633	-473
2.99000	-412
2.99367	-356
2.99733	-307
3.00100	-264
3.00467	-225
3.00833	-192
3.01200	-163
3.01567	-138
3.01933	-116
3.02300	-98
3.02667	-82
3.03033	-68
3.03400	-56
3.03767	-46
3.04133	-37
3.04500	-30
3.04867	-24
3.05233	-18
3.05600	-13
3.05967	-9
3.06333	-6
3.06700	-3
3.07067	-1
3.07433	1
3.07800	3
3.08167	5
3.08533	6
3.08900	7
3.09267	8
3.09633	9
3.10000	10
3.10367	10
3.10733	11
3.11100	12
3.11467	12
3.11833	12
3.12200	13
3.12567	13
3.12933	14
3.13300	14
3.13667	15
3.14033	16
3.14400	16
3.14767	16
3.15133	16
3.15500	16
3.15867	17
3.16233	17
3.16600	17
3.16967	18
3.17333	18
3.17700	19
3.18067	19
3.18433	19
3.18800	19
3.19167	20
3.19533	20
3.19900	20
3.20267	20
3.20633	20
3.21000	20
3.21367	20
3.21733	20
3.22100	20
3.22467	20
3.22833	20
3.23200	20
3.23567	20
3.23933	21
3.24300	21
3.24667	21
3.25033	21
3.25400	21
3.25767	22
3.26133	22
3.26500	22
3.26867	22
3.27233	22
3.27600	22
3.27967	23
3.28333	23
3.28700	23
3.29067	23
3.29433	23
3.29800	23
3.30167	23
3.30533	23
3.30900	23
3.31267	24
3.31633	24
3.32000	24
3.32367	24
3.32733	24
3.33100	24
3.33467	24
3.33833	24
3.34200	24
3.34567	24
3.34933	24
3.35300	24
3.35667	24
3.36033	24
3.36400	24
3.36767	24
3.37133	25
3.37500	25
3.37867	25
3.38233	25
3.38600	25
3.38967	25
3.39333	25
3.39700	25
3.40067	25
3.40433	25
3.40800	25
3.41167	26
3.41533	26
3.41900	26
3.42267	26
3.42633	26
3.43000	26
3.43367	26
3.43733	26
3.44100	26
3.44467	26
3.44833	26
3.45200	26
3.45567	26
3.45933	26
3.46300	26
3.46667	26
3.47033	26
3.47400	26
3.47767	26
3.48133	26
3.48500	26
3.48867	25
3.49233	25
3.49600	25
3.49967	25
3.50333	25
3.50700	25
3.51067	25
3.51433	25
3.51800	25
3.52167	25
3.52533	25
3.52900	25
3.53267	25
3.53633	25
3.54000	25
3.54367	25
3.54733	25
3.55100	25
3.55467	25
3.55833	25
3.56200	25
3.56567	25
3.56933	25
3.57300	26
3.57667	26
3.58033	26
3.58400	26
3.58767	26
3.59133	26
3.59500	26
3.59867	26
3.60233	26
3.60600	26
3.60967	26
3.61333	26
3.61700	26
3.62067	26
3.62433	25
3.62800	25
3.63167	25
3.63533	25
3.63900	25
3.64267	26
3.64633	26
3.65000	26
3.65367	26
3.65733	27
3.66100	27
3.66467	28
3.66833	28
3.67200	29
3.67567	29
3.67933	29
3.68300	29
3.68667	29
3.69033	29
3.69400	29
3.69767	29
3.70133	29
3.70500	29
3.70867	29
3.71233	29
3.71600	29
3.71967	29
3.72333	28
3.72700	28
3.73067	28
3.73433	28
3.73800	28
3.74167	28
3.74533	28
3.74900	28
3.75267	28
3.75633	28
3.76000	28
3.76367	28
3.76733	28
3.77100	28
3.77467	27
3.77833	27
3.78200	27
3.78567	27
3.78933	27
3.79300	27
3.79667	26
3.80033	26
3.80400	26
3.80767	26
3.81133	26
3.81500	26
3.81867	26
3.82233	26
3.82600	26
3.82967	25
3.83333	25
3.83700	25
3.84067	25
3.84433	25
3.84800	25
3.85167	26
3.85533	26
3.85900	26
3.86267	26
3.86633	26
3.87000	26
3.87367	26
3.87733	26
3.88100	26
3.88467	26
3.88833	26
3.89200	26
3.89567	26
3.89933	26
3.90300	26
3.90667	26
3.91033	26
3.91400	26
3.91767	26
3.92133	26
3.92500	26
3.92867	26
3.93233	26
3.93600	26
3.93967	26
3.94333	25
3.94700	25
3.95067	25
3.95433	25
3.95800	25
3.96167	25
3.96533	25
3.96900	25
3.97267	25
3.97633	25
3.98000	25
3.98367	25
3.98733	25
3.99100	25
3.99467	25
3.99833	25

[Chromatogram (Ch3)]
Interval(msec)	220
# of Points	1091
Start Time(min)	0.002
End Time(min)	3.998
R.Time (min)	Intensity
0.00167	0
0.00533	0
0.00900	-0
0.01267	1
0.01633	1
0.02000	-0
0.02367	-2
0.02733	-3
0.03100	-5
0.03467	-7
0.03833	-7
0.04200	-6
0.04567	-3
0.04933	-1
0.05300	-2
0.05667	-4
0.06033	-6
0.06400	-6
0.06767	-5
0.07133	-5
0.07500	-5
0.07867	-3
0.08233	-1
0.08600	-0
0.08967	2
0.09333	3
0.09700	1
0.10067	-2
0.10433	-3
0.10800	-2
0.11167	-2
0.11533	-4
0.11900	-4
0.12267	-2
0.12633	1
0.13000	4
0.13367	4
0.13733	4
0.14100	4
0.14467	1
0.14833	0
0.15200	1
0.15567	2
0.15933	3
0.16300	5
0.16667	6
0.17033	5
0.17400	5
0.17767	6
0.18133	6
0.18500	5
0.18867	1
0.19233	0
0.19600	3
0.19967	7
0.20333	7
0.20700	7
0.21067	6
0.21433	6
0.21800	8
0.22167	9
0.22533	9
0.22900	8
0.23267	6
0.23633	6
0.24000	7
0.24367	10
0.24733	11
0.25100	10
0.25467	10
0.25833	10
0.26200	9
0.26567	8
0.26933	7
0.27300	7
0.27667	6
0.28033	6
0.28400	7
0.28767	8
0.29133	7
0.29500	5
0.29867	5
0.30233	6
0.30600	6
0.30967	8
0.31333	10
0.31700	11
0.32067	13
0.32433	14
0.32800	14
0.33167	15
0.33533	15
0.33900	12
0.34267	11
0.34633	9
0.35000	7
0.35367	9
0.35733	10
0.36100	9
0.36467	9
0.36833	9
0.37200	10
0.37567	11
0.37933	12
0.38300	11
0.38667	11
0.39033	12
0.39400	14
0.39767	15
0.40133	15
0.40500	14
0.40867	10
0.41233	10
0.41600	11
0.41967	12
0.42333	10
0.42700	8
0.43067	8
0.43433	9
0.43800	11
0.44167	11
0.44533	11
0.44900	11
0.45267	11
0.45633	10
0.46000	11
0.46367	12
0.46733	11
0.47100	8
0.47467	5
0.47833	4
0.48200	5
0.48567	7
0.48933	8
0.49300	6
0.49667	6
0.50033	6
0.50400	6
0.50767	6
0.51133	7
0.51500	9
0.51867	11
0.52233	12
0.52600	13
0.52967	14
0.53333	14
0.53700	12
0.54067	10
0.54433	9
0.54800	9
0.55167	10
0.55533	9
0.55900	7
0.56267	6
0.56633	7
0.57000	7
0.57367	7
0.57733	7
0.58100	4
0.58467	1
0.58833	-0
0.59200	1
0.59567	1
0.59933	3
0.60300	4
0.60667	5
0.61033	5
0.61400	6
0.61767	6
0.62133	5
0.62500	5
0.62867	6
0.63233	6
0.63600	6
0.63967	7
0.64333	8
0.64700	5
0.65067	2
0.65433	1
0.65800	-0
0.66167	1
0.66533	5
0.66900	7
0.67267	8
0.67633	8
0.68000	8
0.68367	7
0.68733	6
0.69100	6
0.69467	6
0.69833	7
0.70200	6
0.70567	6
0.70933	8
0.71300	9
0.71667	11
0.72033	10
0.72400	8
0.72767	6
0.73133	7
0.73500	8
0.73867	8
0.74233	6
0.74600	7
0.74967	8
0.75333	7
0.75700	6
0.76067	5
0.76433	5
0.76800	4
0.77167	3
0.77533	2
0.77900	2
0.78267	3
0.78633	2
0.79000	1
0.79367	2
0.79733	2
0.80100	2
0.80467	4
0.80833	7
0.81200	9
0.81567	10
0.81933	9
0.82300	8
0.82667	7
0.83033	7
0.83400	6
0.83767	7
0.84133	7
0.84500	6
0.84867	3
0.85233	2
0.85600	5
0.85967	7
0.86333	7
0.86700	6
0.87067	4
0.87433	6
0.87800	7
0.88167	9
0.88533	10
0.88900	9
0.89267	8
0.89633	10
0.90000	11
0.90367	11
0.90733	10
0.91100	11
0.91467	12
0.91833	14
0.92200	15
0.92567	15
0.92933	16
0.93300	16
0.93667	15
0.94033	14
0.94400	11
0.94767	8
0.95133	8
0.95500	9
0.95867	12
0.96233	15
0.96600	14
0.96967	13
0.97333	15
0.97700	15
0.98067	15
0.98433	15
0.98800	14
0.99167	15
0.99533	14
0.99900	12
1.00267	13
1.00633	12
1.01000	10
1.01367	9
1.01733	10
1.02100	10
1.02467	7
1.02833	6
1.03200	9
1.03567	8
1.03933	9
1.04300	10
1.04667	12
1.05033	13
1.05400	13
1.05767	15
1.06133	14
1.06500	10
1.06867	9
1.07233	10
1.07600	12
1.07967	12
1.08333	13
1.08700	12
1.09067	13
1.09433	14
1.09800	14
1.10167	14
1.10533	15
1.10900	12
1.11267	10
1.11633	12
1.12000	14
1.12367	14
1.12733	15
1.13100	17
1.13467	18
1.13833	16
1.14200	15
1.14567	15
1.14933	14
1.15300	14
1.15667	16
1.16033	17
1.16400	17
1.16767	18
1.17133	20
1.17500	20
1.17867	19
1.18233	18
1.18600	17
1.18967	16
1.19333	15
1.19700	14
1.20067	13
1.20433	11
1.20800	11
1.21167	12
1.21533	13
1.21900	12
1.22267	11
1.22633	12
1.23000	12
1.23367	13
1.23733	17
1.24100	16
1.24467	13
1.24833	13
1.25200	16
1.25567	17
1.25933	19
1.26300	16
1.26667	10
1.27033	8
1.27400	8
1.27767	9
1.28133	9
1.28500	9
1.28867	9
1.29233	10
1.29600	12
1.29967	13
1.30333	12
1.30700	10
1.31067	10
1.31433	10
1.31800	11
1.32167	10
1.32533	9
1.32900	10
1.33267	9
1.33633	6
1.34000	4
1.34367	3
1.34733	4
1.35100	6
1.35467	8
1.35833	7
1.36200	8
1.36567	8
1.36933	7
1.37300	6
1.37667	5
1.38033	3
1.38400	1
1.38767	0
1.39133	0
1.39500	1
1.39867	3
1.40233	5
1.40600	5
1.40967	5
1.41333	5
1.41700	6
1.42067	8
1.42433	8
1.42800	6
1.43167	4
1.43533	3
1.43900	5
1.44267	5
1.44633	6
1.45000	7
1.45367	7
1.45733	6
1.46100	4
1.46467	4
1.46833	5
1.47200	3
1.47567	3
1.47933	5
1.48300	6
1.48667	7
1.49033	6
1.49400	5
1.49767	4
1.50133	4
1.50500	6
1.50867	6
1.51233	4
1.51600	4
1.51967	1
1.52333	2
1.52700	3
1.53067	4
1.53433	5
1.53800	5
1.54167	6
1.54533	8
1.54900	9
1.55267	7
1.55633	6
1.56000	9
1.56367	11
1.56733	11
1.57100	11
1.57467	10
1.57833	10
1.58200	9
1.58567	11
1.58933	12
1.59300	12
1.59667	10
1.60033	9
1.60400	8
1.60767	7
1.61133	8
1.61500	10
1.61867	13
1.62233	15
1.62600	18
1.62967	18
1.63333	17
1.63700	16
1.64067	15
1.64433	14
1.64800	13
1.65167	12
1.65533	13
1.65900	15
1.66267	16
1.66633	18
1.67000	20
1.67367	19
1.67733	17
1.68100	18
1.68467	18
1.68833	17
1.69200	19
1.69567	21
1.69933	25
1.70300	26
1.70667	26
1.71033	26
1.71400	28
1.71767	27
1.72133	28
1.72500	28
1.72867	25
1.73233	25
1.73600	25
1.73967	26
1.74333	27
1.74700	30
1.75067	32
1.75433	30
1.75800	27
1.76167	24
1.76533	22
1.76900	23
1.77267	24
1.77633	24
1.78000	23
1.78367	22
1.78733	22
1.79100	26
1.79467	29
1.79833	30
1.80200	30
1.80567	32
1.80933	34
1.81300	36
1.81667	36
1.82033	37
1.82400	38
1.82767	38
1.83133	39
1.83500	40
1.83867	41
1.84233	43
1.84600	45
1.84967	45
1.85333	44
1.85700	46
1.86067	49
1.86433	51
1.86800	51
1.87167	52
1.87533	55
1.87900	57
1.88267	58
1.88633	57
1.89000	55
1.89367	55
1.89733	56
1.90100	56
1.90467	55
1.90833	56
1.91200	59
1.91567	61
1.91933	61
1.92300	61
1.92667	61
1.93033	61
1.93400	62
1.93767	67
1.94133	70
1.94500	70
1.94867	71
1.95233	70
1.95600	69
1.95967	68
1.96333	68
1.96700	69
1.97067	71
1.97433	72
1.97800	72
1.98167	70
1.98533	70
1.98900	71
1.99267	72
1.99633	74
2.00000	77
2.00367	81
2.00733	83
2.01100	84
2.01467	82
2.01833	80
2.02200	80
2.02567	81
2.02933	83
2.03300	86
2.03667	88
2.04033	89
2.04400	91
2.04767	92
2.05133	91
2.05500	91
2.05867	93
2.06233	96
2.06600	99
2.06967	101
2.07333	102
2.07700	100
2.08067	100
2.08433	101
2.08800	103
2.09167	105
2.09533	108
2.09900	110
2.10267	111
2.10633	113
2.11000	113
2.11367	113
2.11733	112
2.12100	111
2.12467	111
2.12833	112
2.13200	113
2.13567	115
2.13933	116
2.14300	118
2.14667	119
2.15033	120
2.15400	122
2.15767	125
2.16133	126
2.16500	128
2.16867	128
2.17233	128
2.17600	129
2.17967	128
2.18333	129
2.18700	129
2.19067	131
2.19433	135
2.19800	138
2.20167	139
2.20533	140
2.20900	144
2.21267	145
2.21633	148
2.22000	150
2.22367	150
2.22733	151
2.23100	152
2.23467	151
2.23833	152
2.24200	158
2.24567	163
2.24933	165
2.25300	166
2.25667	167
2.26033	168
2.26400	168
2.26767	168
2.27133	168
2.27500	170
2.27867	171
2.28233	174
2.28600	173
2.28967	172
2.29333	172
2.29700	175
2.30067	180
2.30433	183
2.30800	184
2.31167	184
2.31533	184
2.31900	185
2.32267	185
2.32633	185
2.33000	186
2.33367	187
2.33733	188
2.34100	189
2.34467	192
2.34833	196
2.35200	199
2.35567	202
2.35933	204
2.36300	203
2.36667	204
2.37033	206
2.37400	206
2.37767	206
2.38133	205
2.38500	204
2.38867	205
2.39233	206
2.39600	211
2.39967	217
2.40333	221
2.40700	224
2.41067	226
2.41433	230
2.41800	231
2.42167	232
2.42533	234
2.42900	235
2.43267	236
2.43633	237
2.44000	240
2.44367	293
2.44733	433
2.45100	585
2.45467	712
2.45833	783
2.46200	785
2.46567	739
2.46933	676
2.47300	622
2.47667	588
2.48033	564
2.48400	538
2.48767	499
2.49133	454
2.49500	408
2.49867	368
2.50233	338
2.50600	322
2.50967	314
2.51333	313
2.51700	321
2.52067	336
2.52433	354
2.52800	371
2.53167	381
2.53533	380
2.53900	368
2.54267	348
2.54633	320
2.55000	292
2.55367	266
2.55733	245
2.56100	226
2.56467	209
2.56833	196
2.57200	187
2.57567	182
2.57933	179
2.58300	177
2.58667	177
2.59033	179
2.59400	180
2.59767	179
2.60133	175
2.60500	168
2.60867	156
2.61233	145
2.61600	136
2.61967	129
2.62333	121
2.62700	114
2.63067	112
2.63433	112
2.63800	114
2.64167	115
2.64533	116
2.64900	116
2.65267	116
2.65633	112
2.66000	107
2.66367	102
2.66733	96
2.67100	89
2.67467	80
2.67833	72
2.68200	66
2.68567	61
2.68933	57
2.69300	54
2.69667	50
2.70033	44
2.70400	41
2.70767	41
2.71133	43
2.71500	43
2.71867	44
2.72233	45
2.72600	47
2.72967	50
2.73333	54
2.73700	57
2.74067	60
2.74433	63
2.74800	69
2.75167	74
2.75533	76
2.75900	78
2.76267	79
2.76633	80
2.77000	82
2.77367	81
2.77733	82
2.78100	86
2.78467	87
2.78833	88
2.79200	91
2.79567	95
2.79933	97
2.80300	99
2.80667	102
2.81033	104
2.81400	108
2.81767	116
2.82133	130
2.82500	159
2.82867	214
2.83233	312
2.83600	483
2.83967	747
2.84333	1113
2.84700	1586
2.85067	2148
2.85433	2764
2.85800	3385
2.86167	3967
2.86533	4458
2.86900	4819
2.87267	5030
2.87633	5090
2.88000	5014
2.88367	4828
2.88733	4560
2.89100	4236
2.89467	3884
2.89833	3525
2.90200	3171
2.90567	2836
2.90933	2524
2.91300	2238
2.91667	1981
2.92033	1748
2.92400	1540
2.92767	1358
2.93133	1198
2.93500	1056
2.93867	933
2.94233	829
2.94600	737
2.94967	658
2.95333	588
2.95700	526
2.96067	473
2.96433	426
2.96800	384
2.97167	349
2.97533	319
2.97900	294
2.98267	272
2.98633	253
2.99000	236
2.99367	220
2.99733	202
3.00100	161
3.00467	93
3.00833	31
3.01200	7
3.01567	19
3.01933	51
3.02300	95
3.02667	146
3.03033	200
3.03400	253
3.03767	303
3.04133	348
3.04500	389
3.04867	423
3.05233	454
3.05600	480
3.05967	502
3.06333	521
3.06700	536
3.07067	550
3.07433	561
3.07800	568
3.08167	572
3.08533	576
3.08900	581
3.09267	586
3.09633	591
3.10000	596
3.10367	598
3.10733	599
3.11100	600
3.11467	602
3.11833	604
3.12200	607
3.12567	607
3.12933	608
3.13300	607
3.13667	608
3.14033	608
3.14400	608
3.14767	605
3.15133	606
3.15500	610
3.15867	613
3.16233	618
3.16600	622
3.16967	625
3.17333	627
3.17700	627
3.18067	629
3.18433	631
3.18800	632
3.19167	634
3.19533	638
3.19900	642
3.20267	647
3.20633	649
3.21000	649
3.21367	650
3.21733	652
3.22100	655
3.22467	656
3.22833	659
3.23200	664
3.23567	671
3.23933	676
3.24300	681
3.24667	686
3.25033	690
3.25400	693
3.25767	695
3.26133	699
3.26500	703
3.26867	707
3.27233	714
3.27600	720
3.27967	724
3.28333	726
3.28700	727
3.29067	729
3.29433	733
3.29800	738
3.30167	740
3.30533	741
3.30900	741
3.31267	741
3.31633	742
3.32000	741
3.32367	740
3.32733	739
3.33100	739
3.33467	739
3.33833	739
3.34200	740
3.34567	738
3.34933	736
3.35300	732
3.35667	728
3.36033	724
3.36400	720
3.36767	717
3.37133	714
3.37500	710
3.37867	708
3.38233	704
3.38600	701
3.38967	698
3.39333	695
3.39700	692
3.40067	687
3.40433	683
3.40800	680
3.41167	679
3.41533	678
3.41900	676
3.42267	675
3.42633	673
3.43000	673
3.43367	669
3.43733	667
3.44100	665
3.44467	662
3.44833	660
3.45200	659
3.45567	660
3.45933	660
3.46300	658
3.46667	656
3.47033	654
3.47400	652
3.47767	651
3.48133	648
3.48500	647
3.48867	648
3.49233	647
3.49600	647
3.49967	645
3.50333	645
3.50700	644
3.51067	644
3.51433	645
3.51800	645
3.52167	645
3.52533	645
3.52900	642
3.53267	641
3.53633	640
3.54000	642
3.54367	642
3.54733	641
3.55100	640
3.55467	642
3.55833	643
3.56200	644
3.56567	642
3.56933	641
3.57300	642
3.57667	641
3.58033	642
3.58400	645
3.58767	647
3.59133	648
3.59500	647
3.59867	645
3.60233	643
3.60600	642
3.60967	642
3.61333	644
3.61700	646
3.62067	647
3.62433	647
3.62800	647
3.63167	646
3.63533	646
3.63900	648
3.64267	646
3.64633	645
3.65000	645
3.65367	648
3.65733	648
3.66100	646
3.66467	643
3.66833	639
3.67200	638
3.67567	638
3.67933	635
3.68300	633
3.68667	630
3.69033	631
3.69400	631
3.69767	630
3.70133	630
3.70500	632
3.70867	631
3.71233	630
3.71600	630
3.71967	630
3.72333	625
3.72700	622
3.73067	622
3.73433	624
3.73800	625
3.74167	626
3.74533	627
3.74900	627
3.75267	624
3.75633	621
3.76000	618
3.76367	617
3.76733	617
3.77100	616
3.77467	616
3.77833	614
3.78200	613
3.78567	614
3.78933	613
3.79300	610
3.79667	609
3.80033	608
3.80400	608
3.80767	608
3.81133	608
3.81500	605
3.81867	602
3.82233	602
3.82600	600
3.82967	600
3.83333	598
3.83700	594
3.84067	593
3.84433	592
3.84800	591
3.85167	590
3.85533	590
3.85900	592
3.86267	592
3.86633	590
3.87000	585
3.87367	581
3.87733	580
3.88100	578
3.88467	577
3.88833	575
3.89200	574
3.89567	573
3.89933	572
3.90300	569
3.90667	567
3.91033	565
3.91400	565
3.91767	565
3.92133	565
3.92500	564
3.92867	564
3.93233	565
3.93600	565
3.93967	563
3.94333	561
3.94700	560
3.95067	557
3.95433	556
3.95800	556
3.96167	555
3.96533	555
3.96900	551
3.97267	549
3.97633	547
3.98000	547
3.98367	549
3.98733	549
3.99100	549
3.99467	549
3.99833	548

[Status Trace (Column Oven Temperature)]
Interval(msec)	1000
# of Points	240
Start Time(min)	0.012
End Time(min)	3.996
Intensity Units	
Intensity Multiplier	1
R.Time (min)	Intensity
0.01233	35.02
0.02900	35.01
0.04567	35.02
0.06233	35.01
0.07900	35.01
0.09567	35.01
0.11233	35.03
0.12900	35.04
0.14567	35.04
0.16233	35.04
0.17900	35.04
0.19567	35.05
0.21233	35.04
0.22900	35.03
0.24567	35.03
0.26233	35.04
0.27900	35.03
0.29567	35.03
0.31233	35.03
0.32900	35.02
0.34567	35.01
0.36233	35.01
0.37900	34.99
0.39567	34.98
0.41233	34.97
0.42900	34.96
0.44567	34.96
0.46233	34.98
0.47900	34.99
0.49567	35.00
0.51233	35.00
0.52900	35.00
0.54567	35.01
0.56233	35.01
0.57900	35.02
0.59567	35.02
0.61233	35.01
0.62900	35.02
0.64567	35.02
0.66233	35.02
0.67900	35.02
0.69567	35.01
0.71233	35.01
0.72900	35.00
0.74567	35.00
0.76233	35.00
0.77900	35.01
0.79567	35.00
0.81233	35.00
0.82900	35.01
0.84567	35.00
0.86233	35.00
0.87900	35.00
0.89567	35.01
0.91233	35.01
0.92900	35.00
0.94567	35.00
0.96233	34.99
0.97900	35.00
0.99567	35.00
1.01233	35.01
1.02900	35.00
1.04567	35.00
1.06233	35.01
1.07900	35.00
1.09567	34.99
1.11233	34.99
1.12900	35.00
1.14567	35.01
1.16233	35.01
1.17900	35.01
1.19567	34.99
1.21233	34.98
1.22900	34.98
1.24567	34.98
1.26233	34.98
1.27900	34.98
1.29567	34.99
1.31233	34.99
1.32900	34.99
1.34567	35.00
1.36233	34.99
1.37900	34.99
1.39567	34.99
1.41233	34.99
1.42900	34.98
1.44567	34.98
1.46233	34.98
1.47900	34.98
1.49567	34.99
1.51233	34.98
1.52900	34.99
1.54567	34.97
1.56233	34.98
1.57900	34.99
1.59567	35.01
1.61233	35.10
1.62900	35.25
1.64567	35.46
1.66233	35.73
1.67900	36.08
1.69567	36.45
1.71233	36.79
1.72900	37.10
1.74567	37.44
1.76233	37.78
1.77900	38.09
1.79567	38.44
1.81233	38.76
1.82900	39.10
1.84567	39.43
1.86233	39.76
1.87900	40.10
1.89567	40.44
1.91233	40.75
1.92900	41.10
1.94567	41.43
1.96233	41.74
1.97900	42.05
1.99567	42.38
2.01233	42.70
2.02900	43.03
2.04567	43.37
2.06233	43.70
2.07900	44.03
2.09567	44.34
2.11233	44.68
2.12900	45.00
2.14567	45.31
2.16233	45.64
2.17900	45.96
2.19567	46.30
2.21233	46.63
2.22900	46.95
2.24567	47.27
2.26233	47.63
2.27900	47.94
2.29567	48.28
2.31233	48.61
2.32900	48.93
2.34567	49.25
2.36233	49.51
2.37900	49.63
2.39567	49.66
2.41233	49.63
2.42900	49.65
2.44567	49.65
2.46233	49.67
2.47900	49.68
2.49567	49.71
2.51233	49.70
2.52900	49.73
2.54567	49.73
2.56233	49.75
2.57900	49.78
2.59567	49.80
2.61233	49.82
2.62900	49.82
2.64567	49.83
2.66233	49.83
2.67900	49.84
2.69567	49.85
2.71233	49.85
2.72900	49.84
2.74567	49.85
2.76233	49.87
2.77900	49.88
2.79567	49.88
2.81233	49.87
2.82900	49.86
2.84567	49.87
2.86233	49.87
2.87900	49.88
2.89567	49.89
2.91233	49.89
2.92900	49.90
2.94567	49.92
2.96233	49.95
2.97900	49.97
2.99567	49.98
3.01233	49.98
3.02900	49.99
3.04567	49.99
3.06233	49.99
3.07900	50.01
3.09567	50.02
3.11233	50.03
3.12900	50.04
3.14567	50.05
3.16233	50.05
3.17900	50.05
3.19567	50.06
3.21233	50.08
3.22900	50.08
3.24567	50.09
3.26233	50.09
3.27900	50.09
3.29567	50.09
3.31233	50.09
3.32900	50.09
3.34567	50.10
3.36233	50.10
3.37900	50.10
3.39567	50.09
3.41233	50.09
3.42900	50.08
3.44567	50.09
3.46233	50.08
3.47900	50.08
3.49567	50.08
3.51233	50.09
3.52900	50.09
3.54567	50.09
3.56233	50.10
3.57900	50.09
3.59567	50.09
3.61233	50.10
3.62900	50.11
3.64567	50.10
3.66233	50.08
3.67900	50.06
3.69567	50.04
3.71233	50.03
3.72900	50.03
3.74567	50.01
3.76233	50.00
3.77900	50.00
3.79567	50.01
3.81233	50.00
3.82900	50.01
3.84567	50.01
3.86233	50.01
3.87900	50.01
3.89567	50.02
3.91233	50.02
3.92900	50.02
3.94567	50.04
3.96233	50.04
3.97900	50.04
3.99567	50.04

[Status Trace (Injection Unit Temperature)]
Interval(msec)	1000
# of Points	240
Start Time(min)	0.012
End Time(min)	3.996
Intensity Units	
Intensity Multiplier	1
R.Time (min)	Intensity
0.01233	99.98
0.02900	99.98
0.04567	99.98
0.06233	99.98
0.07900	99.98
0.09567	99.98
0.11233	99.98
0.12900	99.98
0.14567	99.98
0.16233	99.98
0.17900	99.98
0.19567	99.98
0.21233	99.98
0.22900	99.98
0.24567	99.98
0.26233	99.98
0.27900	99.98
0.29567	99.99
0.31233	99.98
0.32900	99.98
0.34567	99.98
0.36233	99.98
0.37900	99.98
0.39567	99.98
0.41233	99.99
0.42900	99.99
0.44567	99.98
0.46233	99.98
0.47900	99.98
0.49567	99.98
0.51233	99.99
0.52900	99.98
0.54567	99.99
0.56233	99.99
0.57900	99.99
0.59567	99.98
0.61233	99.99
0.62900	99.98
0.64567	99.99
0.66233	99.99
0.67900	99.99
0.69567	99.99
0.71233	99.98
0.72900	99.98
0.74567	99.98
0.76233	99.98
0.77900	99.99
0.79567	99.99
0.81233	99.99
0.82900	99.99
0.84567	99.98
0.86233	99.99
0.87900	99.99
0.89567	99.98
0.91233	99.98
0.92900	99.99
0.94567	99.99
0.96233	99.99
0.97900	99.98
0.99567	99.98
1.01233	99.99
1.02900	99.99
1.04567	99.98
1.06233	99.99
1.07900	99.98
1.09567	99.99
1.11233	99.98
1.12900	99.99
1.14567	99.98
1.16233	99.98
1.17900	99.99
1.19567	99.98
1.21233	99.98
1.22900	99.99
1.24567	99.98
1.26233	99.98
1.27900	99.98
1.29567	99.98
1.31233	99.99
1.32900	99.99
1.34567	99.98
1.36233	99.98
1.37900	99.98
1.39567	99.98
1.41233	99.98
1.42900	99.98
1.44567	99.98
1.46233	99.98
1.47900	99.98
1.49567	99.99
1.51233	99.98
1.52900	99.98
1.54567	99.98
1.56233	99.98
1.57900	99.98
1.59567	99.98
1.61233	99.98
1.62900	99.98
1.64567	99.99
1.66233	99.98
1.67900	99.98
1.69567	99.98
1.71233	99.98
1.72900	99.98
1.74567	99.98
1.76233	99.98
1.77900	99.98
1.79567	99.98
1.81233	99.98
1.82900	99.98
1.84567	99.98
1.86233	99.98
1.87900	99.98
1.89567	99.98
1.91233	99.98
1.92900	99.98
1.94567	99.98
1.96233	99.98
1.97900	99.98
1.99567	99.98
2.01233	99.98
2.02900	99.98
2.04567	99.98
2.06233	99.98
2.07900	99.98
2.09567	99.97
2.11233	99.97
2.12900	99.98
2.14567	99.97
2.16233	99.97
2.17900	99.98
2.19567	99.98
2.21233	99.97
2.22900	99.97
2.24567	99.97
2.26233	99.97
2.27900	99.97
2.29567	99.98
2.31233	99.98
2.32900	99.98
2.34567	99.98
2.36233	99.97
2.37900	99.98
2.39567	99.98
2.41233	99.97
2.42900	99.97
2.44567	99.97
2.46233	99.97
2.47900	99.98
2.49567	99.97
2.51233	99.98
2.52900	99.98
2.54567	99.98
2.56233	99.97
2.57900	99.98
2.59567	99.98
2.61233	99.98
2.62900	99.98
2.64567	99.98
2.66233	99.98
2.67900	99.99
2.69567	99.98
2.71233	99.98
2.72900	99.98
2.74567	99.99
2.76233	99.99
2.77900	99.99
2.79567	99.99
2.81233	100.00
2.82900	99.99
2.84567	100.00
2.86233	100.00
2.87900	100.00
2.89567	100.00
2.91233	100.00
2.92900	100.00
2.94567	100.00
2.96233	100.00
2.97900	100.00
2.99567	100.00
3.01233	100.00
3.02900	100.00
3.04567	100.01
3.06233	100.01
3.07900	100.01
3.09567	100.01
3.11233	100.01
3.12900	100.01
3.14567	100.01
3.16233	100.01
3.17900	100.02
3.19567	100.02
3.21233	100.01
3.22900	100.01
3.24567	100.02
3.26233	100.02
3.27900	100.02
3.29567	100.02
3.31233	100.02
3.32900	100.02
3.34567	100.02
3.36233	100.02
3.37900	100.03
3.39567	100.02
3.41233	100.02
3.42900	100.03
3.44567	100.03
3.46233	100.03
3.47900	100.03
3.49567	100.03
3.51233	100.03
3.52900	100.03
3.54567	100.03
3.56233	100.03
3.57900	100.03
3.59567	100.03
3.61233	100.03
3.62900	100.03
3.64567	100.04
3.66233	100.03
3.67900	100.03
3.69567	100.04
3.71233	100.04
3.72900	100.04
3.74567	100.04
3.76233	100.04
3.77900	100.04
3.79567	100.04
3.81233	100.04
3.82900	100.04
3.84567	100.04
3.86233	100.04
3.87900	100.04
3.89567	100.04
3.91233	100.04
3.92900	100.04
3.94567	100.04
3.96233	100.04
3.97900	100.04
3.99567	100.04

[Status Trace (Carrier Gas Pressure)]
Interval(msec)	1000
# of Points	240
Start Time(min)	0.012
End Time(min)	3.996
Intensity Units	
Intensity Multiplier	1
R.Time (min)	Intensity
0.01233	57.97
0.02900	54.96
0.04567	57.71
0.06233	59.75
0.07900	58.93
0.09567	57.99
0.11233	57.99
0.12900	58.01
0.14567	58.01
0.16233	58.00
0.17900	58.00
0.19567	58.00
0.21233	58.00
0.22900	58.00
0.24567	58.00
0.26233	58.00
0.27900	58.00
0.29567	58.00
0.31233	58.00
0.32900	58.00
0.34567	58.00
0.36233	58.00
0.37900	58.00
0.39567	58.00
0.41233	58.00
0.42900	58.00
0.44567	58.00
0.46233	58.00
0.47900	58.00
0.49567	58.00
0.51233	58.00
0.52900	58.00
0.54567	58.00
0.56233	58.00
0.57900	58.00
0.59567	58.00
0.61233	58.00
0.62900	58.00
0.64567	58.00
0.66233	58.00
0.67900	58.00
0.69567	58.00
0.71233	58.00
0.72900	58.00
0.74567	58.00
0.76233	58.00
0.77900	58.00
0.79567	58.00
0.81233	58.00
0.82900	58.00
0.84567	58.00
0.86233	58.00
0.87900	58.00
0.89567	58.00
0.91233	58.00
0.92900	58.00
0.94567	58.00
0.96233	58.00
0.97900	58.00
0.99567	58.00
1.01233	58.00
1.02900	58.00
1.04567	58.00
1.06233	58.00
1.07900	58.00
1.09567	58.00
1.11233	58.00
1.12900	58.00
1.14567	58.00
1.16233	58.00
1.17900	58.00
1.19567	58.00
1.21233	58.00
1.22900	58.00
1.24567	58.00
1.26233	58.00
1.27900	58.00
1.29567	58.00
1.31233	58.00
1.32900	58.00
1.34567	58.00
1.36233	58.00
1.37900	58.00
1.39567	58.00
1.41233	58.00
1.42900	58.00
1.44567	58.00
1.46233	58.00
1.47900	58.00
1.49567	58.00
1.51233	58.00
1.52900	58.00
1.54567	58.00
1.56233	58.00
1.57900	58.00
1.59567	58.00
1.61233	58.00
1.62900	58.01
1.64567	58.00
1.66233	58.00
1.67900	58.01
1.69567	58.00
1.71233	58.00
1.72900	58.00
1.74567	58.00
1.76233	58.00
1.77900	58.00
1.79567	58.00
1.81233	58.00
1.82900	58.00
1.84567	58.00
1.86233	58.00
1.87900	58.00
1.89567	58.00
1.91233	58.00
1.92900	58.00
1.94567	58.00
1.96233	58.00
1.97900	58.00
1.99567	58.00
2.01233	58.00
2.02900	58.00
2.04567	58.00
2.06233	58.00
2.07900	58.00
2.09567	58.00
2.11233	58.00
2.12900	58.00
2.14567	58.00
2.16233	58.00
2.17900	58.00
2.19567	58.00
2.21233	58.00
2.22900	58.00
2.24567	58.00
2.26233	58.00
2.27900	58.00
2.29567	58.00
2.31233	58.00
2.32900	58.00
2.34567	58.00
2.36233	58.00
2.37900	57.99
2.39567	57.99
2.41233	57.99
2.42900	58.00
2.44567	58.00
2.46233	58.00
2.47900	58.00
2.49567	58.00
2.51233	57.99
2.52900	57.99
2.54567	58.00
2.56233	58.00
2.57900	58.00
2.59567	58.00
2.61233	58.00
2.62900	58.00
2.64567	58.00
2.66233	58.00
2.67900	58.00
2.69567	58.00
2.71233	58.00
2.72900	58.00
2.74567	58.00
2.76233	58.00
2.77900	58.00
2.79567	58.00
2.81233	58.00
2.82900	58.00
2.84567	58.00
2.86233	58.00
2.87900	58.00
2.89567	58.00
2.91233	58.00
2.92900	58.00
2.94567	58.00
2.96233	58.00
2.97900	58.00
2.99567	58.00
3.01233	58.00
3.02900	58.00
3.04567	58.00
3.06233	58.00
3.07900	58.00
3.09567	58.00
3.11233	58.00
3.12900	58.00
3.14567	58.00
3.16233	58.00
3.17900	58.00
3.19567	58.00
3.21233	58.00
3.22900	58.00
3.24567	58.00
3.26233	58.00
3.27900	58.00
3.29567	58.00
3.31233	58.00
3.32900	58.00
3.34567	58.00
3.36233	58.00
3.37900	58.00
3.39567	58.00
3.41233	58.00
3.42900	58.00
3.44567	58.00
3.46233	58.00
3.47900	58.00
3.49567	58.00
3.51233	58.00
3.52900	58.00
3.54567	58.00
3.56233	58.00
3.57900	58.00
3.59567	58.00
3.61233	58.00
3.62900	58.00
3.64567	58.00
3.66233	58.00
3.67900	58.00
3.69567	58.00
3.71233	58.00
3.72900	58.00
3.74567	58.00
3.76233	58.00
3.77900	58.00
3.79567	58.00
3.81233	58.00
3.82900	58.00
3.84567	58.00
3.86233	58.00
3.87900	58.00
3.89567	58.00
3.91233	58.00
3.92900	58.00
3.94567	58.00
3.96233	58.00
3.97900	58.00
3.99567	58.00

[Status Trace (Carrier Gas Flow)]
Interval(msec)	1000
# of Points	240
Start Time(min)	0.012
End Time(min)	3.996
Intensity Units	
Intensity Multiplier	1
R.Time (min)	Intensity
0.01233	34.63
0.02900	34.54
0.04567	34.55
0.06233	34.53
0.07900	34.50
0.09567	34.52
0.11233	34.52
0.12900	34.52
0.14567	34.52
0.16233	34.51
0.17900	34.52
0.19567	34.52
0.21233	34.52
0.22900	34.52
0.24567	34.52
0.26233	34.52
0.27900	34.52
0.29567	34.52
0.31233	34.52
0.32900	34.52
0.34567	34.52
0.36233	34.52
0.37900	34.52
0.39567	34.52
0.41233	34.52
0.42900	34.52
0.44567	34.52
0.46233	34.52
0.47900	34.52
0.49567	34.52
0.51233	34.52
0.52900	34.53
0.54567	34.52
0.56233	34.51
0.57900	34.52
0.59567	34.52
0.61233	34.52
0.62900	34.52
0.64567	34.52
0.66233	34.52
0.67900	34.51
0.69567	34.52
0.71233	34.52
0.72900	34.52
0.74567	34.51
0.76233	34.52
0.77900	34.52
0.79567	34.52
0.81233	34.52
0.82900	34.52
0.84567	34.52
0.86233	34.52
0.87900	34.52
0.89567	34.52
0.91233	34.52
0.92900	34.52
0.94567	34.51
0.96233	34.52
0.97900	34.52
0.99567	34.52
1.01233	34.52
1.02900	34.52
1.04567	34.52
1.06233	34.52
1.07900	34.52
1.09567	34.52
1.11233	34.52
1.12900	34.51
1.14567	34.52
1.16233	34.52
1.17900	34.53
1.19567	34.52
1.21233	34.51
1.22900	34.52
1.24567	34.53
1.26233	34.52
1.27900	34.52
1.29567	34.52
1.31233	34.52
1.32900	34.51
1.34567	34.52
1.36233	34.52
1.37900	34.52
1.39567	34.52
1.41233	34.52
1.42900	34.52
1.44567	34.52
1.46233	34.52
1.47900	34.51
1.49567	34.52
1.51233	34.52
1.52900	34.52
1.54567	34.52
1.56233	34.52
1.57900	34.52
1.59567	34.52
1.61233	34.52
1.62900	34.52
1.64567	34.52
1.66233	34.52
1.67900	34.52
1.69567	34.52
1.71233	34.52
1.72900	34.52
1.74567	34.52
1.76233	34.52
1.77900	34.52
1.79567	34.51
1.81233	34.52
1.82900	34.52
1.84567	34.52
1.86233	34.52
1.87900	34.51
1.89567	34.51
1.91233	34.52
1.92900	34.52
1.94567	34.52
1.96233	34.51
1.97900	34.52
1.99567	34.52
2.01233	34.52
2.02900	34.52
2.04567	34.52
2.06233	34.52
2.07900	34.52
2.09567	34.52
2.11233	34.52
2.12900	34.52
2.14567	34.51
2.16233	34.53
2.17900	34.52
2.19567	34.52
2.21233	34.52
2.22900	34.52
2.24567	34.52
2.26233	34.52
2.27900	34.52
2.29567	34.51
2.31233	34.51
2.32900	34.52
2.34567	34.52
2.36233	34.51
2.37900	34.52
2.39567	34.52
2.41233	34.52
2.42900	34.51
2.44567	34.52
2.46233	34.52
2.47900	34.52
2.49567	34.51
2.51233	34.51
2.52900	34.52
2.54567	34.52
2.56233	34.51
2.57900	34.52
2.59567	34.52
2.61233	34.52
2.62900	34.52
2.64567	34.52
2.66233	34.52
2.67900	34.51
2.69567	34.52
2.71233	34.52
2.72900	34.53
2.74567	34.52
2.76233	34.51
2.77900	34.51
2.79567	34.52
2.81233	34.52
2.82900	34.51
2.84567	34.52
2.86233	34.53
2.87900	34.52
2.89567	34.52
2.91233	34.51
2.92900	34.52
2.94567	34.52
2.96233	34.52
2.97900	34.52
2.99567	34.52
3.01233	34.52
3.02900	34.52
3.04567	34.51
3.06233	34.51
3.07900	34.53
3.09567	34.52
3.11233	34.52
3.12900	34.51
3.14567	34.52
3.16233	34.52
3.17900	34.53
3.19567	34.52
3.21233	34.52
3.22900	34.52
3.24567	34.52
3.26233	34.52
3.27900	34.52
3.29567	34.52
3.31233	34.52
3.32900	34.52
3.34567	34.52
3.36233	34.52
3.37900	34.52
3.39567	34.52
3.41233	34.52
3.42900	34.52
3.44567	34.52
3.46233	34.52
3.47900	34.52
3.49567	34.51
3.51233	34.52
3.52900	34.52
3.54567	34.52
3.56233	34.52
3.57900	34.52
3.59567	34.52
3.61233	34.52
3.62900	34.52
3.64567	34.52
3.66233	34.52
3.67900	34.52
3.69567	34.52
3.71233	34.52
3.72900	34.52
3.74567	34.51
3.76233	34.52
3.77900	34.52
3.79567	34.52
3.81233	34.51
3.82900	34.52
3.84567	34.52
3.86233	34.52
3.87900	34.52
3.89567	34.52
3.91233	34.52
3.92900	34.53
3.94567	34.52
3.96233	34.52
3.97900	34.52
3.99567	34.52

[Status Trace (Column Flow)]
Interval(msec)	1000
# of Points	240
Start Time(min)	0.012
End Time(min)	3.996
Intensity Units	
Intensity Multiplier	1
R.Time (min)	Intensity
0.01233	5.52
0.02900	5.17
0.04567	5.49
0.06233	5.73
0.07900	5.63
0.09567	5.52
0.11233	5.52
0.12900	5.52
0.14567	5.52
0.16233	5.52
0.17900	5.52
0.19567	5.52
0.21233	5.52
0.22900	5.52
0.24567	5.52
0.26233	5.52
0.27900	5.52
0.29567	5.52
0.31233	5.52
0.32900	5.52
0.34567	5.52
0.36233	5.52
0.37900	5.52
0.39567	5.52
0.41233	5.52
0.42900	5.52
0.44567	5.52
0.46233	5.52
0.47900	5.52
0.49567	5.52
0.51233	5.52
0.52900	5.52
0.54567	5.52
0.56233	5.52
0.57900	5.52
0.59567	5.52
0.61233	5.52
0.62900	5.52
0.64567	5.52
0.66233	5.52
0.67900	5.52
0.69567	5.52
0.71233	5.52
0.72900	5.52
0.74567	5.52
0.76233	5.52
0.77900	5.52
0.79567	5.52
0.81233	5.52
0.82900	5.52
0.84567	5.52
0.86233	5.52
0.87900	5.52
0.89567	5.52
0.91233	5.52
0.92900	5.52
0.94567	5.52
0.96233	5.52
0.97900	5.52
0.99567	5.52
1.01233	5.52
1.02900	5.52
1.04567	5.52
1.06233	5.52
1.07900	5.52
1.09567	5.52
1.11233	5.52
1.12900	5.52
1.14567	5.52
1.16233	5.52
1.17900	5.52
1.19567	5.52
1.21233	5.52
1.22900	5.52
1.24567	5.52
1.26233	5.52
1.27900	5.52
1.29567	5.52
1.31233	5.52
1.32900	5.52
1.34567	5.52
1.36233	5.52
1.37900	5.52
1.39567	5.52
1.41233	5.52
1.42900	5.52
1.44567	5.52
1.46233	5.52
1.47900	5.52
1.49567	5.52
1.51233	5.52
1.52900	5.52
1.54567	5.52
1.56233	5.52
1.57900	5.52
1.59567	5.52
1.61233	5.52
1.62900	5.51
1.64567	5.51
1.66233	5.50
1.67900	5.49
1.69567	5.48
1.71233	5.47
1.72900	5.46
1.74567	5.45
1.76233	5.43
1.77900	5.43
1.79567	5.41
1.81233	5.40
1.82900	5.40
1.84567	5.38
1.86233	5.37
1.87900	5.37
1.89567	5.35
1.91233	5.34
1.92900	5.34
1.94567	5.32
1.96233	5.31
1.97900	5.31
1.99567	5.30
2.01233	5.29
2.02900	5.28
2.04567	5.27
2.06233	5.26
2.07900	5.25
2.09567	5.24
2.11233	5.23
2.12900	5.22
2.14567	5.21
2.16233	5.20
2.17900	5.19
2.19567	5.18
2.21233	5.17
2.22900	5.16
2.24567	5.15
2.26233	5.14
2.27900	5.14
2.29567	5.13
2.31233	5.12
2.32900	5.11
2.34567	5.10
2.36233	5.09
2.37900	5.09
2.39567	5.09
2.41233	5.09
2.42900	5.09
2.44567	5.09
2.46233	5.09
2.47900	5.09
2.49567	5.09
2.51233	5.09
2.52900	5.08
2.54567	5.09
2.56233	5.09
2.57900	5.08
2.59567	5.08
2.61233	5.08
2.62900	5.08
2.64567	5.08
2.66233	5.08
2.67900	5.08
2.69567	5.08
2.71233	5.08
2.72900	5.08
2.74567	5.08
2.76233	5.08
2.77900	5.08
2.79567	5.08
2.81233	5.08
2.82900	5.08
2.84567	5.08
2.86233	5.08
2.87900	5.08
2.89567	5.08
2.91233	5.08
2.92900	5.08
2.94567	5.08
2.96233	5.08
2.97900	5.08
2.99567	5.08
3.01233	5.08
3.02900	5.08
3.04567	5.08
3.06233	5.08
3.07900	5.08
3.09567	5.08
3.11233	5.08
3.12900	5.08
3.14567	5.08
3.16233	5.08
3.17900	5.08
3.19567	5.08
3.21233	5.08
3.22900	5.08
3.24567	5.08
3.26233	5.08
3.27900	5.08
3.29567	5.08
3.31233	5.08
3.32900	5.08
3.34567	5.08
3.36233	5.08
3.37900	5.08
3.39567	5.08
3.41233	5.08
3.42900	5.08
3.44567	5.08
3.46233	5.08
3.47900	5.08
3.49567	5.08
3.51233	5.08
3.52900	5.08
3.54567	5.08
3.56233	5.08
3.57900	5.08
3.59567	5.08
3.61233	5.08
3.62900	5.08
3.64567	5.08
3.66233	5.08
3.67900	5.08
3.69567	5.08
3.71233	5.08
3.72900	5.08
3.74567	5.08
3.76233	5.08
3.77900	5.08
3.79567	5.08
3.81233	5.08
3.82900	5.08
3.84567	5.08
3.86233	5.08
3.87900	5.08
3.89567	5.08
3.91233	5.08
3.92900	5.08
3.94567	5.08
3.96233	5.08
3.97900	5.08
3.99567	5.08

[Status Trace (Linear Velocity)]
Interval(msec)	1000
# of Points	240
Start Time(min)	0.012
End Time(min)	3.996
Intensity Units	
Intensity Multiplier	1
R.Time (min)	Intensity
0.01233	38.99
0.02900	37.02
0.04567	38.83
0.06233	40.16
0.07900	39.62
0.09567	39.01
0.11233	39.01
0.12900	39.02
0.14567	39.02
0.16233	39.02
0.17900	39.02
0.19567	39.01
0.21233	39.01
0.22900	39.01
0.24567	39.01
0.26233	39.01
0.27900	39.01
0.29567	39.01
0.31233	39.02
0.32900	39.02
0.34567	39.02
0.36233	39.01
0.37900	39.02
0.39567	39.02
0.41233	39.02
0.42900	39.02
0.44567	39.02
0.46233	39.02
0.47900	39.02
0.49567	39.02
0.51233	39.02
0.52900	39.02
0.54567	39.02
0.56233	39.02
0.57900	39.02
0.59567	39.01
0.61233	39.02
0.62900	39.02
0.64567	39.01
0.66233	39.01
0.67900	39.01
0.69567	39.02
0.71233	39.02
0.72900	39.02
0.74567	39.02
0.76233	39.02
0.77900	39.02
0.79567	39.02
0.81233	39.02
0.82900	39.02
0.84567	39.02
0.86233	39.02
0.87900	39.02
0.89567	39.02
0.91233	39.02
0.92900	39.02
0.94567	39.02
0.96233	39.02
0.97900	39.02
0.99567	39.02
1.01233	39.02
1.02900	39.02
1.04567	39.02
1.06233	39.02
1.07900	39.02
1.09567	39.02
1.11233	39.02
1.12900	39.02
1.14567	39.02
1.16233	39.02
1.17900	39.02
1.19567	39.02
1.21233	39.02
1.22900	39.02
1.24567	39.02
1.26233	39.02
1.27900	39.02
1.29567	39.02
1.31233	39.02
1.32900	39.02
1.34567	39.02
1.36233	39.02
1.37900	39.02
1.39567	39.02
1.41233	39.02
1.42900	39.02
1.44567	39.02
1.46233	39.02
1.47900	39.02
1.49567	39.02
1.51233	39.02
1.52900	39.02
1.54567	39.02
1.56233	39.02
1.57900	39.02
1.59567	39.02
1.61233	39.01
1.62900	39.00
1.64567	38.98
1.66233	38.95
1.67900	38.92
1.69567	38.88
1.71233	38.85
1.72900	38.82
1.74567	38.78
1.76233	38.75
1.77900	38.72
1.79567	38.69
1.81233	38.66
1.82900	38.63
1.84567	38.60
1.86233	38.56
1.87900	38.54
1.89567	38.50
1.91233	38.47
1.92900	38.44
1.94567	38.41
1.96233	38.38
1.97900	38.35
1.99567	38.32
2.01233	38.29
2.02900	38.26
2.04567	38.23
2.06233	38.20
2.07900	38.17
2.09567	38.14
2.11233	38.11
2.12900	38.08
2.14567	38.05
2.16233	38.02
2.17900	38.00
2.19567	37.96
2.21233	37.93
2.22900	37.91
2.24567	37.88
2.26233	37.84
2.27900	37.82
2.29567	37.79
2.31233	37.76
2.32900	37.73
2.34567	37.70
2.36233	37.67
2.37900	37.66
2.39567	37.66
2.41233	37.66
2.42900	37.66
2.44567	37.66
2.46233	37.66
2.47900	37.66
2.49567	37.66
2.51233	37.65
2.52900	37.65
2.54567	37.66
2.56233	37.66
2.57900	37.65
2.59567	37.65
2.61233	37.65
2.62900	37.65
2.64567	37.65
2.66233	37.65
2.67900	37.65
2.69567	37.65
2.71233	37.65
2.72900	37.65
2.74567	37.65
2.76233	37.64
2.77900	37.64
2.79567	37.64
2.81233	37.64
2.82900	37.64
2.84567	37.64
2.86233	37.64
2.87900	37.64
2.89567	37.64
2.91233	37.64
2.92900	37.64
2.94567	37.64
2.96233	37.64
2.97900	37.64
2.99567	37.63
3.01233	37.63
3.02900	37.63
3.04567	37.63
3.06233	37.63
3.07900	37.63
3.09567	37.63
3.11233	37.63
3.12900	37.63
3.14567	37.63
3.16233	37.63
3.17900	37.63
3.19567	37.63
3.21233	37.63
3.22900	37.63
3.24567	37.62
3.26233	37.62
3.27900	37.62
3.29567	37.62
3.31233	37.62
3.32900	37.62
3.34567	37.62
3.36233	37.62
3.37900	37.62
3.39567	37.62
3.41233	37.62
3.42900	37.62
3.44567	37.63
3.46233	37.63
3.47900	37.63
3.49567	37.63
3.51233	37.62
3.52900	37.63
3.54567	37.62
3.56233	37.62
3.57900	37.62
3.59567	37.62
3.61233	37.62
3.62900	37.62
3.64567	37.62
3.66233	37.62
3.67900	37.63
3.69567	37.63
3.71233	37.63
3.72900	37.63
3.74567	37.63
3.76233	37.63
3.77900	37.63
3.79567	37.63
3.81233	37.63
3.82900	37.63
3.84567	37.63
3.86233	37.63
3.87900	37.63
3.89567	37.63
3.91233	37.63
3.92900	37.63
3.94567	37.63
3.96233	37.63
3.97900	37.63
3.99567	37.63

