[Header]
Application Name	LabSolutions
Version	5.110
Data File Name	C:\Users\User\Desktop\GC Analyses\Jack\Nachusa Grasslands Sampling\T2 Timepoint July 12th\T2_07122022_082.gcd
Output Date	3/14/2023
Output Time	3:42:35 PM

[File Information]
Type	Data File
Generated	3/10/2023 9:36:45 PM
Generated by	System Administrator
Modified	3/10/2023 9:43:37 PM
Modified by	System Administrator

[Sample Information]
Operator Name	System Administrator
Acquired	3/10/2023 9:39:36 PM
Sample Type	0:Unknown
Level	0
Sample Name	082
Sample ID	082
ISTD Amount1	1
ISTD Amount2	1
ISTD Amount3	1
ISTD Amount4	1
ISTD Amount5	1
ISTD Amount6	1
ISTD Amount7	1
ISTD Amount8	1
ISTD Amount9	1
ISTD Amount10	1
ISTD Amount11	1
ISTD Amount12	1
ISTD Amount13	1
ISTD Amount14	1
ISTD Amount15	1
ISTD Amount16	1
ISTD Amount17	1
ISTD Amount18	1
ISTD Amount19	1
ISTD Amount20	1
ISTD Amount21	1
ISTD Amount22	1
ISTD Amount23	1
ISTD Amount24	1
ISTD Amount25	1
ISTD Amount26	1
ISTD Amount27	1
ISTD Amount28	1
ISTD Amount29	1
ISTD Amount30	1
ISTD Amount31	1
ISTD Amount32	1
Sample Amount	1
Dilution Factor	1
Vial#	81
Injection Volume	1
Injection Count	1
Bar Code	

[Original Files]
Data File	C:\Users\User\Desktop\GC Analyses\Jack\Nachusa Grasslands Sampling\T1 Timepoint July 12th\T2_07122022_082.gcd
Method File	C:\LabSolutions\Data\GHG_4min_2022\ghg3_togas_w_acet_4 min_new_int.gcm
Batch File	C:\LabSolutions\Data\AutoSamplerTesting\T2_07122022.gcb
Report Format File	c:\LabSolutions\System\DEFAULT.lsr

[File Description]


[Configuration]
Instrument Name	C0B7VH3-Instrument1
Instrument #	1
Line #	1
# of Detectors	3
Detector ID	DET#1	DET#2	DET#3
Detector Name	FID	PTCD	ECD
# of Channels	1	1	1

[Peak Table(Ch1)]
# of Peaks	3
Peak#	R.Time	I.Time	F.Time	Area	Height	A/H	Conc.	Mark	ID#	Name	k'	Plate #	Plate Ht.	Tailing	Resolution	Sep.Factor	Area Ratio	Height Ratio	Conc. %	Norm Conc.
1	1.476	1.435	1.538	28830	13759	2.095	203.543	   	1	CO	0.000	9369	16.011	1.277	0.000	0.000	0	0	23.618	23.618
2	1.567	1.538	1.622	4512	2213	2.038	87.243	 V 	2	CH4	0.062	10280	14.591	0.000	1.493	0.000	0	0	10.123	10.123
3	1.996	1.941	2.539	2275251	1084532	2.098	571.026	   	3	CO2	0.353	17498	8.572	1.229	7.021	5.680	0	0	66.259	66.259

[Peak Table(Ch2)]
# of Peaks	0

[Peak Table(Ch3)]
# of Peaks	6
Peak#	R.Time	I.Time	F.Time	Area	Height	A/H	Conc.	Mark	ID#	Name	k'	Plate #	Plate Ht.	Tailing	Resolution	Sep.Factor	Area Ratio	Height Ratio	Conc. %	Norm Conc.
1	2.458	2.337	2.513	2024	664	3.050	0.000	   			0.000	12207	12.288	0.000	0.000	0.000	0	0	0.000	0.000
2	2.532	2.513	2.631	923	265	3.477	0.000	 V 			0.030	8529	17.586	0.000	0.738	0.000	0	0	0.000	0.000
3	2.649	2.631	2.689	109	47	2.308	0.000	 V 			0.078	19766	7.589	0.000	1.268	2.600	0	0	0.000	0.000
4	2.876	2.733	2.964	18806	5159	3.645	0.480	   	1	N2O	0.170	13393	11.200	1.432	2.601	2.192	0	0	82.869	82.869
5	3.023	2.964	3.133	3888	422	9.211	0.099	 V 	1	N2O	0.230	69	2158.343	0.000	0.189	1.351	0	0	17.131	17.131
6	3.243	3.133	3.951	12269	433	28.330	0.000	 V 	2	SF6	0.319	103	1457.825	0.000	0.161	1.390	0	0	0.000	0.000

[Compound Results(Ch1)]
# of IDs	6
ID#	Name	R.Time	Area	Height	Conc.	Curve	3rd	2nd	1st	Constant	Area Ratio	Height Ratio	Conc. %	Norm Conc.
1	CO	1.476	28830	13759	203.543	Linear	0.000000e+00	0.000000e+00	1.416423e+002	0.000000e+00	0	0	23.618	23.618
2	CH4	1.567	4512	2213	87.243	Linear	0.000000e+00	0.000000e+00	5.171738e+001	0.000000e+00	0	0	10.123	10.123
3	CO2	1.996	2275251	1084532	571.026	Linear	0.000000e+00	0.000000e+00	3.984494e+003	0.000000e+00	0	0	66.259	66.259
4	Ethylene	0.000	0	0	0.000	Linear	0.000000e+00	0.000000e+00	0.000000e+00	0.000000e+00	0	0	0.000	0.000
5	Acetylene	0.000	0	0	0.000	Linear	0.000000e+00	0.000000e+00	0.000000e+00	0.000000e+00	0	0	0.000	0.000
6	Ethane	0.000	0	0	0.000	Linear	0.000000e+00	0.000000e+00	0.000000e+00	0.000000e+00	0	0	0.000	0.000

[Compound Results(Ch2)]
# of IDs	5
ID#	Name	R.Time	Area	Height	Conc.	Curve	3rd	2nd	1st	Constant	Area Ratio	Height Ratio	Conc. %	Norm Conc.
1	Hydrogen	0.000	0	0	0.000	Linear	0.000000e+00	0.000000e+00	0.000000e+00	0.000000e+00	0	0	0.000	0.000
2	Oxygen	0.000	0	0	0.000	Linear	0.000000e+00	0.000000e+00	0.000000e+00	0.000000e+00	0	0	0.000	0.000
3	Nitrogen	0.000	0	0	0.000	Linear	0.000000e+00	0.000000e+00	0.000000e+00	0.000000e+00	0	0	0.000	0.000
4	Methane	0.000	0	0	0.000	Linear	0.000000e+00	0.000000e+00	0.000000e+00	0.000000e+00	0	0	0.000	0.000
5	Carbon Monoxide	0.000	0	0	0.000	Linear	0.000000e+00	0.000000e+00	0.000000e+00	0.000000e+00	0	0	0.000	0.000

[Compound Results(Ch3)]
# of IDs	2
ID#	Name	R.Time	Area	Height	Conc.	Curve	3rd	2nd	1st	Constant	Area Ratio	Height Ratio	Conc. %	Norm Conc.
1	N2O	2.876	22694	5581	0.580	Linear	0.000000e+00	0.000000e+00	3.915173e+004	0.000000e+00	0	0	100.000	100.000
2	SF6	3.243	12269	433	0.000	Linear	0.000000e+00	0.000000e+00	0.000000e+00	0.000000e+00	0	0	0.000	0.000

[Group Results(Ch1)]
# of Groups	0

[Group Results(Ch2)]
# of Groups	0

[Group Results(Ch3)]
# of Groups	0

[Chromatogram (Ch1)]
Interval(msec)	220
# of Points	1091
Start Time(min)	0.002
End Time(min)	3.998
R.Time (min)	Intensity
0.00167	-4
0.00533	-2
0.00900	1
0.01267	-1
0.01633	-3
0.02000	-0
0.02367	6
0.02733	13
0.03100	20
0.03467	24
0.03833	20
0.04200	16
0.04567	15
0.04933	16
0.05300	18
0.05667	22
0.06033	28
0.06400	32
0.06767	38
0.07133	44
0.07500	50
0.07867	52
0.08233	57
0.08600	61
0.08967	60
0.09333	53
0.09700	44
0.10067	39
0.10433	38
0.10800	38
0.11167	37
0.11533	34
0.11900	29
0.12267	25
0.12633	21
0.13000	15
0.13367	8
0.13733	3
0.14100	2
0.14467	5
0.14833	7
0.15200	9
0.15567	8
0.15933	1
0.16300	-5
0.16667	-9
0.17033	-11
0.17400	-15
0.17767	-21
0.18133	-22
0.18500	-21
0.18867	-19
0.19233	-16
0.19600	-8
0.19967	-4
0.20333	-6
0.20700	-13
0.21067	-21
0.21433	-28
0.21800	-36
0.22167	-44
0.22533	-47
0.22900	-46
0.23267	-44
0.23633	-40
0.24000	-30
0.24367	-21
0.24733	-21
0.25100	-25
0.25467	-28
0.25833	-30
0.26200	-31
0.26567	-30
0.26933	-27
0.27300	-26
0.27667	-26
0.28033	-26
0.28400	-28
0.28767	-32
0.29133	-33
0.29500	-33
0.29867	-32
0.30233	-33
0.30600	-36
0.30967	-38
0.31333	-37
0.31700	-35
0.32067	-28
0.32433	-19
0.32800	-11
0.33167	-9
0.33533	-11
0.33900	-13
0.34267	-16
0.34633	-24
0.35000	-31
0.35367	-35
0.35733	-34
0.36100	-31
0.36467	-31
0.36833	-31
0.37200	-29
0.37567	-30
0.37933	-31
0.38300	-33
0.38667	-34
0.39033	-34
0.39400	-31
0.39767	-24
0.40133	-16
0.40500	-8
0.40867	-3
0.41233	-2
0.41600	-3
0.41967	-9
0.42333	-14
0.42700	-15
0.43067	-11
0.43433	-10
0.43800	-14
0.44167	-21
0.44533	-27
0.44900	-33
0.45267	-34
0.45633	-28
0.46000	-21
0.46367	-16
0.46733	-13
0.47100	-12
0.47467	-12
0.47833	-12
0.48200	-12
0.48567	-12
0.48933	-14
0.49300	-17
0.49667	-18
0.50033	-16
0.50400	-15
0.50767	-11
0.51133	-9
0.51500	-9
0.51867	-8
0.52233	-5
0.52600	-5
0.52967	-8
0.53333	-11
0.53700	-11
0.54067	-10
0.54433	-7
0.54800	-3
0.55167	-1
0.55533	-4
0.55900	-9
0.56267	-13
0.56633	-11
0.57000	-8
0.57367	-6
0.57733	-4
0.58100	-2
0.58467	-2
0.58833	-4
0.59200	-8
0.59567	-11
0.59933	-15
0.60300	-20
0.60667	-25
0.61033	-31
0.61400	-36
0.61767	-39
0.62133	-39
0.62500	-37
0.62867	-35
0.63233	-30
0.63600	-25
0.63967	-22
0.64333	-24
0.64700	-27
0.65067	-31
0.65433	-37
0.65800	-39
0.66167	-36
0.66533	-30
0.66900	-25
0.67267	-19
0.67633	-13
0.68000	-10
0.68367	-8
0.68733	-4
0.69100	-1
0.69467	1
0.69833	2
0.70200	3
0.70567	1
0.70933	-4
0.71300	-11
0.71667	-19
0.72033	-25
0.72400	-27
0.72767	-29
0.73133	-32
0.73500	-36
0.73867	-36
0.74233	-33
0.74600	-35
0.74967	-41
0.75333	-48
0.75700	-52
0.76067	-49
0.76433	-49
0.76800	-54
0.77167	-59
0.77533	-62
0.77900	-61
0.78267	-56
0.78633	-49
0.79000	-43
0.79367	-43
0.79733	-50
0.80100	-57
0.80467	-60
0.80833	-62
0.81200	-60
0.81567	-59
0.81933	-59
0.82300	-53
0.82667	-48
0.83033	-47
0.83400	-47
0.83767	-46
0.84133	-42
0.84500	-37
0.84867	-32
0.85233	-30
0.85600	-32
0.85967	-41
0.86333	-53
0.86700	-62
0.87067	-65
0.87433	-64
0.87800	-59
0.88167	-55
0.88533	-50
0.88900	-45
0.89267	-43
0.89633	-42
0.90000	-49
0.90367	-58
0.90733	-67
0.91100	-75
0.91467	-82
0.91833	-87
0.92200	-86
0.92567	-81
0.92933	-75
0.93300	-70
0.93667	-67
0.94033	-63
0.94400	-54
0.94767	-48
0.95133	-47
0.95500	-46
0.95867	-47
0.96233	-54
0.96600	-65
0.96967	-73
0.97333	-82
0.97700	-88
0.98067	-91
0.98433	-91
0.98800	-91
0.99167	-87
0.99533	-81
0.99900	-75
1.00267	-69
1.00633	-62
1.01000	-53
1.01367	-47
1.01733	-52
1.02100	-60
1.02467	-73
1.02833	-87
1.03200	-87
1.03567	-87
1.03933	-87
1.04300	-93
1.04667	-92
1.05033	-91
1.05400	-93
1.05767	-93
1.06133	-90
1.06500	-83
1.06867	-79
1.07233	-78
1.07600	-81
1.07967	-83
1.08333	-82
1.08700	-81
1.09067	-84
1.09433	-91
1.09800	-91
1.10167	-88
1.10533	-83
1.10900	-79
1.11267	-79
1.11633	-81
1.12000	-84
1.12367	-84
1.12733	-80
1.13100	-78
1.13467	-80
1.13833	-87
1.14200	-93
1.14567	-99
1.14933	-101
1.15300	-99
1.15667	-97
1.16033	-95
1.16400	-93
1.16767	-87
1.17133	-82
1.17500	-83
1.17867	-86
1.18233	-84
1.18600	-76
1.18967	-64
1.19333	-58
1.19700	-58
1.20067	-62
1.20433	-64
1.20800	-69
1.21167	-76
1.21533	-81
1.21900	-91
1.22267	-106
1.22633	-118
1.23000	-124
1.23367	-126
1.23733	-131
1.24100	-139
1.24467	-143
1.24833	-142
1.25200	-142
1.25567	-142
1.25933	-139
1.26300	-132
1.26667	-123
1.27033	-115
1.27400	-107
1.27767	-101
1.28133	-100
1.28500	-103
1.28867	-111
1.29233	-118
1.29600	-124
1.29967	-127
1.30333	-124
1.30700	-119
1.31067	-116
1.31433	-117
1.31800	-121
1.32167	-125
1.32533	-125
1.32900	-120
1.33267	-111
1.33633	-102
1.34000	-95
1.34367	-90
1.34733	-88
1.35100	-84
1.35467	-82
1.35833	-94
1.36200	-111
1.36567	-119
1.36933	-120
1.37300	-120
1.37667	-122
1.38033	-124
1.38400	-122
1.38767	-118
1.39133	-116
1.39500	-112
1.39867	-105
1.40233	-99
1.40600	-99
1.40967	-101
1.41333	-106
1.41700	-116
1.42067	-128
1.42433	-137
1.42800	-141
1.43167	-140
1.43533	-129
1.43900	-89
1.44267	33
1.44633	315
1.45000	1027
1.45367	2582
1.45733	4968
1.46100	7663
1.46467	10125
1.46833	12043
1.47200	13262
1.47567	13643
1.47933	13098
1.48300	11708
1.48667	9767
1.49033	7675
1.49400	5760
1.49767	4188
1.50133	2986
1.50500	2108
1.50867	1485
1.51233	1055
1.51600	763
1.51967	562
1.52333	422
1.52700	321
1.53067	241
1.53433	177
1.53800	146
1.54167	198
1.54533	392
1.54900	731
1.55267	1141
1.55633	1531
1.56000	1844
1.56367	2051
1.56733	2126
1.57100	2046
1.57467	1814
1.57833	1478
1.58200	1120
1.58567	800
1.58933	546
1.59300	363
1.59667	236
1.60033	145
1.60400	78
1.60767	26
1.61133	-11
1.61500	-37
1.61867	-57
1.62233	-70
1.62600	-75
1.62967	-75
1.63333	-73
1.63700	-69
1.64067	-67
1.64433	-69
1.64800	-73
1.65167	-74
1.65533	-72
1.65900	-70
1.66267	-72
1.66633	-80
1.67000	-88
1.67367	-96
1.67733	-107
1.68100	-116
1.68467	-123
1.68833	-126
1.69200	-116
1.69567	-106
1.69933	-109
1.70300	-117
1.70667	-122
1.71033	-127
1.71400	-133
1.71767	-139
1.72133	-141
1.72500	-139
1.72867	-133
1.73233	-127
1.73600	-125
1.73967	-125
1.74333	-123
1.74700	-118
1.75067	-114
1.75433	-110
1.75800	-111
1.76167	-115
1.76533	-118
1.76900	-118
1.77267	-116
1.77633	-110
1.78000	-99
1.78367	-94
1.78733	-96
1.79100	-102
1.79467	-108
1.79833	-114
1.80200	-118
1.80567	-121
1.80933	-125
1.81300	-131
1.81667	-135
1.82033	-136
1.82400	-135
1.82767	-132
1.83133	-124
1.83500	-118
1.83867	-111
1.84233	-102
1.84600	-97
1.84967	-97
1.85333	-94
1.85700	-96
1.86067	-102
1.86433	-106
1.86800	-109
1.87167	-110
1.87533	-111
1.87900	-112
1.88267	-115
1.88633	-117
1.89000	-119
1.89367	-123
1.89733	-124
1.90100	-123
1.90467	-116
1.90833	-112
1.91200	-112
1.91567	-119
1.91933	-127
1.92300	-132
1.92667	-133
1.93033	-129
1.93400	-124
1.93767	-118
1.94133	-112
1.94500	-104
1.94867	-91
1.95233	-35
1.95600	307
1.95967	2162
1.96333	9970
1.96700	34928
1.97067	96230
1.97433	212688
1.97800	385818
1.98167	592404
1.98533	795418
1.98900	959766
1.99267	1060228
1.99633	1084469
2.00000	1032966
2.00367	919416
2.00733	768184
2.01100	606700
2.01467	457283
2.01833	332563
2.02200	236033
2.02567	165269
2.02933	115308
2.03300	80900
2.03667	57546
2.04033	41796
2.04400	31168
2.04767	23943
2.05133	18963
2.05500	15467
2.05867	12964
2.06233	11117
2.06600	9718
2.06967	8637
2.07333	7779
2.07700	7074
2.08067	6481
2.08433	5977
2.08800	5546
2.09167	5177
2.09533	4857
2.09900	4567
2.10267	4303
2.10633	4068
2.11000	3860
2.11367	3682
2.11733	3521
2.12100	3360
2.12467	3207
2.12833	3064
2.13200	2935
2.13567	2816
2.13933	2704
2.14300	2604
2.14667	2513
2.15033	2426
2.15400	2341
2.15767	2258
2.16133	2182
2.16500	2114
2.16867	2046
2.17233	1981
2.17600	1921
2.17967	1858
2.18333	1792
2.18700	1732
2.19067	1677
2.19433	1626
2.19800	1584
2.20167	1550
2.20533	1521
2.20900	1495
2.21267	1466
2.21633	1435
2.22000	1397
2.22367	1358
2.22733	1315
2.23100	1275
2.23467	1242
2.23833	1215
2.24200	1186
2.24567	1159
2.24933	1135
2.25300	1116
2.25667	1095
2.26033	1071
2.26400	1043
2.26767	1017
2.27133	992
2.27500	967
2.27867	944
2.28233	924
2.28600	908
2.28967	895
2.29333	885
2.29700	873
2.30067	858
2.30433	845
2.30800	835
2.31167	824
2.31533	812
2.31900	797
2.32267	787
2.32633	779
2.33000	769
2.33367	755
2.33733	737
2.34100	716
2.34467	696
2.34833	681
2.35200	671
2.35567	663
2.35933	654
2.36300	647
2.36667	640
2.37033	635
2.37400	632
2.37767	630
2.38133	628
2.38500	630
2.38867	635
2.39233	635
2.39600	623
2.39967	605
2.40333	587
2.40700	571
2.41067	558
2.41433	548
2.41800	538
2.42167	530
2.42533	527
2.42900	524
2.43267	520
2.43633	516
2.44000	514
2.44367	511
2.44733	506
2.45100	499
2.45467	492
2.45833	486
2.46200	483
2.46567	484
2.46933	489
2.47300	493
2.47667	488
2.48033	474
2.48400	456
2.48767	441
2.49133	432
2.49500	429
2.49867	432
2.50233	439
2.50600	442
2.50967	440
2.51333	432
2.51700	424
2.52067	421
2.52433	418
2.52800	415
2.53167	416
2.53533	417
2.53900	418
2.54267	422
2.54633	425
2.55000	423
2.55367	414
2.55733	403
2.56100	388
2.56467	374
2.56833	363
2.57200	355
2.57567	355
2.57933	358
2.58300	361
2.58667	363
2.59033	363
2.59400	364
2.59767	367
2.60133	364
2.60500	361
2.60867	358
2.61233	357
2.61600	355
2.61967	353
2.62333	350
2.62700	349
2.63067	352
2.63433	354
2.63800	357
2.64167	360
2.64533	362
2.64900	363
2.65267	361
2.65633	358
2.66000	357
2.66367	356
2.66733	355
2.67100	350
2.67467	344
2.67833	336
2.68200	328
2.68567	324
2.68933	320
2.69300	319
2.69667	320
2.70033	325
2.70400	333
2.70767	339
2.71133	340
2.71500	333
2.71867	323
2.72233	312
2.72600	300
2.72967	293
2.73333	291
2.73700	289
2.74067	288
2.74433	288
2.74800	288
2.75167	289
2.75533	289
2.75900	288
2.76267	288
2.76633	289
2.77000	292
2.77367	289
2.77733	283
2.78100	279
2.78467	282
2.78833	291
2.79200	297
2.79567	294
2.79933	293
2.80300	298
2.80667	304
2.81033	311
2.81400	313
2.81767	309
2.82133	305
2.82500	302
2.82867	298
2.83233	299
2.83600	307
2.83967	316
2.84333	318
2.84700	315
2.85067	313
2.85433	311
2.85800	305
2.86167	297
2.86533	290
2.86900	280
2.87267	265
2.87633	253
2.88000	248
2.88367	248
2.88733	250
2.89100	252
2.89467	255
2.89833	261
2.90200	269
2.90567	277
2.90933	284
2.91300	286
2.91667	288
2.92033	292
2.92400	297
2.92767	301
2.93133	301
2.93500	296
2.93867	287
2.94233	278
2.94600	273
2.94967	274
2.95333	273
2.95700	271
2.96067	276
2.96433	283
2.96800	288
2.97167	292
2.97533	293
2.97900	294
2.98267	290
2.98633	283
2.99000	275
2.99367	266
2.99733	262
3.00100	261
3.00467	261
3.00833	262
3.01200	267
3.01567	271
3.01933	276
3.02300	280
3.02667	281
3.03033	276
3.03400	268
3.03767	264
3.04133	266
3.04500	272
3.04867	278
3.05233	285
3.05600	288
3.05967	286
3.06333	281
3.06700	276
3.07067	269
3.07433	262
3.07800	258
3.08167	255
3.08533	251
3.08900	248
3.09267	247
3.09633	243
3.10000	240
3.10367	240
3.10733	241
3.11100	241
3.11467	245
3.11833	250
3.12200	252
3.12567	254
3.12933	256
3.13300	254
3.13667	252
3.14033	248
3.14400	242
3.14767	238
3.15133	236
3.15500	235
3.15867	238
3.16233	242
3.16600	249
3.16967	255
3.17333	260
3.17700	264
3.18067	262
3.18433	261
3.18800	264
3.19167	267
3.19533	269
3.19900	270
3.20267	266
3.20633	256
3.21000	245
3.21367	240
3.21733	241
3.22100	241
3.22467	236
3.22833	230
3.23200	229
3.23567	231
3.23933	233
3.24300	228
3.24667	220
3.25033	219
3.25400	222
3.25767	222
3.26133	221
3.26500	222
3.26867	225
3.27233	224
3.27600	222
3.27967	218
3.28333	217
3.28700	216
3.29067	215
3.29433	217
3.29800	220
3.30167	220
3.30533	217
3.30900	216
3.31267	215
3.31633	214
3.32000	216
3.32367	223
3.32733	227
3.33100	225
3.33467	218
3.33833	211
3.34200	208
3.34567	206
3.34933	206
3.35300	206
3.35667	204
3.36033	201
3.36400	196
3.36767	195
3.37133	198
3.37500	201
3.37867	204
3.38233	207
3.38600	207
3.38967	205
3.39333	201
3.39700	194
3.40067	186
3.40433	184
3.40800	180
3.41167	174
3.41533	168
3.41900	163
3.42267	160
3.42633	161
3.43000	167
3.43367	172
3.43733	178
3.44100	181
3.44467	183
3.44833	184
3.45200	188
3.45567	197
3.45933	205
3.46300	202
3.46667	193
3.47033	182
3.47400	173
3.47767	170
3.48133	169
3.48500	172
3.48867	178
3.49233	181
3.49600	182
3.49967	186
3.50333	188
3.50700	189
3.51067	189
3.51433	184
3.51800	178
3.52167	172
3.52533	165
3.52900	161
3.53267	159
3.53633	159
3.54000	160
3.54367	162
3.54733	163
3.55100	163
3.55467	161
3.55833	160
3.56200	162
3.56567	163
3.56933	159
3.57300	155
3.57667	154
3.58033	155
3.58400	161
3.58767	166
3.59133	170
3.59500	171
3.59867	168
3.60233	171
3.60600	177
3.60967	181
3.61333	181
3.61700	180
3.62067	177
3.62433	169
3.62800	160
3.63167	150
3.63533	141
3.63900	137
3.64267	137
3.64633	140
3.65000	142
3.65367	144
3.65733	145
3.66100	145
3.66467	147
3.66833	153
3.67200	159
3.67567	161
3.67933	158
3.68300	154
3.68667	155
3.69033	157
3.69400	157
3.69767	157
3.70133	157
3.70500	153
3.70867	148
3.71233	143
3.71600	141
3.71967	137
3.72333	133
3.72700	132
3.73067	133
3.73433	134
3.73800	133
3.74167	133
3.74533	132
3.74900	132
3.75267	135
3.75633	138
3.76000	139
3.76367	143
3.76733	149
3.77100	151
3.77467	154
3.77833	153
3.78200	152
3.78567	151
3.78933	150
3.79300	150
3.79667	149
3.80033	148
3.80400	149
3.80767	151
3.81133	152
3.81500	150
3.81867	145
3.82233	140
3.82600	136
3.82967	133
3.83333	128
3.83700	126
3.84067	127
3.84433	130
3.84800	138
3.85167	149
3.85533	159
3.85900	163
3.86267	161
3.86633	155
3.87000	146
3.87367	138
3.87733	130
3.88100	124
3.88467	123
3.88833	125
3.89200	128
3.89567	132
3.89933	133
3.90300	131
3.90667	125
3.91033	117
3.91400	111
3.91767	107
3.92133	105
3.92500	106
3.92867	104
3.93233	102
3.93600	98
3.93967	94
3.94333	95
3.94700	103
3.95067	110
3.95433	113
3.95800	113
3.96167	115
3.96533	118
3.96900	120
3.97267	121
3.97633	123
3.98000	125
3.98367	129
3.98733	133
3.99100	132
3.99467	129
3.99833	127

[Chromatogram (Ch2)]
Interval(msec)	220
# of Points	1091
Start Time(min)	0.002
End Time(min)	3.998
R.Time (min)	Intensity
0.00167	-0
0.00533	-0
0.00900	-1
0.01267	-1
0.01633	-2
0.02000	-2
0.02367	-3
0.02733	-3
0.03100	-4
0.03467	-4
0.03833	-5
0.04200	-5
0.04567	-5
0.04933	-6
0.05300	-6
0.05667	-6
0.06033	-6
0.06400	-6
0.06767	-5
0.07133	-5
0.07500	-5
0.07867	-4
0.08233	-4
0.08600	-3
0.08967	-3
0.09333	-2
0.09700	-2
0.10067	-1
0.10433	-1
0.10800	-1
0.11167	-0
0.11533	-0
0.11900	-1
0.12267	-1
0.12633	-1
0.13000	-1
0.13367	-1
0.13733	-1
0.14100	-1
0.14467	-1
0.14833	-1
0.15200	-1
0.15567	-1
0.15933	-1
0.16300	-2
0.16667	-2
0.17033	-2
0.17400	-2
0.17767	-2
0.18133	-2
0.18500	-3
0.18867	-3
0.19233	-3
0.19600	-3
0.19967	-3
0.20333	-2
0.20700	-2
0.21067	-2
0.21433	-2
0.21800	-2
0.22167	-1
0.22533	-1
0.22900	-1
0.23267	-1
0.23633	-1
0.24000	-1
0.24367	-1
0.24733	-1
0.25100	-1
0.25467	-0
0.25833	-0
0.26200	-0
0.26567	-1
0.26933	-1
0.27300	-1
0.27667	-1
0.28033	-1
0.28400	-1
0.28767	-1
0.29133	-2
0.29500	-2
0.29867	-2
0.30233	-2
0.30600	-2
0.30967	-2
0.31333	-3
0.31700	-3
0.32067	-3
0.32433	-3
0.32800	-3
0.33167	-3
0.33533	-3
0.33900	-3
0.34267	-3
0.34633	-3
0.35000	-3
0.35367	-3
0.35733	-2
0.36100	-2
0.36467	-2
0.36833	-2
0.37200	-2
0.37567	-2
0.37933	-2
0.38300	-1
0.38667	-1
0.39033	-1
0.39400	-1
0.39767	-1
0.40133	-1
0.40500	-1
0.40867	-1
0.41233	-1
0.41600	-1
0.41967	-2
0.42333	-2
0.42700	-2
0.43067	-2
0.43433	-2
0.43800	-2
0.44167	-2
0.44533	-2
0.44900	-2
0.45267	-2
0.45633	-3
0.46000	-3
0.46367	-3
0.46733	-4
0.47100	-4
0.47467	-4
0.47833	-4
0.48200	-4
0.48567	-4
0.48933	-3
0.49300	-3
0.49667	-3
0.50033	-3
0.50400	-3
0.50767	-3
0.51133	-3
0.51500	-4
0.51867	-4
0.52233	-4
0.52600	-4
0.52967	-4
0.53333	-3
0.53700	-3
0.54067	-3
0.54433	-4
0.54800	-4
0.55167	-4
0.55533	-5
0.55900	-5
0.56267	-5
0.56633	-6
0.57000	-6
0.57367	-6
0.57733	-6
0.58100	-6
0.58467	-6
0.58833	-6
0.59200	-6
0.59567	-6
0.59933	-6
0.60300	-5
0.60667	-5
0.61033	-5
0.61400	-5
0.61767	-5
0.62133	-5
0.62500	-5
0.62867	-5
0.63233	-5
0.63600	-5
0.63967	-5
0.64333	-5
0.64700	-5
0.65067	-5
0.65433	-5
0.65800	-5
0.66167	-5
0.66533	-5
0.66900	-5
0.67267	-4
0.67633	-4
0.68000	-4
0.68367	-4
0.68733	-4
0.69100	-4
0.69467	-4
0.69833	-3
0.70200	-3
0.70567	-3
0.70933	-3
0.71300	-3
0.71667	-3
0.72033	-2
0.72400	-2
0.72767	-2
0.73133	-2
0.73500	-1
0.73867	-1
0.74233	-1
0.74600	-1
0.74967	-1
0.75333	-1
0.75700	-0
0.76067	-1
0.76433	-1
0.76800	-1
0.77167	-1
0.77533	-1
0.77900	-2
0.78267	-2
0.78633	-2
0.79000	-3
0.79367	-3
0.79733	-3
0.80100	-3
0.80467	-3
0.80833	-3
0.81200	-4
0.81567	-4
0.81933	-4
0.82300	-4
0.82667	-3
0.83033	-3
0.83400	-3
0.83767	-3
0.84133	-3
0.84500	-3
0.84867	-3
0.85233	-3
0.85600	-3
0.85967	-3
0.86333	-3
0.86700	-3
0.87067	-3
0.87433	-3
0.87800	-3
0.88167	-3
0.88533	-3
0.88900	-3
0.89267	-2
0.89633	-2
0.90000	-2
0.90367	-2
0.90733	-2
0.91100	-2
0.91467	-3
0.91833	-3
0.92200	-3
0.92567	-4
0.92933	-4
0.93300	-4
0.93667	-4
0.94033	-5
0.94400	-5
0.94767	-4
0.95133	-4
0.95500	-4
0.95867	-4
0.96233	-4
0.96600	-4
0.96967	-4
0.97333	-4
0.97700	-4
0.98067	-4
0.98433	-4
0.98800	-4
0.99167	-4
0.99533	-5
0.99900	-5
1.00267	-5
1.00633	-4
1.01000	-4
1.01367	-4
1.01733	-4
1.02100	-4
1.02467	-3
1.02833	-3
1.03200	-3
1.03567	-3
1.03933	-3
1.04300	-2
1.04667	-2
1.05033	-2
1.05400	-2
1.05767	-2
1.06133	-2
1.06500	-2
1.06867	-2
1.07233	-3
1.07600	-3
1.07967	-3
1.08333	-4
1.08700	-4
1.09067	-4
1.09433	-5
1.09800	-5
1.10167	-5
1.10533	-5
1.10900	-5
1.11267	-6
1.11633	-6
1.12000	-7
1.12367	-7
1.12733	-7
1.13100	-7
1.13467	-7
1.13833	-6
1.14200	-6
1.14567	-6
1.14933	-6
1.15300	-5
1.15667	-5
1.16033	-5
1.16400	-4
1.16767	-4
1.17133	-3
1.17500	-3
1.17867	-3
1.18233	-3
1.18600	-3
1.18967	-3
1.19333	-2
1.19700	-2
1.20067	-2
1.20433	-3
1.20800	-3
1.21167	-4
1.21533	-4
1.21900	-5
1.22267	-5
1.22633	-6
1.23000	-6
1.23367	-6
1.23733	-6
1.24100	-5
1.24467	-5
1.24833	-5
1.25200	-5
1.25567	-4
1.25933	-4
1.26300	-4
1.26667	-4
1.27033	-3
1.27400	-3
1.27767	-3
1.28133	-2
1.28500	-2
1.28867	-2
1.29233	-3
1.29600	-3
1.29967	-3
1.30333	-3
1.30700	-3
1.31067	-4
1.31433	-4
1.31800	-4
1.32167	-5
1.32533	-5
1.32900	-5
1.33267	-5
1.33633	-5
1.34000	-5
1.34367	-6
1.34733	-6
1.35100	-6
1.35467	-6
1.35833	-6
1.36200	-6
1.36567	-6
1.36933	-6
1.37300	-6
1.37667	-6
1.38033	-6
1.38400	-6
1.38767	-6
1.39133	-6
1.39500	-6
1.39867	-6
1.40233	-6
1.40600	-6
1.40967	-6
1.41333	-6
1.41700	-6
1.42067	-5
1.42433	-5
1.42800	-5
1.43167	-4
1.43533	-4
1.43900	-4
1.44267	-4
1.44633	-4
1.45000	-4
1.45367	-4
1.45733	-4
1.46100	-5
1.46467	-5
1.46833	-5
1.47200	-5
1.47567	-5
1.47933	-5
1.48300	-4
1.48667	-4
1.49033	-4
1.49400	-4
1.49767	-4
1.50133	-4
1.50500	-4
1.50867	-3
1.51233	-3
1.51600	-3
1.51967	-3
1.52333	-4
1.52700	-4
1.53067	-4
1.53433	-4
1.53800	-5
1.54167	-5
1.54533	-5
1.54900	-6
1.55267	-6
1.55633	-6
1.56000	-7
1.56367	-7
1.56733	-7
1.57100	-7
1.57467	-7
1.57833	-7
1.58200	-6
1.58567	-6
1.58933	-6
1.59300	-7
1.59667	-7
1.60033	-8
1.60400	-9
1.60767	-11
1.61133	-12
1.61500	-15
1.61867	-17
1.62233	-19
1.62600	-22
1.62967	-25
1.63333	-28
1.63700	-32
1.64067	-35
1.64433	-39
1.64800	-42
1.65167	-46
1.65533	-49
1.65900	-52
1.66267	-56
1.66633	-59
1.67000	-63
1.67367	-68
1.67733	-72
1.68100	-77
1.68467	-82
1.68833	-86
1.69200	-90
1.69567	-94
1.69933	-97
1.70300	-101
1.70667	-103
1.71033	-106
1.71400	-107
1.71767	-109
1.72133	-109
1.72500	-110
1.72867	-110
1.73233	-111
1.73600	-111
1.73967	-110
1.74333	-110
1.74700	-109
1.75067	-109
1.75433	-109
1.75800	-110
1.76167	-111
1.76533	-112
1.76900	-113
1.77267	-114
1.77633	-114
1.78000	-115
1.78367	-116
1.78733	-116
1.79100	-116
1.79467	-117
1.79833	-117
1.80200	-118
1.80567	-118
1.80933	-119
1.81300	-118
1.81667	-118
1.82033	-119
1.82400	-119
1.82767	-119
1.83133	-119
1.83500	-119
1.83867	-119
1.84233	-119
1.84600	-118
1.84967	-118
1.85333	-118
1.85700	-117
1.86067	-117
1.86433	-116
1.86800	-116
1.87167	-115
1.87533	-115
1.87900	-115
1.88267	-115
1.88633	-115
1.89000	-116
1.89367	-116
1.89733	-116
1.90100	-116
1.90467	-115
1.90833	-115
1.91200	-115
1.91567	-116
1.91933	-116
1.92300	-116
1.92667	-116
1.93033	-116
1.93400	-115
1.93767	-114
1.94133	-113
1.94500	-111
1.94867	-111
1.95233	-110
1.95600	-110
1.95967	-110
1.96333	-110
1.96700	-111
1.97067	-111
1.97433	-112
1.97800	-112
1.98167	-112
1.98533	-112
1.98900	-112
1.99267	-112
1.99633	-112
2.00000	-111
2.00367	-111
2.00733	-111
2.01100	-111
2.01467	-111
2.01833	-110
2.02200	-110
2.02567	-110
2.02933	-110
2.03300	-109
2.03667	-108
2.04033	-107
2.04400	-106
2.04767	-105
2.05133	-105
2.05500	-104
2.05867	-103
2.06233	-103
2.06600	-102
2.06967	-102
2.07333	-102
2.07700	-102
2.08067	-101
2.08433	-101
2.08800	-101
2.09167	-101
2.09533	-101
2.09900	-101
2.10267	-101
2.10633	-100
2.11000	-100
2.11367	-100
2.11733	-100
2.12100	-100
2.12467	-100
2.12833	-100
2.13200	-100
2.13567	-100
2.13933	-100
2.14300	-100
2.14667	-100
2.15033	-100
2.15400	-100
2.15767	-99
2.16133	-99
2.16500	-98
2.16867	-98
2.17233	-97
2.17600	-97
2.17967	-96
2.18333	-96
2.18700	-97
2.19067	-97
2.19433	-97
2.19800	-97
2.20167	-96
2.20533	-95
2.20900	-95
2.21267	-94
2.21633	-94
2.22000	-93
2.22367	-92
2.22733	-92
2.23100	-91
2.23467	-91
2.23833	-91
2.24200	-91
2.24567	-90
2.24933	-90
2.25300	-89
2.25667	-89
2.26033	-88
2.26400	-88
2.26767	-88
2.27133	-88
2.27500	-87
2.27867	-87
2.28233	-86
2.28600	-86
2.28967	-85
2.29333	-85
2.29700	-84
2.30067	-84
2.30433	-84
2.30800	-84
2.31167	-84
2.31533	-84
2.31900	-84
2.32267	-84
2.32633	-85
2.33000	-86
2.33367	-86
2.33733	-87
2.34100	-87
2.34467	-86
2.34833	-85
2.35200	-84
2.35567	-83
2.35933	-82
2.36300	-80
2.36667	-78
2.37033	-76
2.37400	-72
2.37767	-69
2.38133	-65
2.38500	-60
2.38867	-56
2.39233	-51
2.39600	-46
2.39967	-42
2.40333	-37
2.40700	-34
2.41067	-30
2.41433	-27
2.41800	-24
2.42167	-21
2.42533	-18
2.42900	-16
2.43267	-15
2.43633	-13
2.44000	-12
2.44367	-11
2.44733	-11
2.45100	-10
2.45467	-9
2.45833	-8
2.46200	-7
2.46567	-6
2.46933	-5
2.47300	-4
2.47667	-3
2.48033	-2
2.48400	-1
2.48767	0
2.49133	1
2.49500	2
2.49867	3
2.50233	4
2.50600	4
2.50967	5
2.51333	6
2.51700	7
2.52067	8
2.52433	9
2.52800	10
2.53167	10
2.53533	10
2.53900	10
2.54267	10
2.54633	10
2.55000	11
2.55367	11
2.55733	11
2.56100	11
2.56467	11
2.56833	11
2.57200	11
2.57567	11
2.57933	11
2.58300	11
2.58667	12
2.59033	12
2.59400	12
2.59767	13
2.60133	13
2.60500	13
2.60867	13
2.61233	14
2.61600	14
2.61967	14
2.62333	14
2.62700	15
2.63067	15
2.63433	15
2.63800	16
2.64167	16
2.64533	17
2.64900	17
2.65267	17
2.65633	18
2.66000	18
2.66367	19
2.66733	19
2.67100	19
2.67467	19
2.67833	18
2.68200	18
2.68567	18
2.68933	18
2.69300	18
2.69667	19
2.70033	19
2.70400	19
2.70767	20
2.71133	20
2.71500	21
2.71867	21
2.72233	22
2.72600	22
2.72967	22
2.73333	22
2.73700	21
2.74067	21
2.74433	20
2.74800	20
2.75167	19
2.75533	19
2.75900	19
2.76267	19
2.76633	19
2.77000	19
2.77367	19
2.77733	20
2.78100	20
2.78467	21
2.78833	21
2.79200	22
2.79567	22
2.79933	23
2.80300	24
2.80667	24
2.81033	25
2.81400	26
2.81767	26
2.82133	27
2.82500	27
2.82867	27
2.83233	27
2.83600	26
2.83967	25
2.84333	22
2.84700	18
2.85067	12
2.85433	4
2.85800	-8
2.86167	-24
2.86533	-44
2.86900	-68
2.87267	-96
2.87633	-129
2.88000	-166
2.88367	-207
2.88733	-251
2.89100	-299
2.89467	-349
2.89833	-401
2.90200	-455
2.90567	-510
2.90933	-565
2.91300	-621
2.91667	-676
2.92033	-731
2.92400	-784
2.92767	-836
2.93133	-888
2.93500	-944
2.93867	-1003
2.94233	-1056
2.94600	-1093
2.94967	-1106
2.95333	-1093
2.95700	-1056
2.96067	-1000
2.96433	-930
2.96800	-853
2.97167	-773
2.97533	-692
2.97900	-615
2.98267	-542
2.98633	-474
2.99000	-412
2.99367	-356
2.99733	-307
3.00100	-263
3.00467	-225
3.00833	-192
3.01200	-163
3.01567	-137
3.01933	-116
3.02300	-97
3.02667	-82
3.03033	-68
3.03400	-56
3.03767	-46
3.04133	-37
3.04500	-30
3.04867	-24
3.05233	-19
3.05600	-15
3.05967	-11
3.06333	-7
3.06700	-5
3.07067	-2
3.07433	-0
3.07800	1
3.08167	3
3.08533	5
3.08900	6
3.09267	7
3.09633	8
3.10000	9
3.10367	9
3.10733	10
3.11100	11
3.11467	11
3.11833	12
3.12200	12
3.12567	12
3.12933	13
3.13300	13
3.13667	13
3.14033	13
3.14400	14
3.14767	14
3.15133	15
3.15500	15
3.15867	16
3.16233	16
3.16600	17
3.16967	17
3.17333	17
3.17700	17
3.18067	17
3.18433	17
3.18800	17
3.19167	17
3.19533	17
3.19900	17
3.20267	17
3.20633	17
3.21000	17
3.21367	18
3.21733	18
3.22100	19
3.22467	19
3.22833	19
3.23200	19
3.23567	19
3.23933	20
3.24300	20
3.24667	20
3.25033	20
3.25400	20
3.25767	20
3.26133	20
3.26500	20
3.26867	20
3.27233	20
3.27600	20
3.27967	20
3.28333	20
3.28700	20
3.29067	20
3.29433	20
3.29800	20
3.30167	20
3.30533	20
3.30900	20
3.31267	20
3.31633	20
3.32000	21
3.32367	21
3.32733	21
3.33100	22
3.33467	22
3.33833	22
3.34200	23
3.34567	23
3.34933	23
3.35300	23
3.35667	23
3.36033	23
3.36400	23
3.36767	23
3.37133	22
3.37500	22
3.37867	22
3.38233	21
3.38600	21
3.38967	21
3.39333	21
3.39700	21
3.40067	21
3.40433	21
3.40800	21
3.41167	21
3.41533	21
3.41900	21
3.42267	21
3.42633	21
3.43000	21
3.43367	22
3.43733	22
3.44100	22
3.44467	23
3.44833	23
3.45200	23
3.45567	23
3.45933	24
3.46300	24
3.46667	24
3.47033	24
3.47400	24
3.47767	24
3.48133	24
3.48500	24
3.48867	24
3.49233	24
3.49600	24
3.49967	25
3.50333	25
3.50700	25
3.51067	25
3.51433	25
3.51800	25
3.52167	26
3.52533	26
3.52900	26
3.53267	26
3.53633	26
3.54000	26
3.54367	26
3.54733	26
3.55100	26
3.55467	26
3.55833	26
3.56200	26
3.56567	26
3.56933	26
3.57300	26
3.57667	26
3.58033	26
3.58400	26
3.58767	26
3.59133	26
3.59500	26
3.59867	26
3.60233	25
3.60600	25
3.60967	25
3.61333	25
3.61700	25
3.62067	25
3.62433	25
3.62800	25
3.63167	25
3.63533	25
3.63900	25
3.64267	24
3.64633	24
3.65000	24
3.65367	24
3.65733	24
3.66100	24
3.66467	24
3.66833	24
3.67200	24
3.67567	24
3.67933	23
3.68300	24
3.68667	24
3.69033	24
3.69400	24
3.69767	24
3.70133	24
3.70500	24
3.70867	24
3.71233	24
3.71600	24
3.71967	24
3.72333	24
3.72700	24
3.73067	24
3.73433	24
3.73800	24
3.74167	24
3.74533	24
3.74900	24
3.75267	24
3.75633	24
3.76000	24
3.76367	24
3.76733	24
3.77100	24
3.77467	24
3.77833	24
3.78200	24
3.78567	24
3.78933	24
3.79300	24
3.79667	24
3.80033	24
3.80400	24
3.80767	24
3.81133	24
3.81500	24
3.81867	24
3.82233	24
3.82600	24
3.82967	25
3.83333	25
3.83700	25
3.84067	25
3.84433	26
3.84800	26
3.85167	26
3.85533	26
3.85900	26
3.86267	26
3.86633	25
3.87000	25
3.87367	25
3.87733	25
3.88100	25
3.88467	25
3.88833	25
3.89200	25
3.89567	25
3.89933	25
3.90300	25
3.90667	25
3.91033	25
3.91400	25
3.91767	25
3.92133	25
3.92500	25
3.92867	24
3.93233	24
3.93600	24
3.93967	24
3.94333	24
3.94700	24
3.95067	24
3.95433	24
3.95800	24
3.96167	24
3.96533	24
3.96900	23
3.97267	23
3.97633	23
3.98000	23
3.98367	23
3.98733	23
3.99100	23
3.99467	23
3.99833	23

[Chromatogram (Ch3)]
Interval(msec)	220
# of Points	1091
Start Time(min)	0.002
End Time(min)	3.998
R.Time (min)	Intensity
0.00167	0
0.00533	-2
0.00900	-3
0.01267	-2
0.01633	-1
0.02000	-1
0.02367	-2
0.02733	-2
0.03100	-3
0.03467	-3
0.03833	-0
0.04200	0
0.04567	0
0.04933	0
0.05300	-1
0.05667	-0
0.06033	0
0.06400	1
0.06767	-0
0.07133	-0
0.07500	-2
0.07867	-1
0.08233	-0
0.08600	1
0.08967	2
0.09333	1
0.09700	0
0.10067	-0
0.10433	-2
0.10800	-5
0.11167	-7
0.11533	-7
0.11900	-5
0.12267	-5
0.12633	-5
0.13000	-2
0.13367	-0
0.13733	0
0.14100	0
0.14467	-1
0.14833	-1
0.15200	1
0.15567	2
0.15933	3
0.16300	4
0.16667	5
0.17033	6
0.17400	5
0.17767	4
0.18133	2
0.18500	-0
0.18867	-2
0.19233	-1
0.19600	-1
0.19967	-3
0.20333	-1
0.20700	1
0.21067	1
0.21433	-3
0.21800	-3
0.22167	-3
0.22533	1
0.22900	3
0.23267	3
0.23633	0
0.24000	-3
0.24367	-6
0.24733	-6
0.25100	-4
0.25467	-3
0.25833	-4
0.26200	-4
0.26567	-3
0.26933	-0
0.27300	0
0.27667	-1
0.28033	-3
0.28400	-4
0.28767	-4
0.29133	-4
0.29500	-2
0.29867	-3
0.30233	-3
0.30600	-2
0.30967	-3
0.31333	-3
0.31700	-1
0.32067	1
0.32433	2
0.32800	0
0.33167	-1
0.33533	-3
0.33900	-1
0.34267	0
0.34633	3
0.35000	2
0.35367	2
0.35733	-2
0.36100	-4
0.36467	-4
0.36833	-3
0.37200	-3
0.37567	-2
0.37933	-2
0.38300	-2
0.38667	1
0.39033	2
0.39400	2
0.39767	1
0.40133	-0
0.40500	-0
0.40867	0
0.41233	0
0.41600	-1
0.41967	-1
0.42333	-1
0.42700	-0
0.43067	-0
0.43433	2
0.43800	2
0.44167	0
0.44533	-0
0.44900	-0
0.45267	1
0.45633	0
0.46000	-1
0.46367	-0
0.46733	0
0.47100	2
0.47467	2
0.47833	2
0.48200	2
0.48567	4
0.48933	6
0.49300	5
0.49667	3
0.50033	1
0.50400	0
0.50767	-1
0.51133	-2
0.51500	-2
0.51867	-4
0.52233	-5
0.52600	-6
0.52967	-4
0.53333	-3
0.53700	-2
0.54067	-1
0.54433	0
0.54800	2
0.55167	2
0.55533	1
0.55900	0
0.56267	-3
0.56633	-5
0.57000	-4
0.57367	-3
0.57733	-4
0.58100	-3
0.58467	-1
0.58833	2
0.59200	4
0.59567	4
0.59933	2
0.60300	2
0.60667	2
0.61033	1
0.61400	1
0.61767	2
0.62133	3
0.62500	3
0.62867	2
0.63233	2
0.63600	-0
0.63967	-1
0.64333	-1
0.64700	-1
0.65067	-1
0.65433	1
0.65800	3
0.66167	6
0.66533	7
0.66900	8
0.67267	7
0.67633	5
0.68000	2
0.68367	2
0.68733	4
0.69100	4
0.69467	5
0.69833	5
0.70200	6
0.70567	7
0.70933	8
0.71300	10
0.71667	9
0.72033	9
0.72400	9
0.72767	9
0.73133	8
0.73500	7
0.73867	5
0.74233	4
0.74600	3
0.74967	4
0.75333	6
0.75700	7
0.76067	8
0.76433	9
0.76800	10
0.77167	11
0.77533	11
0.77900	11
0.78267	12
0.78633	11
0.79000	11
0.79367	11
0.79733	13
0.80100	15
0.80467	16
0.80833	16
0.81200	15
0.81567	14
0.81933	13
0.82300	12
0.82667	12
0.83033	10
0.83400	10
0.83767	8
0.84133	7
0.84500	5
0.84867	5
0.85233	6
0.85600	8
0.85967	9
0.86333	8
0.86700	8
0.87067	8
0.87433	8
0.87800	7
0.88167	7
0.88533	8
0.88900	7
0.89267	7
0.89633	7
0.90000	8
0.90367	9
0.90733	8
0.91100	10
0.91467	12
0.91833	15
0.92200	17
0.92567	17
0.92933	16
0.93300	14
0.93667	13
0.94033	11
0.94400	10
0.94767	11
0.95133	12
0.95500	13
0.95867	14
0.96233	14
0.96600	13
0.96967	11
0.97333	9
0.97700	9
0.98067	12
0.98433	14
0.98800	16
0.99167	15
0.99533	14
0.99900	13
1.00267	11
1.00633	12
1.01000	11
1.01367	11
1.01733	11
1.02100	10
1.02467	10
1.02833	7
1.03200	8
1.03567	9
1.03933	9
1.04300	9
1.04667	11
1.05033	13
1.05400	15
1.05767	15
1.06133	15
1.06500	14
1.06867	13
1.07233	12
1.07600	14
1.07967	14
1.08333	15
1.08700	16
1.09067	16
1.09433	17
1.09800	18
1.10167	19
1.10533	19
1.10900	20
1.11267	19
1.11633	17
1.12000	15
1.12367	13
1.12733	13
1.13100	14
1.13467	15
1.13833	14
1.14200	13
1.14567	12
1.14933	15
1.15300	14
1.15667	13
1.16033	13
1.16400	16
1.16767	17
1.17133	20
1.17500	20
1.17867	18
1.18233	17
1.18600	17
1.18967	19
1.19333	20
1.19700	20
1.20067	19
1.20433	16
1.20800	15
1.21167	15
1.21533	15
1.21900	17
1.22267	20
1.22633	21
1.23000	21
1.23367	21
1.23733	19
1.24100	15
1.24467	10
1.24833	10
1.25200	11
1.25567	11
1.25933	11
1.26300	13
1.26667	15
1.27033	15
1.27400	15
1.27767	15
1.28133	14
1.28500	11
1.28867	10
1.29233	12
1.29600	14
1.29967	14
1.30333	15
1.30700	16
1.31067	14
1.31433	15
1.31800	15
1.32167	16
1.32533	16
1.32900	17
1.33267	16
1.33633	15
1.34000	15
1.34367	15
1.34733	13
1.35100	12
1.35467	12
1.35833	13
1.36200	14
1.36567	15
1.36933	17
1.37300	18
1.37667	19
1.38033	19
1.38400	18
1.38767	17
1.39133	17
1.39500	18
1.39867	19
1.40233	20
1.40600	20
1.40967	20
1.41333	21
1.41700	22
1.42067	23
1.42433	21
1.42800	19
1.43167	19
1.43533	19
1.43900	19
1.44267	20
1.44633	21
1.45000	23
1.45367	22
1.45733	19
1.46100	18
1.46467	19
1.46833	20
1.47200	22
1.47567	22
1.47933	20
1.48300	19
1.48667	19
1.49033	20
1.49400	20
1.49767	21
1.50133	22
1.50500	23
1.50867	23
1.51233	24
1.51600	25
1.51967	26
1.52333	24
1.52700	23
1.53067	24
1.53433	25
1.53800	24
1.54167	20
1.54533	19
1.54900	20
1.55267	22
1.55633	22
1.56000	21
1.56367	20
1.56733	19
1.57100	19
1.57467	19
1.57833	22
1.58200	23
1.58567	23
1.58933	26
1.59300	26
1.59667	25
1.60033	26
1.60400	27
1.60767	26
1.61133	24
1.61500	24
1.61867	26
1.62233	26
1.62600	28
1.62967	28
1.63333	29
1.63700	32
1.64067	33
1.64433	33
1.64800	33
1.65167	32
1.65533	32
1.65900	32
1.66267	34
1.66633	35
1.67000	35
1.67367	34
1.67733	32
1.68100	33
1.68467	34
1.68833	34
1.69200	35
1.69567	36
1.69933	37
1.70300	39
1.70667	40
1.71033	41
1.71400	43
1.71767	44
1.72133	45
1.72500	43
1.72867	43
1.73233	43
1.73600	43
1.73967	43
1.74333	43
1.74700	45
1.75067	47
1.75433	48
1.75800	47
1.76167	45
1.76533	44
1.76900	45
1.77267	47
1.77633	48
1.78000	50
1.78367	51
1.78733	52
1.79100	54
1.79467	55
1.79833	57
1.80200	57
1.80567	55
1.80933	55
1.81300	54
1.81667	52
1.82033	52
1.82400	52
1.82767	53
1.83133	54
1.83500	54
1.83867	55
1.84233	57
1.84600	60
1.84967	64
1.85333	66
1.85700	65
1.86067	64
1.86433	63
1.86800	62
1.87167	60
1.87533	59
1.87900	61
1.88267	62
1.88633	65
1.89000	67
1.89367	68
1.89733	68
1.90100	66
1.90467	65
1.90833	67
1.91200	70
1.91567	71
1.91933	73
1.92300	76
1.92667	81
1.93033	85
1.93400	86
1.93767	86
1.94133	87
1.94500	86
1.94867	88
1.95233	89
1.95600	88
1.95967	89
1.96333	89
1.96700	89
1.97067	90
1.97433	88
1.97800	91
1.98167	94
1.98533	96
1.98900	99
1.99267	101
1.99633	102
2.00000	101
2.00367	102
2.00733	102
2.01100	101
2.01467	105
2.01833	110
2.02200	113
2.02567	112
2.02933	113
2.03300	114
2.03667	116
2.04033	118
2.04400	121
2.04767	121
2.05133	121
2.05500	121
2.05867	120
2.06233	119
2.06600	120
2.06967	121
2.07333	121
2.07700	120
2.08067	120
2.08433	122
2.08800	124
2.09167	127
2.09533	127
2.09900	127
2.10267	126
2.10633	126
2.11000	129
2.11367	132
2.11733	135
2.12100	137
2.12467	139
2.12833	142
2.13200	143
2.13567	142
2.13933	142
2.14300	142
2.14667	144
2.15033	148
2.15400	149
2.15767	150
2.16133	153
2.16500	156
2.16867	156
2.17233	155
2.17600	156
2.17967	156
2.18333	157
2.18700	160
2.19067	161
2.19433	161
2.19800	162
2.20167	165
2.20533	167
2.20900	169
2.21267	171
2.21633	174
2.22000	176
2.22367	177
2.22733	177
2.23100	178
2.23467	178
2.23833	181
2.24200	180
2.24567	179
2.24933	180
2.25300	180
2.25667	180
2.26033	183
2.26400	184
2.26767	188
2.27133	193
2.27500	191
2.27867	189
2.28233	188
2.28600	189
2.28967	192
2.29333	195
2.29700	199
2.30067	202
2.30433	204
2.30800	204
2.31167	204
2.31533	206
2.31900	208
2.32267	209
2.32633	211
2.33000	212
2.33367	211
2.33733	214
2.34100	217
2.34467	219
2.34833	220
2.35200	222
2.35567	223
2.35933	221
2.36300	221
2.36667	222
2.37033	224
2.37400	227
2.37767	230
2.38133	232
2.38500	233
2.38867	232
2.39233	234
2.39600	237
2.39967	240
2.40333	243
2.40700	247
2.41067	253
2.41433	256
2.41800	257
2.42167	258
2.42533	258
2.42900	259
2.43267	260
2.43633	261
2.44000	264
2.44367	323
2.44733	469
2.45100	626
2.45467	751
2.45833	815
2.46200	809
2.46567	759
2.46933	696
2.47300	641
2.47667	603
2.48033	577
2.48400	545
2.48767	504
2.49133	458
2.49500	413
2.49867	378
2.50233	352
2.50600	332
2.50967	318
2.51333	317
2.51700	325
2.52067	340
2.52433	357
2.52800	372
2.53167	379
2.53533	377
2.53900	363
2.54267	339
2.54633	312
2.55000	283
2.55367	255
2.55733	232
2.56100	215
2.56467	203
2.56833	192
2.57200	183
2.57567	175
2.57933	172
2.58300	172
2.58667	172
2.59033	172
2.59400	172
2.59767	171
2.60133	168
2.60500	159
2.60867	148
2.61233	135
2.61600	121
2.61967	109
2.62333	99
2.62700	92
2.63067	88
2.63433	89
2.63800	94
2.64167	98
2.64533	100
2.64900	100
2.65267	98
2.65633	92
2.66000	88
2.66367	83
2.66733	78
2.67100	71
2.67467	62
2.67833	53
2.68200	46
2.68567	39
2.68933	32
2.69300	29
2.69667	26
2.70033	23
2.70400	23
2.70767	25
2.71133	25
2.71500	24
2.71867	25
2.72233	26
2.72600	27
2.72967	29
2.73333	31
2.73700	35
2.74067	38
2.74433	40
2.74800	41
2.75167	44
2.75533	47
2.75900	50
2.76267	53
2.76633	58
2.77000	61
2.77367	63
2.77733	64
2.78100	65
2.78467	67
2.78833	71
2.79200	72
2.79567	75
2.79933	77
2.80300	79
2.80667	80
2.81033	81
2.81400	84
2.81767	91
2.82133	106
2.82500	136
2.82867	201
2.83233	317
2.83600	510
2.83967	801
2.84333	1204
2.84700	1715
2.85067	2311
2.85433	2955
2.85800	3595
2.86167	4178
2.86533	4660
2.86900	5008
2.87267	5203
2.87633	5244
2.88000	5146
2.88367	4939
2.88733	4650
2.89100	4307
2.89467	3938
2.89833	3565
2.90200	3203
2.90567	2859
2.90933	2538
2.91300	2246
2.91667	1983
2.92033	1747
2.92400	1539
2.92767	1357
2.93133	1195
2.93500	1055
2.93867	932
2.94233	812
2.94600	679
2.94967	547
2.95333	444
2.95700	382
2.96067	351
2.96433	342
2.96800	348
2.97167	366
2.97533	390
2.97900	414
2.98267	439
2.98633	465
2.99000	488
2.99367	505
2.99733	519
3.00100	530
3.00467	539
3.00833	547
3.01200	553
3.01567	556
3.01933	559
3.02300	562
3.02667	563
3.03033	561
3.03400	562
3.03767	562
3.04133	562
3.04500	563
3.04867	563
3.05233	564
3.05600	564
3.05967	563
3.06333	562
3.06700	560
3.07067	559
3.07433	560
3.07800	562
3.08167	562
3.08533	560
3.08900	560
3.09267	561
3.09633	561
3.10000	560
3.10367	560
3.10733	561
3.11100	564
3.11467	566
3.11833	567
3.12200	566
3.12567	565
3.12933	567
3.13300	567
3.13667	568
3.14033	569
3.14400	571
3.14767	571
3.15133	575
3.15500	579
3.15867	585
3.16233	591
3.16600	593
3.16967	594
3.17333	596
3.17700	599
3.18067	602
3.18433	603
3.18800	608
3.19167	613
3.19533	618
3.19900	621
3.20267	621
3.20633	625
3.21000	632
3.21367	636
3.21733	639
3.22100	642
3.22467	644
3.22833	646
3.23200	649
3.23567	652
3.23933	653
3.24300	655
3.24667	656
3.25033	657
3.25400	659
3.25767	661
3.26133	660
3.26500	661
3.26867	662
3.27233	662
3.27600	660
3.27967	659
3.28333	660
3.28700	660
3.29067	660
3.29433	661
3.29800	661
3.30167	661
3.30533	661
3.30900	663
3.31267	662
3.31633	660
3.32000	657
3.32367	652
3.32733	650
3.33100	651
3.33467	651
3.33833	650
3.34200	647
3.34567	645
3.34933	642
3.35300	641
3.35667	639
3.36033	639
3.36400	639
3.36767	638
3.37133	638
3.37500	635
3.37867	630
3.38233	626
3.38600	625
3.38967	623
3.39333	620
3.39700	618
3.40067	618
3.40433	616
3.40800	613
3.41167	612
3.41533	611
3.41900	610
3.42267	609
3.42633	608
3.43000	607
3.43367	607
3.43733	606
3.44100	601
3.44467	599
3.44833	598
3.45200	595
3.45567	593
3.45933	594
3.46300	594
3.46667	593
3.47033	593
3.47400	592
3.47767	593
3.48133	594
3.48500	595
3.48867	593
3.49233	592
3.49600	591
3.49967	590
3.50333	589
3.50700	585
3.51067	581
3.51433	578
3.51800	577
3.52167	577
3.52533	579
3.52900	581
3.53267	583
3.53633	583
3.54000	582
3.54367	579
3.54733	575
3.55100	576
3.55467	578
3.55833	578
3.56200	579
3.56567	579
3.56933	578
3.57300	578
3.57667	577
3.58033	577
3.58400	578
3.58767	577
3.59133	576
3.59500	578
3.59867	578
3.60233	578
3.60600	578
3.60967	579
3.61333	581
3.61700	580
3.62067	579
3.62433	579
3.62800	580
3.63167	582
3.63533	581
3.63900	580
3.64267	578
3.64633	574
3.65000	572
3.65367	571
3.65733	572
3.66100	575
3.66467	578
3.66833	579
3.67200	579
3.67567	579
3.67933	577
3.68300	576
3.68667	574
3.69033	574
3.69400	572
3.69767	572
3.70133	574
3.70500	573
3.70867	570
3.71233	568
3.71600	567
3.71967	565
3.72333	564
3.72700	563
3.73067	563
3.73433	562
3.73800	559
3.74167	559
3.74533	559
3.74900	558
3.75267	557
3.75633	556
3.76000	553
3.76367	548
3.76733	548
3.77100	548
3.77467	549
3.77833	549
3.78200	548
3.78567	546
3.78933	543
3.79300	542
3.79667	541
3.80033	543
3.80400	544
3.80767	543
3.81133	540
3.81500	538
3.81867	536
3.82233	533
3.82600	530
3.82967	528
3.83333	527
3.83700	526
3.84067	525
3.84433	523
3.84800	521
3.85167	521
3.85533	521
3.85900	522
3.86267	520
3.86633	518
3.87000	517
3.87367	515
3.87733	512
3.88100	512
3.88467	511
3.88833	508
3.89200	506
3.89567	504
3.89933	501
3.90300	501
3.90667	502
3.91033	504
3.91400	506
3.91767	505
3.92133	502
3.92500	500
3.92867	497
3.93233	494
3.93600	491
3.93967	489
3.94333	488
3.94700	487
3.95067	488
3.95433	489
3.95800	490
3.96167	490
3.96533	490
3.96900	488
3.97267	486
3.97633	486
3.98000	485
3.98367	483
3.98733	483
3.99100	482
3.99467	480
3.99833	478

[Status Trace (Column Oven Temperature)]
Interval(msec)	1000
# of Points	240
Start Time(min)	0.014
End Time(min)	3.997
Intensity Units	
Intensity Multiplier	1
R.Time (min)	Intensity
0.01378	35.01
0.03045	35.03
0.04712	35.04
0.06378	35.06
0.08045	35.05
0.09712	35.05
0.11378	35.05
0.13045	35.05
0.14712	35.05
0.16378	35.05
0.18045	35.06
0.19712	35.05
0.21378	35.05
0.23045	35.03
0.24712	35.03
0.26378	35.02
0.28045	35.02
0.29712	35.03
0.31378	35.03
0.33045	35.03
0.34712	35.03
0.36378	35.02
0.38045	35.01
0.39712	35.00
0.41378	34.99
0.43045	35.00
0.44712	35.00
0.46378	35.00
0.48045	35.00
0.49712	35.00
0.51378	35.01
0.53045	35.01
0.54712	35.02
0.56378	35.03
0.58045	35.03
0.59712	35.04
0.61378	35.04
0.63045	35.03
0.64712	35.04
0.66378	35.04
0.68045	35.03
0.69712	35.03
0.71378	35.03
0.73045	35.01
0.74712	35.00
0.76378	35.00
0.78045	34.99
0.79712	35.00
0.81378	35.00
0.83045	35.00
0.84712	34.99
0.86378	34.99
0.88045	34.98
0.89712	34.98
0.91378	35.00
0.93045	35.00
0.94712	35.00
0.96378	35.01
0.98045	35.01
0.99712	35.01
1.01378	35.00
1.03045	34.99
1.04712	34.98
1.06378	34.98
1.08045	34.99
1.09712	35.00
1.11378	35.01
1.13045	35.01
1.14712	35.01
1.16378	35.00
1.18045	34.99
1.19712	34.99
1.21378	34.99
1.23045	35.00
1.24712	34.99
1.26378	34.99
1.28045	34.99
1.29712	34.99
1.31378	35.00
1.33045	35.00
1.34712	35.01
1.36378	35.00
1.38045	35.00
1.39712	35.01
1.41378	35.01
1.43045	34.99
1.44712	34.99
1.46378	34.99
1.48045	34.99
1.49712	34.98
1.51378	34.97
1.53045	34.97
1.54712	34.99
1.56378	34.99
1.58045	35.00
1.59712	35.03
1.61378	35.11
1.63045	35.26
1.64712	35.47
1.66378	35.73
1.68045	36.08
1.69712	36.45
1.71378	36.80
1.73045	37.14
1.74712	37.45
1.76378	37.78
1.78045	38.11
1.79712	38.46
1.81378	38.79
1.83045	39.12
1.84712	39.45
1.86378	39.78
1.88045	40.11
1.89712	40.44
1.91378	40.77
1.93045	41.10
1.94712	41.41
1.96378	41.73
1.98045	42.07
1.99712	42.40
2.01378	42.73
2.03045	43.07
2.04712	43.35
2.06378	43.67
2.08045	44.00
2.09712	44.31
2.11378	44.64
2.13045	44.96
2.14712	45.31
2.16378	45.63
2.18045	45.97
2.19712	46.30
2.21378	46.63
2.23045	46.96
2.24712	47.29
2.26378	47.62
2.28045	47.95
2.29712	48.27
2.31378	48.61
2.33045	48.98
2.34712	49.29
2.36378	49.56
2.38045	49.67
2.39712	49.70
2.41378	49.70
2.43045	49.71
2.44712	49.72
2.46378	49.73
2.48045	49.73
2.49712	49.75
2.51378	49.74
2.53045	49.76
2.54712	49.76
2.56378	49.80
2.58045	49.81
2.59712	49.81
2.61378	49.82
2.63045	49.83
2.64712	49.82
2.66378	49.83
2.68045	49.84
2.69712	49.85
2.71378	49.84
2.73045	49.86
2.74712	49.88
2.76378	49.90
2.78045	49.90
2.79712	49.88
2.81378	49.85
2.83045	49.85
2.84712	49.87
2.86378	49.90
2.88045	49.91
2.89712	49.91
2.91378	49.93
2.93045	49.93
2.94712	49.94
2.96378	49.94
2.98045	49.95
2.99712	49.95
3.01378	49.95
3.03045	49.95
3.04712	49.96
3.06378	49.97
3.08045	49.97
3.09712	49.97
3.11378	49.98
3.13045	49.99
3.14712	49.99
3.16378	50.00
3.18045	50.01
3.19712	50.02
3.21378	50.03
3.23045	50.03
3.24712	50.04
3.26378	50.05
3.28045	50.06
3.29712	50.07
3.31378	50.07
3.33045	50.07
3.34712	50.06
3.36378	50.07
3.38045	50.08
3.39712	50.10
3.41378	50.11
3.43045	50.11
3.44712	50.11
3.46378	50.10
3.48045	50.09
3.49712	50.08
3.51378	50.07
3.53045	50.05
3.54712	50.04
3.56378	50.03
3.58045	50.03
3.59712	50.03
3.61378	50.02
3.63045	50.02
3.64712	50.03
3.66378	50.04
3.68045	50.04
3.69712	50.04
3.71378	50.04
3.73045	50.04
3.74712	50.04
3.76378	50.05
3.78045	50.05
3.79712	50.05
3.81378	50.05
3.83045	50.04
3.84712	50.02
3.86378	50.01
3.88045	50.01
3.89712	50.01
3.91378	50.00
3.93045	50.01
3.94712	50.02
3.96378	50.02
3.98045	50.03
3.99712	50.03

[Status Trace (Injection Unit Temperature)]
Interval(msec)	1000
# of Points	240
Start Time(min)	0.014
End Time(min)	3.997
Intensity Units	
Intensity Multiplier	1
R.Time (min)	Intensity
0.01378	99.98
0.03045	99.98
0.04712	99.98
0.06378	99.99
0.08045	99.98
0.09712	99.98
0.11378	99.98
0.13045	99.98
0.14712	99.99
0.16378	99.99
0.18045	99.99
0.19712	99.99
0.21378	99.99
0.23045	99.98
0.24712	99.98
0.26378	99.98
0.28045	99.99
0.29712	99.98
0.31378	99.98
0.33045	99.99
0.34712	99.99
0.36378	99.99
0.38045	99.98
0.39712	99.99
0.41378	99.99
0.43045	99.98
0.44712	99.98
0.46378	99.98
0.48045	99.98
0.49712	99.99
0.51378	99.98
0.53045	99.99
0.54712	99.99
0.56378	99.98
0.58045	99.99
0.59712	99.98
0.61378	99.98
0.63045	99.98
0.64712	99.99
0.66378	99.98
0.68045	99.98
0.69712	99.98
0.71378	99.98
0.73045	99.98
0.74712	99.98
0.76378	99.98
0.78045	99.99
0.79712	99.99
0.81378	99.98
0.83045	99.99
0.84712	99.98
0.86378	99.98
0.88045	99.99
0.89712	99.98
0.91378	99.98
0.93045	99.98
0.94712	99.99
0.96378	99.98
0.98045	99.98
0.99712	99.98
1.01378	99.98
1.03045	99.99
1.04712	99.98
1.06378	99.98
1.08045	99.98
1.09712	99.99
1.11378	99.98
1.13045	99.99
1.14712	99.99
1.16378	99.98
1.18045	99.99
1.19712	99.99
1.21378	99.98
1.23045	99.98
1.24712	99.98
1.26378	99.99
1.28045	99.98
1.29712	99.99
1.31378	99.99
1.33045	99.99
1.34712	99.99
1.36378	99.99
1.38045	99.99
1.39712	99.99
1.41378	99.99
1.43045	99.99
1.44712	99.98
1.46378	99.99
1.48045	99.99
1.49712	99.99
1.51378	99.99
1.53045	99.99
1.54712	99.98
1.56378	99.99
1.58045	99.99
1.59712	99.99
1.61378	99.98
1.63045	99.99
1.64712	99.99
1.66378	99.99
1.68045	99.99
1.69712	99.99
1.71378	99.99
1.73045	99.99
1.74712	99.98
1.76378	99.98
1.78045	99.98
1.79712	99.98
1.81378	99.98
1.83045	99.98
1.84712	99.98
1.86378	99.98
1.88045	99.98
1.89712	99.98
1.91378	99.98
1.93045	99.98
1.94712	99.98
1.96378	99.98
1.98045	99.98
1.99712	99.98
2.01378	99.98
2.03045	99.97
2.04712	99.97
2.06378	99.97
2.08045	99.97
2.09712	99.97
2.11378	99.97
2.13045	99.97
2.14712	99.97
2.16378	99.97
2.18045	99.97
2.19712	99.97
2.21378	99.97
2.23045	99.96
2.24712	99.96
2.26378	99.97
2.28045	99.96
2.29712	99.96
2.31378	99.96
2.33045	99.96
2.34712	99.96
2.36378	99.97
2.38045	99.96
2.39712	99.96
2.41378	99.96
2.43045	99.96
2.44712	99.96
2.46378	99.96
2.48045	99.96
2.49712	99.96
2.51378	99.96
2.53045	99.97
2.54712	99.96
2.56378	99.97
2.58045	99.97
2.59712	99.97
2.61378	99.97
2.63045	99.97
2.64712	99.97
2.66378	99.98
2.68045	99.98
2.69712	99.98
2.71378	99.98
2.73045	99.98
2.74712	99.98
2.76378	99.98
2.78045	99.99
2.79712	99.99
2.81378	99.99
2.83045	100.00
2.84712	99.99
2.86378	100.00
2.88045	100.00
2.89712	100.00
2.91378	100.00
2.93045	100.01
2.94712	100.01
2.96378	100.01
2.98045	100.01
2.99712	100.01
3.01378	100.01
3.03045	100.01
3.04712	100.02
3.06378	100.02
3.08045	100.02
3.09712	100.02
3.11378	100.02
3.13045	100.02
3.14712	100.02
3.16378	100.03
3.18045	100.02
3.19712	100.02
3.21378	100.03
3.23045	100.03
3.24712	100.03
3.26378	100.03
3.28045	100.04
3.29712	100.03
3.31378	100.03
3.33045	100.03
3.34712	100.03
3.36378	100.03
3.38045	100.04
3.39712	100.04
3.41378	100.04
3.43045	100.04
3.44712	100.04
3.46378	100.04
3.48045	100.04
3.49712	100.04
3.51378	100.04
3.53045	100.04
3.54712	100.04
3.56378	100.04
3.58045	100.04
3.59712	100.04
3.61378	100.05
3.63045	100.05
3.64712	100.04
3.66378	100.04
3.68045	100.05
3.69712	100.04
3.71378	100.05
3.73045	100.04
3.74712	100.05
3.76378	100.05
3.78045	100.05
3.79712	100.05
3.81378	100.05
3.83045	100.05
3.84712	100.05
3.86378	100.05
3.88045	100.05
3.89712	100.04
3.91378	100.05
3.93045	100.05
3.94712	100.05
3.96378	100.05
3.98045	100.05
3.99712	100.04

[Status Trace (Carrier Gas Pressure)]
Interval(msec)	1000
# of Points	240
Start Time(min)	0.014
End Time(min)	3.997
Intensity Units	
Intensity Multiplier	1
R.Time (min)	Intensity
0.01378	57.77
0.03045	55.41
0.04712	57.96
0.06378	59.80
0.08045	58.71
0.09712	57.98
0.11378	57.99
0.13045	58.01
0.14712	58.01
0.16378	58.00
0.18045	58.00
0.19712	58.00
0.21378	58.00
0.23045	58.00
0.24712	58.00
0.26378	58.00
0.28045	58.00
0.29712	58.00
0.31378	58.00
0.33045	58.00
0.34712	58.00
0.36378	58.00
0.38045	58.00
0.39712	58.00
0.41378	58.00
0.43045	58.00
0.44712	58.00
0.46378	58.00
0.48045	58.00
0.49712	58.00
0.51378	58.00
0.53045	58.00
0.54712	58.00
0.56378	58.00
0.58045	58.00
0.59712	58.00
0.61378	58.00
0.63045	58.00
0.64712	58.00
0.66378	58.00
0.68045	58.00
0.69712	58.00
0.71378	58.00
0.73045	58.00
0.74712	58.00
0.76378	58.00
0.78045	58.00
0.79712	58.00
0.81378	58.00
0.83045	58.00
0.84712	58.00
0.86378	58.00
0.88045	58.00
0.89712	58.00
0.91378	58.00
0.93045	58.00
0.94712	58.00
0.96378	58.00
0.98045	58.00
0.99712	58.00
1.01378	58.00
1.03045	58.00
1.04712	58.00
1.06378	58.00
1.08045	58.00
1.09712	58.00
1.11378	58.00
1.13045	58.00
1.14712	58.00
1.16378	58.00
1.18045	58.00
1.19712	58.00
1.21378	58.00
1.23045	58.00
1.24712	58.00
1.26378	58.00
1.28045	58.00
1.29712	58.00
1.31378	58.00
1.33045	58.00
1.34712	58.00
1.36378	58.00
1.38045	58.00
1.39712	58.00
1.41378	58.00
1.43045	58.00
1.44712	58.00
1.46378	58.00
1.48045	58.00
1.49712	58.00
1.51378	58.00
1.53045	58.00
1.54712	58.00
1.56378	58.00
1.58045	58.00
1.59712	58.00
1.61378	58.00
1.63045	58.00
1.64712	58.00
1.66378	58.00
1.68045	58.01
1.69712	58.00
1.71378	58.00
1.73045	58.00
1.74712	58.00
1.76378	58.00
1.78045	58.00
1.79712	58.00
1.81378	58.00
1.83045	58.00
1.84712	58.00
1.86378	58.00
1.88045	58.00
1.89712	58.00
1.91378	58.00
1.93045	58.00
1.94712	58.00
1.96378	58.00
1.98045	58.00
1.99712	58.00
2.01378	58.00
2.03045	58.00
2.04712	58.00
2.06378	58.00
2.08045	58.00
2.09712	58.00
2.11378	58.00
2.13045	58.00
2.14712	58.00
2.16378	58.00
2.18045	58.00
2.19712	58.00
2.21378	58.00
2.23045	58.00
2.24712	58.00
2.26378	58.00
2.28045	58.00
2.29712	58.00
2.31378	58.00
2.33045	58.00
2.34712	58.00
2.36378	58.00
2.38045	57.99
2.39712	57.99
2.41378	58.00
2.43045	58.00
2.44712	58.00
2.46378	58.00
2.48045	58.00
2.49712	58.00
2.51378	57.99
2.53045	57.99
2.54712	58.00
2.56378	58.00
2.58045	58.00
2.59712	58.00
2.61378	58.00
2.63045	58.00
2.64712	58.00
2.66378	58.00
2.68045	58.00
2.69712	58.00
2.71378	58.00
2.73045	58.00
2.74712	58.00
2.76378	58.00
2.78045	58.00
2.79712	58.00
2.81378	58.00
2.83045	58.00
2.84712	58.00
2.86378	58.00
2.88045	58.00
2.89712	58.00
2.91378	58.00
2.93045	58.00
2.94712	58.00
2.96378	58.00
2.98045	58.00
2.99712	58.00
3.01378	58.00
3.03045	58.00
3.04712	58.00
3.06378	58.00
3.08045	58.00
3.09712	58.00
3.11378	58.00
3.13045	58.00
3.14712	58.00
3.16378	58.00
3.18045	58.00
3.19712	58.00
3.21378	58.00
3.23045	58.00
3.24712	58.00
3.26378	58.00
3.28045	58.00
3.29712	58.00
3.31378	58.00
3.33045	58.00
3.34712	58.00
3.36378	58.00
3.38045	58.00
3.39712	58.00
3.41378	58.00
3.43045	58.00
3.44712	58.00
3.46378	58.00
3.48045	58.00
3.49712	58.00
3.51378	58.00
3.53045	58.00
3.54712	58.00
3.56378	58.00
3.58045	58.00
3.59712	58.00
3.61378	58.00
3.63045	58.00
3.64712	58.00
3.66378	58.00
3.68045	58.00
3.69712	58.00
3.71378	58.00
3.73045	58.00
3.74712	58.00
3.76378	58.00
3.78045	58.00
3.79712	58.00
3.81378	58.00
3.83045	58.00
3.84712	58.00
3.86378	58.00
3.88045	58.00
3.89712	58.00
3.91378	58.00
3.93045	58.00
3.94712	58.00
3.96378	58.00
3.98045	58.00
3.99712	58.00

[Status Trace (Carrier Gas Flow)]
Interval(msec)	1000
# of Points	240
Start Time(min)	0.014
End Time(min)	3.997
Intensity Units	
Intensity Multiplier	1
R.Time (min)	Intensity
0.01378	34.44
0.03045	34.54
0.04712	34.54
0.06378	34.53
0.08045	34.51
0.09712	34.52
0.11378	34.52
0.13045	34.52
0.14712	34.52
0.16378	34.51
0.18045	34.52
0.19712	34.52
0.21378	34.52
0.23045	34.52
0.24712	34.52
0.26378	34.53
0.28045	34.52
0.29712	34.52
0.31378	34.52
0.33045	34.52
0.34712	34.52
0.36378	34.52
0.38045	34.52
0.39712	34.52
0.41378	34.52
0.43045	34.52
0.44712	34.52
0.46378	34.52
0.48045	34.52
0.49712	34.52
0.51378	34.52
0.53045	34.52
0.54712	34.51
0.56378	34.52
0.58045	34.52
0.59712	34.52
0.61378	34.52
0.63045	34.52
0.64712	34.52
0.66378	34.52
0.68045	34.52
0.69712	34.52
0.71378	34.52
0.73045	34.51
0.74712	34.52
0.76378	34.52
0.78045	34.52
0.79712	34.52
0.81378	34.52
0.83045	34.52
0.84712	34.52
0.86378	34.52
0.88045	34.52
0.89712	34.52
0.91378	34.51
0.93045	34.52
0.94712	34.53
0.96378	34.52
0.98045	34.52
0.99712	34.52
1.01378	34.52
1.03045	34.52
1.04712	34.51
1.06378	34.52
1.08045	34.53
1.09712	34.52
1.11378	34.52
1.13045	34.52
1.14712	34.51
1.16378	34.52
1.18045	34.52
1.19712	34.52
1.21378	34.52
1.23045	34.51
1.24712	34.51
1.26378	34.52
1.28045	34.52
1.29712	34.52
1.31378	34.52
1.33045	34.52
1.34712	34.52
1.36378	34.52
1.38045	34.51
1.39712	34.52
1.41378	34.52
1.43045	34.52
1.44712	34.52
1.46378	34.52
1.48045	34.52
1.49712	34.52
1.51378	34.52
1.53045	34.52
1.54712	34.52
1.56378	34.52
1.58045	34.51
1.59712	34.52
1.61378	34.52
1.63045	34.51
1.64712	34.52
1.66378	34.52
1.68045	34.52
1.69712	34.52
1.71378	34.52
1.73045	34.52
1.74712	34.52
1.76378	34.51
1.78045	34.52
1.79712	34.52
1.81378	34.52
1.83045	34.52
1.84712	34.52
1.86378	34.52
1.88045	34.52
1.89712	34.52
1.91378	34.52
1.93045	34.52
1.94712	34.52
1.96378	34.53
1.98045	34.52
1.99712	34.51
2.01378	34.52
2.03045	34.51
2.04712	34.52
2.06378	34.52
2.08045	34.52
2.09712	34.51
2.11378	34.52
2.13045	34.52
2.14712	34.52
2.16378	34.52
2.18045	34.52
2.19712	34.51
2.21378	34.52
2.23045	34.52
2.24712	34.52
2.26378	34.52
2.28045	34.52
2.29712	34.52
2.31378	34.52
2.33045	34.52
2.34712	34.52
2.36378	34.52
2.38045	34.52
2.39712	34.52
2.41378	34.52
2.43045	34.52
2.44712	34.52
2.46378	34.52
2.48045	34.52
2.49712	34.52
2.51378	34.52
2.53045	34.52
2.54712	34.52
2.56378	34.52
2.58045	34.51
2.59712	34.51
2.61378	34.52
2.63045	34.52
2.64712	34.52
2.66378	34.51
2.68045	34.52
2.69712	34.52
2.71378	34.52
2.73045	34.51
2.74712	34.52
2.76378	34.52
2.78045	34.52
2.79712	34.52
2.81378	34.52
2.83045	34.52
2.84712	34.52
2.86378	34.52
2.88045	34.52
2.89712	34.52
2.91378	34.52
2.93045	34.51
2.94712	34.53
2.96378	34.52
2.98045	34.52
2.99712	34.52
3.01378	34.52
3.03045	34.52
3.04712	34.52
3.06378	34.52
3.08045	34.52
3.09712	34.52
3.11378	34.52
3.13045	34.52
3.14712	34.52
3.16378	34.52
3.18045	34.52
3.19712	34.52
3.21378	34.52
3.23045	34.52
3.24712	34.52
3.26378	34.52
3.28045	34.52
3.29712	34.52
3.31378	34.52
3.33045	34.51
3.34712	34.52
3.36378	34.52
3.38045	34.52
3.39712	34.52
3.41378	34.52
3.43045	34.51
3.44712	34.52
3.46378	34.52
3.48045	34.52
3.49712	34.52
3.51378	34.53
3.53045	34.52
3.54712	34.52
3.56378	34.51
3.58045	34.52
3.59712	34.52
3.61378	34.52
3.63045	34.51
3.64712	34.51
3.66378	34.51
3.68045	34.52
3.69712	34.53
3.71378	34.52
3.73045	34.52
3.74712	34.52
3.76378	34.52
3.78045	34.52
3.79712	34.52
3.81378	34.52
3.83045	34.52
3.84712	34.51
3.86378	34.52
3.88045	34.52
3.89712	34.52
3.91378	34.52
3.93045	34.52
3.94712	34.52
3.96378	34.52
3.98045	34.52
3.99712	34.52

[Status Trace (Column Flow)]
Interval(msec)	1000
# of Points	240
Start Time(min)	0.014
End Time(min)	3.997
Intensity Units	
Intensity Multiplier	1
R.Time (min)	Intensity
0.01378	5.50
0.03045	5.22
0.04712	5.52
0.06378	5.73
0.08045	5.61
0.09712	5.52
0.11378	5.52
0.13045	5.52
0.14712	5.52
0.16378	5.52
0.18045	5.52
0.19712	5.52
0.21378	5.52
0.23045	5.52
0.24712	5.52
0.26378	5.52
0.28045	5.52
0.29712	5.52
0.31378	5.52
0.33045	5.52
0.34712	5.52
0.36378	5.52
0.38045	5.52
0.39712	5.52
0.41378	5.52
0.43045	5.52
0.44712	5.52
0.46378	5.52
0.48045	5.52
0.49712	5.52
0.51378	5.52
0.53045	5.52
0.54712	5.52
0.56378	5.52
0.58045	5.52
0.59712	5.52
0.61378	5.52
0.63045	5.52
0.64712	5.52
0.66378	5.52
0.68045	5.52
0.69712	5.52
0.71378	5.52
0.73045	5.52
0.74712	5.52
0.76378	5.52
0.78045	5.52
0.79712	5.52
0.81378	5.52
0.83045	5.52
0.84712	5.52
0.86378	5.52
0.88045	5.52
0.89712	5.52
0.91378	5.52
0.93045	5.52
0.94712	5.52
0.96378	5.52
0.98045	5.52
0.99712	5.52
1.01378	5.52
1.03045	5.52
1.04712	5.52
1.06378	5.52
1.08045	5.52
1.09712	5.52
1.11378	5.52
1.13045	5.52
1.14712	5.52
1.16378	5.52
1.18045	5.52
1.19712	5.52
1.21378	5.52
1.23045	5.52
1.24712	5.52
1.26378	5.52
1.28045	5.52
1.29712	5.52
1.31378	5.52
1.33045	5.52
1.34712	5.52
1.36378	5.52
1.38045	5.52
1.39712	5.52
1.41378	5.52
1.43045	5.52
1.44712	5.52
1.46378	5.52
1.48045	5.52
1.49712	5.52
1.51378	5.52
1.53045	5.52
1.54712	5.52
1.56378	5.52
1.58045	5.52
1.59712	5.52
1.61378	5.52
1.63045	5.52
1.64712	5.51
1.66378	5.50
1.68045	5.49
1.69712	5.48
1.71378	5.47
1.73045	5.46
1.74712	5.45
1.76378	5.44
1.78045	5.43
1.79712	5.42
1.81378	5.41
1.83045	5.40
1.84712	5.39
1.86378	5.38
1.88045	5.37
1.89712	5.36
1.91378	5.35
1.93045	5.34
1.94712	5.33
1.96378	5.32
1.98045	5.31
1.99712	5.30
2.01378	5.29
2.03045	5.28
2.04712	5.27
2.06378	5.26
2.08045	5.25
2.09712	5.24
2.11378	5.23
2.13045	5.22
2.14712	5.21
2.16378	5.20
2.18045	5.19
2.19712	5.18
2.21378	5.18
2.23045	5.17
2.24712	5.16
2.26378	5.15
2.28045	5.14
2.29712	5.13
2.31378	5.12
2.33045	5.11
2.34712	5.10
2.36378	5.09
2.38045	5.09
2.39712	5.09
2.41378	5.09
2.43045	5.09
2.44712	5.09
2.46378	5.09
2.48045	5.09
2.49712	5.09
2.51378	5.09
2.53045	5.09
2.54712	5.09
2.56378	5.09
2.58045	5.09
2.59712	5.09
2.61378	5.09
2.63045	5.09
2.64712	5.09
2.66378	5.09
2.68045	5.08
2.69712	5.08
2.71378	5.08
2.73045	5.08
2.74712	5.08
2.76378	5.08
2.78045	5.08
2.79712	5.08
2.81378	5.08
2.83045	5.08
2.84712	5.08
2.86378	5.08
2.88045	5.08
2.89712	5.08
2.91378	5.08
2.93045	5.08
2.94712	5.08
2.96378	5.08
2.98045	5.08
2.99712	5.08
3.01378	5.08
3.03045	5.08
3.04712	5.08
3.06378	5.08
3.08045	5.08
3.09712	5.08
3.11378	5.08
3.13045	5.08
3.14712	5.08
3.16378	5.08
3.18045	5.08
3.19712	5.08
3.21378	5.08
3.23045	5.08
3.24712	5.08
3.26378	5.08
3.28045	5.08
3.29712	5.08
3.31378	5.08
3.33045	5.08
3.34712	5.08
3.36378	5.08
3.38045	5.08
3.39712	5.08
3.41378	5.08
3.43045	5.08
3.44712	5.08
3.46378	5.08
3.48045	5.08
3.49712	5.08
3.51378	5.08
3.53045	5.08
3.54712	5.08
3.56378	5.08
3.58045	5.08
3.59712	5.08
3.61378	5.08
3.63045	5.08
3.64712	5.08
3.66378	5.08
3.68045	5.08
3.69712	5.08
3.71378	5.08
3.73045	5.08
3.74712	5.08
3.76378	5.08
3.78045	5.08
3.79712	5.08
3.81378	5.08
3.83045	5.08
3.84712	5.08
3.86378	5.08
3.88045	5.08
3.89712	5.08
3.91378	5.08
3.93045	5.08
3.94712	5.08
3.96378	5.08
3.98045	5.08
3.99712	5.08

[Status Trace (Linear Velocity)]
Interval(msec)	1000
# of Points	240
Start Time(min)	0.014
End Time(min)	3.997
Intensity Units	
Intensity Multiplier	1
R.Time (min)	Intensity
0.01378	38.87
0.03045	37.31
0.04712	38.99
0.06378	40.19
0.08045	39.48
0.09712	39.00
0.11378	39.01
0.13045	39.02
0.14712	39.02
0.16378	39.01
0.18045	39.01
0.19712	39.01
0.21378	39.01
0.23045	39.01
0.24712	39.02
0.26378	39.02
0.28045	39.02
0.29712	39.02
0.31378	39.02
0.33045	39.02
0.34712	39.01
0.36378	39.01
0.38045	39.02
0.39712	39.02
0.41378	39.02
0.43045	39.02
0.44712	39.02
0.46378	39.02
0.48045	39.02
0.49712	39.02
0.51378	39.02
0.53045	39.02
0.54712	39.02
0.56378	39.02
0.58045	39.01
0.59712	39.01
0.61378	39.01
0.63045	39.01
0.64712	39.01
0.66378	39.01
0.68045	39.01
0.69712	39.01
0.71378	39.01
0.73045	39.02
0.74712	39.02
0.76378	39.02
0.78045	39.02
0.79712	39.02
0.81378	39.02
0.83045	39.02
0.84712	39.02
0.86378	39.02
0.88045	39.02
0.89712	39.02
0.91378	39.02
0.93045	39.02
0.94712	39.02
0.96378	39.02
0.98045	39.02
0.99712	39.02
1.01378	39.02
1.03045	39.02
1.04712	39.02
1.06378	39.02
1.08045	39.02
1.09712	39.02
1.11378	39.02
1.13045	39.02
1.14712	39.02
1.16378	39.02
1.18045	39.02
1.19712	39.02
1.21378	39.02
1.23045	39.02
1.24712	39.02
1.26378	39.02
1.28045	39.02
1.29712	39.02
1.31378	39.02
1.33045	39.02
1.34712	39.02
1.36378	39.02
1.38045	39.02
1.39712	39.02
1.41378	39.02
1.43045	39.02
1.44712	39.02
1.46378	39.02
1.48045	39.02
1.49712	39.02
1.51378	39.02
1.53045	39.02
1.54712	39.02
1.56378	39.02
1.58045	39.02
1.59712	39.01
1.61378	39.01
1.63045	38.99
1.64712	38.98
1.66378	38.95
1.68045	38.92
1.69712	38.88
1.71378	38.85
1.73045	38.81
1.74712	38.78
1.76378	38.76
1.78045	38.72
1.79712	38.69
1.81378	38.66
1.83045	38.63
1.84712	38.59
1.86378	38.57
1.88045	38.53
1.89712	38.50
1.91378	38.47
1.93045	38.44
1.94712	38.41
1.96378	38.38
1.98045	38.35
1.99712	38.32
2.01378	38.29
2.03045	38.26
2.04712	38.23
2.06378	38.20
2.08045	38.17
2.09712	38.14
2.11378	38.12
2.13045	38.09
2.14712	38.05
2.16378	38.03
2.18045	37.99
2.19712	37.96
2.21378	37.94
2.23045	37.90
2.24712	37.87
2.26378	37.85
2.28045	37.82
2.29712	37.79
2.31378	37.76
2.33045	37.72
2.34712	37.69
2.36378	37.67
2.38045	37.66
2.39712	37.66
2.41378	37.66
2.43045	37.66
2.44712	37.66
2.46378	37.66
2.48045	37.66
2.49712	37.66
2.51378	37.65
2.53045	37.65
2.54712	37.65
2.56378	37.65
2.58045	37.65
2.59712	37.65
2.61378	37.65
2.63045	37.65
2.64712	37.65
2.66378	37.65
2.68045	37.65
2.69712	37.65
2.71378	37.65
2.73045	37.65
2.74712	37.64
2.76378	37.64
2.78045	37.64
2.79712	37.64
2.81378	37.65
2.83045	37.65
2.84712	37.65
2.86378	37.64
2.88045	37.64
2.89712	37.64
2.91378	37.64
2.93045	37.64
2.94712	37.64
2.96378	37.64
2.98045	37.64
2.99712	37.64
3.01378	37.64
3.03045	37.64
3.04712	37.64
3.06378	37.64
3.08045	37.64
3.09712	37.64
3.11378	37.63
3.13045	37.63
3.14712	37.63
3.16378	37.63
3.18045	37.63
3.19712	37.63
3.21378	37.63
3.23045	37.63
3.24712	37.63
3.26378	37.63
3.28045	37.63
3.29712	37.63
3.31378	37.63
3.33045	37.63
3.34712	37.63
3.36378	37.63
3.38045	37.63
3.39712	37.62
3.41378	37.62
3.43045	37.62
3.44712	37.62
3.46378	37.62
3.48045	37.62
3.49712	37.63
3.51378	37.63
3.53045	37.63
3.54712	37.63
3.56378	37.63
3.58045	37.63
3.59712	37.63
3.61378	37.63
3.63045	37.63
3.64712	37.63
3.66378	37.63
3.68045	37.63
3.69712	37.63
3.71378	37.63
3.73045	37.63
3.74712	37.63
3.76378	37.63
3.78045	37.63
3.79712	37.63
3.81378	37.63
3.83045	37.63
3.84712	37.63
3.86378	37.63
3.88045	37.63
3.89712	37.63
3.91378	37.63
3.93045	37.63
3.94712	37.63
3.96378	37.63
3.98045	37.63
3.99712	37.63

