[Header]
Application Name	LabSolutions
Version	5.110
Data File Name	C:\Users\User\Desktop\GC Analyses\Jack\Nachusa Grasslands Sampling\T2 Timepoint July 12th\T2_07122022_069.gcd
Output Date	3/14/2023
Output Time	3:42:34 PM

[File Information]
Type	Data File
Generated	3/10/2023 8:08:03 PM
Generated by	System Administrator
Modified	3/10/2023 8:14:41 PM
Modified by	System Administrator

[Sample Information]
Operator Name	System Administrator
Acquired	3/10/2023 8:10:39 PM
Sample Type	0:Unknown
Level	0
Sample Name	069
Sample ID	069
ISTD Amount1	1
ISTD Amount2	1
ISTD Amount3	1
ISTD Amount4	1
ISTD Amount5	1
ISTD Amount6	1
ISTD Amount7	1
ISTD Amount8	1
ISTD Amount9	1
ISTD Amount10	1
ISTD Amount11	1
ISTD Amount12	1
ISTD Amount13	1
ISTD Amount14	1
ISTD Amount15	1
ISTD Amount16	1
ISTD Amount17	1
ISTD Amount18	1
ISTD Amount19	1
ISTD Amount20	1
ISTD Amount21	1
ISTD Amount22	1
ISTD Amount23	1
ISTD Amount24	1
ISTD Amount25	1
ISTD Amount26	1
ISTD Amount27	1
ISTD Amount28	1
ISTD Amount29	1
ISTD Amount30	1
ISTD Amount31	1
ISTD Amount32	1
Sample Amount	1
Dilution Factor	1
Vial#	68
Injection Volume	1
Injection Count	1
Bar Code	

[Original Files]
Data File	C:\Users\User\Desktop\GC Analyses\Jack\Nachusa Grasslands Sampling\T1 Timepoint July 12th\T2_07122022_069.gcd
Method File	C:\LabSolutions\Data\GHG_4min_2022\ghg3_togas_w_acet_4 min_new_int.gcm
Batch File	C:\LabSolutions\Data\AutoSamplerTesting\T2_07122022.gcb
Report Format File	c:\LabSolutions\System\DEFAULT.lsr

[File Description]


[Configuration]
Instrument Name	C0B7VH3-Instrument1
Instrument #	1
Line #	1
# of Detectors	3
Detector ID	DET#1	DET#2	DET#3
Detector Name	FID	PTCD	ECD
# of Channels	1	1	1

[Peak Table(Ch1)]
# of Peaks	3
Peak#	R.Time	I.Time	F.Time	Area	Height	A/H	Conc.	Mark	ID#	Name	k'	Plate #	Plate Ht.	Tailing	Resolution	Sep.Factor	Area Ratio	Height Ratio	Conc. %	Norm Conc.
1	1.476	1.435	1.538	37551	18046	2.081	265.114	   	1	CO	0.000	9587	15.645	1.296	0.000	0.000	0	0	23.380	23.380
2	1.567	1.538	1.641	4927	2343	2.102	95.261	 V 	2	CH4	0.062	9934	15.099	0.000	1.488	0.000	0	0	8.401	8.401
3	1.996	1.949	2.656	3082314	1463937	2.105	773.577	   	3	CO2	0.353	17373	8.634	1.243	6.948	5.680	0	0	68.220	68.220

[Peak Table(Ch2)]
# of Peaks	0

[Peak Table(Ch3)]
# of Peaks	4
Peak#	R.Time	I.Time	F.Time	Area	Height	A/H	Conc.	Mark	ID#	Name	k'	Plate #	Plate Ht.	Tailing	Resolution	Sep.Factor	Area Ratio	Height Ratio	Conc. %	Norm Conc.
1	2.462	2.121	2.513	3815	794	4.806	0.000	   			0.000	9033	16.606	0.000	0.000	0.000	0	0	0.000	0.000
2	2.532	2.513	2.700	1780	388	4.592	0.000	 V 			0.028	4293	34.938	0.000	0.540	0.000	0	0	0.000	0.000
3	2.876	2.810	3.027	18719	5021	3.728	0.478	   	1	N2O	0.168	13384	11.207	1.579	2.714	5.947	0	0	100.000	100.000
4	3.357	3.129	3.995	18426	601	30.660	0.000	   	2	SF6	0.363	220	680.450	1.852	0.957	2.159	0	0	0.000	0.000

[Compound Results(Ch1)]
# of IDs	6
ID#	Name	R.Time	Area	Height	Conc.	Curve	3rd	2nd	1st	Constant	Area Ratio	Height Ratio	Conc. %	Norm Conc.
1	CO	1.476	37551	18046	265.114	Linear	0.000000e+00	0.000000e+00	1.416423e+002	0.000000e+00	0	0	23.380	23.380
2	CH4	1.567	4927	2343	95.261	Linear	0.000000e+00	0.000000e+00	5.171738e+001	0.000000e+00	0	0	8.401	8.401
3	CO2	1.996	3082314	1463937	773.577	Linear	0.000000e+00	0.000000e+00	3.984494e+003	0.000000e+00	0	0	68.220	68.220
4	Ethylene	0.000	0	0	0.000	Linear	0.000000e+00	0.000000e+00	0.000000e+00	0.000000e+00	0	0	0.000	0.000
5	Acetylene	0.000	0	0	0.000	Linear	0.000000e+00	0.000000e+00	0.000000e+00	0.000000e+00	0	0	0.000	0.000
6	Ethane	0.000	0	0	0.000	Linear	0.000000e+00	0.000000e+00	0.000000e+00	0.000000e+00	0	0	0.000	0.000

[Compound Results(Ch2)]
# of IDs	5
ID#	Name	R.Time	Area	Height	Conc.	Curve	3rd	2nd	1st	Constant	Area Ratio	Height Ratio	Conc. %	Norm Conc.
1	Hydrogen	0.000	0	0	0.000	Linear	0.000000e+00	0.000000e+00	0.000000e+00	0.000000e+00	0	0	0.000	0.000
2	Oxygen	0.000	0	0	0.000	Linear	0.000000e+00	0.000000e+00	0.000000e+00	0.000000e+00	0	0	0.000	0.000
3	Nitrogen	0.000	0	0	0.000	Linear	0.000000e+00	0.000000e+00	0.000000e+00	0.000000e+00	0	0	0.000	0.000
4	Methane	0.000	0	0	0.000	Linear	0.000000e+00	0.000000e+00	0.000000e+00	0.000000e+00	0	0	0.000	0.000
5	Carbon Monoxide	0.000	0	0	0.000	Linear	0.000000e+00	0.000000e+00	0.000000e+00	0.000000e+00	0	0	0.000	0.000

[Compound Results(Ch3)]
# of IDs	2
ID#	Name	R.Time	Area	Height	Conc.	Curve	3rd	2nd	1st	Constant	Area Ratio	Height Ratio	Conc. %	Norm Conc.
1	N2O	2.876	18719	5021	0.478	Linear	0.000000e+00	0.000000e+00	3.915173e+004	0.000000e+00	0	0	100.000	100.000
2	SF6	3.357	18426	601	0.000	Linear	0.000000e+00	0.000000e+00	0.000000e+00	0.000000e+00	0	0	0.000	0.000

[Group Results(Ch1)]
# of Groups	0

[Group Results(Ch2)]
# of Groups	0

[Group Results(Ch3)]
# of Groups	0

[Chromatogram (Ch1)]
Interval(msec)	220
# of Points	1091
Start Time(min)	0.002
End Time(min)	3.998
R.Time (min)	Intensity
0.00167	-27
0.00533	-26
0.00900	-22
0.01267	-18
0.01633	-14
0.02000	-16
0.02367	-24
0.02733	-29
0.03100	-28
0.03467	-21
0.03833	-14
0.04200	-13
0.04567	-14
0.04933	-12
0.05300	-9
0.05667	-8
0.06033	-7
0.06400	-4
0.06767	2
0.07133	6
0.07500	5
0.07867	4
0.08233	-0
0.08600	-5
0.08967	-9
0.09333	-12
0.09700	-16
0.10067	-22
0.10433	-29
0.10800	-35
0.11167	-36
0.11533	-32
0.11900	-26
0.12267	-24
0.12633	-21
0.13000	-17
0.13367	-13
0.13733	-9
0.14100	-0
0.14467	6
0.14833	5
0.15200	-1
0.15567	-7
0.15933	-8
0.16300	-6
0.16667	-5
0.17033	-9
0.17400	-12
0.17767	-8
0.18133	-3
0.18500	5
0.18867	12
0.19233	11
0.19600	6
0.19967	2
0.20333	-1
0.20700	-2
0.21067	-3
0.21433	-4
0.21800	-5
0.22167	-9
0.22533	-15
0.22900	-18
0.23267	-14
0.23633	-8
0.24000	-3
0.24367	-3
0.24733	-4
0.25100	-4
0.25467	-1
0.25833	2
0.26200	8
0.26567	17
0.26933	25
0.27300	30
0.27667	28
0.28033	28
0.28400	31
0.28767	41
0.29133	52
0.29500	59
0.29867	59
0.30233	52
0.30600	40
0.30967	29
0.31333	22
0.31700	18
0.32067	15
0.32433	14
0.32800	15
0.33167	19
0.33533	28
0.33900	33
0.34267	32
0.34633	36
0.35000	42
0.35367	43
0.35733	40
0.36100	39
0.36467	39
0.36833	36
0.37200	30
0.37567	21
0.37933	12
0.38300	11
0.38667	15
0.39033	13
0.39400	10
0.39767	10
0.40133	10
0.40500	11
0.40867	9
0.41233	2
0.41600	-8
0.41967	-16
0.42333	-20
0.42700	-19
0.43067	-20
0.43433	-19
0.43800	-17
0.44167	-19
0.44533	-24
0.44900	-28
0.45267	-30
0.45633	-31
0.46000	-30
0.46367	-28
0.46733	-28
0.47100	-26
0.47467	-22
0.47833	-20
0.48200	-20
0.48567	-23
0.48933	-26
0.49300	-29
0.49667	-31
0.50033	-33
0.50400	-34
0.50767	-33
0.51133	-29
0.51500	-27
0.51867	-35
0.52233	-43
0.52600	-48
0.52967	-50
0.53333	-49
0.53700	-48
0.54067	-48
0.54433	-47
0.54800	-42
0.55167	-38
0.55533	-38
0.55900	-43
0.56267	-46
0.56633	-42
0.57000	-38
0.57367	-41
0.57733	-43
0.58100	-39
0.58467	-38
0.58833	-42
0.59200	-45
0.59567	-44
0.59933	-38
0.60300	-35
0.60667	-38
0.61033	-40
0.61400	-43
0.61767	-50
0.62133	-54
0.62500	-51
0.62867	-42
0.63233	-33
0.63600	-29
0.63967	-32
0.64333	-36
0.64700	-33
0.65067	-28
0.65433	-26
0.65800	-25
0.66167	-24
0.66533	-24
0.66900	-22
0.67267	-19
0.67633	-18
0.68000	-18
0.68367	-18
0.68733	-17
0.69100	-19
0.69467	-25
0.69833	-35
0.70200	-50
0.70567	-66
0.70933	-75
0.71300	-77
0.71667	-77
0.72033	-75
0.72400	-71
0.72767	-69
0.73133	-73
0.73500	-74
0.73867	-72
0.74233	-67
0.74600	-61
0.74967	-53
0.75333	-45
0.75700	-39
0.76067	-35
0.76433	-30
0.76800	-28
0.77167	-23
0.77533	-17
0.77900	-18
0.78267	-27
0.78633	-38
0.79000	-49
0.79367	-54
0.79733	-56
0.80100	-59
0.80467	-66
0.80833	-71
0.81200	-73
0.81567	-76
0.81933	-80
0.82300	-81
0.82667	-80
0.83033	-77
0.83400	-73
0.83767	-68
0.84133	-60
0.84500	-60
0.84867	-64
0.85233	-66
0.85600	-68
0.85967	-70
0.86333	-71
0.86700	-69
0.87067	-61
0.87433	-55
0.87800	-53
0.88167	-55
0.88533	-56
0.88900	-52
0.89267	-50
0.89633	-50
0.90000	-53
0.90367	-56
0.90733	-56
0.91100	-56
0.91467	-59
0.91833	-64
0.92200	-70
0.92567	-75
0.92933	-79
0.93300	-78
0.93667	-71
0.94033	-62
0.94400	-58
0.94767	-56
0.95133	-59
0.95500	-62
0.95867	-61
0.96233	-56
0.96600	-51
0.96967	-51
0.97333	-50
0.97700	-48
0.98067	-47
0.98433	-51
0.98800	-57
0.99167	-63
0.99533	-64
0.99900	-63
1.00267	-58
1.00633	-47
1.01000	-39
1.01367	-40
1.01733	-44
1.02100	-45
1.02467	-41
1.02833	-36
1.03200	-34
1.03567	-35
1.03933	-36
1.04300	-35
1.04667	-35
1.05033	-33
1.05400	-32
1.05767	-34
1.06133	-37
1.06500	-42
1.06867	-41
1.07233	-38
1.07600	-35
1.07967	-36
1.08333	-43
1.08700	-48
1.09067	-44
1.09433	-35
1.09800	-25
1.10167	-24
1.10533	-27
1.10900	-32
1.11267	-33
1.11633	-30
1.12000	-25
1.12367	-23
1.12733	-25
1.13100	-31
1.13467	-37
1.13833	-47
1.14200	-52
1.14567	-55
1.14933	-60
1.15300	-62
1.15667	-62
1.16033	-56
1.16400	-47
1.16767	-36
1.17133	-28
1.17500	-24
1.17867	-22
1.18233	-23
1.18600	-28
1.18967	-36
1.19333	-44
1.19700	-50
1.20067	-50
1.20433	-46
1.20800	-48
1.21167	-51
1.21533	-51
1.21900	-52
1.22267	-52
1.22633	-46
1.23000	-43
1.23367	-43
1.23733	-45
1.24100	-44
1.24467	-40
1.24833	-35
1.25200	-26
1.25567	-17
1.25933	-14
1.26300	-16
1.26667	-22
1.27033	-33
1.27400	-50
1.27767	-57
1.28133	-59
1.28500	-57
1.28867	-57
1.29233	-59
1.29600	-63
1.29967	-64
1.30333	-61
1.30700	-58
1.31067	-57
1.31433	-54
1.31800	-51
1.32167	-52
1.32533	-55
1.32900	-55
1.33267	-53
1.33633	-51
1.34000	-51
1.34367	-49
1.34733	-46
1.35100	-44
1.35467	-45
1.35833	-51
1.36200	-55
1.36567	-57
1.36933	-56
1.37300	-54
1.37667	-52
1.38033	-46
1.38400	-34
1.38767	-28
1.39133	-29
1.39500	-38
1.39867	-50
1.40233	-64
1.40600	-77
1.40967	-84
1.41333	-86
1.41700	-81
1.42067	-75
1.42433	-72
1.42800	-73
1.43167	-75
1.43533	-71
1.43900	-38
1.44267	76
1.44633	364
1.45000	1177
1.45367	3088
1.45733	6143
1.46100	9691
1.46467	12995
1.46833	15620
1.47200	17345
1.47567	17983
1.47933	17399
1.48300	15667
1.48667	13160
1.49033	10405
1.49400	7847
1.49767	5729
1.50133	4101
1.50500	2912
1.50867	2067
1.51233	1478
1.51600	1073
1.51967	799
1.52333	613
1.52700	487
1.53067	397
1.53433	328
1.53800	289
1.54167	326
1.54533	496
1.54900	821
1.55267	1239
1.55633	1648
1.56000	1980
1.56367	2206
1.56733	2301
1.57100	2236
1.57467	2010
1.57833	1670
1.58200	1290
1.58567	942
1.58933	661
1.59300	449
1.59667	302
1.60033	207
1.60400	144
1.60767	101
1.61133	71
1.61500	49
1.61867	33
1.62233	22
1.62600	16
1.62967	12
1.63333	1
1.63700	-14
1.64067	-26
1.64433	-35
1.64800	-38
1.65167	-37
1.65533	-34
1.65900	-27
1.66267	-21
1.66633	-17
1.67000	-19
1.67367	-23
1.67733	-31
1.68100	-40
1.68467	-42
1.68833	-45
1.69200	-48
1.69567	-49
1.69933	-49
1.70300	-45
1.70667	-37
1.71033	-32
1.71400	-29
1.71767	-28
1.72133	-27
1.72500	-29
1.72867	-36
1.73233	-43
1.73600	-52
1.73967	-61
1.74333	-66
1.74700	-70
1.75067	-70
1.75433	-66
1.75800	-62
1.76167	-63
1.76533	-65
1.76900	-65
1.77267	-63
1.77633	-58
1.78000	-53
1.78367	-50
1.78733	-48
1.79100	-46
1.79467	-43
1.79833	-37
1.80200	-32
1.80567	-30
1.80933	-36
1.81300	-47
1.81667	-53
1.82033	-54
1.82400	-55
1.82767	-57
1.83133	-61
1.83500	-65
1.83867	-68
1.84233	-68
1.84600	-64
1.84967	-59
1.85333	-53
1.85700	-52
1.86067	-58
1.86433	-64
1.86800	-65
1.87167	-61
1.87533	-55
1.87900	-52
1.88267	-52
1.88633	-53
1.89000	-55
1.89367	-59
1.89733	-59
1.90100	-58
1.90467	-60
1.90833	-67
1.91200	-69
1.91567	-60
1.91933	-42
1.92300	-29
1.92667	-24
1.93033	-27
1.93400	-33
1.93767	-38
1.94133	-41
1.94500	-42
1.94867	-39
1.95233	6
1.95600	361
1.95967	2457
1.96333	11729
1.96700	42704
1.97067	121716
1.97433	275943
1.97800	509125
1.98167	789593
1.98533	1065988
1.98900	1289800
1.99267	1427952
1.99633	1463934
2.00000	1398515
2.00367	1249889
2.00733	1049715
2.01100	833737
2.01467	631759
2.01833	461498
2.02200	328606
2.02567	230548
2.02933	160980
2.03300	112894
2.03667	80183
2.04033	58096
2.04400	43178
2.04767	33027
2.05133	26032
2.05500	21128
2.05867	17620
2.06233	15050
2.06600	13117
2.06967	11621
2.07333	10435
2.07700	9471
2.08067	8676
2.08433	8006
2.08800	7430
2.09167	6930
2.09533	6495
2.09900	6113
2.10267	5773
2.10633	5464
2.11000	5188
2.11367	4942
2.11733	4719
2.12100	4513
2.12467	4322
2.12833	4142
2.13200	3973
2.13567	3816
2.13933	3668
2.14300	3524
2.14667	3391
2.15033	3271
2.15400	3164
2.15767	3062
2.16133	2964
2.16500	2870
2.16867	2777
2.17233	2686
2.17600	2606
2.17967	2540
2.18333	2472
2.18700	2406
2.19067	2343
2.19433	2283
2.19800	2230
2.20167	2181
2.20533	2129
2.20900	2076
2.21267	2028
2.21633	1978
2.22000	1930
2.22367	1879
2.22733	1832
2.23100	1788
2.23467	1745
2.23833	1705
2.24200	1670
2.24567	1637
2.24933	1599
2.25300	1560
2.25667	1528
2.26033	1502
2.26400	1479
2.26767	1455
2.27133	1430
2.27500	1403
2.27867	1371
2.28233	1339
2.28600	1311
2.28967	1290
2.29333	1275
2.29700	1257
2.30067	1237
2.30433	1220
2.30800	1203
2.31167	1185
2.31533	1168
2.31900	1150
2.32267	1130
2.32633	1113
2.33000	1097
2.33367	1083
2.33733	1069
2.34100	1057
2.34467	1046
2.34833	1034
2.35200	1022
2.35567	1009
2.35933	999
2.36300	987
2.36667	973
2.37033	959
2.37400	947
2.37767	936
2.38133	923
2.38500	901
2.38867	877
2.39233	860
2.39600	853
2.39967	843
2.40333	835
2.40700	829
2.41067	824
2.41433	817
2.41800	809
2.42167	808
2.42533	807
2.42900	798
2.43267	785
2.43633	776
2.44000	772
2.44367	768
2.44733	767
2.45100	762
2.45467	750
2.45833	735
2.46200	722
2.46567	713
2.46933	703
2.47300	696
2.47667	693
2.48033	693
2.48400	693
2.48767	691
2.49133	689
2.49500	688
2.49867	684
2.50233	680
2.50600	672
2.50967	662
2.51333	652
2.51700	640
2.52067	633
2.52433	628
2.52800	629
2.53167	630
2.53533	625
2.53900	619
2.54267	613
2.54633	609
2.55000	608
2.55367	605
2.55733	600
2.56100	593
2.56467	586
2.56833	579
2.57200	576
2.57567	570
2.57933	561
2.58300	555
2.58667	552
2.59033	548
2.59400	549
2.59767	554
2.60133	562
2.60500	572
2.60867	579
2.61233	571
2.61600	554
2.61967	536
2.62333	520
2.62700	509
2.63067	498
2.63433	492
2.63800	493
2.64167	497
2.64533	503
2.64900	505
2.65267	506
2.65633	502
2.66000	496
2.66367	493
2.66733	497
2.67100	506
2.67467	514
2.67833	515
2.68200	508
2.68567	499
2.68933	487
2.69300	476
2.69667	468
2.70033	465
2.70400	459
2.70767	454
2.71133	451
2.71500	450
2.71867	453
2.72233	457
2.72600	458
2.72967	457
2.73333	459
2.73700	463
2.74067	466
2.74433	463
2.74800	458
2.75167	458
2.75533	460
2.75900	451
2.76267	440
2.76633	433
2.77000	431
2.77367	433
2.77733	432
2.78100	430
2.78467	430
2.78833	432
2.79200	435
2.79567	436
2.79933	436
2.80300	437
2.80667	440
2.81033	442
2.81400	439
2.81767	434
2.82133	428
2.82500	428
2.82867	426
2.83233	423
2.83600	420
2.83967	417
2.84333	414
2.84700	411
2.85067	410
2.85433	412
2.85800	415
2.86167	422
2.86533	420
2.86900	412
2.87267	405
2.87633	404
2.88000	403
2.88367	402
2.88733	401
2.89100	400
2.89467	398
2.89833	397
2.90200	400
2.90567	403
2.90933	404
2.91300	406
2.91667	412
2.92033	414
2.92400	409
2.92767	402
2.93133	394
2.93500	388
2.93867	382
2.94233	381
2.94600	381
2.94967	382
2.95333	381
2.95700	381
2.96067	382
2.96433	385
2.96800	382
2.97167	371
2.97533	362
2.97900	359
2.98267	364
2.98633	364
2.99000	362
2.99367	362
2.99733	370
3.00100	378
3.00467	380
3.00833	377
3.01200	374
3.01567	370
3.01933	365
3.02300	357
3.02667	349
3.03033	346
3.03400	348
3.03767	352
3.04133	354
3.04500	354
3.04867	354
3.05233	353
3.05600	354
3.05967	361
3.06333	365
3.06700	363
3.07067	358
3.07433	355
3.07800	356
3.08167	362
3.08533	372
3.08900	379
3.09267	373
3.09633	362
3.10000	343
3.10367	325
3.10733	320
3.11100	323
3.11467	329
3.11833	333
3.12200	337
3.12567	344
3.12933	345
3.13300	343
3.13667	341
3.14033	337
3.14400	332
3.14767	329
3.15133	325
3.15500	322
3.15867	318
3.16233	315
3.16600	312
3.16967	307
3.17333	302
3.17700	298
3.18067	295
3.18433	293
3.18800	294
3.19167	300
3.19533	310
3.19900	318
3.20267	322
3.20633	321
3.21000	314
3.21367	302
3.21733	292
3.22100	291
3.22467	299
3.22833	304
3.23200	302
3.23567	294
3.23933	287
3.24300	286
3.24667	287
3.25033	289
3.25400	292
3.25767	291
3.26133	291
3.26500	290
3.26867	285
3.27233	282
3.27600	282
3.27967	283
3.28333	285
3.28700	284
3.29067	284
3.29433	288
3.29800	293
3.30167	297
3.30533	302
3.30900	308
3.31267	316
3.31633	317
3.32000	307
3.32367	292
3.32733	274
3.33100	255
3.33467	241
3.33833	231
3.34200	229
3.34567	236
3.34933	243
3.35300	246
3.35667	246
3.36033	243
3.36400	241
3.36767	243
3.37133	246
3.37500	248
3.37867	248
3.38233	245
3.38600	237
3.38967	227
3.39333	226
3.39700	229
3.40067	231
3.40433	232
3.40800	236
3.41167	243
3.41533	252
3.41900	257
3.42267	255
3.42633	259
3.43000	269
3.43367	275
3.43733	276
3.44100	270
3.44467	259
3.44833	246
3.45200	234
3.45567	226
3.45933	222
3.46300	221
3.46667	220
3.47033	217
3.47400	211
3.47767	207
3.48133	208
3.48500	212
3.48867	213
3.49233	211
3.49600	209
3.49967	212
3.50333	218
3.50700	219
3.51067	210
3.51433	203
3.51800	205
3.52167	214
3.52533	223
3.52900	229
3.53267	233
3.53633	231
3.54000	224
3.54367	212
3.54733	203
3.55100	196
3.55467	192
3.55833	193
3.56200	193
3.56567	189
3.56933	185
3.57300	182
3.57667	181
3.58033	184
3.58400	187
3.58767	187
3.59133	189
3.59500	190
3.59867	191
3.60233	193
3.60600	192
3.60967	192
3.61333	195
3.61700	201
3.62067	208
3.62433	211
3.62800	208
3.63167	203
3.63533	201
3.63900	207
3.64267	213
3.64633	213
3.65000	205
3.65367	196
3.65733	192
3.66100	192
3.66467	189
3.66833	181
3.67200	171
3.67567	162
3.67933	158
3.68300	161
3.68667	164
3.69033	161
3.69400	157
3.69767	158
3.70133	165
3.70500	168
3.70867	170
3.71233	167
3.71600	164
3.71967	166
3.72333	173
3.72700	183
3.73067	186
3.73433	183
3.73800	177
3.74167	173
3.74533	170
3.74900	163
3.75267	160
3.75633	161
3.76000	160
3.76367	162
3.76733	168
3.77100	174
3.77467	174
3.77833	175
3.78200	175
3.78567	174
3.78933	172
3.79300	170
3.79667	164
3.80033	154
3.80400	144
3.80767	139
3.81133	139
3.81500	141
3.81867	141
3.82233	140
3.82600	140
3.82967	138
3.83333	132
3.83700	129
3.84067	135
3.84433	143
3.84800	149
3.85167	152
3.85533	154
3.85900	156
3.86267	158
3.86633	160
3.87000	159
3.87367	152
3.87733	147
3.88100	148
3.88467	150
3.88833	152
3.89200	152
3.89567	153
3.89933	153
3.90300	152
3.90667	147
3.91033	136
3.91400	124
3.91767	120
3.92133	122
3.92500	129
3.92867	139
3.93233	149
3.93600	153
3.93967	153
3.94333	151
3.94700	151
3.95067	153
3.95433	151
3.95800	143
3.96167	138
3.96533	138
3.96900	140
3.97267	142
3.97633	141
3.98000	140
3.98367	141
3.98733	141
3.99100	143
3.99467	145
3.99833	142

[Chromatogram (Ch2)]
Interval(msec)	220
# of Points	1091
Start Time(min)	0.002
End Time(min)	3.998
R.Time (min)	Intensity
0.00167	-0
0.00533	-0
0.00900	-0
0.01267	-0
0.01633	-0
0.02000	0
0.02367	0
0.02733	0
0.03100	0
0.03467	0
0.03833	0
0.04200	0
0.04567	-0
0.04933	-0
0.05300	-1
0.05667	-1
0.06033	-1
0.06400	-1
0.06767	-2
0.07133	-2
0.07500	-1
0.07867	-1
0.08233	-1
0.08600	-1
0.08967	-1
0.09333	-1
0.09700	-0
0.10067	-0
0.10433	0
0.10800	0
0.11167	1
0.11533	1
0.11900	1
0.12267	1
0.12633	1
0.13000	1
0.13367	1
0.13733	1
0.14100	1
0.14467	1
0.14833	1
0.15200	1
0.15567	0
0.15933	0
0.16300	-0
0.16667	-0
0.17033	-1
0.17400	-1
0.17767	-1
0.18133	-0
0.18500	-0
0.18867	-0
0.19233	-0
0.19600	-0
0.19967	-0
0.20333	0
0.20700	0
0.21067	0
0.21433	0
0.21800	0
0.22167	0
0.22533	0
0.22900	-0
0.23267	-0
0.23633	-0
0.24000	-1
0.24367	-1
0.24733	-1
0.25100	-1
0.25467	-1
0.25833	-0
0.26200	-0
0.26567	-0
0.26933	0
0.27300	1
0.27667	1
0.28033	2
0.28400	2
0.28767	2
0.29133	2
0.29500	2
0.29867	2
0.30233	2
0.30600	2
0.30967	2
0.31333	2
0.31700	2
0.32067	2
0.32433	2
0.32800	2
0.33167	2
0.33533	1
0.33900	1
0.34267	1
0.34633	1
0.35000	0
0.35367	-0
0.35733	-0
0.36100	-1
0.36467	-1
0.36833	-2
0.37200	-2
0.37567	-3
0.37933	-3
0.38300	-3
0.38667	-4
0.39033	-4
0.39400	-4
0.39767	-3
0.40133	-3
0.40500	-3
0.40867	-3
0.41233	-3
0.41600	-3
0.41967	-4
0.42333	-4
0.42700	-4
0.43067	-4
0.43433	-4
0.43800	-4
0.44167	-3
0.44533	-3
0.44900	-3
0.45267	-3
0.45633	-3
0.46000	-3
0.46367	-2
0.46733	-2
0.47100	-2
0.47467	-1
0.47833	-0
0.48200	0
0.48567	1
0.48933	1
0.49300	1
0.49667	1
0.50033	1
0.50400	1
0.50767	1
0.51133	1
0.51500	1
0.51867	1
0.52233	1
0.52600	1
0.52967	1
0.53333	1
0.53700	1
0.54067	1
0.54433	1
0.54800	1
0.55167	0
0.55533	-0
0.55900	-1
0.56267	-2
0.56633	-3
0.57000	-3
0.57367	-4
0.57733	-4
0.58100	-4
0.58467	-4
0.58833	-4
0.59200	-4
0.59567	-5
0.59933	-5
0.60300	-5
0.60667	-5
0.61033	-4
0.61400	-4
0.61767	-4
0.62133	-3
0.62500	-3
0.62867	-3
0.63233	-3
0.63600	-3
0.63967	-3
0.64333	-3
0.64700	-3
0.65067	-3
0.65433	-2
0.65800	-2
0.66167	-2
0.66533	-2
0.66900	-3
0.67267	-3
0.67633	-3
0.68000	-4
0.68367	-4
0.68733	-4
0.69100	-4
0.69467	-4
0.69833	-4
0.70200	-3
0.70567	-3
0.70933	-2
0.71300	-1
0.71667	-1
0.72033	-0
0.72400	0
0.72767	1
0.73133	1
0.73500	1
0.73867	1
0.74233	1
0.74600	1
0.74967	1
0.75333	1
0.75700	1
0.76067	1
0.76433	1
0.76800	0
0.77167	0
0.77533	-0
0.77900	-1
0.78267	-1
0.78633	-1
0.79000	-2
0.79367	-2
0.79733	-2
0.80100	-2
0.80467	-3
0.80833	-3
0.81200	-3
0.81567	-4
0.81933	-4
0.82300	-4
0.82667	-4
0.83033	-4
0.83400	-3
0.83767	-3
0.84133	-3
0.84500	-3
0.84867	-2
0.85233	-2
0.85600	-2
0.85967	-2
0.86333	-2
0.86700	-1
0.87067	-1
0.87433	-1
0.87800	-1
0.88167	-1
0.88533	-0
0.88900	-0
0.89267	0
0.89633	1
0.90000	1
0.90367	1
0.90733	1
0.91100	1
0.91467	2
0.91833	2
0.92200	1
0.92567	1
0.92933	1
0.93300	0
0.93667	-0
0.94033	-1
0.94400	-1
0.94767	-1
0.95133	-1
0.95500	-1
0.95867	-1
0.96233	-1
0.96600	-1
0.96967	-1
0.97333	-2
0.97700	-2
0.98067	-3
0.98433	-3
0.98800	-3
0.99167	-3
0.99533	-3
0.99900	-3
1.00267	-3
1.00633	-3
1.01000	-2
1.01367	-2
1.01733	-2
1.02100	-1
1.02467	-1
1.02833	-1
1.03200	-1
1.03567	-1
1.03933	-1
1.04300	-2
1.04667	-2
1.05033	-2
1.05400	-3
1.05767	-3
1.06133	-3
1.06500	-3
1.06867	-3
1.07233	-2
1.07600	-2
1.07967	-2
1.08333	-2
1.08700	-2
1.09067	-2
1.09433	-2
1.09800	-2
1.10167	-2
1.10533	-1
1.10900	-1
1.11267	-1
1.11633	-1
1.12000	-1
1.12367	-1
1.12733	-1
1.13100	-0
1.13467	-0
1.13833	0
1.14200	0
1.14567	0
1.14933	1
1.15300	1
1.15667	1
1.16033	1
1.16400	1
1.16767	1
1.17133	1
1.17500	0
1.17867	0
1.18233	1
1.18600	1
1.18967	1
1.19333	1
1.19700	1
1.20067	1
1.20433	0
1.20800	0
1.21167	-0
1.21533	-1
1.21900	-1
1.22267	-1
1.22633	-1
1.23000	-2
1.23367	-2
1.23733	-2
1.24100	-2
1.24467	-2
1.24833	-2
1.25200	-2
1.25567	-2
1.25933	-2
1.26300	-2
1.26667	-2
1.27033	-2
1.27400	-2
1.27767	-2
1.28133	-2
1.28500	-2
1.28867	-1
1.29233	-1
1.29600	-1
1.29967	-1
1.30333	-2
1.30700	-2
1.31067	-2
1.31433	-3
1.31800	-3
1.32167	-4
1.32533	-4
1.32900	-4
1.33267	-4
1.33633	-4
1.34000	-4
1.34367	-3
1.34733	-3
1.35100	-3
1.35467	-3
1.35833	-3
1.36200	-3
1.36567	-3
1.36933	-2
1.37300	-2
1.37667	-1
1.38033	-1
1.38400	-1
1.38767	-1
1.39133	-1
1.39500	-0
1.39867	-0
1.40233	-0
1.40600	-0
1.40967	-1
1.41333	-1
1.41700	-1
1.42067	-1
1.42433	-1
1.42800	-2
1.43167	-2
1.43533	-2
1.43900	-2
1.44267	-2
1.44633	-2
1.45000	-2
1.45367	-1
1.45733	-1
1.46100	-1
1.46467	-1
1.46833	-2
1.47200	-2
1.47567	-2
1.47933	-2
1.48300	-3
1.48667	-3
1.49033	-3
1.49400	-4
1.49767	-4
1.50133	-4
1.50500	-3
1.50867	-3
1.51233	-3
1.51600	-3
1.51967	-3
1.52333	-2
1.52700	-2
1.53067	-2
1.53433	-2
1.53800	-2
1.54167	-2
1.54533	-2
1.54900	-2
1.55267	-2
1.55633	-2
1.56000	-2
1.56367	-2
1.56733	-2
1.57100	-1
1.57467	-1
1.57833	-1
1.58200	-1
1.58567	-1
1.58933	-1
1.59300	-2
1.59667	-2
1.60033	-3
1.60400	-3
1.60767	-5
1.61133	-6
1.61500	-8
1.61867	-10
1.62233	-13
1.62600	-16
1.62967	-19
1.63333	-23
1.63700	-26
1.64067	-30
1.64433	-34
1.64800	-37
1.65167	-41
1.65533	-45
1.65900	-49
1.66267	-53
1.66633	-57
1.67000	-62
1.67367	-67
1.67733	-72
1.68100	-78
1.68467	-82
1.68833	-87
1.69200	-91
1.69567	-94
1.69933	-97
1.70300	-100
1.70667	-102
1.71033	-103
1.71400	-104
1.71767	-105
1.72133	-105
1.72500	-106
1.72867	-106
1.73233	-107
1.73600	-107
1.73967	-107
1.74333	-108
1.74700	-108
1.75067	-108
1.75433	-108
1.75800	-108
1.76167	-108
1.76533	-108
1.76900	-108
1.77267	-109
1.77633	-109
1.78000	-110
1.78367	-110
1.78733	-111
1.79100	-111
1.79467	-112
1.79833	-112
1.80200	-112
1.80567	-112
1.80933	-112
1.81300	-112
1.81667	-112
1.82033	-112
1.82400	-112
1.82767	-113
1.83133	-113
1.83500	-114
1.83867	-115
1.84233	-115
1.84600	-116
1.84967	-116
1.85333	-117
1.85700	-117
1.86067	-117
1.86433	-116
1.86800	-115
1.87167	-115
1.87533	-114
1.87900	-114
1.88267	-113
1.88633	-113
1.89000	-113
1.89367	-113
1.89733	-113
1.90100	-113
1.90467	-112
1.90833	-112
1.91200	-112
1.91567	-112
1.91933	-112
1.92300	-112
1.92667	-112
1.93033	-112
1.93400	-112
1.93767	-111
1.94133	-111
1.94500	-111
1.94867	-111
1.95233	-111
1.95600	-111
1.95967	-111
1.96333	-110
1.96700	-110
1.97067	-110
1.97433	-110
1.97800	-110
1.98167	-110
1.98533	-110
1.98900	-110
1.99267	-110
1.99633	-110
2.00000	-110
2.00367	-110
2.00733	-109
2.01100	-109
2.01467	-108
2.01833	-108
2.02200	-108
2.02567	-107
2.02933	-107
2.03300	-107
2.03667	-107
2.04033	-106
2.04400	-105
2.04767	-105
2.05133	-104
2.05500	-103
2.05867	-103
2.06233	-102
2.06600	-102
2.06967	-101
2.07333	-101
2.07700	-101
2.08067	-101
2.08433	-100
2.08800	-100
2.09167	-99
2.09533	-99
2.09900	-98
2.10267	-97
2.10633	-97
2.11000	-97
2.11367	-96
2.11733	-97
2.12100	-97
2.12467	-97
2.12833	-97
2.13200	-96
2.13567	-96
2.13933	-95
2.14300	-94
2.14667	-94
2.15033	-93
2.15400	-93
2.15767	-92
2.16133	-92
2.16500	-92
2.16867	-91
2.17233	-91
2.17600	-91
2.17967	-90
2.18333	-90
2.18700	-89
2.19067	-89
2.19433	-89
2.19800	-89
2.20167	-89
2.20533	-89
2.20900	-89
2.21267	-89
2.21633	-88
2.22000	-88
2.22367	-87
2.22733	-87
2.23100	-87
2.23467	-86
2.23833	-86
2.24200	-86
2.24567	-86
2.24933	-86
2.25300	-86
2.25667	-86
2.26033	-85
2.26400	-85
2.26767	-85
2.27133	-85
2.27500	-85
2.27867	-85
2.28233	-85
2.28600	-84
2.28967	-84
2.29333	-85
2.29700	-85
2.30067	-86
2.30433	-85
2.30800	-85
2.31167	-84
2.31533	-83
2.31900	-81
2.32267	-80
2.32633	-78
2.33000	-77
2.33367	-76
2.33733	-76
2.34100	-76
2.34467	-76
2.34833	-76
2.35200	-76
2.35567	-76
2.35933	-76
2.36300	-75
2.36667	-74
2.37033	-73
2.37400	-70
2.37767	-67
2.38133	-63
2.38500	-59
2.38867	-54
2.39233	-49
2.39600	-45
2.39967	-40
2.40333	-35
2.40700	-31
2.41067	-27
2.41433	-23
2.41800	-20
2.42167	-18
2.42533	-16
2.42900	-14
2.43267	-13
2.43633	-11
2.44000	-10
2.44367	-9
2.44733	-8
2.45100	-7
2.45467	-6
2.45833	-4
2.46200	-3
2.46567	-2
2.46933	-2
2.47300	-1
2.47667	-0
2.48033	1
2.48400	2
2.48767	3
2.49133	4
2.49500	6
2.49867	7
2.50233	7
2.50600	7
2.50967	7
2.51333	7
2.51700	7
2.52067	7
2.52433	8
2.52800	9
2.53167	9
2.53533	10
2.53900	11
2.54267	12
2.54633	12
2.55000	13
2.55367	14
2.55733	14
2.56100	15
2.56467	15
2.56833	15
2.57200	15
2.57567	14
2.57933	15
2.58300	15
2.58667	15
2.59033	15
2.59400	15
2.59767	15
2.60133	16
2.60500	16
2.60867	16
2.61233	17
2.61600	17
2.61967	18
2.62333	18
2.62700	18
2.63067	18
2.63433	18
2.63800	18
2.64167	18
2.64533	17
2.64900	17
2.65267	17
2.65633	18
2.66000	18
2.66367	18
2.66733	18
2.67100	18
2.67467	19
2.67833	19
2.68200	19
2.68567	20
2.68933	20
2.69300	21
2.69667	21
2.70033	22
2.70400	23
2.70767	24
2.71133	25
2.71500	25
2.71867	25
2.72233	25
2.72600	25
2.72967	25
2.73333	24
2.73700	24
2.74067	24
2.74433	24
2.74800	25
2.75167	25
2.75533	25
2.75900	26
2.76267	26
2.76633	26
2.77000	26
2.77367	26
2.77733	26
2.78100	26
2.78467	26
2.78833	26
2.79200	27
2.79567	27
2.79933	27
2.80300	26
2.80667	26
2.81033	27
2.81400	27
2.81767	27
2.82133	27
2.82500	27
2.82867	27
2.83233	27
2.83600	27
2.83967	26
2.84333	24
2.84700	20
2.85067	14
2.85433	6
2.85800	-7
2.86167	-23
2.86533	-43
2.86900	-67
2.87267	-96
2.87633	-130
2.88000	-167
2.88367	-208
2.88733	-253
2.89100	-301
2.89467	-351
2.89833	-403
2.90200	-457
2.90567	-511
2.90933	-566
2.91300	-621
2.91667	-676
2.92033	-730
2.92400	-782
2.92767	-834
2.93133	-885
2.93500	-942
2.93867	-1000
2.94233	-1053
2.94600	-1088
2.94967	-1099
2.95333	-1085
2.95700	-1046
2.96067	-989
2.96433	-919
2.96800	-842
2.97167	-761
2.97533	-681
2.97900	-604
2.98267	-531
2.98633	-464
2.99000	-403
2.99367	-348
2.99733	-300
3.00100	-257
3.00467	-219
3.00833	-186
3.01200	-157
3.01567	-132
3.01933	-111
3.02300	-93
3.02667	-77
3.03033	-63
3.03400	-52
3.03767	-42
3.04133	-34
3.04500	-27
3.04867	-21
3.05233	-16
3.05600	-12
3.05967	-8
3.06333	-5
3.06700	-2
3.07067	0
3.07433	2
3.07800	5
3.08167	6
3.08533	8
3.08900	10
3.09267	11
3.09633	12
3.10000	13
3.10367	14
3.10733	14
3.11100	15
3.11467	15
3.11833	16
3.12200	16
3.12567	16
3.12933	16
3.13300	17
3.13667	17
3.14033	17
3.14400	18
3.14767	18
3.15133	18
3.15500	18
3.15867	18
3.16233	19
3.16600	19
3.16967	19
3.17333	19
3.17700	19
3.18067	19
3.18433	19
3.18800	19
3.19167	19
3.19533	20
3.19900	20
3.20267	20
3.20633	20
3.21000	20
3.21367	21
3.21733	21
3.22100	22
3.22467	22
3.22833	22
3.23200	23
3.23567	23
3.23933	23
3.24300	23
3.24667	23
3.25033	23
3.25400	23
3.25767	24
3.26133	24
3.26500	23
3.26867	23
3.27233	23
3.27600	23
3.27967	23
3.28333	24
3.28700	24
3.29067	25
3.29433	25
3.29800	26
3.30167	26
3.30533	26
3.30900	27
3.31267	27
3.31633	28
3.32000	28
3.32367	28
3.32733	28
3.33100	28
3.33467	29
3.33833	29
3.34200	29
3.34567	29
3.34933	29
3.35300	29
3.35667	29
3.36033	29
3.36400	29
3.36767	29
3.37133	29
3.37500	30
3.37867	30
3.38233	30
3.38600	30
3.38967	30
3.39333	30
3.39700	30
3.40067	29
3.40433	29
3.40800	29
3.41167	29
3.41533	29
3.41900	29
3.42267	29
3.42633	29
3.43000	29
3.43367	29
3.43733	29
3.44100	29
3.44467	29
3.44833	29
3.45200	29
3.45567	29
3.45933	29
3.46300	29
3.46667	29
3.47033	29
3.47400	29
3.47767	29
3.48133	28
3.48500	28
3.48867	28
3.49233	28
3.49600	28
3.49967	28
3.50333	27
3.50700	27
3.51067	27
3.51433	27
3.51800	27
3.52167	27
3.52533	27
3.52900	27
3.53267	27
3.53633	27
3.54000	27
3.54367	27
3.54733	27
3.55100	27
3.55467	26
3.55833	26
3.56200	26
3.56567	26
3.56933	26
3.57300	27
3.57667	27
3.58033	27
3.58400	27
3.58767	27
3.59133	27
3.59500	26
3.59867	26
3.60233	25
3.60600	25
3.60967	25
3.61333	25
3.61700	25
3.62067	25
3.62433	25
3.62800	25
3.63167	25
3.63533	25
3.63900	25
3.64267	25
3.64633	26
3.65000	26
3.65367	26
3.65733	26
3.66100	27
3.66467	27
3.66833	27
3.67200	28
3.67567	28
3.67933	28
3.68300	28
3.68667	29
3.69033	29
3.69400	29
3.69767	29
3.70133	29
3.70500	29
3.70867	29
3.71233	29
3.71600	29
3.71967	29
3.72333	29
3.72700	28
3.73067	28
3.73433	28
3.73800	28
3.74167	28
3.74533	28
3.74900	28
3.75267	27
3.75633	27
3.76000	27
3.76367	27
3.76733	27
3.77100	27
3.77467	27
3.77833	27
3.78200	27
3.78567	27
3.78933	26
3.79300	26
3.79667	26
3.80033	25
3.80400	25
3.80767	25
3.81133	25
3.81500	25
3.81867	25
3.82233	26
3.82600	26
3.82967	26
3.83333	26
3.83700	26
3.84067	26
3.84433	26
3.84800	26
3.85167	26
3.85533	27
3.85900	27
3.86267	27
3.86633	27
3.87000	27
3.87367	27
3.87733	27
3.88100	27
3.88467	28
3.88833	28
3.89200	28
3.89567	28
3.89933	28
3.90300	28
3.90667	28
3.91033	28
3.91400	29
3.91767	29
3.92133	29
3.92500	29
3.92867	29
3.93233	29
3.93600	29
3.93967	29
3.94333	29
3.94700	29
3.95067	29
3.95433	29
3.95800	30
3.96167	30
3.96533	30
3.96900	30
3.97267	29
3.97633	29
3.98000	29
3.98367	28
3.98733	28
3.99100	28
3.99467	28
3.99833	28

[Chromatogram (Ch3)]
Interval(msec)	220
# of Points	1091
Start Time(min)	0.002
End Time(min)	3.998
R.Time (min)	Intensity
0.00167	-1
0.00533	-1
0.00900	0
0.01267	1
0.01633	1
0.02000	3
0.02367	4
0.02733	3
0.03100	1
0.03467	2
0.03833	5
0.04200	6
0.04567	5
0.04933	4
0.05300	5
0.05667	6
0.06033	4
0.06400	4
0.06767	3
0.07133	2
0.07500	1
0.07867	3
0.08233	5
0.08600	5
0.08967	4
0.09333	3
0.09700	1
0.10067	1
0.10433	3
0.10800	6
0.11167	7
0.11533	6
0.11900	5
0.12267	5
0.12633	3
0.13000	1
0.13367	-1
0.13733	-1
0.14100	-0
0.14467	2
0.14833	3
0.15200	4
0.15567	6
0.15933	5
0.16300	5
0.16667	5
0.17033	5
0.17400	4
0.17767	3
0.18133	2
0.18500	5
0.18867	6
0.19233	7
0.19600	5
0.19967	5
0.20333	5
0.20700	5
0.21067	7
0.21433	7
0.21800	5
0.22167	4
0.22533	2
0.22900	2
0.23267	1
0.23633	1
0.24000	2
0.24367	3
0.24733	3
0.25100	4
0.25467	5
0.25833	4
0.26200	4
0.26567	4
0.26933	5
0.27300	5
0.27667	6
0.28033	7
0.28400	6
0.28767	6
0.29133	7
0.29500	7
0.29867	7
0.30233	6
0.30600	5
0.30967	6
0.31333	5
0.31700	5
0.32067	3
0.32433	4
0.32800	4
0.33167	4
0.33533	6
0.33900	8
0.34267	8
0.34633	7
0.35000	9
0.35367	8
0.35733	7
0.36100	7
0.36467	9
0.36833	10
0.37200	11
0.37567	12
0.37933	11
0.38300	8
0.38667	7
0.39033	7
0.39400	7
0.39767	6
0.40133	7
0.40500	8
0.40867	8
0.41233	7
0.41600	4
0.41967	4
0.42333	5
0.42700	6
0.43067	7
0.43433	6
0.43800	5
0.44167	5
0.44533	4
0.44900	4
0.45267	5
0.45633	5
0.46000	5
0.46367	7
0.46733	8
0.47100	7
0.47467	8
0.47833	9
0.48200	7
0.48567	5
0.48933	4
0.49300	5
0.49667	6
0.50033	6
0.50400	7
0.50767	9
0.51133	9
0.51500	8
0.51867	7
0.52233	7
0.52600	9
0.52967	12
0.53333	12
0.53700	11
0.54067	11
0.54433	10
0.54800	12
0.55167	13
0.55533	11
0.55900	9
0.56267	8
0.56633	8
0.57000	6
0.57367	6
0.57733	7
0.58100	6
0.58467	4
0.58833	4
0.59200	6
0.59567	7
0.59933	7
0.60300	5
0.60667	6
0.61033	5
0.61400	3
0.61767	3
0.62133	3
0.62500	3
0.62867	4
0.63233	3
0.63600	2
0.63967	3
0.64333	5
0.64700	4
0.65067	4
0.65433	4
0.65800	3
0.66167	3
0.66533	2
0.66900	2
0.67267	2
0.67633	3
0.68000	3
0.68367	3
0.68733	4
0.69100	3
0.69467	2
0.69833	5
0.70200	9
0.70567	9
0.70933	9
0.71300	9
0.71667	8
0.72033	10
0.72400	12
0.72767	12
0.73133	11
0.73500	10
0.73867	8
0.74233	6
0.74600	5
0.74967	6
0.75333	8
0.75700	9
0.76067	9
0.76433	8
0.76800	9
0.77167	10
0.77533	11
0.77900	11
0.78267	12
0.78633	10
0.79000	11
0.79367	12
0.79733	13
0.80100	14
0.80467	15
0.80833	15
0.81200	14
0.81567	14
0.81933	14
0.82300	13
0.82667	12
0.83033	10
0.83400	9
0.83767	10
0.84133	11
0.84500	10
0.84867	9
0.85233	9
0.85600	13
0.85967	16
0.86333	17
0.86700	14
0.87067	11
0.87433	9
0.87800	8
0.88167	7
0.88533	6
0.88900	4
0.89267	4
0.89633	5
0.90000	8
0.90367	8
0.90733	8
0.91100	9
0.91467	9
0.91833	8
0.92200	11
0.92567	14
0.92933	12
0.93300	12
0.93667	11
0.94033	8
0.94400	11
0.94767	11
0.95133	12
0.95500	14
0.95867	15
0.96233	12
0.96600	10
0.96967	8
0.97333	8
0.97700	8
0.98067	7
0.98433	7
0.98800	9
0.99167	10
0.99533	11
0.99900	10
1.00267	9
1.00633	7
1.01000	8
1.01367	9
1.01733	10
1.02100	13
1.02467	14
1.02833	11
1.03200	9
1.03567	4
1.03933	3
1.04300	4
1.04667	5
1.05033	6
1.05400	8
1.05767	10
1.06133	11
1.06500	11
1.06867	10
1.07233	10
1.07600	9
1.07967	10
1.08333	12
1.08700	12
1.09067	13
1.09433	16
1.09800	17
1.10167	19
1.10533	21
1.10900	21
1.11267	20
1.11633	19
1.12000	17
1.12367	15
1.12733	14
1.13100	13
1.13467	13
1.13833	13
1.14200	11
1.14567	10
1.14933	12
1.15300	13
1.15667	12
1.16033	13
1.16400	10
1.16767	10
1.17133	11
1.17500	12
1.17867	12
1.18233	10
1.18600	12
1.18967	15
1.19333	18
1.19700	18
1.20067	15
1.20433	13
1.20800	14
1.21167	14
1.21533	12
1.21900	13
1.22267	13
1.22633	13
1.23000	12
1.23367	12
1.23733	11
1.24100	10
1.24467	11
1.24833	10
1.25200	11
1.25567	13
1.25933	17
1.26300	19
1.26667	18
1.27033	16
1.27400	12
1.27767	12
1.28133	13
1.28500	12
1.28867	11
1.29233	11
1.29600	11
1.29967	11
1.30333	11
1.30700	12
1.31067	13
1.31433	11
1.31800	9
1.32167	12
1.32533	13
1.32900	11
1.33267	11
1.33633	12
1.34000	11
1.34367	11
1.34733	14
1.35100	16
1.35467	16
1.35833	17
1.36200	16
1.36567	15
1.36933	15
1.37300	17
1.37667	17
1.38033	15
1.38400	14
1.38767	14
1.39133	14
1.39500	16
1.39867	17
1.40233	16
1.40600	16
1.40967	15
1.41333	15
1.41700	17
1.42067	19
1.42433	19
1.42800	17
1.43167	18
1.43533	17
1.43900	17
1.44267	17
1.44633	17
1.45000	16
1.45367	15
1.45733	15
1.46100	15
1.46467	14
1.46833	14
1.47200	15
1.47567	16
1.47933	17
1.48300	18
1.48667	19
1.49033	18
1.49400	16
1.49767	15
1.50133	16
1.50500	17
1.50867	20
1.51233	22
1.51600	23
1.51967	22
1.52333	23
1.52700	24
1.53067	23
1.53433	21
1.53800	20
1.54167	22
1.54533	21
1.54900	20
1.55267	20
1.55633	20
1.56000	19
1.56367	17
1.56733	15
1.57100	14
1.57467	15
1.57833	16
1.58200	17
1.58567	17
1.58933	15
1.59300	16
1.59667	17
1.60033	18
1.60400	19
1.60767	19
1.61133	19
1.61500	19
1.61867	19
1.62233	20
1.62600	19
1.62967	19
1.63333	18
1.63700	19
1.64067	23
1.64433	24
1.64800	26
1.65167	28
1.65533	29
1.65900	30
1.66267	30
1.66633	31
1.67000	33
1.67367	32
1.67733	32
1.68100	32
1.68467	33
1.68833	33
1.69200	33
1.69567	33
1.69933	33
1.70300	31
1.70667	31
1.71033	31
1.71400	31
1.71767	34
1.72133	35
1.72500	36
1.72867	36
1.73233	37
1.73600	35
1.73967	35
1.74333	37
1.74700	37
1.75067	39
1.75433	40
1.75800	40
1.76167	40
1.76533	40
1.76900	40
1.77267	40
1.77633	41
1.78000	42
1.78367	43
1.78733	43
1.79100	42
1.79467	42
1.79833	41
1.80200	40
1.80567	40
1.80933	42
1.81300	44
1.81667	44
1.82033	45
1.82400	47
1.82767	50
1.83133	52
1.83500	53
1.83867	52
1.84233	52
1.84600	52
1.84967	53
1.85333	55
1.85700	56
1.86067	56
1.86433	55
1.86800	54
1.87167	55
1.87533	56
1.87900	57
1.88267	55
1.88633	56
1.89000	57
1.89367	60
1.89733	61
1.90100	59
1.90467	56
1.90833	56
1.91200	58
1.91567	61
1.91933	61
1.92300	63
1.92667	63
1.93033	62
1.93400	63
1.93767	64
1.94133	67
1.94500	68
1.94867	68
1.95233	69
1.95600	71
1.95967	72
1.96333	71
1.96700	71
1.97067	74
1.97433	77
1.97800	79
1.98167	81
1.98533	82
1.98900	81
1.99267	81
1.99633	80
2.00000	80
2.00367	81
2.00733	82
2.01100	83
2.01467	86
2.01833	88
2.02200	88
2.02567	88
2.02933	88
2.03300	88
2.03667	88
2.04033	90
2.04400	94
2.04767	97
2.05133	98
2.05500	97
2.05867	96
2.06233	96
2.06600	96
2.06967	96
2.07333	97
2.07700	100
2.08067	102
2.08433	106
2.08800	108
2.09167	108
2.09533	109
2.09900	110
2.10267	111
2.10633	114
2.11000	117
2.11367	118
2.11733	117
2.12100	116
2.12467	117
2.12833	120
2.13200	121
2.13567	122
2.13933	124
2.14300	126
2.14667	129
2.15033	129
2.15400	129
2.15767	131
2.16133	132
2.16500	130
2.16867	130
2.17233	131
2.17600	134
2.17967	135
2.18333	137
2.18700	141
2.19067	145
2.19433	147
2.19800	149
2.20167	149
2.20533	150
2.20900	152
2.21267	153
2.21633	154
2.22000	156
2.22367	159
2.22733	161
2.23100	164
2.23467	165
2.23833	166
2.24200	166
2.24567	167
2.24933	168
2.25300	169
2.25667	168
2.26033	170
2.26400	174
2.26767	178
2.27133	181
2.27500	185
2.27867	189
2.28233	191
2.28600	192
2.28967	191
2.29333	192
2.29700	195
2.30067	197
2.30433	196
2.30800	196
2.31167	197
2.31533	198
2.31900	200
2.32267	202
2.32633	206
2.33000	211
2.33367	215
2.33733	215
2.34100	215
2.34467	215
2.34833	217
2.35200	220
2.35567	223
2.35933	226
2.36300	228
2.36667	233
2.37033	235
2.37400	236
2.37767	238
2.38133	241
2.38500	240
2.38867	241
2.39233	242
2.39600	245
2.39967	249
2.40333	253
2.40700	259
2.41067	263
2.41433	265
2.41800	266
2.42167	267
2.42533	268
2.42900	270
2.43267	273
2.43633	275
2.44000	280
2.44367	343
2.44733	502
2.45100	672
2.45467	813
2.45833	891
2.46200	891
2.46567	840
2.46933	778
2.47300	727
2.47667	698
2.48033	677
2.48400	646
2.48767	603
2.49133	553
2.49500	502
2.49867	462
2.50233	437
2.50600	422
2.50967	415
2.51333	416
2.51700	426
2.52067	443
2.52433	462
2.52800	476
2.53167	481
2.53533	476
2.53900	460
2.54267	437
2.54633	409
2.55000	380
2.55367	354
2.55733	331
2.56100	310
2.56467	296
2.56833	284
2.57200	274
2.57567	267
2.57933	265
2.58300	267
2.58667	268
2.59033	266
2.59400	264
2.59767	260
2.60133	253
2.60500	244
2.60867	232
2.61233	218
2.61600	201
2.61967	187
2.62333	175
2.62700	168
2.63067	164
2.63433	162
2.63800	160
2.64167	158
2.64533	157
2.64900	160
2.65267	162
2.65633	159
2.66000	154
2.66367	146
2.66733	137
2.67100	130
2.67467	124
2.67833	114
2.68200	106
2.68567	100
2.68933	97
2.69300	94
2.69667	90
2.70033	84
2.70400	82
2.70767	81
2.71133	83
2.71500	85
2.71867	87
2.72233	88
2.72600	90
2.72967	91
2.73333	94
2.73700	98
2.74067	101
2.74433	105
2.74800	108
2.75167	108
2.75533	110
2.75900	114
2.76267	119
2.76633	122
2.77000	124
2.77367	126
2.77733	129
2.78100	131
2.78467	132
2.78833	133
2.79200	134
2.79567	138
2.79933	143
2.80300	148
2.80667	153
2.81033	159
2.81400	162
2.81767	168
2.82133	180
2.82500	209
2.82867	267
2.83233	371
2.83600	548
2.83967	820
2.84333	1202
2.84700	1686
2.85067	2256
2.85433	2878
2.85800	3504
2.86167	4083
2.86533	4570
2.86900	4928
2.87267	5134
2.87633	5189
2.88000	5107
2.88367	4915
2.88733	4643
2.89100	4318
2.89467	3963
2.89833	3597
2.90200	3238
2.90567	2897
2.90933	2583
2.91300	2297
2.91667	2038
2.92033	1807
2.92400	1603
2.92767	1424
2.93133	1266
2.93500	1124
2.93867	1000
2.94233	890
2.94600	795
2.94967	713
2.95333	644
2.95700	584
2.96067	532
2.96433	487
2.96800	446
2.97167	409
2.97533	378
2.97900	352
2.98267	330
2.98633	309
2.99000	289
2.99367	270
2.99733	255
3.00100	242
3.00467	232
3.00833	224
3.01200	213
3.01567	204
3.01933	198
3.02300	194
3.02667	189
3.03033	185
3.03400	183
3.03767	179
3.04133	175
3.04500	172
3.04867	171
3.05233	170
3.05600	168
3.05967	168
3.06333	168
3.06700	165
3.07067	162
3.07433	158
3.07800	157
3.08167	156
3.08533	156
3.08900	156
3.09267	157
3.09633	156
3.10000	155
3.10367	155
3.10733	156
3.11100	155
3.11467	131
3.11833	81
3.12200	32
3.12567	12
3.12933	23
3.13300	55
3.13667	103
3.14033	156
3.14400	210
3.14767	262
3.15133	311
3.15500	356
3.15867	396
3.16233	432
3.16600	467
3.16967	495
3.17333	518
3.17700	535
3.18067	552
3.18433	569
3.18800	585
3.19167	596
3.19533	603
3.19900	609
3.20267	615
3.20633	617
3.21000	620
3.21367	624
3.21733	629
3.22100	635
3.22467	639
3.22833	642
3.23200	646
3.23567	651
3.23933	655
3.24300	657
3.24667	658
3.25033	661
3.25400	664
3.25767	669
3.26133	674
3.26500	680
3.26867	684
3.27233	688
3.27600	692
3.27967	698
3.28333	702
3.28700	704
3.29067	707
3.29433	709
3.29800	714
3.30167	718
3.30533	723
3.30900	727
3.31267	730
3.31633	731
3.32000	736
3.32367	743
3.32733	748
3.33100	753
3.33467	755
3.33833	755
3.34200	757
3.34567	762
3.34933	769
3.35300	774
3.35667	777
3.36033	777
3.36400	777
3.36767	780
3.37133	782
3.37500	782
3.37867	782
3.38233	782
3.38600	782
3.38967	781
3.39333	780
3.39700	780
3.40067	781
3.40433	780
3.40800	775
3.41167	772
3.41533	771
3.41900	770
3.42267	768
3.42633	766
3.43000	763
3.43367	761
3.43733	757
3.44100	753
3.44467	748
3.44833	744
3.45200	740
3.45567	737
3.45933	735
3.46300	733
3.46667	732
3.47033	731
3.47400	727
3.47767	726
3.48133	724
3.48500	721
3.48867	719
3.49233	717
3.49600	715
3.49967	716
3.50333	715
3.50700	712
3.51067	708
3.51433	709
3.51800	707
3.52167	705
3.52533	704
3.52900	702
3.53267	699
3.53633	699
3.54000	700
3.54367	700
3.54733	698
3.55100	700
3.55467	701
3.55833	700
3.56200	700
3.56567	701
3.56933	702
3.57300	705
3.57667	705
3.58033	704
3.58400	703
3.58767	702
3.59133	700
3.59500	701
3.59867	701
3.60233	702
3.60600	705
3.60967	708
3.61333	709
3.61700	710
3.62067	710
3.62433	708
3.62800	704
3.63167	701
3.63533	699
3.63900	700
3.64267	700
3.64633	701
3.65000	701
3.65367	702
3.65733	704
3.66100	702
3.66467	699
3.66833	699
3.67200	699
3.67567	699
3.67933	697
3.68300	694
3.68667	692
3.69033	693
3.69400	695
3.69767	696
3.70133	695
3.70500	695
3.70867	692
3.71233	690
3.71600	688
3.71967	687
3.72333	688
3.72700	688
3.73067	689
3.73433	692
3.73800	693
3.74167	692
3.74533	692
3.74900	690
3.75267	690
3.75633	692
3.76000	693
3.76367	692
3.76733	690
3.77100	689
3.77467	687
3.77833	687
3.78200	686
3.78567	684
3.78933	683
3.79300	683
3.79667	685
3.80033	686
3.80400	686
3.80767	684
3.81133	680
3.81500	679
3.81867	676
3.82233	674
3.82600	674
3.82967	672
3.83333	670
3.83700	668
3.84067	665
3.84433	663
3.84800	661
3.85167	658
3.85533	656
3.85900	656
3.86267	657
3.86633	657
3.87000	656
3.87367	653
3.87733	650
3.88100	648
3.88467	646
3.88833	645
3.89200	644
3.89567	642
3.89933	641
3.90300	639
3.90667	638
3.91033	637
3.91400	634
3.91767	633
3.92133	634
3.92500	631
3.92867	626
3.93233	625
3.93600	625
3.93967	625
3.94333	624
3.94700	621
3.95067	619
3.95433	618
3.95800	616
3.96167	614
3.96533	612
3.96900	610
3.97267	610
3.97633	610
3.98000	609
3.98367	608
3.98733	606
3.99100	606
3.99467	607
3.99833	604

[Status Trace (Column Oven Temperature)]
Interval(msec)	1000
# of Points	240
Start Time(min)	0.007
End Time(min)	3.991
Intensity Units	
Intensity Multiplier	1
R.Time (min)	Intensity
0.00728	35.06
0.02395	35.06
0.04062	35.06
0.05728	35.06
0.07395	35.06
0.09062	35.06
0.10728	35.06
0.12395	35.06
0.14062	35.05
0.15728	35.06
0.17395	35.06
0.19062	35.05
0.20728	35.05
0.22395	35.04
0.24062	35.05
0.25728	35.04
0.27395	35.04
0.29062	35.02
0.30728	35.00
0.32395	34.99
0.34062	34.98
0.35728	34.99
0.37395	35.00
0.39062	35.01
0.40728	35.01
0.42395	35.01
0.44062	35.02
0.45728	35.02
0.47395	35.00
0.49062	34.99
0.50728	34.99
0.52395	34.98
0.54062	34.99
0.55728	35.00
0.57395	35.01
0.59062	35.02
0.60728	35.03
0.62395	35.03
0.64062	35.02
0.65728	35.02
0.67395	35.03
0.69062	35.03
0.70728	35.02
0.72395	35.00
0.74062	35.00
0.75728	35.00
0.77395	34.99
0.79062	35.01
0.80728	35.02
0.82395	35.03
0.84062	35.02
0.85728	35.02
0.87395	35.01
0.89062	35.00
0.90728	34.98
0.92395	34.98
0.94062	34.98
0.95728	34.98
0.97395	34.99
0.99062	35.00
1.00728	35.00
1.02395	34.99
1.04062	35.01
1.05728	35.01
1.07395	35.02
1.09062	35.01
1.10728	35.00
1.12395	34.99
1.14062	34.98
1.15728	34.98
1.17395	34.97
1.19062	34.97
1.20728	34.97
1.22395	34.96
1.24062	34.96
1.25728	34.97
1.27395	34.97
1.29062	34.97
1.30728	34.98
1.32395	35.00
1.34062	35.00
1.35728	34.99
1.37395	34.98
1.39062	34.97
1.40728	34.98
1.42395	34.98
1.44062	34.99
1.45728	34.99
1.47395	35.00
1.49062	35.00
1.50728	35.00
1.52395	35.00
1.54062	35.01
1.55728	35.01
1.57395	35.00
1.59062	35.01
1.60728	35.05
1.62395	35.17
1.64062	35.35
1.65728	35.60
1.67395	35.95
1.69062	36.32
1.70728	36.68
1.72395	37.01
1.74062	37.35
1.75728	37.65
1.77395	37.99
1.79062	38.33
1.80728	38.66
1.82395	38.99
1.84062	39.34
1.85728	39.67
1.87395	39.99
1.89062	40.32
1.90728	40.65
1.92395	40.97
1.94062	41.30
1.95728	41.63
1.97395	41.96
1.99062	42.28
2.00728	42.62
2.02395	42.94
2.04062	43.27
2.05728	43.60
2.07395	43.92
2.09062	44.25
2.10728	44.56
2.12395	44.90
2.14062	45.21
2.15728	45.52
2.17395	45.85
2.19062	46.17
2.20728	46.51
2.22395	46.83
2.24062	47.15
2.25728	47.48
2.27395	47.81
2.29062	48.16
2.30728	48.52
2.32395	48.81
2.34062	49.14
2.35728	49.44
2.37395	49.63
2.39062	49.69
2.40728	49.68
2.42395	49.69
2.44062	49.69
2.45728	49.70
2.47395	49.73
2.49062	49.71
2.50728	49.76
2.52395	49.77
2.54062	49.78
2.55728	49.79
2.57395	49.81
2.59062	49.82
2.60728	49.82
2.62395	49.82
2.64062	49.83
2.65728	49.85
2.67395	49.86
2.69062	49.85
2.70728	49.83
2.72395	49.85
2.74062	49.86
2.75728	49.86
2.77395	49.86
2.79062	49.86
2.80728	49.86
2.82395	49.86
2.84062	49.87
2.85728	49.89
2.87395	49.91
2.89062	49.92
2.90728	49.92
2.92395	49.94
2.94062	49.96
2.95728	49.98
2.97395	50.00
2.99062	50.01
3.00728	50.02
3.02395	50.03
3.04062	50.04
3.05728	50.04
3.07395	50.04
3.09062	50.04
3.10728	50.04
3.12395	50.05
3.14062	50.06
3.15728	50.06
3.17395	50.08
3.19062	50.09
3.20728	50.10
3.22395	50.09
3.24062	50.10
3.25728	50.10
3.27395	50.11
3.29062	50.11
3.30728	50.10
3.32395	50.08
3.34062	50.06
3.35728	50.06
3.37395	50.05
3.39062	50.04
3.40728	50.02
3.42395	50.02
3.44062	50.01
3.45728	50.01
3.47395	50.00
3.49062	50.01
3.50728	50.02
3.52395	50.01
3.54062	50.01
3.55728	50.02
3.57395	50.01
3.59062	50.03
3.60728	50.04
3.62395	50.05
3.64062	50.05
3.65728	50.04
3.67395	50.04
3.69062	50.03
3.70728	50.02
3.72395	50.03
3.74062	50.03
3.75728	50.04
3.77395	50.05
3.79062	50.05
3.80728	50.06
3.82395	50.06
3.84062	50.06
3.85728	50.06
3.87395	50.06
3.89062	50.05
3.90728	50.04
3.92395	50.03
3.94062	50.02
3.95728	50.01
3.97395	50.02
3.99062	50.03

[Status Trace (Injection Unit Temperature)]
Interval(msec)	1000
# of Points	240
Start Time(min)	0.007
End Time(min)	3.991
Intensity Units	
Intensity Multiplier	1
R.Time (min)	Intensity
0.00728	99.98
0.02395	99.98
0.04062	99.98
0.05728	99.98
0.07395	99.98
0.09062	99.98
0.10728	99.99
0.12395	99.98
0.14062	99.98
0.15728	99.98
0.17395	99.98
0.19062	99.98
0.20728	99.99
0.22395	99.99
0.24062	99.98
0.25728	99.99
0.27395	99.99
0.29062	99.99
0.30728	99.98
0.32395	99.98
0.34062	99.98
0.35728	99.99
0.37395	99.99
0.39062	99.99
0.40728	99.99
0.42395	99.99
0.44062	99.99
0.45728	99.99
0.47395	99.98
0.49062	99.98
0.50728	99.98
0.52395	99.98
0.54062	99.99
0.55728	99.98
0.57395	99.98
0.59062	99.98
0.60728	99.99
0.62395	99.98
0.64062	99.99
0.65728	99.98
0.67395	99.99
0.69062	99.99
0.70728	99.98
0.72395	99.98
0.74062	99.98
0.75728	99.99
0.77395	99.99
0.79062	99.98
0.80728	99.98
0.82395	99.99
0.84062	99.99
0.85728	99.98
0.87395	99.98
0.89062	99.98
0.90728	99.98
0.92395	99.98
0.94062	99.98
0.95728	99.98
0.97395	99.98
0.99062	99.98
1.00728	99.98
1.02395	99.98
1.04062	99.98
1.05728	99.98
1.07395	99.98
1.09062	99.98
1.10728	99.98
1.12395	99.98
1.14062	99.98
1.15728	99.98
1.17395	99.98
1.19062	99.98
1.20728	99.98
1.22395	99.98
1.24062	99.98
1.25728	99.98
1.27395	99.98
1.29062	99.99
1.30728	99.98
1.32395	99.98
1.34062	99.99
1.35728	99.98
1.37395	99.98
1.39062	99.98
1.40728	99.98
1.42395	99.98
1.44062	99.99
1.45728	99.98
1.47395	99.99
1.49062	99.98
1.50728	99.99
1.52395	99.99
1.54062	99.98
1.55728	99.98
1.57395	99.98
1.59062	99.98
1.60728	99.99
1.62395	99.99
1.64062	99.99
1.65728	99.98
1.67395	99.99
1.69062	99.98
1.70728	99.98
1.72395	99.98
1.74062	99.98
1.75728	99.98
1.77395	99.98
1.79062	99.98
1.80728	99.98
1.82395	99.98
1.84062	99.98
1.85728	99.98
1.87395	99.98
1.89062	99.98
1.90728	99.97
1.92395	99.97
1.94062	99.98
1.95728	99.97
1.97395	99.97
1.99062	99.97
2.00728	99.97
2.02395	99.97
2.04062	99.97
2.05728	99.97
2.07395	99.97
2.09062	99.97
2.10728	99.97
2.12395	99.97
2.14062	99.96
2.15728	99.97
2.17395	99.96
2.19062	99.96
2.20728	99.97
2.22395	99.96
2.24062	99.96
2.25728	99.96
2.27395	99.97
2.29062	99.96
2.30728	99.97
2.32395	99.96
2.34062	99.97
2.35728	99.96
2.37395	99.96
2.39062	99.96
2.40728	99.96
2.42395	99.97
2.44062	99.96
2.45728	99.96
2.47395	99.96
2.49062	99.97
2.50728	99.97
2.52395	99.97
2.54062	99.97
2.55728	99.97
2.57395	99.98
2.59062	99.97
2.60728	99.98
2.62395	99.98
2.64062	99.97
2.65728	99.98
2.67395	99.99
2.69062	99.98
2.70728	99.99
2.72395	99.99
2.74062	99.99
2.75728	99.99
2.77395	99.99
2.79062	99.99
2.80728	100.00
2.82395	100.00
2.84062	100.00
2.85728	100.00
2.87395	100.00
2.89062	100.00
2.90728	100.00
2.92395	100.01
2.94062	100.01
2.95728	100.01
2.97395	100.01
2.99062	100.01
3.00728	100.01
3.02395	100.02
3.04062	100.01
3.05728	100.02
3.07395	100.02
3.09062	100.02
3.10728	100.02
3.12395	100.02
3.14062	100.02
3.15728	100.02
3.17395	100.02
3.19062	100.03
3.20728	100.03
3.22395	100.03
3.24062	100.03
3.25728	100.03
3.27395	100.03
3.29062	100.03
3.30728	100.03
3.32395	100.03
3.34062	100.03
3.35728	100.04
3.37395	100.04
3.39062	100.03
3.40728	100.04
3.42395	100.03
3.44062	100.04
3.45728	100.04
3.47395	100.04
3.49062	100.04
3.50728	100.04
3.52395	100.04
3.54062	100.04
3.55728	100.04
3.57395	100.04
3.59062	100.05
3.60728	100.04
3.62395	100.05
3.64062	100.04
3.65728	100.04
3.67395	100.04
3.69062	100.04
3.70728	100.05
3.72395	100.04
3.74062	100.05
3.75728	100.05
3.77395	100.05
3.79062	100.05
3.80728	100.05
3.82395	100.05
3.84062	100.05
3.85728	100.05
3.87395	100.05
3.89062	100.05
3.90728	100.05
3.92395	100.05
3.94062	100.05
3.95728	100.05
3.97395	100.04
3.99062	100.04

[Status Trace (Carrier Gas Pressure)]
Interval(msec)	1000
# of Points	240
Start Time(min)	0.007
End Time(min)	3.991
Intensity Units	
Intensity Multiplier	1
R.Time (min)	Intensity
0.00728	58.00
0.02395	55.46
0.04062	57.06
0.05728	59.13
0.07395	59.51
0.09062	58.08
0.10728	57.98
0.12395	58.01
0.14062	58.01
0.15728	58.01
0.17395	58.00
0.19062	58.00
0.20728	58.00
0.22395	58.00
0.24062	58.00
0.25728	58.00
0.27395	58.00
0.29062	58.00
0.30728	58.00
0.32395	58.00
0.34062	58.00
0.35728	58.00
0.37395	58.00
0.39062	58.00
0.40728	58.00
0.42395	58.00
0.44062	58.00
0.45728	58.00
0.47395	58.00
0.49062	58.00
0.50728	58.00
0.52395	58.00
0.54062	58.00
0.55728	58.00
0.57395	58.00
0.59062	58.00
0.60728	58.00
0.62395	58.00
0.64062	58.00
0.65728	58.00
0.67395	58.00
0.69062	58.00
0.70728	58.00
0.72395	58.00
0.74062	58.00
0.75728	58.00
0.77395	58.00
0.79062	58.00
0.80728	58.00
0.82395	58.00
0.84062	58.00
0.85728	58.00
0.87395	58.00
0.89062	58.00
0.90728	58.00
0.92395	58.00
0.94062	58.00
0.95728	58.00
0.97395	58.00
0.99062	58.00
1.00728	58.00
1.02395	58.00
1.04062	58.00
1.05728	58.00
1.07395	58.00
1.09062	58.00
1.10728	58.00
1.12395	58.00
1.14062	58.00
1.15728	58.00
1.17395	58.00
1.19062	58.00
1.20728	58.00
1.22395	58.00
1.24062	58.00
1.25728	58.00
1.27395	58.00
1.29062	58.00
1.30728	58.00
1.32395	58.00
1.34062	58.00
1.35728	58.00
1.37395	58.00
1.39062	58.00
1.40728	58.00
1.42395	58.00
1.44062	58.00
1.45728	58.00
1.47395	58.00
1.49062	58.00
1.50728	58.00
1.52395	58.00
1.54062	58.00
1.55728	58.00
1.57395	58.00
1.59062	58.00
1.60728	58.00
1.62395	58.00
1.64062	58.00
1.65728	58.00
1.67395	58.01
1.69062	58.00
1.70728	58.00
1.72395	58.00
1.74062	58.00
1.75728	58.00
1.77395	58.00
1.79062	58.00
1.80728	58.00
1.82395	58.00
1.84062	58.00
1.85728	58.00
1.87395	58.00
1.89062	58.00
1.90728	58.00
1.92395	58.00
1.94062	58.00
1.95728	58.00
1.97395	58.00
1.99062	58.00
2.00728	58.00
2.02395	58.00
2.04062	58.00
2.05728	58.00
2.07395	58.00
2.09062	58.00
2.10728	58.00
2.12395	58.00
2.14062	58.00
2.15728	58.00
2.17395	58.00
2.19062	58.00
2.20728	58.00
2.22395	58.00
2.24062	58.00
2.25728	58.00
2.27395	58.00
2.29062	58.00
2.30728	58.00
2.32395	58.00
2.34062	58.00
2.35728	58.00
2.37395	57.99
2.39062	57.99
2.40728	57.99
2.42395	58.00
2.44062	58.00
2.45728	58.00
2.47395	58.00
2.49062	58.00
2.50728	58.00
2.52395	57.99
2.54062	58.00
2.55728	58.00
2.57395	58.00
2.59062	58.00
2.60728	58.00
2.62395	58.00
2.64062	58.00
2.65728	58.00
2.67395	58.00
2.69062	58.00
2.70728	58.00
2.72395	58.00
2.74062	58.00
2.75728	58.00
2.77395	58.00
2.79062	58.00
2.80728	58.00
2.82395	58.00
2.84062	58.00
2.85728	58.00
2.87395	58.00
2.89062	58.00
2.90728	58.00
2.92395	58.00
2.94062	58.00
2.95728	58.00
2.97395	58.00
2.99062	58.00
3.00728	58.00
3.02395	58.00
3.04062	58.00
3.05728	58.00
3.07395	58.00
3.09062	58.00
3.10728	58.00
3.12395	58.00
3.14062	58.00
3.15728	58.00
3.17395	58.00
3.19062	58.00
3.20728	58.00
3.22395	58.00
3.24062	58.00
3.25728	58.00
3.27395	58.00
3.29062	58.00
3.30728	58.00
3.32395	58.00
3.34062	58.00
3.35728	58.00
3.37395	58.00
3.39062	58.00
3.40728	58.00
3.42395	58.00
3.44062	58.00
3.45728	58.00
3.47395	58.00
3.49062	58.00
3.50728	58.00
3.52395	58.00
3.54062	58.00
3.55728	58.00
3.57395	58.00
3.59062	58.00
3.60728	58.00
3.62395	58.00
3.64062	58.00
3.65728	58.00
3.67395	58.00
3.69062	58.00
3.70728	58.00
3.72395	58.00
3.74062	58.00
3.75728	58.00
3.77395	58.00
3.79062	58.00
3.80728	58.00
3.82395	58.00
3.84062	58.00
3.85728	58.00
3.87395	58.00
3.89062	58.00
3.90728	58.00
3.92395	58.00
3.94062	58.00
3.95728	58.00
3.97395	58.00
3.99062	58.00

[Status Trace (Carrier Gas Flow)]
Interval(msec)	1000
# of Points	240
Start Time(min)	0.007
End Time(min)	3.991
Intensity Units	
Intensity Multiplier	1
R.Time (min)	Intensity
0.00728	34.52
0.02395	34.53
0.04062	34.54
0.05728	34.54
0.07395	34.50
0.09062	34.51
0.10728	34.52
0.12395	34.52
0.14062	34.52
0.15728	34.52
0.17395	34.52
0.19062	34.51
0.20728	34.52
0.22395	34.52
0.24062	34.52
0.25728	34.52
0.27395	34.51
0.29062	34.52
0.30728	34.52
0.32395	34.52
0.34062	34.52
0.35728	34.51
0.37395	34.52
0.39062	34.52
0.40728	34.51
0.42395	34.52
0.44062	34.52
0.45728	34.52
0.47395	34.51
0.49062	34.51
0.50728	34.52
0.52395	34.52
0.54062	34.52
0.55728	34.51
0.57395	34.52
0.59062	34.52
0.60728	34.52
0.62395	34.52
0.64062	34.53
0.65728	34.52
0.67395	34.52
0.69062	34.52
0.70728	34.52
0.72395	34.51
0.74062	34.52
0.75728	34.52
0.77395	34.52
0.79062	34.51
0.80728	34.52
0.82395	34.52
0.84062	34.52
0.85728	34.52
0.87395	34.52
0.89062	34.51
0.90728	34.52
0.92395	34.52
0.94062	34.52
0.95728	34.52
0.97395	34.52
0.99062	34.52
1.00728	34.52
1.02395	34.52
1.04062	34.52
1.05728	34.52
1.07395	34.51
1.09062	34.52
1.10728	34.52
1.12395	34.52
1.14062	34.52
1.15728	34.52
1.17395	34.52
1.19062	34.52
1.20728	34.52
1.22395	34.52
1.24062	34.52
1.25728	34.52
1.27395	34.52
1.29062	34.52
1.30728	34.51
1.32395	34.51
1.34062	34.52
1.35728	34.52
1.37395	34.52
1.39062	34.51
1.40728	34.51
1.42395	34.51
1.44062	34.52
1.45728	34.52
1.47395	34.52
1.49062	34.52
1.50728	34.52
1.52395	34.52
1.54062	34.51
1.55728	34.52
1.57395	34.52
1.59062	34.52
1.60728	34.52
1.62395	34.52
1.64062	34.53
1.65728	34.53
1.67395	34.52
1.69062	34.52
1.70728	34.52
1.72395	34.52
1.74062	34.52
1.75728	34.53
1.77395	34.52
1.79062	34.51
1.80728	34.51
1.82395	34.53
1.84062	34.51
1.85728	34.53
1.87395	34.52
1.89062	34.52
1.90728	34.52
1.92395	34.52
1.94062	34.52
1.95728	34.52
1.97395	34.52
1.99062	34.52
2.00728	34.52
2.02395	34.52
2.04062	34.53
2.05728	34.52
2.07395	34.52
2.09062	34.52
2.10728	34.51
2.12395	34.52
2.14062	34.52
2.15728	34.52
2.17395	34.52
2.19062	34.51
2.20728	34.51
2.22395	34.51
2.24062	34.52
2.25728	34.51
2.27395	34.52
2.29062	34.52
2.30728	34.52
2.32395	34.52
2.34062	34.52
2.35728	34.52
2.37395	34.52
2.39062	34.52
2.40728	34.52
2.42395	34.52
2.44062	34.52
2.45728	34.52
2.47395	34.52
2.49062	34.52
2.50728	34.34
2.52395	34.52
2.54062	34.52
2.55728	34.51
2.57395	34.52
2.59062	34.52
2.60728	34.52
2.62395	34.52
2.64062	34.52
2.65728	34.52
2.67395	34.51
2.69062	34.52
2.70728	34.52
2.72395	34.52
2.74062	34.52
2.75728	34.51
2.77395	34.52
2.79062	34.52
2.80728	34.52
2.82395	34.52
2.84062	34.52
2.85728	34.52
2.87395	34.52
2.89062	34.52
2.90728	34.52
2.92395	34.52
2.94062	34.52
2.95728	34.52
2.97395	34.52
2.99062	34.52
3.00728	34.52
3.02395	34.51
3.04062	34.51
3.05728	34.52
3.07395	34.52
3.09062	34.52
3.10728	34.52
3.12395	34.52
3.14062	34.52
3.15728	34.52
3.17395	34.52
3.19062	34.51
3.20728	34.52
3.22395	34.51
3.24062	34.52
3.25728	34.52
3.27395	34.52
3.29062	34.52
3.30728	34.51
3.32395	34.52
3.34062	34.52
3.35728	34.52
3.37395	34.52
3.39062	34.52
3.40728	34.51
3.42395	34.51
3.44062	34.52
3.45728	34.51
3.47395	34.52
3.49062	34.52
3.50728	34.52
3.52395	34.52
3.54062	34.52
3.55728	34.52
3.57395	34.52
3.59062	34.52
3.60728	34.52
3.62395	34.52
3.64062	34.52
3.65728	34.52
3.67395	34.52
3.69062	34.52
3.70728	34.52
3.72395	34.52
3.74062	34.52
3.75728	34.52
3.77395	34.52
3.79062	34.52
3.80728	34.52
3.82395	34.52
3.84062	34.52
3.85728	34.52
3.87395	34.52
3.89062	34.52
3.90728	34.52
3.92395	34.51
3.94062	34.52
3.95728	34.52
3.97395	34.51
3.99062	34.52

[Status Trace (Column Flow)]
Interval(msec)	1000
# of Points	240
Start Time(min)	0.007
End Time(min)	3.991
Intensity Units	
Intensity Multiplier	1
R.Time (min)	Intensity
0.00728	5.52
0.02395	5.23
0.04062	5.41
0.05728	5.65
0.07395	5.70
0.09062	5.53
0.10728	5.52
0.12395	5.52
0.14062	5.52
0.15728	5.52
0.17395	5.52
0.19062	5.52
0.20728	5.52
0.22395	5.52
0.24062	5.52
0.25728	5.52
0.27395	5.52
0.29062	5.52
0.30728	5.52
0.32395	5.52
0.34062	5.52
0.35728	5.52
0.37395	5.52
0.39062	5.52
0.40728	5.52
0.42395	5.52
0.44062	5.52
0.45728	5.52
0.47395	5.52
0.49062	5.52
0.50728	5.52
0.52395	5.52
0.54062	5.52
0.55728	5.52
0.57395	5.52
0.59062	5.52
0.60728	5.52
0.62395	5.52
0.64062	5.52
0.65728	5.52
0.67395	5.52
0.69062	5.52
0.70728	5.52
0.72395	5.52
0.74062	5.52
0.75728	5.52
0.77395	5.52
0.79062	5.52
0.80728	5.52
0.82395	5.52
0.84062	5.52
0.85728	5.52
0.87395	5.52
0.89062	5.52
0.90728	5.52
0.92395	5.52
0.94062	5.52
0.95728	5.52
0.97395	5.52
0.99062	5.52
1.00728	5.52
1.02395	5.52
1.04062	5.52
1.05728	5.52
1.07395	5.52
1.09062	5.52
1.10728	5.52
1.12395	5.52
1.14062	5.52
1.15728	5.52
1.17395	5.52
1.19062	5.52
1.20728	5.52
1.22395	5.52
1.24062	5.52
1.25728	5.52
1.27395	5.52
1.29062	5.52
1.30728	5.52
1.32395	5.52
1.34062	5.52
1.35728	5.52
1.37395	5.52
1.39062	5.52
1.40728	5.52
1.42395	5.52
1.44062	5.52
1.45728	5.52
1.47395	5.52
1.49062	5.52
1.50728	5.52
1.52395	5.52
1.54062	5.52
1.55728	5.52
1.57395	5.52
1.59062	5.52
1.60728	5.52
1.62395	5.52
1.64062	5.51
1.65728	5.51
1.67395	5.49
1.69062	5.48
1.70728	5.47
1.72395	5.46
1.74062	5.45
1.75728	5.44
1.77395	5.43
1.79062	5.42
1.80728	5.41
1.82395	5.40
1.84062	5.39
1.85728	5.38
1.87395	5.37
1.89062	5.36
1.90728	5.35
1.92395	5.34
1.94062	5.33
1.95728	5.32
1.97395	5.31
1.99062	5.30
2.00728	5.29
2.02395	5.28
2.04062	5.27
2.05728	5.26
2.07395	5.25
2.09062	5.24
2.10728	5.23
2.12395	5.22
2.14062	5.21
2.15728	5.21
2.17395	5.20
2.19062	5.19
2.20728	5.18
2.22395	5.17
2.24062	5.16
2.25728	5.15
2.27395	5.14
2.29062	5.13
2.30728	5.12
2.32395	5.11
2.34062	5.10
2.35728	5.10
2.37395	5.09
2.39062	5.09
2.40728	5.09
2.42395	5.09
2.44062	5.09
2.45728	5.09
2.47395	5.09
2.49062	5.09
2.50728	5.09
2.52395	5.08
2.54062	5.09
2.55728	5.09
2.57395	5.08
2.59062	5.08
2.60728	5.08
2.62395	5.08
2.64062	5.08
2.65728	5.08
2.67395	5.08
2.69062	5.08
2.70728	5.08
2.72395	5.08
2.74062	5.08
2.75728	5.08
2.77395	5.08
2.79062	5.08
2.80728	5.08
2.82395	5.08
2.84062	5.08
2.85728	5.08
2.87395	5.08
2.89062	5.08
2.90728	5.08
2.92395	5.08
2.94062	5.08
2.95728	5.08
2.97395	5.08
2.99062	5.08
3.00728	5.08
3.02395	5.08
3.04062	5.08
3.05728	5.08
3.07395	5.08
3.09062	5.08
3.10728	5.08
3.12395	5.08
3.14062	5.08
3.15728	5.08
3.17395	5.08
3.19062	5.08
3.20728	5.08
3.22395	5.08
3.24062	5.08
3.25728	5.08
3.27395	5.08
3.29062	5.08
3.30728	5.08
3.32395	5.08
3.34062	5.08
3.35728	5.08
3.37395	5.08
3.39062	5.08
3.40728	5.08
3.42395	5.08
3.44062	5.08
3.45728	5.08
3.47395	5.08
3.49062	5.08
3.50728	5.08
3.52395	5.08
3.54062	5.08
3.55728	5.08
3.57395	5.08
3.59062	5.08
3.60728	5.08
3.62395	5.08
3.64062	5.08
3.65728	5.08
3.67395	5.08
3.69062	5.08
3.70728	5.08
3.72395	5.08
3.74062	5.08
3.75728	5.08
3.77395	5.08
3.79062	5.08
3.80728	5.08
3.82395	5.08
3.84062	5.08
3.85728	5.08
3.87395	5.08
3.89062	5.08
3.90728	5.08
3.92395	5.08
3.94062	5.08
3.95728	5.08
3.97395	5.08
3.99062	5.08

[Status Trace (Linear Velocity)]
Interval(msec)	1000
# of Points	240
Start Time(min)	0.007
End Time(min)	3.991
Intensity Units	
Intensity Multiplier	1
R.Time (min)	Intensity
0.00728	39.01
0.02395	37.35
0.04062	38.40
0.05728	39.75
0.07395	40.00
0.09062	39.06
0.10728	39.00
0.12395	39.02
0.14062	39.02
0.15728	39.01
0.17395	39.01
0.19062	39.01
0.20728	39.01
0.22395	39.01
0.24062	39.01
0.25728	39.01
0.27395	39.01
0.29062	39.02
0.30728	39.02
0.32395	39.02
0.34062	39.02
0.35728	39.02
0.37395	39.02
0.39062	39.02
0.40728	39.02
0.42395	39.02
0.44062	39.02
0.45728	39.02
0.47395	39.02
0.49062	39.02
0.50728	39.02
0.52395	39.02
0.54062	39.02
0.55728	39.02
0.57395	39.02
0.59062	39.01
0.60728	39.01
0.62395	39.01
0.64062	39.02
0.65728	39.02
0.67395	39.02
0.69062	39.01
0.70728	39.01
0.72395	39.02
0.74062	39.02
0.75728	39.02
0.77395	39.02
0.79062	39.02
0.80728	39.01
0.82395	39.01
0.84062	39.01
0.85728	39.02
0.87395	39.02
0.89062	39.02
0.90728	39.02
0.92395	39.02
0.94062	39.02
0.95728	39.02
0.97395	39.02
0.99062	39.02
1.00728	39.02
1.02395	39.02
1.04062	39.02
1.05728	39.02
1.07395	39.01
1.09062	39.02
1.10728	39.02
1.12395	39.02
1.14062	39.02
1.15728	39.02
1.17395	39.02
1.19062	39.02
1.20728	39.02
1.22395	39.02
1.24062	39.02
1.25728	39.02
1.27395	39.02
1.29062	39.02
1.30728	39.02
1.32395	39.02
1.34062	39.02
1.35728	39.02
1.37395	39.02
1.39062	39.02
1.40728	39.02
1.42395	39.02
1.44062	39.02
1.45728	39.02
1.47395	39.02
1.49062	39.02
1.50728	39.02
1.52395	39.02
1.54062	39.02
1.55728	39.02
1.57395	39.02
1.59062	39.02
1.60728	39.01
1.62395	39.00
1.64062	38.99
1.65728	38.96
1.67395	38.93
1.69062	38.89
1.70728	38.86
1.72395	38.82
1.74062	38.79
1.75728	38.77
1.77395	38.73
1.79062	38.70
1.80728	38.67
1.82395	38.64
1.84062	38.61
1.85728	38.58
1.87395	38.54
1.89062	38.51
1.90728	38.48
1.92395	38.45
1.94062	38.42
1.95728	38.39
1.97395	38.36
1.99062	38.33
2.00728	38.30
2.02395	38.27
2.04062	38.24
2.05728	38.21
2.07395	38.18
2.09062	38.15
2.10728	38.12
2.12395	38.09
2.14062	38.06
2.15728	38.04
2.17395	38.00
2.19062	37.98
2.20728	37.95
2.22395	37.92
2.24062	37.89
2.25728	37.86
2.27395	37.83
2.29062	37.80
2.30728	37.77
2.32395	37.74
2.34062	37.71
2.35728	37.68
2.37395	37.66
2.39062	37.66
2.40728	37.66
2.42395	37.66
2.44062	37.66
2.45728	37.66
2.47395	37.66
2.49062	37.66
2.50728	37.65
2.52395	37.65
2.54062	37.65
2.55728	37.65
2.57395	37.65
2.59062	37.65
2.60728	37.65
2.62395	37.65
2.64062	37.65
2.65728	37.65
2.67395	37.64
2.69062	37.65
2.70728	37.65
2.72395	37.65
2.74062	37.65
2.75728	37.64
2.77395	37.65
2.79062	37.65
2.80728	37.64
2.82395	37.65
2.84062	37.64
2.85728	37.64
2.87395	37.64
2.89062	37.64
2.90728	37.64
2.92395	37.64
2.94062	37.64
2.95728	37.64
2.97395	37.63
2.99062	37.63
3.00728	37.63
3.02395	37.63
3.04062	37.63
3.05728	37.63
3.07395	37.63
3.09062	37.63
3.10728	37.63
3.12395	37.63
3.14062	37.63
3.15728	37.63
3.17395	37.63
3.19062	37.62
3.20728	37.62
3.22395	37.62
3.24062	37.62
3.25728	37.62
3.27395	37.62
3.29062	37.62
3.30728	37.62
3.32395	37.62
3.34062	37.63
3.35728	37.63
3.37395	37.63
3.39062	37.63
3.40728	37.63
3.42395	37.63
3.44062	37.63
3.45728	37.63
3.47395	37.63
3.49062	37.63
3.50728	37.63
3.52395	37.63
3.54062	37.63
3.55728	37.63
3.57395	37.63
3.59062	37.63
3.60728	37.63
3.62395	37.63
3.64062	37.63
3.65728	37.63
3.67395	37.63
3.69062	37.63
3.70728	37.63
3.72395	37.63
3.74062	37.63
3.75728	37.63
3.77395	37.63
3.79062	37.63
3.80728	37.63
3.82395	37.63
3.84062	37.63
3.85728	37.63
3.87395	37.63
3.89062	37.63
3.90728	37.63
3.92395	37.63
3.94062	37.63
3.95728	37.63
3.97395	37.63
3.99062	37.63

