[Header]
Application Name	LabSolutions
Version	5.110
Data File Name	C:\Users\User\Desktop\GC Analyses\Jack\Nachusa Grasslands Sampling\T2 Timepoint July 12th\T2_07122022_067.gcd
Output Date	3/14/2023
Output Time	3:42:34 PM

[File Information]
Type	Data File
Generated	3/10/2023 7:54:07 PM
Generated by	System Administrator
Modified	3/10/2023 8:01:03 PM
Modified by	System Administrator

[Sample Information]
Operator Name	System Administrator
Acquired	3/10/2023 7:57:03 PM
Sample Type	0:Unknown
Level	0
Sample Name	067
Sample ID	067
ISTD Amount1	1
ISTD Amount2	1
ISTD Amount3	1
ISTD Amount4	1
ISTD Amount5	1
ISTD Amount6	1
ISTD Amount7	1
ISTD Amount8	1
ISTD Amount9	1
ISTD Amount10	1
ISTD Amount11	1
ISTD Amount12	1
ISTD Amount13	1
ISTD Amount14	1
ISTD Amount15	1
ISTD Amount16	1
ISTD Amount17	1
ISTD Amount18	1
ISTD Amount19	1
ISTD Amount20	1
ISTD Amount21	1
ISTD Amount22	1
ISTD Amount23	1
ISTD Amount24	1
ISTD Amount25	1
ISTD Amount26	1
ISTD Amount27	1
ISTD Amount28	1
ISTD Amount29	1
ISTD Amount30	1
ISTD Amount31	1
ISTD Amount32	1
Sample Amount	1
Dilution Factor	1
Vial#	66
Injection Volume	1
Injection Count	1
Bar Code	

[Original Files]
Data File	C:\Users\User\Desktop\GC Analyses\Jack\Nachusa Grasslands Sampling\T1 Timepoint July 12th\T2_07122022_067.gcd
Method File	C:\LabSolutions\Data\GHG_4min_2022\ghg3_togas_w_acet_4 min_new_int.gcm
Batch File	C:\LabSolutions\Data\AutoSamplerTesting\T2_07122022.gcb
Report Format File	c:\LabSolutions\System\DEFAULT.lsr

[File Description]


[Configuration]
Instrument Name	C0B7VH3-Instrument1
Instrument #	1
Line #	1
# of Detectors	3
Detector ID	DET#1	DET#2	DET#3
Detector Name	FID	PTCD	ECD
# of Channels	1	1	1

[Peak Table(Ch1)]
# of Peaks	3
Peak#	R.Time	I.Time	F.Time	Area	Height	A/H	Conc.	Mark	ID#	Name	k'	Plate #	Plate Ht.	Tailing	Resolution	Sep.Factor	Area Ratio	Height Ratio	Conc. %	Norm Conc.
1	1.476	1.435	1.538	29579	14121	2.095	208.829	   	1	CO	0.000	9348	16.046	1.285	0.000	0.000	0	0	25.681	25.681
2	1.567	1.538	1.630	4922	2411	2.041	95.168	 V 	2	CH4	0.062	10319	14.536	0.000	1.493	0.000	0	0	11.703	11.703
3	1.996	1.949	2.495	2028830	969449	2.093	509.181	   	3	CO2	0.353	17498	8.572	1.237	7.028	5.680	0	0	62.616	62.616

[Peak Table(Ch2)]
# of Peaks	0

[Peak Table(Ch3)]
# of Peaks	6
Peak#	R.Time	I.Time	F.Time	Area	Height	A/H	Conc.	Mark	ID#	Name	k'	Plate #	Plate Ht.	Tailing	Resolution	Sep.Factor	Area Ratio	Height Ratio	Conc. %	Norm Conc.
1	1.274	1.131	1.314	92	15	6.110	0.000	   			0.000	2063	72.714	0.639	0.000	0.000	0	0	0.000	0.000
2	2.462	2.359	2.513	2030	665	3.055	0.000	   			0.932	10542	14.229	0.000	11.417	0.000	0	0	0.000	0.000
3	2.535	2.513	2.634	1314	341	3.856	0.000	 V 			0.990	5807	25.831	0.000	0.640	1.062	0	0	0.000	0.000
4	2.653	2.634	2.708	212	76	2.791	0.000	 V 			1.082	7196	20.845	0.000	0.909	1.093	0	0	0.000	0.000
5	2.876	2.810	3.027	19017	5038	3.775	0.486	   	1	N2O	1.258	13277	11.298	1.604	1.989	1.162	0	0	100.000	100.000
6	3.151	3.030	3.632	7856	336	23.415	0.000	   	2	SF6	1.474	534	280.930	2.509	0.852	1.172	0	0	0.000	0.000

[Compound Results(Ch1)]
# of IDs	6
ID#	Name	R.Time	Area	Height	Conc.	Curve	3rd	2nd	1st	Constant	Area Ratio	Height Ratio	Conc. %	Norm Conc.
1	CO	1.476	29579	14121	208.829	Linear	0.000000e+00	0.000000e+00	1.416423e+002	0.000000e+00	0	0	25.681	25.681
2	CH4	1.567	4922	2411	95.168	Linear	0.000000e+00	0.000000e+00	5.171738e+001	0.000000e+00	0	0	11.703	11.703
3	CO2	1.996	2028830	969449	509.181	Linear	0.000000e+00	0.000000e+00	3.984494e+003	0.000000e+00	0	0	62.616	62.616
4	Ethylene	0.000	0	0	0.000	Linear	0.000000e+00	0.000000e+00	0.000000e+00	0.000000e+00	0	0	0.000	0.000
5	Acetylene	0.000	0	0	0.000	Linear	0.000000e+00	0.000000e+00	0.000000e+00	0.000000e+00	0	0	0.000	0.000
6	Ethane	0.000	0	0	0.000	Linear	0.000000e+00	0.000000e+00	0.000000e+00	0.000000e+00	0	0	0.000	0.000

[Compound Results(Ch2)]
# of IDs	5
ID#	Name	R.Time	Area	Height	Conc.	Curve	3rd	2nd	1st	Constant	Area Ratio	Height Ratio	Conc. %	Norm Conc.
1	Hydrogen	0.000	0	0	0.000	Linear	0.000000e+00	0.000000e+00	0.000000e+00	0.000000e+00	0	0	0.000	0.000
2	Oxygen	0.000	0	0	0.000	Linear	0.000000e+00	0.000000e+00	0.000000e+00	0.000000e+00	0	0	0.000	0.000
3	Nitrogen	0.000	0	0	0.000	Linear	0.000000e+00	0.000000e+00	0.000000e+00	0.000000e+00	0	0	0.000	0.000
4	Methane	0.000	0	0	0.000	Linear	0.000000e+00	0.000000e+00	0.000000e+00	0.000000e+00	0	0	0.000	0.000
5	Carbon Monoxide	0.000	0	0	0.000	Linear	0.000000e+00	0.000000e+00	0.000000e+00	0.000000e+00	0	0	0.000	0.000

[Compound Results(Ch3)]
# of IDs	2
ID#	Name	R.Time	Area	Height	Conc.	Curve	3rd	2nd	1st	Constant	Area Ratio	Height Ratio	Conc. %	Norm Conc.
1	N2O	2.876	19017	5038	0.486	Linear	0.000000e+00	0.000000e+00	3.915173e+004	0.000000e+00	0	0	100.000	100.000
2	SF6	3.151	7856	336	0.000	Linear	0.000000e+00	0.000000e+00	0.000000e+00	0.000000e+00	0	0	0.000	0.000

[Group Results(Ch1)]
# of Groups	0

[Group Results(Ch2)]
# of Groups	0

[Group Results(Ch3)]
# of Groups	0

[Chromatogram (Ch1)]
Interval(msec)	220
# of Points	1091
Start Time(min)	0.002
End Time(min)	3.998
R.Time (min)	Intensity
0.00167	6
0.00533	8
0.00900	13
0.01267	19
0.01633	25
0.02000	29
0.02367	30
0.02733	31
0.03100	32
0.03467	34
0.03833	33
0.04200	37
0.04567	43
0.04933	46
0.05300	42
0.05667	38
0.06033	34
0.06400	29
0.06767	25
0.07133	25
0.07500	29
0.07867	30
0.08233	29
0.08600	24
0.08967	21
0.09333	22
0.09700	20
0.10067	15
0.10433	9
0.10800	7
0.11167	2
0.11533	-5
0.11900	-6
0.12267	-1
0.12633	10
0.13000	20
0.13367	29
0.13733	33
0.14100	29
0.14467	19
0.14833	6
0.15200	-0
0.15567	-0
0.15933	3
0.16300	6
0.16667	7
0.17033	11
0.17400	11
0.17767	7
0.18133	2
0.18500	1
0.18867	4
0.19233	4
0.19600	2
0.19967	1
0.20333	-1
0.20700	-3
0.21067	-2
0.21433	-1
0.21800	3
0.22167	6
0.22533	11
0.22900	15
0.23267	17
0.23633	19
0.24000	20
0.24367	20
0.24733	17
0.25100	13
0.25467	10
0.25833	8
0.26200	6
0.26567	6
0.26933	7
0.27300	8
0.27667	7
0.28033	6
0.28400	7
0.28767	9
0.29133	8
0.29500	5
0.29867	4
0.30233	5
0.30600	7
0.30967	6
0.31333	5
0.31700	3
0.32067	-0
0.32433	-1
0.32800	-1
0.33167	-3
0.33533	-10
0.33900	-17
0.34267	-20
0.34633	-17
0.35000	-12
0.35367	-11
0.35733	-11
0.36100	-10
0.36467	-12
0.36833	-13
0.37200	-7
0.37567	1
0.37933	10
0.38300	20
0.38667	26
0.39033	25
0.39400	20
0.39767	12
0.40133	2
0.40500	-5
0.40867	-11
0.41233	-9
0.41600	-2
0.41967	6
0.42333	13
0.42700	17
0.43067	16
0.43433	14
0.43800	8
0.44167	0
0.44533	-5
0.44900	-6
0.45267	-4
0.45633	-2
0.46000	3
0.46367	9
0.46733	12
0.47100	10
0.47467	6
0.47833	-1
0.48200	-5
0.48567	-5
0.48933	-7
0.49300	-9
0.49667	-11
0.50033	-12
0.50400	-12
0.50767	-10
0.51133	-11
0.51500	-15
0.51867	-19
0.52233	-20
0.52600	-20
0.52967	-22
0.53333	-25
0.53700	-27
0.54067	-26
0.54433	-25
0.54800	-25
0.55167	-22
0.55533	-19
0.55900	-18
0.56267	-16
0.56633	-14
0.57000	-12
0.57367	-13
0.57733	-16
0.58100	-17
0.58467	-14
0.58833	-0
0.59200	19
0.59567	29
0.59933	31
0.60300	25
0.60667	12
0.61033	-2
0.61400	-15
0.61767	-26
0.62133	-36
0.62500	-44
0.62867	-46
0.63233	-40
0.63600	-30
0.63967	-17
0.64333	-7
0.64700	-6
0.65067	-13
0.65433	-19
0.65800	-23
0.66167	-25
0.66533	-28
0.66900	-29
0.67267	-29
0.67633	-29
0.68000	-29
0.68367	-26
0.68733	-24
0.69100	-24
0.69467	-22
0.69833	-15
0.70200	-11
0.70567	-12
0.70933	-15
0.71300	-16
0.71667	-14
0.72033	-13
0.72400	-9
0.72767	-4
0.73133	-3
0.73500	-5
0.73867	-7
0.74233	-9
0.74600	-9
0.74967	-8
0.75333	-12
0.75700	-19
0.76067	-25
0.76433	-27
0.76800	-30
0.77167	-36
0.77533	-40
0.77900	-41
0.78267	-38
0.78633	-31
0.79000	-21
0.79367	-14
0.79733	-13
0.80100	-17
0.80467	-25
0.80833	-34
0.81200	-42
0.81567	-47
0.81933	-53
0.82300	-57
0.82667	-56
0.83033	-53
0.83400	-45
0.83767	-35
0.84133	-28
0.84500	-26
0.84867	-28
0.85233	-26
0.85600	-25
0.85967	-25
0.86333	-24
0.86700	-24
0.87067	-27
0.87433	-32
0.87800	-37
0.88167	-40
0.88533	-41
0.88900	-45
0.89267	-46
0.89633	-45
0.90000	-46
0.90367	-46
0.90733	-40
0.91100	-31
0.91467	-26
0.91833	-26
0.92200	-29
0.92567	-34
0.92933	-40
0.93300	-47
0.93667	-52
0.94033	-53
0.94400	-53
0.94767	-49
0.95133	-39
0.95500	-31
0.95867	-29
0.96233	-33
0.96600	-35
0.96967	-33
0.97333	-30
0.97700	-29
0.98067	-31
0.98433	-37
0.98800	-46
0.99167	-54
0.99533	-59
0.99900	-58
1.00267	-52
1.00633	-44
1.01000	-36
1.01367	-33
1.01733	-37
1.02100	-44
1.02467	-52
1.02833	-60
1.03200	-67
1.03567	-69
1.03933	-68
1.04300	-66
1.04667	-63
1.05033	-64
1.05400	-66
1.05767	-66
1.06133	-65
1.06500	-64
1.06867	-60
1.07233	-56
1.07600	-57
1.07967	-61
1.08333	-63
1.08700	-60
1.09067	-55
1.09433	-51
1.09800	-48
1.10167	-49
1.10533	-52
1.10900	-56
1.11267	-61
1.11633	-62
1.12000	-64
1.12367	-65
1.12733	-65
1.13100	-62
1.13467	-58
1.13833	-54
1.14200	-50
1.14567	-49
1.14933	-48
1.15300	-43
1.15667	-39
1.16033	-37
1.16400	-36
1.16767	-37
1.17133	-39
1.17500	-42
1.17867	-49
1.18233	-56
1.18600	-61
1.18967	-64
1.19333	-67
1.19700	-70
1.20067	-71
1.20433	-72
1.20800	-72
1.21167	-74
1.21533	-77
1.21900	-76
1.22267	-73
1.22633	-67
1.23000	-60
1.23367	-52
1.23733	-47
1.24100	-45
1.24467	-46
1.24833	-48
1.25200	-54
1.25567	-60
1.25933	-64
1.26300	-62
1.26667	-58
1.27033	-62
1.27400	-74
1.27767	-88
1.28133	-102
1.28500	-110
1.28867	-113
1.29233	-112
1.29600	-112
1.29967	-108
1.30333	-102
1.30700	-103
1.31067	-101
1.31433	-88
1.31800	-77
1.32167	-74
1.32533	-78
1.32900	-81
1.33267	-82
1.33633	-83
1.34000	-81
1.34367	-76
1.34733	-69
1.35100	-68
1.35467	-73
1.35833	-81
1.36200	-87
1.36567	-92
1.36933	-94
1.37300	-93
1.37667	-89
1.38033	-83
1.38400	-78
1.38767	-77
1.39133	-76
1.39500	-76
1.39867	-78
1.40233	-81
1.40600	-84
1.40967	-89
1.41333	-92
1.41700	-90
1.42067	-86
1.42433	-85
1.42800	-84
1.43167	-81
1.43533	-77
1.43900	-54
1.44267	48
1.44633	318
1.45000	1038
1.45367	2635
1.45733	5084
1.46100	7853
1.46467	10385
1.46833	12367
1.47200	13636
1.47567	14054
1.47933	13525
1.48300	12117
1.48667	10138
1.49033	7997
1.49400	6028
1.49767	4406
1.50133	3167
1.50500	2263
1.50867	1617
1.51233	1161
1.51600	843
1.51967	620
1.52333	466
1.52700	358
1.53067	282
1.53433	230
1.53800	213
1.54167	279
1.54533	486
1.54900	844
1.55267	1283
1.55633	1706
1.56000	2048
1.56367	2277
1.56733	2367
1.57100	2285
1.57467	2032
1.57833	1667
1.58200	1275
1.58567	925
1.58933	645
1.59300	434
1.59667	281
1.60033	176
1.60400	110
1.60767	69
1.61133	46
1.61500	30
1.61867	17
1.62233	2
1.62600	-15
1.62967	-29
1.63333	-35
1.63700	-31
1.64067	-27
1.64433	-32
1.64800	-42
1.65167	-49
1.65533	-52
1.65900	-55
1.66267	-56
1.66633	-56
1.67000	-58
1.67367	-60
1.67733	-64
1.68100	-61
1.68467	-54
1.68833	-50
1.69200	-45
1.69567	-40
1.69933	-35
1.70300	-28
1.70667	-20
1.71033	-14
1.71400	-14
1.71767	-17
1.72133	-22
1.72500	-32
1.72867	-41
1.73233	-51
1.73600	-61
1.73967	-71
1.74333	-73
1.74700	-71
1.75067	-67
1.75433	-60
1.75800	-53
1.76167	-48
1.76533	-43
1.76900	-40
1.77267	-41
1.77633	-44
1.78000	-52
1.78367	-60
1.78733	-64
1.79100	-64
1.79467	-64
1.79833	-63
1.80200	-60
1.80567	-55
1.80933	-47
1.81300	-39
1.81667	-35
1.82033	-36
1.82400	-39
1.82767	-40
1.83133	-39
1.83500	-38
1.83867	-37
1.84233	-36
1.84600	-38
1.84967	-42
1.85333	-46
1.85700	-51
1.86067	-58
1.86433	-65
1.86800	-71
1.87167	-72
1.87533	-68
1.87900	-61
1.88267	-58
1.88633	-59
1.89000	-60
1.89367	-59
1.89733	-60
1.90100	-64
1.90467	-63
1.90833	-58
1.91200	-57
1.91567	-59
1.91933	-58
1.92300	-57
1.92667	-56
1.93033	-55
1.93400	-57
1.93767	-57
1.94133	-54
1.94500	-50
1.94867	-38
1.95233	10
1.95600	288
1.95967	1840
1.96333	8434
1.96700	29616
1.97067	81985
1.97433	182305
1.97800	333184
1.98167	515624
1.98533	697781
1.98900	848068
1.99267	942943
1.99633	969457
2.00000	927167
2.00367	828068
2.00733	693895
2.01100	549368
2.01467	414839
2.01833	302110
2.02200	214624
2.02567	150362
2.02933	104934
2.03300	73622
2.03667	52359
2.04033	38017
2.04400	28339
2.04767	21760
2.05133	17231
2.05500	14057
2.05867	11781
2.06233	10105
2.06600	8838
2.06967	7857
2.07333	7074
2.07700	6436
2.08067	5907
2.08433	5462
2.08800	5083
2.09167	4755
2.09533	4465
2.09900	4206
2.10267	3977
2.10633	3770
2.11000	3579
2.11367	3406
2.11733	3251
2.12100	3109
2.12467	2978
2.12833	2856
2.13200	2738
2.13567	2627
2.13933	2524
2.14300	2431
2.14667	2343
2.15033	2259
2.15400	2180
2.15767	2105
2.16133	2037
2.16500	1975
2.16867	1919
2.17233	1868
2.17600	1819
2.17967	1773
2.18333	1731
2.18700	1688
2.19067	1644
2.19433	1600
2.19800	1559
2.20167	1515
2.20533	1469
2.20900	1427
2.21267	1387
2.21633	1351
2.22000	1321
2.22367	1298
2.22733	1277
2.23100	1255
2.23467	1233
2.23833	1212
2.24200	1194
2.24567	1183
2.24933	1166
2.25300	1139
2.25667	1106
2.26033	1073
2.26400	1046
2.26767	1030
2.27133	1014
2.27500	997
2.27867	977
2.28233	955
2.28600	933
2.28967	911
2.29333	890
2.29700	872
2.30067	858
2.30433	850
2.30800	845
2.31167	839
2.31533	831
2.31900	821
2.32267	807
2.32633	792
2.33000	777
2.33367	767
2.33733	760
2.34100	748
2.34467	729
2.34833	708
2.35200	690
2.35567	679
2.35933	673
2.36300	671
2.36667	672
2.37033	673
2.37400	671
2.37767	666
2.38133	667
2.38500	667
2.38867	661
2.39233	649
2.39600	635
2.39967	623
2.40333	615
2.40700	609
2.41067	604
2.41433	598
2.41800	595
2.42167	596
2.42533	596
2.42900	592
2.43267	586
2.43633	580
2.44000	570
2.44367	557
2.44733	543
2.45100	532
2.45467	526
2.45833	521
2.46200	516
2.46567	512
2.46933	511
2.47300	513
2.47667	515
2.48033	514
2.48400	509
2.48767	500
2.49133	494
2.49500	491
2.49867	487
2.50233	484
2.50600	486
2.50967	492
2.51333	500
2.51700	512
2.52067	518
2.52433	514
2.52800	507
2.53167	498
2.53533	487
2.53900	476
2.54267	471
2.54633	466
2.55000	458
2.55367	455
2.55733	454
2.56100	450
2.56467	442
2.56833	441
2.57200	443
2.57567	443
2.57933	439
2.58300	432
2.58667	418
2.59033	402
2.59400	388
2.59767	382
2.60133	383
2.60500	388
2.60867	393
2.61233	394
2.61600	393
2.61967	390
2.62333	386
2.62700	384
2.63067	387
2.63433	393
2.63800	400
2.64167	407
2.64533	413
2.64900	413
2.65267	409
2.65633	403
2.66000	396
2.66367	388
2.66733	377
2.67100	367
2.67467	358
2.67833	349
2.68200	344
2.68567	345
2.68933	353
2.69300	360
2.69667	369
2.70033	379
2.70400	384
2.70767	387
2.71133	392
2.71500	393
2.71867	385
2.72233	378
2.72600	371
2.72967	366
2.73333	364
2.73700	363
2.74067	359
2.74433	351
2.74800	346
2.75167	342
2.75533	341
2.75900	344
2.76267	346
2.76633	347
2.77000	346
2.77367	346
2.77733	348
2.78100	353
2.78467	353
2.78833	351
2.79200	349
2.79567	349
2.79933	352
2.80300	353
2.80667	353
2.81033	356
2.81400	359
2.81767	360
2.82133	362
2.82500	362
2.82867	359
2.83233	351
2.83600	344
2.83967	342
2.84333	340
2.84700	336
2.85067	335
2.85433	336
2.85800	342
2.86167	347
2.86533	351
2.86900	355
2.87267	360
2.87633	361
2.88000	361
2.88367	364
2.88733	366
2.89100	366
2.89467	367
2.89833	364
2.90200	358
2.90567	350
2.90933	346
2.91300	345
2.91667	350
2.92033	357
2.92400	360
2.92767	358
2.93133	350
2.93500	341
2.93867	335
2.94233	332
2.94600	331
2.94967	331
2.95333	332
2.95700	333
2.96067	333
2.96433	332
2.96800	331
2.97167	327
2.97533	319
2.97900	315
2.98267	315
2.98633	318
2.99000	322
2.99367	319
2.99733	311
3.00100	303
3.00467	300
3.00833	301
3.01200	306
3.01567	313
3.01933	317
3.02300	321
3.02667	325
3.03033	328
3.03400	329
3.03767	323
3.04133	316
3.04500	314
3.04867	314
3.05233	310
3.05600	307
3.05967	307
3.06333	308
3.06700	310
3.07067	315
3.07433	319
3.07800	319
3.08167	318
3.08533	315
3.08900	308
3.09267	300
3.09633	302
3.10000	307
3.10367	308
3.10733	307
3.11100	309
3.11467	310
3.11833	307
3.12200	301
3.12567	297
3.12933	299
3.13300	303
3.13667	303
3.14033	300
3.14400	296
3.14767	292
3.15133	283
3.15500	274
3.15867	269
3.16233	269
3.16600	278
3.16967	287
3.17333	287
3.17700	281
3.18067	276
3.18433	271
3.18800	274
3.19167	280
3.19533	286
3.19900	285
3.20267	280
3.20633	277
3.21000	273
3.21367	269
3.21733	268
3.22100	266
3.22467	264
3.22833	264
3.23200	264
3.23567	267
3.23933	274
3.24300	279
3.24667	280
3.25033	279
3.25400	279
3.25767	281
3.26133	281
3.26500	281
3.26867	280
3.27233	276
3.27600	272
3.27967	268
3.28333	262
3.28700	254
3.29067	249
3.29433	250
3.29800	254
3.30167	254
3.30533	250
3.30900	247
3.31267	245
3.31633	248
3.32000	256
3.32367	264
3.32733	269
3.33100	271
3.33467	268
3.33833	260
3.34200	254
3.34567	250
3.34933	250
3.35300	253
3.35667	257
3.36033	257
3.36400	254
3.36767	250
3.37133	243
3.37500	235
3.37867	229
3.38233	224
3.38600	225
3.38967	227
3.39333	231
3.39700	242
3.40067	255
3.40433	259
3.40800	258
3.41167	256
3.41533	251
3.41900	243
3.42267	231
3.42633	221
3.43000	213
3.43367	210
3.43733	210
3.44100	209
3.44467	208
3.44833	205
3.45200	200
3.45567	193
3.45933	184
3.46300	181
3.46667	185
3.47033	191
3.47400	194
3.47767	198
3.48133	196
3.48500	193
3.48867	195
3.49233	199
3.49600	204
3.49967	203
3.50333	201
3.50700	202
3.51067	205
3.51433	208
3.51800	210
3.52167	210
3.52533	207
3.52900	204
3.53267	199
3.53633	198
3.54000	200
3.54367	202
3.54733	200
3.55100	195
3.55467	188
3.55833	179
3.56200	170
3.56567	164
3.56933	168
3.57300	176
3.57667	185
3.58033	193
3.58400	202
3.58767	206
3.59133	206
3.59500	201
3.59867	192
3.60233	182
3.60600	172
3.60967	168
3.61333	172
3.61700	180
3.62067	187
3.62433	192
3.62800	195
3.63167	196
3.63533	197
3.63900	196
3.64267	191
3.64633	185
3.65000	181
3.65367	173
3.65733	164
3.66100	161
3.66467	162
3.66833	164
3.67200	166
3.67567	164
3.67933	160
3.68300	159
3.68667	160
3.69033	164
3.69400	170
3.69767	175
3.70133	180
3.70500	183
3.70867	182
3.71233	179
3.71600	174
3.71967	166
3.72333	159
3.72700	155
3.73067	158
3.73433	165
3.73800	171
3.74167	173
3.74533	173
3.74900	177
3.75267	177
3.75633	175
3.76000	173
3.76367	169
3.76733	164
3.77100	162
3.77467	163
3.77833	161
3.78200	158
3.78567	155
3.78933	155
3.79300	160
3.79667	166
3.80033	170
3.80400	170
3.80767	160
3.81133	152
3.81500	152
3.81867	156
3.82233	164
3.82600	167
3.82967	160
3.83333	145
3.83700	130
3.84067	124
3.84433	121
3.84800	117
3.85167	113
3.85533	107
3.85900	104
3.86267	111
3.86633	124
3.87000	132
3.87367	136
3.87733	135
3.88100	133
3.88467	131
3.88833	133
3.89200	139
3.89567	144
3.89933	146
3.90300	143
3.90667	139
3.91033	138
3.91400	139
3.91767	142
3.92133	144
3.92500	147
3.92867	148
3.93233	147
3.93600	145
3.93967	142
3.94333	139
3.94700	141
3.95067	145
3.95433	144
3.95800	138
3.96167	132
3.96533	131
3.96900	131
3.97267	130
3.97633	127
3.98000	126
3.98367	129
3.98733	133
3.99100	138
3.99467	138
3.99833	136

[Chromatogram (Ch2)]
Interval(msec)	220
# of Points	1091
Start Time(min)	0.002
End Time(min)	3.998
R.Time (min)	Intensity
0.00167	-1
0.00533	-1
0.00900	-2
0.01267	-2
0.01633	-2
0.02000	-2
0.02367	-2
0.02733	-2
0.03100	-1
0.03467	-1
0.03833	-1
0.04200	-1
0.04567	-0
0.04933	-0
0.05300	-0
0.05667	-1
0.06033	-1
0.06400	-1
0.06767	-1
0.07133	-1
0.07500	-1
0.07867	-1
0.08233	-2
0.08600	-2
0.08967	-2
0.09333	-2
0.09700	-2
0.10067	-2
0.10433	-2
0.10800	-2
0.11167	-2
0.11533	-2
0.11900	-2
0.12267	-2
0.12633	-3
0.13000	-3
0.13367	-3
0.13733	-3
0.14100	-3
0.14467	-3
0.14833	-3
0.15200	-4
0.15567	-4
0.15933	-4
0.16300	-4
0.16667	-4
0.17033	-4
0.17400	-4
0.17767	-4
0.18133	-3
0.18500	-3
0.18867	-2
0.19233	-2
0.19600	-2
0.19967	-3
0.20333	-3
0.20700	-3
0.21067	-3
0.21433	-3
0.21800	-3
0.22167	-3
0.22533	-3
0.22900	-3
0.23267	-3
0.23633	-3
0.24000	-3
0.24367	-3
0.24733	-3
0.25100	-3
0.25467	-3
0.25833	-3
0.26200	-3
0.26567	-3
0.26933	-3
0.27300	-2
0.27667	-2
0.28033	-2
0.28400	-2
0.28767	-2
0.29133	-1
0.29500	-1
0.29867	-1
0.30233	-1
0.30600	-1
0.30967	-1
0.31333	-1
0.31700	-1
0.32067	-1
0.32433	-1
0.32800	-2
0.33167	-2
0.33533	-2
0.33900	-2
0.34267	-3
0.34633	-3
0.35000	-3
0.35367	-3
0.35733	-3
0.36100	-4
0.36467	-4
0.36833	-4
0.37200	-4
0.37567	-4
0.37933	-5
0.38300	-5
0.38667	-5
0.39033	-6
0.39400	-6
0.39767	-6
0.40133	-6
0.40500	-7
0.40867	-7
0.41233	-7
0.41600	-7
0.41967	-7
0.42333	-7
0.42700	-6
0.43067	-6
0.43433	-6
0.43800	-5
0.44167	-5
0.44533	-5
0.44900	-5
0.45267	-5
0.45633	-6
0.46000	-6
0.46367	-5
0.46733	-5
0.47100	-5
0.47467	-5
0.47833	-5
0.48200	-5
0.48567	-4
0.48933	-4
0.49300	-4
0.49667	-3
0.50033	-3
0.50400	-3
0.50767	-3
0.51133	-3
0.51500	-3
0.51867	-3
0.52233	-3
0.52600	-3
0.52967	-3
0.53333	-3
0.53700	-3
0.54067	-3
0.54433	-3
0.54800	-3
0.55167	-3
0.55533	-3
0.55900	-3
0.56267	-3
0.56633	-3
0.57000	-3
0.57367	-3
0.57733	-3
0.58100	-3
0.58467	-3
0.58833	-3
0.59200	-3
0.59567	-3
0.59933	-3
0.60300	-3
0.60667	-3
0.61033	-4
0.61400	-4
0.61767	-4
0.62133	-5
0.62500	-5
0.62867	-5
0.63233	-5
0.63600	-5
0.63967	-5
0.64333	-5
0.64700	-5
0.65067	-5
0.65433	-5
0.65800	-5
0.66167	-5
0.66533	-4
0.66900	-4
0.67267	-4
0.67633	-4
0.68000	-4
0.68367	-4
0.68733	-4
0.69100	-4
0.69467	-5
0.69833	-5
0.70200	-5
0.70567	-5
0.70933	-5
0.71300	-5
0.71667	-5
0.72033	-5
0.72400	-5
0.72767	-5
0.73133	-4
0.73500	-5
0.73867	-5
0.74233	-5
0.74600	-5
0.74967	-5
0.75333	-5
0.75700	-5
0.76067	-5
0.76433	-5
0.76800	-5
0.77167	-5
0.77533	-5
0.77900	-5
0.78267	-5
0.78633	-5
0.79000	-5
0.79367	-5
0.79733	-5
0.80100	-5
0.80467	-5
0.80833	-5
0.81200	-5
0.81567	-6
0.81933	-6
0.82300	-6
0.82667	-6
0.83033	-6
0.83400	-6
0.83767	-5
0.84133	-5
0.84500	-5
0.84867	-5
0.85233	-4
0.85600	-4
0.85967	-4
0.86333	-4
0.86700	-4
0.87067	-3
0.87433	-4
0.87800	-4
0.88167	-4
0.88533	-4
0.88900	-4
0.89267	-4
0.89633	-4
0.90000	-5
0.90367	-5
0.90733	-5
0.91100	-5
0.91467	-5
0.91833	-5
0.92200	-5
0.92567	-5
0.92933	-5
0.93300	-5
0.93667	-5
0.94033	-5
0.94400	-5
0.94767	-5
0.95133	-5
0.95500	-5
0.95867	-5
0.96233	-5
0.96600	-5
0.96967	-5
0.97333	-5
0.97700	-5
0.98067	-5
0.98433	-5
0.98800	-5
0.99167	-5
0.99533	-5
0.99900	-5
1.00267	-4
1.00633	-4
1.01000	-4
1.01367	-3
1.01733	-3
1.02100	-3
1.02467	-2
1.02833	-2
1.03200	-3
1.03567	-3
1.03933	-3
1.04300	-3
1.04667	-3
1.05033	-3
1.05400	-3
1.05767	-3
1.06133	-3
1.06500	-4
1.06867	-4
1.07233	-4
1.07600	-4
1.07967	-5
1.08333	-5
1.08700	-5
1.09067	-5
1.09433	-5
1.09800	-6
1.10167	-6
1.10533	-6
1.10900	-6
1.11267	-6
1.11633	-6
1.12000	-6
1.12367	-6
1.12733	-6
1.13100	-6
1.13467	-6
1.13833	-5
1.14200	-5
1.14567	-6
1.14933	-6
1.15300	-6
1.15667	-6
1.16033	-6
1.16400	-6
1.16767	-6
1.17133	-7
1.17500	-7
1.17867	-7
1.18233	-7
1.18600	-7
1.18967	-7
1.19333	-8
1.19700	-7
1.20067	-7
1.20433	-7
1.20800	-7
1.21167	-6
1.21533	-6
1.21900	-6
1.22267	-6
1.22633	-6
1.23000	-6
1.23367	-6
1.23733	-6
1.24100	-6
1.24467	-6
1.24833	-6
1.25200	-6
1.25567	-6
1.25933	-6
1.26300	-6
1.26667	-5
1.27033	-5
1.27400	-5
1.27767	-5
1.28133	-5
1.28500	-6
1.28867	-6
1.29233	-6
1.29600	-6
1.29967	-6
1.30333	-6
1.30700	-6
1.31067	-6
1.31433	-6
1.31800	-6
1.32167	-6
1.32533	-6
1.32900	-6
1.33267	-6
1.33633	-6
1.34000	-6
1.34367	-7
1.34733	-7
1.35100	-7
1.35467	-7
1.35833	-7
1.36200	-7
1.36567	-7
1.36933	-7
1.37300	-7
1.37667	-7
1.38033	-7
1.38400	-7
1.38767	-7
1.39133	-7
1.39500	-6
1.39867	-6
1.40233	-6
1.40600	-5
1.40967	-5
1.41333	-5
1.41700	-4
1.42067	-4
1.42433	-4
1.42800	-3
1.43167	-3
1.43533	-3
1.43900	-3
1.44267	-3
1.44633	-3
1.45000	-3
1.45367	-3
1.45733	-3
1.46100	-3
1.46467	-4
1.46833	-4
1.47200	-4
1.47567	-5
1.47933	-5
1.48300	-6
1.48667	-6
1.49033	-6
1.49400	-7
1.49767	-7
1.50133	-7
1.50500	-8
1.50867	-8
1.51233	-9
1.51600	-9
1.51967	-9
1.52333	-9
1.52700	-9
1.53067	-9
1.53433	-9
1.53800	-8
1.54167	-8
1.54533	-8
1.54900	-7
1.55267	-7
1.55633	-7
1.56000	-7
1.56367	-7
1.56733	-7
1.57100	-7
1.57467	-6
1.57833	-6
1.58200	-6
1.58567	-6
1.58933	-5
1.59300	-6
1.59667	-6
1.60033	-7
1.60400	-8
1.60767	-9
1.61133	-11
1.61500	-13
1.61867	-15
1.62233	-18
1.62600	-20
1.62967	-23
1.63333	-27
1.63700	-30
1.64067	-34
1.64433	-38
1.64800	-42
1.65167	-45
1.65533	-49
1.65900	-53
1.66267	-57
1.66633	-61
1.67000	-65
1.67367	-70
1.67733	-75
1.68100	-79
1.68467	-84
1.68833	-88
1.69200	-91
1.69567	-94
1.69933	-97
1.70300	-99
1.70667	-102
1.71033	-104
1.71400	-105
1.71767	-106
1.72133	-108
1.72500	-109
1.72867	-110
1.73233	-111
1.73600	-111
1.73967	-112
1.74333	-113
1.74700	-114
1.75067	-115
1.75433	-115
1.75800	-115
1.76167	-115
1.76533	-115
1.76900	-115
1.77267	-114
1.77633	-114
1.78000	-114
1.78367	-114
1.78733	-114
1.79100	-114
1.79467	-114
1.79833	-115
1.80200	-116
1.80567	-117
1.80933	-118
1.81300	-118
1.81667	-117
1.82033	-117
1.82400	-116
1.82767	-115
1.83133	-114
1.83500	-113
1.83867	-113
1.84233	-112
1.84600	-113
1.84967	-113
1.85333	-113
1.85700	-114
1.86067	-115
1.86433	-115
1.86800	-116
1.87167	-116
1.87533	-116
1.87900	-117
1.88267	-117
1.88633	-117
1.89000	-117
1.89367	-117
1.89733	-117
1.90100	-117
1.90467	-117
1.90833	-117
1.91200	-117
1.91567	-117
1.91933	-117
1.92300	-117
1.92667	-117
1.93033	-116
1.93400	-116
1.93767	-116
1.94133	-115
1.94500	-114
1.94867	-114
1.95233	-113
1.95600	-113
1.95967	-113
1.96333	-113
1.96700	-113
1.97067	-113
1.97433	-113
1.97800	-113
1.98167	-113
1.98533	-113
1.98900	-112
1.99267	-111
1.99633	-111
2.00000	-110
2.00367	-110
2.00733	-111
2.01100	-111
2.01467	-112
2.01833	-112
2.02200	-112
2.02567	-112
2.02933	-112
2.03300	-111
2.03667	-110
2.04033	-110
2.04400	-109
2.04767	-108
2.05133	-108
2.05500	-108
2.05867	-107
2.06233	-107
2.06600	-106
2.06967	-106
2.07333	-106
2.07700	-105
2.08067	-105
2.08433	-105
2.08800	-105
2.09167	-105
2.09533	-105
2.09900	-105
2.10267	-105
2.10633	-105
2.11000	-105
2.11367	-105
2.11733	-104
2.12100	-104
2.12467	-103
2.12833	-102
2.13200	-102
2.13567	-102
2.13933	-102
2.14300	-102
2.14667	-102
2.15033	-102
2.15400	-101
2.15767	-101
2.16133	-101
2.16500	-100
2.16867	-100
2.17233	-99
2.17600	-99
2.17967	-98
2.18333	-97
2.18700	-97
2.19067	-96
2.19433	-96
2.19800	-96
2.20167	-95
2.20533	-95
2.20900	-95
2.21267	-94
2.21633	-93
2.22000	-93
2.22367	-92
2.22733	-92
2.23100	-91
2.23467	-91
2.23833	-90
2.24200	-90
2.24567	-90
2.24933	-90
2.25300	-90
2.25667	-90
2.26033	-91
2.26400	-91
2.26767	-91
2.27133	-90
2.27500	-90
2.27867	-90
2.28233	-89
2.28600	-89
2.28967	-88
2.29333	-88
2.29700	-87
2.30067	-87
2.30433	-87
2.30800	-87
2.31167	-86
2.31533	-86
2.31900	-86
2.32267	-86
2.32633	-85
2.33000	-85
2.33367	-85
2.33733	-85
2.34100	-84
2.34467	-84
2.34833	-83
2.35200	-81
2.35567	-79
2.35933	-77
2.36300	-75
2.36667	-73
2.37033	-70
2.37400	-67
2.37767	-64
2.38133	-61
2.38500	-57
2.38867	-53
2.39233	-49
2.39600	-45
2.39967	-41
2.40333	-37
2.40700	-33
2.41067	-29
2.41433	-25
2.41800	-22
2.42167	-19
2.42533	-17
2.42900	-16
2.43267	-15
2.43633	-14
2.44000	-14
2.44367	-13
2.44733	-13
2.45100	-12
2.45467	-11
2.45833	-10
2.46200	-9
2.46567	-8
2.46933	-7
2.47300	-6
2.47667	-5
2.48033	-3
2.48400	-2
2.48767	-1
2.49133	0
2.49500	1
2.49867	2
2.50233	3
2.50600	4
2.50967	6
2.51333	7
2.51700	8
2.52067	8
2.52433	9
2.52800	9
2.53167	9
2.53533	9
2.53900	9
2.54267	9
2.54633	9
2.55000	9
2.55367	10
2.55733	10
2.56100	10
2.56467	10
2.56833	10
2.57200	10
2.57567	10
2.57933	11
2.58300	11
2.58667	11
2.59033	11
2.59400	11
2.59767	12
2.60133	12
2.60500	12
2.60867	13
2.61233	13
2.61600	13
2.61967	13
2.62333	13
2.62700	13
2.63067	14
2.63433	14
2.63800	14
2.64167	14
2.64533	13
2.64900	13
2.65267	13
2.65633	13
2.66000	12
2.66367	12
2.66733	13
2.67100	13
2.67467	13
2.67833	14
2.68200	14
2.68567	15
2.68933	15
2.69300	16
2.69667	17
2.70033	18
2.70400	18
2.70767	19
2.71133	19
2.71500	19
2.71867	19
2.72233	19
2.72600	19
2.72967	19
2.73333	19
2.73700	19
2.74067	19
2.74433	19
2.74800	20
2.75167	20
2.75533	20
2.75900	21
2.76267	21
2.76633	21
2.77000	22
2.77367	22
2.77733	22
2.78100	22
2.78467	23
2.78833	23
2.79200	23
2.79567	23
2.79933	24
2.80300	24
2.80667	24
2.81033	24
2.81400	24
2.81767	24
2.82133	23
2.82500	22
2.82867	22
2.83233	21
2.83600	20
2.83967	19
2.84333	17
2.84700	13
2.85067	7
2.85433	-2
2.85800	-14
2.86167	-29
2.86533	-49
2.86900	-74
2.87267	-102
2.87633	-135
2.88000	-173
2.88367	-214
2.88733	-258
2.89100	-306
2.89467	-356
2.89833	-409
2.90200	-462
2.90567	-517
2.90933	-572
2.91300	-627
2.91667	-682
2.92033	-735
2.92400	-787
2.92767	-838
2.93133	-889
2.93500	-944
2.93867	-1001
2.94233	-1054
2.94600	-1090
2.94967	-1103
2.95333	-1090
2.95700	-1054
2.96067	-998
2.96433	-929
2.96800	-852
2.97167	-772
2.97533	-692
2.97900	-615
2.98267	-542
2.98633	-474
2.99000	-413
2.99367	-358
2.99733	-308
3.00100	-265
3.00467	-226
3.00833	-193
3.01200	-164
3.01567	-139
3.01933	-117
3.02300	-99
3.02667	-83
3.03033	-69
3.03400	-57
3.03767	-47
3.04133	-39
3.04500	-32
3.04867	-26
3.05233	-20
3.05600	-16
3.05967	-12
3.06333	-8
3.06700	-6
3.07067	-3
3.07433	-1
3.07800	0
3.08167	2
3.08533	3
3.08900	4
3.09267	5
3.09633	6
3.10000	6
3.10367	7
3.10733	8
3.11100	8
3.11467	9
3.11833	10
3.12200	10
3.12567	11
3.12933	11
3.13300	12
3.13667	12
3.14033	13
3.14400	13
3.14767	14
3.15133	14
3.15500	14
3.15867	14
3.16233	15
3.16600	15
3.16967	15
3.17333	15
3.17700	15
3.18067	14
3.18433	14
3.18800	14
3.19167	14
3.19533	14
3.19900	14
3.20267	14
3.20633	14
3.21000	15
3.21367	15
3.21733	15
3.22100	15
3.22467	15
3.22833	16
3.23200	16
3.23567	16
3.23933	16
3.24300	17
3.24667	17
3.25033	17
3.25400	17
3.25767	17
3.26133	17
3.26500	17
3.26867	17
3.27233	17
3.27600	18
3.27967	18
3.28333	19
3.28700	19
3.29067	19
3.29433	20
3.29800	20
3.30167	21
3.30533	21
3.30900	21
3.31267	22
3.31633	22
3.32000	22
3.32367	22
3.32733	22
3.33100	23
3.33467	23
3.33833	23
3.34200	23
3.34567	23
3.34933	23
3.35300	23
3.35667	23
3.36033	23
3.36400	23
3.36767	23
3.37133	23
3.37500	23
3.37867	23
3.38233	23
3.38600	23
3.38967	23
3.39333	22
3.39700	22
3.40067	22
3.40433	22
3.40800	22
3.41167	22
3.41533	22
3.41900	22
3.42267	23
3.42633	23
3.43000	23
3.43367	23
3.43733	23
3.44100	24
3.44467	24
3.44833	24
3.45200	25
3.45567	25
3.45933	25
3.46300	25
3.46667	24
3.47033	24
3.47400	24
3.47767	24
3.48133	24
3.48500	23
3.48867	23
3.49233	23
3.49600	23
3.49967	23
3.50333	23
3.50700	23
3.51067	23
3.51433	23
3.51800	22
3.52167	22
3.52533	22
3.52900	22
3.53267	22
3.53633	22
3.54000	23
3.54367	23
3.54733	23
3.55100	23
3.55467	23
3.55833	23
3.56200	23
3.56567	23
3.56933	23
3.57300	23
3.57667	23
3.58033	22
3.58400	22
3.58767	22
3.59133	22
3.59500	22
3.59867	22
3.60233	22
3.60600	22
3.60967	23
3.61333	23
3.61700	23
3.62067	23
3.62433	23
3.62800	23
3.63167	23
3.63533	23
3.63900	23
3.64267	23
3.64633	23
3.65000	23
3.65367	23
3.65733	23
3.66100	23
3.66467	23
3.66833	23
3.67200	23
3.67567	23
3.67933	23
3.68300	23
3.68667	23
3.69033	23
3.69400	23
3.69767	23
3.70133	23
3.70500	23
3.70867	23
3.71233	23
3.71600	23
3.71967	23
3.72333	23
3.72700	22
3.73067	22
3.73433	22
3.73800	22
3.74167	22
3.74533	22
3.74900	21
3.75267	21
3.75633	21
3.76000	22
3.76367	22
3.76733	22
3.77100	22
3.77467	22
3.77833	23
3.78200	23
3.78567	23
3.78933	23
3.79300	24
3.79667	24
3.80033	24
3.80400	24
3.80767	24
3.81133	24
3.81500	24
3.81867	24
3.82233	24
3.82600	24
3.82967	24
3.83333	24
3.83700	24
3.84067	24
3.84433	24
3.84800	24
3.85167	24
3.85533	23
3.85900	23
3.86267	23
3.86633	23
3.87000	22
3.87367	22
3.87733	22
3.88100	21
3.88467	21
3.88833	21
3.89200	21
3.89567	21
3.89933	21
3.90300	21
3.90667	21
3.91033	21
3.91400	22
3.91767	21
3.92133	21
3.92500	21
3.92867	21
3.93233	20
3.93600	20
3.93967	20
3.94333	20
3.94700	20
3.95067	20
3.95433	20
3.95800	20
3.96167	20
3.96533	20
3.96900	20
3.97267	20
3.97633	20
3.98000	20
3.98367	21
3.98733	21
3.99100	21
3.99467	21
3.99833	21

[Chromatogram (Ch3)]
Interval(msec)	220
# of Points	1091
Start Time(min)	0.002
End Time(min)	3.998
R.Time (min)	Intensity
0.00167	-0
0.00533	-1
0.00900	-0
0.01267	1
0.01633	1
0.02000	-0
0.02367	-2
0.02733	-1
0.03100	1
0.03467	1
0.03833	2
0.04200	5
0.04567	5
0.04933	4
0.05300	3
0.05667	2
0.06033	-0
0.06400	1
0.06767	3
0.07133	3
0.07500	0
0.07867	-2
0.08233	-2
0.08600	0
0.08967	2
0.09333	3
0.09700	6
0.10067	7
0.10433	7
0.10800	7
0.11167	8
0.11533	7
0.11900	6
0.12267	4
0.12633	3
0.13000	3
0.13367	1
0.13733	1
0.14100	3
0.14467	4
0.14833	5
0.15200	5
0.15567	3
0.15933	3
0.16300	4
0.16667	4
0.17033	3
0.17400	2
0.17767	1
0.18133	1
0.18500	1
0.18867	4
0.19233	5
0.19600	4
0.19967	1
0.20333	-2
0.20700	-3
0.21067	-2
0.21433	-1
0.21800	-2
0.22167	-3
0.22533	-3
0.22900	-3
0.23267	-2
0.23633	-1
0.24000	1
0.24367	-0
0.24733	-2
0.25100	-3
0.25467	-2
0.25833	-2
0.26200	-4
0.26567	-6
0.26933	-7
0.27300	-8
0.27667	-8
0.28033	-7
0.28400	-7
0.28767	-7
0.29133	-7
0.29500	-8
0.29867	-10
0.30233	-11
0.30600	-11
0.30967	-12
0.31333	-13
0.31700	-13
0.32067	-11
0.32433	-10
0.32800	-10
0.33167	-10
0.33533	-8
0.33900	-8
0.34267	-7
0.34633	-5
0.35000	-4
0.35367	-5
0.35733	-6
0.36100	-6
0.36467	-5
0.36833	-3
0.37200	-4
0.37567	-6
0.37933	-4
0.38300	-3
0.38667	-3
0.39033	-5
0.39400	-7
0.39767	-9
0.40133	-11
0.40500	-11
0.40867	-12
0.41233	-12
0.41600	-11
0.41967	-9
0.42333	-7
0.42700	-7
0.43067	-9
0.43433	-10
0.43800	-9
0.44167	-9
0.44533	-8
0.44900	-9
0.45267	-9
0.45633	-9
0.46000	-8
0.46367	-5
0.46733	-4
0.47100	-4
0.47467	-4
0.47833	-7
0.48200	-11
0.48567	-12
0.48933	-11
0.49300	-11
0.49667	-11
0.50033	-7
0.50400	-5
0.50767	-4
0.51133	-5
0.51500	-6
0.51867	-6
0.52233	-5
0.52600	-5
0.52967	-6
0.53333	-6
0.53700	-5
0.54067	-6
0.54433	-8
0.54800	-9
0.55167	-10
0.55533	-8
0.55900	-7
0.56267	-7
0.56633	-6
0.57000	-6
0.57367	-7
0.57733	-6
0.58100	-6
0.58467	-6
0.58833	-7
0.59200	-8
0.59567	-8
0.59933	-9
0.60300	-8
0.60667	-6
0.61033	-5
0.61400	-5
0.61767	-7
0.62133	-9
0.62500	-9
0.62867	-10
0.63233	-10
0.63600	-8
0.63967	-6
0.64333	-5
0.64700	-5
0.65067	-6
0.65433	-8
0.65800	-9
0.66167	-10
0.66533	-9
0.66900	-8
0.67267	-7
0.67633	-7
0.68000	-4
0.68367	-3
0.68733	-3
0.69100	-5
0.69467	-7
0.69833	-8
0.70200	-6
0.70567	-7
0.70933	-7
0.71300	-6
0.71667	-6
0.72033	-5
0.72400	-6
0.72767	-7
0.73133	-9
0.73500	-12
0.73867	-13
0.74233	-14
0.74600	-12
0.74967	-9
0.75333	-8
0.75700	-9
0.76067	-10
0.76433	-11
0.76800	-14
0.77167	-14
0.77533	-11
0.77900	-9
0.78267	-7
0.78633	-7
0.79000	-7
0.79367	-8
0.79733	-12
0.80100	-13
0.80467	-12
0.80833	-11
0.81200	-9
0.81567	-8
0.81933	-9
0.82300	-11
0.82667	-11
0.83033	-10
0.83400	-9
0.83767	-9
0.84133	-9
0.84500	-8
0.84867	-8
0.85233	-9
0.85600	-10
0.85967	-12
0.86333	-10
0.86700	-8
0.87067	-6
0.87433	-6
0.87800	-7
0.88167	-9
0.88533	-10
0.88900	-8
0.89267	-8
0.89633	-6
0.90000	-6
0.90367	-7
0.90733	-7
0.91100	-7
0.91467	-8
0.91833	-9
0.92200	-9
0.92567	-9
0.92933	-10
0.93300	-9
0.93667	-9
0.94033	-8
0.94400	-8
0.94767	-8
0.95133	-10
0.95500	-10
0.95867	-11
0.96233	-12
0.96600	-11
0.96967	-9
0.97333	-9
0.97700	-11
0.98067	-11
0.98433	-11
0.98800	-10
0.99167	-8
0.99533	-8
0.99900	-9
1.00267	-7
1.00633	-6
1.01000	-3
1.01367	-2
1.01733	-3
1.02100	-5
1.02467	-7
1.02833	-8
1.03200	-10
1.03567	-10
1.03933	-8
1.04300	-8
1.04667	-9
1.05033	-9
1.05400	-7
1.05767	-7
1.06133	-6
1.06500	-3
1.06867	-2
1.07233	-1
1.07600	-1
1.07967	1
1.08333	1
1.08700	2
1.09067	3
1.09433	0
1.09800	-3
1.10167	-5
1.10533	-4
1.10900	-4
1.11267	-6
1.11633	-4
1.12000	-4
1.12367	-3
1.12733	-2
1.13100	-1
1.13467	2
1.13833	5
1.14200	7
1.14567	7
1.14933	7
1.15300	8
1.15667	7
1.16033	5
1.16400	3
1.16767	4
1.17133	6
1.17500	8
1.17867	10
1.18233	13
1.18600	12
1.18967	10
1.19333	8
1.19700	7
1.20067	7
1.20433	9
1.20800	11
1.21167	14
1.21533	14
1.21900	12
1.22267	10
1.22633	9
1.23000	10
1.23367	10
1.23733	10
1.24100	11
1.24467	14
1.24833	16
1.25200	17
1.25567	18
1.25933	19
1.26300	18
1.26667	18
1.27033	20
1.27400	21
1.27767	21
1.28133	21
1.28500	18
1.28867	16
1.29233	17
1.29600	18
1.29967	17
1.30333	15
1.30700	14
1.31067	12
1.31433	8
1.31800	4
1.32167	4
1.32533	6
1.32900	7
1.33267	8
1.33633	8
1.34000	9
1.34367	10
1.34733	9
1.35100	9
1.35467	9
1.35833	10
1.36200	11
1.36567	11
1.36933	12
1.37300	11
1.37667	11
1.38033	12
1.38400	13
1.38767	13
1.39133	12
1.39500	11
1.39867	13
1.40233	16
1.40600	16
1.40967	17
1.41333	17
1.41700	15
1.42067	13
1.42433	12
1.42800	12
1.43167	13
1.43533	12
1.43900	11
1.44267	10
1.44633	9
1.45000	10
1.45367	11
1.45733	10
1.46100	12
1.46467	15
1.46833	18
1.47200	18
1.47567	16
1.47933	14
1.48300	11
1.48667	10
1.49033	11
1.49400	13
1.49767	12
1.50133	9
1.50500	8
1.50867	9
1.51233	11
1.51600	11
1.51967	12
1.52333	12
1.52700	12
1.53067	11
1.53433	11
1.53800	10
1.54167	9
1.54533	10
1.54900	11
1.55267	13
1.55633	13
1.56000	15
1.56367	13
1.56733	11
1.57100	8
1.57467	7
1.57833	6
1.58200	6
1.58567	7
1.58933	8
1.59300	8
1.59667	9
1.60033	12
1.60400	13
1.60767	12
1.61133	13
1.61500	15
1.61867	14
1.62233	15
1.62600	15
1.62967	15
1.63333	14
1.63700	13
1.64067	11
1.64433	11
1.64800	12
1.65167	16
1.65533	16
1.65900	14
1.66267	15
1.66633	15
1.67000	16
1.67367	17
1.67733	17
1.68100	17
1.68467	17
1.68833	19
1.69200	21
1.69567	24
1.69933	27
1.70300	29
1.70667	27
1.71033	25
1.71400	25
1.71767	26
1.72133	24
1.72500	22
1.72867	23
1.73233	24
1.73600	24
1.73967	24
1.74333	25
1.74700	27
1.75067	28
1.75433	29
1.75800	32
1.76167	35
1.76533	35
1.76900	32
1.77267	31
1.77633	33
1.78000	36
1.78367	36
1.78733	36
1.79100	36
1.79467	36
1.79833	36
1.80200	36
1.80567	38
1.80933	40
1.81300	41
1.81667	42
1.82033	44
1.82400	46
1.82767	46
1.83133	44
1.83500	42
1.83867	41
1.84233	42
1.84600	43
1.84967	43
1.85333	44
1.85700	48
1.86067	49
1.86433	51
1.86800	51
1.87167	53
1.87533	55
1.87900	57
1.88267	56
1.88633	55
1.89000	54
1.89367	55
1.89733	54
1.90100	54
1.90467	57
1.90833	60
1.91200	64
1.91567	67
1.91933	69
1.92300	69
1.92667	70
1.93033	72
1.93400	74
1.93767	75
1.94133	77
1.94500	77
1.94867	78
1.95233	78
1.95600	78
1.95967	78
1.96333	79
1.96700	83
1.97067	84
1.97433	83
1.97800	83
1.98167	84
1.98533	84
1.98900	84
1.99267	83
1.99633	83
2.00000	83
2.00367	84
2.00733	86
2.01100	89
2.01467	92
2.01833	93
2.02200	96
2.02567	99
2.02933	101
2.03300	100
2.03667	96
2.04033	96
2.04400	98
2.04767	99
2.05133	98
2.05500	97
2.05867	97
2.06233	100
2.06600	101
2.06967	102
2.07333	103
2.07700	105
2.08067	104
2.08433	104
2.08800	107
2.09167	110
2.09533	115
2.09900	119
2.10267	121
2.10633	123
2.11000	125
2.11367	127
2.11733	127
2.12100	126
2.12467	126
2.12833	126
2.13200	126
2.13567	127
2.13933	126
2.14300	127
2.14667	129
2.15033	135
2.15400	139
2.15767	143
2.16133	144
2.16500	145
2.16867	148
2.17233	150
2.17600	152
2.17967	152
2.18333	153
2.18700	154
2.19067	155
2.19433	154
2.19800	154
2.20167	157
2.20533	162
2.20900	167
2.21267	169
2.21633	170
2.22000	171
2.22367	173
2.22733	175
2.23100	178
2.23467	179
2.23833	178
2.24200	178
2.24567	178
2.24933	180
2.25300	181
2.25667	180
2.26033	180
2.26400	180
2.26767	180
2.27133	181
2.27500	183
2.27867	186
2.28233	187
2.28600	191
2.28967	195
2.29333	197
2.29700	198
2.30067	196
2.30433	198
2.30800	201
2.31167	204
2.31533	206
2.31900	208
2.32267	208
2.32633	207
2.33000	208
2.33367	211
2.33733	213
2.34100	214
2.34467	215
2.34833	216
2.35200	216
2.35567	216
2.35933	217
2.36300	218
2.36667	220
2.37033	223
2.37400	226
2.37767	228
2.38133	230
2.38500	231
2.38867	230
2.39233	230
2.39600	232
2.39967	234
2.40333	236
2.40700	238
2.41067	243
2.41433	248
2.41800	254
2.42167	258
2.42533	260
2.42900	261
2.43267	260
2.43633	259
2.44000	262
2.44367	320
2.44733	472
2.45100	638
2.45467	775
2.45833	854
2.46200	860
2.46567	823
2.46933	778
2.47300	743
2.47667	724
2.48033	709
2.48400	685
2.48767	644
2.49133	595
2.49500	547
2.49867	507
2.50233	478
2.50600	458
2.50967	447
2.51333	446
2.51700	454
2.52067	469
2.52433	488
2.52800	506
2.53167	518
2.53533	521
2.53900	510
2.54267	492
2.54633	466
2.55000	435
2.55367	406
2.55733	380
2.56100	355
2.56467	335
2.56833	321
2.57200	312
2.57567	305
2.57933	302
2.58300	301
2.58667	301
2.59033	300
2.59400	297
2.59767	294
2.60133	288
2.60500	279
2.60867	267
2.61233	255
2.61600	244
2.61967	233
2.62333	227
2.62700	223
2.63067	220
2.63433	218
2.63800	220
2.64167	224
2.64533	227
2.64900	230
2.65267	231
2.65633	230
2.66000	228
2.66367	224
2.66733	219
2.67100	212
2.67467	205
2.67833	196
2.68200	187
2.68567	180
2.68933	172
2.69300	164
2.69667	157
2.70033	152
2.70400	147
2.70767	143
2.71133	141
2.71500	140
2.71867	138
2.72233	138
2.72600	138
2.72967	138
2.73333	140
2.73700	142
2.74067	141
2.74433	140
2.74800	143
2.75167	146
2.75533	150
2.75900	151
2.76267	152
2.76633	154
2.77000	156
2.77367	159
2.77733	159
2.78100	159
2.78467	158
2.78833	158
2.79200	158
2.79567	160
2.79933	162
2.80300	164
2.80667	165
2.81033	164
2.81400	167
2.81767	175
2.82133	193
2.82500	227
2.82867	289
2.83233	401
2.83600	585
2.83967	863
2.84333	1247
2.84700	1740
2.85067	2316
2.85433	2941
2.85800	3570
2.86167	4146
2.86533	4624
2.86900	4967
2.87267	5160
2.87633	5204
2.88000	5116
2.88367	4916
2.88733	4635
2.89100	4305
2.89467	3949
2.89833	3588
2.90200	3233
2.90567	2897
2.90933	2583
2.91300	2296
2.91667	2039
2.92033	1808
2.92400	1604
2.92767	1426
2.93133	1268
2.93500	1129
2.93867	1008
2.94233	901
2.94600	809
2.94967	729
2.95333	661
2.95700	603
2.96067	550
2.96433	503
2.96800	464
2.97167	429
2.97533	398
2.97900	371
2.98267	346
2.98633	324
2.99000	303
2.99367	284
2.99733	269
3.00100	257
3.00467	247
3.00833	237
3.01200	229
3.01567	216
3.01933	194
3.02300	175
3.02667	169
3.03033	172
3.03400	181
3.03767	196
3.04133	215
3.04500	239
3.04867	268
3.05233	299
3.05600	333
3.05967	365
3.06333	395
3.06700	421
3.07067	446
3.07433	466
3.07800	484
3.08167	500
3.08533	514
3.08900	525
3.09267	534
3.09633	541
3.10000	546
3.10367	552
3.10733	560
3.11100	565
3.11467	569
3.11833	572
3.12200	575
3.12567	579
3.12933	582
3.13300	583
3.13667	585
3.14033	588
3.14400	593
3.14767	597
3.15133	600
3.15500	603
3.15867	604
3.16233	605
3.16600	607
3.16967	609
3.17333	610
3.17700	613
3.18067	617
3.18433	617
3.18800	618
3.19167	618
3.19533	619
3.19900	619
3.20267	622
3.20633	626
3.21000	629
3.21367	633
3.21733	635
3.22100	635
3.22467	635
3.22833	638
3.23200	642
3.23567	645
3.23933	646
3.24300	647
3.24667	648
3.25033	651
3.25400	654
3.25767	657
3.26133	662
3.26500	664
3.26867	665
3.27233	666
3.27600	669
3.27967	672
3.28333	676
3.28700	677
3.29067	676
3.29433	678
3.29800	680
3.30167	684
3.30533	687
3.30900	690
3.31267	693
3.31633	695
3.32000	696
3.32367	699
3.32733	701
3.33100	702
3.33467	702
3.33833	702
3.34200	702
3.34567	700
3.34933	697
3.35300	696
3.35667	694
3.36033	695
3.36400	696
3.36767	696
3.37133	697
3.37500	698
3.37867	699
3.38233	699
3.38600	700
3.38967	699
3.39333	697
3.39700	694
3.40067	692
3.40433	692
3.40800	693
3.41167	693
3.41533	692
3.41900	687
3.42267	683
3.42633	681
3.43000	679
3.43367	680
3.43733	680
3.44100	678
3.44467	677
3.44833	676
3.45200	676
3.45567	674
3.45933	674
3.46300	673
3.46667	672
3.47033	669
3.47400	667
3.47767	667
3.48133	667
3.48500	665
3.48867	666
3.49233	665
3.49600	663
3.49967	659
3.50333	658
3.50700	658
3.51067	658
3.51433	656
3.51800	654
3.52167	653
3.52533	650
3.52900	649
3.53267	649
3.53633	647
3.54000	648
3.54367	649
3.54733	648
3.55100	647
3.55467	645
3.55833	643
3.56200	640
3.56567	637
3.56933	633
3.57300	632
3.57667	631
3.58033	631
3.58400	631
3.58767	632
3.59133	631
3.59500	630
3.59867	629
3.60233	631
3.60600	632
3.60967	633
3.61333	632
3.61700	631
3.62067	632
3.62433	631
3.62800	631
3.63167	633
3.63533	634
3.63900	635
3.64267	635
3.64633	632
3.65000	632
3.65367	632
3.65733	634
3.66100	637
3.66467	639
3.66833	638
3.67200	636
3.67567	635
3.67933	633
3.68300	635
3.68667	636
3.69033	634
3.69400	634
3.69767	636
3.70133	638
3.70500	637
3.70867	634
3.71233	633
3.71600	630
3.71967	628
3.72333	627
3.72700	627
3.73067	625
3.73433	625
3.73800	625
3.74167	625
3.74533	624
3.74900	624
3.75267	623
3.75633	621
3.76000	619
3.76367	617
3.76733	616
3.77100	616
3.77467	618
3.77833	620
3.78200	618
3.78567	615
3.78933	612
3.79300	610
3.79667	608
3.80033	604
3.80400	600
3.80767	599
3.81133	599
3.81500	598
3.81867	598
3.82233	597
3.82600	594
3.82967	592
3.83333	592
3.83700	591
3.84067	591
3.84433	592
3.84800	589
3.85167	584
3.85533	583
3.85900	582
3.86267	582
3.86633	583
3.87000	585
3.87367	585
3.87733	583
3.88100	583
3.88467	583
3.88833	582
3.89200	579
3.89567	576
3.89933	572
3.90300	569
3.90667	568
3.91033	568
3.91400	565
3.91767	563
3.92133	562
3.92500	562
3.92867	563
3.93233	564
3.93600	562
3.93967	557
3.94333	553
3.94700	550
3.95067	548
3.95433	548
3.95800	548
3.96167	547
3.96533	546
3.96900	545
3.97267	544
3.97633	543
3.98000	540
3.98367	539
3.98733	537
3.99100	536
3.99467	535
3.99833	530

[Status Trace (Column Oven Temperature)]
Interval(msec)	1000
# of Points	240
Start Time(min)	0.007
End Time(min)	3.990
Intensity Units	
Intensity Multiplier	1
R.Time (min)	Intensity
0.00702	35.06
0.02368	35.05
0.04035	35.05
0.05702	35.04
0.07368	35.04
0.09035	35.04
0.10702	35.05
0.12368	35.05
0.14035	35.06
0.15702	35.05
0.17368	35.04
0.19035	35.04
0.20702	35.03
0.22368	35.03
0.24035	35.02
0.25702	35.02
0.27368	35.02
0.29035	35.00
0.30702	34.99
0.32368	34.99
0.34035	34.98
0.35702	34.99
0.37368	35.00
0.39035	35.01
0.40702	35.02
0.42368	35.03
0.44035	35.03
0.45702	35.03
0.47368	35.01
0.49035	35.01
0.50702	35.01
0.52368	35.00
0.54035	35.00
0.55702	35.00
0.57368	35.00
0.59035	35.00
0.60702	35.01
0.62368	35.01
0.64035	35.01
0.65702	35.01
0.67368	35.01
0.69035	35.00
0.70702	35.00
0.72368	35.01
0.74035	35.01
0.75702	35.02
0.77368	35.02
0.79035	35.02
0.80702	35.03
0.82368	35.03
0.84035	35.03
0.85702	35.03
0.87368	35.03
0.89035	35.03
0.90702	35.02
0.92368	35.02
0.94035	35.02
0.95702	35.01
0.97368	35.01
0.99035	35.01
1.00702	35.00
1.02368	34.99
1.04035	34.98
1.05702	34.97
1.07368	34.97
1.09035	34.97
1.10702	34.97
1.12368	34.98
1.14035	34.99
1.15702	34.98
1.17368	34.99
1.19035	34.99
1.20702	35.00
1.22368	35.00
1.24035	35.00
1.25702	35.00
1.27368	34.99
1.29035	35.00
1.30702	35.00
1.32368	35.00
1.34035	35.00
1.35702	35.00
1.37368	35.00
1.39035	35.00
1.40702	35.01
1.42368	34.99
1.44035	34.97
1.45702	34.96
1.47368	34.97
1.49035	34.99
1.50702	35.01
1.52368	35.01
1.54035	35.01
1.55702	35.01
1.57368	35.01
1.59035	35.01
1.60702	35.07
1.62368	35.18
1.64035	35.37
1.65702	35.62
1.67368	35.95
1.69035	36.30
1.70702	36.65
1.72368	36.99
1.74035	37.33
1.75702	37.67
1.77368	37.98
1.79035	38.33
1.80702	38.68
1.82368	38.98
1.84035	39.29
1.85702	39.62
1.87368	39.95
1.89035	40.28
1.90702	40.61
1.92368	40.94
1.94035	41.27
1.95702	41.59
1.97368	41.91
1.99035	42.23
2.00702	42.58
2.02368	42.90
2.04035	43.23
2.05702	43.55
2.07368	43.89
2.09035	44.21
2.10702	44.56
2.12368	44.87
2.14035	45.20
2.15702	45.53
2.17368	45.86
2.19035	46.18
2.20702	46.51
2.22368	46.84
2.24035	47.15
2.25702	47.48
2.27368	47.81
2.29035	48.15
2.30702	48.49
2.32368	48.82
2.34035	49.15
2.35702	49.42
2.37368	49.58
2.39035	49.64
2.40702	49.62
2.42368	49.62
2.44035	49.64
2.45702	49.65
2.47368	49.66
2.49035	49.67
2.50702	49.66
2.52368	49.68
2.54035	49.70
2.55702	49.72
2.57368	49.73
2.59035	49.74
2.60702	49.74
2.62368	49.75
2.64035	49.77
2.65702	49.81
2.67368	49.82
2.69035	49.82
2.70702	49.83
2.72368	49.85
2.74035	49.86
2.75702	49.86
2.77368	49.86
2.79035	49.85
2.80702	49.84
2.82368	49.87
2.84035	49.89
2.85702	49.91
2.87368	49.93
2.89035	49.93
2.90702	49.93
2.92368	49.92
2.94035	49.92
2.95702	49.92
2.97368	49.93
2.99035	49.94
3.00702	49.94
3.02368	49.94
3.04035	49.94
3.05702	49.95
3.07368	49.96
3.09035	49.98
3.10702	49.99
3.12368	49.99
3.14035	50.00
3.15702	50.01
3.17368	50.03
3.19035	50.06
3.20702	50.07
3.22368	50.09
3.24035	50.10
3.25702	50.11
3.27368	50.11
3.29035	50.10
3.30702	50.09
3.32368	50.08
3.34035	50.08
3.35702	50.07
3.37368	50.07
3.39035	50.07
3.40702	50.07
3.42368	50.07
3.44035	50.06
3.45702	50.06
3.47368	50.05
3.49035	50.06
3.50702	50.06
3.52368	50.05
3.54035	50.05
3.55702	50.06
3.57368	50.06
3.59035	50.06
3.60702	50.06
3.62368	50.06
3.64035	50.05
3.65702	50.06
3.67368	50.06
3.69035	50.06
3.70702	50.05
3.72368	50.06
3.74035	50.07
3.75702	50.07
3.77368	50.07
3.79035	50.06
3.80702	50.04
3.82368	50.03
3.84035	50.02
3.85702	50.03
3.87368	50.03
3.89035	50.04
3.90702	50.04
3.92368	50.06
3.94035	50.06
3.95702	50.07
3.97368	50.07
3.99035	50.07

[Status Trace (Injection Unit Temperature)]
Interval(msec)	1000
# of Points	240
Start Time(min)	0.007
End Time(min)	3.990
Intensity Units	
Intensity Multiplier	1
R.Time (min)	Intensity
0.00702	99.98
0.02368	99.98
0.04035	99.98
0.05702	99.98
0.07368	99.98
0.09035	99.98
0.10702	99.98
0.12368	99.98
0.14035	99.98
0.15702	99.98
0.17368	99.98
0.19035	99.98
0.20702	99.98
0.22368	99.98
0.24035	99.98
0.25702	99.98
0.27368	99.98
0.29035	99.98
0.30702	99.98
0.32368	99.98
0.34035	99.98
0.35702	99.98
0.37368	99.99
0.39035	99.98
0.40702	99.99
0.42368	99.99
0.44035	99.98
0.45702	99.98
0.47368	99.98
0.49035	99.98
0.50702	99.98
0.52368	99.98
0.54035	99.99
0.55702	99.98
0.57368	99.98
0.59035	99.98
0.60702	99.98
0.62368	99.98
0.64035	99.98
0.65702	99.98
0.67368	99.98
0.69035	99.98
0.70702	99.98
0.72368	99.98
0.74035	99.99
0.75702	99.98
0.77368	99.98
0.79035	99.98
0.80702	99.98
0.82368	99.98
0.84035	99.98
0.85702	99.98
0.87368	99.98
0.89035	99.98
0.90702	99.98
0.92368	99.98
0.94035	99.99
0.95702	99.98
0.97368	99.99
0.99035	99.98
1.00702	99.98
1.02368	99.98
1.04035	99.99
1.05702	99.99
1.07368	99.98
1.09035	99.99
1.10702	99.99
1.12368	99.99
1.14035	99.99
1.15702	99.98
1.17368	99.99
1.19035	99.99
1.20702	99.99
1.22368	99.99
1.24035	99.99
1.25702	99.99
1.27368	99.99
1.29035	99.98
1.30702	99.98
1.32368	99.99
1.34035	99.99
1.35702	99.99
1.37368	99.99
1.39035	99.98
1.40702	99.98
1.42368	99.99
1.44035	99.99
1.45702	99.98
1.47368	99.99
1.49035	99.98
1.50702	99.98
1.52368	99.99
1.54035	99.99
1.55702	99.98
1.57368	99.99
1.59035	99.99
1.60702	99.99
1.62368	99.99
1.64035	99.99
1.65702	99.99
1.67368	99.99
1.69035	99.98
1.70702	99.99
1.72368	99.99
1.74035	99.99
1.75702	99.99
1.77368	99.99
1.79035	99.99
1.80702	99.99
1.82368	99.98
1.84035	99.98
1.85702	99.98
1.87368	99.98
1.89035	99.98
1.90702	99.98
1.92368	99.98
1.94035	99.98
1.95702	99.98
1.97368	99.98
1.99035	99.98
2.00702	99.98
2.02368	99.98
2.04035	99.98
2.05702	99.98
2.07368	99.98
2.09035	99.97
2.10702	99.97
2.12368	99.98
2.14035	99.97
2.15702	99.97
2.17368	99.97
2.19035	99.97
2.20702	99.97
2.22368	99.97
2.24035	99.97
2.25702	99.97
2.27368	99.97
2.29035	99.97
2.30702	99.96
2.32368	99.96
2.34035	99.97
2.35702	99.97
2.37368	99.97
2.39035	99.97
2.40702	99.96
2.42368	99.97
2.44035	99.97
2.45702	99.97
2.47368	99.97
2.49035	99.97
2.50702	99.97
2.52368	99.97
2.54035	99.97
2.55702	99.97
2.57368	99.98
2.59035	99.97
2.60702	99.97
2.62368	99.98
2.64035	99.97
2.65702	99.98
2.67368	99.98
2.69035	99.98
2.70702	99.98
2.72368	99.98
2.74035	99.98
2.75702	99.99
2.77368	99.99
2.79035	99.99
2.80702	99.99
2.82368	99.99
2.84035	99.99
2.85702	99.99
2.87368	100.00
2.89035	100.00
2.90702	100.00
2.92368	100.00
2.94035	100.00
2.95702	100.00
2.97368	100.01
2.99035	100.01
3.00702	100.01
3.02368	100.01
3.04035	100.01
3.05702	100.01
3.07368	100.01
3.09035	100.02
3.10702	100.02
3.12368	100.02
3.14035	100.02
3.15702	100.02
3.17368	100.02
3.19035	100.02
3.20702	100.02
3.22368	100.02
3.24035	100.03
3.25702	100.03
3.27368	100.03
3.29035	100.03
3.30702	100.03
3.32368	100.03
3.34035	100.03
3.35702	100.03
3.37368	100.03
3.39035	100.03
3.40702	100.03
3.42368	100.03
3.44035	100.03
3.45702	100.03
3.47368	100.04
3.49035	100.04
3.50702	100.04
3.52368	100.04
3.54035	100.04
3.55702	100.04
3.57368	100.05
3.59035	100.04
3.60702	100.05
3.62368	100.05
3.64035	100.05
3.65702	100.05
3.67368	100.05
3.69035	100.05
3.70702	100.05
3.72368	100.05
3.74035	100.04
3.75702	100.05
3.77368	100.05
3.79035	100.05
3.80702	100.04
3.82368	100.05
3.84035	100.05
3.85702	100.05
3.87368	100.05
3.89035	100.04
3.90702	100.04
3.92368	100.05
3.94035	100.05
3.95702	100.05
3.97368	100.05
3.99035	100.05

[Status Trace (Carrier Gas Pressure)]
Interval(msec)	1000
# of Points	240
Start Time(min)	0.007
End Time(min)	3.990
Intensity Units	
Intensity Multiplier	1
R.Time (min)	Intensity
0.00702	58.00
0.02368	55.56
0.04035	56.98
0.05702	59.17
0.07368	59.58
0.09035	58.09
0.10702	57.98
0.12368	58.01
0.14035	58.01
0.15702	58.01
0.17368	58.00
0.19035	58.00
0.20702	58.00
0.22368	58.00
0.24035	58.00
0.25702	58.00
0.27368	58.00
0.29035	58.00
0.30702	58.00
0.32368	58.00
0.34035	58.00
0.35702	58.00
0.37368	58.00
0.39035	58.00
0.40702	58.00
0.42368	58.00
0.44035	58.00
0.45702	58.00
0.47368	58.00
0.49035	58.00
0.50702	58.00
0.52368	58.00
0.54035	58.00
0.55702	58.00
0.57368	58.00
0.59035	58.00
0.60702	58.00
0.62368	58.00
0.64035	58.00
0.65702	58.00
0.67368	58.00
0.69035	58.00
0.70702	58.00
0.72368	58.00
0.74035	58.00
0.75702	58.00
0.77368	58.00
0.79035	58.00
0.80702	58.00
0.82368	58.00
0.84035	58.00
0.85702	58.00
0.87368	58.00
0.89035	58.00
0.90702	58.00
0.92368	58.00
0.94035	58.00
0.95702	58.00
0.97368	58.00
0.99035	58.00
1.00702	58.00
1.02368	58.00
1.04035	58.00
1.05702	58.00
1.07368	58.00
1.09035	58.00
1.10702	58.00
1.12368	58.00
1.14035	58.00
1.15702	58.00
1.17368	58.00
1.19035	58.00
1.20702	58.00
1.22368	58.00
1.24035	58.00
1.25702	58.00
1.27368	58.00
1.29035	58.00
1.30702	58.00
1.32368	58.00
1.34035	58.00
1.35702	58.00
1.37368	58.00
1.39035	58.00
1.40702	58.00
1.42368	58.00
1.44035	58.00
1.45702	58.00
1.47368	58.00
1.49035	58.00
1.50702	58.00
1.52368	58.00
1.54035	58.00
1.55702	58.00
1.57368	58.00
1.59035	58.00
1.60702	58.00
1.62368	58.00
1.64035	58.01
1.65702	58.00
1.67368	58.01
1.69035	58.00
1.70702	58.00
1.72368	58.00
1.74035	58.00
1.75702	58.00
1.77368	58.00
1.79035	58.00
1.80702	58.00
1.82368	58.00
1.84035	58.00
1.85702	58.00
1.87368	58.00
1.89035	58.00
1.90702	58.00
1.92368	58.00
1.94035	58.00
1.95702	58.00
1.97368	58.00
1.99035	58.00
2.00702	58.00
2.02368	58.00
2.04035	58.00
2.05702	58.00
2.07368	58.00
2.09035	58.00
2.10702	58.00
2.12368	58.00
2.14035	58.00
2.15702	58.00
2.17368	58.00
2.19035	58.00
2.20702	58.00
2.22368	58.00
2.24035	58.00
2.25702	58.00
2.27368	58.00
2.29035	58.00
2.30702	58.00
2.32368	58.00
2.34035	58.00
2.35702	58.00
2.37368	58.00
2.39035	57.99
2.40702	57.99
2.42368	58.00
2.44035	58.00
2.45702	58.00
2.47368	58.00
2.49035	58.00
2.50702	57.99
2.52368	57.99
2.54035	58.00
2.55702	58.00
2.57368	58.00
2.59035	58.00
2.60702	58.00
2.62368	58.00
2.64035	58.00
2.65702	58.00
2.67368	58.00
2.69035	58.00
2.70702	58.00
2.72368	58.00
2.74035	58.00
2.75702	58.00
2.77368	58.00
2.79035	58.00
2.80702	58.00
2.82368	58.00
2.84035	58.00
2.85702	58.00
2.87368	58.00
2.89035	58.00
2.90702	58.00
2.92368	58.00
2.94035	58.00
2.95702	58.00
2.97368	58.00
2.99035	58.00
3.00702	58.00
3.02368	58.00
3.04035	58.00
3.05702	58.00
3.07368	58.00
3.09035	58.00
3.10702	58.00
3.12368	58.00
3.14035	58.00
3.15702	58.00
3.17368	58.00
3.19035	58.00
3.20702	58.00
3.22368	58.00
3.24035	58.00
3.25702	58.00
3.27368	58.00
3.29035	58.00
3.30702	58.00
3.32368	58.00
3.34035	58.00
3.35702	58.00
3.37368	58.00
3.39035	58.00
3.40702	58.00
3.42368	58.00
3.44035	58.00
3.45702	58.00
3.47368	58.00
3.49035	58.00
3.50702	58.00
3.52368	58.00
3.54035	58.00
3.55702	58.00
3.57368	58.00
3.59035	58.00
3.60702	58.00
3.62368	58.00
3.64035	58.00
3.65702	58.00
3.67368	58.00
3.69035	58.00
3.70702	58.00
3.72368	58.00
3.74035	58.00
3.75702	58.00
3.77368	58.00
3.79035	58.00
3.80702	58.00
3.82368	58.00
3.84035	58.00
3.85702	58.00
3.87368	58.00
3.89035	58.00
3.90702	58.00
3.92368	58.00
3.94035	58.00
3.95702	58.00
3.97368	58.00
3.99035	58.00

[Status Trace (Carrier Gas Flow)]
Interval(msec)	1000
# of Points	240
Start Time(min)	0.007
End Time(min)	3.990
Intensity Units	
Intensity Multiplier	1
R.Time (min)	Intensity
0.00702	34.52
0.02368	34.54
0.04035	34.54
0.05702	34.55
0.07368	34.49
0.09035	34.51
0.10702	34.52
0.12368	34.51
0.14035	34.52
0.15702	34.51
0.17368	34.52
0.19035	34.52
0.20702	34.52
0.22368	34.52
0.24035	34.52
0.25702	34.52
0.27368	34.52
0.29035	34.52
0.30702	34.52
0.32368	34.52
0.34035	34.52
0.35702	34.52
0.37368	34.52
0.39035	34.52
0.40702	34.52
0.42368	34.52
0.44035	34.52
0.45702	34.52
0.47368	34.52
0.49035	34.52
0.50702	34.52
0.52368	34.52
0.54035	34.52
0.55702	34.52
0.57368	34.52
0.59035	34.52
0.60702	34.52
0.62368	34.52
0.64035	34.52
0.65702	34.52
0.67368	34.51
0.69035	34.52
0.70702	34.52
0.72368	34.52
0.74035	34.51
0.75702	34.52
0.77368	34.53
0.79035	34.51
0.80702	34.52
0.82368	34.51
0.84035	34.52
0.85702	34.52
0.87368	34.52
0.89035	34.52
0.90702	34.52
0.92368	34.52
0.94035	34.52
0.95702	34.52
0.97368	34.52
0.99035	34.52
1.00702	34.52
1.02368	34.52
1.04035	34.52
1.05702	34.52
1.07368	34.52
1.09035	34.52
1.10702	34.52
1.12368	34.52
1.14035	34.52
1.15702	34.52
1.17368	34.52
1.19035	34.52
1.20702	34.51
1.22368	34.52
1.24035	34.52
1.25702	34.52
1.27368	34.52
1.29035	34.52
1.30702	34.52
1.32368	34.52
1.34035	34.52
1.35702	34.52
1.37368	34.52
1.39035	34.52
1.40702	34.52
1.42368	34.52
1.44035	34.51
1.45702	34.52
1.47368	34.52
1.49035	34.51
1.50702	34.52
1.52368	34.52
1.54035	34.52
1.55702	34.52
1.57368	34.52
1.59035	34.52
1.60702	34.52
1.62368	34.52
1.64035	34.52
1.65702	34.52
1.67368	34.52
1.69035	34.51
1.70702	34.52
1.72368	34.52
1.74035	34.52
1.75702	34.52
1.77368	34.52
1.79035	34.52
1.80702	34.52
1.82368	34.52
1.84035	34.52
1.85702	34.52
1.87368	34.52
1.89035	34.52
1.90702	34.52
1.92368	34.52
1.94035	34.52
1.95702	34.52
1.97368	34.52
1.99035	34.52
2.00702	34.52
2.02368	34.52
2.04035	34.52
2.05702	34.53
2.07368	34.52
2.09035	34.52
2.10702	34.51
2.12368	34.52
2.14035	34.52
2.15702	34.52
2.17368	34.52
2.19035	34.52
2.20702	34.52
2.22368	34.52
2.24035	34.52
2.25702	34.52
2.27368	34.52
2.29035	34.52
2.30702	34.52
2.32368	34.52
2.34035	34.52
2.35702	34.52
2.37368	34.52
2.39035	34.52
2.40702	34.52
2.42368	34.52
2.44035	34.52
2.45702	34.52
2.47368	34.52
2.49035	34.52
2.50702	34.32
2.52368	34.52
2.54035	34.52
2.55702	34.52
2.57368	34.52
2.59035	34.52
2.60702	34.52
2.62368	34.52
2.64035	34.52
2.65702	34.52
2.67368	34.52
2.69035	34.51
2.70702	34.51
2.72368	34.52
2.74035	34.52
2.75702	34.52
2.77368	34.52
2.79035	34.52
2.80702	34.52
2.82368	34.52
2.84035	34.52
2.85702	34.52
2.87368	34.52
2.89035	34.51
2.90702	34.51
2.92368	34.52
2.94035	34.52
2.95702	34.52
2.97368	34.52
2.99035	34.52
3.00702	34.52
3.02368	34.52
3.04035	34.52
3.05702	34.52
3.07368	34.52
3.09035	34.51
3.10702	34.53
3.12368	34.53
3.14035	34.52
3.15702	34.51
3.17368	34.52
3.19035	34.51
3.20702	34.52
3.22368	34.52
3.24035	34.51
3.25702	34.52
3.27368	34.52
3.29035	34.52
3.30702	34.52
3.32368	34.53
3.34035	34.52
3.35702	34.51
3.37368	34.52
3.39035	34.52
3.40702	34.52
3.42368	34.52
3.44035	34.52
3.45702	34.52
3.47368	34.52
3.49035	34.52
3.50702	34.52
3.52368	34.52
3.54035	34.52
3.55702	34.52
3.57368	34.52
3.59035	34.52
3.60702	34.52
3.62368	34.52
3.64035	34.51
3.65702	34.51
3.67368	34.52
3.69035	34.52
3.70702	34.52
3.72368	34.52
3.74035	34.52
3.75702	34.52
3.77368	34.52
3.79035	34.52
3.80702	34.52
3.82368	34.52
3.84035	34.51
3.85702	34.52
3.87368	34.52
3.89035	34.52
3.90702	34.52
3.92368	34.52
3.94035	34.52
3.95702	34.53
3.97368	34.52
3.99035	34.51

[Status Trace (Column Flow)]
Interval(msec)	1000
# of Points	240
Start Time(min)	0.007
End Time(min)	3.990
Intensity Units	
Intensity Multiplier	1
R.Time (min)	Intensity
0.00702	5.52
0.02368	5.24
0.04035	5.40
0.05702	5.66
0.07368	5.71
0.09035	5.53
0.10702	5.52
0.12368	5.52
0.14035	5.52
0.15702	5.52
0.17368	5.52
0.19035	5.52
0.20702	5.52
0.22368	5.52
0.24035	5.52
0.25702	5.52
0.27368	5.52
0.29035	5.52
0.30702	5.52
0.32368	5.52
0.34035	5.52
0.35702	5.52
0.37368	5.52
0.39035	5.52
0.40702	5.52
0.42368	5.52
0.44035	5.52
0.45702	5.52
0.47368	5.52
0.49035	5.52
0.50702	5.52
0.52368	5.52
0.54035	5.52
0.55702	5.52
0.57368	5.52
0.59035	5.52
0.60702	5.52
0.62368	5.52
0.64035	5.52
0.65702	5.52
0.67368	5.52
0.69035	5.52
0.70702	5.52
0.72368	5.52
0.74035	5.52
0.75702	5.52
0.77368	5.52
0.79035	5.52
0.80702	5.52
0.82368	5.52
0.84035	5.52
0.85702	5.52
0.87368	5.52
0.89035	5.52
0.90702	5.52
0.92368	5.52
0.94035	5.52
0.95702	5.52
0.97368	5.52
0.99035	5.52
1.00702	5.52
1.02368	5.52
1.04035	5.52
1.05702	5.52
1.07368	5.52
1.09035	5.52
1.10702	5.52
1.12368	5.52
1.14035	5.52
1.15702	5.52
1.17368	5.52
1.19035	5.52
1.20702	5.52
1.22368	5.52
1.24035	5.52
1.25702	5.52
1.27368	5.52
1.29035	5.52
1.30702	5.52
1.32368	5.52
1.34035	5.52
1.35702	5.52
1.37368	5.52
1.39035	5.52
1.40702	5.52
1.42368	5.52
1.44035	5.52
1.45702	5.52
1.47368	5.52
1.49035	5.52
1.50702	5.52
1.52368	5.52
1.54035	5.52
1.55702	5.52
1.57368	5.52
1.59035	5.52
1.60702	5.52
1.62368	5.52
1.64035	5.51
1.65702	5.50
1.67368	5.49
1.69035	5.48
1.70702	5.47
1.72368	5.46
1.74035	5.45
1.75702	5.44
1.77368	5.43
1.79035	5.42
1.80702	5.41
1.82368	5.40
1.84035	5.39
1.85702	5.38
1.87368	5.37
1.89035	5.36
1.90702	5.35
1.92368	5.34
1.94035	5.33
1.95702	5.32
1.97368	5.31
1.99035	5.30
2.00702	5.29
2.02368	5.28
2.04035	5.27
2.05702	5.26
2.07368	5.25
2.09035	5.24
2.10702	5.23
2.12368	5.23
2.14035	5.22
2.15702	5.21
2.17368	5.20
2.19035	5.19
2.20702	5.18
2.22368	5.17
2.24035	5.16
2.25702	5.15
2.27368	5.14
2.29035	5.13
2.30702	5.12
2.32368	5.11
2.34035	5.10
2.35702	5.10
2.37368	5.09
2.39035	5.09
2.40702	5.09
2.42368	5.09
2.44035	5.09
2.45702	5.09
2.47368	5.09
2.49035	5.09
2.50702	5.09
2.52368	5.09
2.54035	5.09
2.55702	5.09
2.57368	5.09
2.59035	5.09
2.60702	5.09
2.62368	5.09
2.64035	5.09
2.65702	5.09
2.67368	5.09
2.69035	5.08
2.70702	5.08
2.72368	5.08
2.74035	5.08
2.75702	5.08
2.77368	5.08
2.79035	5.08
2.80702	5.08
2.82368	5.08
2.84035	5.08
2.85702	5.08
2.87368	5.08
2.89035	5.08
2.90702	5.08
2.92368	5.08
2.94035	5.08
2.95702	5.08
2.97368	5.08
2.99035	5.08
3.00702	5.08
3.02368	5.08
3.04035	5.08
3.05702	5.08
3.07368	5.08
3.09035	5.08
3.10702	5.08
3.12368	5.08
3.14035	5.08
3.15702	5.08
3.17368	5.08
3.19035	5.08
3.20702	5.08
3.22368	5.08
3.24035	5.08
3.25702	5.08
3.27368	5.08
3.29035	5.08
3.30702	5.08
3.32368	5.08
3.34035	5.08
3.35702	5.08
3.37368	5.08
3.39035	5.08
3.40702	5.08
3.42368	5.08
3.44035	5.08
3.45702	5.08
3.47368	5.08
3.49035	5.08
3.50702	5.08
3.52368	5.08
3.54035	5.08
3.55702	5.08
3.57368	5.08
3.59035	5.08
3.60702	5.08
3.62368	5.08
3.64035	5.08
3.65702	5.08
3.67368	5.08
3.69035	5.08
3.70702	5.08
3.72368	5.08
3.74035	5.08
3.75702	5.08
3.77368	5.08
3.79035	5.08
3.80702	5.08
3.82368	5.08
3.84035	5.08
3.85702	5.08
3.87368	5.08
3.89035	5.08
3.90702	5.08
3.92368	5.08
3.94035	5.08
3.95702	5.08
3.97368	5.08
3.99035	5.08

[Status Trace (Linear Velocity)]
Interval(msec)	1000
# of Points	240
Start Time(min)	0.007
End Time(min)	3.990
Intensity Units	
Intensity Multiplier	1
R.Time (min)	Intensity
0.00702	39.01
0.02368	37.41
0.04035	38.34
0.05702	39.78
0.07368	40.05
0.09035	39.07
0.10702	39.00
0.12368	39.02
0.14035	39.02
0.15702	39.02
0.17368	39.02
0.19035	39.01
0.20702	39.02
0.22368	39.02
0.24035	39.02
0.25702	39.02
0.27368	39.02
0.29035	39.02
0.30702	39.02
0.32368	39.02
0.34035	39.02
0.35702	39.02
0.37368	39.02
0.39035	39.02
0.40702	39.02
0.42368	39.01
0.44035	39.01
0.45702	39.01
0.47368	39.02
0.49035	39.02
0.50702	39.02
0.52368	39.02
0.54035	39.02
0.55702	39.02
0.57368	39.02
0.59035	39.02
0.60702	39.02
0.62368	39.02
0.64035	39.02
0.65702	39.02
0.67368	39.02
0.69035	39.02
0.70702	39.02
0.72368	39.02
0.74035	39.02
0.75702	39.02
0.77368	39.02
0.79035	39.02
0.80702	39.01
0.82368	39.01
0.84035	39.01
0.85702	39.01
0.87368	39.01
0.89035	39.01
0.90702	39.01
0.92368	39.02
0.94035	39.02
0.95702	39.02
0.97368	39.02
0.99035	39.02
1.00702	39.02
1.02368	39.02
1.04035	39.02
1.05702	39.02
1.07368	39.02
1.09035	39.02
1.10702	39.02
1.12368	39.02
1.14035	39.02
1.15702	39.02
1.17368	39.02
1.19035	39.02
1.20702	39.02
1.22368	39.02
1.24035	39.02
1.25702	39.02
1.27368	39.02
1.29035	39.02
1.30702	39.02
1.32368	39.02
1.34035	39.02
1.35702	39.02
1.37368	39.02
1.39035	39.02
1.40702	39.02
1.42368	39.02
1.44035	39.02
1.45702	39.02
1.47368	39.02
1.49035	39.02
1.50702	39.02
1.52368	39.02
1.54035	39.02
1.55702	39.02
1.57368	39.02
1.59035	39.02
1.60702	39.01
1.62368	39.00
1.64035	38.98
1.65702	38.96
1.67368	38.93
1.69035	38.89
1.70702	38.86
1.72368	38.83
1.74035	38.79
1.75702	38.76
1.77368	38.73
1.79035	38.70
1.80702	38.67
1.82368	38.64
1.84035	38.61
1.85702	38.58
1.87368	38.55
1.89035	38.52
1.90702	38.49
1.92368	38.46
1.94035	38.42
1.95702	38.39
1.97368	38.37
1.99035	38.33
2.00702	38.30
2.02368	38.28
2.04035	38.24
2.05702	38.21
2.07368	38.19
2.09035	38.15
2.10702	38.12
2.12368	38.10
2.14035	38.07
2.15702	38.03
2.17368	38.01
2.19035	37.97
2.20702	37.95
2.22368	37.92
2.24035	37.89
2.25702	37.86
2.27368	37.83
2.29035	37.80
2.30702	37.77
2.32368	37.74
2.34035	37.71
2.35702	37.68
2.37368	37.67
2.39035	37.66
2.40702	37.66
2.42368	37.67
2.44035	37.66
2.45702	37.66
2.47368	37.66
2.49035	37.66
2.50702	37.66
2.52368	37.65
2.54035	37.66
2.55702	37.66
2.57368	37.66
2.59035	37.66
2.60702	37.66
2.62368	37.66
2.64035	37.65
2.65702	37.65
2.67368	37.65
2.69035	37.65
2.70702	37.65
2.72368	37.65
2.74035	37.65
2.75702	37.64
2.77368	37.65
2.79035	37.65
2.80702	37.65
2.82368	37.65
2.84035	37.64
2.85702	37.64
2.87368	37.64
2.89035	37.64
2.90702	37.64
2.92368	37.64
2.94035	37.64
2.95702	37.64
2.97368	37.64
2.99035	37.64
3.00702	37.64
3.02368	37.64
3.04035	37.64
3.05702	37.64
3.07368	37.64
3.09035	37.63
3.10702	37.63
3.12368	37.63
3.14035	37.63
3.15702	37.63
3.17368	37.63
3.19035	37.63
3.20702	37.63
3.22368	37.62
3.24035	37.62
3.25702	37.62
3.27368	37.62
3.29035	37.62
3.30702	37.62
3.32368	37.63
3.34035	37.63
3.35702	37.63
3.37368	37.63
3.39035	37.63
3.40702	37.63
3.42368	37.63
3.44035	37.63
3.45702	37.63
3.47368	37.63
3.49035	37.63
3.50702	37.63
3.52368	37.63
3.54035	37.63
3.55702	37.63
3.57368	37.63
3.59035	37.63
3.60702	37.63
3.62368	37.63
3.64035	37.63
3.65702	37.63
3.67368	37.63
3.69035	37.63
3.70702	37.63
3.72368	37.63
3.74035	37.63
3.75702	37.63
3.77368	37.63
3.79035	37.63
3.80702	37.63
3.82368	37.63
3.84035	37.63
3.85702	37.63
3.87368	37.63
3.89035	37.63
3.90702	37.63
3.92368	37.63
3.94035	37.63
3.95702	37.63
3.97368	37.63
3.99035	37.63

