[Header]
Application Name	LabSolutions
Version	5.110
Data File Name	C:\Users\User\Desktop\GC Analyses\Jack\Nachusa Grasslands Sampling\T2 Timepoint July 12th\T2_07122022_028.gcd
Output Date	3/14/2023
Output Time	3:42:31 PM

[File Information]
Type	Data File
Generated	3/10/2023 3:27:05 PM
Generated by	System Administrator
Modified	3/10/2023 3:33:59 PM
Modified by	System Administrator

[Sample Information]
Operator Name	System Administrator
Acquired	3/10/2023 3:29:58 PM
Sample Type	0:Unknown
Level	0
Sample Name	028
Sample ID	028
ISTD Amount1	1
ISTD Amount2	1
ISTD Amount3	1
ISTD Amount4	1
ISTD Amount5	1
ISTD Amount6	1
ISTD Amount7	1
ISTD Amount8	1
ISTD Amount9	1
ISTD Amount10	1
ISTD Amount11	1
ISTD Amount12	1
ISTD Amount13	1
ISTD Amount14	1
ISTD Amount15	1
ISTD Amount16	1
ISTD Amount17	1
ISTD Amount18	1
ISTD Amount19	1
ISTD Amount20	1
ISTD Amount21	1
ISTD Amount22	1
ISTD Amount23	1
ISTD Amount24	1
ISTD Amount25	1
ISTD Amount26	1
ISTD Amount27	1
ISTD Amount28	1
ISTD Amount29	1
ISTD Amount30	1
ISTD Amount31	1
ISTD Amount32	1
Sample Amount	1
Dilution Factor	1
Vial#	27
Injection Volume	1
Injection Count	1
Bar Code	

[Original Files]
Data File	C:\Users\User\Desktop\GC Analyses\Jack\Nachusa Grasslands Sampling\T1 Timepoint July 12th\T2_07122022_028.gcd
Method File	C:\LabSolutions\Data\GHG_4min_2022\ghg3_togas_w_acet_4 min_new_int.gcm
Batch File	C:\LabSolutions\Data\AutoSamplerTesting\T2_07122022.gcb
Report Format File	c:\LabSolutions\System\DEFAULT.lsr

[File Description]


[Configuration]
Instrument Name	C0B7VH3-Instrument1
Instrument #	1
Line #	1
# of Detectors	3
Detector ID	DET#1	DET#2	DET#3
Detector Name	FID	PTCD	ECD
# of Channels	1	1	1

[Peak Table(Ch1)]
# of Peaks	3
Peak#	R.Time	I.Time	F.Time	Area	Height	A/H	Conc.	Mark	ID#	Name	k'	Plate #	Plate Ht.	Tailing	Resolution	Sep.Factor	Area Ratio	Height Ratio	Conc. %	Norm Conc.
1	1.476	1.439	1.538	32122	15459	2.078	226.783	   	1	CO	0.000	9441	15.889	1.279	0.000	0.000	0	0	25.309	25.309
2	1.567	1.538	1.630	4787	2348	2.039	92.561	 V 	2	CH4	0.062	10269	14.607	0.000	1.495	0.000	0	0	10.330	10.330
3	1.996	1.949	2.616	2297881	1100649	2.088	576.706	   	3	CO2	0.353	17547	8.549	1.249	7.024	5.680	0	0	64.361	64.361

[Peak Table(Ch2)]
# of Peaks	0

[Peak Table(Ch3)]
# of Peaks	6
Peak#	R.Time	I.Time	F.Time	Area	Height	A/H	Conc.	Mark	ID#	Name	k'	Plate #	Plate Ht.	Tailing	Resolution	Sep.Factor	Area Ratio	Height Ratio	Conc. %	Norm Conc.
1	0.992	0.643	1.274	331	21	15.961	0.000	   			0.000	1113	134.811	0.864	0.000	0.000	0	0	0.000	0.000
2	2.462	2.279	2.513	2122	599	3.541	0.000	   			1.483	9156	16.382	0.000	13.256	0.000	0	0	0.000	0.000
3	2.535	2.513	2.638	1343	328	4.101	0.000	 V 			1.557	4372	34.313	0.000	0.572	1.050	0	0	0.000	0.000
4	2.667	2.638	2.711	134	52	2.590	0.000	 V 			1.690	17647	8.500	0.000	1.130	1.086	0	0	0.000	0.000
5	2.876	2.774	3.034	19548	5123	3.816	0.499	   	1	N2O	1.901	13211	11.354	1.657	2.317	1.125	0	0	100.000	100.000
6	3.206	3.041	3.995	15484	457	33.861	0.000	   	2	SF6	2.233	247	607.179	2.852	0.720	1.175	0	0	0.000	0.000

[Compound Results(Ch1)]
# of IDs	6
ID#	Name	R.Time	Area	Height	Conc.	Curve	3rd	2nd	1st	Constant	Area Ratio	Height Ratio	Conc. %	Norm Conc.
1	CO	1.476	32122	15459	226.783	Linear	0.000000e+00	0.000000e+00	1.416423e+002	0.000000e+00	0	0	25.309	25.309
2	CH4	1.567	4787	2348	92.561	Linear	0.000000e+00	0.000000e+00	5.171738e+001	0.000000e+00	0	0	10.330	10.330
3	CO2	1.996	2297881	1100649	576.706	Linear	0.000000e+00	0.000000e+00	3.984494e+003	0.000000e+00	0	0	64.361	64.361
4	Ethylene	0.000	0	0	0.000	Linear	0.000000e+00	0.000000e+00	0.000000e+00	0.000000e+00	0	0	0.000	0.000
5	Acetylene	0.000	0	0	0.000	Linear	0.000000e+00	0.000000e+00	0.000000e+00	0.000000e+00	0	0	0.000	0.000
6	Ethane	0.000	0	0	0.000	Linear	0.000000e+00	0.000000e+00	0.000000e+00	0.000000e+00	0	0	0.000	0.000

[Compound Results(Ch2)]
# of IDs	5
ID#	Name	R.Time	Area	Height	Conc.	Curve	3rd	2nd	1st	Constant	Area Ratio	Height Ratio	Conc. %	Norm Conc.
1	Hydrogen	0.000	0	0	0.000	Linear	0.000000e+00	0.000000e+00	0.000000e+00	0.000000e+00	0	0	0.000	0.000
2	Oxygen	0.000	0	0	0.000	Linear	0.000000e+00	0.000000e+00	0.000000e+00	0.000000e+00	0	0	0.000	0.000
3	Nitrogen	0.000	0	0	0.000	Linear	0.000000e+00	0.000000e+00	0.000000e+00	0.000000e+00	0	0	0.000	0.000
4	Methane	0.000	0	0	0.000	Linear	0.000000e+00	0.000000e+00	0.000000e+00	0.000000e+00	0	0	0.000	0.000
5	Carbon Monoxide	0.000	0	0	0.000	Linear	0.000000e+00	0.000000e+00	0.000000e+00	0.000000e+00	0	0	0.000	0.000

[Compound Results(Ch3)]
# of IDs	2
ID#	Name	R.Time	Area	Height	Conc.	Curve	3rd	2nd	1st	Constant	Area Ratio	Height Ratio	Conc. %	Norm Conc.
1	N2O	2.876	19548	5123	0.499	Linear	0.000000e+00	0.000000e+00	3.915173e+004	0.000000e+00	0	0	100.000	100.000
2	SF6	3.206	15484	457	0.000	Linear	0.000000e+00	0.000000e+00	0.000000e+00	0.000000e+00	0	0	0.000	0.000

[Group Results(Ch1)]
# of Groups	0

[Group Results(Ch2)]
# of Groups	0

[Group Results(Ch3)]
# of Groups	0

[Chromatogram (Ch1)]
Interval(msec)	220
# of Points	1091
Start Time(min)	0.002
End Time(min)	3.998
R.Time (min)	Intensity
0.00167	41
0.00533	40
0.00900	41
0.01267	40
0.01633	38
0.02000	38
0.02367	41
0.02733	47
0.03100	51
0.03467	59
0.03833	64
0.04200	59
0.04567	50
0.04933	45
0.05300	51
0.05667	62
0.06033	76
0.06400	91
0.06767	103
0.07133	108
0.07500	104
0.07867	100
0.08233	98
0.08600	95
0.08967	88
0.09333	81
0.09700	78
0.10067	73
0.10433	63
0.10800	50
0.11167	41
0.11533	36
0.11900	36
0.12267	36
0.12633	35
0.13000	29
0.13367	17
0.13733	7
0.14100	1
0.14467	-5
0.14833	-14
0.15200	-25
0.15567	-27
0.15933	-23
0.16300	-19
0.16667	-18
0.17033	-20
0.17400	-27
0.17767	-36
0.18133	-45
0.18500	-52
0.18867	-53
0.19233	-50
0.19600	-44
0.19967	-37
0.20333	-30
0.20700	-26
0.21067	-27
0.21433	-31
0.21800	-41
0.22167	-49
0.22533	-54
0.22900	-58
0.23267	-60
0.23633	-57
0.24000	-55
0.24367	-58
0.24733	-65
0.25100	-69
0.25467	-66
0.25833	-62
0.26200	-58
0.26567	-55
0.26933	-52
0.27300	-50
0.27667	-48
0.28033	-43
0.28400	-42
0.28767	-44
0.29133	-46
0.29500	-50
0.29867	-53
0.30233	-53
0.30600	-51
0.30967	-50
0.31333	-50
0.31700	-51
0.32067	-50
0.32433	-50
0.32800	-51
0.33167	-53
0.33533	-55
0.33900	-54
0.34267	-50
0.34633	-47
0.35000	-46
0.35367	-49
0.35733	-49
0.36100	-47
0.36467	-45
0.36833	-41
0.37200	-39
0.37567	-43
0.37933	-49
0.38300	-56
0.38667	-65
0.39033	-68
0.39400	-68
0.39767	-66
0.40133	-66
0.40500	-69
0.40867	-72
0.41233	-72
0.41600	-69
0.41967	-65
0.42333	-62
0.42700	-61
0.43067	-62
0.43433	-64
0.43800	-64
0.44167	-55
0.44533	-45
0.44900	-41
0.45267	-41
0.45633	-43
0.46000	-47
0.46367	-52
0.46733	-59
0.47100	-65
0.47467	-66
0.47833	-65
0.48200	-68
0.48567	-66
0.48933	-58
0.49300	-53
0.49667	-53
0.50033	-54
0.50400	-54
0.50767	-53
0.51133	-49
0.51500	-47
0.51867	-54
0.52233	-68
0.52600	-82
0.52967	-89
0.53333	-91
0.53700	-89
0.54067	-80
0.54433	-68
0.54800	-60
0.55167	-54
0.55533	-52
0.55900	-54
0.56267	-56
0.56633	-56
0.57000	-56
0.57367	-57
0.57733	-52
0.58100	-43
0.58467	-42
0.58833	-48
0.59200	-57
0.59567	-68
0.59933	-76
0.60300	-79
0.60667	-81
0.61033	-80
0.61400	-80
0.61767	-81
0.62133	-81
0.62500	-81
0.62867	-81
0.63233	-80
0.63600	-78
0.63967	-78
0.64333	-79
0.64700	-76
0.65067	-73
0.65433	-68
0.65800	-61
0.66167	-60
0.66533	-63
0.66900	-66
0.67267	-66
0.67633	-63
0.68000	-57
0.68367	-55
0.68733	-55
0.69100	-56
0.69467	-57
0.69833	-63
0.70200	-73
0.70567	-82
0.70933	-84
0.71300	-80
0.71667	-74
0.72033	-70
0.72400	-69
0.72767	-72
0.73133	-80
0.73500	-86
0.73867	-90
0.74233	-87
0.74600	-84
0.74967	-87
0.75333	-90
0.75700	-94
0.76067	-97
0.76433	-96
0.76800	-91
0.77167	-89
0.77533	-86
0.77900	-80
0.78267	-69
0.78633	-58
0.79000	-46
0.79367	-37
0.79733	-36
0.80100	-40
0.80467	-46
0.80833	-49
0.81200	-49
0.81567	-47
0.81933	-45
0.82300	-46
0.82667	-51
0.83033	-54
0.83400	-55
0.83767	-57
0.84133	-61
0.84500	-65
0.84867	-68
0.85233	-67
0.85600	-64
0.85967	-67
0.86333	-64
0.86700	-56
0.87067	-53
0.87433	-52
0.87800	-53
0.88167	-53
0.88533	-54
0.88900	-57
0.89267	-60
0.89633	-58
0.90000	-53
0.90367	-49
0.90733	-53
0.91100	-60
0.91467	-63
0.91833	-66
0.92200	-69
0.92567	-74
0.92933	-77
0.93300	-76
0.93667	-74
0.94033	-66
0.94400	-60
0.94767	-57
0.95133	-56
0.95500	-53
0.95867	-52
0.96233	-55
0.96600	-60
0.96967	-64
0.97333	-64
0.97700	-59
0.98067	-52
0.98433	-44
0.98800	-38
0.99167	-38
0.99533	-43
0.99900	-44
1.00267	-46
1.00633	-52
1.01000	-57
1.01367	-59
1.01733	-55
1.02100	-50
1.02467	-44
1.02833	-40
1.03200	-39
1.03567	-39
1.03933	-44
1.04300	-52
1.04667	-62
1.05033	-71
1.05400	-74
1.05767	-74
1.06133	-75
1.06500	-77
1.06867	-79
1.07233	-81
1.07600	-83
1.07967	-81
1.08333	-76
1.08700	-72
1.09067	-67
1.09433	-61
1.09800	-58
1.10167	-55
1.10533	-55
1.10900	-60
1.11267	-64
1.11633	-64
1.12000	-59
1.12367	-58
1.12733	-61
1.13100	-66
1.13467	-75
1.13833	-81
1.14200	-78
1.14567	-70
1.14933	-65
1.15300	-71
1.15667	-81
1.16033	-84
1.16400	-86
1.16767	-83
1.17133	-76
1.17500	-68
1.17867	-64
1.18233	-60
1.18600	-58
1.18967	-57
1.19333	-57
1.19700	-63
1.20067	-76
1.20433	-88
1.20800	-94
1.21167	-96
1.21533	-100
1.21900	-106
1.22267	-110
1.22633	-112
1.23000	-115
1.23367	-115
1.23733	-110
1.24100	-104
1.24467	-97
1.24833	-88
1.25200	-78
1.25567	-70
1.25933	-67
1.26300	-72
1.26667	-77
1.27033	-81
1.27400	-82
1.27767	-74
1.28133	-58
1.28500	-47
1.28867	-45
1.29233	-45
1.29600	-50
1.29967	-62
1.30333	-79
1.30700	-97
1.31067	-113
1.31433	-120
1.31800	-119
1.32167	-113
1.32533	-106
1.32900	-100
1.33267	-95
1.33633	-94
1.34000	-98
1.34367	-104
1.34733	-110
1.35100	-114
1.35467	-119
1.35833	-123
1.36200	-124
1.36567	-121
1.36933	-118
1.37300	-115
1.37667	-113
1.38033	-113
1.38400	-110
1.38767	-102
1.39133	-98
1.39500	-99
1.39867	-99
1.40233	-95
1.40600	-91
1.40967	-88
1.41333	-83
1.41700	-79
1.42067	-79
1.42433	-81
1.42800	-84
1.43167	-87
1.43533	-86
1.43900	-60
1.44267	50
1.44633	332
1.45000	1074
1.45367	2758
1.45733	5404
1.46100	8441
1.46467	11253
1.46833	13474
1.47200	14908
1.47567	15400
1.47933	14845
1.48300	13324
1.48667	11160
1.49033	8805
1.49400	6630
1.49767	4831
1.50133	3449
1.50500	2435
1.50867	1714
1.51233	1213
1.51600	870
1.51967	636
1.52333	475
1.52700	361
1.53067	280
1.53433	227
1.53800	211
1.54167	267
1.54533	456
1.54900	794
1.55267	1213
1.55633	1621
1.56000	1960
1.56367	2195
1.56733	2292
1.57100	2217
1.57467	1977
1.57833	1626
1.58200	1246
1.58567	902
1.58933	626
1.59300	420
1.59667	272
1.60033	166
1.60400	92
1.60767	40
1.61133	8
1.61500	-11
1.61867	-22
1.62233	-34
1.62600	-46
1.62967	-55
1.63333	-61
1.63700	-63
1.64067	-64
1.64433	-66
1.64800	-69
1.65167	-71
1.65533	-71
1.65900	-71
1.66267	-68
1.66633	-62
1.67000	-57
1.67367	-57
1.67733	-61
1.68100	-66
1.68467	-72
1.68833	-78
1.69200	-82
1.69567	-81
1.69933	-78
1.70300	-77
1.70667	-75
1.71033	-71
1.71400	-66
1.71767	-66
1.72133	-68
1.72500	-70
1.72867	-72
1.73233	-77
1.73600	-86
1.73967	-96
1.74333	-101
1.74700	-98
1.75067	-92
1.75433	-92
1.75800	-95
1.76167	-98
1.76533	-103
1.76900	-106
1.77267	-104
1.77633	-97
1.78000	-92
1.78367	-91
1.78733	-90
1.79100	-86
1.79467	-85
1.79833	-82
1.80200	-80
1.80567	-80
1.80933	-85
1.81300	-92
1.81667	-97
1.82033	-101
1.82400	-105
1.82767	-110
1.83133	-115
1.83500	-114
1.83867	-114
1.84233	-112
1.84600	-105
1.84967	-96
1.85333	-87
1.85700	-79
1.86067	-76
1.86433	-79
1.86800	-82
1.87167	-85
1.87533	-90
1.87900	-95
1.88267	-99
1.88633	-100
1.89000	-98
1.89367	-97
1.89733	-101
1.90100	-106
1.90467	-110
1.90833	-116
1.91200	-120
1.91567	-123
1.91933	-122
1.92300	-118
1.92667	-110
1.93033	-103
1.93400	-95
1.93767	-85
1.94133	-78
1.94500	-75
1.94867	-72
1.95233	-38
1.95600	222
1.95967	1708
1.96333	8231
1.96700	29924
1.97067	85323
1.97433	194434
1.97800	362814
1.98167	570699
1.98533	780490
1.98900	954850
1.99267	1066521
1.99633	1100607
2.00000	1056227
2.00367	946553
2.00733	795794
2.01100	631984
2.01467	478448
2.01833	349040
2.02200	248144
2.02567	173799
2.02933	121135
2.03300	84788
2.03667	60097
2.04033	43442
2.04400	32212
2.04767	24587
2.05133	19346
2.05500	15677
2.05867	13054
2.06233	11128
2.06600	9674
2.06967	8555
2.07333	7672
2.07700	6958
2.08067	6366
2.08433	5867
2.08800	5437
2.09167	5066
2.09533	4743
2.09900	4458
2.10267	4204
2.10633	3977
2.11000	3771
2.11367	3588
2.11733	3422
2.12100	3269
2.12467	3128
2.12833	2998
2.13200	2878
2.13567	2765
2.13933	2653
2.14300	2549
2.14667	2453
2.15033	2364
2.15400	2279
2.15767	2197
2.16133	2120
2.16500	2051
2.16867	1987
2.17233	1922
2.17600	1862
2.17967	1806
2.18333	1752
2.18700	1699
2.19067	1649
2.19433	1602
2.19800	1559
2.20167	1523
2.20533	1488
2.20900	1450
2.21267	1411
2.21633	1373
2.22000	1334
2.22367	1296
2.22733	1262
2.23100	1231
2.23467	1203
2.23833	1182
2.24200	1163
2.24567	1145
2.24933	1123
2.25300	1098
2.25667	1072
2.26033	1042
2.26400	1014
2.26767	993
2.27133	979
2.27500	965
2.27867	950
2.28233	936
2.28600	921
2.28967	908
2.29333	901
2.29700	891
2.30067	875
2.30433	856
2.30800	834
2.31167	811
2.31533	788
2.31900	769
2.32267	751
2.32633	737
2.33000	724
2.33367	715
2.33733	707
2.34100	697
2.34467	686
2.34833	675
2.35200	665
2.35567	656
2.35933	645
2.36300	635
2.36667	634
2.37033	639
2.37400	638
2.37767	629
2.38133	613
2.38500	596
2.38867	576
2.39233	561
2.39600	552
2.39967	547
2.40333	547
2.40700	554
2.41067	560
2.41433	561
2.41800	554
2.42167	544
2.42533	535
2.42900	525
2.43267	515
2.43633	508
2.44000	504
2.44367	502
2.44733	500
2.45100	497
2.45467	490
2.45833	483
2.46200	479
2.46567	476
2.46933	474
2.47300	469
2.47667	464
2.48033	467
2.48400	480
2.48767	485
2.49133	479
2.49500	464
2.49867	447
2.50233	432
2.50600	418
2.50967	412
2.51333	411
2.51700	414
2.52067	417
2.52433	419
2.52800	420
2.53167	415
2.53533	408
2.53900	402
2.54267	400
2.54633	399
2.55000	396
2.55367	397
2.55733	401
2.56100	401
2.56467	395
2.56833	390
2.57200	388
2.57567	385
2.57933	380
2.58300	376
2.58667	373
2.59033	370
2.59400	368
2.59767	368
2.60133	370
2.60500	373
2.60867	371
2.61233	364
2.61600	354
2.61967	344
2.62333	336
2.62700	331
2.63067	327
2.63433	326
2.63800	325
2.64167	328
2.64533	336
2.64900	351
2.65267	362
2.65633	362
2.66000	355
2.66367	350
2.66733	345
2.67100	339
2.67467	333
2.67833	326
2.68200	321
2.68567	317
2.68933	315
2.69300	313
2.69667	311
2.70033	306
2.70400	304
2.70767	307
2.71133	310
2.71500	313
2.71867	318
2.72233	323
2.72600	329
2.72967	334
2.73333	337
2.73700	340
2.74067	345
2.74433	346
2.74800	344
2.75167	344
2.75533	349
2.75900	356
2.76267	360
2.76633	357
2.77000	348
2.77367	335
2.77733	322
2.78100	314
2.78467	308
2.78833	303
2.79200	303
2.79567	304
2.79933	302
2.80300	306
2.80667	314
2.81033	323
2.81400	328
2.81767	326
2.82133	321
2.82500	316
2.82867	315
2.83233	316
2.83600	317
2.83967	320
2.84333	321
2.84700	321
2.85067	320
2.85433	316
2.85800	310
2.86167	304
2.86533	299
2.86900	295
2.87267	300
2.87633	307
2.88000	314
2.88367	316
2.88733	316
2.89100	315
2.89467	312
2.89833	309
2.90200	306
2.90567	305
2.90933	308
2.91300	312
2.91667	318
2.92033	321
2.92400	318
2.92767	314
2.93133	311
2.93500	311
2.93867	316
2.94233	318
2.94600	314
2.94967	310
2.95333	308
2.95700	307
2.96067	307
2.96433	309
2.96800	312
2.97167	312
2.97533	308
2.97900	306
2.98267	308
2.98633	316
2.99000	329
2.99367	340
2.99733	342
3.00100	336
3.00467	329
3.00833	327
3.01200	328
3.01567	328
3.01933	327
3.02300	324
3.02667	317
3.03033	311
3.03400	309
3.03767	307
3.04133	303
3.04500	298
3.04867	295
3.05233	291
3.05600	292
3.05967	300
3.06333	308
3.06700	312
3.07067	311
3.07433	312
3.07800	314
3.08167	321
3.08533	328
3.08900	332
3.09267	331
3.09633	328
3.10000	324
3.10367	318
3.10733	314
3.11100	313
3.11467	313
3.11833	312
3.12200	309
3.12567	305
3.12933	302
3.13300	302
3.13667	301
3.14033	297
3.14400	301
3.14767	310
3.15133	311
3.15500	309
3.15867	307
3.16233	308
3.16600	311
3.16967	318
3.17333	320
3.17700	318
3.18067	319
3.18433	314
3.18800	306
3.19167	301
3.19533	301
3.19900	305
3.20267	310
3.20633	312
3.21000	314
3.21367	313
3.21733	309
3.22100	306
3.22467	303
3.22833	303
3.23200	303
3.23567	298
3.23933	295
3.24300	294
3.24667	293
3.25033	292
3.25400	289
3.25767	287
3.26133	288
3.26500	292
3.26867	297
3.27233	301
3.27600	304
3.27967	308
3.28333	312
3.28700	310
3.29067	303
3.29433	294
3.29800	283
3.30167	276
3.30533	275
3.30900	280
3.31267	288
3.31633	296
3.32000	303
3.32367	310
3.32733	315
3.33100	312
3.33467	303
3.33833	292
3.34200	284
3.34567	280
3.34933	275
3.35300	270
3.35667	265
3.36033	261
3.36400	262
3.36767	262
3.37133	263
3.37500	263
3.37867	263
3.38233	264
3.38600	267
3.38967	268
3.39333	271
3.39700	278
3.40067	288
3.40433	298
3.40800	305
3.41167	306
3.41533	296
3.41900	280
3.42267	264
3.42633	253
3.43000	246
3.43367	242
3.43733	242
3.44100	250
3.44467	258
3.44833	265
3.45200	273
3.45567	281
3.45933	287
3.46300	288
3.46667	284
3.47033	278
3.47400	270
3.47767	263
3.48133	258
3.48500	255
3.48867	255
3.49233	259
3.49600	263
3.49967	268
3.50333	269
3.50700	266
3.51067	259
3.51433	254
3.51800	250
3.52167	248
3.52533	251
3.52900	257
3.53267	264
3.53633	269
3.54000	272
3.54367	273
3.54733	271
3.55100	269
3.55467	266
3.55833	261
3.56200	255
3.56567	252
3.56933	247
3.57300	243
3.57667	243
3.58033	243
3.58400	247
3.58767	254
3.59133	261
3.59500	263
3.59867	260
3.60233	254
3.60600	251
3.60967	249
3.61333	247
3.61700	247
3.62067	250
3.62433	250
3.62800	246
3.63167	240
3.63533	238
3.63900	235
3.64267	231
3.64633	232
3.65000	237
3.65367	237
3.65733	241
3.66100	246
3.66467	248
3.66833	248
3.67200	250
3.67567	253
3.67933	254
3.68300	255
3.68667	255
3.69033	258
3.69400	263
3.69767	269
3.70133	272
3.70500	267
3.70867	255
3.71233	246
3.71600	240
3.71967	230
3.72333	220
3.72700	213
3.73067	206
3.73433	199
3.73800	194
3.74167	190
3.74533	185
3.74900	181
3.75267	182
3.75633	193
3.76000	204
3.76367	208
3.76733	209
3.77100	207
3.77467	204
3.77833	203
3.78200	202
3.78567	201
3.78933	202
3.79300	206
3.79667	213
3.80033	223
3.80400	235
3.80767	239
3.81133	231
3.81500	215
3.81867	202
3.82233	193
3.82600	189
3.82967	190
3.83333	197
3.83700	205
3.84067	208
3.84433	209
3.84800	209
3.85167	202
3.85533	198
3.85900	197
3.86267	195
3.86633	192
3.87000	187
3.87367	183
3.87733	181
3.88100	187
3.88467	193
3.88833	196
3.89200	197
3.89567	197
3.89933	199
3.90300	206
3.90667	213
3.91033	213
3.91400	214
3.91767	216
3.92133	216
3.92500	211
3.92867	200
3.93233	185
3.93600	171
3.93967	161
3.94333	154
3.94700	146
3.95067	141
3.95433	142
3.95800	147
3.96167	154
3.96533	161
3.96900	168
3.97267	176
3.97633	185
3.98000	195
3.98367	197
3.98733	193
3.99100	186
3.99467	179
3.99833	175

[Chromatogram (Ch2)]
Interval(msec)	220
# of Points	1091
Start Time(min)	0.002
End Time(min)	3.998
R.Time (min)	Intensity
0.00167	-0
0.00533	-1
0.00900	-1
0.01267	-1
0.01633	-0
0.02000	-0
0.02367	-0
0.02733	-0
0.03100	0
0.03467	0
0.03833	1
0.04200	1
0.04567	1
0.04933	1
0.05300	1
0.05667	1
0.06033	1
0.06400	1
0.06767	1
0.07133	1
0.07500	1
0.07867	1
0.08233	1
0.08600	1
0.08967	1
0.09333	1
0.09700	1
0.10067	0
0.10433	0
0.10800	0
0.11167	0
0.11533	-0
0.11900	-0
0.12267	-0
0.12633	-0
0.13000	-1
0.13367	-1
0.13733	-1
0.14100	-1
0.14467	-1
0.14833	-1
0.15200	-1
0.15567	-1
0.15933	-1
0.16300	-1
0.16667	-1
0.17033	-1
0.17400	-1
0.17767	-1
0.18133	-1
0.18500	-1
0.18867	-1
0.19233	-1
0.19600	-2
0.19967	-2
0.20333	-2
0.20700	-2
0.21067	-2
0.21433	-2
0.21800	-2
0.22167	-2
0.22533	-2
0.22900	-2
0.23267	-2
0.23633	-2
0.24000	-2
0.24367	-1
0.24733	-1
0.25100	-1
0.25467	-1
0.25833	-1
0.26200	-0
0.26567	-0
0.26933	-0
0.27300	-0
0.27667	-0
0.28033	-0
0.28400	-1
0.28767	-1
0.29133	-1
0.29500	-1
0.29867	-1
0.30233	-2
0.30600	-2
0.30967	-2
0.31333	-2
0.31700	-2
0.32067	-1
0.32433	-1
0.32800	-1
0.33167	-1
0.33533	-0
0.33900	-0
0.34267	-0
0.34633	-0
0.35000	-0
0.35367	-0
0.35733	-0
0.36100	-0
0.36467	-1
0.36833	-1
0.37200	-1
0.37567	-1
0.37933	-1
0.38300	-1
0.38667	-1
0.39033	-1
0.39400	-1
0.39767	-1
0.40133	-1
0.40500	-1
0.40867	-1
0.41233	-1
0.41600	-1
0.41967	-1
0.42333	-1
0.42700	-2
0.43067	-2
0.43433	-2
0.43800	-2
0.44167	-2
0.44533	-2
0.44900	-2
0.45267	-2
0.45633	-1
0.46000	-0
0.46367	0
0.46733	1
0.47100	2
0.47467	2
0.47833	2
0.48200	3
0.48567	3
0.48933	3
0.49300	3
0.49667	3
0.50033	3
0.50400	3
0.50767	3
0.51133	2
0.51500	2
0.51867	1
0.52233	1
0.52600	0
0.52967	0
0.53333	-0
0.53700	-1
0.54067	-1
0.54433	-1
0.54800	-1
0.55167	-1
0.55533	-1
0.55900	-1
0.56267	-1
0.56633	-1
0.57000	-1
0.57367	-1
0.57733	-1
0.58100	-2
0.58467	-2
0.58833	-3
0.59200	-3
0.59567	-3
0.59933	-3
0.60300	-3
0.60667	-3
0.61033	-3
0.61400	-3
0.61767	-3
0.62133	-2
0.62500	-3
0.62867	-3
0.63233	-2
0.63600	-2
0.63967	-2
0.64333	-2
0.64700	-1
0.65067	-1
0.65433	-0
0.65800	0
0.66167	0
0.66533	0
0.66900	0
0.67267	0
0.67633	0
0.68000	0
0.68367	-0
0.68733	-0
0.69100	-0
0.69467	-1
0.69833	-1
0.70200	-1
0.70567	-1
0.70933	-2
0.71300	-2
0.71667	-2
0.72033	-2
0.72400	-2
0.72767	-2
0.73133	-2
0.73500	-2
0.73867	-2
0.74233	-2
0.74600	-2
0.74967	-1
0.75333	-1
0.75700	-1
0.76067	-1
0.76433	-1
0.76800	-1
0.77167	-1
0.77533	-1
0.77900	-1
0.78267	-1
0.78633	-1
0.79000	-1
0.79367	-1
0.79733	-1
0.80100	-1
0.80467	-1
0.80833	-1
0.81200	-1
0.81567	-1
0.81933	-1
0.82300	-1
0.82667	-1
0.83033	-1
0.83400	-1
0.83767	-2
0.84133	-2
0.84500	-2
0.84867	-2
0.85233	-2
0.85600	-2
0.85967	-3
0.86333	-3
0.86700	-3
0.87067	-3
0.87433	-3
0.87800	-3
0.88167	-3
0.88533	-2
0.88900	-2
0.89267	-2
0.89633	-2
0.90000	-1
0.90367	-1
0.90733	-1
0.91100	-1
0.91467	-1
0.91833	-1
0.92200	-0
0.92567	0
0.92933	1
0.93300	1
0.93667	1
0.94033	1
0.94400	1
0.94767	1
0.95133	1
0.95500	1
0.95867	1
0.96233	0
0.96600	-0
0.96967	-1
0.97333	-1
0.97700	-1
0.98067	-2
0.98433	-2
0.98800	-2
0.99167	-2
0.99533	-2
0.99900	-3
1.00267	-3
1.00633	-3
1.01000	-3
1.01367	-3
1.01733	-3
1.02100	-3
1.02467	-3
1.02833	-3
1.03200	-3
1.03567	-3
1.03933	-3
1.04300	-3
1.04667	-3
1.05033	-3
1.05400	-3
1.05767	-3
1.06133	-3
1.06500	-3
1.06867	-3
1.07233	-3
1.07600	-3
1.07967	-2
1.08333	-2
1.08700	-2
1.09067	-2
1.09433	-1
1.09800	-1
1.10167	-0
1.10533	0
1.10900	0
1.11267	0
1.11633	0
1.12000	0
1.12367	0
1.12733	-0
1.13100	-0
1.13467	-1
1.13833	-1
1.14200	-2
1.14567	-2
1.14933	-3
1.15300	-3
1.15667	-3
1.16033	-3
1.16400	-3
1.16767	-3
1.17133	-3
1.17500	-3
1.17867	-3
1.18233	-3
1.18600	-3
1.18967	-3
1.19333	-3
1.19700	-2
1.20067	-2
1.20433	-2
1.20800	-2
1.21167	-2
1.21533	-2
1.21900	-2
1.22267	-2
1.22633	-2
1.23000	-2
1.23367	-1
1.23733	-1
1.24100	-1
1.24467	-1
1.24833	-1
1.25200	-1
1.25567	-1
1.25933	-1
1.26300	-1
1.26667	-1
1.27033	-0
1.27400	-0
1.27767	-0
1.28133	-0
1.28500	-1
1.28867	-1
1.29233	-1
1.29600	-1
1.29967	-1
1.30333	-1
1.30700	-1
1.31067	-2
1.31433	-2
1.31800	-2
1.32167	-3
1.32533	-3
1.32900	-3
1.33267	-3
1.33633	-3
1.34000	-3
1.34367	-3
1.34733	-4
1.35100	-4
1.35467	-4
1.35833	-4
1.36200	-4
1.36567	-4
1.36933	-5
1.37300	-5
1.37667	-4
1.38033	-4
1.38400	-4
1.38767	-4
1.39133	-4
1.39500	-5
1.39867	-5
1.40233	-5
1.40600	-5
1.40967	-5
1.41333	-5
1.41700	-5
1.42067	-5
1.42433	-5
1.42800	-5
1.43167	-4
1.43533	-4
1.43900	-4
1.44267	-4
1.44633	-4
1.45000	-4
1.45367	-3
1.45733	-3
1.46100	-3
1.46467	-3
1.46833	-3
1.47200	-3
1.47567	-3
1.47933	-3
1.48300	-3
1.48667	-3
1.49033	-2
1.49400	-2
1.49767	-2
1.50133	-2
1.50500	-2
1.50867	-2
1.51233	-2
1.51600	-2
1.51967	-1
1.52333	-1
1.52700	-1
1.53067	-1
1.53433	-1
1.53800	-1
1.54167	-1
1.54533	-1
1.54900	-1
1.55267	-1
1.55633	-1
1.56000	-2
1.56367	-2
1.56733	-2
1.57100	-2
1.57467	-1
1.57833	-1
1.58200	-2
1.58567	-2
1.58933	-2
1.59300	-2
1.59667	-3
1.60033	-3
1.60400	-4
1.60767	-5
1.61133	-7
1.61500	-9
1.61867	-11
1.62233	-14
1.62600	-17
1.62967	-20
1.63333	-23
1.63700	-26
1.64067	-30
1.64433	-33
1.64800	-37
1.65167	-41
1.65533	-44
1.65900	-48
1.66267	-53
1.66633	-57
1.67000	-62
1.67367	-67
1.67733	-72
1.68100	-77
1.68467	-82
1.68833	-86
1.69200	-90
1.69567	-93
1.69933	-96
1.70300	-98
1.70667	-100
1.71033	-102
1.71400	-103
1.71767	-105
1.72133	-105
1.72500	-106
1.72867	-106
1.73233	-106
1.73600	-106
1.73967	-106
1.74333	-107
1.74700	-107
1.75067	-107
1.75433	-108
1.75800	-109
1.76167	-111
1.76533	-112
1.76900	-113
1.77267	-114
1.77633	-115
1.78000	-115
1.78367	-115
1.78733	-115
1.79100	-114
1.79467	-113
1.79833	-112
1.80200	-111
1.80567	-110
1.80933	-110
1.81300	-110
1.81667	-110
1.82033	-110
1.82400	-111
1.82767	-111
1.83133	-112
1.83500	-112
1.83867	-113
1.84233	-114
1.84600	-114
1.84967	-115
1.85333	-115
1.85700	-115
1.86067	-115
1.86433	-115
1.86800	-115
1.87167	-115
1.87533	-115
1.87900	-115
1.88267	-115
1.88633	-115
1.89000	-114
1.89367	-114
1.89733	-113
1.90100	-112
1.90467	-112
1.90833	-111
1.91200	-111
1.91567	-112
1.91933	-112
1.92300	-112
1.92667	-112
1.93033	-111
1.93400	-111
1.93767	-110
1.94133	-110
1.94500	-109
1.94867	-109
1.95233	-108
1.95600	-108
1.95967	-108
1.96333	-107
1.96700	-107
1.97067	-107
1.97433	-107
1.97800	-107
1.98167	-107
1.98533	-107
1.98900	-107
1.99267	-108
1.99633	-108
2.00000	-108
2.00367	-108
2.00733	-108
2.01100	-108
2.01467	-108
2.01833	-107
2.02200	-107
2.02567	-106
2.02933	-105
2.03300	-104
2.03667	-102
2.04033	-102
2.04400	-101
2.04767	-100
2.05133	-100
2.05500	-100
2.05867	-100
2.06233	-100
2.06600	-100
2.06967	-100
2.07333	-100
2.07700	-100
2.08067	-100
2.08433	-100
2.08800	-100
2.09167	-100
2.09533	-99
2.09900	-99
2.10267	-99
2.10633	-98
2.11000	-98
2.11367	-98
2.11733	-98
2.12100	-97
2.12467	-97
2.12833	-96
2.13200	-96
2.13567	-96
2.13933	-96
2.14300	-95
2.14667	-95
2.15033	-94
2.15400	-94
2.15767	-94
2.16133	-94
2.16500	-94
2.16867	-93
2.17233	-93
2.17600	-92
2.17967	-91
2.18333	-91
2.18700	-90
2.19067	-90
2.19433	-90
2.19800	-91
2.20167	-91
2.20533	-91
2.20900	-91
2.21267	-91
2.21633	-91
2.22000	-91
2.22367	-90
2.22733	-89
2.23100	-88
2.23467	-88
2.23833	-87
2.24200	-87
2.24567	-86
2.24933	-87
2.25300	-87
2.25667	-88
2.26033	-88
2.26400	-88
2.26767	-88
2.27133	-87
2.27500	-86
2.27867	-85
2.28233	-85
2.28600	-84
2.28967	-83
2.29333	-83
2.29700	-82
2.30067	-81
2.30433	-80
2.30800	-80
2.31167	-81
2.31533	-81
2.31900	-82
2.32267	-82
2.32633	-83
2.33000	-83
2.33367	-83
2.33733	-82
2.34100	-81
2.34467	-80
2.34833	-79
2.35200	-77
2.35567	-76
2.35933	-74
2.36300	-73
2.36667	-71
2.37033	-70
2.37400	-68
2.37767	-65
2.38133	-62
2.38500	-59
2.38867	-55
2.39233	-51
2.39600	-46
2.39967	-42
2.40333	-38
2.40700	-33
2.41067	-30
2.41433	-26
2.41800	-23
2.42167	-20
2.42533	-18
2.42900	-16
2.43267	-14
2.43633	-13
2.44000	-12
2.44367	-11
2.44733	-11
2.45100	-10
2.45467	-9
2.45833	-7
2.46200	-6
2.46567	-4
2.46933	-3
2.47300	-2
2.47667	-2
2.48033	-1
2.48400	0
2.48767	1
2.49133	2
2.49500	3
2.49867	4
2.50233	5
2.50600	5
2.50967	6
2.51333	7
2.51700	7
2.52067	8
2.52433	9
2.52800	10
2.53167	10
2.53533	11
2.53900	12
2.54267	12
2.54633	13
2.55000	14
2.55367	14
2.55733	15
2.56100	15
2.56467	15
2.56833	15
2.57200	15
2.57567	15
2.57933	15
2.58300	15
2.58667	15
2.59033	15
2.59400	15
2.59767	15
2.60133	14
2.60500	14
2.60867	14
2.61233	14
2.61600	14
2.61967	15
2.62333	15
2.62700	16
2.63067	16
2.63433	17
2.63800	17
2.64167	17
2.64533	17
2.64900	17
2.65267	17
2.65633	17
2.66000	18
2.66367	18
2.66733	18
2.67100	19
2.67467	19
2.67833	19
2.68200	20
2.68567	20
2.68933	20
2.69300	20
2.69667	20
2.70033	20
2.70400	20
2.70767	21
2.71133	21
2.71500	22
2.71867	23
2.72233	23
2.72600	24
2.72967	24
2.73333	25
2.73700	25
2.74067	26
2.74433	26
2.74800	26
2.75167	26
2.75533	26
2.75900	26
2.76267	25
2.76633	25
2.77000	25
2.77367	25
2.77733	24
2.78100	24
2.78467	24
2.78833	23
2.79200	23
2.79567	23
2.79933	23
2.80300	23
2.80667	23
2.81033	23
2.81400	23
2.81767	23
2.82133	24
2.82500	24
2.82867	24
2.83233	24
2.83600	24
2.83967	23
2.84333	22
2.84700	19
2.85067	13
2.85433	5
2.85800	-6
2.86167	-21
2.86533	-40
2.86900	-63
2.87267	-91
2.87633	-124
2.88000	-160
2.88367	-200
2.88733	-244
2.89100	-291
2.89467	-340
2.89833	-392
2.90200	-445
2.90567	-499
2.90933	-554
2.91300	-608
2.91667	-663
2.92033	-717
2.92400	-770
2.92767	-821
2.93133	-873
2.93500	-928
2.93867	-987
2.94233	-1042
2.94600	-1082
2.94967	-1100
2.95333	-1092
2.95700	-1059
2.96067	-1006
2.96433	-939
2.96800	-863
2.97167	-783
2.97533	-703
2.97900	-625
2.98267	-551
2.98633	-483
2.99000	-420
2.99367	-364
2.99733	-314
3.00100	-269
3.00467	-230
3.00833	-196
3.01200	-166
3.01567	-140
3.01933	-118
3.02300	-99
3.02667	-83
3.03033	-69
3.03400	-57
3.03767	-47
3.04133	-38
3.04500	-31
3.04867	-24
3.05233	-19
3.05600	-14
3.05967	-11
3.06333	-8
3.06700	-5
3.07067	-3
3.07433	-1
3.07800	1
3.08167	3
3.08533	5
3.08900	6
3.09267	7
3.09633	8
3.10000	9
3.10367	10
3.10733	11
3.11100	12
3.11467	13
3.11833	13
3.12200	14
3.12567	15
3.12933	15
3.13300	16
3.13667	17
3.14033	17
3.14400	17
3.14767	17
3.15133	18
3.15500	18
3.15867	18
3.16233	18
3.16600	18
3.16967	18
3.17333	18
3.17700	18
3.18067	18
3.18433	18
3.18800	18
3.19167	18
3.19533	18
3.19900	18
3.20267	18
3.20633	18
3.21000	18
3.21367	18
3.21733	18
3.22100	18
3.22467	18
3.22833	19
3.23200	19
3.23567	19
3.23933	20
3.24300	20
3.24667	20
3.25033	20
3.25400	21
3.25767	21
3.26133	21
3.26500	21
3.26867	21
3.27233	21
3.27600	22
3.27967	22
3.28333	22
3.28700	22
3.29067	22
3.29433	22
3.29800	22
3.30167	22
3.30533	22
3.30900	23
3.31267	23
3.31633	23
3.32000	23
3.32367	23
3.32733	23
3.33100	24
3.33467	24
3.33833	25
3.34200	25
3.34567	25
3.34933	26
3.35300	26
3.35667	26
3.36033	26
3.36400	26
3.36767	26
3.37133	26
3.37500	26
3.37867	26
3.38233	26
3.38600	26
3.38967	26
3.39333	26
3.39700	26
3.40067	26
3.40433	26
3.40800	26
3.41167	26
3.41533	26
3.41900	26
3.42267	26
3.42633	27
3.43000	27
3.43367	27
3.43733	27
3.44100	27
3.44467	27
3.44833	27
3.45200	27
3.45567	27
3.45933	27
3.46300	27
3.46667	27
3.47033	27
3.47400	27
3.47767	27
3.48133	27
3.48500	27
3.48867	27
3.49233	26
3.49600	26
3.49967	26
3.50333	26
3.50700	26
3.51067	26
3.51433	25
3.51800	25
3.52167	25
3.52533	25
3.52900	25
3.53267	25
3.53633	25
3.54000	26
3.54367	26
3.54733	26
3.55100	26
3.55467	26
3.55833	26
3.56200	25
3.56567	25
3.56933	25
3.57300	25
3.57667	25
3.58033	25
3.58400	25
3.58767	25
3.59133	25
3.59500	25
3.59867	24
3.60233	25
3.60600	25
3.60967	25
3.61333	25
3.61700	25
3.62067	25
3.62433	25
3.62800	25
3.63167	25
3.63533	25
3.63900	25
3.64267	26
3.64633	26
3.65000	26
3.65367	26
3.65733	26
3.66100	26
3.66467	25
3.66833	25
3.67200	25
3.67567	25
3.67933	25
3.68300	25
3.68667	25
3.69033	25
3.69400	25
3.69767	24
3.70133	24
3.70500	24
3.70867	24
3.71233	24
3.71600	24
3.71967	24
3.72333	24
3.72700	24
3.73067	24
3.73433	24
3.73800	24
3.74167	23
3.74533	23
3.74900	23
3.75267	23
3.75633	23
3.76000	23
3.76367	23
3.76733	23
3.77100	23
3.77467	23
3.77833	24
3.78200	24
3.78567	24
3.78933	24
3.79300	24
3.79667	24
3.80033	24
3.80400	24
3.80767	24
3.81133	24
3.81500	24
3.81867	24
3.82233	24
3.82600	24
3.82967	24
3.83333	24
3.83700	25
3.84067	25
3.84433	25
3.84800	25
3.85167	25
3.85533	25
3.85900	25
3.86267	26
3.86633	26
3.87000	26
3.87367	26
3.87733	26
3.88100	26
3.88467	26
3.88833	25
3.89200	25
3.89567	25
3.89933	25
3.90300	25
3.90667	25
3.91033	25
3.91400	25
3.91767	25
3.92133	25
3.92500	25
3.92867	25
3.93233	25
3.93600	25
3.93967	25
3.94333	26
3.94700	26
3.95067	26
3.95433	26
3.95800	26
3.96167	26
3.96533	25
3.96900	25
3.97267	25
3.97633	25
3.98000	25
3.98367	24
3.98733	24
3.99100	24
3.99467	24
3.99833	24

[Chromatogram (Ch3)]
Interval(msec)	220
# of Points	1091
Start Time(min)	0.002
End Time(min)	3.998
R.Time (min)	Intensity
0.00167	-0
0.00533	-2
0.00900	-1
0.01267	1
0.01633	1
0.02000	-1
0.02367	-2
0.02733	-1
0.03100	1
0.03467	1
0.03833	2
0.04200	2
0.04567	-0
0.04933	-2
0.05300	-2
0.05667	-0
0.06033	1
0.06400	-0
0.06767	-1
0.07133	-3
0.07500	-4
0.07867	-5
0.08233	-6
0.08600	-3
0.08967	-2
0.09333	-4
0.09700	-7
0.10067	-9
0.10433	-10
0.10800	-10
0.11167	-8
0.11533	-7
0.11900	-6
0.12267	-6
0.12633	-7
0.13000	-8
0.13367	-9
0.13733	-10
0.14100	-10
0.14467	-8
0.14833	-9
0.15200	-8
0.15567	-9
0.15933	-10
0.16300	-11
0.16667	-12
0.17033	-13
0.17400	-13
0.17767	-13
0.18133	-14
0.18500	-15
0.18867	-14
0.19233	-14
0.19600	-16
0.19967	-16
0.20333	-15
0.20700	-14
0.21067	-13
0.21433	-10
0.21800	-8
0.22167	-8
0.22533	-9
0.22900	-11
0.23267	-10
0.23633	-9
0.24000	-9
0.24367	-11
0.24733	-12
0.25100	-13
0.25467	-12
0.25833	-12
0.26200	-13
0.26567	-16
0.26933	-17
0.27300	-15
0.27667	-14
0.28033	-14
0.28400	-13
0.28767	-13
0.29133	-12
0.29500	-12
0.29867	-13
0.30233	-12
0.30600	-11
0.30967	-12
0.31333	-14
0.31700	-16
0.32067	-15
0.32433	-15
0.32800	-15
0.33167	-16
0.33533	-15
0.33900	-15
0.34267	-14
0.34633	-15
0.35000	-16
0.35367	-17
0.35733	-17
0.36100	-17
0.36467	-18
0.36833	-17
0.37200	-18
0.37567	-18
0.37933	-17
0.38300	-15
0.38667	-13
0.39033	-11
0.39400	-10
0.39767	-9
0.40133	-10
0.40500	-14
0.40867	-19
0.41233	-19
0.41600	-17
0.41967	-17
0.42333	-19
0.42700	-18
0.43067	-16
0.43433	-16
0.43800	-15
0.44167	-16
0.44533	-18
0.44900	-19
0.45267	-18
0.45633	-18
0.46000	-17
0.46367	-16
0.46733	-15
0.47100	-16
0.47467	-15
0.47833	-17
0.48200	-18
0.48567	-19
0.48933	-21
0.49300	-22
0.49667	-19
0.50033	-17
0.50400	-15
0.50767	-15
0.51133	-17
0.51500	-18
0.51867	-19
0.52233	-21
0.52600	-21
0.52967	-22
0.53333	-24
0.53700	-23
0.54067	-21
0.54433	-18
0.54800	-16
0.55167	-14
0.55533	-12
0.55900	-11
0.56267	-13
0.56633	-13
0.57000	-11
0.57367	-10
0.57733	-11
0.58100	-12
0.58467	-13
0.58833	-13
0.59200	-13
0.59567	-14
0.59933	-13
0.60300	-12
0.60667	-10
0.61033	-10
0.61400	-12
0.61767	-13
0.62133	-13
0.62500	-13
0.62867	-13
0.63233	-15
0.63600	-15
0.63967	-14
0.64333	-12
0.64700	-10
0.65067	-11
0.65433	-11
0.65800	-8
0.66167	-8
0.66533	-9
0.66900	-9
0.67267	-7
0.67633	-6
0.68000	-6
0.68367	-7
0.68733	-7
0.69100	-7
0.69467	-8
0.69833	-9
0.70200	-9
0.70567	-6
0.70933	-4
0.71300	-2
0.71667	0
0.72033	0
0.72400	-0
0.72767	-2
0.73133	-2
0.73500	-3
0.73867	-2
0.74233	-4
0.74600	-4
0.74967	-3
0.75333	-1
0.75700	3
0.76067	3
0.76433	2
0.76800	3
0.77167	5
0.77533	6
0.77900	7
0.78267	5
0.78633	2
0.79000	1
0.79367	1
0.79733	1
0.80100	1
0.80467	5
0.80833	8
0.81200	8
0.81567	7
0.81933	3
0.82300	2
0.82667	1
0.83033	0
0.83400	-1
0.83767	-2
0.84133	-1
0.84500	-0
0.84867	1
0.85233	2
0.85600	3
0.85967	3
0.86333	1
0.86700	1
0.87067	-1
0.87433	0
0.87800	0
0.88167	0
0.88533	0
0.88900	-0
0.89267	0
0.89633	1
0.90000	3
0.90367	5
0.90733	3
0.91100	2
0.91467	3
0.91833	3
0.92200	3
0.92567	2
0.92933	1
0.93300	-0
0.93667	-0
0.94033	-1
0.94400	-3
0.94767	-4
0.95133	-2
0.95500	-2
0.95867	-0
0.96233	2
0.96600	3
0.96967	2
0.97333	4
0.97700	7
0.98067	10
0.98433	11
0.98800	13
0.99167	13
0.99533	11
0.99900	8
1.00267	7
1.00633	8
1.01000	8
1.01367	7
1.01733	7
1.02100	6
1.02467	3
1.02833	1
1.03200	0
1.03567	1
1.03933	2
1.04300	2
1.04667	3
1.05033	4
1.05400	3
1.05767	2
1.06133	1
1.06500	0
1.06867	1
1.07233	2
1.07600	1
1.07967	1
1.08333	1
1.08700	1
1.09067	2
1.09433	3
1.09800	2
1.10167	4
1.10533	5
1.10900	4
1.11267	3
1.11633	3
1.12000	3
1.12367	2
1.12733	1
1.13100	1
1.13467	2
1.13833	3
1.14200	3
1.14567	2
1.14933	1
1.15300	0
1.15667	-1
1.16033	-1
1.16400	-2
1.16767	-2
1.17133	-3
1.17500	-1
1.17867	-0
1.18233	2
1.18600	3
1.18967	4
1.19333	5
1.19700	4
1.20067	3
1.20433	3
1.20800	3
1.21167	4
1.21533	3
1.21900	1
1.22267	0
1.22633	0
1.23000	-1
1.23367	-3
1.23733	-3
1.24100	-3
1.24467	-2
1.24833	-1
1.25200	1
1.25567	1
1.25933	1
1.26300	3
1.26667	2
1.27033	-2
1.27400	-4
1.27767	-6
1.28133	-6
1.28500	-6
1.28867	-6
1.29233	-6
1.29600	-6
1.29967	-5
1.30333	-4
1.30700	-3
1.31067	-3
1.31433	-3
1.31800	-3
1.32167	-0
1.32533	3
1.32900	3
1.33267	1
1.33633	-1
1.34000	-4
1.34367	-5
1.34733	-5
1.35100	-4
1.35467	-2
1.35833	-2
1.36200	-2
1.36567	-2
1.36933	-1
1.37300	-0
1.37667	-4
1.38033	-6
1.38400	-6
1.38767	-6
1.39133	-8
1.39500	-8
1.39867	-7
1.40233	-6
1.40600	-3
1.40967	-2
1.41333	-1
1.41700	-1
1.42067	-1
1.42433	-3
1.42800	-5
1.43167	-6
1.43533	-6
1.43900	-4
1.44267	-4
1.44633	-3
1.45000	-3
1.45367	-3
1.45733	-3
1.46100	-4
1.46467	-3
1.46833	-3
1.47200	-4
1.47567	-4
1.47933	-4
1.48300	-2
1.48667	-1
1.49033	-1
1.49400	-1
1.49767	-1
1.50133	0
1.50500	0
1.50867	1
1.51233	0
1.51600	-1
1.51967	-1
1.52333	-1
1.52700	1
1.53067	1
1.53433	-1
1.53800	-0
1.54167	3
1.54533	5
1.54900	3
1.55267	1
1.55633	-1
1.56000	-2
1.56367	-1
1.56733	-1
1.57100	-0
1.57467	-2
1.57833	-2
1.58200	-1
1.58567	1
1.58933	5
1.59300	5
1.59667	4
1.60033	3
1.60400	3
1.60767	4
1.61133	5
1.61500	5
1.61867	5
1.62233	6
1.62600	7
1.62967	7
1.63333	6
1.63700	4
1.64067	3
1.64433	5
1.64800	9
1.65167	12
1.65533	11
1.65900	12
1.66267	13
1.66633	15
1.67000	17
1.67367	18
1.67733	19
1.68100	22
1.68467	22
1.68833	23
1.69200	21
1.69567	19
1.69933	20
1.70300	21
1.70667	21
1.71033	22
1.71400	24
1.71767	26
1.72133	27
1.72500	26
1.72867	27
1.73233	26
1.73600	24
1.73967	24
1.74333	24
1.74700	26
1.75067	26
1.75433	25
1.75800	25
1.76167	24
1.76533	25
1.76900	26
1.77267	26
1.77633	26
1.78000	27
1.78367	28
1.78733	28
1.79100	27
1.79467	25
1.79833	25
1.80200	26
1.80567	27
1.80933	29
1.81300	28
1.81667	27
1.82033	28
1.82400	29
1.82767	28
1.83133	27
1.83500	29
1.83867	32
1.84233	35
1.84600	39
1.84967	39
1.85333	39
1.85700	39
1.86067	39
1.86433	40
1.86800	41
1.87167	45
1.87533	47
1.87900	49
1.88267	50
1.88633	50
1.89000	52
1.89367	52
1.89733	52
1.90100	53
1.90467	53
1.90833	54
1.91200	54
1.91567	54
1.91933	57
1.92300	58
1.92667	60
1.93033	62
1.93400	64
1.93767	66
1.94133	65
1.94500	67
1.94867	66
1.95233	64
1.95600	64
1.95967	65
1.96333	66
1.96700	67
1.97067	68
1.97433	70
1.97800	70
1.98167	70
1.98533	72
1.98900	74
1.99267	75
1.99633	76
2.00000	77
2.00367	78
2.00733	81
2.01100	82
2.01467	81
2.01833	78
2.02200	76
2.02567	76
2.02933	77
2.03300	77
2.03667	78
2.04033	77
2.04400	77
2.04767	79
2.05133	80
2.05500	81
2.05867	83
2.06233	86
2.06600	88
2.06967	90
2.07333	91
2.07700	89
2.08067	87
2.08433	87
2.08800	89
2.09167	92
2.09533	92
2.09900	94
2.10267	96
2.10633	101
2.11000	104
2.11367	105
2.11733	105
2.12100	105
2.12467	107
2.12833	111
2.13200	114
2.13567	116
2.13933	119
2.14300	121
2.14667	121
2.15033	121
2.15400	121
2.15767	123
2.16133	125
2.16500	126
2.16867	127
2.17233	128
2.17600	129
2.17967	131
2.18333	132
2.18700	135
2.19067	138
2.19433	139
2.19800	139
2.20167	139
2.20533	138
2.20900	141
2.21267	144
2.21633	145
2.22000	144
2.22367	144
2.22733	146
2.23100	149
2.23467	155
2.23833	158
2.24200	162
2.24567	166
2.24933	166
2.25300	165
2.25667	164
2.26033	163
2.26400	163
2.26767	163
2.27133	165
2.27500	165
2.27867	164
2.28233	165
2.28600	168
2.28967	170
2.29333	169
2.29700	167
2.30067	167
2.30433	167
2.30800	167
2.31167	168
2.31533	172
2.31900	176
2.32267	180
2.32633	182
2.33000	184
2.33367	186
2.33733	186
2.34100	187
2.34467	189
2.34833	191
2.35200	194
2.35567	195
2.35933	195
2.36300	195
2.36667	194
2.37033	193
2.37400	193
2.37767	197
2.38133	199
2.38500	199
2.38867	198
2.39233	198
2.39600	200
2.39967	206
2.40333	211
2.40700	215
2.41067	218
2.41433	222
2.41800	228
2.42167	232
2.42533	235
2.42900	236
2.43267	236
2.43633	238
2.44000	240
2.44367	289
2.44733	418
2.45100	557
2.45467	673
2.45833	744
2.46200	753
2.46567	727
2.46933	693
2.47300	665
2.47667	649
2.48033	639
2.48400	623
2.48767	591
2.49133	551
2.49500	510
2.49867	475
2.50233	446
2.50600	427
2.50967	417
2.51333	414
2.51700	419
2.52067	432
2.52433	448
2.52800	465
2.53167	475
2.53533	478
2.53900	474
2.54267	462
2.54633	442
2.55000	417
2.55367	390
2.55733	367
2.56100	347
2.56467	331
2.56833	318
2.57200	310
2.57567	306
2.57933	304
2.58300	301
2.58667	298
2.59033	295
2.59400	291
2.59767	287
2.60133	281
2.60500	270
2.60867	254
2.61233	238
2.61600	222
2.61967	205
2.62333	193
2.62700	181
2.63067	170
2.63433	166
2.63800	166
2.64167	168
2.64533	173
2.64900	178
2.65267	185
2.65633	191
2.66000	194
2.66367	194
2.66733	194
2.67100	190
2.67467	186
2.67833	181
2.68200	176
2.68567	169
2.68933	164
2.69300	159
2.69667	153
2.70033	150
2.70400	148
2.70767	145
2.71133	140
2.71500	136
2.71867	135
2.72233	134
2.72600	135
2.72967	137
2.73333	138
2.73700	139
2.74067	140
2.74433	141
2.74800	144
2.75167	147
2.75533	151
2.75900	152
2.76267	152
2.76633	152
2.77000	151
2.77367	152
2.77733	152
2.78100	151
2.78467	150
2.78833	151
2.79200	154
2.79567	156
2.79933	157
2.80300	158
2.80667	158
2.81033	161
2.81400	165
2.81767	172
2.82133	183
2.82500	206
2.82867	257
2.83233	358
2.83600	529
2.83967	792
2.84333	1165
2.84700	1646
2.85067	2217
2.85433	2845
2.85800	3482
2.86167	4078
2.86533	4585
2.86900	4962
2.87267	5188
2.87633	5259
2.88000	5189
2.88367	5002
2.88733	4730
2.89100	4403
2.89467	4042
2.89833	3672
2.90200	3308
2.90567	2960
2.90933	2637
2.91300	2342
2.91667	2076
2.92033	1841
2.92400	1633
2.92767	1449
2.93133	1286
2.93500	1143
2.93867	1016
2.94233	906
2.94600	811
2.94967	728
2.95333	657
2.95700	595
2.96067	543
2.96433	496
2.96800	453
2.97167	415
2.97533	382
2.97900	353
2.98267	330
2.98633	311
2.99000	293
2.99367	278
2.99733	265
3.00100	253
3.00467	241
3.00833	229
3.01200	218
3.01567	211
3.01933	204
3.02300	195
3.02667	177
3.03033	142
3.03400	111
3.03767	102
3.04133	113
3.04500	139
3.04867	173
3.05233	210
3.05600	248
3.05967	284
3.06333	315
3.06700	346
3.07067	374
3.07433	397
3.07800	419
3.08167	441
3.08533	459
3.08900	473
3.09267	484
3.09633	494
3.10000	504
3.10367	511
3.10733	519
3.11100	526
3.11467	531
3.11833	534
3.12200	539
3.12567	544
3.12933	548
3.13300	553
3.13667	560
3.14033	564
3.14400	569
3.14767	573
3.15133	579
3.15500	584
3.15867	588
3.16233	593
3.16600	598
3.16967	602
3.17333	607
3.17700	611
3.18067	614
3.18433	618
3.18800	621
3.19167	623
3.19533	625
3.19900	628
3.20267	631
3.20633	634
3.21000	634
3.21367	634
3.21733	636
3.22100	639
3.22467	640
3.22833	639
3.23200	638
3.23567	638
3.23933	639
3.24300	639
3.24667	642
3.25033	644
3.25400	646
3.25767	647
3.26133	647
3.26500	646
3.26867	644
3.27233	643
3.27600	643
3.27967	640
3.28333	637
3.28700	635
3.29067	634
3.29433	635
3.29800	636
3.30167	636
3.30533	639
3.30900	641
3.31267	642
3.31633	643
3.32000	643
3.32367	642
3.32733	643
3.33100	643
3.33467	641
3.33833	638
3.34200	636
3.34567	635
3.34933	635
3.35300	638
3.35667	642
3.36033	644
3.36400	644
3.36767	643
3.37133	641
3.37500	640
3.37867	640
3.38233	640
3.38600	641
3.38967	642
3.39333	640
3.39700	640
3.40067	639
3.40433	637
3.40800	637
3.41167	637
3.41533	638
3.41900	637
3.42267	638
3.42633	635
3.43000	631
3.43367	629
3.43733	627
3.44100	628
3.44467	628
3.44833	625
3.45200	623
3.45567	619
3.45933	616
3.46300	614
3.46667	614
3.47033	612
3.47400	611
3.47767	609
3.48133	609
3.48500	607
3.48867	605
3.49233	605
3.49600	605
3.49967	604
3.50333	603
3.50700	603
3.51067	603
3.51433	601
3.51800	599
3.52167	599
3.52533	600
3.52900	599
3.53267	596
3.53633	593
3.54000	592
3.54367	591
3.54733	588
3.55100	584
3.55467	583
3.55833	580
3.56200	579
3.56567	581
3.56933	582
3.57300	582
3.57667	581
3.58033	579
3.58400	577
3.58767	577
3.59133	575
3.59500	573
3.59867	572
3.60233	571
3.60600	571
3.60967	571
3.61333	570
3.61700	570
3.62067	569
3.62433	568
3.62800	568
3.63167	568
3.63533	568
3.63900	570
3.64267	572
3.64633	570
3.65000	568
3.65367	569
3.65733	571
3.66100	574
3.66467	574
3.66833	574
3.67200	572
3.67567	571
3.67933	569
3.68300	567
3.68667	564
3.69033	562
3.69400	563
3.69767	566
3.70133	568
3.70500	567
3.70867	565
3.71233	562
3.71600	561
3.71967	561
3.72333	564
3.72700	566
3.73067	566
3.73433	565
3.73800	563
3.74167	563
3.74533	563
3.74900	563
3.75267	563
3.75633	564
3.76000	565
3.76367	565
3.76733	562
3.77100	559
3.77467	558
3.77833	560
3.78200	559
3.78567	558
3.78933	559
3.79300	557
3.79667	553
3.80033	550
3.80400	547
3.80767	547
3.81133	546
3.81500	545
3.81867	546
3.82233	545
3.82600	544
3.82967	543
3.83333	543
3.83700	542
3.84067	541
3.84433	540
3.84800	540
3.85167	539
3.85533	534
3.85900	529
3.86267	527
3.86633	526
3.87000	528
3.87367	527
3.87733	526
3.88100	522
3.88467	519
3.88833	517
3.89200	516
3.89567	515
3.89933	515
3.90300	515
3.90667	515
3.91033	515
3.91400	516
3.91767	518
3.92133	518
3.92500	515
3.92867	511
3.93233	507
3.93600	502
3.93967	498
3.94333	497
3.94700	498
3.95067	498
3.95433	495
3.95800	493
3.96167	492
3.96533	492
3.96900	491
3.97267	490
3.97633	485
3.98000	483
3.98367	482
3.98733	482
3.99100	482
3.99467	480
3.99833	475

[Status Trace (Column Oven Temperature)]
Interval(msec)	1000
# of Points	240
Start Time(min)	0.006
End Time(min)	3.989
Intensity Units	
Intensity Multiplier	1
R.Time (min)	Intensity
0.00578	35.01
0.02245	35.02
0.03912	35.01
0.05578	35.00
0.07245	35.00
0.08912	35.00
0.10578	35.01
0.12245	35.01
0.13912	35.01
0.15578	35.02
0.17245	35.02
0.18912	35.03
0.20578	35.04
0.22245	35.04
0.23912	35.03
0.25578	35.02
0.27245	35.02
0.28912	35.02
0.30578	35.03
0.32245	35.02
0.33912	35.01
0.35578	35.01
0.37245	35.01
0.38912	35.02
0.40578	35.03
0.42245	35.03
0.43912	35.03
0.45578	35.02
0.47245	34.99
0.48912	34.98
0.50578	34.98
0.52245	34.98
0.53912	34.99
0.55578	34.99
0.57245	34.99
0.58912	35.00
0.60578	35.01
0.62245	35.00
0.63912	34.99
0.65578	34.98
0.67245	34.98
0.68912	34.98
0.70578	34.98
0.72245	34.98
0.73912	34.98
0.75578	34.98
0.77245	34.98
0.78912	34.99
0.80578	34.99
0.82245	34.99
0.83912	35.00
0.85578	35.00
0.87245	35.00
0.88912	35.02
0.90578	35.01
0.92245	34.99
0.93912	34.98
0.95578	34.97
0.97245	34.99
0.98912	35.00
1.00578	35.00
1.02245	35.00
1.03912	35.01
1.05578	35.01
1.07245	35.01
1.08912	35.01
1.10578	35.00
1.12245	35.00
1.13912	35.00
1.15578	35.01
1.17245	35.01
1.18912	35.01
1.20578	35.00
1.22245	35.00
1.23912	34.99
1.25578	34.99
1.27245	34.97
1.28912	34.97
1.30578	34.97
1.32245	34.98
1.33912	34.99
1.35578	35.00
1.37245	35.00
1.38912	35.01
1.40578	35.02
1.42245	35.03
1.43912	35.03
1.45578	35.02
1.47245	35.02
1.48912	35.02
1.50578	35.01
1.52245	35.01
1.53912	34.99
1.55578	34.99
1.57245	34.99
1.58912	34.99
1.60578	35.05
1.62245	35.16
1.63912	35.33
1.65578	35.57
1.67245	35.90
1.68912	36.27
1.70578	36.63
1.72245	36.97
1.73912	37.30
1.75578	37.64
1.77245	37.99
1.78912	38.30
1.80578	38.62
1.82245	38.95
1.83912	39.29
1.85578	39.62
1.87245	39.95
1.88912	40.28
1.90578	40.61
1.92245	40.94
1.93912	41.26
1.95578	41.57
1.97245	41.90
1.98912	42.22
2.00578	42.55
2.02245	42.87
2.03912	43.18
2.05578	43.51
2.07245	43.83
2.08912	44.17
2.10578	44.50
2.12245	44.81
2.13912	45.15
2.15578	45.48
2.17245	45.79
2.18912	46.11
2.20578	46.46
2.22245	46.78
2.23912	47.10
2.25578	47.47
2.27245	47.79
2.28912	48.11
2.30578	48.44
2.32245	48.81
2.33912	49.11
2.35578	49.41
2.37245	49.62
2.38912	49.72
2.40578	49.72
2.42245	49.72
2.43912	49.73
2.45578	49.72
2.47245	49.73
2.48912	49.74
2.50578	49.76
2.52245	49.76
2.53912	49.78
2.55578	49.78
2.57245	49.80
2.58912	49.81
2.60578	49.83
2.62245	49.82
2.63912	49.83
2.65578	49.84
2.67245	49.84
2.68912	49.86
2.70578	49.87
2.72245	49.86
2.73912	49.84
2.75578	49.85
2.77245	49.86
2.78912	49.88
2.80578	49.88
2.82245	49.89
2.83912	49.89
2.85578	49.89
2.87245	49.90
2.88912	49.90
2.90578	49.90
2.92245	49.91
2.93912	49.93
2.95578	49.94
2.97245	49.96
2.98912	49.96
3.00578	49.97
3.02245	49.97
3.03912	49.99
3.05578	50.00
3.07245	50.01
3.08912	50.01
3.10578	50.02
3.12245	50.02
3.13912	50.02
3.15578	50.02
3.17245	50.04
3.18912	50.06
3.20578	50.07
3.22245	50.08
3.23912	50.09
3.25578	50.10
3.27245	50.10
3.28912	50.10
3.30578	50.11
3.32245	50.10
3.33912	50.08
3.35578	50.06
3.37245	50.06
3.38912	50.06
3.40578	50.05
3.42245	50.04
3.43912	50.03
3.45578	50.02
3.47245	50.02
3.48912	50.01
3.50578	50.02
3.52245	50.01
3.53912	50.01
3.55578	50.01
3.57245	50.01
3.58912	50.02
3.60578	50.03
3.62245	50.03
3.63912	50.02
3.65578	50.03
3.67245	50.03
3.68912	50.03
3.70578	50.04
3.72245	50.05
3.73912	50.07
3.75578	50.07
3.77245	50.08
3.78912	50.09
3.80578	50.09
3.82245	50.08
3.83912	50.08
3.85578	50.07
3.87245	50.07
3.88912	50.07
3.90578	50.07
3.92245	50.07
3.93912	50.07
3.95578	50.08
3.97245	50.08
3.98912	50.08

[Status Trace (Injection Unit Temperature)]
Interval(msec)	1000
# of Points	240
Start Time(min)	0.006
End Time(min)	3.989
Intensity Units	
Intensity Multiplier	1
R.Time (min)	Intensity
0.00578	99.98
0.02245	99.97
0.03912	99.97
0.05578	99.98
0.07245	99.98
0.08912	99.97
0.10578	99.97
0.12245	99.98
0.13912	99.97
0.15578	99.98
0.17245	99.98
0.18912	99.98
0.20578	99.98
0.22245	99.98
0.23912	99.98
0.25578	99.98
0.27245	99.98
0.28912	99.98
0.30578	99.98
0.32245	99.98
0.33912	99.98
0.35578	99.98
0.37245	99.98
0.38912	99.98
0.40578	99.98
0.42245	99.98
0.43912	99.98
0.45578	99.98
0.47245	99.98
0.48912	99.98
0.50578	99.98
0.52245	99.98
0.53912	99.98
0.55578	99.98
0.57245	99.98
0.58912	99.98
0.60578	99.98
0.62245	99.98
0.63912	99.98
0.65578	99.98
0.67245	99.98
0.68912	99.98
0.70578	99.98
0.72245	99.99
0.73912	99.98
0.75578	99.98
0.77245	99.98
0.78912	99.98
0.80578	99.98
0.82245	99.98
0.83912	99.98
0.85578	99.98
0.87245	99.98
0.88912	99.98
0.90578	99.98
0.92245	99.98
0.93912	99.98
0.95578	99.98
0.97245	99.98
0.98912	99.99
1.00578	99.99
1.02245	99.98
1.03912	99.98
1.05578	99.99
1.07245	99.99
1.08912	99.98
1.10578	99.98
1.12245	99.98
1.13912	99.98
1.15578	99.98
1.17245	99.98
1.18912	99.99
1.20578	99.99
1.22245	99.99
1.23912	99.98
1.25578	99.99
1.27245	99.98
1.28912	99.98
1.30578	99.99
1.32245	99.99
1.33912	99.99
1.35578	99.99
1.37245	99.99
1.38912	99.99
1.40578	99.99
1.42245	99.99
1.43912	99.99
1.45578	99.99
1.47245	99.99
1.48912	99.99
1.50578	99.99
1.52245	99.99
1.53912	99.99
1.55578	99.99
1.57245	99.99
1.58912	99.99
1.60578	99.99
1.62245	99.99
1.63912	99.99
1.65578	99.99
1.67245	99.99
1.68912	99.99
1.70578	99.99
1.72245	99.99
1.73912	99.99
1.75578	99.99
1.77245	99.99
1.78912	99.99
1.80578	99.99
1.82245	99.99
1.83912	99.99
1.85578	99.99
1.87245	99.99
1.88912	99.99
1.90578	99.98
1.92245	99.98
1.93912	99.98
1.95578	99.98
1.97245	99.98
1.98912	99.98
2.00578	99.98
2.02245	99.98
2.03912	99.98
2.05578	99.97
2.07245	99.98
2.08912	99.97
2.10578	99.98
2.12245	99.97
2.13912	99.97
2.15578	99.97
2.17245	99.97
2.18912	99.97
2.20578	99.97
2.22245	99.97
2.23912	99.97
2.25578	99.97
2.27245	99.97
2.28912	99.97
2.30578	99.97
2.32245	99.97
2.33912	99.97
2.35578	99.96
2.37245	99.97
2.38912	99.97
2.40578	99.97
2.42245	99.97
2.43912	99.97
2.45578	99.97
2.47245	99.97
2.48912	99.97
2.50578	99.97
2.52245	99.97
2.53912	99.97
2.55578	99.98
2.57245	99.97
2.58912	99.98
2.60578	99.97
2.62245	99.98
2.63912	99.98
2.65578	99.98
2.67245	99.98
2.68912	99.98
2.70578	99.98
2.72245	99.97
2.73912	99.98
2.75578	99.99
2.77245	99.99
2.78912	99.99
2.80578	99.99
2.82245	99.99
2.83912	99.99
2.85578	100.00
2.87245	100.00
2.88912	100.00
2.90578	100.00
2.92245	100.00
2.93912	100.00
2.95578	100.01
2.97245	100.01
2.98912	100.01
3.00578	100.01
3.02245	100.00
3.03912	100.01
3.05578	100.01
3.07245	100.01
3.08912	100.01
3.10578	100.01
3.12245	100.01
3.13912	100.02
3.15578	100.02
3.17245	100.02
3.18912	100.02
3.20578	100.02
3.22245	100.02
3.23912	100.02
3.25578	100.02
3.27245	100.03
3.28912	100.02
3.30578	100.03
3.32245	100.02
3.33912	100.03
3.35578	100.03
3.37245	100.03
3.38912	100.03
3.40578	100.03
3.42245	100.03
3.43912	100.03
3.45578	100.03
3.47245	100.03
3.48912	100.04
3.50578	100.04
3.52245	100.03
3.53912	100.04
3.55578	100.04
3.57245	100.03
3.58912	100.04
3.60578	100.04
3.62245	100.04
3.63912	100.04
3.65578	100.04
3.67245	100.04
3.68912	100.04
3.70578	100.04
3.72245	100.04
3.73912	100.04
3.75578	100.04
3.77245	100.04
3.78912	100.04
3.80578	100.04
3.82245	100.05
3.83912	100.04
3.85578	100.04
3.87245	100.04
3.88912	100.05
3.90578	100.05
3.92245	100.04
3.93912	100.05
3.95578	100.05
3.97245	100.05
3.98912	100.05

[Status Trace (Carrier Gas Pressure)]
Interval(msec)	1000
# of Points	240
Start Time(min)	0.006
End Time(min)	3.989
Intensity Units	
Intensity Multiplier	1
R.Time (min)	Intensity
0.00578	58.00
0.02245	55.64
0.03912	56.76
0.05578	58.99
0.07245	59.62
0.08912	58.14
0.10578	57.97
0.12245	58.01
0.13912	58.01
0.15578	58.01
0.17245	58.00
0.18912	58.00
0.20578	58.00
0.22245	58.00
0.23912	58.00
0.25578	58.00
0.27245	58.00
0.28912	58.00
0.30578	58.00
0.32245	58.00
0.33912	58.00
0.35578	58.00
0.37245	58.00
0.38912	58.00
0.40578	58.00
0.42245	58.00
0.43912	58.00
0.45578	58.00
0.47245	58.00
0.48912	58.00
0.50578	58.00
0.52245	58.00
0.53912	58.00
0.55578	58.00
0.57245	58.00
0.58912	58.00
0.60578	58.00
0.62245	58.00
0.63912	58.00
0.65578	58.00
0.67245	58.00
0.68912	58.00
0.70578	58.00
0.72245	58.00
0.73912	58.00
0.75578	58.00
0.77245	58.00
0.78912	58.00
0.80578	58.00
0.82245	58.00
0.83912	58.00
0.85578	58.00
0.87245	58.00
0.88912	58.00
0.90578	58.00
0.92245	58.00
0.93912	58.00
0.95578	58.00
0.97245	58.00
0.98912	58.00
1.00578	58.00
1.02245	58.00
1.03912	58.00
1.05578	58.00
1.07245	58.00
1.08912	58.00
1.10578	58.00
1.12245	58.00
1.13912	58.00
1.15578	58.00
1.17245	58.00
1.18912	58.00
1.20578	58.00
1.22245	58.00
1.23912	58.00
1.25578	58.00
1.27245	58.00
1.28912	58.00
1.30578	58.00
1.32245	58.00
1.33912	58.00
1.35578	58.00
1.37245	58.00
1.38912	58.00
1.40578	58.00
1.42245	58.00
1.43912	58.00
1.45578	58.00
1.47245	58.00
1.48912	58.00
1.50578	58.00
1.52245	58.00
1.53912	58.00
1.55578	58.00
1.57245	58.00
1.58912	58.00
1.60578	58.00
1.62245	58.00
1.63912	58.00
1.65578	58.00
1.67245	58.01
1.68912	58.00
1.70578	58.00
1.72245	58.00
1.73912	58.00
1.75578	58.00
1.77245	58.00
1.78912	58.00
1.80578	58.00
1.82245	58.00
1.83912	58.00
1.85578	58.00
1.87245	58.00
1.88912	58.00
1.90578	58.00
1.92245	58.00
1.93912	58.00
1.95578	58.00
1.97245	58.00
1.98912	58.00
2.00578	58.00
2.02245	58.00
2.03912	58.00
2.05578	58.00
2.07245	58.00
2.08912	58.00
2.10578	58.00
2.12245	58.00
2.13912	58.00
2.15578	58.00
2.17245	58.00
2.18912	58.00
2.20578	58.00
2.22245	58.00
2.23912	58.00
2.25578	58.00
2.27245	58.00
2.28912	58.00
2.30578	58.00
2.32245	58.00
2.33912	58.00
2.35578	58.00
2.37245	58.00
2.38912	57.99
2.40578	57.99
2.42245	58.00
2.43912	58.00
2.45578	58.00
2.47245	58.00
2.48912	58.00
2.50578	57.99
2.52245	57.98
2.53912	58.00
2.55578	58.00
2.57245	58.00
2.58912	58.00
2.60578	58.00
2.62245	58.00
2.63912	58.00
2.65578	58.00
2.67245	58.00
2.68912	58.00
2.70578	58.00
2.72245	58.00
2.73912	58.00
2.75578	58.00
2.77245	58.00
2.78912	58.00
2.80578	58.00
2.82245	58.00
2.83912	58.00
2.85578	58.00
2.87245	58.00
2.88912	58.00
2.90578	58.00
2.92245	58.00
2.93912	58.00
2.95578	58.00
2.97245	58.00
2.98912	58.00
3.00578	58.00
3.02245	58.00
3.03912	58.00
3.05578	58.00
3.07245	58.00
3.08912	58.00
3.10578	58.00
3.12245	58.00
3.13912	58.00
3.15578	58.00
3.17245	58.00
3.18912	58.00
3.20578	58.00
3.22245	58.00
3.23912	58.00
3.25578	58.00
3.27245	58.00
3.28912	58.00
3.30578	58.00
3.32245	58.00
3.33912	58.00
3.35578	58.00
3.37245	58.00
3.38912	58.00
3.40578	58.00
3.42245	58.00
3.43912	58.00
3.45578	58.00
3.47245	58.00
3.48912	58.00
3.50578	58.00
3.52245	58.00
3.53912	58.00
3.55578	58.00
3.57245	58.00
3.58912	58.00
3.60578	58.00
3.62245	58.00
3.63912	58.00
3.65578	58.00
3.67245	58.00
3.68912	58.00
3.70578	58.00
3.72245	58.00
3.73912	58.00
3.75578	58.00
3.77245	58.00
3.78912	58.00
3.80578	58.00
3.82245	58.00
3.83912	58.00
3.85578	58.00
3.87245	58.00
3.88912	58.00
3.90578	58.00
3.92245	58.00
3.93912	58.00
3.95578	58.00
3.97245	58.00
3.98912	58.00

[Status Trace (Carrier Gas Flow)]
Interval(msec)	1000
# of Points	240
Start Time(min)	0.006
End Time(min)	3.989
Intensity Units	
Intensity Multiplier	1
R.Time (min)	Intensity
0.00578	34.52
0.02245	34.54
0.03912	34.54
0.05578	34.55
0.07245	34.49
0.08912	34.52
0.10578	34.52
0.12245	34.52
0.13912	34.52
0.15578	34.53
0.17245	34.51
0.18912	34.52
0.20578	34.51
0.22245	34.52
0.23912	34.52
0.25578	34.52
0.27245	34.52
0.28912	34.52
0.30578	34.52
0.32245	34.52
0.33912	34.52
0.35578	34.52
0.37245	34.52
0.38912	34.52
0.40578	34.52
0.42245	34.52
0.43912	34.52
0.45578	34.52
0.47245	34.52
0.48912	34.51
0.50578	34.52
0.52245	34.52
0.53912	34.52
0.55578	34.51
0.57245	34.52
0.58912	34.51
0.60578	34.52
0.62245	34.52
0.63912	34.52
0.65578	34.52
0.67245	34.52
0.68912	34.52
0.70578	34.52
0.72245	34.52
0.73912	34.52
0.75578	34.52
0.77245	34.52
0.78912	34.52
0.80578	34.52
0.82245	34.52
0.83912	34.52
0.85578	34.52
0.87245	34.52
0.88912	34.52
0.90578	34.52
0.92245	34.52
0.93912	34.52
0.95578	34.53
0.97245	34.52
0.98912	34.52
1.00578	34.52
1.02245	34.52
1.03912	34.52
1.05578	34.52
1.07245	34.52
1.08912	34.52
1.10578	34.52
1.12245	34.52
1.13912	34.52
1.15578	34.52
1.17245	34.52
1.18912	34.52
1.20578	34.52
1.22245	34.52
1.23912	34.52
1.25578	34.52
1.27245	34.52
1.28912	34.52
1.30578	34.52
1.32245	34.52
1.33912	34.52
1.35578	34.52
1.37245	34.52
1.38912	34.51
1.40578	34.52
1.42245	34.52
1.43912	34.52
1.45578	34.52
1.47245	34.52
1.48912	34.52
1.50578	34.52
1.52245	34.52
1.53912	34.52
1.55578	34.52
1.57245	34.52
1.58912	34.52
1.60578	34.52
1.62245	34.52
1.63912	34.52
1.65578	34.52
1.67245	34.52
1.68912	34.52
1.70578	34.52
1.72245	34.52
1.73912	34.52
1.75578	34.52
1.77245	34.51
1.78912	34.52
1.80578	34.52
1.82245	34.52
1.83912	34.52
1.85578	34.52
1.87245	34.52
1.88912	34.52
1.90578	34.52
1.92245	34.52
1.93912	34.51
1.95578	34.52
1.97245	34.51
1.98912	34.52
2.00578	34.52
2.02245	34.51
2.03912	34.52
2.05578	34.52
2.07245	34.52
2.08912	34.51
2.10578	34.51
2.12245	34.52
2.13912	34.52
2.15578	34.51
2.17245	34.52
2.18912	34.52
2.20578	34.52
2.22245	34.52
2.23912	34.51
2.25578	34.52
2.27245	34.52
2.28912	34.51
2.30578	34.52
2.32245	34.52
2.33912	34.52
2.35578	34.51
2.37245	34.52
2.38912	34.51
2.40578	34.52
2.42245	34.51
2.43912	34.52
2.45578	34.52
2.47245	34.52
2.48912	34.52
2.50578	34.51
2.52245	34.52
2.53912	34.52
2.55578	34.52
2.57245	34.52
2.58912	34.51
2.60578	34.52
2.62245	34.52
2.63912	34.52
2.65578	34.51
2.67245	34.52
2.68912	34.51
2.70578	34.52
2.72245	34.52
2.73912	34.52
2.75578	34.51
2.77245	34.52
2.78912	34.52
2.80578	34.51
2.82245	34.52
2.83912	34.52
2.85578	34.52
2.87245	34.52
2.88912	34.51
2.90578	34.52
2.92245	34.52
2.93912	34.52
2.95578	34.52
2.97245	34.52
2.98912	34.52
3.00578	34.52
3.02245	34.52
3.03912	34.52
3.05578	34.51
3.07245	34.53
3.08912	34.51
3.10578	34.52
3.12245	34.52
3.13912	34.52
3.15578	34.51
3.17245	34.52
3.18912	34.52
3.20578	34.52
3.22245	34.52
3.23912	34.52
3.25578	34.52
3.27245	34.52
3.28912	34.52
3.30578	34.52
3.32245	34.51
3.33912	34.52
3.35578	34.52
3.37245	34.51
3.38912	34.52
3.40578	34.52
3.42245	34.52
3.43912	34.52
3.45578	34.52
3.47245	34.52
3.48912	34.52
3.50578	34.52
3.52245	34.52
3.53912	34.52
3.55578	34.52
3.57245	34.52
3.58912	34.51
3.60578	34.52
3.62245	34.52
3.63912	34.52
3.65578	34.52
3.67245	34.52
3.68912	34.52
3.70578	34.52
3.72245	34.52
3.73912	34.52
3.75578	34.52
3.77245	34.52
3.78912	34.52
3.80578	34.52
3.82245	34.52
3.83912	34.52
3.85578	34.52
3.87245	34.51
3.88912	34.52
3.90578	34.52
3.92245	34.52
3.93912	34.52
3.95578	34.52
3.97245	34.52
3.98912	34.52

[Status Trace (Column Flow)]
Interval(msec)	1000
# of Points	240
Start Time(min)	0.006
End Time(min)	3.989
Intensity Units	
Intensity Multiplier	1
R.Time (min)	Intensity
0.00578	5.51
0.02245	5.24
0.03912	5.37
0.05578	5.63
0.07245	5.70
0.08912	5.53
0.10578	5.51
0.12245	5.52
0.13912	5.52
0.15578	5.51
0.17245	5.51
0.18912	5.51
0.20578	5.51
0.22245	5.51
0.23912	5.51
0.25578	5.51
0.27245	5.51
0.28912	5.51
0.30578	5.51
0.32245	5.51
0.33912	5.51
0.35578	5.51
0.37245	5.51
0.38912	5.51
0.40578	5.51
0.42245	5.51
0.43912	5.51
0.45578	5.51
0.47245	5.52
0.48912	5.52
0.50578	5.52
0.52245	5.52
0.53912	5.52
0.55578	5.52
0.57245	5.52
0.58912	5.51
0.60578	5.51
0.62245	5.51
0.63912	5.51
0.65578	5.52
0.67245	5.52
0.68912	5.52
0.70578	5.52
0.72245	5.52
0.73912	5.52
0.75578	5.52
0.77245	5.52
0.78912	5.51
0.80578	5.51
0.82245	5.51
0.83912	5.51
0.85578	5.51
0.87245	5.51
0.88912	5.51
0.90578	5.51
0.92245	5.51
0.93912	5.52
0.95578	5.52
0.97245	5.52
0.98912	5.51
1.00578	5.51
1.02245	5.51
1.03912	5.51
1.05578	5.51
1.07245	5.51
1.08912	5.51
1.10578	5.51
1.12245	5.51
1.13912	5.51
1.15578	5.51
1.17245	5.51
1.18912	5.51
1.20578	5.51
1.22245	5.51
1.23912	5.51
1.25578	5.51
1.27245	5.52
1.28912	5.52
1.30578	5.52
1.32245	5.52
1.33912	5.52
1.35578	5.51
1.37245	5.51
1.38912	5.51
1.40578	5.51
1.42245	5.51
1.43912	5.51
1.45578	5.51
1.47245	5.51
1.48912	5.51
1.50578	5.51
1.52245	5.51
1.53912	5.51
1.55578	5.51
1.57245	5.51
1.58912	5.51
1.60578	5.51
1.62245	5.51
1.63912	5.51
1.65578	5.50
1.67245	5.49
1.68912	5.48
1.70578	5.46
1.72245	5.45
1.73912	5.44
1.75578	5.43
1.77245	5.42
1.78912	5.41
1.80578	5.40
1.82245	5.39
1.83912	5.38
1.85578	5.37
1.87245	5.36
1.88912	5.35
1.90578	5.34
1.92245	5.33
1.93912	5.32
1.95578	5.31
1.97245	5.30
1.98912	5.30
2.00578	5.28
2.02245	5.27
2.03912	5.27
2.05578	5.26
2.07245	5.25
2.08912	5.24
2.10578	5.23
2.12245	5.22
2.13912	5.21
2.15578	5.20
2.17245	5.19
2.18912	5.18
2.20578	5.17
2.22245	5.16
2.23912	5.15
2.25578	5.14
2.27245	5.13
2.28912	5.13
2.30578	5.12
2.32245	5.11
2.33912	5.10
2.35578	5.09
2.37245	5.08
2.38912	5.08
2.40578	5.08
2.42245	5.08
2.43912	5.08
2.45578	5.08
2.47245	5.08
2.48912	5.08
2.50578	5.08
2.52245	5.08
2.53912	5.08
2.55578	5.08
2.57245	5.08
2.58912	5.08
2.60578	5.08
2.62245	5.08
2.63912	5.08
2.65578	5.08
2.67245	5.08
2.68912	5.08
2.70578	5.08
2.72245	5.08
2.73912	5.08
2.75578	5.08
2.77245	5.08
2.78912	5.08
2.80578	5.08
2.82245	5.08
2.83912	5.08
2.85578	5.08
2.87245	5.08
2.88912	5.07
2.90578	5.07
2.92245	5.07
2.93912	5.07
2.95578	5.07
2.97245	5.07
2.98912	5.07
3.00578	5.07
3.02245	5.07
3.03912	5.07
3.05578	5.07
3.07245	5.07
3.08912	5.07
3.10578	5.07
3.12245	5.07
3.13912	5.07
3.15578	5.07
3.17245	5.07
3.18912	5.07
3.20578	5.07
3.22245	5.07
3.23912	5.07
3.25578	5.07
3.27245	5.07
3.28912	5.07
3.30578	5.07
3.32245	5.07
3.33912	5.07
3.35578	5.07
3.37245	5.07
3.38912	5.07
3.40578	5.07
3.42245	5.07
3.43912	5.07
3.45578	5.07
3.47245	5.07
3.48912	5.07
3.50578	5.07
3.52245	5.07
3.53912	5.07
3.55578	5.07
3.57245	5.07
3.58912	5.07
3.60578	5.07
3.62245	5.07
3.63912	5.07
3.65578	5.07
3.67245	5.07
3.68912	5.07
3.70578	5.07
3.72245	5.07
3.73912	5.07
3.75578	5.07
3.77245	5.07
3.78912	5.07
3.80578	5.07
3.82245	5.07
3.83912	5.07
3.85578	5.07
3.87245	5.07
3.88912	5.07
3.90578	5.07
3.92245	5.07
3.93912	5.07
3.95578	5.07
3.97245	5.07
3.98912	5.07

[Status Trace (Linear Velocity)]
Interval(msec)	1000
# of Points	240
Start Time(min)	0.006
End Time(min)	3.989
Intensity Units	
Intensity Multiplier	1
R.Time (min)	Intensity
0.00578	39.01
0.02245	37.46
0.03912	38.20
0.05578	39.66
0.07245	40.07
0.08912	39.11
0.10578	39.00
0.12245	39.02
0.13912	39.02
0.15578	39.02
0.17245	39.02
0.18912	39.01
0.20578	39.01
0.22245	39.01
0.23912	39.01
0.25578	39.01
0.27245	39.01
0.28912	39.01
0.30578	39.01
0.32245	39.01
0.33912	39.01
0.35578	39.01
0.37245	39.01
0.38912	39.01
0.40578	39.01
0.42245	39.01
0.43912	39.01
0.45578	39.01
0.47245	39.02
0.48912	39.02
0.50578	39.02
0.52245	39.02
0.53912	39.02
0.55578	39.02
0.57245	39.02
0.58912	39.02
0.60578	39.01
0.62245	39.02
0.63912	39.02
0.65578	39.02
0.67245	39.02
0.68912	39.02
0.70578	39.02
0.72245	39.02
0.73912	39.02
0.75578	39.02
0.77245	39.02
0.78912	39.02
0.80578	39.02
0.82245	39.02
0.83912	39.02
0.85578	39.01
0.87245	39.01
0.88912	39.01
0.90578	39.01
0.92245	39.02
0.93912	39.02
0.95578	39.02
0.97245	39.02
0.98912	39.02
1.00578	39.02
1.02245	39.01
1.03912	39.01
1.05578	39.01
1.07245	39.01
1.08912	39.01
1.10578	39.01
1.12245	39.02
1.13912	39.02
1.15578	39.01
1.17245	39.01
1.18912	39.01
1.20578	39.01
1.22245	39.02
1.23912	39.02
1.25578	39.02
1.27245	39.02
1.28912	39.02
1.30578	39.02
1.32245	39.02
1.33912	39.02
1.35578	39.02
1.37245	39.01
1.38912	39.01
1.40578	39.01
1.42245	39.01
1.43912	39.01
1.45578	39.01
1.47245	39.01
1.48912	39.01
1.50578	39.01
1.52245	39.01
1.53912	39.02
1.55578	39.02
1.57245	39.02
1.58912	39.02
1.60578	39.01
1.62245	39.00
1.63912	38.99
1.65578	38.96
1.67245	38.93
1.68912	38.90
1.70578	38.86
1.72245	38.83
1.73912	38.80
1.75578	38.76
1.77245	38.73
1.78912	38.70
1.80578	38.67
1.82245	38.64
1.83912	38.61
1.85578	38.58
1.87245	38.55
1.88912	38.52
1.90578	38.48
1.92245	38.45
1.93912	38.43
1.95578	38.39
1.97245	38.36
1.98912	38.34
2.00578	38.30
2.02245	38.27
2.03912	38.25
2.05578	38.22
2.07245	38.19
2.08912	38.16
2.10578	38.12
2.12245	38.10
2.13912	38.07
2.15578	38.04
2.17245	38.01
2.18912	37.98
2.20578	37.95
2.22245	37.92
2.23912	37.89
2.25578	37.86
2.27245	37.83
2.28912	37.80
2.30578	37.77
2.32245	37.74
2.33912	37.71
2.35578	37.68
2.37245	37.66
2.38912	37.65
2.40578	37.65
2.42245	37.65
2.43912	37.65
2.45578	37.65
2.47245	37.65
2.48912	37.65
2.50578	37.65
2.52245	37.64
2.53912	37.65
2.55578	37.65
2.57245	37.65
2.58912	37.65
2.60578	37.65
2.62245	37.65
2.63912	37.65
2.65578	37.64
2.67245	37.65
2.68912	37.64
2.70578	37.64
2.72245	37.64
2.73912	37.65
2.75578	37.64
2.77245	37.64
2.78912	37.64
2.80578	37.64
2.82245	37.64
2.83912	37.64
2.85578	37.64
2.87245	37.64
2.88912	37.64
2.90578	37.64
2.92245	37.64
2.93912	37.64
2.95578	37.64
2.97245	37.63
2.98912	37.63
3.00578	37.63
3.02245	37.63
3.03912	37.63
3.05578	37.63
3.07245	37.63
3.08912	37.63
3.10578	37.63
3.12245	37.63
3.13912	37.63
3.15578	37.63
3.17245	37.63
3.18912	37.63
3.20578	37.62
3.22245	37.62
3.23912	37.62
3.25578	37.62
3.27245	37.62
3.28912	37.62
3.30578	37.62
3.32245	37.62
3.33912	37.62
3.35578	37.63
3.37245	37.63
3.38912	37.63
3.40578	37.63
3.42245	37.63
3.43912	37.63
3.45578	37.63
3.47245	37.63
3.48912	37.63
3.50578	37.63
3.52245	37.63
3.53912	37.63
3.55578	37.63
3.57245	37.63
3.58912	37.63
3.60578	37.63
3.62245	37.63
3.63912	37.63
3.65578	37.63
3.67245	37.63
3.68912	37.63
3.70578	37.63
3.72245	37.63
3.73912	37.63
3.75578	37.62
3.77245	37.62
3.78912	37.62
3.80578	37.62
3.82245	37.62
3.83912	37.62
3.85578	37.62
3.87245	37.63
3.88912	37.62
3.90578	37.63
3.92245	37.62
3.93912	37.62
3.95578	37.62
3.97245	37.62
3.98912	37.62

