[Header]
Application Name	LabSolutions
Version	5.110
Data File Name	C:\Users\User\Desktop\GC Analyses\Jack\Nachusa Grasslands Sampling\T0 Timepoint July 12th\T0_07122022_077.gcd
Output Date	3/14/2023
Output Time	3:40:38 PM

[File Information]
Type	Data File
Generated	3/7/2023 10:22:47 PM
Generated by	System Administrator
Modified	3/7/2023 10:29:36 PM
Modified by	System Administrator

[Sample Information]
Operator Name	System Administrator
Acquired	3/7/2023 10:25:36 PM
Sample Type	0:Unknown
Level	0
Sample Name	077
Sample ID	077
ISTD Amount1	1
ISTD Amount2	1
ISTD Amount3	1
ISTD Amount4	1
ISTD Amount5	1
ISTD Amount6	1
ISTD Amount7	1
ISTD Amount8	1
ISTD Amount9	1
ISTD Amount10	1
ISTD Amount11	1
ISTD Amount12	1
ISTD Amount13	1
ISTD Amount14	1
ISTD Amount15	1
ISTD Amount16	1
ISTD Amount17	1
ISTD Amount18	1
ISTD Amount19	1
ISTD Amount20	1
ISTD Amount21	1
ISTD Amount22	1
ISTD Amount23	1
ISTD Amount24	1
ISTD Amount25	1
ISTD Amount26	1
ISTD Amount27	1
ISTD Amount28	1
ISTD Amount29	1
ISTD Amount30	1
ISTD Amount31	1
ISTD Amount32	1
Sample Amount	1
Dilution Factor	1
Vial#	76
Injection Volume	1
Injection Count	1
Bar Code	

[Original Files]
Data File	C:\Users\User\Desktop\GC Analyses\Jack\Nachusa Grasslands Sampling\T0 Timepoint July 12th\T0_07122022_077.gcd
Method File	C:\LabSolutions\Data\GHG_4min_2022\ghg3_togas_w_acet_4 min_new_int.gcm
Batch File	C:\LabSolutions\Data\AutoSamplerTesting\T0_07122022.gcb
Report Format File	c:\LabSolutions\System\DEFAULT.lsr

[File Description]


[Configuration]
Instrument Name	C0B7VH3-Instrument1
Instrument #	1
Line #	1
# of Detectors	3
Detector ID	DET#1	DET#2	DET#3
Detector Name	FID	PTCD	ECD
# of Channels	1	1	1

[Peak Table(Ch1)]
# of Peaks	3
Peak#	R.Time	I.Time	F.Time	Area	Height	A/H	Conc.	Mark	ID#	Name	k'	Plate #	Plate Ht.	Tailing	Resolution	Sep.Factor	Area Ratio	Height Ratio	Conc. %	Norm Conc.
1	1.483	1.439	1.531	2425	704	3.443	17.124	   	1	CO	0.000	5094	29.449	0.000	0.000	0.000	0	0	1.809	1.809
2	1.567	1.531	1.633	20622	10392	1.984	398.751	 V 	2	CH4	0.057	11291	13.285	1.247	1.187	0.000	0	0	42.130	42.130
3	1.996	1.949	2.557	2114147	997456	2.120	530.594	   	3	CO2	0.346	17006	8.820	1.274	7.136	6.087	0	0	56.060	56.060

[Peak Table(Ch2)]
# of Peaks	0

[Peak Table(Ch3)]
# of Peaks	5
Peak#	R.Time	I.Time	F.Time	Area	Height	A/H	Conc.	Mark	ID#	Name	k'	Plate #	Plate Ht.	Tailing	Resolution	Sep.Factor	Area Ratio	Height Ratio	Conc. %	Norm Conc.
1	2.458	2.260	2.521	2592	507	5.113	0.000	   			0.000	6447	23.266	0.000	0.000	0.000	0	0	0.000	0.000
2	2.546	2.521	2.634	1184	257	4.605	0.000	 V 			0.036	2992	50.139	0.000	0.570	0.000	0	0	0.000	0.000
3	2.686	2.649	2.744	178	52	3.392	0.000	   			0.092	12676	11.834	1.342	0.989	2.583	0	0	0.000	0.000
4	2.873	2.785	3.019	58024	15165	3.826	1.482	   	1	N2O	0.169	12678	11.831	1.609	1.894	1.823	0	0	100.000	100.000
5	3.093	3.019	3.430	6735	472	14.277	0.000	   			0.258	1142	131.361	2.859	0.940	1.531	0	0	0.000	0.000

[Compound Results(Ch1)]
# of IDs	6
ID#	Name	R.Time	Area	Height	Conc.	Curve	3rd	2nd	1st	Constant	Area Ratio	Height Ratio	Conc. %	Norm Conc.
1	CO	1.483	2425	704	17.124	Linear	0.000000e+00	0.000000e+00	1.416423e+002	0.000000e+00	0	0	1.809	1.809
2	CH4	1.567	20622	10392	398.751	Linear	0.000000e+00	0.000000e+00	5.171738e+001	0.000000e+00	0	0	42.130	42.130
3	CO2	1.996	2114147	997456	530.594	Linear	0.000000e+00	0.000000e+00	3.984494e+003	0.000000e+00	0	0	56.060	56.060
4	Ethylene	0.000	0	0	0.000	Linear	0.000000e+00	0.000000e+00	0.000000e+00	0.000000e+00	0	0	0.000	0.000
5	Acetylene	0.000	0	0	0.000	Linear	0.000000e+00	0.000000e+00	0.000000e+00	0.000000e+00	0	0	0.000	0.000
6	Ethane	0.000	0	0	0.000	Linear	0.000000e+00	0.000000e+00	0.000000e+00	0.000000e+00	0	0	0.000	0.000

[Compound Results(Ch2)]
# of IDs	5
ID#	Name	R.Time	Area	Height	Conc.	Curve	3rd	2nd	1st	Constant	Area Ratio	Height Ratio	Conc. %	Norm Conc.
1	Hydrogen	0.000	0	0	0.000	Linear	0.000000e+00	0.000000e+00	0.000000e+00	0.000000e+00	0	0	0.000	0.000
2	Oxygen	0.000	0	0	0.000	Linear	0.000000e+00	0.000000e+00	0.000000e+00	0.000000e+00	0	0	0.000	0.000
3	Nitrogen	0.000	0	0	0.000	Linear	0.000000e+00	0.000000e+00	0.000000e+00	0.000000e+00	0	0	0.000	0.000
4	Methane	0.000	0	0	0.000	Linear	0.000000e+00	0.000000e+00	0.000000e+00	0.000000e+00	0	0	0.000	0.000
5	Carbon Monoxide	0.000	0	0	0.000	Linear	0.000000e+00	0.000000e+00	0.000000e+00	0.000000e+00	0	0	0.000	0.000

[Compound Results(Ch3)]
# of IDs	2
ID#	Name	R.Time	Area	Height	Conc.	Curve	3rd	2nd	1st	Constant	Area Ratio	Height Ratio	Conc. %	Norm Conc.
1	N2O	2.873	58024	15165	1.482	Linear	0.000000e+00	0.000000e+00	3.915173e+004	0.000000e+00	0	0	100.000	100.000
2	SF6	0.000	0	0	0.000	Linear	0.000000e+00	0.000000e+00	0.000000e+00	0.000000e+00	0	0	0.000	0.000

[Group Results(Ch1)]
# of Groups	0

[Group Results(Ch2)]
# of Groups	0

[Group Results(Ch3)]
# of Groups	0

[Chromatogram (Ch1)]
Interval(msec)	220
# of Points	1091
Start Time(min)	0.002
End Time(min)	3.998
R.Time (min)	Intensity
0.00167	9
0.00533	17
0.00900	25
0.01267	31
0.01633	33
0.02000	27
0.02367	21
0.02733	20
0.03100	24
0.03467	30
0.03833	33
0.04200	35
0.04567	38
0.04933	43
0.05300	47
0.05667	48
0.06033	49
0.06400	57
0.06767	69
0.07133	84
0.07500	97
0.07867	103
0.08233	104
0.08600	98
0.08967	92
0.09333	89
0.09700	88
0.10067	92
0.10433	101
0.10800	107
0.11167	110
0.11533	113
0.11900	116
0.12267	114
0.12633	110
0.13000	106
0.13367	103
0.13733	99
0.14100	96
0.14467	97
0.14833	100
0.15200	104
0.15567	104
0.15933	100
0.16300	93
0.16667	85
0.17033	76
0.17400	67
0.17767	59
0.18133	56
0.18500	53
0.18867	51
0.19233	52
0.19600	53
0.19967	52
0.20333	50
0.20700	46
0.21067	43
0.21433	39
0.21800	34
0.22167	29
0.22533	25
0.22900	21
0.23267	15
0.23633	12
0.24000	11
0.24367	11
0.24733	13
0.25100	13
0.25467	12
0.25833	8
0.26200	2
0.26567	2
0.26933	4
0.27300	7
0.27667	10
0.28033	12
0.28400	14
0.28767	14
0.29133	14
0.29500	12
0.29867	11
0.30233	13
0.30600	18
0.30967	25
0.31333	27
0.31700	26
0.32067	25
0.32433	28
0.32800	31
0.33167	29
0.33533	19
0.33900	7
0.34267	-3
0.34633	-8
0.35000	-7
0.35367	-3
0.35733	3
0.36100	6
0.36467	7
0.36833	7
0.37200	6
0.37567	5
0.37933	6
0.38300	5
0.38667	4
0.39033	7
0.39400	11
0.39767	16
0.40133	26
0.40500	38
0.40867	42
0.41233	38
0.41600	31
0.41967	24
0.42333	20
0.42700	20
0.43067	17
0.43433	12
0.43800	4
0.44167	-1
0.44533	-3
0.44900	-3
0.45267	-5
0.45633	-7
0.46000	-4
0.46367	4
0.46733	11
0.47100	13
0.47467	13
0.47833	10
0.48200	7
0.48567	4
0.48933	4
0.49300	4
0.49667	5
0.50033	4
0.50400	2
0.50767	3
0.51133	3
0.51500	3
0.51867	6
0.52233	12
0.52600	17
0.52967	19
0.53333	16
0.53700	11
0.54067	9
0.54433	9
0.54800	10
0.55167	12
0.55533	16
0.55900	19
0.56267	18
0.56633	18
0.57000	19
0.57367	18
0.57733	18
0.58100	22
0.58467	27
0.58833	30
0.59200	30
0.59567	31
0.59933	31
0.60300	32
0.60667	35
0.61033	40
0.61400	44
0.61767	45
0.62133	43
0.62500	39
0.62867	36
0.63233	37
0.63600	42
0.63967	49
0.64333	53
0.64700	55
0.65067	59
0.65433	61
0.65800	60
0.66167	56
0.66533	51
0.66900	45
0.67267	37
0.67633	31
0.68000	31
0.68367	33
0.68733	35
0.69100	38
0.69467	41
0.69833	41
0.70200	38
0.70567	36
0.70933	33
0.71300	32
0.71667	36
0.72033	40
0.72400	43
0.72767	45
0.73133	44
0.73500	41
0.73867	38
0.74233	36
0.74600	35
0.74967	35
0.75333	36
0.75700	37
0.76067	37
0.76433	39
0.76800	42
0.77167	46
0.77533	50
0.77900	57
0.78267	63
0.78633	63
0.79000	58
0.79367	50
0.79733	45
0.80100	47
0.80467	53
0.80833	60
0.81200	67
0.81567	69
0.81933	63
0.82300	48
0.82667	31
0.83033	23
0.83400	23
0.83767	25
0.84133	25
0.84500	24
0.84867	24
0.85233	24
0.85600	26
0.85967	27
0.86333	28
0.86700	31
0.87067	30
0.87433	26
0.87800	22
0.88167	22
0.88533	23
0.88900	22
0.89267	20
0.89633	22
0.90000	29
0.90367	36
0.90733	39
0.91100	38
0.91467	33
0.91833	30
0.92200	29
0.92567	30
0.92933	32
0.93300	33
0.93667	32
0.94033	30
0.94400	29
0.94767	27
0.95133	29
0.95500	37
0.95867	42
0.96233	44
0.96600	43
0.96967	40
0.97333	38
0.97700	38
0.98067	35
0.98433	31
0.98800	24
0.99167	19
0.99533	15
0.99900	12
1.00267	9
1.00633	5
1.01000	4
1.01367	7
1.01733	9
1.02100	11
1.02467	12
1.02833	12
1.03200	15
1.03567	19
1.03933	20
1.04300	18
1.04667	18
1.05033	19
1.05400	25
1.05767	32
1.06133	31
1.06500	23
1.06867	15
1.07233	10
1.07600	7
1.07967	6
1.08333	6
1.08700	6
1.09067	7
1.09433	11
1.09800	13
1.10167	12
1.10533	8
1.10900	3
1.11267	1
1.11633	5
1.12000	16
1.12367	25
1.12733	29
1.13100	27
1.13467	21
1.13833	17
1.14200	11
1.14567	8
1.14933	6
1.15300	4
1.15667	3
1.16033	6
1.16400	9
1.16767	9
1.17133	6
1.17500	1
1.17867	-3
1.18233	-3
1.18600	-3
1.18967	-1
1.19333	3
1.19700	9
1.20067	16
1.20433	21
1.20800	24
1.21167	21
1.21533	15
1.21900	9
1.22267	5
1.22633	7
1.23000	14
1.23367	16
1.23733	13
1.24100	9
1.24467	6
1.24833	4
1.25200	2
1.25567	3
1.25933	7
1.26300	11
1.26667	12
1.27033	11
1.27400	10
1.27767	11
1.28133	15
1.28500	19
1.28867	23
1.29233	24
1.29600	19
1.29967	11
1.30333	1
1.30700	-6
1.31067	-8
1.31433	-5
1.31800	3
1.32167	16
1.32533	27
1.32900	29
1.33267	21
1.33633	10
1.34000	3
1.34367	-1
1.34733	-7
1.35100	-15
1.35467	-23
1.35833	-30
1.36200	-31
1.36567	-26
1.36933	-21
1.37300	-16
1.37667	-12
1.38033	-11
1.38400	-11
1.38767	-13
1.39133	-15
1.39500	-17
1.39867	-18
1.40233	-14
1.40600	-8
1.40967	-4
1.41333	-2
1.41700	-2
1.42067	-4
1.42433	-6
1.42800	-9
1.43167	-13
1.43533	-7
1.43900	24
1.44267	126
1.44633	307
1.45000	489
1.45367	618
1.45733	682
1.46100	701
1.46467	699
1.46833	692
1.47200	693
1.47567	705
1.47933	722
1.48300	732
1.48667	717
1.49033	668
1.49400	596
1.49767	514
1.50133	428
1.50500	353
1.50867	292
1.51233	245
1.51600	206
1.51967	175
1.52333	153
1.52700	134
1.53067	116
1.53433	113
1.53800	189
1.54167	544
1.54533	1474
1.54900	3078
1.55267	5079
1.55633	7046
1.56000	8681
1.56367	9844
1.56733	10425
1.57100	10290
1.57467	9389
1.57833	7908
1.58200	6195
1.58567	4573
1.58933	3231
1.59300	2214
1.59667	1487
1.60033	989
1.60400	654
1.60767	431
1.61133	286
1.61500	191
1.61867	127
1.62233	84
1.62600	58
1.62967	44
1.63333	38
1.63700	38
1.64067	38
1.64433	35
1.64800	27
1.65167	17
1.65533	10
1.65900	8
1.66267	8
1.66633	7
1.67000	4
1.67367	-0
1.67733	-5
1.68100	-13
1.68467	-20
1.68833	-21
1.69200	-22
1.69567	-23
1.69933	-25
1.70300	-25
1.70667	-22
1.71033	-18
1.71400	-15
1.71767	-12
1.72133	-12
1.72500	-15
1.72867	-20
1.73233	-25
1.73600	-25
1.73967	-22
1.74333	-19
1.74700	-16
1.75067	-10
1.75433	-3
1.75800	3
1.76167	6
1.76533	7
1.76900	6
1.77267	4
1.77633	2
1.78000	2
1.78367	-0
1.78733	-3
1.79100	-4
1.79467	-6
1.79833	-7
1.80200	-4
1.80567	1
1.80933	3
1.81300	1
1.81667	-2
1.82033	-2
1.82400	0
1.82767	0
1.83133	-3
1.83500	-8
1.83867	-12
1.84233	-15
1.84600	-16
1.84967	-14
1.85333	-11
1.85700	-9
1.86067	-11
1.86433	-15
1.86800	-14
1.87167	-12
1.87533	-8
1.87900	2
1.88267	12
1.88633	18
1.89000	17
1.89367	16
1.89733	15
1.90100	13
1.90467	10
1.90833	7
1.91200	2
1.91567	-4
1.91933	-7
1.92300	-5
1.92667	2
1.93033	12
1.93400	20
1.93767	24
1.94133	23
1.94500	19
1.94867	20
1.95233	53
1.95600	280
1.95967	1567
1.96333	7203
1.96700	25923
1.97067	73737
1.97433	168306
1.97800	315156
1.98167	498003
1.98533	685420
1.98900	845649
1.99267	954468
1.99633	997516
2.00000	971066
2.00367	883422
2.00733	753704
2.01100	606490
2.01467	464230
2.01833	341621
2.02200	244477
2.02567	172068
2.02933	120355
2.03300	84466
2.03667	59987
2.04033	43429
2.04400	32235
2.04767	24626
2.05133	19391
2.05500	15728
2.05867	13111
2.06233	11193
2.06600	9751
2.06967	8642
2.07333	7760
2.07700	7040
2.08067	6445
2.08433	5944
2.08800	5520
2.09167	5159
2.09533	4841
2.09900	4559
2.10267	4303
2.10633	4072
2.11000	3865
2.11367	3678
2.11733	3510
2.12100	3357
2.12467	3213
2.12833	3081
2.13200	2963
2.13567	2852
2.13933	2744
2.14300	2640
2.14667	2538
2.15033	2441
2.15400	2354
2.15767	2278
2.16133	2208
2.16500	2145
2.16867	2088
2.17233	2036
2.17600	1984
2.17967	1930
2.18333	1873
2.18700	1813
2.19067	1757
2.19433	1705
2.19800	1660
2.20167	1622
2.20533	1587
2.20900	1552
2.21267	1517
2.21633	1481
2.22000	1451
2.22367	1423
2.22733	1396
2.23100	1369
2.23467	1342
2.23833	1317
2.24200	1293
2.24567	1268
2.24933	1243
2.25300	1220
2.25667	1197
2.26033	1177
2.26400	1158
2.26767	1138
2.27133	1118
2.27500	1101
2.27867	1088
2.28233	1075
2.28600	1061
2.28967	1046
2.29333	1029
2.29700	1012
2.30067	995
2.30433	978
2.30800	961
2.31167	944
2.31533	930
2.31900	920
2.32267	913
2.32633	902
2.33000	886
2.33367	872
2.33733	862
2.34100	855
2.34467	853
2.34833	855
2.35200	855
2.35567	846
2.35933	832
2.36300	817
2.36667	806
2.37033	797
2.37400	784
2.37767	767
2.38133	752
2.38500	738
2.38867	723
2.39233	707
2.39600	700
2.39967	700
2.40333	700
2.40700	696
2.41067	688
2.41433	682
2.41800	678
2.42167	676
2.42533	675
2.42900	674
2.43267	672
2.43633	670
2.44000	664
2.44367	658
2.44733	655
2.45100	652
2.45467	650
2.45833	645
2.46200	639
2.46567	630
2.46933	624
2.47300	621
2.47667	617
2.48033	614
2.48400	610
2.48767	604
2.49133	598
2.49500	596
2.49867	597
2.50233	594
2.50600	588
2.50967	584
2.51333	584
2.51700	583
2.52067	575
2.52433	563
2.52800	549
2.53167	537
2.53533	530
2.53900	527
2.54267	525
2.54633	525
2.55000	530
2.55367	533
2.55733	532
2.56100	529
2.56467	527
2.56833	530
2.57200	540
2.57567	546
2.57933	546
2.58300	541
2.58667	532
2.59033	526
2.59400	524
2.59767	523
2.60133	525
2.60500	526
2.60867	519
2.61233	505
2.61600	490
2.61967	478
2.62333	470
2.62700	462
2.63067	458
2.63433	460
2.63800	468
2.64167	477
2.64533	482
2.64900	483
2.65267	478
2.65633	470
2.66000	464
2.66367	467
2.66733	471
2.67100	472
2.67467	473
2.67833	473
2.68200	473
2.68567	470
2.68933	467
2.69300	464
2.69667	464
2.70033	469
2.70400	472
2.70767	471
2.71133	464
2.71500	457
2.71867	453
2.72233	454
2.72600	457
2.72967	461
2.73333	464
2.73700	462
2.74067	462
2.74433	464
2.74800	466
2.75167	467
2.75533	467
2.75900	466
2.76267	460
2.76633	455
2.77000	448
2.77367	443
2.77733	440
2.78100	444
2.78467	451
2.78833	456
2.79200	455
2.79567	450
2.79933	443
2.80300	439
2.80667	438
2.81033	439
2.81400	440
2.81767	441
2.82133	440
2.82500	437
2.82867	437
2.83233	440
2.83600	443
2.83967	446
2.84333	445
2.84700	439
2.85067	432
2.85433	429
2.85800	429
2.86167	433
2.86533	439
2.86900	446
2.87267	453
2.87633	457
2.88000	459
2.88367	457
2.88733	453
2.89100	446
2.89467	436
2.89833	427
2.90200	422
2.90567	420
2.90933	421
2.91300	424
2.91667	429
2.92033	434
2.92400	437
2.92767	439
2.93133	439
2.93500	437
2.93867	437
2.94233	441
2.94600	444
2.94967	442
2.95333	436
2.95700	428
2.96067	421
2.96433	416
2.96800	416
2.97167	420
2.97533	426
2.97900	431
2.98267	433
2.98633	429
2.99000	427
2.99367	430
2.99733	436
3.00100	441
3.00467	446
3.00833	450
3.01200	449
3.01567	447
3.01933	443
3.02300	437
3.02667	430
3.03033	422
3.03400	415
3.03767	410
3.04133	407
3.04500	401
3.04867	398
3.05233	398
3.05600	400
3.05967	402
3.06333	406
3.06700	407
3.07067	405
3.07433	402
3.07800	401
3.08167	400
3.08533	401
3.08900	402
3.09267	402
3.09633	403
3.10000	405
3.10367	410
3.10733	416
3.11100	423
3.11467	425
3.11833	419
3.12200	409
3.12567	400
3.12933	397
3.13300	396
3.13667	399
3.14033	404
3.14400	409
3.14767	411
3.15133	410
3.15500	406
3.15867	404
3.16233	403
3.16600	404
3.16967	406
3.17333	407
3.17700	406
3.18067	404
3.18433	403
3.18800	401
3.19167	400
3.19533	398
3.19900	394
3.20267	391
3.20633	391
3.21000	394
3.21367	398
3.21733	399
3.22100	399
3.22467	402
3.22833	408
3.23200	413
3.23567	413
3.23933	410
3.24300	405
3.24667	398
3.25033	388
3.25400	376
3.25767	363
3.26133	352
3.26500	350
3.26867	355
3.27233	361
3.27600	364
3.27967	367
3.28333	375
3.28700	383
3.29067	390
3.29433	392
3.29800	391
3.30167	387
3.30533	385
3.30900	384
3.31267	384
3.31633	381
3.32000	377
3.32367	377
3.32733	378
3.33100	376
3.33467	371
3.33833	362
3.34200	354
3.34567	348
3.34933	347
3.35300	347
3.35667	350
3.36033	356
3.36400	361
3.36767	362
3.37133	361
3.37500	362
3.37867	367
3.38233	376
3.38600	380
3.38967	381
3.39333	381
3.39700	382
3.40067	382
3.40433	381
3.40800	379
3.41167	375
3.41533	367
3.41900	359
3.42267	356
3.42633	358
3.43000	361
3.43367	366
3.43733	370
3.44100	369
3.44467	367
3.44833	364
3.45200	358
3.45567	353
3.45933	352
3.46300	354
3.46667	357
3.47033	356
3.47400	351
3.47767	347
3.48133	347
3.48500	349
3.48867	350
3.49233	349
3.49600	348
3.49967	351
3.50333	355
3.50700	354
3.51067	349
3.51433	346
3.51800	346
3.52167	347
3.52533	346
3.52900	344
3.53267	344
3.53633	345
3.54000	348
3.54367	352
3.54733	354
3.55100	354
3.55467	353
3.55833	349
3.56200	340
3.56567	334
3.56933	331
3.57300	329
3.57667	329
3.58033	333
3.58400	337
3.58767	338
3.59133	335
3.59500	332
3.59867	330
3.60233	330
3.60600	331
3.60967	336
3.61333	343
3.61700	345
3.62067	342
3.62433	337
3.62800	331
3.63167	327
3.63533	324
3.63900	318
3.64267	312
3.64633	308
3.65000	304
3.65367	299
3.65733	295
3.66100	293
3.66467	291
3.66833	291
3.67200	293
3.67567	296
3.67933	303
3.68300	310
3.68667	314
3.69033	314
3.69400	310
3.69767	306
3.70133	305
3.70500	303
3.70867	303
3.71233	303
3.71600	300
3.71967	301
3.72333	305
3.72700	308
3.73067	310
3.73433	309
3.73800	306
3.74167	302
3.74533	301
3.74900	302
3.75267	305
3.75633	304
3.76000	302
3.76367	303
3.76733	308
3.77100	313
3.77467	316
3.77833	314
3.78200	313
3.78567	316
3.78933	323
3.79300	331
3.79667	333
3.80033	331
3.80400	327
3.80767	319
3.81133	305
3.81500	287
3.81867	270
3.82233	259
3.82600	254
3.82967	252
3.83333	254
3.83700	261
3.84067	268
3.84433	273
3.84800	277
3.85167	279
3.85533	282
3.85900	285
3.86267	288
3.86633	291
3.87000	293
3.87367	292
3.87733	291
3.88100	293
3.88467	293
3.88833	290
3.89200	286
3.89567	281
3.89933	278
3.90300	276
3.90667	274
3.91033	272
3.91400	272
3.91767	270
3.92133	269
3.92500	267
3.92867	265
3.93233	264
3.93600	263
3.93967	262
3.94333	259
3.94700	256
3.95067	255
3.95433	255
3.95800	255
3.96167	253
3.96533	249
3.96900	248
3.97267	250
3.97633	251
3.98000	250
3.98367	251
3.98733	260
3.99100	270
3.99467	274
3.99833	275

[Chromatogram (Ch2)]
Interval(msec)	220
# of Points	1091
Start Time(min)	0.002
End Time(min)	3.998
R.Time (min)	Intensity
0.00167	0
0.00533	0
0.00900	0
0.01267	0
0.01633	1
0.02000	1
0.02367	1
0.02733	1
0.03100	1
0.03467	1
0.03833	1
0.04200	1
0.04567	1
0.04933	1
0.05300	2
0.05667	2
0.06033	2
0.06400	2
0.06767	2
0.07133	2
0.07500	2
0.07867	2
0.08233	2
0.08600	2
0.08967	1
0.09333	1
0.09700	1
0.10067	1
0.10433	1
0.10800	2
0.11167	2
0.11533	2
0.11900	2
0.12267	2
0.12633	1
0.13000	1
0.13367	1
0.13733	1
0.14100	1
0.14467	1
0.14833	1
0.15200	1
0.15567	1
0.15933	1
0.16300	1
0.16667	0
0.17033	0
0.17400	0
0.17767	0
0.18133	-0
0.18500	-0
0.18867	-1
0.19233	-1
0.19600	-1
0.19967	-1
0.20333	-1
0.20700	-1
0.21067	-1
0.21433	-1
0.21800	-0
0.22167	-0
0.22533	-0
0.22900	-0
0.23267	-0
0.23633	-0
0.24000	-0
0.24367	0
0.24733	0
0.25100	0
0.25467	0
0.25833	0
0.26200	0
0.26567	0
0.26933	0
0.27300	0
0.27667	0
0.28033	0
0.28400	-0
0.28767	-0
0.29133	-0
0.29500	-1
0.29867	-1
0.30233	-1
0.30600	-1
0.30967	-0
0.31333	0
0.31700	1
0.32067	1
0.32433	2
0.32800	2
0.33167	2
0.33533	2
0.33900	3
0.34267	3
0.34633	3
0.35000	3
0.35367	3
0.35733	3
0.36100	3
0.36467	3
0.36833	3
0.37200	3
0.37567	3
0.37933	3
0.38300	2
0.38667	2
0.39033	2
0.39400	1
0.39767	1
0.40133	0
0.40500	-0
0.40867	-0
0.41233	-1
0.41600	-1
0.41967	-1
0.42333	-1
0.42700	-1
0.43067	-1
0.43433	-1
0.43800	-2
0.44167	-2
0.44533	-2
0.44900	-3
0.45267	-3
0.45633	-3
0.46000	-3
0.46367	-3
0.46733	-3
0.47100	-3
0.47467	-3
0.47833	-3
0.48200	-3
0.48567	-3
0.48933	-2
0.49300	-2
0.49667	-2
0.50033	-1
0.50400	-1
0.50767	-0
0.51133	-0
0.51500	-0
0.51867	-0
0.52233	0
0.52600	0
0.52967	0
0.53333	0
0.53700	1
0.54067	1
0.54433	1
0.54800	1
0.55167	1
0.55533	1
0.55900	1
0.56267	1
0.56633	1
0.57000	1
0.57367	1
0.57733	2
0.58100	2
0.58467	2
0.58833	2
0.59200	2
0.59567	2
0.59933	3
0.60300	2
0.60667	2
0.61033	2
0.61400	2
0.61767	1
0.62133	1
0.62500	1
0.62867	0
0.63233	0
0.63600	-0
0.63967	-0
0.64333	-1
0.64700	-1
0.65067	-1
0.65433	-1
0.65800	-1
0.66167	-1
0.66533	-1
0.66900	-1
0.67267	-1
0.67633	-1
0.68000	-1
0.68367	-1
0.68733	-1
0.69100	-1
0.69467	-1
0.69833	-1
0.70200	-1
0.70567	-1
0.70933	-1
0.71300	-1
0.71667	-1
0.72033	-1
0.72400	-1
0.72767	-0
0.73133	-0
0.73500	0
0.73867	0
0.74233	0
0.74600	0
0.74967	-0
0.75333	-0
0.75700	-1
0.76067	-1
0.76433	-2
0.76800	-2
0.77167	-3
0.77533	-3
0.77900	-4
0.78267	-4
0.78633	-4
0.79000	-4
0.79367	-3
0.79733	-3
0.80100	-3
0.80467	-2
0.80833	-2
0.81200	-2
0.81567	-1
0.81933	-1
0.82300	-1
0.82667	-0
0.83033	-0
0.83400	0
0.83767	0
0.84133	1
0.84500	1
0.84867	0
0.85233	0
0.85600	0
0.85967	0
0.86333	-0
0.86700	-0
0.87067	-0
0.87433	-0
0.87800	-0
0.88167	-0
0.88533	-0
0.88900	-0
0.89267	-0
0.89633	-0
0.90000	-0
0.90367	-1
0.90733	-1
0.91100	-1
0.91467	-1
0.91833	-1
0.92200	-1
0.92567	-2
0.92933	-2
0.93300	-3
0.93667	-3
0.94033	-3
0.94400	-4
0.94767	-4
0.95133	-4
0.95500	-4
0.95867	-4
0.96233	-4
0.96600	-4
0.96967	-4
0.97333	-4
0.97700	-4
0.98067	-4
0.98433	-3
0.98800	-4
0.99167	-4
0.99533	-4
0.99900	-4
1.00267	-4
1.00633	-4
1.01000	-4
1.01367	-4
1.01733	-3
1.02100	-3
1.02467	-3
1.02833	-3
1.03200	-3
1.03567	-2
1.03933	-2
1.04300	-2
1.04667	-1
1.05033	-1
1.05400	-0
1.05767	-0
1.06133	-0
1.06500	0
1.06867	0
1.07233	0
1.07600	-0
1.07967	-0
1.08333	0
1.08700	0
1.09067	0
1.09433	0
1.09800	1
1.10167	1
1.10533	0
1.10900	-0
1.11267	-1
1.11633	-1
1.12000	-1
1.12367	-2
1.12733	-2
1.13100	-2
1.13467	-3
1.13833	-3
1.14200	-3
1.14567	-3
1.14933	-3
1.15300	-2
1.15667	-2
1.16033	-2
1.16400	-2
1.16767	-2
1.17133	-1
1.17500	-1
1.17867	-1
1.18233	-0
1.18600	-0
1.18967	-0
1.19333	0
1.19700	0
1.20067	-0
1.20433	-0
1.20800	-0
1.21167	-0
1.21533	-1
1.21900	-1
1.22267	-1
1.22633	-1
1.23000	-1
1.23367	-2
1.23733	-2
1.24100	-3
1.24467	-3
1.24833	-3
1.25200	-4
1.25567	-4
1.25933	-4
1.26300	-4
1.26667	-4
1.27033	-4
1.27400	-3
1.27767	-3
1.28133	-3
1.28500	-2
1.28867	-2
1.29233	-2
1.29600	-2
1.29967	-1
1.30333	-1
1.30700	-1
1.31067	-0
1.31433	-1
1.31800	-1
1.32167	-1
1.32533	-1
1.32900	-1
1.33267	-1
1.33633	-1
1.34000	-1
1.34367	-1
1.34733	-1
1.35100	-0
1.35467	-1
1.35833	-1
1.36200	-1
1.36567	-1
1.36933	-2
1.37300	-2
1.37667	-3
1.38033	-3
1.38400	-4
1.38767	-4
1.39133	-5
1.39500	-5
1.39867	-5
1.40233	-5
1.40600	-5
1.40967	-5
1.41333	-5
1.41700	-5
1.42067	-5
1.42433	-5
1.42800	-5
1.43167	-5
1.43533	-5
1.43900	-5
1.44267	-5
1.44633	-5
1.45000	-5
1.45367	-5
1.45733	-4
1.46100	-4
1.46467	-4
1.46833	-3
1.47200	-3
1.47567	-2
1.47933	-2
1.48300	-2
1.48667	-1
1.49033	-1
1.49400	-1
1.49767	-1
1.50133	-1
1.50500	-1
1.50867	-1
1.51233	-1
1.51600	-1
1.51967	-1
1.52333	-1
1.52700	-1
1.53067	-1
1.53433	-1
1.53800	-1
1.54167	-1
1.54533	-1
1.54900	-1
1.55267	-2
1.55633	-1
1.56000	-1
1.56367	-1
1.56733	-1
1.57100	-1
1.57467	-1
1.57833	-1
1.58200	-1
1.58567	-1
1.58933	-1
1.59300	-1
1.59667	-2
1.60033	-2
1.60400	-3
1.60767	-5
1.61133	-6
1.61500	-8
1.61867	-10
1.62233	-13
1.62600	-16
1.62967	-20
1.63333	-23
1.63700	-27
1.64067	-30
1.64433	-34
1.64800	-38
1.65167	-42
1.65533	-46
1.65900	-50
1.66267	-55
1.66633	-60
1.67000	-65
1.67367	-70
1.67733	-76
1.68100	-81
1.68467	-87
1.68833	-91
1.69200	-95
1.69567	-99
1.69933	-101
1.70300	-104
1.70667	-105
1.71033	-107
1.71400	-108
1.71767	-109
1.72133	-110
1.72500	-110
1.72867	-111
1.73233	-111
1.73600	-111
1.73967	-111
1.74333	-111
1.74700	-111
1.75067	-112
1.75433	-112
1.75800	-113
1.76167	-113
1.76533	-114
1.76900	-114
1.77267	-114
1.77633	-115
1.78000	-115
1.78367	-116
1.78733	-116
1.79100	-117
1.79467	-117
1.79833	-117
1.80200	-117
1.80567	-117
1.80933	-117
1.81300	-117
1.81667	-117
1.82033	-117
1.82400	-118
1.82767	-118
1.83133	-119
1.83500	-118
1.83867	-118
1.84233	-118
1.84600	-118
1.84967	-118
1.85333	-118
1.85700	-118
1.86067	-118
1.86433	-118
1.86800	-118
1.87167	-118
1.87533	-117
1.87900	-117
1.88267	-117
1.88633	-117
1.89000	-117
1.89367	-117
1.89733	-117
1.90100	-116
1.90467	-116
1.90833	-116
1.91200	-116
1.91567	-116
1.91933	-116
1.92300	-115
1.92667	-115
1.93033	-116
1.93400	-116
1.93767	-116
1.94133	-116
1.94500	-115
1.94867	-115
1.95233	-115
1.95600	-115
1.95967	-114
1.96333	-114
1.96700	-114
1.97067	-114
1.97433	-113
1.97800	-113
1.98167	-113
1.98533	-113
1.98900	-113
1.99267	-112
1.99633	-112
2.00000	-112
2.00367	-112
2.00733	-112
2.01100	-111
2.01467	-111
2.01833	-111
2.02200	-110
2.02567	-110
2.02933	-109
2.03300	-109
2.03667	-109
2.04033	-108
2.04400	-108
2.04767	-109
2.05133	-109
2.05500	-109
2.05867	-108
2.06233	-107
2.06600	-106
2.06967	-106
2.07333	-105
2.07700	-104
2.08067	-104
2.08433	-103
2.08800	-103
2.09167	-104
2.09533	-104
2.09900	-104
2.10267	-105
2.10633	-105
2.11000	-105
2.11367	-105
2.11733	-104
2.12100	-104
2.12467	-103
2.12833	-102
2.13200	-101
2.13567	-101
2.13933	-100
2.14300	-100
2.14667	-99
2.15033	-98
2.15400	-98
2.15767	-97
2.16133	-97
2.16500	-97
2.16867	-97
2.17233	-97
2.17600	-97
2.17967	-96
2.18333	-96
2.18700	-95
2.19067	-95
2.19433	-95
2.19800	-95
2.20167	-95
2.20533	-94
2.20900	-94
2.21267	-93
2.21633	-93
2.22000	-92
2.22367	-92
2.22733	-92
2.23100	-93
2.23467	-93
2.23833	-93
2.24200	-93
2.24567	-92
2.24933	-92
2.25300	-92
2.25667	-92
2.26033	-92
2.26400	-92
2.26767	-91
2.27133	-90
2.27500	-89
2.27867	-88
2.28233	-87
2.28600	-87
2.28967	-87
2.29333	-87
2.29700	-87
2.30067	-87
2.30433	-87
2.30800	-87
2.31167	-87
2.31533	-86
2.31900	-86
2.32267	-86
2.32633	-85
2.33000	-85
2.33367	-85
2.33733	-85
2.34100	-84
2.34467	-82
2.34833	-81
2.35200	-79
2.35567	-78
2.35933	-77
2.36300	-76
2.36667	-75
2.37033	-73
2.37400	-70
2.37767	-68
2.38133	-65
2.38500	-61
2.38867	-57
2.39233	-54
2.39600	-50
2.39967	-46
2.40333	-42
2.40700	-37
2.41067	-34
2.41433	-30
2.41800	-27
2.42167	-24
2.42533	-22
2.42900	-19
2.43267	-17
2.43633	-15
2.44000	-13
2.44367	-11
2.44733	-9
2.45100	-8
2.45467	-7
2.45833	-6
2.46200	-5
2.46567	-3
2.46933	-2
2.47300	-1
2.47667	0
2.48033	1
2.48400	3
2.48767	4
2.49133	6
2.49500	7
2.49867	8
2.50233	9
2.50600	10
2.50967	10
2.51333	11
2.51700	11
2.52067	11
2.52433	11
2.52800	12
2.53167	12
2.53533	13
2.53900	13
2.54267	13
2.54633	14
2.55000	14
2.55367	13
2.55733	14
2.56100	14
2.56467	14
2.56833	15
2.57200	15
2.57567	16
2.57933	16
2.58300	16
2.58667	16
2.59033	16
2.59400	17
2.59767	17
2.60133	18
2.60500	18
2.60867	19
2.61233	19
2.61600	20
2.61967	20
2.62333	21
2.62700	21
2.63067	22
2.63433	22
2.63800	22
2.64167	22
2.64533	22
2.64900	22
2.65267	22
2.65633	22
2.66000	22
2.66367	22
2.66733	22
2.67100	22
2.67467	22
2.67833	22
2.68200	23
2.68567	22
2.68933	22
2.69300	22
2.69667	22
2.70033	22
2.70400	22
2.70767	22
2.71133	22
2.71500	22
2.71867	23
2.72233	23
2.72600	23
2.72967	24
2.73333	24
2.73700	24
2.74067	23
2.74433	23
2.74800	23
2.75167	22
2.75533	22
2.75900	23
2.76267	23
2.76633	23
2.77000	24
2.77367	24
2.77733	25
2.78100	25
2.78467	26
2.78833	26
2.79200	26
2.79567	27
2.79933	27
2.80300	27
2.80667	27
2.81033	27
2.81400	27
2.81767	28
2.82133	28
2.82500	28
2.82867	28
2.83233	27
2.83600	26
2.83967	23
2.84333	19
2.84700	12
2.85067	3
2.85433	-10
2.85800	-28
2.86167	-50
2.86533	-77
2.86900	-110
2.87267	-148
2.87633	-191
2.88000	-240
2.88367	-294
2.88733	-352
2.89100	-415
2.89467	-482
2.89833	-553
2.90200	-627
2.90567	-703
2.90933	-782
2.91300	-864
2.91667	-947
2.92033	-1033
2.92400	-1120
2.92767	-1209
2.93133	-1299
2.93500	-1389
2.93867	-1471
2.94233	-1531
2.94600	-1559
2.94967	-1552
2.95333	-1509
2.95700	-1439
2.96067	-1347
2.96433	-1242
2.96800	-1130
2.97167	-1018
2.97533	-908
2.97900	-804
2.98267	-707
2.98633	-619
2.99000	-539
2.99367	-467
2.99733	-403
3.00100	-347
3.00467	-298
3.00833	-256
3.01200	-219
3.01567	-186
3.01933	-159
3.02300	-135
3.02667	-115
3.03033	-98
3.03400	-83
3.03767	-70
3.04133	-59
3.04500	-49
3.04867	-41
3.05233	-34
3.05600	-28
3.05967	-23
3.06333	-19
3.06700	-15
3.07067	-12
3.07433	-9
3.07800	-6
3.08167	-4
3.08533	-2
3.08900	-0
3.09267	2
3.09633	3
3.10000	4
3.10367	5
3.10733	7
3.11100	8
3.11467	9
3.11833	10
3.12200	10
3.12567	11
3.12933	12
3.13300	12
3.13667	13
3.14033	13
3.14400	14
3.14767	14
3.15133	15
3.15500	15
3.15867	15
3.16233	15
3.16600	16
3.16967	16
3.17333	16
3.17700	16
3.18067	16
3.18433	16
3.18800	16
3.19167	17
3.19533	17
3.19900	18
3.20267	18
3.20633	18
3.21000	18
3.21367	18
3.21733	18
3.22100	18
3.22467	18
3.22833	19
3.23200	19
3.23567	19
3.23933	19
3.24300	19
3.24667	19
3.25033	20
3.25400	20
3.25767	20
3.26133	20
3.26500	20
3.26867	20
3.27233	21
3.27600	21
3.27967	21
3.28333	21
3.28700	20
3.29067	20
3.29433	20
3.29800	20
3.30167	21
3.30533	21
3.30900	21
3.31267	22
3.31633	22
3.32000	22
3.32367	22
3.32733	22
3.33100	23
3.33467	23
3.33833	23
3.34200	23
3.34567	23
3.34933	23
3.35300	23
3.35667	23
3.36033	23
3.36400	24
3.36767	24
3.37133	24
3.37500	24
3.37867	24
3.38233	24
3.38600	24
3.38967	24
3.39333	24
3.39700	24
3.40067	24
3.40433	24
3.40800	24
3.41167	24
3.41533	24
3.41900	23
3.42267	23
3.42633	24
3.43000	24
3.43367	24
3.43733	24
3.44100	25
3.44467	25
3.44833	25
3.45200	26
3.45567	26
3.45933	26
3.46300	27
3.46667	27
3.47033	27
3.47400	28
3.47767	28
3.48133	29
3.48500	29
3.48867	29
3.49233	29
3.49600	29
3.49967	28
3.50333	28
3.50700	28
3.51067	28
3.51433	28
3.51800	28
3.52167	28
3.52533	28
3.52900	28
3.53267	28
3.53633	28
3.54000	28
3.54367	28
3.54733	28
3.55100	28
3.55467	28
3.55833	28
3.56200	28
3.56567	28
3.56933	28
3.57300	28
3.57667	28
3.58033	27
3.58400	27
3.58767	27
3.59133	27
3.59500	26
3.59867	26
3.60233	26
3.60600	26
3.60967	26
3.61333	26
3.61700	26
3.62067	26
3.62433	26
3.62800	26
3.63167	27
3.63533	27
3.63900	27
3.64267	27
3.64633	27
3.65000	27
3.65367	27
3.65733	27
3.66100	28
3.66467	28
3.66833	28
3.67200	28
3.67567	27
3.67933	27
3.68300	27
3.68667	27
3.69033	27
3.69400	27
3.69767	27
3.70133	26
3.70500	26
3.70867	26
3.71233	26
3.71600	26
3.71967	26
3.72333	26
3.72700	26
3.73067	25
3.73433	25
3.73800	25
3.74167	25
3.74533	25
3.74900	25
3.75267	25
3.75633	24
3.76000	24
3.76367	24
3.76733	24
3.77100	24
3.77467	24
3.77833	24
3.78200	24
3.78567	24
3.78933	24
3.79300	24
3.79667	24
3.80033	24
3.80400	25
3.80767	25
3.81133	25
3.81500	25
3.81867	25
3.82233	26
3.82600	26
3.82967	26
3.83333	26
3.83700	26
3.84067	26
3.84433	26
3.84800	26
3.85167	26
3.85533	26
3.85900	26
3.86267	26
3.86633	25
3.87000	25
3.87367	25
3.87733	25
3.88100	25
3.88467	25
3.88833	25
3.89200	25
3.89567	25
3.89933	25
3.90300	25
3.90667	24
3.91033	24
3.91400	24
3.91767	24
3.92133	24
3.92500	24
3.92867	24
3.93233	24
3.93600	24
3.93967	25
3.94333	25
3.94700	25
3.95067	26
3.95433	26
3.95800	26
3.96167	26
3.96533	26
3.96900	27
3.97267	27
3.97633	27
3.98000	28
3.98367	28
3.98733	28
3.99100	28
3.99467	28
3.99833	28

[Chromatogram (Ch3)]
Interval(msec)	220
# of Points	1091
Start Time(min)	0.002
End Time(min)	3.998
R.Time (min)	Intensity
0.00167	-1
0.00533	-2
0.00900	-3
0.01267	-3
0.01633	-2
0.02000	0
0.02367	2
0.02733	2
0.03100	2
0.03467	3
0.03833	3
0.04200	4
0.04567	2
0.04933	-1
0.05300	-6
0.05667	-7
0.06033	-5
0.06400	-1
0.06767	-2
0.07133	-2
0.07500	0
0.07867	1
0.08233	2
0.08600	3
0.08967	2
0.09333	1
0.09700	-1
0.10067	-0
0.10433	2
0.10800	2
0.11167	3
0.11533	4
0.11900	6
0.12267	7
0.12633	8
0.13000	8
0.13367	5
0.13733	3
0.14100	4
0.14467	5
0.14833	6
0.15200	7
0.15567	6
0.15933	6
0.16300	5
0.16667	4
0.17033	5
0.17400	4
0.17767	4
0.18133	4
0.18500	5
0.18867	7
0.19233	9
0.19600	9
0.19967	9
0.20333	10
0.20700	11
0.21067	11
0.21433	9
0.21800	9
0.22167	9
0.22533	9
0.22900	8
0.23267	7
0.23633	5
0.24000	3
0.24367	1
0.24733	1
0.25100	2
0.25467	3
0.25833	7
0.26200	9
0.26567	11
0.26933	13
0.27300	13
0.27667	11
0.28033	12
0.28400	10
0.28767	9
0.29133	7
0.29500	8
0.29867	9
0.30233	8
0.30600	9
0.30967	10
0.31333	12
0.31700	11
0.32067	10
0.32433	11
0.32800	11
0.33167	11
0.33533	11
0.33900	10
0.34267	9
0.34633	8
0.35000	10
0.35367	12
0.35733	14
0.36100	14
0.36467	11
0.36833	10
0.37200	11
0.37567	12
0.37933	11
0.38300	11
0.38667	12
0.39033	13
0.39400	14
0.39767	15
0.40133	16
0.40500	16
0.40867	16
0.41233	14
0.41600	15
0.41967	13
0.42333	13
0.42700	13
0.43067	12
0.43433	11
0.43800	12
0.44167	11
0.44533	12
0.44900	11
0.45267	12
0.45633	12
0.46000	10
0.46367	9
0.46733	9
0.47100	10
0.47467	10
0.47833	11
0.48200	12
0.48567	13
0.48933	14
0.49300	15
0.49667	14
0.50033	11
0.50400	9
0.50767	8
0.51133	8
0.51500	8
0.51867	8
0.52233	9
0.52600	12
0.52967	14
0.53333	15
0.53700	15
0.54067	15
0.54433	15
0.54800	16
0.55167	16
0.55533	15
0.55900	13
0.56267	12
0.56633	11
0.57000	13
0.57367	16
0.57733	17
0.58100	18
0.58467	17
0.58833	16
0.59200	16
0.59567	15
0.59933	15
0.60300	14
0.60667	14
0.61033	15
0.61400	17
0.61767	19
0.62133	20
0.62500	19
0.62867	18
0.63233	15
0.63600	14
0.63967	14
0.64333	15
0.64700	16
0.65067	16
0.65433	16
0.65800	18
0.66167	19
0.66533	17
0.66900	16
0.67267	15
0.67633	15
0.68000	16
0.68367	14
0.68733	11
0.69100	9
0.69467	9
0.69833	11
0.70200	12
0.70567	13
0.70933	14
0.71300	15
0.71667	15
0.72033	15
0.72400	15
0.72767	16
0.73133	19
0.73500	20
0.73867	21
0.74233	22
0.74600	20
0.74967	17
0.75333	18
0.75700	21
0.76067	21
0.76433	20
0.76800	19
0.77167	18
0.77533	17
0.77900	16
0.78267	18
0.78633	19
0.79000	19
0.79367	18
0.79733	16
0.80100	16
0.80467	15
0.80833	16
0.81200	20
0.81567	20
0.81933	18
0.82300	18
0.82667	18
0.83033	19
0.83400	19
0.83767	19
0.84133	19
0.84500	18
0.84867	18
0.85233	18
0.85600	18
0.85967	20
0.86333	21
0.86700	21
0.87067	23
0.87433	26
0.87800	27
0.88167	25
0.88533	24
0.88900	23
0.89267	28
0.89633	30
0.90000	29
0.90367	29
0.90733	29
0.91100	31
0.91467	32
0.91833	31
0.92200	27
0.92567	26
0.92933	27
0.93300	28
0.93667	29
0.94033	28
0.94400	26
0.94767	25
0.95133	27
0.95500	30
0.95867	31
0.96233	30
0.96600	29
0.96967	28
0.97333	27
0.97700	27
0.98067	27
0.98433	27
0.98800	27
0.99167	26
0.99533	26
0.99900	27
1.00267	29
1.00633	29
1.01000	29
1.01367	31
1.01733	32
1.02100	32
1.02467	33
1.02833	34
1.03200	35
1.03567	34
1.03933	33
1.04300	32
1.04667	31
1.05033	31
1.05400	32
1.05767	32
1.06133	32
1.06500	32
1.06867	33
1.07233	36
1.07600	39
1.07967	37
1.08333	33
1.08700	30
1.09067	28
1.09433	25
1.09800	26
1.10167	25
1.10533	26
1.10900	29
1.11267	32
1.11633	33
1.12000	35
1.12367	34
1.12733	33
1.13100	32
1.13467	32
1.13833	33
1.14200	31
1.14567	30
1.14933	29
1.15300	31
1.15667	33
1.16033	35
1.16400	36
1.16767	35
1.17133	36
1.17500	36
1.17867	37
1.18233	37
1.18600	36
1.18967	34
1.19333	32
1.19700	30
1.20067	29
1.20433	29
1.20800	28
1.21167	29
1.21533	30
1.21900	32
1.22267	32
1.22633	33
1.23000	34
1.23367	35
1.23733	34
1.24100	34
1.24467	36
1.24833	36
1.25200	36
1.25567	35
1.25933	36
1.26300	37
1.26667	37
1.27033	38
1.27400	38
1.27767	38
1.28133	38
1.28500	37
1.28867	36
1.29233	33
1.29600	31
1.29967	31
1.30333	33
1.30700	35
1.31067	35
1.31433	34
1.31800	33
1.32167	34
1.32533	34
1.32900	35
1.33267	35
1.33633	35
1.34000	34
1.34367	34
1.34733	34
1.35100	34
1.35467	35
1.35833	36
1.36200	36
1.36567	36
1.36933	36
1.37300	38
1.37667	38
1.38033	37
1.38400	36
1.38767	36
1.39133	36
1.39500	37
1.39867	39
1.40233	39
1.40600	39
1.40967	38
1.41333	37
1.41700	34
1.42067	30
1.42433	30
1.42800	32
1.43167	34
1.43533	36
1.43900	37
1.44267	37
1.44633	38
1.45000	37
1.45367	35
1.45733	38
1.46100	38
1.46467	39
1.46833	39
1.47200	38
1.47567	38
1.47933	38
1.48300	36
1.48667	37
1.49033	36
1.49400	36
1.49767	36
1.50133	37
1.50500	37
1.50867	38
1.51233	39
1.51600	41
1.51967	41
1.52333	40
1.52700	40
1.53067	40
1.53433	41
1.53800	42
1.54167	45
1.54533	46
1.54900	45
1.55267	44
1.55633	44
1.56000	45
1.56367	46
1.56733	47
1.57100	46
1.57467	44
1.57833	41
1.58200	39
1.58567	39
1.58933	40
1.59300	42
1.59667	44
1.60033	45
1.60400	45
1.60767	46
1.61133	49
1.61500	50
1.61867	48
1.62233	45
1.62600	46
1.62967	46
1.63333	45
1.63700	45
1.64067	45
1.64433	46
1.64800	47
1.65167	50
1.65533	51
1.65900	49
1.66267	47
1.66633	48
1.67000	49
1.67367	49
1.67733	47
1.68100	47
1.68467	48
1.68833	51
1.69200	53
1.69567	53
1.69933	54
1.70300	54
1.70667	54
1.71033	54
1.71400	54
1.71767	52
1.72133	50
1.72500	51
1.72867	53
1.73233	57
1.73600	60
1.73967	59
1.74333	57
1.74700	58
1.75067	58
1.75433	57
1.75800	58
1.76167	57
1.76533	58
1.76900	61
1.77267	61
1.77633	61
1.78000	61
1.78367	61
1.78733	63
1.79100	65
1.79467	67
1.79833	67
1.80200	68
1.80567	69
1.80933	68
1.81300	68
1.81667	67
1.82033	66
1.82400	67
1.82767	67
1.83133	68
1.83500	72
1.83867	76
1.84233	79
1.84600	81
1.84967	80
1.85333	79
1.85700	75
1.86067	73
1.86433	73
1.86800	75
1.87167	77
1.87533	78
1.87900	77
1.88267	77
1.88633	80
1.89000	82
1.89367	81
1.89733	79
1.90100	77
1.90467	76
1.90833	75
1.91200	78
1.91567	80
1.91933	80
1.92300	82
1.92667	86
1.93033	87
1.93400	86
1.93767	84
1.94133	84
1.94500	85
1.94867	87
1.95233	89
1.95600	89
1.95967	88
1.96333	89
1.96700	90
1.97067	91
1.97433	91
1.97800	89
1.98167	90
1.98533	93
1.98900	96
1.99267	97
1.99633	98
2.00000	99
2.00367	98
2.00733	97
2.01100	98
2.01467	98
2.01833	99
2.02200	102
2.02567	103
2.02933	103
2.03300	104
2.03667	105
2.04033	108
2.04400	109
2.04767	111
2.05133	113
2.05500	116
2.05867	115
2.06233	113
2.06600	112
2.06967	109
2.07333	108
2.07700	110
2.08067	111
2.08433	114
2.08800	118
2.09167	120
2.09533	120
2.09900	120
2.10267	121
2.10633	122
2.11000	122
2.11367	123
2.11733	125
2.12100	127
2.12467	129
2.12833	128
2.13200	128
2.13567	128
2.13933	128
2.14300	130
2.14667	131
2.15033	133
2.15400	134
2.15767	136
2.16133	140
2.16500	142
2.16867	145
2.17233	147
2.17600	149
2.17967	149
2.18333	149
2.18700	150
2.19067	151
2.19433	152
2.19800	152
2.20167	152
2.20533	153
2.20900	154
2.21267	156
2.21633	160
2.22000	161
2.22367	160
2.22733	161
2.23100	165
2.23467	169
2.23833	170
2.24200	169
2.24567	171
2.24933	175
2.25300	177
2.25667	176
2.26033	176
2.26400	177
2.26767	179
2.27133	178
2.27500	177
2.27867	178
2.28233	179
2.28600	181
2.28967	183
2.29333	181
2.29700	182
2.30067	183
2.30433	186
2.30800	189
2.31167	191
2.31533	195
2.31900	198
2.32267	199
2.32633	199
2.33000	200
2.33367	202
2.33733	204
2.34100	209
2.34467	213
2.34833	214
2.35200	216
2.35567	216
2.35933	217
2.36300	217
2.36667	218
2.37033	221
2.37400	222
2.37767	222
2.38133	220
2.38500	219
2.38867	221
2.39233	224
2.39600	227
2.39967	229
2.40333	234
2.40700	238
2.41067	241
2.41433	243
2.41800	245
2.42167	247
2.42533	249
2.42900	253
2.43267	256
2.43633	258
2.44000	261
2.44367	289
2.44733	370
2.45100	457
2.45467	525
2.45833	559
2.46200	548
2.46567	510
2.46933	471
2.47300	439
2.47667	416
2.48033	399
2.48400	384
2.48767	365
2.49133	342
2.49500	315
2.49867	291
2.50233	271
2.50600	253
2.50967	239
2.51333	227
2.51700	218
2.52067	214
2.52433	216
2.52800	221
2.53167	228
2.53533	236
2.53900	247
2.54267	253
2.54633	254
2.55000	251
2.55367	245
2.55733	234
2.56100	222
2.56467	208
2.56833	194
2.57200	183
2.57567	175
2.57933	170
2.58300	165
2.58667	161
2.59033	156
2.59400	150
2.59767	140
2.60133	124
2.60500	105
2.60867	81
2.61233	55
2.61600	29
2.61967	4
2.62333	-18
2.62700	-35
2.63067	-49
2.63433	-58
2.63800	-63
2.64167	-59
2.64533	-55
2.64900	-48
2.65267	-40
2.65633	-30
2.66000	-20
2.66367	-6
2.66733	7
2.67100	17
2.67467	26
2.67833	34
2.68200	44
2.68567	50
2.68933	53
2.69300	57
2.69667	60
2.70033	64
2.70400	67
2.70767	69
2.71133	71
2.71500	71
2.71867	71
2.72233	71
2.72600	71
2.72967	72
2.73333	72
2.73700	72
2.74067	72
2.74433	71
2.74800	72
2.75167	75
2.75533	78
2.75900	80
2.76267	80
2.76633	79
2.77000	79
2.77367	79
2.77733	79
2.78100	79
2.78467	78
2.78833	80
2.79200	82
2.79567	84
2.79933	86
2.80300	85
2.80667	87
2.81033	93
2.81400	107
2.81767	142
2.82133	224
2.82500	396
2.82867	719
2.83233	1262
2.83600	2076
2.83967	3197
2.84333	4615
2.84700	6280
2.85067	8098
2.85433	9943
2.85800	11670
2.86167	13149
2.86533	14271
2.86900	14970
2.87267	15236
2.87633	15095
2.88000	14610
2.88367	13864
2.88733	12943
2.89100	11917
2.89467	10849
2.89833	9789
2.90200	8771
2.90567	7813
2.90933	6926
2.91300	6117
2.91667	5386
2.92033	4732
2.92400	4147
2.92767	3629
2.93133	3174
2.93500	2774
2.93867	2424
2.94233	2117
2.94600	1848
2.94967	1613
2.95333	1409
2.95700	1234
2.96067	1081
2.96433	948
2.96800	835
2.97167	736
2.97533	650
2.97900	576
2.98267	512
2.98633	453
2.99000	405
2.99367	367
2.99733	333
3.00100	303
3.00467	272
3.00833	211
3.01200	134
3.01567	77
3.01933	58
3.02300	72
3.02667	105
3.03033	147
3.03400	194
3.03767	240
3.04133	287
3.04500	335
3.04867	377
3.05233	413
3.05600	444
3.05967	473
3.06333	500
3.06700	524
3.07067	545
3.07433	560
3.07800	573
3.08167	584
3.08533	593
3.08900	600
3.09267	607
3.09633	611
3.10000	612
3.10367	610
3.10733	608
3.11100	608
3.11467	610
3.11833	612
3.12200	613
3.12567	612
3.12933	612
3.13300	612
3.13667	610
3.14033	609
3.14400	610
3.14767	610
3.15133	611
3.15500	613
3.15867	615
3.16233	617
3.16600	621
3.16967	626
3.17333	628
3.17700	627
3.18067	628
3.18433	630
3.18800	632
3.19167	635
3.19533	636
3.19900	637
3.20267	639
3.20633	641
3.21000	644
3.21367	645
3.21733	646
3.22100	648
3.22467	648
3.22833	647
3.23200	646
3.23567	648
3.23933	648
3.24300	645
3.24667	643
3.25033	639
3.25400	634
3.25767	628
3.26133	624
3.26500	618
3.26867	614
3.27233	608
3.27600	604
3.27967	601
3.28333	594
3.28700	588
3.29067	584
3.29433	580
3.29800	576
3.30167	569
3.30533	562
3.30900	557
3.31267	554
3.31633	551
3.32000	547
3.32367	543
3.32733	541
3.33100	539
3.33467	538
3.33833	536
3.34200	533
3.34567	529
3.34933	524
3.35300	520
3.35667	519
3.36033	520
3.36400	519
3.36767	518
3.37133	515
3.37500	511
3.37867	509
3.38233	508
3.38600	504
3.38967	500
3.39333	499
3.39700	500
3.40067	498
3.40433	499
3.40800	500
3.41167	500
3.41533	499
3.41900	499
3.42267	499
3.42633	497
3.43000	494
3.43367	491
3.43733	489
3.44100	488
3.44467	488
3.44833	486
3.45200	486
3.45567	484
3.45933	482
3.46300	482
3.46667	479
3.47033	474
3.47400	471
3.47767	469
3.48133	467
3.48500	465
3.48867	464
3.49233	461
3.49600	459
3.49967	456
3.50333	451
3.50700	448
3.51067	446
3.51433	445
3.51800	445
3.52167	443
3.52533	441
3.52900	439
3.53267	434
3.53633	429
3.54000	424
3.54367	422
3.54733	421
3.55100	420
3.55467	418
3.55833	418
3.56200	417
3.56567	414
3.56933	412
3.57300	411
3.57667	411
3.58033	412
3.58400	411
3.58767	409
3.59133	406
3.59500	403
3.59867	402
3.60233	404
3.60600	405
3.60967	405
3.61333	404
3.61700	401
3.62067	398
3.62433	395
3.62800	392
3.63167	389
3.63533	386
3.63900	385
3.64267	385
3.64633	384
3.65000	381
3.65367	379
3.65733	378
3.66100	377
3.66467	377
3.66833	378
3.67200	378
3.67567	380
3.67933	381
3.68300	378
3.68667	376
3.69033	377
3.69400	376
3.69767	375
3.70133	377
3.70500	377
3.70867	376
3.71233	376
3.71600	375
3.71967	375
3.72333	378
3.72700	380
3.73067	382
3.73433	380
3.73800	378
3.74167	377
3.74533	374
3.74900	373
3.75267	374
3.75633	372
3.76000	371
3.76367	371
3.76733	371
3.77100	369
3.77467	367
3.77833	367
3.78200	366
3.78567	366
3.78933	368
3.79300	368
3.79667	367
3.80033	366
3.80400	367
3.80767	371
3.81133	372
3.81500	370
3.81867	368
3.82233	366
3.82600	365
3.82967	364
3.83333	365
3.83700	365
3.84067	367
3.84433	367
3.84800	365
3.85167	366
3.85533	368
3.85900	367
3.86267	366
3.86633	363
3.87000	361
3.87367	358
3.87733	359
3.88100	363
3.88467	364
3.88833	364
3.89200	363
3.89567	361
3.89933	360
3.90300	359
3.90667	360
3.91033	362
3.91400	362
3.91767	361
3.92133	359
3.92500	358
3.92867	358
3.93233	357
3.93600	355
3.93967	351
3.94333	348
3.94700	346
3.95067	344
3.95433	342
3.95800	342
3.96167	343
3.96533	344
3.96900	345
3.97267	343
3.97633	340
3.98000	337
3.98367	338
3.98733	341
3.99100	343
3.99467	341
3.99833	338

[Status Trace (Column Oven Temperature)]
Interval(msec)	1000
# of Points	240
Start Time(min)	0.004
End Time(min)	3.987
Intensity Units	
Intensity Multiplier	1
R.Time (min)	Intensity
0.00395	35.04
0.02062	35.04
0.03728	35.04
0.05395	35.03
0.07062	35.03
0.08728	35.03
0.10395	35.03
0.12062	35.03
0.13728	35.03
0.15395	35.04
0.17062	35.04
0.18728	35.03
0.20395	35.03
0.22062	35.03
0.23728	35.04
0.25395	35.05
0.27062	35.04
0.28728	35.04
0.30395	35.03
0.32062	35.02
0.33728	35.02
0.35395	35.01
0.37062	35.00
0.38728	34.99
0.40395	34.99
0.42062	35.00
0.43728	35.01
0.45395	35.02
0.47062	35.03
0.48728	35.04
0.50395	35.03
0.52062	35.02
0.53728	35.01
0.55395	35.01
0.57062	35.00
0.58728	34.99
0.60395	34.98
0.62062	34.98
0.63728	34.98
0.65395	34.98
0.67062	34.97
0.68728	34.97
0.70395	34.97
0.72062	34.97
0.73728	34.97
0.75395	34.98
0.77062	35.00
0.78728	35.00
0.80395	35.00
0.82062	35.00
0.83728	34.99
0.85395	34.98
0.87062	34.97
0.88728	34.96
0.90395	34.97
0.92062	34.98
0.93728	35.00
0.95395	35.01
0.97062	35.01
0.98728	35.02
1.00395	35.03
1.02062	35.02
1.03728	35.01
1.05395	35.00
1.07062	35.00
1.08728	34.99
1.10395	35.00
1.12062	35.01
1.13728	35.01
1.15395	35.00
1.17062	35.00
1.18728	34.99
1.20395	34.98
1.22062	34.98
1.23728	34.99
1.25395	35.01
1.27062	35.00
1.28728	35.00
1.30395	34.99
1.32062	34.97
1.33728	34.98
1.35395	34.98
1.37062	34.98
1.38728	34.99
1.40395	35.01
1.42062	35.02
1.43728	35.03
1.45395	35.03
1.47062	35.02
1.48728	35.00
1.50395	35.01
1.52062	35.01
1.53728	35.01
1.55395	35.00
1.57062	34.99
1.58728	34.99
1.60395	35.03
1.62062	35.13
1.63728	35.30
1.65395	35.53
1.67062	35.87
1.68728	36.25
1.70395	36.61
1.72062	36.94
1.73728	37.27
1.75395	37.61
1.77062	37.92
1.78728	38.26
1.80395	38.59
1.82062	38.93
1.83728	39.26
1.85395	39.58
1.87062	39.92
1.88728	40.24
1.90395	40.57
1.92062	40.89
1.93728	41.22
1.95395	41.56
1.97062	41.89
1.98728	42.22
2.00395	42.55
2.02062	42.86
2.03728	43.19
2.05395	43.53
2.07062	43.83
2.08728	44.15
2.10395	44.50
2.12062	44.82
2.13728	45.14
2.15395	45.44
2.17062	45.76
2.18728	46.09
2.20395	46.42
2.22062	46.75
2.23728	47.09
2.25395	47.43
2.27062	47.74
2.28728	48.09
2.30395	48.43
2.32062	48.76
2.33728	49.08
2.35395	49.38
2.37062	49.61
2.38728	49.70
2.40395	49.70
2.42062	49.70
2.43728	49.70
2.45395	49.71
2.47062	49.73
2.48728	49.72
2.50395	49.73
2.52062	49.75
2.53728	49.75
2.55395	49.77
2.57062	49.78
2.58728	49.81
2.60395	49.80
2.62062	49.81
2.63728	49.82
2.65395	49.83
2.67062	49.83
2.68728	49.84
2.70395	49.85
2.72062	49.85
2.73728	49.87
2.75395	49.88
2.77062	49.88
2.78728	49.87
2.80395	49.86
2.82062	49.85
2.83728	49.87
2.85395	49.91
2.87062	49.94
2.88728	49.95
2.90395	49.95
2.92062	49.95
2.93728	49.94
2.95395	49.95
2.97062	49.94
2.98728	49.94
3.00395	49.95
3.02062	49.95
3.03728	49.97
3.05395	49.99
3.07062	49.99
3.08728	49.99
3.10395	49.99
3.12062	50.00
3.13728	50.00
3.15395	50.00
3.17062	50.01
3.18728	50.02
3.20395	50.03
3.22062	50.03
3.23728	50.04
3.25395	50.05
3.27062	50.06
3.28728	50.07
3.30395	50.08
3.32062	50.08
3.33728	50.09
3.35395	50.09
3.37062	50.10
3.38728	50.10
3.40395	50.10
3.42062	50.10
3.43728	50.10
3.45395	50.10
3.47062	50.08
3.48728	50.07
3.50395	50.06
3.52062	50.04
3.53728	50.03
3.55395	50.03
3.57062	50.03
3.58728	50.03
3.60395	50.04
3.62062	50.03
3.63728	50.03
3.65395	50.02
3.67062	50.02
3.68728	50.03
3.70395	50.03
3.72062	50.03
3.73728	50.04
3.75395	50.06
3.77062	50.07
3.78728	50.07
3.80395	50.06
3.82062	50.06
3.83728	50.06
3.85395	50.06
3.87062	50.06
3.88728	50.06
3.90395	50.07
3.92062	50.08
3.93728	50.07
3.95395	50.07
3.97062	50.06
3.98728	50.04

[Status Trace (Injection Unit Temperature)]
Interval(msec)	1000
# of Points	240
Start Time(min)	0.004
End Time(min)	3.987
Intensity Units	
Intensity Multiplier	1
R.Time (min)	Intensity
0.00395	99.98
0.02062	99.98
0.03728	99.98
0.05395	99.98
0.07062	99.98
0.08728	99.98
0.10395	99.98
0.12062	99.98
0.13728	99.98
0.15395	99.98
0.17062	99.97
0.18728	99.98
0.20395	99.98
0.22062	99.98
0.23728	99.98
0.25395	99.98
0.27062	99.99
0.28728	99.99
0.30395	99.98
0.32062	99.98
0.33728	99.98
0.35395	99.98
0.37062	99.98
0.38728	99.98
0.40395	99.98
0.42062	99.99
0.43728	99.98
0.45395	99.98
0.47062	99.98
0.48728	99.98
0.50395	99.98
0.52062	99.98
0.53728	99.99
0.55395	99.98
0.57062	99.98
0.58728	99.98
0.60395	99.98
0.62062	99.98
0.63728	99.98
0.65395	99.98
0.67062	99.98
0.68728	99.98
0.70395	99.98
0.72062	99.99
0.73728	99.99
0.75395	99.98
0.77062	99.99
0.78728	99.99
0.80395	99.98
0.82062	99.98
0.83728	99.99
0.85395	99.99
0.87062	99.98
0.88728	99.99
0.90395	99.98
0.92062	99.99
0.93728	99.99
0.95395	99.99
0.97062	99.99
0.98728	99.99
1.00395	99.99
1.02062	99.98
1.03728	99.99
1.05395	99.99
1.07062	99.99
1.08728	99.99
1.10395	99.99
1.12062	99.98
1.13728	99.98
1.15395	99.99
1.17062	99.99
1.18728	99.98
1.20395	99.98
1.22062	99.99
1.23728	99.99
1.25395	99.99
1.27062	99.99
1.28728	99.98
1.30395	99.98
1.32062	99.99
1.33728	99.99
1.35395	99.99
1.37062	99.99
1.38728	99.98
1.40395	99.99
1.42062	99.98
1.43728	99.99
1.45395	99.99
1.47062	99.99
1.48728	99.98
1.50395	99.99
1.52062	99.98
1.53728	99.98
1.55395	99.98
1.57062	99.98
1.58728	99.98
1.60395	99.98
1.62062	99.98
1.63728	99.98
1.65395	99.98
1.67062	99.98
1.68728	99.98
1.70395	99.98
1.72062	99.98
1.73728	99.98
1.75395	99.98
1.77062	99.98
1.78728	99.98
1.80395	99.98
1.82062	99.98
1.83728	99.98
1.85395	99.97
1.87062	99.98
1.88728	99.98
1.90395	99.98
1.92062	99.97
1.93728	99.98
1.95395	99.98
1.97062	99.97
1.98728	99.97
2.00395	99.97
2.02062	99.97
2.03728	99.97
2.05395	99.97
2.07062	99.97
2.08728	99.97
2.10395	99.97
2.12062	99.97
2.13728	99.97
2.15395	99.97
2.17062	99.97
2.18728	99.97
2.20395	99.97
2.22062	99.97
2.23728	99.97
2.25395	99.97
2.27062	99.97
2.28728	99.97
2.30395	99.97
2.32062	99.97
2.33728	99.97
2.35395	99.97
2.37062	99.97
2.38728	99.97
2.40395	99.96
2.42062	99.97
2.43728	99.97
2.45395	99.97
2.47062	99.97
2.48728	99.97
2.50395	99.97
2.52062	99.98
2.53728	99.97
2.55395	99.98
2.57062	99.98
2.58728	99.98
2.60395	99.98
2.62062	99.98
2.63728	99.99
2.65395	99.98
2.67062	99.98
2.68728	99.98
2.70395	99.99
2.72062	99.98
2.73728	99.99
2.75395	99.99
2.77062	99.99
2.78728	99.99
2.80395	99.99
2.82062	100.00
2.83728	99.99
2.85395	100.00
2.87062	100.00
2.88728	100.00
2.90395	100.00
2.92062	100.00
2.93728	100.00
2.95395	100.01
2.97062	100.01
2.98728	100.00
3.00395	100.01
3.02062	100.01
3.03728	100.01
3.05395	100.01
3.07062	100.01
3.08728	100.01
3.10395	100.01
3.12062	100.01
3.13728	100.02
3.15395	100.02
3.17062	100.01
3.18728	100.02
3.20395	100.02
3.22062	100.01
3.23728	100.02
3.25395	100.02
3.27062	100.02
3.28728	100.02
3.30395	100.02
3.32062	100.02
3.33728	100.02
3.35395	100.03
3.37062	100.03
3.38728	100.03
3.40395	100.02
3.42062	100.03
3.43728	100.03
3.45395	100.03
3.47062	100.03
3.48728	100.03
3.50395	100.04
3.52062	100.04
3.53728	100.03
3.55395	100.04
3.57062	100.04
3.58728	100.03
3.60395	100.04
3.62062	100.04
3.63728	100.04
3.65395	100.04
3.67062	100.04
3.68728	100.04
3.70395	100.04
3.72062	100.04
3.73728	100.04
3.75395	100.04
3.77062	100.04
3.78728	100.04
3.80395	100.04
3.82062	100.04
3.83728	100.04
3.85395	100.04
3.87062	100.04
3.88728	100.04
3.90395	100.04
3.92062	100.04
3.93728	100.04
3.95395	100.04
3.97062	100.04
3.98728	100.04

[Status Trace (Carrier Gas Pressure)]
Interval(msec)	1000
# of Points	240
Start Time(min)	0.004
End Time(min)	3.987
Intensity Units	
Intensity Multiplier	1
R.Time (min)	Intensity
0.00395	58.00
0.02062	55.98
0.03728	56.61
0.05395	58.74
0.07062	59.78
0.08728	58.19
0.10395	57.97
0.12062	58.01
0.13728	58.01
0.15395	58.01
0.17062	58.00
0.18728	58.00
0.20395	58.00
0.22062	58.00
0.23728	58.00
0.25395	58.00
0.27062	58.00
0.28728	58.00
0.30395	58.00
0.32062	58.00
0.33728	58.00
0.35395	58.00
0.37062	58.00
0.38728	58.00
0.40395	58.00
0.42062	58.00
0.43728	58.00
0.45395	58.00
0.47062	58.00
0.48728	58.00
0.50395	58.00
0.52062	58.00
0.53728	58.00
0.55395	58.00
0.57062	58.00
0.58728	58.00
0.60395	58.00
0.62062	58.00
0.63728	58.00
0.65395	58.00
0.67062	58.00
0.68728	58.00
0.70395	58.00
0.72062	58.00
0.73728	58.00
0.75395	58.00
0.77062	58.00
0.78728	58.00
0.80395	58.00
0.82062	58.00
0.83728	58.00
0.85395	58.00
0.87062	58.00
0.88728	58.00
0.90395	58.00
0.92062	58.00
0.93728	58.00
0.95395	58.00
0.97062	58.00
0.98728	58.00
1.00395	58.00
1.02062	58.00
1.03728	58.00
1.05395	58.00
1.07062	58.00
1.08728	58.00
1.10395	58.00
1.12062	58.00
1.13728	58.00
1.15395	58.00
1.17062	58.00
1.18728	58.00
1.20395	58.00
1.22062	58.00
1.23728	58.00
1.25395	58.00
1.27062	58.00
1.28728	58.00
1.30395	58.00
1.32062	58.00
1.33728	58.00
1.35395	58.00
1.37062	58.00
1.38728	58.00
1.40395	58.00
1.42062	58.00
1.43728	58.00
1.45395	58.00
1.47062	58.00
1.48728	58.00
1.50395	58.00
1.52062	58.00
1.53728	58.00
1.55395	58.00
1.57062	58.00
1.58728	58.00
1.60395	58.00
1.62062	58.00
1.63728	58.00
1.65395	58.01
1.67062	58.01
1.68728	58.01
1.70395	58.00
1.72062	58.00
1.73728	58.00
1.75395	58.00
1.77062	58.00
1.78728	58.00
1.80395	58.00
1.82062	58.00
1.83728	58.00
1.85395	58.00
1.87062	58.00
1.88728	58.00
1.90395	58.00
1.92062	58.00
1.93728	58.00
1.95395	58.00
1.97062	58.00
1.98728	58.00
2.00395	58.00
2.02062	58.00
2.03728	58.00
2.05395	58.00
2.07062	58.00
2.08728	58.00
2.10395	58.00
2.12062	58.00
2.13728	58.00
2.15395	58.00
2.17062	58.00
2.18728	58.00
2.20395	58.00
2.22062	58.00
2.23728	58.00
2.25395	58.00
2.27062	58.00
2.28728	58.00
2.30395	58.00
2.32062	58.00
2.33728	58.00
2.35395	58.00
2.37062	58.00
2.38728	57.99
2.40395	57.99
2.42062	58.00
2.43728	58.00
2.45395	58.00
2.47062	58.00
2.48728	58.00
2.50395	57.98
2.52062	57.99
2.53728	58.00
2.55395	58.00
2.57062	58.00
2.58728	58.00
2.60395	58.00
2.62062	58.00
2.63728	58.00
2.65395	58.00
2.67062	58.00
2.68728	58.00
2.70395	58.00
2.72062	58.00
2.73728	58.00
2.75395	58.00
2.77062	58.00
2.78728	58.00
2.80395	58.00
2.82062	58.00
2.83728	58.00
2.85395	58.00
2.87062	58.00
2.88728	58.00
2.90395	58.00
2.92062	58.00
2.93728	58.00
2.95395	58.00
2.97062	58.00
2.98728	58.00
3.00395	58.00
3.02062	58.00
3.03728	58.00
3.05395	58.00
3.07062	58.00
3.08728	58.00
3.10395	58.00
3.12062	58.00
3.13728	58.00
3.15395	58.00
3.17062	58.00
3.18728	58.00
3.20395	58.00
3.22062	58.00
3.23728	58.00
3.25395	58.00
3.27062	58.00
3.28728	58.00
3.30395	58.00
3.32062	58.00
3.33728	58.00
3.35395	58.00
3.37062	58.00
3.38728	58.00
3.40395	58.00
3.42062	58.00
3.43728	58.00
3.45395	58.00
3.47062	58.00
3.48728	58.00
3.50395	58.00
3.52062	58.00
3.53728	58.00
3.55395	58.00
3.57062	58.00
3.58728	58.00
3.60395	58.00
3.62062	58.00
3.63728	58.00
3.65395	58.00
3.67062	58.00
3.68728	58.00
3.70395	58.00
3.72062	58.00
3.73728	58.00
3.75395	58.00
3.77062	58.00
3.78728	58.00
3.80395	58.00
3.82062	58.00
3.83728	58.00
3.85395	58.00
3.87062	58.00
3.88728	58.00
3.90395	58.00
3.92062	58.00
3.93728	58.00
3.95395	58.00
3.97062	58.00
3.98728	58.00

[Status Trace (Carrier Gas Flow)]
Interval(msec)	1000
# of Points	240
Start Time(min)	0.004
End Time(min)	3.987
Intensity Units	
Intensity Multiplier	1
R.Time (min)	Intensity
0.00395	34.52
0.02062	34.57
0.03728	34.55
0.05395	34.54
0.07062	34.49
0.08728	34.52
0.10395	34.52
0.12062	34.51
0.13728	34.52
0.15395	34.52
0.17062	34.52
0.18728	34.52
0.20395	34.51
0.22062	34.52
0.23728	34.52
0.25395	34.52
0.27062	34.52
0.28728	34.52
0.30395	34.52
0.32062	34.52
0.33728	34.52
0.35395	34.52
0.37062	34.52
0.38728	34.52
0.40395	34.52
0.42062	34.52
0.43728	34.52
0.45395	34.52
0.47062	34.52
0.48728	34.52
0.50395	34.52
0.52062	34.52
0.53728	34.52
0.55395	34.52
0.57062	34.52
0.58728	34.52
0.60395	34.51
0.62062	34.51
0.63728	34.52
0.65395	34.51
0.67062	34.51
0.68728	34.52
0.70395	34.52
0.72062	34.52
0.73728	34.52
0.75395	34.52
0.77062	34.52
0.78728	34.52
0.80395	34.52
0.82062	34.52
0.83728	34.52
0.85395	34.52
0.87062	34.52
0.88728	34.52
0.90395	34.52
0.92062	34.52
0.93728	34.52
0.95395	34.52
0.97062	34.52
0.98728	34.51
1.00395	34.52
1.02062	34.52
1.03728	34.52
1.05395	34.52
1.07062	34.52
1.08728	34.52
1.10395	34.52
1.12062	34.52
1.13728	34.52
1.15395	34.52
1.17062	34.52
1.18728	34.52
1.20395	34.52
1.22062	34.52
1.23728	34.52
1.25395	34.52
1.27062	34.52
1.28728	34.52
1.30395	34.52
1.32062	34.52
1.33728	34.52
1.35395	34.52
1.37062	34.52
1.38728	34.52
1.40395	34.52
1.42062	34.52
1.43728	34.52
1.45395	34.52
1.47062	34.52
1.48728	34.52
1.50395	34.52
1.52062	34.52
1.53728	34.52
1.55395	34.52
1.57062	34.52
1.58728	34.51
1.60395	34.52
1.62062	34.52
1.63728	34.52
1.65395	34.52
1.67062	34.52
1.68728	34.52
1.70395	34.52
1.72062	34.51
1.73728	34.51
1.75395	34.52
1.77062	34.52
1.78728	34.52
1.80395	34.52
1.82062	34.52
1.83728	34.51
1.85395	34.52
1.87062	34.52
1.88728	34.52
1.90395	34.52
1.92062	34.52
1.93728	34.52
1.95395	34.52
1.97062	34.51
1.98728	34.53
2.00395	34.52
2.02062	34.52
2.03728	34.52
2.05395	34.52
2.07062	34.53
2.08728	34.53
2.10395	34.52
2.12062	34.52
2.13728	34.52
2.15395	34.52
2.17062	34.52
2.18728	34.52
2.20395	34.52
2.22062	34.52
2.23728	34.52
2.25395	34.52
2.27062	34.52
2.28728	34.52
2.30395	34.52
2.32062	34.52
2.33728	34.51
2.35395	34.52
2.37062	34.52
2.38728	34.52
2.40395	34.53
2.42062	34.52
2.43728	34.52
2.45395	34.53
2.47062	34.52
2.48728	34.52
2.50395	34.65
2.52062	34.52
2.53728	34.52
2.55395	34.52
2.57062	34.52
2.58728	34.51
2.60395	34.52
2.62062	34.52
2.63728	34.52
2.65395	34.52
2.67062	34.52
2.68728	34.52
2.70395	34.52
2.72062	34.52
2.73728	34.52
2.75395	34.52
2.77062	34.51
2.78728	34.52
2.80395	34.52
2.82062	34.52
2.83728	34.52
2.85395	34.52
2.87062	34.52
2.88728	34.52
2.90395	34.51
2.92062	34.52
2.93728	34.52
2.95395	34.52
2.97062	34.52
2.98728	34.51
3.00395	34.52
3.02062	34.52
3.03728	34.52
3.05395	34.52
3.07062	34.52
3.08728	34.52
3.10395	34.51
3.12062	34.51
3.13728	34.52
3.15395	34.52
3.17062	34.52
3.18728	34.52
3.20395	34.52
3.22062	34.52
3.23728	34.52
3.25395	34.52
3.27062	34.52
3.28728	34.52
3.30395	34.52
3.32062	34.52
3.33728	34.52
3.35395	34.52
3.37062	34.52
3.38728	34.52
3.40395	34.52
3.42062	34.52
3.43728	34.52
3.45395	34.52
3.47062	34.52
3.48728	34.52
3.50395	34.53
3.52062	34.52
3.53728	34.52
3.55395	34.52
3.57062	34.51
3.58728	34.53
3.60395	34.53
3.62062	34.51
3.63728	34.52
3.65395	34.51
3.67062	34.53
3.68728	34.52
3.70395	34.52
3.72062	34.51
3.73728	34.53
3.75395	34.52
3.77062	34.52
3.78728	34.53
3.80395	34.51
3.82062	34.51
3.83728	34.51
3.85395	34.53
3.87062	34.51
3.88728	34.52
3.90395	34.53
3.92062	34.52
3.93728	34.51
3.95395	34.52
3.97062	34.52
3.98728	34.53

[Status Trace (Column Flow)]
Interval(msec)	1000
# of Points	240
Start Time(min)	0.004
End Time(min)	3.987
Intensity Units	
Intensity Multiplier	1
R.Time (min)	Intensity
0.00395	5.57
0.02062	5.34
0.03728	5.41
0.05395	5.66
0.07062	5.78
0.08728	5.60
0.10395	5.57
0.12062	5.57
0.13728	5.58
0.15395	5.57
0.17062	5.57
0.18728	5.57
0.20395	5.57
0.22062	5.57
0.23728	5.57
0.25395	5.57
0.27062	5.57
0.28728	5.57
0.30395	5.57
0.32062	5.57
0.33728	5.57
0.35395	5.57
0.37062	5.57
0.38728	5.58
0.40395	5.58
0.42062	5.57
0.43728	5.57
0.45395	5.57
0.47062	5.57
0.48728	5.57
0.50395	5.57
0.52062	5.57
0.53728	5.57
0.55395	5.57
0.57062	5.57
0.58728	5.58
0.60395	5.58
0.62062	5.58
0.63728	5.58
0.65395	5.58
0.67062	5.58
0.68728	5.58
0.70395	5.58
0.72062	5.58
0.73728	5.58
0.75395	5.58
0.77062	5.58
0.78728	5.58
0.80395	5.57
0.82062	5.57
0.83728	5.58
0.85395	5.58
0.87062	5.58
0.88728	5.58
0.90395	5.58
0.92062	5.58
0.93728	5.58
0.95395	5.57
0.97062	5.57
0.98728	5.57
1.00395	5.57
1.02062	5.57
1.03728	5.57
1.05395	5.58
1.07062	5.58
1.08728	5.58
1.10395	5.58
1.12062	5.58
1.13728	5.57
1.15395	5.58
1.17062	5.58
1.18728	5.58
1.20395	5.58
1.22062	5.58
1.23728	5.58
1.25395	5.58
1.27062	5.57
1.28728	5.58
1.30395	5.58
1.32062	5.58
1.33728	5.58
1.35395	5.58
1.37062	5.58
1.38728	5.58
1.40395	5.58
1.42062	5.57
1.43728	5.57
1.45395	5.57
1.47062	5.57
1.48728	5.58
1.50395	5.57
1.52062	5.57
1.53728	5.57
1.55395	5.58
1.57062	5.58
1.58728	5.58
1.60395	5.57
1.62062	5.57
1.63728	5.57
1.65395	5.56
1.67062	5.55
1.68728	5.54
1.70395	5.53
1.72062	5.51
1.73728	5.50
1.75395	5.49
1.77062	5.48
1.78728	5.47
1.80395	5.46
1.82062	5.45
1.83728	5.44
1.85395	5.43
1.87062	5.42
1.88728	5.41
1.90395	5.40
1.92062	5.39
1.93728	5.38
1.95395	5.37
1.97062	5.36
1.98728	5.35
2.00395	5.34
2.02062	5.33
2.03728	5.32
2.05395	5.31
2.07062	5.30
2.08728	5.30
2.10395	5.29
2.12062	5.28
2.13728	5.27
2.15395	5.26
2.17062	5.25
2.18728	5.24
2.20395	5.23
2.22062	5.22
2.23728	5.21
2.25395	5.20
2.27062	5.19
2.28728	5.18
2.30395	5.17
2.32062	5.16
2.33728	5.15
2.35395	5.15
2.37062	5.14
2.38728	5.14
2.40395	5.13
2.42062	5.14
2.43728	5.14
2.45395	5.14
2.47062	5.14
2.48728	5.14
2.50395	5.13
2.52062	5.13
2.53728	5.13
2.55395	5.13
2.57062	5.13
2.58728	5.13
2.60395	5.13
2.62062	5.13
2.63728	5.13
2.65395	5.13
2.67062	5.13
2.68728	5.13
2.70395	5.13
2.72062	5.13
2.73728	5.13
2.75395	5.13
2.77062	5.13
2.78728	5.13
2.80395	5.13
2.82062	5.13
2.83728	5.13
2.85395	5.13
2.87062	5.13
2.88728	5.13
2.90395	5.13
2.92062	5.13
2.93728	5.13
2.95395	5.13
2.97062	5.13
2.98728	5.13
3.00395	5.13
3.02062	5.13
3.03728	5.13
3.05395	5.13
3.07062	5.13
3.08728	5.13
3.10395	5.13
3.12062	5.13
3.13728	5.13
3.15395	5.13
3.17062	5.13
3.18728	5.13
3.20395	5.13
3.22062	5.13
3.23728	5.13
3.25395	5.13
3.27062	5.13
3.28728	5.13
3.30395	5.13
3.32062	5.13
3.33728	5.13
3.35395	5.13
3.37062	5.13
3.38728	5.13
3.40395	5.12
3.42062	5.12
3.43728	5.12
3.45395	5.12
3.47062	5.13
3.48728	5.13
3.50395	5.13
3.52062	5.13
3.53728	5.13
3.55395	5.13
3.57062	5.13
3.58728	5.13
3.60395	5.13
3.62062	5.13
3.63728	5.13
3.65395	5.13
3.67062	5.13
3.68728	5.13
3.70395	5.13
3.72062	5.13
3.73728	5.13
3.75395	5.13
3.77062	5.13
3.78728	5.13
3.80395	5.13
3.82062	5.13
3.83728	5.13
3.85395	5.13
3.87062	5.13
3.88728	5.13
3.90395	5.13
3.92062	5.13
3.93728	5.13
3.95395	5.13
3.97062	5.13
3.98728	5.13

[Status Trace (Linear Velocity)]
Interval(msec)	1000
# of Points	240
Start Time(min)	0.004
End Time(min)	3.987
Intensity Units	
Intensity Multiplier	1
R.Time (min)	Intensity
0.00395	39.02
0.02062	37.70
0.03728	38.11
0.05395	39.51
0.07062	40.19
0.08728	39.15
0.10395	39.01
0.12062	39.03
0.13728	39.03
0.15395	39.03
0.17062	39.03
0.18728	39.03
0.20395	39.03
0.22062	39.03
0.23728	39.03
0.25395	39.03
0.27062	39.03
0.28728	39.03
0.30395	39.03
0.32062	39.03
0.33728	39.03
0.35395	39.03
0.37062	39.03
0.38728	39.03
0.40395	39.03
0.42062	39.03
0.43728	39.03
0.45395	39.03
0.47062	39.03
0.48728	39.02
0.50395	39.03
0.52062	39.03
0.53728	39.03
0.55395	39.03
0.57062	39.03
0.58728	39.03
0.60395	39.03
0.62062	39.03
0.63728	39.03
0.65395	39.03
0.67062	39.03
0.68728	39.03
0.70395	39.03
0.72062	39.03
0.73728	39.03
0.75395	39.03
0.77062	39.03
0.78728	39.03
0.80395	39.03
0.82062	39.03
0.83728	39.03
0.85395	39.03
0.87062	39.03
0.88728	39.03
0.90395	39.03
0.92062	39.03
0.93728	39.03
0.95395	39.03
0.97062	39.03
0.98728	39.03
1.00395	39.03
1.02062	39.03
1.03728	39.03
1.05395	39.03
1.07062	39.03
1.08728	39.03
1.10395	39.03
1.12062	39.03
1.13728	39.03
1.15395	39.03
1.17062	39.03
1.18728	39.03
1.20395	39.03
1.22062	39.03
1.23728	39.03
1.25395	39.03
1.27062	39.03
1.28728	39.03
1.30395	39.03
1.32062	39.03
1.33728	39.03
1.35395	39.03
1.37062	39.03
1.38728	39.03
1.40395	39.03
1.42062	39.03
1.43728	39.03
1.45395	39.03
1.47062	39.03
1.48728	39.03
1.50395	39.03
1.52062	39.03
1.53728	39.03
1.55395	39.03
1.57062	39.03
1.58728	39.03
1.60395	39.03
1.62062	39.02
1.63728	39.00
1.65395	38.98
1.67062	38.95
1.68728	38.91
1.70395	38.88
1.72062	38.84
1.73728	38.81
1.75395	38.78
1.77062	38.75
1.78728	38.72
1.80395	38.69
1.82062	38.65
1.83728	38.62
1.85395	38.60
1.87062	38.56
1.88728	38.53
1.90395	38.50
1.92062	38.47
1.93728	38.44
1.95395	38.41
1.97062	38.38
1.98728	38.35
2.00395	38.32
2.02062	38.29
2.03728	38.26
2.05395	38.23
2.07062	38.20
2.08728	38.17
2.10395	38.14
2.12062	38.11
2.13728	38.08
2.15395	38.06
2.17062	38.02
2.18728	37.99
2.20395	37.97
2.22062	37.93
2.23728	37.90
2.25395	37.88
2.27062	37.85
2.28728	37.81
2.30395	37.79
2.32062	37.75
2.33728	37.73
2.35395	37.70
2.37062	37.68
2.38728	37.67
2.40395	37.67
2.42062	37.67
2.43728	37.67
2.45395	37.67
2.47062	37.67
2.48728	37.67
2.50395	37.65
2.52062	37.66
2.53728	37.66
2.55395	37.67
2.57062	37.66
2.58728	37.66
2.60395	37.66
2.62062	37.66
2.63728	37.66
2.65395	37.66
2.67062	37.66
2.68728	37.66
2.70395	37.66
2.72062	37.66
2.73728	37.66
2.75395	37.65
2.77062	37.65
2.78728	37.66
2.80395	37.66
2.82062	37.66
2.83728	37.66
2.85395	37.65
2.87062	37.65
2.88728	37.65
2.90395	37.65
2.92062	37.65
2.93728	37.65
2.95395	37.65
2.97062	37.65
2.98728	37.65
3.00395	37.65
3.02062	37.65
3.03728	37.65
3.05395	37.65
3.07062	37.65
3.08728	37.65
3.10395	37.64
3.12062	37.64
3.13728	37.64
3.15395	37.64
3.17062	37.64
3.18728	37.64
3.20395	37.64
3.22062	37.64
3.23728	37.64
3.25395	37.64
3.27062	37.64
3.28728	37.64
3.30395	37.64
3.32062	37.64
3.33728	37.64
3.35395	37.64
3.37062	37.64
3.38728	37.64
3.40395	37.64
3.42062	37.64
3.43728	37.64
3.45395	37.64
3.47062	37.64
3.48728	37.64
3.50395	37.64
3.52062	37.64
3.53728	37.64
3.55395	37.64
3.57062	37.64
3.58728	37.64
3.60395	37.64
3.62062	37.64
3.63728	37.64
3.65395	37.64
3.67062	37.64
3.68728	37.64
3.70395	37.64
3.72062	37.64
3.73728	37.64
3.75395	37.64
3.77062	37.64
3.78728	37.64
3.80395	37.64
3.82062	37.64
3.83728	37.64
3.85395	37.64
3.87062	37.64
3.88728	37.64
3.90395	37.64
3.92062	37.64
3.93728	37.64
3.95395	37.64
3.97062	37.64
3.98728	37.64

