[Header]
Application Name	LabSolutions
Version	5.110
Data File Name	C:\Users\User\Desktop\GC Analyses\Jack\Nachusa Grasslands Sampling\T0 Timepoint July 12th\T0_07122022_005.gcd
Output Date	3/14/2023
Output Time	3:40:33 PM

[File Information]
Type	Data File
Generated	3/7/2023 2:14:26 PM
Generated by	System Administrator
Modified	3/7/2023 2:20:56 PM
Modified by	System Administrator

[Sample Information]
Operator Name	System Administrator
Acquired	3/7/2023 2:16:55 PM
Sample Type	0:Unknown
Level	0
Sample Name	005
Sample ID	005
ISTD Amount1	1
ISTD Amount2	1
ISTD Amount3	1
ISTD Amount4	1
ISTD Amount5	1
ISTD Amount6	1
ISTD Amount7	1
ISTD Amount8	1
ISTD Amount9	1
ISTD Amount10	1
ISTD Amount11	1
ISTD Amount12	1
ISTD Amount13	1
ISTD Amount14	1
ISTD Amount15	1
ISTD Amount16	1
ISTD Amount17	1
ISTD Amount18	1
ISTD Amount19	1
ISTD Amount20	1
ISTD Amount21	1
ISTD Amount22	1
ISTD Amount23	1
ISTD Amount24	1
ISTD Amount25	1
ISTD Amount26	1
ISTD Amount27	1
ISTD Amount28	1
ISTD Amount29	1
ISTD Amount30	1
ISTD Amount31	1
ISTD Amount32	1
Sample Amount	1
Dilution Factor	1
Vial#	4
Injection Volume	1
Injection Count	1
Bar Code	

[Original Files]
Data File	C:\Users\User\Desktop\GC Analyses\Jack\Nachusa Grasslands Sampling\T0 Timepoint July 12th\T0_07122022_005.gcd
Method File	C:\LabSolutions\Data\GHG_4min_2022\ghg3_togas_w_acet_4 min_new_int.gcm
Batch File	C:\LabSolutions\Data\AutoSamplerTesting\T0_07122022.gcb
Report Format File	c:\LabSolutions\System\DEFAULT.lsr

[File Description]


[Configuration]
Instrument Name	C0B7VH3-Instrument1
Instrument #	1
Line #	1
# of Detectors	3
Detector ID	DET#1	DET#2	DET#3
Detector Name	FID	PTCD	ECD
# of Channels	1	1	1

[Peak Table(Ch1)]
# of Peaks	3
Peak#	R.Time	I.Time	F.Time	Area	Height	A/H	Conc.	Mark	ID#	Name	k'	Plate #	Plate Ht.	Tailing	Resolution	Sep.Factor	Area Ratio	Height Ratio	Conc. %	Norm Conc.
1	1.483	1.439	1.534	2361	683	3.457	16.668	   	1	CO	0.000	4948	30.317	0.000	0.000	0.000	0	0	1.743	1.743
2	1.571	1.534	1.630	20802	10434	1.994	402.231	 V 	2	CH4	0.059	11396	13.163	1.117	1.229	0.000	0	0	42.070	42.070
3	1.996	1.949	2.594	2140455	1001617	2.137	537.196	   	3	CO2	0.346	17099	8.772	1.329	7.093	5.833	0	0	56.186	56.186

[Peak Table(Ch2)]
# of Peaks	0

[Peak Table(Ch3)]
# of Peaks	4
Peak#	R.Time	I.Time	F.Time	Area	Height	A/H	Conc.	Mark	ID#	Name	k'	Plate #	Plate Ht.	Tailing	Resolution	Sep.Factor	Area Ratio	Height Ratio	Conc. %	Norm Conc.
1	2.462	2.000	2.528	3513	390	9.018	0.000	   			0.000	2805	53.480	0.000	0.000	0.000	0	0	0.000	0.000
2	2.554	2.528	2.638	1301	272	4.786	0.000	 V 			0.037	840	178.565	0.000	0.341	0.000	0	0	0.000	0.000
3	2.766	2.649	2.788	956	161	5.939	0.024	   	1	N2O	0.124	1385	108.317	0.000	0.655	3.320	0	0	1.581	1.581
4	2.876	2.788	3.228	59531	15153	3.929	1.521	 V 	1	N2O	0.168	12686	11.824	1.518	0.551	1.361	0	0	98.419	98.419

[Compound Results(Ch1)]
# of IDs	6
ID#	Name	R.Time	Area	Height	Conc.	Curve	3rd	2nd	1st	Constant	Area Ratio	Height Ratio	Conc. %	Norm Conc.
1	CO	1.483	2361	683	16.668	Linear	0.000000e+00	0.000000e+00	1.416423e+002	0.000000e+00	0	0	1.743	1.743
2	CH4	1.571	20802	10434	402.231	Linear	0.000000e+00	0.000000e+00	5.171738e+001	0.000000e+00	0	0	42.070	42.070
3	CO2	1.996	2140455	1001617	537.196	Linear	0.000000e+00	0.000000e+00	3.984494e+003	0.000000e+00	0	0	56.186	56.186
4	Ethylene	0.000	0	0	0.000	Linear	0.000000e+00	0.000000e+00	0.000000e+00	0.000000e+00	0	0	0.000	0.000
5	Acetylene	0.000	0	0	0.000	Linear	0.000000e+00	0.000000e+00	0.000000e+00	0.000000e+00	0	0	0.000	0.000
6	Ethane	0.000	0	0	0.000	Linear	0.000000e+00	0.000000e+00	0.000000e+00	0.000000e+00	0	0	0.000	0.000

[Compound Results(Ch2)]
# of IDs	5
ID#	Name	R.Time	Area	Height	Conc.	Curve	3rd	2nd	1st	Constant	Area Ratio	Height Ratio	Conc. %	Norm Conc.
1	Hydrogen	0.000	0	0	0.000	Linear	0.000000e+00	0.000000e+00	0.000000e+00	0.000000e+00	0	0	0.000	0.000
2	Oxygen	0.000	0	0	0.000	Linear	0.000000e+00	0.000000e+00	0.000000e+00	0.000000e+00	0	0	0.000	0.000
3	Nitrogen	0.000	0	0	0.000	Linear	0.000000e+00	0.000000e+00	0.000000e+00	0.000000e+00	0	0	0.000	0.000
4	Methane	0.000	0	0	0.000	Linear	0.000000e+00	0.000000e+00	0.000000e+00	0.000000e+00	0	0	0.000	0.000
5	Carbon Monoxide	0.000	0	0	0.000	Linear	0.000000e+00	0.000000e+00	0.000000e+00	0.000000e+00	0	0	0.000	0.000

[Compound Results(Ch3)]
# of IDs	2
ID#	Name	R.Time	Area	Height	Conc.	Curve	3rd	2nd	1st	Constant	Area Ratio	Height Ratio	Conc. %	Norm Conc.
1	N2O	2.876	60487	15314	1.545	Linear	0.000000e+00	0.000000e+00	3.915173e+004	0.000000e+00	0	0	100.000	100.000
2	SF6	0.000	0	0	0.000	Linear	0.000000e+00	0.000000e+00	0.000000e+00	0.000000e+00	0	0	0.000	0.000

[Group Results(Ch1)]
# of Groups	0

[Group Results(Ch2)]
# of Groups	0

[Group Results(Ch3)]
# of Groups	0

[Chromatogram (Ch1)]
Interval(msec)	220
# of Points	1091
Start Time(min)	0.002
End Time(min)	3.998
R.Time (min)	Intensity
0.00167	-42
0.00533	-40
0.00900	-38
0.01267	-39
0.01633	-40
0.02000	-39
0.02367	-37
0.02733	-31
0.03100	-20
0.03467	-6
0.03833	7
0.04200	15
0.04567	19
0.04933	20
0.05300	16
0.05667	9
0.06033	2
0.06400	-4
0.06767	-9
0.07133	-11
0.07500	-9
0.07867	-7
0.08233	-8
0.08600	-7
0.08967	-10
0.09333	-12
0.09700	-8
0.10067	-3
0.10433	2
0.10800	7
0.11167	9
0.11533	10
0.11900	8
0.12267	5
0.12633	3
0.13000	4
0.13367	4
0.13733	-2
0.14100	-9
0.14467	-16
0.14833	-19
0.15200	-16
0.15567	-13
0.15933	-9
0.16300	-5
0.16667	-2
0.17033	1
0.17400	1
0.17767	-2
0.18133	-4
0.18500	-10
0.18867	-15
0.19233	-15
0.19600	-11
0.19967	-9
0.20333	-9
0.20700	-7
0.21067	-4
0.21433	-3
0.21800	-5
0.22167	-9
0.22533	-13
0.22900	-14
0.23267	-11
0.23633	-9
0.24000	-7
0.24367	-7
0.24733	-8
0.25100	-6
0.25467	-4
0.25833	-5
0.26200	-5
0.26567	-4
0.26933	-3
0.27300	-4
0.27667	-6
0.28033	-9
0.28400	-12
0.28767	-12
0.29133	-11
0.29500	-9
0.29867	-7
0.30233	-5
0.30600	-3
0.30967	-4
0.31333	-4
0.31700	-5
0.32067	-9
0.32433	-12
0.32800	-16
0.33167	-18
0.33533	-19
0.33900	-20
0.34267	-20
0.34633	-22
0.35000	-23
0.35367	-19
0.35733	-11
0.36100	-7
0.36467	-9
0.36833	-10
0.37200	-9
0.37567	-5
0.37933	-1
0.38300	1
0.38667	3
0.39033	2
0.39400	-2
0.39767	-5
0.40133	-6
0.40500	-6
0.40867	-6
0.41233	-6
0.41600	-6
0.41967	-7
0.42333	-8
0.42700	-11
0.43067	-15
0.43433	-21
0.43800	-27
0.44167	-33
0.44533	-35
0.44900	-35
0.45267	-33
0.45633	-27
0.46000	-19
0.46367	-10
0.46733	-5
0.47100	-4
0.47467	-5
0.47833	-9
0.48200	-12
0.48567	-16
0.48933	-18
0.49300	-20
0.49667	-23
0.50033	-26
0.50400	-27
0.50767	-25
0.51133	-23
0.51500	-19
0.51867	-13
0.52233	-8
0.52600	-7
0.52967	-10
0.53333	-15
0.53700	-19
0.54067	-25
0.54433	-32
0.54800	-37
0.55167	-41
0.55533	-43
0.55900	-41
0.56267	-34
0.56633	-24
0.57000	-16
0.57367	-10
0.57733	-7
0.58100	-6
0.58467	-8
0.58833	-11
0.59200	-11
0.59567	-11
0.59933	-8
0.60300	-5
0.60667	-6
0.61033	-9
0.61400	-14
0.61767	-18
0.62133	-17
0.62500	-14
0.62867	-13
0.63233	-13
0.63600	-12
0.63967	-10
0.64333	-11
0.64700	-16
0.65067	-22
0.65433	-26
0.65800	-26
0.66167	-22
0.66533	-18
0.66900	-15
0.67267	-9
0.67633	-3
0.68000	-1
0.68367	-7
0.68733	-15
0.69100	-17
0.69467	-18
0.69833	-18
0.70200	-18
0.70567	-17
0.70933	-17
0.71300	-15
0.71667	-10
0.72033	-7
0.72400	-9
0.72767	-16
0.73133	-24
0.73500	-32
0.73867	-41
0.74233	-49
0.74600	-51
0.74967	-47
0.75333	-39
0.75700	-31
0.76067	-31
0.76433	-29
0.76800	-24
0.77167	-23
0.77533	-21
0.77900	-19
0.78267	-17
0.78633	-15
0.79000	-15
0.79367	-19
0.79733	-22
0.80100	-23
0.80467	-24
0.80833	-24
0.81200	-24
0.81567	-21
0.81933	-18
0.82300	-15
0.82667	-12
0.83033	-8
0.83400	-2
0.83767	5
0.84133	9
0.84500	7
0.84867	2
0.85233	-6
0.85600	-14
0.85967	-23
0.86333	-29
0.86700	-34
0.87067	-37
0.87433	-40
0.87800	-42
0.88167	-45
0.88533	-47
0.88900	-48
0.89267	-45
0.89633	-38
0.90000	-28
0.90367	-19
0.90733	-14
0.91100	-15
0.91467	-23
0.91833	-35
0.92200	-45
0.92567	-49
0.92933	-52
0.93300	-51
0.93667	-46
0.94033	-42
0.94400	-38
0.94767	-36
0.95133	-35
0.95500	-35
0.95867	-35
0.96233	-33
0.96600	-31
0.96967	-29
0.97333	-27
0.97700	-28
0.98067	-31
0.98433	-33
0.98800	-34
0.99167	-32
0.99533	-29
0.99900	-26
1.00267	-25
1.00633	-28
1.01000	-30
1.01367	-31
1.01733	-32
1.02100	-31
1.02467	-27
1.02833	-23
1.03200	-19
1.03567	-17
1.03933	-17
1.04300	-22
1.04667	-30
1.05033	-36
1.05400	-36
1.05767	-35
1.06133	-35
1.06500	-38
1.06867	-45
1.07233	-52
1.07600	-57
1.07967	-62
1.08333	-62
1.08700	-56
1.09067	-47
1.09433	-42
1.09800	-42
1.10167	-44
1.10533	-46
1.10900	-48
1.11267	-51
1.11633	-53
1.12000	-54
1.12367	-54
1.12733	-52
1.13100	-51
1.13467	-52
1.13833	-52
1.14200	-50
1.14567	-48
1.14933	-49
1.15300	-54
1.15667	-59
1.16033	-59
1.16400	-58
1.16767	-56
1.17133	-53
1.17500	-57
1.17867	-60
1.18233	-56
1.18600	-49
1.18967	-44
1.19333	-44
1.19700	-41
1.20067	-30
1.20433	-25
1.20800	-25
1.21167	-26
1.21533	-27
1.21900	-27
1.22267	-27
1.22633	-32
1.23000	-42
1.23367	-53
1.23733	-59
1.24100	-60
1.24467	-61
1.24833	-62
1.25200	-61
1.25567	-61
1.25933	-60
1.26300	-59
1.26667	-58
1.27033	-59
1.27400	-61
1.27767	-63
1.28133	-64
1.28500	-62
1.28867	-58
1.29233	-54
1.29600	-50
1.29967	-46
1.30333	-43
1.30700	-46
1.31067	-54
1.31433	-61
1.31800	-66
1.32167	-71
1.32533	-75
1.32900	-80
1.33267	-85
1.33633	-86
1.34000	-82
1.34367	-74
1.34733	-67
1.35100	-65
1.35467	-66
1.35833	-68
1.36200	-70
1.36567	-72
1.36933	-71
1.37300	-67
1.37667	-62
1.38033	-61
1.38400	-61
1.38767	-64
1.39133	-64
1.39500	-63
1.39867	-66
1.40233	-69
1.40600	-68
1.40967	-67
1.41333	-66
1.41700	-68
1.42067	-71
1.42433	-72
1.42800	-71
1.43167	-70
1.43533	-72
1.43900	-63
1.44267	-3
1.44633	136
1.45000	302
1.45367	436
1.45733	525
1.46100	579
1.46467	605
1.46833	610
1.47200	611
1.47567	615
1.47933	624
1.48300	626
1.48667	607
1.49033	565
1.49400	501
1.49767	422
1.50133	345
1.50500	277
1.50867	222
1.51233	182
1.51600	151
1.51967	123
1.52333	93
1.52700	65
1.53067	46
1.53433	39
1.53800	89
1.54167	364
1.54533	1156
1.54900	2636
1.55267	4600
1.55633	6618
1.56000	8350
1.56367	9626
1.56733	10350
1.57100	10388
1.57467	9652
1.57833	8265
1.58200	6556
1.58567	4879
1.58933	3455
1.59300	2359
1.59667	1570
1.60033	1027
1.60400	656
1.60767	404
1.61133	235
1.61500	123
1.61867	51
1.62233	6
1.62600	-23
1.62967	-39
1.63333	-43
1.63700	-41
1.64067	-41
1.64433	-42
1.64800	-46
1.65167	-51
1.65533	-56
1.65900	-59
1.66267	-61
1.66633	-61
1.67000	-61
1.67367	-61
1.67733	-66
1.68100	-73
1.68467	-79
1.68833	-82
1.69200	-86
1.69567	-96
1.69933	-107
1.70300	-111
1.70667	-109
1.71033	-108
1.71400	-106
1.71767	-105
1.72133	-104
1.72500	-104
1.72867	-102
1.73233	-98
1.73600	-91
1.73967	-85
1.74333	-82
1.74700	-82
1.75067	-83
1.75433	-85
1.75800	-88
1.76167	-91
1.76533	-90
1.76900	-91
1.77267	-91
1.77633	-91
1.78000	-89
1.78367	-86
1.78733	-84
1.79100	-86
1.79467	-92
1.79833	-96
1.80200	-97
1.80567	-94
1.80933	-91
1.81300	-92
1.81667	-99
1.82033	-105
1.82400	-104
1.82767	-98
1.83133	-92
1.83500	-87
1.83867	-85
1.84233	-84
1.84600	-85
1.84967	-87
1.85333	-89
1.85700	-94
1.86067	-103
1.86433	-111
1.86800	-116
1.87167	-118
1.87533	-114
1.87900	-107
1.88267	-99
1.88633	-94
1.89000	-93
1.89367	-92
1.89733	-89
1.90100	-85
1.90467	-85
1.90833	-91
1.91200	-100
1.91567	-107
1.91933	-111
1.92300	-113
1.92667	-111
1.93033	-106
1.93400	-101
1.93767	-96
1.94133	-93
1.94500	-92
1.94867	-91
1.95233	-73
1.95600	65
1.95967	896
1.96333	4811
1.96700	18841
1.97067	57277
1.97433	138777
1.97800	273695
1.98167	451314
1.98533	642418
1.98900	813742
1.99267	939017
1.99633	1001557
2.00000	994482
2.00367	922461
2.00733	801715
2.01100	655944
2.01467	509149
2.01833	378788
2.02200	273189
2.02567	193205
2.02933	135438
2.03300	95031
2.03667	67330
2.04033	48540
2.04400	35823
2.04767	27175
2.05133	21230
2.05500	17075
2.05867	14114
2.06233	11957
2.06600	10343
2.06967	9100
2.07333	8115
2.07700	7317
2.08067	6659
2.08433	6108
2.08800	5635
2.09167	5228
2.09533	4875
2.09900	4566
2.10267	4294
2.10633	4052
2.11000	3836
2.11367	3642
2.11733	3464
2.12100	3303
2.12467	3151
2.12833	3006
2.13200	2866
2.13567	2730
2.13933	2601
2.14300	2479
2.14667	2368
2.15033	2273
2.15400	2191
2.15767	2114
2.16133	2039
2.16500	1970
2.16867	1909
2.17233	1853
2.17600	1798
2.17967	1743
2.18333	1688
2.18700	1639
2.19067	1596
2.19433	1556
2.19800	1516
2.20167	1475
2.20533	1435
2.20900	1398
2.21267	1362
2.21633	1328
2.22000	1295
2.22367	1265
2.22733	1238
2.23100	1209
2.23467	1177
2.23833	1148
2.24200	1120
2.24567	1092
2.24933	1065
2.25300	1041
2.25667	1019
2.26033	1001
2.26400	981
2.26767	957
2.27133	935
2.27500	914
2.27867	893
2.28233	875
2.28600	861
2.28967	850
2.29333	838
2.29700	827
2.30067	814
2.30433	799
2.30800	784
2.31167	770
2.31533	755
2.31900	741
2.32267	729
2.32633	721
2.33000	716
2.33367	709
2.33733	697
2.34100	679
2.34467	661
2.34833	647
2.35200	635
2.35567	627
2.35933	620
2.36300	611
2.36667	603
2.37033	595
2.37400	587
2.37767	579
2.38133	571
2.38500	562
2.38867	555
2.39233	551
2.39600	552
2.39967	559
2.40333	561
2.40700	554
2.41067	540
2.41433	525
2.41800	512
2.42167	504
2.42533	498
2.42900	492
2.43267	484
2.43633	477
2.44000	470
2.44367	463
2.44733	456
2.45100	451
2.45467	451
2.45833	454
2.46200	457
2.46567	455
2.46933	449
2.47300	442
2.47667	432
2.48033	422
2.48400	416
2.48767	411
2.49133	410
2.49500	408
2.49867	408
2.50233	409
2.50600	410
2.50967	410
2.51333	409
2.51700	407
2.52067	405
2.52433	401
2.52800	392
2.53167	384
2.53533	379
2.53900	377
2.54267	371
2.54633	366
2.55000	361
2.55367	357
2.55733	355
2.56100	357
2.56467	359
2.56833	358
2.57200	354
2.57567	350
2.57933	347
2.58300	345
2.58667	342
2.59033	338
2.59400	334
2.59767	329
2.60133	325
2.60500	320
2.60867	316
2.61233	315
2.61600	318
2.61967	322
2.62333	328
2.62700	335
2.63067	338
2.63433	339
2.63800	338
2.64167	335
2.64533	334
2.64900	336
2.65267	340
2.65633	341
2.66000	341
2.66367	337
2.66733	334
2.67100	332
2.67467	332
2.67833	332
2.68200	330
2.68567	324
2.68933	318
2.69300	316
2.69667	316
2.70033	318
2.70400	317
2.70767	313
2.71133	305
2.71500	298
2.71867	294
2.72233	295
2.72600	298
2.72967	302
2.73333	303
2.73700	301
2.74067	298
2.74433	297
2.74800	296
2.75167	298
2.75533	310
2.75900	333
2.76267	351
2.76633	361
2.77000	364
2.77367	365
2.77733	367
2.78100	369
2.78467	369
2.78833	369
2.79200	373
2.79567	378
2.79933	383
2.80300	387
2.80667	384
2.81033	377
2.81400	368
2.81767	359
2.82133	352
2.82500	345
2.82867	339
2.83233	340
2.83600	347
2.83967	356
2.84333	365
2.84700	378
2.85067	384
2.85433	384
2.85800	379
2.86167	370
2.86533	362
2.86900	359
2.87267	360
2.87633	362
2.88000	361
2.88367	354
2.88733	347
2.89100	345
2.89467	345
2.89833	344
2.90200	342
2.90567	340
2.90933	342
2.91300	345
2.91667	350
2.92033	356
2.92400	360
2.92767	365
2.93133	366
2.93500	364
2.93867	360
2.94233	360
2.94600	363
2.94967	368
2.95333	372
2.95700	377
2.96067	382
2.96433	383
2.96800	381
2.97167	377
2.97533	373
2.97900	371
2.98267	371
2.98633	377
2.99000	383
2.99367	385
2.99733	384
3.00100	381
3.00467	380
3.00833	381
3.01200	382
3.01567	377
3.01933	368
3.02300	361
3.02667	357
3.03033	359
3.03400	362
3.03767	362
3.04133	359
3.04500	358
3.04867	359
3.05233	364
3.05600	371
3.05967	375
3.06333	375
3.06700	371
3.07067	365
3.07433	359
3.07800	356
3.08167	355
3.08533	354
3.08900	355
3.09267	356
3.09633	357
3.10000	358
3.10367	358
3.10733	360
3.11100	364
3.11467	368
3.11833	372
3.12200	375
3.12567	374
3.12933	372
3.13300	370
3.13667	367
3.14033	364
3.14400	363
3.14767	365
3.15133	366
3.15500	364
3.15867	360
3.16233	359
3.16600	363
3.16967	369
3.17333	376
3.17700	382
3.18067	387
3.18433	387
3.18800	381
3.19167	372
3.19533	363
3.19900	354
3.20267	348
3.20633	342
3.21000	335
3.21367	328
3.21733	325
3.22100	327
3.22467	333
3.22833	341
3.23200	351
3.23567	360
3.23933	365
3.24300	363
3.24667	360
3.25033	358
3.25400	355
3.25767	355
3.26133	356
3.26500	352
3.26867	344
3.27233	334
3.27600	328
3.27967	326
3.28333	324
3.28700	327
3.29067	331
3.29433	335
3.29800	336
3.30167	335
3.30533	333
3.30900	334
3.31267	339
3.31633	344
3.32000	346
3.32367	345
3.32733	342
3.33100	342
3.33467	342
3.33833	342
3.34200	342
3.34567	341
3.34933	335
3.35300	326
3.35667	318
3.36033	315
3.36400	320
3.36767	332
3.37133	347
3.37500	358
3.37867	362
3.38233	359
3.38600	352
3.38967	342
3.39333	332
3.39700	326
3.40067	321
3.40433	321
3.40800	321
3.41167	321
3.41533	319
3.41900	320
3.42267	323
3.42633	324
3.43000	324
3.43367	324
3.43733	326
3.44100	328
3.44467	335
3.44833	345
3.45200	353
3.45567	357
3.45933	357
3.46300	351
3.46667	342
3.47033	336
3.47400	333
3.47767	334
3.48133	335
3.48500	334
3.48867	332
3.49233	327
3.49600	324
3.49967	317
3.50333	309
3.50700	305
3.51067	301
3.51433	297
3.51800	295
3.52167	295
3.52533	296
3.52900	298
3.53267	300
3.53633	303
3.54000	309
3.54367	314
3.54733	314
3.55100	309
3.55467	303
3.55833	298
3.56200	297
3.56567	298
3.56933	301
3.57300	306
3.57667	313
3.58033	317
3.58400	318
3.58767	320
3.59133	320
3.59500	320
3.59867	317
3.60233	310
3.60600	305
3.60967	302
3.61333	298
3.61700	292
3.62067	282
3.62433	268
3.62800	257
3.63167	248
3.63533	242
3.63900	239
3.64267	240
3.64633	245
3.65000	253
3.65367	263
3.65733	272
3.66100	279
3.66467	280
3.66833	278
3.67200	275
3.67567	272
3.67933	270
3.68300	267
3.68667	267
3.69033	270
3.69400	275
3.69767	281
3.70133	286
3.70500	292
3.70867	297
3.71233	301
3.71600	300
3.71967	295
3.72333	290
3.72700	286
3.73067	282
3.73433	279
3.73800	274
3.74167	267
3.74533	262
3.74900	261
3.75267	263
3.75633	266
3.76000	270
3.76367	275
3.76733	279
3.77100	278
3.77467	277
3.77833	277
3.78200	272
3.78567	265
3.78933	258
3.79300	256
3.79667	256
3.80033	255
3.80400	252
3.80767	250
3.81133	249
3.81500	250
3.81867	253
3.82233	252
3.82600	249
3.82967	250
3.83333	254
3.83700	258
3.84067	259
3.84433	256
3.84800	249
3.85167	243
3.85533	240
3.85900	240
3.86267	247
3.86633	254
3.87000	256
3.87367	252
3.87733	246
3.88100	240
3.88467	234
3.88833	229
3.89200	226
3.89567	225
3.89933	226
3.90300	231
3.90667	239
3.91033	244
3.91400	246
3.91767	248
3.92133	250
3.92500	249
3.92867	245
3.93233	239
3.93600	234
3.93967	230
3.94333	233
3.94700	238
3.95067	243
3.95433	245
3.95800	244
3.96167	237
3.96533	228
3.96900	220
3.97267	216
3.97633	217
3.98000	220
3.98367	220
3.98733	218
3.99100	214
3.99467	213
3.99833	213

[Chromatogram (Ch2)]
Interval(msec)	220
# of Points	1091
Start Time(min)	0.002
End Time(min)	3.998
R.Time (min)	Intensity
0.00167	0
0.00533	0
0.00900	0
0.01267	1
0.01633	1
0.02000	0
0.02367	0
0.02733	0
0.03100	0
0.03467	-0
0.03833	-1
0.04200	-1
0.04567	-2
0.04933	-2
0.05300	-2
0.05667	-2
0.06033	-2
0.06400	-2
0.06767	-2
0.07133	-2
0.07500	-1
0.07867	-1
0.08233	-1
0.08600	-0
0.08967	-0
0.09333	-0
0.09700	-1
0.10067	-1
0.10433	-1
0.10800	-1
0.11167	-0
0.11533	0
0.11900	0
0.12267	1
0.12633	1
0.13000	1
0.13367	1
0.13733	1
0.14100	1
0.14467	1
0.14833	1
0.15200	0
0.15567	0
0.15933	-0
0.16300	-0
0.16667	-1
0.17033	-1
0.17400	-2
0.17767	-2
0.18133	-2
0.18500	-3
0.18867	-3
0.19233	-3
0.19600	-2
0.19967	-2
0.20333	-2
0.20700	-2
0.21067	-2
0.21433	-2
0.21800	-2
0.22167	-2
0.22533	-2
0.22900	-2
0.23267	-2
0.23633	-2
0.24000	-1
0.24367	-1
0.24733	-1
0.25100	-0
0.25467	-0
0.25833	0
0.26200	0
0.26567	1
0.26933	1
0.27300	1
0.27667	1
0.28033	1
0.28400	1
0.28767	1
0.29133	1
0.29500	1
0.29867	1
0.30233	1
0.30600	1
0.30967	0
0.31333	0
0.31700	-0
0.32067	-1
0.32433	-1
0.32800	-1
0.33167	-1
0.33533	-1
0.33900	-1
0.34267	-2
0.34633	-2
0.35000	-2
0.35367	-2
0.35733	-2
0.36100	-2
0.36467	-2
0.36833	-1
0.37200	-1
0.37567	-1
0.37933	-1
0.38300	-0
0.38667	-0
0.39033	-0
0.39400	-0
0.39767	-0
0.40133	-0
0.40500	-0
0.40867	-0
0.41233	-0
0.41600	-1
0.41967	-1
0.42333	-1
0.42700	-2
0.43067	-2
0.43433	-2
0.43800	-2
0.44167	-2
0.44533	-2
0.44900	-2
0.45267	-2
0.45633	-2
0.46000	-2
0.46367	-2
0.46733	-2
0.47100	-2
0.47467	-2
0.47833	-2
0.48200	-3
0.48567	-3
0.48933	-3
0.49300	-2
0.49667	-2
0.50033	-2
0.50400	-1
0.50767	-1
0.51133	-0
0.51500	-0
0.51867	1
0.52233	1
0.52600	1
0.52967	2
0.53333	2
0.53700	3
0.54067	3
0.54433	4
0.54800	4
0.55167	4
0.55533	4
0.55900	3
0.56267	3
0.56633	3
0.57000	3
0.57367	2
0.57733	2
0.58100	2
0.58467	2
0.58833	2
0.59200	1
0.59567	1
0.59933	1
0.60300	0
0.60667	0
0.61033	-0
0.61400	-1
0.61767	-1
0.62133	-1
0.62500	-1
0.62867	-2
0.63233	-2
0.63600	-2
0.63967	-2
0.64333	-3
0.64700	-3
0.65067	-3
0.65433	-3
0.65800	-3
0.66167	-3
0.66533	-3
0.66900	-3
0.67267	-4
0.67633	-4
0.68000	-4
0.68367	-4
0.68733	-3
0.69100	-3
0.69467	-2
0.69833	-2
0.70200	-2
0.70567	-2
0.70933	-1
0.71300	-1
0.71667	-1
0.72033	-1
0.72400	-1
0.72767	-1
0.73133	-1
0.73500	-1
0.73867	-1
0.74233	-2
0.74600	-2
0.74967	-3
0.75333	-3
0.75700	-3
0.76067	-3
0.76433	-3
0.76800	-3
0.77167	-3
0.77533	-3
0.77900	-3
0.78267	-3
0.78633	-3
0.79000	-3
0.79367	-3
0.79733	-3
0.80100	-3
0.80467	-3
0.80833	-3
0.81200	-3
0.81567	-3
0.81933	-2
0.82300	-2
0.82667	-2
0.83033	-2
0.83400	-2
0.83767	-3
0.84133	-3
0.84500	-3
0.84867	-2
0.85233	-2
0.85600	-2
0.85967	-1
0.86333	-1
0.86700	-1
0.87067	-1
0.87433	-1
0.87800	-1
0.88167	-1
0.88533	-1
0.88900	-1
0.89267	-1
0.89633	-1
0.90000	-1
0.90367	-1
0.90733	-0
0.91100	-0
0.91467	0
0.91833	0
0.92200	0
0.92567	1
0.92933	1
0.93300	1
0.93667	1
0.94033	1
0.94400	1
0.94767	1
0.95133	1
0.95500	1
0.95867	1
0.96233	1
0.96600	1
0.96967	1
0.97333	1
0.97700	1
0.98067	1
0.98433	0
0.98800	-0
0.99167	-1
0.99533	-1
0.99900	-1
1.00267	-1
1.00633	-1
1.01000	-1
1.01367	-1
1.01733	-0
1.02100	-0
1.02467	-0
1.02833	-1
1.03200	-1
1.03567	-1
1.03933	-1
1.04300	-2
1.04667	-2
1.05033	-2
1.05400	-2
1.05767	-2
1.06133	-2
1.06500	-2
1.06867	-2
1.07233	-2
1.07600	-2
1.07967	-2
1.08333	-3
1.08700	-3
1.09067	-3
1.09433	-3
1.09800	-3
1.10167	-3
1.10533	-3
1.10900	-2
1.11267	-3
1.11633	-3
1.12000	-3
1.12367	-3
1.12733	-3
1.13100	-3
1.13467	-2
1.13833	-2
1.14200	-3
1.14567	-3
1.14933	-3
1.15300	-3
1.15667	-3
1.16033	-2
1.16400	-2
1.16767	-2
1.17133	-2
1.17500	-2
1.17867	-1
1.18233	-1
1.18600	-1
1.18967	-1
1.19333	-1
1.19700	-1
1.20067	-0
1.20433	-0
1.20800	-0
1.21167	-0
1.21533	-1
1.21900	-1
1.22267	-1
1.22633	-1
1.23000	-1
1.23367	-1
1.23733	-2
1.24100	-2
1.24467	-2
1.24833	-3
1.25200	-3
1.25567	-3
1.25933	-4
1.26300	-4
1.26667	-4
1.27033	-4
1.27400	-4
1.27767	-4
1.28133	-4
1.28500	-3
1.28867	-3
1.29233	-3
1.29600	-3
1.29967	-3
1.30333	-3
1.30700	-3
1.31067	-3
1.31433	-3
1.31800	-3
1.32167	-3
1.32533	-3
1.32900	-4
1.33267	-4
1.33633	-4
1.34000	-4
1.34367	-4
1.34733	-4
1.35100	-4
1.35467	-4
1.35833	-4
1.36200	-4
1.36567	-3
1.36933	-3
1.37300	-3
1.37667	-4
1.38033	-4
1.38400	-4
1.38767	-3
1.39133	-3
1.39500	-3
1.39867	-3
1.40233	-3
1.40600	-3
1.40967	-3
1.41333	-3
1.41700	-3
1.42067	-3
1.42433	-3
1.42800	-2
1.43167	-2
1.43533	-2
1.43900	-2
1.44267	-2
1.44633	-2
1.45000	-2
1.45367	-2
1.45733	-2
1.46100	-2
1.46467	-2
1.46833	-2
1.47200	-2
1.47567	-2
1.47933	-2
1.48300	-2
1.48667	-2
1.49033	-2
1.49400	-3
1.49767	-3
1.50133	-3
1.50500	-3
1.50867	-3
1.51233	-2
1.51600	-2
1.51967	-2
1.52333	-2
1.52700	-2
1.53067	-1
1.53433	-1
1.53800	-0
1.54167	0
1.54533	1
1.54900	1
1.55267	2
1.55633	2
1.56000	1
1.56367	1
1.56733	0
1.57100	-0
1.57467	-1
1.57833	-2
1.58200	-2
1.58567	-2
1.58933	-3
1.59300	-3
1.59667	-4
1.60033	-4
1.60400	-5
1.60767	-6
1.61133	-8
1.61500	-10
1.61867	-12
1.62233	-14
1.62600	-17
1.62967	-21
1.63333	-24
1.63700	-28
1.64067	-32
1.64433	-36
1.64800	-41
1.65167	-45
1.65533	-49
1.65900	-53
1.66267	-57
1.66633	-61
1.67000	-66
1.67367	-70
1.67733	-75
1.68100	-80
1.68467	-84
1.68833	-89
1.69200	-93
1.69567	-96
1.69933	-99
1.70300	-102
1.70667	-104
1.71033	-105
1.71400	-106
1.71767	-107
1.72133	-108
1.72500	-109
1.72867	-110
1.73233	-111
1.73600	-112
1.73967	-112
1.74333	-112
1.74700	-113
1.75067	-113
1.75433	-114
1.75800	-114
1.76167	-115
1.76533	-115
1.76900	-116
1.77267	-116
1.77633	-117
1.78000	-117
1.78367	-116
1.78733	-116
1.79100	-115
1.79467	-115
1.79833	-115
1.80200	-115
1.80567	-115
1.80933	-115
1.81300	-116
1.81667	-116
1.82033	-116
1.82400	-117
1.82767	-117
1.83133	-117
1.83500	-117
1.83867	-117
1.84233	-117
1.84600	-118
1.84967	-118
1.85333	-118
1.85700	-118
1.86067	-118
1.86433	-118
1.86800	-118
1.87167	-118
1.87533	-118
1.87900	-118
1.88267	-118
1.88633	-118
1.89000	-118
1.89367	-118
1.89733	-118
1.90100	-118
1.90467	-118
1.90833	-117
1.91200	-117
1.91567	-117
1.91933	-116
1.92300	-116
1.92667	-116
1.93033	-116
1.93400	-116
1.93767	-116
1.94133	-116
1.94500	-116
1.94867	-116
1.95233	-116
1.95600	-116
1.95967	-116
1.96333	-116
1.96700	-116
1.97067	-115
1.97433	-115
1.97800	-114
1.98167	-113
1.98533	-113
1.98900	-113
1.99267	-113
1.99633	-113
2.00000	-112
2.00367	-111
2.00733	-111
2.01100	-110
2.01467	-110
2.01833	-110
2.02200	-110
2.02567	-110
2.02933	-110
2.03300	-109
2.03667	-109
2.04033	-108
2.04400	-108
2.04767	-107
2.05133	-106
2.05500	-106
2.05867	-105
2.06233	-105
2.06600	-105
2.06967	-104
2.07333	-104
2.07700	-104
2.08067	-104
2.08433	-105
2.08800	-105
2.09167	-106
2.09533	-106
2.09900	-105
2.10267	-105
2.10633	-104
2.11000	-102
2.11367	-101
2.11733	-100
2.12100	-100
2.12467	-99
2.12833	-99
2.13200	-99
2.13567	-100
2.13933	-100
2.14300	-100
2.14667	-100
2.15033	-100
2.15400	-100
2.15767	-100
2.16133	-100
2.16500	-99
2.16867	-99
2.17233	-99
2.17600	-98
2.17967	-98
2.18333	-97
2.18700	-97
2.19067	-96
2.19433	-96
2.19800	-96
2.20167	-96
2.20533	-96
2.20900	-96
2.21267	-96
2.21633	-95
2.22000	-94
2.22367	-93
2.22733	-92
2.23100	-92
2.23467	-93
2.23833	-94
2.24200	-96
2.24567	-97
2.24933	-98
2.25300	-98
2.25667	-97
2.26033	-96
2.26400	-94
2.26767	-93
2.27133	-91
2.27500	-90
2.27867	-89
2.28233	-89
2.28600	-88
2.28967	-88
2.29333	-88
2.29700	-88
2.30067	-88
2.30433	-88
2.30800	-88
2.31167	-87
2.31533	-87
2.31900	-87
2.32267	-87
2.32633	-86
2.33000	-86
2.33367	-85
2.33733	-84
2.34100	-83
2.34467	-82
2.34833	-81
2.35200	-80
2.35567	-80
2.35933	-79
2.36300	-78
2.36667	-76
2.37033	-75
2.37400	-72
2.37767	-70
2.38133	-67
2.38500	-63
2.38867	-59
2.39233	-55
2.39600	-51
2.39967	-47
2.40333	-43
2.40700	-39
2.41067	-35
2.41433	-31
2.41800	-28
2.42167	-26
2.42533	-23
2.42900	-21
2.43267	-19
2.43633	-17
2.44000	-15
2.44367	-14
2.44733	-12
2.45100	-10
2.45467	-8
2.45833	-6
2.46200	-3
2.46567	-2
2.46933	0
2.47300	2
2.47667	3
2.48033	4
2.48400	5
2.48767	5
2.49133	5
2.49500	6
2.49867	6
2.50233	7
2.50600	7
2.50967	8
2.51333	9
2.51700	10
2.52067	10
2.52433	10
2.52800	10
2.53167	10
2.53533	11
2.53900	11
2.54267	12
2.54633	12
2.55000	12
2.55367	12
2.55733	12
2.56100	12
2.56467	12
2.56833	12
2.57200	12
2.57567	13
2.57933	13
2.58300	14
2.58667	14
2.59033	14
2.59400	14
2.59767	14
2.60133	14
2.60500	14
2.60867	15
2.61233	15
2.61600	15
2.61967	16
2.62333	17
2.62700	17
2.63067	18
2.63433	18
2.63800	19
2.64167	19
2.64533	19
2.64900	19
2.65267	20
2.65633	20
2.66000	20
2.66367	20
2.66733	19
2.67100	19
2.67467	19
2.67833	19
2.68200	19
2.68567	19
2.68933	19
2.69300	19
2.69667	19
2.70033	19
2.70400	19
2.70767	20
2.71133	20
2.71500	20
2.71867	21
2.72233	21
2.72600	22
2.72967	23
2.73333	23
2.73700	24
2.74067	24
2.74433	24
2.74800	24
2.75167	24
2.75533	24
2.75900	24
2.76267	23
2.76633	23
2.77000	23
2.77367	23
2.77733	23
2.78100	23
2.78467	23
2.78833	23
2.79200	22
2.79567	22
2.79933	22
2.80300	23
2.80667	23
2.81033	23
2.81400	24
2.81767	25
2.82133	25
2.82500	25
2.82867	25
2.83233	25
2.83600	24
2.83967	22
2.84333	18
2.84700	12
2.85067	3
2.85433	-9
2.85800	-26
2.86167	-47
2.86533	-74
2.86900	-105
2.87267	-143
2.87633	-185
2.88000	-233
2.88367	-285
2.88733	-343
2.89100	-404
2.89467	-470
2.89833	-540
2.90200	-613
2.90567	-689
2.90933	-768
2.91300	-850
2.91667	-934
2.92033	-1020
2.92400	-1108
2.92767	-1198
2.93133	-1289
2.93500	-1381
2.93867	-1465
2.94233	-1529
2.94600	-1561
2.94967	-1557
2.95333	-1518
2.95700	-1449
2.96067	-1359
2.96433	-1254
2.96800	-1142
2.97167	-1029
2.97533	-919
2.97900	-814
2.98267	-716
2.98633	-626
2.99000	-545
2.99367	-472
2.99733	-408
3.00100	-351
3.00467	-302
3.00833	-258
3.01200	-221
3.01567	-189
3.01933	-161
3.02300	-137
3.02667	-116
3.03033	-98
3.03400	-83
3.03767	-69
3.04133	-58
3.04500	-49
3.04867	-41
3.05233	-34
3.05600	-28
3.05967	-23
3.06333	-18
3.06700	-14
3.07067	-11
3.07433	-8
3.07800	-6
3.08167	-3
3.08533	-2
3.08900	-0
3.09267	1
3.09633	2
3.10000	3
3.10367	4
3.10733	5
3.11100	5
3.11467	6
3.11833	7
3.12200	7
3.12567	8
3.12933	9
3.13300	9
3.13667	10
3.14033	11
3.14400	11
3.14767	12
3.15133	12
3.15500	13
3.15867	13
3.16233	14
3.16600	14
3.16967	15
3.17333	15
3.17700	16
3.18067	16
3.18433	16
3.18800	16
3.19167	16
3.19533	16
3.19900	16
3.20267	16
3.20633	16
3.21000	16
3.21367	16
3.21733	16
3.22100	16
3.22467	16
3.22833	16
3.23200	16
3.23567	16
3.23933	16
3.24300	16
3.24667	16
3.25033	16
3.25400	16
3.25767	16
3.26133	16
3.26500	17
3.26867	17
3.27233	18
3.27600	18
3.27967	19
3.28333	20
3.28700	20
3.29067	21
3.29433	21
3.29800	22
3.30167	22
3.30533	22
3.30900	23
3.31267	23
3.31633	24
3.32000	24
3.32367	24
3.32733	24
3.33100	25
3.33467	25
3.33833	25
3.34200	25
3.34567	25
3.34933	25
3.35300	25
3.35667	25
3.36033	25
3.36400	25
3.36767	25
3.37133	25
3.37500	25
3.37867	25
3.38233	25
3.38600	25
3.38967	25
3.39333	25
3.39700	25
3.40067	25
3.40433	24
3.40800	24
3.41167	24
3.41533	24
3.41900	24
3.42267	24
3.42633	24
3.43000	24
3.43367	24
3.43733	23
3.44100	23
3.44467	23
3.44833	23
3.45200	23
3.45567	23
3.45933	23
3.46300	23
3.46667	23
3.47033	23
3.47400	23
3.47767	23
3.48133	23
3.48500	23
3.48867	23
3.49233	23
3.49600	23
3.49967	23
3.50333	23
3.50700	23
3.51067	23
3.51433	23
3.51800	22
3.52167	22
3.52533	23
3.52900	23
3.53267	23
3.53633	23
3.54000	23
3.54367	23
3.54733	23
3.55100	23
3.55467	23
3.55833	24
3.56200	24
3.56567	24
3.56933	24
3.57300	24
3.57667	24
3.58033	24
3.58400	24
3.58767	24
3.59133	24
3.59500	24
3.59867	24
3.60233	24
3.60600	24
3.60967	23
3.61333	23
3.61700	23
3.62067	23
3.62433	23
3.62800	23
3.63167	23
3.63533	23
3.63900	23
3.64267	23
3.64633	24
3.65000	24
3.65367	24
3.65733	24
3.66100	24
3.66467	24
3.66833	24
3.67200	24
3.67567	24
3.67933	24
3.68300	24
3.68667	24
3.69033	24
3.69400	24
3.69767	24
3.70133	24
3.70500	24
3.70867	24
3.71233	24
3.71600	24
3.71967	23
3.72333	23
3.72700	23
3.73067	23
3.73433	23
3.73800	23
3.74167	23
3.74533	24
3.74900	24
3.75267	24
3.75633	24
3.76000	24
3.76367	24
3.76733	24
3.77100	23
3.77467	23
3.77833	23
3.78200	23
3.78567	23
3.78933	23
3.79300	23
3.79667	23
3.80033	22
3.80400	22
3.80767	22
3.81133	22
3.81500	23
3.81867	23
3.82233	23
3.82600	23
3.82967	23
3.83333	23
3.83700	23
3.84067	23
3.84433	23
3.84800	22
3.85167	22
3.85533	22
3.85900	23
3.86267	23
3.86633	23
3.87000	23
3.87367	24
3.87733	24
3.88100	24
3.88467	24
3.88833	25
3.89200	25
3.89567	25
3.89933	25
3.90300	25
3.90667	25
3.91033	25
3.91400	25
3.91767	25
3.92133	25
3.92500	26
3.92867	26
3.93233	26
3.93600	26
3.93967	26
3.94333	26
3.94700	26
3.95067	27
3.95433	27
3.95800	27
3.96167	27
3.96533	27
3.96900	27
3.97267	27
3.97633	26
3.98000	26
3.98367	26
3.98733	25
3.99100	25
3.99467	25
3.99833	25

[Chromatogram (Ch3)]
Interval(msec)	220
# of Points	1091
Start Time(min)	0.002
End Time(min)	3.998
R.Time (min)	Intensity
0.00167	-1
0.00533	-2
0.00900	-2
0.01267	-2
0.01633	-1
0.02000	-1
0.02367	1
0.02733	3
0.03100	2
0.03467	0
0.03833	-0
0.04200	-1
0.04567	-1
0.04933	-1
0.05300	-2
0.05667	-3
0.06033	-6
0.06400	-5
0.06767	-3
0.07133	-0
0.07500	-0
0.07867	-1
0.08233	-2
0.08600	-2
0.08967	-1
0.09333	3
0.09700	5
0.10067	4
0.10433	3
0.10800	2
0.11167	1
0.11533	-1
0.11900	-2
0.12267	-2
0.12633	-2
0.13000	-2
0.13367	0
0.13733	2
0.14100	2
0.14467	2
0.14833	1
0.15200	-1
0.15567	-2
0.15933	-1
0.16300	1
0.16667	3
0.17033	2
0.17400	1
0.17767	2
0.18133	2
0.18500	1
0.18867	-1
0.19233	-2
0.19600	-2
0.19967	-2
0.20333	-1
0.20700	3
0.21067	4
0.21433	2
0.21800	-0
0.22167	-1
0.22533	-2
0.22900	-1
0.23267	0
0.23633	3
0.24000	4
0.24367	6
0.24733	7
0.25100	7
0.25467	7
0.25833	7
0.26200	6
0.26567	6
0.26933	7
0.27300	7
0.27667	6
0.28033	6
0.28400	5
0.28767	4
0.29133	4
0.29500	2
0.29867	3
0.30233	5
0.30600	7
0.30967	6
0.31333	4
0.31700	3
0.32067	3
0.32433	4
0.32800	6
0.33167	7
0.33533	8
0.33900	7
0.34267	5
0.34633	6
0.35000	9
0.35367	11
0.35733	11
0.36100	10
0.36467	8
0.36833	4
0.37200	1
0.37567	1
0.37933	3
0.38300	4
0.38667	4
0.39033	4
0.39400	4
0.39767	6
0.40133	7
0.40500	7
0.40867	6
0.41233	7
0.41600	9
0.41967	9
0.42333	8
0.42700	6
0.43067	5
0.43433	5
0.43800	7
0.44167	8
0.44533	8
0.44900	9
0.45267	9
0.45633	6
0.46000	5
0.46367	4
0.46733	7
0.47100	9
0.47467	11
0.47833	12
0.48200	14
0.48567	15
0.48933	15
0.49300	13
0.49667	12
0.50033	9
0.50400	7
0.50767	8
0.51133	12
0.51500	15
0.51867	14
0.52233	13
0.52600	12
0.52967	11
0.53333	11
0.53700	11
0.54067	11
0.54433	10
0.54800	9
0.55167	8
0.55533	7
0.55900	8
0.56267	8
0.56633	6
0.57000	5
0.57367	6
0.57733	9
0.58100	10
0.58467	10
0.58833	11
0.59200	12
0.59567	12
0.59933	12
0.60300	9
0.60667	6
0.61033	6
0.61400	7
0.61767	7
0.62133	8
0.62500	10
0.62867	10
0.63233	10
0.63600	9
0.63967	8
0.64333	9
0.64700	8
0.65067	9
0.65433	8
0.65800	8
0.66167	8
0.66533	7
0.66900	10
0.67267	13
0.67633	13
0.68000	13
0.68367	13
0.68733	13
0.69100	12
0.69467	11
0.69833	10
0.70200	11
0.70567	11
0.70933	11
0.71300	9
0.71667	9
0.72033	9
0.72400	10
0.72767	10
0.73133	12
0.73500	15
0.73867	17
0.74233	16
0.74600	14
0.74967	11
0.75333	10
0.75700	9
0.76067	8
0.76433	8
0.76800	8
0.77167	11
0.77533	13
0.77900	14
0.78267	14
0.78633	16
0.79000	15
0.79367	17
0.79733	19
0.80100	21
0.80467	20
0.80833	18
0.81200	16
0.81567	12
0.81933	10
0.82300	9
0.82667	9
0.83033	9
0.83400	10
0.83767	12
0.84133	16
0.84500	18
0.84867	17
0.85233	16
0.85600	16
0.85967	15
0.86333	16
0.86700	16
0.87067	18
0.87433	20
0.87800	20
0.88167	21
0.88533	22
0.88900	22
0.89267	22
0.89633	24
0.90000	22
0.90367	20
0.90733	20
0.91100	22
0.91467	23
0.91833	25
0.92200	26
0.92567	24
0.92933	20
0.93300	19
0.93667	18
0.94033	16
0.94400	15
0.94767	15
0.95133	17
0.95500	18
0.95867	17
0.96233	16
0.96600	17
0.96967	19
0.97333	19
0.97700	17
0.98067	15
0.98433	14
0.98800	13
0.99167	12
0.99533	10
0.99900	10
1.00267	10
1.00633	11
1.01000	13
1.01367	15
1.01733	15
1.02100	14
1.02467	14
1.02833	13
1.03200	13
1.03567	13
1.03933	16
1.04300	18
1.04667	17
1.05033	16
1.05400	15
1.05767	16
1.06133	16
1.06500	14
1.06867	14
1.07233	15
1.07600	14
1.07967	11
1.08333	11
1.08700	12
1.09067	12
1.09433	12
1.09800	9
1.10167	7
1.10533	9
1.10900	11
1.11267	12
1.11633	14
1.12000	14
1.12367	13
1.12733	11
1.13100	9
1.13467	10
1.13833	14
1.14200	16
1.14567	14
1.14933	13
1.15300	13
1.15667	14
1.16033	16
1.16400	15
1.16767	15
1.17133	14
1.17500	16
1.17867	15
1.18233	14
1.18600	13
1.18967	12
1.19333	12
1.19700	13
1.20067	13
1.20433	13
1.20800	15
1.21167	18
1.21533	19
1.21900	18
1.22267	15
1.22633	12
1.23000	11
1.23367	11
1.23733	11
1.24100	12
1.24467	14
1.24833	15
1.25200	13
1.25567	13
1.25933	14
1.26300	14
1.26667	13
1.27033	13
1.27400	12
1.27767	12
1.28133	12
1.28500	13
1.28867	12
1.29233	13
1.29600	14
1.29967	13
1.30333	12
1.30700	13
1.31067	12
1.31433	12
1.31800	11
1.32167	10
1.32533	9
1.32900	9
1.33267	10
1.33633	11
1.34000	12
1.34367	11
1.34733	11
1.35100	14
1.35467	16
1.35833	15
1.36200	15
1.36567	14
1.36933	13
1.37300	15
1.37667	16
1.38033	15
1.38400	15
1.38767	16
1.39133	18
1.39500	19
1.39867	19
1.40233	17
1.40600	16
1.40967	17
1.41333	16
1.41700	15
1.42067	14
1.42433	12
1.42800	12
1.43167	15
1.43533	17
1.43900	17
1.44267	15
1.44633	14
1.45000	14
1.45367	15
1.45733	15
1.46100	14
1.46467	16
1.46833	21
1.47200	22
1.47567	22
1.47933	22
1.48300	19
1.48667	17
1.49033	18
1.49400	20
1.49767	19
1.50133	20
1.50500	21
1.50867	22
1.51233	25
1.51600	26
1.51967	25
1.52333	23
1.52700	21
1.53067	20
1.53433	20
1.53800	21
1.54167	24
1.54533	26
1.54900	28
1.55267	30
1.55633	31
1.56000	29
1.56367	25
1.56733	21
1.57100	19
1.57467	19
1.57833	18
1.58200	18
1.58567	18
1.58933	20
1.59300	22
1.59667	24
1.60033	25
1.60400	24
1.60767	25
1.61133	26
1.61500	28
1.61867	28
1.62233	26
1.62600	25
1.62967	24
1.63333	25
1.63700	27
1.64067	27
1.64433	27
1.64800	26
1.65167	25
1.65533	26
1.65900	28
1.66267	29
1.66633	29
1.67000	31
1.67367	34
1.67733	36
1.68100	36
1.68467	35
1.68833	33
1.69200	30
1.69567	30
1.69933	31
1.70300	31
1.70667	31
1.71033	30
1.71400	30
1.71767	30
1.72133	31
1.72500	34
1.72867	34
1.73233	33
1.73600	32
1.73967	32
1.74333	33
1.74700	35
1.75067	37
1.75433	35
1.75800	32
1.76167	32
1.76533	32
1.76900	31
1.77267	32
1.77633	32
1.78000	33
1.78367	36
1.78733	38
1.79100	38
1.79467	40
1.79833	42
1.80200	43
1.80567	44
1.80933	41
1.81300	41
1.81667	42
1.82033	42
1.82400	42
1.82767	43
1.83133	43
1.83500	40
1.83867	40
1.84233	43
1.84600	45
1.84967	46
1.85333	47
1.85700	49
1.86067	48
1.86433	48
1.86800	46
1.87167	47
1.87533	51
1.87900	53
1.88267	53
1.88633	53
1.89000	53
1.89367	55
1.89733	55
1.90100	55
1.90467	54
1.90833	57
1.91200	58
1.91567	58
1.91933	59
1.92300	60
1.92667	60
1.93033	59
1.93400	59
1.93767	60
1.94133	62
1.94500	63
1.94867	62
1.95233	63
1.95600	64
1.95967	63
1.96333	62
1.96700	62
1.97067	63
1.97433	65
1.97800	67
1.98167	67
1.98533	65
1.98900	63
1.99267	61
1.99633	59
2.00000	61
2.00367	64
2.00733	66
2.01100	70
2.01467	72
2.01833	72
2.02200	70
2.02567	70
2.02933	70
2.03300	68
2.03667	67
2.04033	69
2.04400	71
2.04767	73
2.05133	72
2.05500	71
2.05867	73
2.06233	76
2.06600	77
2.06967	78
2.07333	78
2.07700	80
2.08067	80
2.08433	79
2.08800	78
2.09167	78
2.09533	78
2.09900	78
2.10267	77
2.10633	77
2.11000	79
2.11367	83
2.11733	86
2.12100	86
2.12467	85
2.12833	84
2.13200	84
2.13567	87
2.13933	89
2.14300	90
2.14667	91
2.15033	92
2.15400	94
2.15767	96
2.16133	97
2.16500	97
2.16867	97
2.17233	98
2.17600	99
2.17967	100
2.18333	100
2.18700	99
2.19067	100
2.19433	102
2.19800	105
2.20167	107
2.20533	109
2.20900	109
2.21267	107
2.21633	108
2.22000	108
2.22367	109
2.22733	113
2.23100	114
2.23467	115
2.23833	116
2.24200	114
2.24567	112
2.24933	113
2.25300	118
2.25667	120
2.26033	122
2.26400	125
2.26767	128
2.27133	130
2.27500	129
2.27867	128
2.28233	128
2.28600	128
2.28967	128
2.29333	129
2.29700	132
2.30067	134
2.30433	136
2.30800	136
2.31167	139
2.31533	141
2.31900	144
2.32267	146
2.32633	145
2.33000	145
2.33367	147
2.33733	150
2.34100	152
2.34467	154
2.34833	154
2.35200	155
2.35567	155
2.35933	155
2.36300	157
2.36667	159
2.37033	160
2.37400	160
2.37767	164
2.38133	165
2.38500	165
2.38867	166
2.39233	168
2.39600	169
2.39967	171
2.40333	173
2.40700	174
2.41067	177
2.41433	180
2.41800	183
2.42167	182
2.42533	179
2.42900	179
2.43267	183
2.43633	184
2.44000	187
2.44367	209
2.44733	265
2.45100	324
2.45467	371
2.45833	402
2.46200	412
2.46567	405
2.46933	391
2.47300	376
2.47667	365
2.48033	358
2.48400	352
2.48767	346
2.49133	336
2.49500	322
2.49867	308
2.50233	296
2.50600	288
2.50967	283
2.51333	280
2.51700	272
2.52067	268
2.52433	266
2.52800	266
2.53167	268
2.53533	270
2.53900	272
2.54267	277
2.54633	282
2.55000	286
2.55367	287
2.55733	284
2.56100	280
2.56467	275
2.56833	270
2.57200	267
2.57567	262
2.57933	257
2.58300	250
2.58667	246
2.59033	241
2.59400	237
2.59767	230
2.60133	217
2.60500	197
2.60867	172
2.61233	144
2.61600	117
2.61967	91
2.62333	68
2.62700	48
2.63067	31
2.63433	17
2.63800	8
2.64167	4
2.64533	5
2.64900	8
2.65267	15
2.65633	22
2.66000	30
2.66367	41
2.66733	52
2.67100	64
2.67467	75
2.67833	86
2.68200	94
2.68567	103
2.68933	114
2.69300	125
2.69667	135
2.70033	141
2.70400	146
2.70767	152
2.71133	158
2.71500	165
2.71867	171
2.72233	176
2.72600	179
2.72967	181
2.73333	184
2.73700	187
2.74067	188
2.74433	190
2.74800	193
2.75167	197
2.75533	201
2.75900	202
2.76267	205
2.76633	207
2.77000	208
2.77367	207
2.77733	205
2.78100	202
2.78467	200
2.78833	199
2.79200	201
2.79567	206
2.79933	210
2.80300	213
2.80667	215
2.81033	218
2.81400	230
2.81767	254
2.82133	310
2.82500	436
2.82867	685
2.83233	1126
2.83600	1820
2.83967	2812
2.84333	4112
2.84700	5683
2.85067	7447
2.85433	9289
2.85800	11072
2.86167	12654
2.86533	13918
2.86900	14788
2.87267	15224
2.87633	15234
2.88000	14871
2.88367	14217
2.88733	13355
2.89100	12364
2.89467	11312
2.89833	10245
2.90200	9204
2.90567	8220
2.90933	7303
2.91300	6461
2.91667	5695
2.92033	5007
2.92400	4397
2.92767	3858
2.93133	3382
2.93500	2966
2.93867	2601
2.94233	2282
2.94600	2001
2.94967	1758
2.95333	1551
2.95700	1370
2.96067	1212
2.96433	1074
2.96800	955
2.97167	852
2.97533	763
2.97900	686
2.98267	621
2.98633	564
2.99000	514
2.99367	471
2.99733	439
3.00100	411
3.00467	386
3.00833	364
3.01200	345
3.01567	327
3.01933	312
3.02300	301
3.02667	292
3.03033	282
3.03400	274
3.03767	267
3.04133	259
3.04500	251
3.04867	247
3.05233	244
3.05600	239
3.05967	235
3.06333	232
3.06700	230
3.07067	229
3.07433	227
3.07800	225
3.08167	224
3.08533	220
3.08900	215
3.09267	212
3.09633	210
3.10000	209
3.10367	210
3.10733	213
3.11100	213
3.11467	212
3.11833	209
3.12200	207
3.12567	206
3.12933	206
3.13300	204
3.13667	202
3.14033	202
3.14400	201
3.14767	200
3.15133	197
3.15500	197
3.15867	199
3.16233	201
3.16600	203
3.16967	202
3.17333	199
3.17700	196
3.18067	195
3.18433	195
3.18800	194
3.19167	193
3.19533	193
3.19900	195
3.20267	196
3.20633	195
3.21000	195
3.21367	197
3.21733	199
3.22100	199
3.22467	197
3.22833	194
3.23200	194
3.23567	195
3.23933	196
3.24300	196
3.24667	196
3.25033	193
3.25400	194
3.25767	197
3.26133	197
3.26500	196
3.26867	195
3.27233	194
3.27600	195
3.27967	196
3.28333	195
3.28700	193
3.29067	191
3.29433	191
3.29800	191
3.30167	190
3.30533	188
3.30900	189
3.31267	190
3.31633	193
3.32000	195
3.32367	197
3.32733	195
3.33100	192
3.33467	190
3.33833	188
3.34200	189
3.34567	190
3.34933	190
3.35300	190
3.35667	191
3.36033	189
3.36400	189
3.36767	190
3.37133	191
3.37500	191
3.37867	189
3.38233	189
3.38600	189
3.38967	187
3.39333	184
3.39700	183
3.40067	183
3.40433	184
3.40800	187
3.41167	189
3.41533	191
3.41900	191
3.42267	189
3.42633	187
3.43000	187
3.43367	187
3.43733	188
3.44100	189
3.44467	190
3.44833	190
3.45200	190
3.45567	188
3.45933	188
3.46300	189
3.46667	191
3.47033	191
3.47400	190
3.47767	187
3.48133	186
3.48500	185
3.48867	185
3.49233	184
3.49600	182
3.49967	181
3.50333	182
3.50700	183
3.51067	182
3.51433	180
3.51800	179
3.52167	178
3.52533	177
3.52900	176
3.53267	174
3.53633	177
3.54000	179
3.54367	178
3.54733	177
3.55100	177
3.55467	177
3.55833	179
3.56200	180
3.56567	179
3.56933	179
3.57300	179
3.57667	178
3.58033	177
3.58400	175
3.58767	172
3.59133	172
3.59500	173
3.59867	174
3.60233	176
3.60600	176
3.60967	174
3.61333	173
3.61700	173
3.62067	173
3.62433	171
3.62800	168
3.63167	166
3.63533	164
3.63900	165
3.64267	164
3.64633	167
3.65000	172
3.65367	175
3.65733	173
3.66100	173
3.66467	173
3.66833	175
3.67200	177
3.67567	179
3.67933	178
3.68300	177
3.68667	174
3.69033	171
3.69400	170
3.69767	171
3.70133	173
3.70500	175
3.70867	176
3.71233	176
3.71600	175
3.71967	175
3.72333	175
3.72700	175
3.73067	174
3.73433	173
3.73800	175
3.74167	177
3.74533	176
3.74900	173
3.75267	171
3.75633	171
3.76000	172
3.76367	173
3.76733	173
3.77100	173
3.77467	173
3.77833	173
3.78200	172
3.78567	167
3.78933	162
3.79300	154
3.79667	143
3.80033	139
3.80400	137
3.80767	138
3.81133	141
3.81500	149
3.81867	158
3.82233	167
3.82600	178
3.82967	187
3.83333	197
3.83700	208
3.84067	216
3.84433	223
3.84800	232
3.85167	243
3.85533	253
3.85900	261
3.86267	268
3.86633	274
3.87000	282
3.87367	290
3.87733	299
3.88100	309
3.88467	318
3.88833	326
3.89200	332
3.89567	340
3.89933	349
3.90300	357
3.90667	366
3.91033	375
3.91400	380
3.91767	387
3.92133	396
3.92500	400
3.92867	401
3.93233	404
3.93600	405
3.93967	406
3.94333	409
3.94700	412
3.95067	413
3.95433	414
3.95800	414
3.96167	415
3.96533	417
3.96900	418
3.97267	418
3.97633	419
3.98000	419
3.98367	417
3.98733	417
3.99100	415
3.99467	414
3.99833	410

[Status Trace (Column Oven Temperature)]
Interval(msec)	1000
# of Points	240
Start Time(min)	0.012
End Time(min)	3.995
Intensity Units	
Intensity Multiplier	1
R.Time (min)	Intensity
0.01178	35.02
0.02845	35.02
0.04512	35.03
0.06178	35.04
0.07845	35.04
0.09512	35.04
0.11178	35.04
0.12845	35.04
0.14512	35.03
0.16178	35.04
0.17845	35.04
0.19512	35.04
0.21178	35.03
0.22845	35.03
0.24512	35.03
0.26178	35.03
0.27845	35.02
0.29512	35.02
0.31178	35.03
0.32845	35.03
0.34512	35.04
0.36178	35.03
0.37845	35.01
0.39512	35.01
0.41178	35.01
0.42845	35.01
0.44512	35.01
0.46178	35.01
0.47845	35.02
0.49512	35.02
0.51178	35.01
0.52845	34.98
0.54512	34.96
0.56178	34.95
0.57845	34.94
0.59512	34.94
0.61178	34.96
0.62845	34.96
0.64512	34.98
0.66178	35.00
0.67845	35.01
0.69512	35.00
0.71178	35.00
0.72845	34.99
0.74512	35.00
0.76178	35.00
0.77845	35.00
0.79512	35.01
0.81178	35.02
0.82845	35.02
0.84512	35.03
0.86178	35.01
0.87845	35.01
0.89512	35.01
0.91178	34.99
0.92845	34.99
0.94512	34.98
0.96178	34.98
0.97845	34.98
0.99512	34.98
1.01178	34.98
1.02845	34.98
1.04512	34.98
1.06178	34.99
1.07845	34.99
1.09512	34.99
1.11178	35.00
1.12845	35.00
1.14512	34.99
1.16178	34.99
1.17845	34.98
1.19512	34.98
1.21178	34.97
1.22845	34.98
1.24512	34.99
1.26178	35.01
1.27845	35.01
1.29512	35.00
1.31178	35.00
1.32845	35.02
1.34512	35.02
1.36178	35.02
1.37845	35.03
1.39512	35.04
1.41178	35.03
1.42845	35.04
1.44512	35.03
1.46178	35.03
1.47845	35.03
1.49512	35.03
1.51178	35.02
1.52845	35.00
1.54512	34.99
1.56178	34.99
1.57845	34.99
1.59512	35.01
1.61178	35.08
1.62845	35.23
1.64512	35.43
1.66178	35.71
1.67845	36.06
1.69512	36.41
1.71178	36.76
1.72845	37.10
1.74512	37.43
1.76178	37.78
1.77845	38.09
1.79512	38.41
1.81178	38.74
1.82845	39.07
1.84512	39.39
1.86178	39.73
1.87845	40.05
1.89512	40.38
1.91178	40.71
1.92845	41.03
1.94512	41.37
1.96178	41.70
1.97845	42.02
1.99512	42.34
2.01178	42.66
2.02845	42.99
2.04512	43.31
2.06178	43.61
2.07845	43.95
2.09512	44.29
2.11178	44.59
2.12845	44.93
2.14512	45.26
2.16178	45.59
2.17845	45.92
2.19512	46.26
2.21178	46.57
2.22845	46.91
2.24512	47.30
2.26178	47.62
2.27845	47.93
2.29512	48.26
2.31178	48.59
2.32845	48.92
2.34512	49.22
2.36178	49.52
2.37845	49.68
2.39512	49.72
2.41178	49.71
2.42845	49.72
2.44512	49.73
2.46178	49.71
2.47845	49.71
2.49512	49.73
2.51178	49.73
2.52845	49.74
2.54512	49.75
2.56178	49.78
2.57845	49.78
2.59512	49.82
2.61178	49.83
2.62845	49.83
2.64512	49.84
2.66178	49.85
2.67845	49.85
2.69512	49.87
2.71178	49.87
2.72845	49.85
2.74512	49.85
2.76178	49.87
2.77845	49.88
2.79512	49.89
2.81178	49.88
2.82845	49.87
2.84512	49.89
2.86178	49.90
2.87845	49.90
2.89512	49.93
2.91178	49.94
2.92845	49.95
2.94512	49.96
2.96178	49.97
2.97845	49.97
2.99512	49.98
3.01178	49.98
3.02845	49.97
3.04512	49.98
3.06178	49.99
3.07845	50.00
3.09512	50.02
3.11178	50.03
3.12845	50.04
3.14512	50.04
3.16178	50.05
3.17845	50.05
3.19512	50.06
3.21178	50.07
3.22845	50.08
3.24512	50.10
3.26178	50.11
3.27845	50.10
3.29512	50.09
3.31178	50.08
3.32845	50.06
3.34512	50.05
3.36178	50.04
3.37845	50.04
3.39512	50.04
3.41178	50.05
3.42845	50.05
3.44512	50.05
3.46178	50.05
3.47845	50.05
3.49512	50.06
3.51178	50.07
3.52845	50.07
3.54512	50.07
3.56178	50.06
3.57845	50.06
3.59512	50.06
3.61178	50.07
3.62845	50.08
3.64512	50.08
3.66178	50.07
3.67845	50.06
3.69512	50.06
3.71178	50.06
3.72845	50.07
3.74512	50.07
3.76178	50.06
3.77845	50.07
3.79512	50.07
3.81178	50.08
3.82845	50.08
3.84512	50.08
3.86178	50.09
3.87845	50.08
3.89512	50.07
3.91178	50.07
3.92845	50.06
3.94512	50.05
3.96178	50.04
3.97845	50.04
3.99512	50.04

[Status Trace (Injection Unit Temperature)]
Interval(msec)	1000
# of Points	240
Start Time(min)	0.012
End Time(min)	3.995
Intensity Units	
Intensity Multiplier	1
R.Time (min)	Intensity
0.01178	99.98
0.02845	99.98
0.04512	99.98
0.06178	99.98
0.07845	99.98
0.09512	99.99
0.11178	99.99
0.12845	99.98
0.14512	99.98
0.16178	99.98
0.17845	99.98
0.19512	99.98
0.21178	99.98
0.22845	99.98
0.24512	99.98
0.26178	99.98
0.27845	99.98
0.29512	99.98
0.31178	99.98
0.32845	99.99
0.34512	99.98
0.36178	99.98
0.37845	99.99
0.39512	99.98
0.41178	99.99
0.42845	99.98
0.44512	99.98
0.46178	99.98
0.47845	99.98
0.49512	99.98
0.51178	99.98
0.52845	99.98
0.54512	99.99
0.56178	99.98
0.57845	99.98
0.59512	99.99
0.61178	99.98
0.62845	99.98
0.64512	99.98
0.66178	99.98
0.67845	99.99
0.69512	99.99
0.71178	99.98
0.72845	99.97
0.74512	99.98
0.76178	99.98
0.77845	99.98
0.79512	99.98
0.81178	99.98
0.82845	99.98
0.84512	99.98
0.86178	99.98
0.87845	99.98
0.89512	99.98
0.91178	99.98
0.92845	99.98
0.94512	99.98
0.96178	99.98
0.97845	99.98
0.99512	99.98
1.01178	99.98
1.02845	99.98
1.04512	99.98
1.06178	99.98
1.07845	99.98
1.09512	99.98
1.11178	99.98
1.12845	99.99
1.14512	99.98
1.16178	99.98
1.17845	99.98
1.19512	99.98
1.21178	99.98
1.22845	99.98
1.24512	99.98
1.26178	99.99
1.27845	99.98
1.29512	99.98
1.31178	99.98
1.32845	99.99
1.34512	99.98
1.36178	99.99
1.37845	99.99
1.39512	99.99
1.41178	99.99
1.42845	99.99
1.44512	99.99
1.46178	99.99
1.47845	99.99
1.49512	99.99
1.51178	99.99
1.52845	100.00
1.54512	99.99
1.56178	99.99
1.57845	99.98
1.59512	99.99
1.61178	99.99
1.62845	99.99
1.64512	99.99
1.66178	99.99
1.67845	99.99
1.69512	99.99
1.71178	99.99
1.72845	99.99
1.74512	99.99
1.76178	99.98
1.77845	99.98
1.79512	99.98
1.81178	99.98
1.82845	99.98
1.84512	99.99
1.86178	99.98
1.87845	99.98
1.89512	99.98
1.91178	99.98
1.92845	99.98
1.94512	99.97
1.96178	99.98
1.97845	99.97
1.99512	99.97
2.01178	99.97
2.02845	99.97
2.04512	99.97
2.06178	99.97
2.07845	99.97
2.09512	99.97
2.11178	99.97
2.12845	99.97
2.14512	99.97
2.16178	99.97
2.17845	99.97
2.19512	99.96
2.21178	99.96
2.22845	99.96
2.24512	99.96
2.26178	99.96
2.27845	99.96
2.29512	99.96
2.31178	99.96
2.32845	99.96
2.34512	99.96
2.36178	99.96
2.37845	99.96
2.39512	99.96
2.41178	99.97
2.42845	99.97
2.44512	99.96
2.46178	99.96
2.47845	99.97
2.49512	99.96
2.51178	99.97
2.52845	99.97
2.54512	99.97
2.56178	99.97
2.57845	99.97
2.59512	99.97
2.61178	99.97
2.62845	99.97
2.64512	99.98
2.66178	99.98
2.67845	99.98
2.69512	99.98
2.71178	99.98
2.72845	99.98
2.74512	99.99
2.76178	99.99
2.77845	99.99
2.79512	99.99
2.81178	99.99
2.82845	99.99
2.84512	99.99
2.86178	99.99
2.87845	99.99
2.89512	100.00
2.91178	100.00
2.92845	100.00
2.94512	100.00
2.96178	100.00
2.97845	100.00
2.99512	100.01
3.01178	100.01
3.02845	100.01
3.04512	100.01
3.06178	100.01
3.07845	100.01
3.09512	100.01
3.11178	100.01
3.12845	100.02
3.14512	100.02
3.16178	100.02
3.17845	100.02
3.19512	100.02
3.21178	100.02
3.22845	100.01
3.24512	100.03
3.26178	100.02
3.27845	100.03
3.29512	100.03
3.31178	100.02
3.32845	100.02
3.34512	100.03
3.36178	100.03
3.37845	100.02
3.39512	100.03
3.41178	100.03
3.42845	100.02
3.44512	100.02
3.46178	100.03
3.47845	100.03
3.49512	100.03
3.51178	100.03
3.52845	100.03
3.54512	100.03
3.56178	100.03
3.57845	100.02
3.59512	100.02
3.61178	100.03
3.62845	100.03
3.64512	100.03
3.66178	100.03
3.67845	100.03
3.69512	100.03
3.71178	100.03
3.72845	100.03
3.74512	100.03
3.76178	100.03
3.77845	100.03
3.79512	100.03
3.81178	100.03
3.82845	100.03
3.84512	100.03
3.86178	100.04
3.87845	100.03
3.89512	100.04
3.91178	100.04
3.92845	100.04
3.94512	100.04
3.96178	100.04
3.97845	100.04
3.99512	100.04

[Status Trace (Carrier Gas Pressure)]
Interval(msec)	1000
# of Points	240
Start Time(min)	0.012
End Time(min)	3.995
Intensity Units	
Intensity Multiplier	1
R.Time (min)	Intensity
0.01178	57.99
0.02845	54.95
0.04512	57.61
0.06178	59.69
0.07845	58.89
0.09512	58.00
0.11178	57.99
0.12845	58.01
0.14512	58.01
0.16178	58.00
0.17845	58.00
0.19512	58.00
0.21178	58.00
0.22845	58.00
0.24512	58.00
0.26178	58.00
0.27845	58.00
0.29512	58.00
0.31178	58.00
0.32845	58.00
0.34512	58.00
0.36178	58.00
0.37845	58.00
0.39512	58.00
0.41178	58.00
0.42845	58.00
0.44512	58.00
0.46178	58.00
0.47845	58.00
0.49512	58.00
0.51178	58.00
0.52845	58.00
0.54512	58.00
0.56178	58.00
0.57845	58.00
0.59512	58.00
0.61178	58.00
0.62845	58.00
0.64512	58.00
0.66178	58.00
0.67845	58.00
0.69512	58.00
0.71178	58.00
0.72845	58.00
0.74512	58.00
0.76178	58.00
0.77845	58.00
0.79512	58.00
0.81178	58.00
0.82845	58.00
0.84512	58.00
0.86178	58.00
0.87845	58.00
0.89512	58.00
0.91178	58.00
0.92845	58.00
0.94512	58.00
0.96178	58.00
0.97845	58.00
0.99512	58.00
1.01178	58.00
1.02845	58.00
1.04512	58.00
1.06178	58.00
1.07845	58.00
1.09512	58.00
1.11178	58.00
1.12845	58.00
1.14512	58.00
1.16178	58.00
1.17845	58.00
1.19512	58.00
1.21178	58.00
1.22845	58.00
1.24512	58.00
1.26178	58.00
1.27845	58.00
1.29512	58.00
1.31178	58.00
1.32845	58.00
1.34512	58.00
1.36178	58.00
1.37845	58.00
1.39512	58.00
1.41178	58.00
1.42845	58.00
1.44512	58.00
1.46178	58.00
1.47845	58.00
1.49512	58.00
1.51178	58.00
1.52845	58.00
1.54512	58.00
1.56178	58.00
1.57845	58.00
1.59512	58.00
1.61178	58.00
1.62845	58.01
1.64512	58.01
1.66178	58.00
1.67845	58.01
1.69512	58.00
1.71178	58.00
1.72845	58.00
1.74512	58.00
1.76178	58.00
1.77845	58.00
1.79512	58.00
1.81178	58.00
1.82845	58.00
1.84512	58.00
1.86178	58.00
1.87845	58.00
1.89512	58.00
1.91178	58.00
1.92845	58.00
1.94512	58.00
1.96178	58.00
1.97845	58.00
1.99512	58.00
2.01178	58.00
2.02845	58.00
2.04512	58.00
2.06178	58.00
2.07845	58.00
2.09512	58.00
2.11178	58.00
2.12845	58.00
2.14512	58.00
2.16178	58.00
2.17845	58.00
2.19512	58.00
2.21178	58.00
2.22845	58.00
2.24512	58.00
2.26178	58.00
2.27845	58.00
2.29512	58.00
2.31178	58.00
2.32845	58.00
2.34512	58.00
2.36178	58.00
2.37845	58.00
2.39512	57.99
2.41178	57.99
2.42845	58.00
2.44512	58.00
2.46178	58.00
2.47845	58.00
2.49512	58.00
2.51178	57.99
2.52845	57.98
2.54512	58.00
2.56178	58.00
2.57845	58.00
2.59512	58.00
2.61178	58.00
2.62845	58.00
2.64512	58.00
2.66178	58.00
2.67845	58.00
2.69512	58.00
2.71178	58.00
2.72845	58.00
2.74512	58.00
2.76178	58.00
2.77845	58.00
2.79512	58.00
2.81178	58.00
2.82845	58.00
2.84512	58.00
2.86178	58.00
2.87845	58.00
2.89512	58.00
2.91178	58.00
2.92845	58.00
2.94512	58.00
2.96178	58.00
2.97845	58.00
2.99512	58.00
3.01178	58.00
3.02845	58.00
3.04512	58.00
3.06178	58.00
3.07845	58.00
3.09512	58.00
3.11178	58.00
3.12845	58.00
3.14512	58.00
3.16178	58.00
3.17845	58.00
3.19512	58.00
3.21178	58.00
3.22845	58.00
3.24512	58.00
3.26178	58.00
3.27845	58.00
3.29512	58.00
3.31178	58.00
3.32845	58.00
3.34512	58.00
3.36178	58.00
3.37845	58.00
3.39512	58.00
3.41178	58.00
3.42845	58.00
3.44512	58.00
3.46178	58.00
3.47845	58.00
3.49512	58.00
3.51178	58.00
3.52845	58.00
3.54512	58.00
3.56178	58.00
3.57845	58.00
3.59512	58.00
3.61178	58.00
3.62845	58.00
3.64512	58.00
3.66178	58.00
3.67845	58.00
3.69512	58.00
3.71178	58.00
3.72845	58.00
3.74512	58.00
3.76178	58.00
3.77845	58.00
3.79512	58.00
3.81178	58.00
3.82845	58.00
3.84512	58.00
3.86178	58.00
3.87845	58.00
3.89512	58.00
3.91178	58.00
3.92845	58.00
3.94512	58.00
3.96178	58.00
3.97845	58.00
3.99512	58.00

[Status Trace (Carrier Gas Flow)]
Interval(msec)	1000
# of Points	240
Start Time(min)	0.012
End Time(min)	3.995
Intensity Units	
Intensity Multiplier	1
R.Time (min)	Intensity
0.01178	34.52
0.02845	34.54
0.04512	34.55
0.06178	34.54
0.07845	34.50
0.09512	34.52
0.11178	34.52
0.12845	34.53
0.14512	34.52
0.16178	34.51
0.17845	34.53
0.19512	34.52
0.21178	34.51
0.22845	34.53
0.24512	34.52
0.26178	34.52
0.27845	34.52
0.29512	34.52
0.31178	34.52
0.32845	34.52
0.34512	34.52
0.36178	34.52
0.37845	34.52
0.39512	34.52
0.41178	34.52
0.42845	34.52
0.44512	34.52
0.46178	34.52
0.47845	34.52
0.49512	34.52
0.51178	34.52
0.52845	34.52
0.54512	34.52
0.56178	34.52
0.57845	34.52
0.59512	34.52
0.61178	34.52
0.62845	34.52
0.64512	34.52
0.66178	34.52
0.67845	34.52
0.69512	34.52
0.71178	34.52
0.72845	34.52
0.74512	34.52
0.76178	34.52
0.77845	34.51
0.79512	34.52
0.81178	34.52
0.82845	34.52
0.84512	34.52
0.86178	34.52
0.87845	34.52
0.89512	34.52
0.91178	34.52
0.92845	34.52
0.94512	34.52
0.96178	34.52
0.97845	34.52
0.99512	34.52
1.01178	34.52
1.02845	34.52
1.04512	34.52
1.06178	34.52
1.07845	34.52
1.09512	34.52
1.11178	34.52
1.12845	34.52
1.14512	34.52
1.16178	34.52
1.17845	34.52
1.19512	34.52
1.21178	34.52
1.22845	34.52
1.24512	34.52
1.26178	34.51
1.27845	34.52
1.29512	34.52
1.31178	34.52
1.32845	34.52
1.34512	34.52
1.36178	34.52
1.37845	34.52
1.39512	34.52
1.41178	34.52
1.42845	34.52
1.44512	34.52
1.46178	34.52
1.47845	34.52
1.49512	34.52
1.51178	34.52
1.52845	34.51
1.54512	34.52
1.56178	34.52
1.57845	34.53
1.59512	34.52
1.61178	34.52
1.62845	34.51
1.64512	34.51
1.66178	34.52
1.67845	34.52
1.69512	34.52
1.71178	34.52
1.72845	34.51
1.74512	34.52
1.76178	34.52
1.77845	34.52
1.79512	34.52
1.81178	34.52
1.82845	34.51
1.84512	34.53
1.86178	34.53
1.87845	34.51
1.89512	34.51
1.91178	34.52
1.92845	34.53
1.94512	34.51
1.96178	34.52
1.97845	34.52
1.99512	34.52
2.01178	34.52
2.02845	34.51
2.04512	34.52
2.06178	34.52
2.07845	34.51
2.09512	34.52
2.11178	34.52
2.12845	34.52
2.14512	34.52
2.16178	34.52
2.17845	34.52
2.19512	34.52
2.21178	34.52
2.22845	34.52
2.24512	34.52
2.26178	34.52
2.27845	34.52
2.29512	34.52
2.31178	34.52
2.32845	34.52
2.34512	34.52
2.36178	34.52
2.37845	34.52
2.39512	34.52
2.41178	34.51
2.42845	34.52
2.44512	34.52
2.46178	34.52
2.47845	34.51
2.49512	34.52
2.51178	34.52
2.52845	34.52
2.54512	34.52
2.56178	34.52
2.57845	34.51
2.59512	34.52
2.61178	34.52
2.62845	34.52
2.64512	34.51
2.66178	34.52
2.67845	34.52
2.69512	34.52
2.71178	34.52
2.72845	34.52
2.74512	34.52
2.76178	34.51
2.77845	34.52
2.79512	34.51
2.81178	34.52
2.82845	34.52
2.84512	34.52
2.86178	34.52
2.87845	34.52
2.89512	34.52
2.91178	34.52
2.92845	34.52
2.94512	34.52
2.96178	34.52
2.97845	34.52
2.99512	34.52
3.01178	34.52
3.02845	34.52
3.04512	34.52
3.06178	34.52
3.07845	34.52
3.09512	34.52
3.11178	34.52
3.12845	34.52
3.14512	34.52
3.16178	34.52
3.17845	34.52
3.19512	34.52
3.21178	34.52
3.22845	34.52
3.24512	34.52
3.26178	34.52
3.27845	34.52
3.29512	34.52
3.31178	34.52
3.32845	34.52
3.34512	34.52
3.36178	34.52
3.37845	34.52
3.39512	34.52
3.41178	34.52
3.42845	34.52
3.44512	34.52
3.46178	34.52
3.47845	34.52
3.49512	34.52
3.51178	34.52
3.52845	34.52
3.54512	34.52
3.56178	34.52
3.57845	34.52
3.59512	34.52
3.61178	34.52
3.62845	34.52
3.64512	34.51
3.66178	34.52
3.67845	34.52
3.69512	34.52
3.71178	34.52
3.72845	34.52
3.74512	34.52
3.76178	34.52
3.77845	34.52
3.79512	34.52
3.81178	34.52
3.82845	34.52
3.84512	34.52
3.86178	34.52
3.87845	34.52
3.89512	34.52
3.91178	34.52
3.92845	34.52
3.94512	34.52
3.96178	34.52
3.97845	34.52
3.99512	34.53

[Status Trace (Column Flow)]
Interval(msec)	1000
# of Points	240
Start Time(min)	0.012
End Time(min)	3.995
Intensity Units	
Intensity Multiplier	1
R.Time (min)	Intensity
0.01178	5.57
0.02845	5.22
0.04512	5.53
0.06178	5.77
0.07845	5.68
0.09512	5.57
0.11178	5.57
0.12845	5.57
0.14512	5.57
0.16178	5.57
0.17845	5.57
0.19512	5.57
0.21178	5.57
0.22845	5.57
0.24512	5.57
0.26178	5.57
0.27845	5.57
0.29512	5.57
0.31178	5.57
0.32845	5.57
0.34512	5.57
0.36178	5.57
0.37845	5.57
0.39512	5.57
0.41178	5.57
0.42845	5.57
0.44512	5.57
0.46178	5.57
0.47845	5.57
0.49512	5.57
0.51178	5.57
0.52845	5.57
0.54512	5.57
0.56178	5.57
0.57845	5.57
0.59512	5.57
0.61178	5.57
0.62845	5.57
0.64512	5.57
0.66178	5.57
0.67845	5.57
0.69512	5.57
0.71178	5.57
0.72845	5.57
0.74512	5.57
0.76178	5.57
0.77845	5.57
0.79512	5.57
0.81178	5.57
0.82845	5.57
0.84512	5.57
0.86178	5.57
0.87845	5.57
0.89512	5.57
0.91178	5.57
0.92845	5.57
0.94512	5.57
0.96178	5.57
0.97845	5.57
0.99512	5.57
1.01178	5.57
1.02845	5.57
1.04512	5.57
1.06178	5.57
1.07845	5.57
1.09512	5.57
1.11178	5.57
1.12845	5.57
1.14512	5.57
1.16178	5.57
1.17845	5.57
1.19512	5.57
1.21178	5.57
1.22845	5.57
1.24512	5.57
1.26178	5.57
1.27845	5.57
1.29512	5.57
1.31178	5.57
1.32845	5.57
1.34512	5.57
1.36178	5.57
1.37845	5.57
1.39512	5.57
1.41178	5.57
1.42845	5.57
1.44512	5.57
1.46178	5.57
1.47845	5.57
1.49512	5.57
1.51178	5.57
1.52845	5.57
1.54512	5.57
1.56178	5.57
1.57845	5.57
1.59512	5.57
1.61178	5.57
1.62845	5.57
1.64512	5.56
1.66178	5.55
1.67845	5.54
1.69512	5.53
1.71178	5.52
1.72845	5.51
1.74512	5.50
1.76178	5.48
1.77845	5.48
1.79512	5.47
1.81178	5.46
1.82845	5.45
1.84512	5.44
1.86178	5.43
1.87845	5.42
1.89512	5.41
1.91178	5.40
1.92845	5.39
1.94512	5.38
1.96178	5.37
1.97845	5.36
1.99512	5.35
2.01178	5.34
2.02845	5.33
2.04512	5.32
2.06178	5.31
2.07845	5.30
2.09512	5.29
2.11178	5.28
2.12845	5.27
2.14512	5.26
2.16178	5.25
2.17845	5.24
2.19512	5.23
2.21178	5.22
2.22845	5.21
2.24512	5.20
2.26178	5.19
2.27845	5.18
2.29512	5.18
2.31178	5.17
2.32845	5.16
2.34512	5.15
2.36178	5.14
2.37845	5.13
2.39512	5.13
2.41178	5.13
2.42845	5.13
2.44512	5.13
2.46178	5.13
2.47845	5.13
2.49512	5.13
2.51178	5.13
2.52845	5.13
2.54512	5.13
2.56178	5.13
2.57845	5.13
2.59512	5.13
2.61178	5.13
2.62845	5.13
2.64512	5.13
2.66178	5.13
2.67845	5.13
2.69512	5.13
2.71178	5.13
2.72845	5.13
2.74512	5.13
2.76178	5.13
2.77845	5.13
2.79512	5.13
2.81178	5.13
2.82845	5.13
2.84512	5.13
2.86178	5.13
2.87845	5.13
2.89512	5.13
2.91178	5.13
2.92845	5.13
2.94512	5.13
2.96178	5.13
2.97845	5.13
2.99512	5.13
3.01178	5.13
3.02845	5.13
3.04512	5.13
3.06178	5.13
3.07845	5.13
3.09512	5.13
3.11178	5.12
3.12845	5.12
3.14512	5.12
3.16178	5.12
3.17845	5.12
3.19512	5.12
3.21178	5.12
3.22845	5.12
3.24512	5.12
3.26178	5.12
3.27845	5.12
3.29512	5.12
3.31178	5.12
3.32845	5.12
3.34512	5.12
3.36178	5.12
3.37845	5.12
3.39512	5.12
3.41178	5.12
3.42845	5.12
3.44512	5.12
3.46178	5.12
3.47845	5.12
3.49512	5.12
3.51178	5.12
3.52845	5.12
3.54512	5.12
3.56178	5.12
3.57845	5.12
3.59512	5.12
3.61178	5.12
3.62845	5.12
3.64512	5.12
3.66178	5.12
3.67845	5.12
3.69512	5.12
3.71178	5.12
3.72845	5.12
3.74512	5.12
3.76178	5.12
3.77845	5.12
3.79512	5.12
3.81178	5.12
3.82845	5.12
3.84512	5.12
3.86178	5.12
3.87845	5.12
3.89512	5.12
3.91178	5.12
3.92845	5.12
3.94512	5.12
3.96178	5.12
3.97845	5.12
3.99512	5.12

[Status Trace (Linear Velocity)]
Interval(msec)	1000
# of Points	240
Start Time(min)	0.012
End Time(min)	3.995
Intensity Units	
Intensity Multiplier	1
R.Time (min)	Intensity
0.01178	39.02
0.02845	37.03
0.04512	38.77
0.06178	40.13
0.07845	39.61
0.09512	39.02
0.11178	39.02
0.12845	39.03
0.14512	39.03
0.16178	39.03
0.17845	39.03
0.19512	39.03
0.21178	39.03
0.22845	39.03
0.24512	39.03
0.26178	39.03
0.27845	39.03
0.29512	39.03
0.31178	39.03
0.32845	39.03
0.34512	39.02
0.36178	39.02
0.37845	39.03
0.39512	39.03
0.41178	39.03
0.42845	39.03
0.44512	39.03
0.46178	39.03
0.47845	39.03
0.49512	39.03
0.51178	39.03
0.52845	39.03
0.54512	39.03
0.56178	39.03
0.57845	39.03
0.59512	39.04
0.61178	39.03
0.62845	39.03
0.64512	39.03
0.66178	39.03
0.67845	39.03
0.69512	39.03
0.71178	39.03
0.72845	39.03
0.74512	39.03
0.76178	39.03
0.77845	39.03
0.79512	39.03
0.81178	39.03
0.82845	39.03
0.84512	39.03
0.86178	39.03
0.87845	39.03
0.89512	39.03
0.91178	39.03
0.92845	39.03
0.94512	39.03
0.96178	39.03
0.97845	39.03
0.99512	39.03
1.01178	39.03
1.02845	39.03
1.04512	39.03
1.06178	39.03
1.07845	39.03
1.09512	39.03
1.11178	39.03
1.12845	39.03
1.14512	39.03
1.16178	39.03
1.17845	39.03
1.19512	39.03
1.21178	39.03
1.22845	39.03
1.24512	39.03
1.26178	39.03
1.27845	39.03
1.29512	39.03
1.31178	39.03
1.32845	39.03
1.34512	39.03
1.36178	39.03
1.37845	39.03
1.39512	39.02
1.41178	39.03
1.42845	39.02
1.44512	39.03
1.46178	39.03
1.47845	39.03
1.49512	39.03
1.51178	39.03
1.52845	39.03
1.54512	39.03
1.56178	39.03
1.57845	39.03
1.59512	39.03
1.61178	39.02
1.62845	39.01
1.64512	38.99
1.66178	38.96
1.67845	38.93
1.69512	38.90
1.71178	38.86
1.72845	38.83
1.74512	38.80
1.76178	38.76
1.77845	38.73
1.79512	38.71
1.81178	38.67
1.82845	38.64
1.84512	38.61
1.86178	38.58
1.87845	38.55
1.89512	38.52
1.91178	38.49
1.92845	38.46
1.94512	38.43
1.96178	38.39
1.97845	38.37
1.99512	38.34
2.01178	38.31
2.02845	38.28
2.04512	38.25
2.06178	38.22
2.07845	38.19
2.09512	38.16
2.11178	38.13
2.12845	38.10
2.14512	38.07
2.16178	38.04
2.17845	38.01
2.19512	37.98
2.21178	37.95
2.22845	37.92
2.24512	37.89
2.26178	37.85
2.27845	37.83
2.29512	37.80
2.31178	37.77
2.32845	37.74
2.34512	37.72
2.36178	37.69
2.37845	37.67
2.39512	37.66
2.41178	37.67
2.42845	37.67
2.44512	37.67
2.46178	37.67
2.47845	37.67
2.49512	37.67
2.51178	37.66
2.52845	37.66
2.54512	37.67
2.56178	37.67
2.57845	37.66
2.59512	37.66
2.61178	37.66
2.62845	37.66
2.64512	37.66
2.66178	37.66
2.67845	37.66
2.69512	37.66
2.71178	37.66
2.72845	37.66
2.74512	37.66
2.76178	37.66
2.77845	37.65
2.79512	37.65
2.81178	37.65
2.82845	37.66
2.84512	37.65
2.86178	37.65
2.87845	37.65
2.89512	37.65
2.91178	37.65
2.92845	37.65
2.94512	37.65
2.96178	37.65
2.97845	37.65
2.99512	37.65
3.01178	37.65
3.02845	37.65
3.04512	37.65
3.06178	37.65
3.07845	37.64
3.09512	37.64
3.11178	37.64
3.12845	37.64
3.14512	37.64
3.16178	37.64
3.17845	37.64
3.19512	37.64
3.21178	37.64
3.22845	37.64
3.24512	37.64
3.26178	37.63
3.27845	37.64
3.29512	37.64
3.31178	37.64
3.32845	37.64
3.34512	37.64
3.36178	37.64
3.37845	37.64
3.39512	37.64
3.41178	37.64
3.42845	37.64
3.44512	37.64
3.46178	37.64
3.47845	37.64
3.49512	37.64
3.51178	37.64
3.52845	37.64
3.54512	37.64
3.56178	37.64
3.57845	37.64
3.59512	37.64
3.61178	37.64
3.62845	37.64
3.64512	37.64
3.66178	37.64
3.67845	37.64
3.69512	37.64
3.71178	37.64
3.72845	37.64
3.74512	37.64
3.76178	37.64
3.77845	37.64
3.79512	37.64
3.81178	37.64
3.82845	37.64
3.84512	37.64
3.86178	37.64
3.87845	37.64
3.89512	37.64
3.91178	37.64
3.92845	37.64
3.94512	37.64
3.96178	37.64
3.97845	37.64
3.99512	37.64

