[Header]
Application Name	LabSolutions
Version	5.110
Data File Name	C:\Users\User\Desktop\GC Analyses\Jack\Nachusa Grasslands Sampling\T0 Timepoint July 12th\T0_07122022_058.gcd
Output Date	3/14/2023
Output Time	3:40:37 PM

[File Information]
Type	Data File
Generated	3/7/2023 8:13:08 PM
Generated by	System Administrator
Modified	3/7/2023 8:19:54 PM
Modified by	System Administrator

[Sample Information]
Operator Name	System Administrator
Acquired	3/7/2023 8:15:54 PM
Sample Type	0:Unknown
Level	0
Sample Name	058
Sample ID	058
ISTD Amount1	1
ISTD Amount2	1
ISTD Amount3	1
ISTD Amount4	1
ISTD Amount5	1
ISTD Amount6	1
ISTD Amount7	1
ISTD Amount8	1
ISTD Amount9	1
ISTD Amount10	1
ISTD Amount11	1
ISTD Amount12	1
ISTD Amount13	1
ISTD Amount14	1
ISTD Amount15	1
ISTD Amount16	1
ISTD Amount17	1
ISTD Amount18	1
ISTD Amount19	1
ISTD Amount20	1
ISTD Amount21	1
ISTD Amount22	1
ISTD Amount23	1
ISTD Amount24	1
ISTD Amount25	1
ISTD Amount26	1
ISTD Amount27	1
ISTD Amount28	1
ISTD Amount29	1
ISTD Amount30	1
ISTD Amount31	1
ISTD Amount32	1
Sample Amount	1
Dilution Factor	1
Vial#	57
Injection Volume	1
Injection Count	1
Bar Code	

[Original Files]
Data File	C:\Users\User\Desktop\GC Analyses\Jack\Nachusa Grasslands Sampling\T0 Timepoint July 12th\T0_07122022_058.gcd
Method File	C:\LabSolutions\Data\GHG_4min_2022\ghg3_togas_w_acet_4 min_new_int.gcm
Batch File	C:\LabSolutions\Data\AutoSamplerTesting\T0_07122022.gcb
Report Format File	c:\LabSolutions\System\DEFAULT.lsr

[File Description]


[Configuration]
Instrument Name	C0B7VH3-Instrument1
Instrument #	1
Line #	1
# of Detectors	3
Detector ID	DET#1	DET#2	DET#3
Detector Name	FID	PTCD	ECD
# of Channels	1	1	1

[Peak Table(Ch1)]
# of Peaks	3
Peak#	R.Time	I.Time	F.Time	Area	Height	A/H	Conc.	Mark	ID#	Name	k'	Plate #	Plate Ht.	Tailing	Resolution	Sep.Factor	Area Ratio	Height Ratio	Conc. %	Norm Conc.
1	1.476	1.439	1.538	24499	11452	2.139	172.963	   	1	CO	0.000	8962	16.737	1.329	0.000	0.000	0	0	29.875	29.875
2	1.567	1.538	1.633	4793	2314	2.071	92.681	 V 	2	CH4	0.062	10437	14.372	0.000	1.482	0.000	0	0	16.008	16.008
3	1.996	1.952	2.480	1248408	590934	2.113	313.317	   	3	CO2	0.353	17326	8.658	1.301	7.031	5.680	0	0	54.117	54.117

[Peak Table(Ch2)]
# of Peaks	0

[Peak Table(Ch3)]
# of Peaks	6
Peak#	R.Time	I.Time	F.Time	Area	Height	A/H	Conc.	Mark	ID#	Name	k'	Plate #	Plate Ht.	Tailing	Resolution	Sep.Factor	Area Ratio	Height Ratio	Conc. %	Norm Conc.
1	0.398	0.346	0.684	131	13	9.789	0.000	   			0.000	1440	104.161	3.316	0.000	0.000	0	0	0.000	0.000
2	2.462	2.103	2.521	2536	422	6.003	0.000	   			5.191	6166	24.328	0.000	24.673	0.000	0	0	0.000	0.000
3	2.546	2.521	2.631	1077	240	4.488	0.000	 V 			5.403	2431	61.707	0.000	0.508	1.041	0	0	0.000	0.000
4	2.693	2.656	2.744	148	50	2.942	0.000	   			5.772	17520	8.562	1.166	1.019	1.068	0	0	0.000	0.000
5	2.873	2.810	3.023	17013	4641	3.666	0.435	   	1	N2O	6.224	13683	10.963	1.578	2.001	1.078	0	0	100.000	100.000
6	3.261	3.122	3.965	13448	571	23.571	0.000	   	2	SF6	7.201	309	485.821	2.955	0.925	1.157	0	0	0.000	0.000

[Compound Results(Ch1)]
# of IDs	6
ID#	Name	R.Time	Area	Height	Conc.	Curve	3rd	2nd	1st	Constant	Area Ratio	Height Ratio	Conc. %	Norm Conc.
1	CO	1.476	24499	11452	172.963	Linear	0.000000e+00	0.000000e+00	1.416423e+002	0.000000e+00	0	0	29.875	29.875
2	CH4	1.567	4793	2314	92.681	Linear	0.000000e+00	0.000000e+00	5.171738e+001	0.000000e+00	0	0	16.008	16.008
3	CO2	1.996	1248408	590934	313.317	Linear	0.000000e+00	0.000000e+00	3.984494e+003	0.000000e+00	0	0	54.117	54.117
4	Ethylene	0.000	0	0	0.000	Linear	0.000000e+00	0.000000e+00	0.000000e+00	0.000000e+00	0	0	0.000	0.000
5	Acetylene	0.000	0	0	0.000	Linear	0.000000e+00	0.000000e+00	0.000000e+00	0.000000e+00	0	0	0.000	0.000
6	Ethane	0.000	0	0	0.000	Linear	0.000000e+00	0.000000e+00	0.000000e+00	0.000000e+00	0	0	0.000	0.000

[Compound Results(Ch2)]
# of IDs	5
ID#	Name	R.Time	Area	Height	Conc.	Curve	3rd	2nd	1st	Constant	Area Ratio	Height Ratio	Conc. %	Norm Conc.
1	Hydrogen	0.000	0	0	0.000	Linear	0.000000e+00	0.000000e+00	0.000000e+00	0.000000e+00	0	0	0.000	0.000
2	Oxygen	0.000	0	0	0.000	Linear	0.000000e+00	0.000000e+00	0.000000e+00	0.000000e+00	0	0	0.000	0.000
3	Nitrogen	0.000	0	0	0.000	Linear	0.000000e+00	0.000000e+00	0.000000e+00	0.000000e+00	0	0	0.000	0.000
4	Methane	0.000	0	0	0.000	Linear	0.000000e+00	0.000000e+00	0.000000e+00	0.000000e+00	0	0	0.000	0.000
5	Carbon Monoxide	0.000	0	0	0.000	Linear	0.000000e+00	0.000000e+00	0.000000e+00	0.000000e+00	0	0	0.000	0.000

[Compound Results(Ch3)]
# of IDs	2
ID#	Name	R.Time	Area	Height	Conc.	Curve	3rd	2nd	1st	Constant	Area Ratio	Height Ratio	Conc. %	Norm Conc.
1	N2O	2.873	17013	4641	0.435	Linear	0.000000e+00	0.000000e+00	3.915173e+004	0.000000e+00	0	0	100.000	100.000
2	SF6	3.261	13448	571	0.000	Linear	0.000000e+00	0.000000e+00	0.000000e+00	0.000000e+00	0	0	0.000	0.000

[Group Results(Ch1)]
# of Groups	0

[Group Results(Ch2)]
# of Groups	0

[Group Results(Ch3)]
# of Groups	0

[Chromatogram (Ch1)]
Interval(msec)	220
# of Points	1091
Start Time(min)	0.002
End Time(min)	3.998
R.Time (min)	Intensity
0.00167	10
0.00533	15
0.00900	17
0.01267	20
0.01633	27
0.02000	29
0.02367	26
0.02733	25
0.03100	26
0.03467	27
0.03833	26
0.04200	26
0.04567	25
0.04933	24
0.05300	26
0.05667	26
0.06033	22
0.06400	16
0.06767	12
0.07133	10
0.07500	11
0.07867	15
0.08233	19
0.08600	23
0.08967	27
0.09333	35
0.09700	43
0.10067	48
0.10433	51
0.10800	52
0.11167	55
0.11533	62
0.11900	68
0.12267	72
0.12633	74
0.13000	77
0.13367	82
0.13733	87
0.14100	91
0.14467	95
0.14833	95
0.15200	99
0.15567	105
0.15933	108
0.16300	111
0.16667	114
0.17033	117
0.17400	117
0.17767	116
0.18133	115
0.18500	116
0.18867	118
0.19233	119
0.19600	117
0.19967	114
0.20333	113
0.20700	114
0.21067	115
0.21433	113
0.21800	111
0.22167	109
0.22533	107
0.22900	106
0.23267	103
0.23633	99
0.24000	91
0.24367	79
0.24733	66
0.25100	53
0.25467	41
0.25833	32
0.26200	28
0.26567	27
0.26933	28
0.27300	30
0.27667	33
0.28033	31
0.28400	29
0.28767	26
0.29133	20
0.29500	16
0.29867	20
0.30233	27
0.30600	31
0.30967	30
0.31333	28
0.31700	28
0.32067	28
0.32433	27
0.32800	26
0.33167	25
0.33533	24
0.33900	23
0.34267	22
0.34633	25
0.35000	31
0.35367	37
0.35733	36
0.36100	31
0.36467	23
0.36833	18
0.37200	19
0.37567	24
0.37933	28
0.38300	32
0.38667	36
0.39033	37
0.39400	34
0.39767	26
0.40133	19
0.40500	17
0.40867	19
0.41233	21
0.41600	27
0.41967	36
0.42333	46
0.42700	48
0.43067	40
0.43433	31
0.43800	24
0.44167	14
0.44533	4
0.44900	-5
0.45267	-9
0.45633	-8
0.46000	-7
0.46367	-7
0.46733	-8
0.47100	-9
0.47467	-7
0.47833	-3
0.48200	3
0.48567	16
0.48933	29
0.49300	36
0.49667	34
0.50033	26
0.50400	15
0.50767	5
0.51133	-2
0.51500	-2
0.51867	4
0.52233	11
0.52600	12
0.52967	7
0.53333	4
0.53700	2
0.54067	1
0.54433	3
0.54800	9
0.55167	15
0.55533	16
0.55900	16
0.56267	17
0.56633	15
0.57000	11
0.57367	4
0.57733	-2
0.58100	-3
0.58467	1
0.58833	7
0.59200	13
0.59567	17
0.59933	16
0.60300	12
0.60667	7
0.61033	4
0.61400	2
0.61767	3
0.62133	7
0.62500	15
0.62867	21
0.63233	23
0.63600	21
0.63967	18
0.64333	14
0.64700	11
0.65067	8
0.65433	3
0.65800	-1
0.66167	-2
0.66533	0
0.66900	5
0.67267	6
0.67633	0
0.68000	-9
0.68367	-15
0.68733	-15
0.69100	-12
0.69467	-10
0.69833	-9
0.70200	-8
0.70567	-5
0.70933	-0
0.71300	2
0.71667	1
0.72033	-0
0.72400	-1
0.72767	1
0.73133	7
0.73500	12
0.73867	15
0.74233	16
0.74600	14
0.74967	11
0.75333	11
0.75700	10
0.76067	11
0.76433	12
0.76800	16
0.77167	22
0.77533	23
0.77900	19
0.78267	13
0.78633	3
0.79000	-8
0.79367	-14
0.79733	-16
0.80100	-16
0.80467	-13
0.80833	-12
0.81200	-13
0.81567	-13
0.81933	-13
0.82300	-10
0.82667	-4
0.83033	2
0.83400	6
0.83767	7
0.84133	4
0.84500	-2
0.84867	-7
0.85233	-7
0.85600	-6
0.85967	-4
0.86333	-3
0.86700	-2
0.87067	-4
0.87433	-5
0.87800	-5
0.88167	-6
0.88533	-7
0.88900	-7
0.89267	-5
0.89633	-1
0.90000	3
0.90367	3
0.90733	3
0.91100	1
0.91467	-4
0.91833	-12
0.92200	-19
0.92567	-25
0.92933	-30
0.93300	-33
0.93667	-35
0.94033	-33
0.94400	-28
0.94767	-23
0.95133	-21
0.95500	-23
0.95867	-27
0.96233	-31
0.96600	-31
0.96967	-28
0.97333	-24
0.97700	-20
0.98067	-18
0.98433	-19
0.98800	-19
0.99167	-17
0.99533	-14
0.99900	-13
1.00267	-14
1.00633	-14
1.01000	-13
1.01367	-12
1.01733	-15
1.02100	-22
1.02467	-29
1.02833	-35
1.03200	-38
1.03567	-39
1.03933	-39
1.04300	-35
1.04667	-31
1.05033	-28
1.05400	-25
1.05767	-24
1.06133	-26
1.06500	-29
1.06867	-33
1.07233	-32
1.07600	-26
1.07967	-20
1.08333	-16
1.08700	-20
1.09067	-27
1.09433	-34
1.09800	-38
1.10167	-39
1.10533	-33
1.10900	-24
1.11267	-15
1.11633	-7
1.12000	-6
1.12367	-11
1.12733	-17
1.13100	-21
1.13467	-27
1.13833	-33
1.14200	-35
1.14567	-35
1.14933	-35
1.15300	-40
1.15667	-46
1.16033	-49
1.16400	-49
1.16767	-45
1.17133	-38
1.17500	-31
1.17867	-25
1.18233	-22
1.18600	-19
1.18967	-12
1.19333	-5
1.19700	-2
1.20067	3
1.20433	10
1.20800	19
1.21167	25
1.21533	23
1.21900	17
1.22267	9
1.22633	1
1.23000	-7
1.23367	-16
1.23733	-23
1.24100	-24
1.24467	-20
1.24833	-12
1.25200	-11
1.25567	-17
1.25933	-22
1.26300	-25
1.26667	-25
1.27033	-23
1.27400	-16
1.27767	-7
1.28133	1
1.28500	5
1.28867	5
1.29233	1
1.29600	-6
1.29967	-11
1.30333	-14
1.30700	-18
1.31067	-24
1.31433	-30
1.31800	-31
1.32167	-29
1.32533	-22
1.32900	-17
1.33267	-12
1.33633	-6
1.34000	-4
1.34367	-7
1.34733	-10
1.35100	-12
1.35467	-13
1.35833	-17
1.36200	-20
1.36567	-18
1.36933	-13
1.37300	-9
1.37667	-9
1.38033	-14
1.38400	-23
1.38767	-28
1.39133	-27
1.39500	-21
1.39867	-15
1.40233	-11
1.40600	-7
1.40967	-6
1.41333	-9
1.41700	-16
1.42067	-29
1.42433	-41
1.42800	-53
1.43167	-62
1.43533	-62
1.43900	-40
1.44267	58
1.44633	291
1.45000	798
1.45367	1904
1.45733	3719
1.46100	5899
1.46467	7983
1.46833	9683
1.47200	10865
1.47567	11423
1.47933	11256
1.48300	10355
1.48667	8889
1.49033	7170
1.49400	5507
1.49767	4091
1.50133	2983
1.50500	2159
1.50867	1563
1.51233	1137
1.51600	836
1.51967	626
1.52333	479
1.52700	376
1.53067	301
1.53433	246
1.53800	225
1.54167	270
1.54533	433
1.54900	745
1.55267	1154
1.55633	1567
1.56000	1919
1.56367	2176
1.56733	2313
1.57100	2301
1.57467	2122
1.57833	1812
1.58200	1440
1.58567	1077
1.58933	769
1.59300	533
1.59667	363
1.60033	244
1.60400	161
1.60767	107
1.61133	76
1.61500	59
1.61867	52
1.62233	45
1.62600	34
1.62967	23
1.63333	19
1.63700	21
1.64067	21
1.64433	18
1.64800	12
1.65167	5
1.65533	-0
1.65900	-6
1.66267	-13
1.66633	-23
1.67000	-32
1.67367	-37
1.67733	-39
1.68100	-37
1.68467	-33
1.68833	-31
1.69200	-33
1.69567	-35
1.69933	-37
1.70300	-34
1.70667	-32
1.71033	-28
1.71400	-24
1.71767	-23
1.72133	-24
1.72500	-24
1.72867	-25
1.73233	-25
1.73600	-22
1.73967	-19
1.74333	-19
1.74700	-20
1.75067	-23
1.75433	-27
1.75800	-32
1.76167	-34
1.76533	-37
1.76900	-41
1.77267	-44
1.77633	-44
1.78000	-45
1.78367	-46
1.78733	-45
1.79100	-42
1.79467	-42
1.79833	-47
1.80200	-52
1.80567	-57
1.80933	-61
1.81300	-62
1.81667	-61
1.82033	-56
1.82400	-50
1.82767	-46
1.83133	-44
1.83500	-44
1.83867	-44
1.84233	-43
1.84600	-40
1.84967	-39
1.85333	-39
1.85700	-38
1.86067	-35
1.86433	-32
1.86800	-33
1.87167	-35
1.87533	-37
1.87900	-42
1.88267	-48
1.88633	-53
1.89000	-57
1.89367	-56
1.89733	-53
1.90100	-52
1.90467	-51
1.90833	-48
1.91200	-47
1.91567	-51
1.91933	-52
1.92300	-50
1.92667	-48
1.93033	-47
1.93400	-43
1.93767	-37
1.94133	-33
1.94500	-33
1.94867	-33
1.95233	-16
1.95600	98
1.95967	733
1.96333	3552
1.96700	13077
1.97067	37826
1.97433	87970
1.97800	168291
1.98167	272223
1.98533	383522
1.98900	483429
1.99267	556121
1.99633	590943
2.00000	583376
2.00367	536639
2.00733	461582
2.01100	373510
2.01467	286946
2.01833	211655
2.02200	151689
2.02567	106857
2.02933	74785
2.03300	52502
2.03667	37294
2.04033	27004
2.04400	20048
2.04767	15319
2.05133	12061
2.05500	9780
2.05867	8147
2.06233	6948
2.06600	6044
2.06967	5343
2.07333	4790
2.07700	4344
2.08067	3976
2.08433	3664
2.08800	3393
2.09167	3158
2.09533	2954
2.09900	2776
2.10267	2618
2.10633	2473
2.11000	2340
2.11367	2220
2.11733	2109
2.12100	2007
2.12467	1913
2.12833	1830
2.13200	1759
2.13567	1692
2.13933	1628
2.14300	1568
2.14667	1508
2.15033	1450
2.15400	1396
2.15767	1343
2.16133	1294
2.16500	1249
2.16867	1208
2.17233	1170
2.17600	1134
2.17967	1102
2.18333	1073
2.18700	1046
2.19067	1019
2.19433	990
2.19800	961
2.20167	930
2.20533	900
2.20900	872
2.21267	851
2.21633	832
2.22000	815
2.22367	799
2.22733	783
2.23100	764
2.23467	745
2.23833	728
2.24200	713
2.24567	703
2.24933	692
2.25300	681
2.25667	671
2.26033	660
2.26400	645
2.26767	627
2.27133	604
2.27500	582
2.27867	563
2.28233	547
2.28600	536
2.28967	531
2.29333	527
2.29700	519
2.30067	504
2.30433	488
2.30800	479
2.31167	473
2.31533	469
2.31900	466
2.32267	463
2.32633	458
2.33000	450
2.33367	442
2.33733	434
2.34100	426
2.34467	420
2.34833	416
2.35200	411
2.35567	402
2.35933	392
2.36300	386
2.36667	386
2.37033	387
2.37400	384
2.37767	381
2.38133	377
2.38500	372
2.38867	369
2.39233	365
2.39600	357
2.39967	352
2.40333	354
2.40700	357
2.41067	356
2.41433	349
2.41800	342
2.42167	339
2.42533	336
2.42900	331
2.43267	329
2.43633	329
2.44000	327
2.44367	325
2.44733	322
2.45100	320
2.45467	317
2.45833	311
2.46200	304
2.46567	296
2.46933	291
2.47300	289
2.47667	286
2.48033	285
2.48400	281
2.48767	277
2.49133	274
2.49500	275
2.49867	278
2.50233	281
2.50600	284
2.50967	287
2.51333	288
2.51700	291
2.52067	294
2.52433	293
2.52800	290
2.53167	287
2.53533	281
2.53900	273
2.54267	262
2.54633	252
2.55000	243
2.55367	239
2.55733	238
2.56100	236
2.56467	236
2.56833	241
2.57200	247
2.57567	251
2.57933	253
2.58300	257
2.58667	260
2.59033	260
2.59400	255
2.59767	245
2.60133	236
2.60500	227
2.60867	220
2.61233	219
2.61600	220
2.61967	217
2.62333	212
2.62700	209
2.63067	209
2.63433	210
2.63800	209
2.64167	206
2.64533	209
2.64900	219
2.65267	230
2.65633	237
2.66000	238
2.66367	236
2.66733	229
2.67100	221
2.67467	213
2.67833	208
2.68200	211
2.68567	224
2.68933	237
2.69300	244
2.69667	243
2.70033	238
2.70400	233
2.70767	224
2.71133	217
2.71500	213
2.71867	210
2.72233	209
2.72600	211
2.72967	213
2.73333	214
2.73700	214
2.74067	214
2.74433	216
2.74800	222
2.75167	227
2.75533	230
2.75900	230
2.76267	229
2.76633	225
2.77000	217
2.77367	210
2.77733	205
2.78100	202
2.78467	204
2.78833	207
2.79200	212
2.79567	217
2.79933	218
2.80300	216
2.80667	216
2.81033	216
2.81400	214
2.81767	215
2.82133	217
2.82500	219
2.82867	219
2.83233	216
2.83600	217
2.83967	222
2.84333	223
2.84700	220
2.85067	213
2.85433	211
2.85800	214
2.86167	219
2.86533	222
2.86900	223
2.87267	221
2.87633	221
2.88000	221
2.88367	220
2.88733	216
2.89100	213
2.89467	212
2.89833	216
2.90200	218
2.90567	218
2.90933	218
2.91300	220
2.91667	222
2.92033	222
2.92400	220
2.92767	216
2.93133	216
2.93500	219
2.93867	224
2.94233	228
2.94600	230
2.94967	229
2.95333	227
2.95700	225
2.96067	221
2.96433	214
2.96800	208
2.97167	206
2.97533	205
2.97900	206
2.98267	209
2.98633	214
2.99000	217
2.99367	215
2.99733	217
3.00100	221
3.00467	227
3.00833	235
3.01200	240
3.01567	243
3.01933	241
3.02300	235
3.02667	231
3.03033	231
3.03400	227
3.03767	220
3.04133	216
3.04500	212
3.04867	209
3.05233	212
3.05600	218
3.05967	222
3.06333	221
3.06700	216
3.07067	209
3.07433	202
3.07800	200
3.08167	202
3.08533	206
3.08900	212
3.09267	217
3.09633	221
3.10000	221
3.10367	220
3.10733	221
3.11100	224
3.11467	225
3.11833	229
3.12200	232
3.12567	231
3.12933	226
3.13300	217
3.13667	210
3.14033	208
3.14400	208
3.14767	206
3.15133	205
3.15500	204
3.15867	201
3.16233	202
3.16600	203
3.16967	203
3.17333	200
3.17700	198
3.18067	201
3.18433	209
3.18800	214
3.19167	218
3.19533	222
3.19900	222
3.20267	220
3.20633	217
3.21000	210
3.21367	202
3.21733	197
3.22100	196
3.22467	198
3.22833	201
3.23200	203
3.23567	204
3.23933	203
3.24300	203
3.24667	206
3.25033	212
3.25400	220
3.25767	224
3.26133	222
3.26500	217
3.26867	214
3.27233	217
3.27600	220
3.27967	219
3.28333	220
3.28700	220
3.29067	218
3.29433	216
3.29800	217
3.30167	215
3.30533	211
3.30900	210
3.31267	214
3.31633	217
3.32000	217
3.32367	218
3.32733	216
3.33100	213
3.33467	209
3.33833	205
3.34200	204
3.34567	205
3.34933	206
3.35300	205
3.35667	202
3.36033	198
3.36400	194
3.36767	192
3.37133	192
3.37500	194
3.37867	195
3.38233	195
3.38600	192
3.38967	188
3.39333	187
3.39700	187
3.40067	189
3.40433	188
3.40800	185
3.41167	185
3.41533	185
3.41900	186
3.42267	186
3.42633	186
3.43000	185
3.43367	183
3.43733	178
3.44100	175
3.44467	173
3.44833	172
3.45200	175
3.45567	181
3.45933	185
3.46300	188
3.46667	188
3.47033	188
3.47400	186
3.47767	182
3.48133	179
3.48500	182
3.48867	188
3.49233	197
3.49600	206
3.49967	211
3.50333	211
3.50700	208
3.51067	206
3.51433	203
3.51800	201
3.52167	202
3.52533	201
3.52900	200
3.53267	198
3.53633	192
3.54000	187
3.54367	185
3.54733	182
3.55100	175
3.55467	171
3.55833	166
3.56200	161
3.56567	157
3.56933	159
3.57300	163
3.57667	170
3.58033	177
3.58400	182
3.58767	185
3.59133	186
3.59500	185
3.59867	182
3.60233	176
3.60600	168
3.60967	161
3.61333	158
3.61700	162
3.62067	170
3.62433	179
3.62800	184
3.63167	183
3.63533	178
3.63900	176
3.64267	178
3.64633	181
3.65000	182
3.65367	178
3.65733	169
3.66100	160
3.66467	155
3.66833	155
3.67200	156
3.67567	157
3.67933	155
3.68300	154
3.68667	155
3.69033	156
3.69400	155
3.69767	152
3.70133	151
3.70500	155
3.70867	162
3.71233	165
3.71600	167
3.71967	166
3.72333	164
3.72700	163
3.73067	164
3.73433	166
3.73800	169
3.74167	169
3.74533	168
3.74900	167
3.75267	167
3.75633	165
3.76000	160
3.76367	158
3.76733	157
3.77100	157
3.77467	157
3.77833	154
3.78200	151
3.78567	149
3.78933	146
3.79300	143
3.79667	140
3.80033	140
3.80400	142
3.80767	145
3.81133	151
3.81500	160
3.81867	167
3.82233	170
3.82600	169
3.82967	165
3.83333	161
3.83700	157
3.84067	153
3.84433	152
3.84800	152
3.85167	154
3.85533	158
3.85900	158
3.86267	156
3.86633	152
3.87000	149
3.87367	149
3.87733	149
3.88100	151
3.88467	152
3.88833	149
3.89200	144
3.89567	141
3.89933	144
3.90300	147
3.90667	146
3.91033	143
3.91400	138
3.91767	133
3.92133	131
3.92500	130
3.92867	134
3.93233	139
3.93600	143
3.93967	144
3.94333	143
3.94700	142
3.95067	139
3.95433	132
3.95800	123
3.96167	115
3.96533	115
3.96900	118
3.97267	123
3.97633	126
3.98000	127
3.98367	129
3.98733	131
3.99100	133
3.99467	134
3.99833	131

[Chromatogram (Ch2)]
Interval(msec)	220
# of Points	1091
Start Time(min)	0.002
End Time(min)	3.998
R.Time (min)	Intensity
0.00167	1
0.00533	1
0.00900	1
0.01267	1
0.01633	1
0.02000	1
0.02367	1
0.02733	0
0.03100	-0
0.03467	-1
0.03833	-2
0.04200	-2
0.04567	-2
0.04933	-3
0.05300	-3
0.05667	-3
0.06033	-2
0.06400	-2
0.06767	-2
0.07133	-2
0.07500	-1
0.07867	-1
0.08233	-1
0.08600	-1
0.08967	-1
0.09333	-1
0.09700	-1
0.10067	-1
0.10433	-1
0.10800	-1
0.11167	-2
0.11533	-2
0.11900	-2
0.12267	-2
0.12633	-2
0.13000	-3
0.13367	-2
0.13733	-2
0.14100	-2
0.14467	-2
0.14833	-2
0.15200	-2
0.15567	-2
0.15933	-2
0.16300	-2
0.16667	-3
0.17033	-3
0.17400	-3
0.17767	-4
0.18133	-3
0.18500	-3
0.18867	-3
0.19233	-3
0.19600	-3
0.19967	-3
0.20333	-4
0.20700	-4
0.21067	-4
0.21433	-5
0.21800	-5
0.22167	-5
0.22533	-5
0.22900	-5
0.23267	-5
0.23633	-5
0.24000	-5
0.24367	-4
0.24733	-4
0.25100	-4
0.25467	-3
0.25833	-3
0.26200	-3
0.26567	-3
0.26933	-2
0.27300	-3
0.27667	-3
0.28033	-3
0.28400	-3
0.28767	-3
0.29133	-3
0.29500	-3
0.29867	-4
0.30233	-4
0.30600	-4
0.30967	-4
0.31333	-3
0.31700	-3
0.32067	-3
0.32433	-3
0.32800	-3
0.33167	-2
0.33533	-2
0.33900	-2
0.34267	-2
0.34633	-2
0.35000	-2
0.35367	-2
0.35733	-2
0.36100	-2
0.36467	-3
0.36833	-3
0.37200	-3
0.37567	-3
0.37933	-4
0.38300	-4
0.38667	-4
0.39033	-4
0.39400	-5
0.39767	-5
0.40133	-5
0.40500	-5
0.40867	-5
0.41233	-5
0.41600	-5
0.41967	-5
0.42333	-5
0.42700	-5
0.43067	-6
0.43433	-6
0.43800	-6
0.44167	-6
0.44533	-6
0.44900	-5
0.45267	-5
0.45633	-5
0.46000	-5
0.46367	-5
0.46733	-4
0.47100	-5
0.47467	-5
0.47833	-5
0.48200	-5
0.48567	-5
0.48933	-5
0.49300	-5
0.49667	-5
0.50033	-5
0.50400	-5
0.50767	-5
0.51133	-4
0.51500	-4
0.51867	-4
0.52233	-4
0.52600	-3
0.52967	-3
0.53333	-3
0.53700	-3
0.54067	-3
0.54433	-3
0.54800	-2
0.55167	-2
0.55533	-2
0.55900	-2
0.56267	-1
0.56633	-1
0.57000	-1
0.57367	-1
0.57733	-1
0.58100	-1
0.58467	-2
0.58833	-2
0.59200	-2
0.59567	-2
0.59933	-1
0.60300	-1
0.60667	-1
0.61033	-2
0.61400	-2
0.61767	-2
0.62133	-2
0.62500	-2
0.62867	-2
0.63233	-2
0.63600	-2
0.63967	-2
0.64333	-3
0.64700	-3
0.65067	-3
0.65433	-3
0.65800	-3
0.66167	-3
0.66533	-3
0.66900	-3
0.67267	-3
0.67633	-3
0.68000	-3
0.68367	-3
0.68733	-3
0.69100	-2
0.69467	-2
0.69833	-3
0.70200	-3
0.70567	-3
0.70933	-2
0.71300	-2
0.71667	-2
0.72033	-2
0.72400	-2
0.72767	-2
0.73133	-2
0.73500	-2
0.73867	-2
0.74233	-2
0.74600	-2
0.74967	-2
0.75333	-2
0.75700	-2
0.76067	-2
0.76433	-2
0.76800	-2
0.77167	-3
0.77533	-3
0.77900	-3
0.78267	-4
0.78633	-4
0.79000	-5
0.79367	-5
0.79733	-6
0.80100	-6
0.80467	-6
0.80833	-7
0.81200	-7
0.81567	-7
0.81933	-7
0.82300	-7
0.82667	-7
0.83033	-7
0.83400	-7
0.83767	-7
0.84133	-7
0.84500	-7
0.84867	-7
0.85233	-7
0.85600	-7
0.85967	-6
0.86333	-6
0.86700	-6
0.87067	-6
0.87433	-6
0.87800	-6
0.88167	-7
0.88533	-7
0.88900	-7
0.89267	-7
0.89633	-7
0.90000	-7
0.90367	-7
0.90733	-6
0.91100	-6
0.91467	-5
0.91833	-5
0.92200	-4
0.92567	-4
0.92933	-3
0.93300	-3
0.93667	-3
0.94033	-2
0.94400	-3
0.94767	-3
0.95133	-3
0.95500	-3
0.95867	-3
0.96233	-3
0.96600	-3
0.96967	-3
0.97333	-3
0.97700	-3
0.98067	-3
0.98433	-3
0.98800	-3
0.99167	-4
0.99533	-3
0.99900	-3
1.00267	-3
1.00633	-3
1.01000	-3
1.01367	-4
1.01733	-4
1.02100	-4
1.02467	-4
1.02833	-4
1.03200	-4
1.03567	-4
1.03933	-4
1.04300	-4
1.04667	-4
1.05033	-4
1.05400	-4
1.05767	-4
1.06133	-4
1.06500	-4
1.06867	-4
1.07233	-3
1.07600	-3
1.07967	-3
1.08333	-3
1.08700	-3
1.09067	-3
1.09433	-3
1.09800	-3
1.10167	-3
1.10533	-3
1.10900	-3
1.11267	-3
1.11633	-3
1.12000	-3
1.12367	-3
1.12733	-3
1.13100	-3
1.13467	-3
1.13833	-3
1.14200	-4
1.14567	-4
1.14933	-4
1.15300	-4
1.15667	-4
1.16033	-4
1.16400	-5
1.16767	-5
1.17133	-6
1.17500	-6
1.17867	-6
1.18233	-7
1.18600	-7
1.18967	-8
1.19333	-7
1.19700	-7
1.20067	-7
1.20433	-7
1.20800	-7
1.21167	-7
1.21533	-7
1.21900	-7
1.22267	-7
1.22633	-6
1.23000	-6
1.23367	-5
1.23733	-5
1.24100	-5
1.24467	-5
1.24833	-5
1.25200	-5
1.25567	-5
1.25933	-5
1.26300	-5
1.26667	-5
1.27033	-6
1.27400	-6
1.27767	-6
1.28133	-7
1.28500	-7
1.28867	-7
1.29233	-7
1.29600	-7
1.29967	-7
1.30333	-7
1.30700	-7
1.31067	-7
1.31433	-6
1.31800	-6
1.32167	-6
1.32533	-5
1.32900	-5
1.33267	-5
1.33633	-5
1.34000	-4
1.34367	-4
1.34733	-4
1.35100	-4
1.35467	-4
1.35833	-4
1.36200	-4
1.36567	-4
1.36933	-4
1.37300	-4
1.37667	-4
1.38033	-4
1.38400	-4
1.38767	-4
1.39133	-4
1.39500	-4
1.39867	-3
1.40233	-3
1.40600	-3
1.40967	-2
1.41333	-2
1.41700	-2
1.42067	-1
1.42433	-1
1.42800	-1
1.43167	-1
1.43533	-1
1.43900	-1
1.44267	-2
1.44633	-2
1.45000	-3
1.45367	-3
1.45733	-4
1.46100	-4
1.46467	-5
1.46833	-5
1.47200	-5
1.47567	-5
1.47933	-5
1.48300	-5
1.48667	-5
1.49033	-5
1.49400	-6
1.49767	-6
1.50133	-6
1.50500	-6
1.50867	-6
1.51233	-6
1.51600	-6
1.51967	-6
1.52333	-6
1.52700	-6
1.53067	-6
1.53433	-5
1.53800	-5
1.54167	-5
1.54533	-5
1.54900	-5
1.55267	-5
1.55633	-5
1.56000	-5
1.56367	-5
1.56733	-5
1.57100	-6
1.57467	-6
1.57833	-6
1.58200	-6
1.58567	-6
1.58933	-7
1.59300	-7
1.59667	-8
1.60033	-9
1.60400	-9
1.60767	-11
1.61133	-12
1.61500	-14
1.61867	-17
1.62233	-19
1.62600	-22
1.62967	-24
1.63333	-27
1.63700	-31
1.64067	-34
1.64433	-38
1.64800	-41
1.65167	-45
1.65533	-49
1.65900	-53
1.66267	-58
1.66633	-62
1.67000	-67
1.67367	-72
1.67733	-77
1.68100	-82
1.68467	-87
1.68833	-91
1.69200	-95
1.69567	-98
1.69933	-101
1.70300	-103
1.70667	-105
1.71033	-107
1.71400	-109
1.71767	-110
1.72133	-112
1.72500	-113
1.72867	-114
1.73233	-115
1.73600	-116
1.73967	-117
1.74333	-117
1.74700	-118
1.75067	-119
1.75433	-119
1.75800	-119
1.76167	-118
1.76533	-117
1.76900	-116
1.77267	-116
1.77633	-115
1.78000	-115
1.78367	-116
1.78733	-116
1.79100	-117
1.79467	-118
1.79833	-118
1.80200	-119
1.80567	-120
1.80933	-120
1.81300	-121
1.81667	-121
1.82033	-122
1.82400	-122
1.82767	-123
1.83133	-124
1.83500	-124
1.83867	-124
1.84233	-124
1.84600	-124
1.84967	-124
1.85333	-125
1.85700	-125
1.86067	-125
1.86433	-125
1.86800	-125
1.87167	-125
1.87533	-125
1.87900	-125
1.88267	-124
1.88633	-124
1.89000	-123
1.89367	-123
1.89733	-122
1.90100	-122
1.90467	-121
1.90833	-120
1.91200	-120
1.91567	-119
1.91933	-119
1.92300	-118
1.92667	-118
1.93033	-118
1.93400	-118
1.93767	-118
1.94133	-118
1.94500	-118
1.94867	-118
1.95233	-119
1.95600	-119
1.95967	-119
1.96333	-120
1.96700	-119
1.97067	-119
1.97433	-118
1.97800	-117
1.98167	-117
1.98533	-116
1.98900	-115
1.99267	-114
1.99633	-114
2.00000	-113
2.00367	-112
2.00733	-112
2.01100	-112
2.01467	-112
2.01833	-113
2.02200	-113
2.02567	-113
2.02933	-113
2.03300	-113
2.03667	-113
2.04033	-113
2.04400	-112
2.04767	-112
2.05133	-112
2.05500	-111
2.05867	-110
2.06233	-109
2.06600	-108
2.06967	-107
2.07333	-107
2.07700	-107
2.08067	-106
2.08433	-106
2.08800	-105
2.09167	-105
2.09533	-105
2.09900	-104
2.10267	-104
2.10633	-104
2.11000	-104
2.11367	-104
2.11733	-104
2.12100	-104
2.12467	-105
2.12833	-105
2.13200	-106
2.13567	-105
2.13933	-105
2.14300	-104
2.14667	-103
2.15033	-103
2.15400	-102
2.15767	-101
2.16133	-100
2.16500	-99
2.16867	-99
2.17233	-98
2.17600	-98
2.17967	-98
2.18333	-98
2.18700	-98
2.19067	-97
2.19433	-98
2.19800	-98
2.20167	-98
2.20533	-98
2.20900	-99
2.21267	-99
2.21633	-99
2.22000	-99
2.22367	-98
2.22733	-98
2.23100	-97
2.23467	-96
2.23833	-96
2.24200	-95
2.24567	-95
2.24933	-95
2.25300	-94
2.25667	-93
2.26033	-93
2.26400	-92
2.26767	-92
2.27133	-92
2.27500	-92
2.27867	-92
2.28233	-92
2.28600	-92
2.28967	-93
2.29333	-93
2.29700	-94
2.30067	-94
2.30433	-94
2.30800	-93
2.31167	-92
2.31533	-91
2.31900	-90
2.32267	-89
2.32633	-88
2.33000	-88
2.33367	-87
2.33733	-87
2.34100	-86
2.34467	-85
2.34833	-84
2.35200	-83
2.35567	-82
2.35933	-81
2.36300	-81
2.36667	-80
2.37033	-78
2.37400	-76
2.37767	-74
2.38133	-71
2.38500	-68
2.38867	-64
2.39233	-60
2.39600	-56
2.39967	-52
2.40333	-47
2.40700	-43
2.41067	-39
2.41433	-35
2.41800	-32
2.42167	-29
2.42533	-26
2.42900	-25
2.43267	-23
2.43633	-21
2.44000	-20
2.44367	-18
2.44733	-16
2.45100	-14
2.45467	-12
2.45833	-11
2.46200	-9
2.46567	-8
2.46933	-7
2.47300	-6
2.47667	-5
2.48033	-4
2.48400	-2
2.48767	-1
2.49133	-0
2.49500	1
2.49867	2
2.50233	3
2.50600	4
2.50967	5
2.51333	6
2.51700	6
2.52067	7
2.52433	7
2.52800	8
2.53167	8
2.53533	9
2.53900	10
2.54267	10
2.54633	10
2.55000	10
2.55367	10
2.55733	10
2.56100	10
2.56467	10
2.56833	10
2.57200	11
2.57567	11
2.57933	11
2.58300	12
2.58667	12
2.59033	12
2.59400	12
2.59767	12
2.60133	12
2.60500	12
2.60867	12
2.61233	12
2.61600	12
2.61967	12
2.62333	13
2.62700	13
2.63067	14
2.63433	14
2.63800	15
2.64167	15
2.64533	16
2.64900	16
2.65267	17
2.65633	17
2.66000	18
2.66367	18
2.66733	18
2.67100	18
2.67467	17
2.67833	17
2.68200	17
2.68567	17
2.68933	17
2.69300	17
2.69667	17
2.70033	17
2.70400	16
2.70767	16
2.71133	16
2.71500	17
2.71867	17
2.72233	17
2.72600	17
2.72967	18
2.73333	18
2.73700	19
2.74067	19
2.74433	20
2.74800	20
2.75167	20
2.75533	21
2.75900	21
2.76267	22
2.76633	22
2.77000	22
2.77367	22
2.77733	22
2.78100	22
2.78467	21
2.78833	20
2.79200	20
2.79567	19
2.79933	19
2.80300	19
2.80667	19
2.81033	19
2.81400	19
2.81767	20
2.82133	20
2.82500	21
2.82867	21
2.83233	21
2.83600	21
2.83967	20
2.84333	18
2.84700	13
2.85067	7
2.85433	-3
2.85800	-16
2.86167	-34
2.86533	-55
2.86900	-80
2.87267	-110
2.87633	-143
2.88000	-181
2.88367	-222
2.88733	-266
2.89100	-313
2.89467	-362
2.89833	-413
2.90200	-465
2.90567	-517
2.90933	-571
2.91300	-624
2.91667	-678
2.92033	-731
2.92400	-783
2.92767	-834
2.93133	-887
2.93500	-944
2.93867	-1004
2.94233	-1059
2.94600	-1099
2.94967	-1115
2.95333	-1104
2.95700	-1069
2.96067	-1015
2.96433	-946
2.96800	-869
2.97167	-788
2.97533	-708
2.97900	-630
2.98267	-556
2.98633	-487
2.99000	-425
2.99367	-369
2.99733	-318
3.00100	-274
3.00467	-235
3.00833	-201
3.01200	-172
3.01567	-147
3.01933	-125
3.02300	-106
3.02667	-90
3.03033	-76
3.03400	-64
3.03767	-54
3.04133	-45
3.04500	-37
3.04867	-30
3.05233	-24
3.05600	-19
3.05967	-15
3.06333	-12
3.06700	-9
3.07067	-7
3.07433	-4
3.07800	-2
3.08167	-1
3.08533	1
3.08900	2
3.09267	3
3.09633	4
3.10000	5
3.10367	6
3.10733	7
3.11100	8
3.11467	8
3.11833	9
3.12200	9
3.12567	10
3.12933	10
3.13300	11
3.13667	11
3.14033	11
3.14400	12
3.14767	12
3.15133	13
3.15500	13
3.15867	14
3.16233	14
3.16600	15
3.16967	15
3.17333	15
3.17700	15
3.18067	15
3.18433	16
3.18800	16
3.19167	15
3.19533	15
3.19900	15
3.20267	15
3.20633	15
3.21000	15
3.21367	15
3.21733	15
3.22100	15
3.22467	16
3.22833	16
3.23200	16
3.23567	17
3.23933	17
3.24300	18
3.24667	18
3.25033	18
3.25400	18
3.25767	18
3.26133	18
3.26500	18
3.26867	18
3.27233	18
3.27600	18
3.27967	18
3.28333	18
3.28700	18
3.29067	18
3.29433	18
3.29800	18
3.30167	17
3.30533	18
3.30900	18
3.31267	18
3.31633	18
3.32000	19
3.32367	19
3.32733	20
3.33100	20
3.33467	20
3.33833	21
3.34200	21
3.34567	21
3.34933	21
3.35300	21
3.35667	21
3.36033	21
3.36400	21
3.36767	21
3.37133	21
3.37500	21
3.37867	21
3.38233	21
3.38600	21
3.38967	21
3.39333	21
3.39700	21
3.40067	21
3.40433	21
3.40800	21
3.41167	21
3.41533	22
3.41900	22
3.42267	22
3.42633	22
3.43000	22
3.43367	22
3.43733	23
3.44100	23
3.44467	23
3.44833	23
3.45200	23
3.45567	23
3.45933	23
3.46300	23
3.46667	23
3.47033	23
3.47400	23
3.47767	23
3.48133	23
3.48500	24
3.48867	24
3.49233	23
3.49600	23
3.49967	23
3.50333	23
3.50700	22
3.51067	22
3.51433	22
3.51800	22
3.52167	22
3.52533	22
3.52900	22
3.53267	22
3.53633	22
3.54000	21
3.54367	21
3.54733	21
3.55100	21
3.55467	21
3.55833	21
3.56200	21
3.56567	21
3.56933	21
3.57300	21
3.57667	22
3.58033	22
3.58400	22
3.58767	22
3.59133	22
3.59500	22
3.59867	21
3.60233	21
3.60600	21
3.60967	21
3.61333	21
3.61700	21
3.62067	21
3.62433	20
3.62800	20
3.63167	20
3.63533	20
3.63900	20
3.64267	20
3.64633	20
3.65000	20
3.65367	20
3.65733	20
3.66100	20
3.66467	20
3.66833	20
3.67200	20
3.67567	20
3.67933	20
3.68300	20
3.68667	21
3.69033	21
3.69400	21
3.69767	21
3.70133	21
3.70500	21
3.70867	21
3.71233	21
3.71600	21
3.71967	21
3.72333	21
3.72700	21
3.73067	21
3.73433	21
3.73800	21
3.74167	21
3.74533	21
3.74900	21
3.75267	21
3.75633	21
3.76000	21
3.76367	21
3.76733	21
3.77100	21
3.77467	20
3.77833	20
3.78200	20
3.78567	20
3.78933	21
3.79300	21
3.79667	21
3.80033	21
3.80400	21
3.80767	21
3.81133	21
3.81500	21
3.81867	21
3.82233	21
3.82600	21
3.82967	21
3.83333	21
3.83700	21
3.84067	21
3.84433	21
3.84800	21
3.85167	21
3.85533	21
3.85900	21
3.86267	21
3.86633	21
3.87000	21
3.87367	20
3.87733	20
3.88100	20
3.88467	20
3.88833	20
3.89200	20
3.89567	20
3.89933	19
3.90300	19
3.90667	19
3.91033	19
3.91400	19
3.91767	19
3.92133	19
3.92500	19
3.92867	19
3.93233	19
3.93600	19
3.93967	19
3.94333	19
3.94700	19
3.95067	19
3.95433	19
3.95800	19
3.96167	19
3.96533	19
3.96900	19
3.97267	19
3.97633	19
3.98000	19
3.98367	19
3.98733	19
3.99100	19
3.99467	19
3.99833	19

[Chromatogram (Ch3)]
Interval(msec)	220
# of Points	1091
Start Time(min)	0.002
End Time(min)	3.998
R.Time (min)	Intensity
0.00167	-0
0.00533	-0
0.00900	-1
0.01267	-1
0.01633	0
0.02000	-1
0.02367	-2
0.02733	-3
0.03100	-3
0.03467	-4
0.03833	-4
0.04200	-5
0.04567	-6
0.04933	-7
0.05300	-9
0.05667	-8
0.06033	-6
0.06400	-5
0.06767	-6
0.07133	-5
0.07500	-3
0.07867	-3
0.08233	-3
0.08600	-3
0.08967	-5
0.09333	-7
0.09700	-9
0.10067	-9
0.10433	-10
0.10800	-11
0.11167	-11
0.11533	-12
0.11900	-10
0.12267	-7
0.12633	-5
0.13000	-4
0.13367	-1
0.13733	1
0.14100	4
0.14467	4
0.14833	5
0.15200	4
0.15567	4
0.15933	4
0.16300	3
0.16667	1
0.17033	3
0.17400	2
0.17767	2
0.18133	3
0.18500	3
0.18867	3
0.19233	3
0.19600	4
0.19967	5
0.20333	7
0.20700	9
0.21067	11
0.21433	10
0.21800	8
0.22167	8
0.22533	8
0.22900	9
0.23267	8
0.23633	7
0.24000	7
0.24367	7
0.24733	8
0.25100	10
0.25467	15
0.25833	17
0.26200	19
0.26567	19
0.26933	17
0.27300	17
0.27667	16
0.28033	16
0.28400	17
0.28767	16
0.29133	16
0.29500	14
0.29867	13
0.30233	12
0.30600	14
0.30967	15
0.31333	14
0.31700	14
0.32067	13
0.32433	11
0.32800	8
0.33167	7
0.33533	6
0.33900	9
0.34267	10
0.34633	12
0.35000	14
0.35367	17
0.35733	19
0.36100	19
0.36467	20
0.36833	23
0.37200	25
0.37567	25
0.37933	23
0.38300	21
0.38667	21
0.39033	21
0.39400	24
0.39767	26
0.40133	25
0.40500	22
0.40867	19
0.41233	18
0.41600	19
0.41967	21
0.42333	23
0.42700	23
0.43067	22
0.43433	22
0.43800	24
0.44167	24
0.44533	23
0.44900	22
0.45267	20
0.45633	18
0.46000	18
0.46367	19
0.46733	19
0.47100	20
0.47467	19
0.47833	19
0.48200	21
0.48567	23
0.48933	23
0.49300	23
0.49667	24
0.50033	25
0.50400	27
0.50767	24
0.51133	22
0.51500	22
0.51867	23
0.52233	23
0.52600	23
0.52967	24
0.53333	24
0.53700	24
0.54067	24
0.54433	22
0.54800	19
0.55167	19
0.55533	18
0.55900	19
0.56267	19
0.56633	19
0.57000	20
0.57367	20
0.57733	19
0.58100	21
0.58467	21
0.58833	23
0.59200	24
0.59567	24
0.59933	24
0.60300	25
0.60667	24
0.61033	23
0.61400	22
0.61767	19
0.62133	18
0.62500	19
0.62867	21
0.63233	20
0.63600	20
0.63967	21
0.64333	22
0.64700	22
0.65067	23
0.65433	25
0.65800	24
0.66167	22
0.66533	21
0.66900	21
0.67267	22
0.67633	20
0.68000	18
0.68367	18
0.68733	19
0.69100	21
0.69467	22
0.69833	22
0.70200	21
0.70567	20
0.70933	20
0.71300	21
0.71667	22
0.72033	23
0.72400	24
0.72767	23
0.73133	22
0.73500	20
0.73867	20
0.74233	20
0.74600	20
0.74967	19
0.75333	19
0.75700	21
0.76067	20
0.76433	17
0.76800	15
0.77167	14
0.77533	16
0.77900	17
0.78267	18
0.78633	17
0.79000	19
0.79367	20
0.79733	20
0.80100	22
0.80467	22
0.80833	23
0.81200	23
0.81567	20
0.81933	19
0.82300	20
0.82667	19
0.83033	19
0.83400	19
0.83767	17
0.84133	17
0.84500	19
0.84867	20
0.85233	22
0.85600	23
0.85967	23
0.86333	22
0.86700	21
0.87067	21
0.87433	23
0.87800	25
0.88167	26
0.88533	26
0.88900	25
0.89267	23
0.89633	21
0.90000	20
0.90367	23
0.90733	23
0.91100	22
0.91467	20
0.91833	19
0.92200	20
0.92567	23
0.92933	24
0.93300	23
0.93667	22
0.94033	22
0.94400	22
0.94767	21
0.95133	22
0.95500	21
0.95867	21
0.96233	20
0.96600	19
0.96967	20
0.97333	22
0.97700	24
0.98067	24
0.98433	24
0.98800	21
0.99167	20
0.99533	21
0.99900	21
1.00267	23
1.00633	25
1.01000	26
1.01367	27
1.01733	25
1.02100	23
1.02467	23
1.02833	24
1.03200	25
1.03567	26
1.03933	26
1.04300	25
1.04667	27
1.05033	28
1.05400	31
1.05767	31
1.06133	29
1.06500	26
1.06867	25
1.07233	25
1.07600	25
1.07967	24
1.08333	23
1.08700	23
1.09067	25
1.09433	29
1.09800	30
1.10167	28
1.10533	28
1.10900	29
1.11267	29
1.11633	30
1.12000	33
1.12367	33
1.12733	30
1.13100	30
1.13467	32
1.13833	32
1.14200	30
1.14567	28
1.14933	29
1.15300	32
1.15667	34
1.16033	34
1.16400	34
1.16767	35
1.17133	34
1.17500	32
1.17867	31
1.18233	31
1.18600	29
1.18967	29
1.19333	28
1.19700	28
1.20067	28
1.20433	29
1.20800	32
1.21167	32
1.21533	32
1.21900	35
1.22267	34
1.22633	33
1.23000	33
1.23367	33
1.23733	32
1.24100	31
1.24467	30
1.24833	27
1.25200	27
1.25567	28
1.25933	29
1.26300	31
1.26667	34
1.27033	34
1.27400	34
1.27767	34
1.28133	35
1.28500	35
1.28867	36
1.29233	37
1.29600	38
1.29967	37
1.30333	34
1.30700	34
1.31067	36
1.31433	35
1.31800	33
1.32167	30
1.32533	30
1.32900	33
1.33267	35
1.33633	37
1.34000	38
1.34367	37
1.34733	37
1.35100	37
1.35467	35
1.35833	35
1.36200	36
1.36567	36
1.36933	34
1.37300	33
1.37667	33
1.38033	34
1.38400	36
1.38767	36
1.39133	36
1.39500	37
1.39867	40
1.40233	40
1.40600	39
1.40967	36
1.41333	33
1.41700	35
1.42067	36
1.42433	37
1.42800	36
1.43167	35
1.43533	35
1.43900	37
1.44267	37
1.44633	37
1.45000	39
1.45367	43
1.45733	44
1.46100	44
1.46467	43
1.46833	42
1.47200	41
1.47567	39
1.47933	38
1.48300	36
1.48667	34
1.49033	32
1.49400	32
1.49767	32
1.50133	33
1.50500	34
1.50867	37
1.51233	41
1.51600	45
1.51967	46
1.52333	46
1.52700	45
1.53067	43
1.53433	42
1.53800	42
1.54167	42
1.54533	39
1.54900	35
1.55267	32
1.55633	33
1.56000	35
1.56367	36
1.56733	36
1.57100	38
1.57467	39
1.57833	40
1.58200	40
1.58567	39
1.58933	39
1.59300	41
1.59667	41
1.60033	39
1.60400	39
1.60767	39
1.61133	41
1.61500	42
1.61867	42
1.62233	41
1.62600	41
1.62967	42
1.63333	44
1.63700	43
1.64067	43
1.64433	46
1.64800	48
1.65167	47
1.65533	48
1.65900	49
1.66267	50
1.66633	51
1.67000	54
1.67367	53
1.67733	54
1.68100	54
1.68467	54
1.68833	52
1.69200	51
1.69567	51
1.69933	50
1.70300	49
1.70667	47
1.71033	47
1.71400	48
1.71767	47
1.72133	48
1.72500	50
1.72867	50
1.73233	50
1.73600	53
1.73967	56
1.74333	59
1.74700	61
1.75067	63
1.75433	64
1.75800	64
1.76167	62
1.76533	59
1.76900	59
1.77267	60
1.77633	63
1.78000	65
1.78367	66
1.78733	66
1.79100	66
1.79467	68
1.79833	68
1.80200	68
1.80567	66
1.80933	65
1.81300	67
1.81667	68
1.82033	70
1.82400	69
1.82767	71
1.83133	72
1.83500	72
1.83867	73
1.84233	73
1.84600	73
1.84967	74
1.85333	75
1.85700	75
1.86067	76
1.86433	76
1.86800	77
1.87167	77
1.87533	79
1.87900	80
1.88267	80
1.88633	78
1.89000	79
1.89367	80
1.89733	78
1.90100	78
1.90467	80
1.90833	81
1.91200	80
1.91567	81
1.91933	84
1.92300	85
1.92667	86
1.93033	85
1.93400	85
1.93767	85
1.94133	87
1.94500	88
1.94867	88
1.95233	88
1.95600	85
1.95967	81
1.96333	81
1.96700	84
1.97067	86
1.97433	88
1.97800	92
1.98167	96
1.98533	97
1.98900	95
1.99267	94
1.99633	92
2.00000	93
2.00367	94
2.00733	96
2.01100	100
2.01467	103
2.01833	106
2.02200	108
2.02567	110
2.02933	111
2.03300	113
2.03667	115
2.04033	118
2.04400	120
2.04767	120
2.05133	119
2.05500	119
2.05867	121
2.06233	120
2.06600	118
2.06967	119
2.07333	119
2.07700	120
2.08067	121
2.08433	122
2.08800	122
2.09167	122
2.09533	120
2.09900	119
2.10267	120
2.10633	122
2.11000	122
2.11367	122
2.11733	123
2.12100	124
2.12467	126
2.12833	126
2.13200	126
2.13567	127
2.13933	130
2.14300	132
2.14667	136
2.15033	138
2.15400	138
2.15767	138
2.16133	138
2.16500	139
2.16867	141
2.17233	141
2.17600	143
2.17967	146
2.18333	149
2.18700	150
2.19067	151
2.19433	152
2.19800	151
2.20167	151
2.20533	151
2.20900	152
2.21267	154
2.21633	156
2.22000	157
2.22367	160
2.22733	163
2.23100	164
2.23467	166
2.23833	166
2.24200	166
2.24567	167
2.24933	167
2.25300	168
2.25667	170
2.26033	173
2.26400	175
2.26767	178
2.27133	179
2.27500	180
2.27867	180
2.28233	182
2.28600	184
2.28967	186
2.29333	188
2.29700	187
2.30067	186
2.30433	187
2.30800	191
2.31167	192
2.31533	195
2.31900	198
2.32267	199
2.32633	199
2.33000	200
2.33367	200
2.33733	203
2.34100	207
2.34467	208
2.34833	210
2.35200	213
2.35567	214
2.35933	213
2.36300	215
2.36667	219
2.37033	223
2.37400	224
2.37767	224
2.38133	223
2.38500	221
2.38867	220
2.39233	222
2.39600	226
2.39967	229
2.40333	233
2.40700	238
2.41067	241
2.41433	243
2.41800	246
2.42167	246
2.42533	245
2.42900	247
2.43267	249
2.43633	251
2.44000	254
2.44367	283
2.44733	358
2.45100	440
2.45467	504
2.45833	545
2.46200	552
2.46567	534
2.46933	510
2.47300	488
2.47667	473
2.48033	463
2.48400	454
2.48767	442
2.49133	423
2.49500	401
2.49867	381
2.50233	363
2.50600	349
2.50967	339
2.51333	332
2.51700	328
2.52067	327
2.52433	331
2.52800	338
2.53167	346
2.53533	355
2.53900	362
2.54267	369
2.54633	372
2.55000	370
2.55367	363
2.55733	354
2.56100	346
2.56467	336
2.56833	325
2.57200	317
2.57567	308
2.57933	303
2.58300	299
2.58667	295
2.59033	291
2.59400	286
2.59767	280
2.60133	271
2.60500	257
2.60867	241
2.61233	222
2.61600	203
2.61967	185
2.62333	168
2.62700	149
2.63067	134
2.63433	127
2.63800	126
2.64167	128
2.64533	132
2.64900	136
2.65267	141
2.65633	147
2.66000	156
2.66367	167
2.66733	180
2.67100	191
2.67467	200
2.67833	208
2.68200	215
2.68567	221
2.68933	228
2.69300	234
2.69667	237
2.70033	238
2.70400	239
2.70767	240
2.71133	239
2.71500	238
2.71867	237
2.72233	235
2.72600	232
2.72967	231
2.73333	231
2.73700	232
2.74067	233
2.74433	235
2.74800	235
2.75167	236
2.75533	236
2.75900	236
2.76267	237
2.76633	238
2.77000	239
2.77367	238
2.77733	237
2.78100	237
2.78467	235
2.78833	235
2.79200	235
2.79567	237
2.79933	236
2.80300	235
2.80667	234
2.81033	233
2.81400	236
2.81767	246
2.82133	266
2.82500	307
2.82867	387
2.83233	525
2.83600	743
2.83967	1059
2.84333	1474
2.84700	1978
2.85067	2545
2.85433	3134
2.85800	3693
2.86167	4177
2.86533	4550
2.86900	4786
2.87267	4880
2.87633	4840
2.88000	4690
2.88367	4454
2.88733	4157
2.89100	3826
2.89467	3483
2.89833	3144
2.90200	2818
2.90567	2514
2.90933	2236
2.91300	1988
2.91667	1763
2.92033	1566
2.92400	1391
2.92767	1236
2.93133	1100
2.93500	983
2.93867	879
2.94233	789
2.94600	713
2.94967	647
2.95333	591
2.95700	543
2.96067	501
2.96433	465
2.96800	436
2.97167	409
2.97533	389
2.97900	369
2.98267	352
2.98633	337
2.99000	321
2.99367	309
2.99733	299
3.00100	290
3.00467	279
3.00833	270
3.01200	265
3.01567	261
3.01933	257
3.02300	252
3.02667	250
3.03033	250
3.03400	247
3.03767	244
3.04133	243
3.04500	240
3.04867	237
3.05233	233
3.05600	230
3.05967	228
3.06333	225
3.06700	223
3.07067	218
3.07433	214
3.07800	210
3.08167	208
3.08533	207
3.08900	207
3.09267	206
3.09633	206
3.10000	205
3.10367	202
3.10733	194
3.11100	176
3.11467	149
3.11833	132
3.12200	133
3.12567	147
3.12933	168
3.13300	196
3.13667	229
3.14033	265
3.14400	304
3.14767	343
3.15133	383
3.15500	422
3.15867	458
3.16233	492
3.16600	521
3.16967	543
3.17333	563
3.17700	581
3.18067	592
3.18433	600
3.18800	607
3.19167	615
3.19533	624
3.19900	633
3.20267	642
3.20633	652
3.21000	664
3.21367	676
3.21733	687
3.22100	697
3.22467	708
3.22833	715
3.23200	721
3.23567	727
3.23933	731
3.24300	734
3.24667	739
3.25033	743
3.25400	747
3.25767	751
3.26133	753
3.26500	753
3.26867	754
3.27233	754
3.27600	754
3.27967	752
3.28333	750
3.28700	747
3.29067	745
3.29433	742
3.29800	737
3.30167	733
3.30533	727
3.30900	723
3.31267	718
3.31633	712
3.32000	705
3.32367	699
3.32733	695
3.33100	690
3.33467	683
3.33833	676
3.34200	669
3.34567	664
3.34933	660
3.35300	655
3.35667	651
3.36033	648
3.36400	646
3.36767	642
3.37133	637
3.37500	634
3.37867	629
3.38233	623
3.38600	620
3.38967	620
3.39333	619
3.39700	617
3.40067	616
3.40433	615
3.40800	616
3.41167	616
3.41533	615
3.41900	613
3.42267	612
3.42633	610
3.43000	609
3.43367	609
3.43733	606
3.44100	603
3.44467	602
3.44833	602
3.45200	601
3.45567	601
3.45933	600
3.46300	599
3.46667	599
3.47033	597
3.47400	593
3.47767	590
3.48133	587
3.48500	587
3.48867	590
3.49233	591
3.49600	591
3.49967	589
3.50333	586
3.50700	585
3.51067	582
3.51433	578
3.51800	578
3.52167	577
3.52533	573
3.52900	569
3.53267	567
3.53633	565
3.54000	563
3.54367	561
3.54733	560
3.55100	557
3.55467	556
3.55833	555
3.56200	552
3.56567	550
3.56933	550
3.57300	548
3.57667	547
3.58033	542
3.58400	540
3.58767	537
3.59133	535
3.59500	535
3.59867	534
3.60233	534
3.60600	532
3.60967	531
3.61333	527
3.61700	524
3.62067	523
3.62433	522
3.62800	519
3.63167	519
3.63533	520
3.63900	520
3.64267	519
3.64633	518
3.65000	514
3.65367	512
3.65733	509
3.66100	506
3.66467	504
3.66833	502
3.67200	502
3.67567	501
3.67933	496
3.68300	491
3.68667	490
3.69033	492
3.69400	493
3.69767	490
3.70133	486
3.70500	482
3.70867	481
3.71233	479
3.71600	480
3.71967	481
3.72333	480
3.72700	478
3.73067	478
3.73433	476
3.73800	472
3.74167	471
3.74533	471
3.74900	472
3.75267	472
3.75633	471
3.76000	470
3.76367	471
3.76733	468
3.77100	466
3.77467	466
3.77833	467
3.78200	466
3.78567	466
3.78933	466
3.79300	465
3.79667	466
3.80033	466
3.80400	465
3.80767	462
3.81133	459
3.81500	460
3.81867	462
3.82233	465
3.82600	463
3.82967	461
3.83333	457
3.83700	454
3.84067	454
3.84433	454
3.84800	453
3.85167	453
3.85533	454
3.85900	454
3.86267	455
3.86633	456
3.87000	456
3.87367	457
3.87733	457
3.88100	457
3.88467	455
3.88833	452
3.89200	450
3.89567	448
3.89933	446
3.90300	445
3.90667	443
3.91033	442
3.91400	440
3.91767	440
3.92133	441
3.92500	443
3.92867	446
3.93233	448
3.93600	450
3.93967	449
3.94333	446
3.94700	442
3.95067	439
3.95433	437
3.95800	434
3.96167	433
3.96533	431
3.96900	429
3.97267	429
3.97633	429
3.98000	429
3.98367	428
3.98733	427
3.99100	427
3.99467	428
3.99833	428

[Status Trace (Column Oven Temperature)]
Interval(msec)	1000
# of Points	240
Start Time(min)	0.004
End Time(min)	3.987
Intensity Units	
Intensity Multiplier	1
R.Time (min)	Intensity
0.00395	35.02
0.02062	35.01
0.03728	35.01
0.05395	35.00
0.07062	35.00
0.08728	35.00
0.10395	35.01
0.12062	35.02
0.13728	35.01
0.15395	35.00
0.17062	35.01
0.18728	35.01
0.20395	35.03
0.22062	35.03
0.23728	35.03
0.25395	35.02
0.27062	35.02
0.28728	35.03
0.30395	35.03
0.32062	35.03
0.33728	35.01
0.35395	35.02
0.37062	35.02
0.38728	35.02
0.40395	35.02
0.42062	35.04
0.43728	35.04
0.45395	35.03
0.47062	35.03
0.48728	35.04
0.50395	35.04
0.52062	35.04
0.53728	35.03
0.55395	35.02
0.57062	35.02
0.58728	35.02
0.60395	35.02
0.62062	35.01
0.63728	35.01
0.65395	35.01
0.67062	35.01
0.68728	34.99
0.70395	34.99
0.72062	34.98
0.73728	34.97
0.75395	34.96
0.77062	34.96
0.78728	34.97
0.80395	34.99
0.82062	35.01
0.83728	35.02
0.85395	35.02
0.87062	35.02
0.88728	35.03
0.90395	35.03
0.92062	35.02
0.93728	35.01
0.95395	35.00
0.97062	35.00
0.98728	35.00
1.00395	35.01
1.02062	35.01
1.03728	35.00
1.05395	35.00
1.07062	34.99
1.08728	34.99
1.10395	34.99
1.12062	34.98
1.13728	34.98
1.15395	34.98
1.17062	34.99
1.18728	35.00
1.20395	35.01
1.22062	35.01
1.23728	35.00
1.25395	35.01
1.27062	35.01
1.28728	35.01
1.30395	35.02
1.32062	35.02
1.33728	35.01
1.35395	35.01
1.37062	35.01
1.38728	35.00
1.40395	34.98
1.42062	34.96
1.43728	34.97
1.45395	34.97
1.47062	34.97
1.48728	34.98
1.50395	34.99
1.52062	34.99
1.53728	35.00
1.55395	34.99
1.57062	34.99
1.58728	35.01
1.60395	35.06
1.62062	35.16
1.63728	35.32
1.65395	35.56
1.67062	35.88
1.68728	36.23
1.70395	36.58
1.72062	36.93
1.73728	37.28
1.75395	37.61
1.77062	37.92
1.78728	38.26
1.80395	38.59
1.82062	38.93
1.83728	39.26
1.85395	39.59
1.87062	39.92
1.88728	40.25
1.90395	40.57
1.92062	40.90
1.93728	41.22
1.95395	41.56
1.97062	41.88
1.98728	42.20
2.00395	42.52
2.02062	42.86
2.03728	43.19
2.05395	43.50
2.07062	43.83
2.08728	44.15
2.10395	44.47
2.12062	44.80
2.13728	45.14
2.15395	45.44
2.17062	45.76
2.18728	46.08
2.20395	46.43
2.22062	46.77
2.23728	47.09
2.25395	47.42
2.27062	47.74
2.28728	48.10
2.30395	48.44
2.32062	48.76
2.33728	49.08
2.35395	49.38
2.37062	49.62
2.38728	49.73
2.40395	49.73
2.42062	49.71
2.43728	49.73
2.45395	49.73
2.47062	49.75
2.48728	49.75
2.50395	49.75
2.52062	49.78
2.53728	49.78
2.55395	49.80
2.57062	49.81
2.58728	49.80
2.60395	49.82
2.62062	49.83
2.63728	49.83
2.65395	49.82
2.67062	49.83
2.68728	49.84
2.70395	49.86
2.72062	49.86
2.73728	49.86
2.75395	49.84
2.77062	49.85
2.78728	49.87
2.80395	49.88
2.82062	49.88
2.83728	49.89
2.85395	49.88
2.87062	49.88
2.88728	49.88
2.90395	49.89
2.92062	49.90
2.93728	49.91
2.95395	49.93
2.97062	49.94
2.98728	49.96
3.00395	49.98
3.02062	50.00
3.03728	50.01
3.05395	50.02
3.07062	50.03
3.08728	50.04
3.10395	50.05
3.12062	50.06
3.13728	50.05
3.15395	50.05
3.17062	50.06
3.18728	50.06
3.20395	50.07
3.22062	50.08
3.23728	50.08
3.25395	50.09
3.27062	50.09
3.28728	50.10
3.30395	50.11
3.32062	50.10
3.33728	50.09
3.35395	50.08
3.37062	50.08
3.38728	50.08
3.40395	50.07
3.42062	50.07
3.43728	50.06
3.45395	50.04
3.47062	50.03
3.48728	50.03
3.50395	50.03
3.52062	50.03
3.53728	50.03
3.55395	50.04
3.57062	50.04
3.58728	50.04
3.60395	50.05
3.62062	50.05
3.63728	50.06
3.65395	50.06
3.67062	50.07
3.68728	50.06
3.70395	50.06
3.72062	50.05
3.73728	50.05
3.75395	50.05
3.77062	50.06
3.78728	50.05
3.80395	50.05
3.82062	50.05
3.83728	50.04
3.85395	50.04
3.87062	50.04
3.88728	50.05
3.90395	50.05
3.92062	50.07
3.93728	50.08
3.95395	50.08
3.97062	50.09
3.98728	50.09

[Status Trace (Injection Unit Temperature)]
Interval(msec)	1000
# of Points	240
Start Time(min)	0.004
End Time(min)	3.987
Intensity Units	
Intensity Multiplier	1
R.Time (min)	Intensity
0.00395	99.98
0.02062	99.98
0.03728	99.98
0.05395	99.98
0.07062	99.98
0.08728	99.98
0.10395	99.98
0.12062	99.98
0.13728	99.98
0.15395	99.98
0.17062	99.98
0.18728	99.98
0.20395	99.98
0.22062	99.99
0.23728	99.99
0.25395	99.99
0.27062	99.99
0.28728	99.98
0.30395	99.99
0.32062	99.98
0.33728	99.99
0.35395	99.98
0.37062	99.97
0.38728	99.98
0.40395	99.98
0.42062	99.98
0.43728	99.99
0.45395	99.99
0.47062	99.98
0.48728	99.98
0.50395	99.99
0.52062	99.99
0.53728	99.98
0.55395	99.99
0.57062	99.98
0.58728	99.98
0.60395	99.98
0.62062	99.98
0.63728	99.98
0.65395	99.98
0.67062	99.98
0.68728	99.98
0.70395	99.98
0.72062	99.98
0.73728	99.98
0.75395	99.98
0.77062	99.98
0.78728	99.98
0.80395	99.98
0.82062	99.98
0.83728	99.98
0.85395	99.98
0.87062	99.98
0.88728	99.98
0.90395	99.98
0.92062	99.98
0.93728	99.98
0.95395	99.98
0.97062	99.98
0.98728	99.98
1.00395	99.98
1.02062	99.98
1.03728	99.98
1.05395	99.98
1.07062	99.99
1.08728	99.98
1.10395	99.99
1.12062	99.98
1.13728	99.98
1.15395	99.98
1.17062	99.98
1.18728	99.98
1.20395	99.98
1.22062	99.99
1.23728	99.99
1.25395	99.98
1.27062	99.98
1.28728	99.99
1.30395	99.99
1.32062	99.98
1.33728	99.98
1.35395	99.99
1.37062	99.99
1.38728	99.99
1.40395	99.99
1.42062	99.98
1.43728	99.99
1.45395	99.98
1.47062	99.99
1.48728	99.99
1.50395	99.99
1.52062	99.99
1.53728	99.98
1.55395	99.99
1.57062	99.99
1.58728	99.98
1.60395	99.99
1.62062	99.99
1.63728	99.99
1.65395	99.99
1.67062	99.98
1.68728	99.99
1.70395	99.98
1.72062	99.99
1.73728	99.99
1.75395	99.99
1.77062	99.98
1.78728	99.98
1.80395	99.98
1.82062	99.98
1.83728	99.98
1.85395	99.98
1.87062	99.97
1.88728	99.98
1.90395	99.98
1.92062	99.98
1.93728	99.98
1.95395	99.98
1.97062	99.98
1.98728	99.98
2.00395	99.98
2.02062	99.98
2.03728	99.97
2.05395	99.98
2.07062	99.98
2.08728	99.97
2.10395	99.98
2.12062	99.97
2.13728	99.97
2.15395	99.97
2.17062	99.97
2.18728	99.97
2.20395	99.97
2.22062	99.97
2.23728	99.97
2.25395	99.97
2.27062	99.97
2.28728	99.97
2.30395	99.97
2.32062	99.97
2.33728	99.97
2.35395	99.97
2.37062	99.96
2.38728	99.97
2.40395	99.97
2.42062	99.96
2.43728	99.97
2.45395	99.97
2.47062	99.97
2.48728	99.97
2.50395	99.97
2.52062	99.97
2.53728	99.97
2.55395	99.97
2.57062	99.97
2.58728	99.97
2.60395	99.97
2.62062	99.98
2.63728	99.98
2.65395	99.98
2.67062	99.98
2.68728	99.98
2.70395	99.98
2.72062	99.99
2.73728	99.99
2.75395	99.98
2.77062	99.99
2.78728	99.99
2.80395	99.99
2.82062	100.00
2.83728	99.99
2.85395	100.00
2.87062	100.00
2.88728	100.00
2.90395	100.00
2.92062	100.00
2.93728	100.01
2.95395	100.01
2.97062	100.01
2.98728	100.02
3.00395	100.02
3.02062	100.01
3.03728	100.02
3.05395	100.02
3.07062	100.02
3.08728	100.02
3.10395	100.02
3.12062	100.03
3.13728	100.03
3.15395	100.02
3.17062	100.03
3.18728	100.03
3.20395	100.03
3.22062	100.03
3.23728	100.03
3.25395	100.03
3.27062	100.03
3.28728	100.04
3.30395	100.04
3.32062	100.04
3.33728	100.04
3.35395	100.04
3.37062	100.04
3.38728	100.04
3.40395	100.05
3.42062	100.04
3.43728	100.05
3.45395	100.04
3.47062	100.05
3.48728	100.05
3.50395	100.05
3.52062	100.05
3.53728	100.05
3.55395	100.05
3.57062	100.05
3.58728	100.05
3.60395	100.05
3.62062	100.05
3.63728	100.05
3.65395	100.05
3.67062	100.05
3.68728	100.05
3.70395	100.05
3.72062	100.05
3.73728	100.04
3.75395	100.05
3.77062	100.05
3.78728	100.05
3.80395	100.05
3.82062	100.05
3.83728	100.05
3.85395	100.05
3.87062	100.05
3.88728	100.05
3.90395	100.05
3.92062	100.05
3.93728	100.05
3.95395	100.05
3.97062	100.05
3.98728	100.05

[Status Trace (Carrier Gas Pressure)]
Interval(msec)	1000
# of Points	240
Start Time(min)	0.004
End Time(min)	3.987
Intensity Units	
Intensity Multiplier	1
R.Time (min)	Intensity
0.00395	58.00
0.02062	55.99
0.03728	56.61
0.05395	58.74
0.07062	59.77
0.08728	58.18
0.10395	57.97
0.12062	58.01
0.13728	58.01
0.15395	58.01
0.17062	58.00
0.18728	58.00
0.20395	58.00
0.22062	58.00
0.23728	58.00
0.25395	58.00
0.27062	58.00
0.28728	58.00
0.30395	58.00
0.32062	58.00
0.33728	58.00
0.35395	58.00
0.37062	58.00
0.38728	58.00
0.40395	58.00
0.42062	58.00
0.43728	58.00
0.45395	58.00
0.47062	58.00
0.48728	58.00
0.50395	58.00
0.52062	58.00
0.53728	58.00
0.55395	58.00
0.57062	58.00
0.58728	58.00
0.60395	58.00
0.62062	58.00
0.63728	58.00
0.65395	58.00
0.67062	58.00
0.68728	58.00
0.70395	58.00
0.72062	58.00
0.73728	58.00
0.75395	58.00
0.77062	58.00
0.78728	58.00
0.80395	58.00
0.82062	58.00
0.83728	58.00
0.85395	58.00
0.87062	58.00
0.88728	58.00
0.90395	58.00
0.92062	58.00
0.93728	58.00
0.95395	58.00
0.97062	58.00
0.98728	58.00
1.00395	58.00
1.02062	58.00
1.03728	58.00
1.05395	58.00
1.07062	58.00
1.08728	58.00
1.10395	58.00
1.12062	58.00
1.13728	58.00
1.15395	58.00
1.17062	58.00
1.18728	58.00
1.20395	58.00
1.22062	58.00
1.23728	58.00
1.25395	58.00
1.27062	58.00
1.28728	58.00
1.30395	58.00
1.32062	58.00
1.33728	58.00
1.35395	58.00
1.37062	58.00
1.38728	58.00
1.40395	58.00
1.42062	58.00
1.43728	58.00
1.45395	58.00
1.47062	58.00
1.48728	58.00
1.50395	58.00
1.52062	58.00
1.53728	58.00
1.55395	58.00
1.57062	58.00
1.58728	58.00
1.60395	58.00
1.62062	58.00
1.63728	58.01
1.65395	58.01
1.67062	58.01
1.68728	58.01
1.70395	58.00
1.72062	58.00
1.73728	58.00
1.75395	58.00
1.77062	58.00
1.78728	58.00
1.80395	58.00
1.82062	58.00
1.83728	58.00
1.85395	58.00
1.87062	58.00
1.88728	58.00
1.90395	58.00
1.92062	58.00
1.93728	58.00
1.95395	58.00
1.97062	58.00
1.98728	58.00
2.00395	58.00
2.02062	58.00
2.03728	58.00
2.05395	58.00
2.07062	58.00
2.08728	58.00
2.10395	58.00
2.12062	58.00
2.13728	58.00
2.15395	58.00
2.17062	58.00
2.18728	58.00
2.20395	58.00
2.22062	58.00
2.23728	58.00
2.25395	58.00
2.27062	58.00
2.28728	58.00
2.30395	58.00
2.32062	58.00
2.33728	58.00
2.35395	58.00
2.37062	58.00
2.38728	57.99
2.40395	57.99
2.42062	58.00
2.43728	58.00
2.45395	58.00
2.47062	58.00
2.48728	58.00
2.50395	57.97
2.52062	57.99
2.53728	57.99
2.55395	58.00
2.57062	58.00
2.58728	58.00
2.60395	58.00
2.62062	58.00
2.63728	58.00
2.65395	58.00
2.67062	58.00
2.68728	58.00
2.70395	58.00
2.72062	58.00
2.73728	58.00
2.75395	58.00
2.77062	58.00
2.78728	58.00
2.80395	58.00
2.82062	58.00
2.83728	58.00
2.85395	58.00
2.87062	58.00
2.88728	58.00
2.90395	58.00
2.92062	58.00
2.93728	58.00
2.95395	58.00
2.97062	58.00
2.98728	58.00
3.00395	58.00
3.02062	58.00
3.03728	58.00
3.05395	58.00
3.07062	58.00
3.08728	58.00
3.10395	58.00
3.12062	58.00
3.13728	58.00
3.15395	58.00
3.17062	58.00
3.18728	58.00
3.20395	58.00
3.22062	58.00
3.23728	58.00
3.25395	58.00
3.27062	58.00
3.28728	58.00
3.30395	58.00
3.32062	58.00
3.33728	58.00
3.35395	58.00
3.37062	58.00
3.38728	58.00
3.40395	58.00
3.42062	58.00
3.43728	58.00
3.45395	58.00
3.47062	58.00
3.48728	58.00
3.50395	58.00
3.52062	58.00
3.53728	58.00
3.55395	58.00
3.57062	58.00
3.58728	58.00
3.60395	58.00
3.62062	58.00
3.63728	58.00
3.65395	58.00
3.67062	58.00
3.68728	58.00
3.70395	58.00
3.72062	58.00
3.73728	58.00
3.75395	58.00
3.77062	58.00
3.78728	58.00
3.80395	58.00
3.82062	58.00
3.83728	58.00
3.85395	58.00
3.87062	58.00
3.88728	58.00
3.90395	58.00
3.92062	58.00
3.93728	58.00
3.95395	58.00
3.97062	58.00
3.98728	58.00

[Status Trace (Carrier Gas Flow)]
Interval(msec)	1000
# of Points	240
Start Time(min)	0.004
End Time(min)	3.987
Intensity Units	
Intensity Multiplier	1
R.Time (min)	Intensity
0.00395	34.52
0.02062	34.58
0.03728	34.55
0.05395	34.55
0.07062	34.50
0.08728	34.52
0.10395	34.52
0.12062	34.51
0.13728	34.52
0.15395	34.52
0.17062	34.52
0.18728	34.52
0.20395	34.52
0.22062	34.52
0.23728	34.52
0.25395	34.52
0.27062	34.52
0.28728	34.52
0.30395	34.51
0.32062	34.52
0.33728	34.52
0.35395	34.52
0.37062	34.51
0.38728	34.52
0.40395	34.52
0.42062	34.52
0.43728	34.52
0.45395	34.52
0.47062	34.51
0.48728	34.52
0.50395	34.52
0.52062	34.52
0.53728	34.52
0.55395	34.52
0.57062	34.52
0.58728	34.52
0.60395	34.52
0.62062	34.52
0.63728	34.52
0.65395	34.52
0.67062	34.52
0.68728	34.52
0.70395	34.52
0.72062	34.52
0.73728	34.52
0.75395	34.52
0.77062	34.52
0.78728	34.52
0.80395	34.52
0.82062	34.52
0.83728	34.52
0.85395	34.52
0.87062	34.52
0.88728	34.52
0.90395	34.52
0.92062	34.52
0.93728	34.52
0.95395	34.52
0.97062	34.52
0.98728	34.51
1.00395	34.52
1.02062	34.52
1.03728	34.52
1.05395	34.52
1.07062	34.52
1.08728	34.52
1.10395	34.52
1.12062	34.52
1.13728	34.52
1.15395	34.52
1.17062	34.52
1.18728	34.52
1.20395	34.52
1.22062	34.52
1.23728	34.52
1.25395	34.51
1.27062	34.52
1.28728	34.52
1.30395	34.51
1.32062	34.53
1.33728	34.52
1.35395	34.52
1.37062	34.51
1.38728	34.52
1.40395	34.52
1.42062	34.51
1.43728	34.51
1.45395	34.52
1.47062	34.52
1.48728	34.52
1.50395	34.52
1.52062	34.52
1.53728	34.52
1.55395	34.52
1.57062	34.52
1.58728	34.51
1.60395	34.52
1.62062	34.52
1.63728	34.52
1.65395	34.52
1.67062	34.52
1.68728	34.52
1.70395	34.52
1.72062	34.52
1.73728	34.52
1.75395	34.52
1.77062	34.52
1.78728	34.52
1.80395	34.52
1.82062	34.52
1.83728	34.52
1.85395	34.52
1.87062	34.52
1.88728	34.52
1.90395	34.52
1.92062	34.52
1.93728	34.52
1.95395	34.52
1.97062	34.52
1.98728	34.52
2.00395	34.52
2.02062	34.52
2.03728	34.52
2.05395	34.52
2.07062	34.52
2.08728	34.52
2.10395	34.52
2.12062	34.52
2.13728	34.52
2.15395	34.52
2.17062	34.52
2.18728	34.52
2.20395	34.52
2.22062	34.52
2.23728	34.52
2.25395	34.52
2.27062	34.52
2.28728	34.52
2.30395	34.52
2.32062	34.52
2.33728	34.52
2.35395	34.52
2.37062	34.52
2.38728	34.52
2.40395	34.52
2.42062	34.52
2.43728	34.52
2.45395	34.52
2.47062	34.52
2.48728	34.52
2.50395	34.67
2.52062	34.52
2.53728	34.52
2.55395	34.52
2.57062	34.52
2.58728	34.51
2.60395	34.52
2.62062	34.52
2.63728	34.52
2.65395	34.52
2.67062	34.52
2.68728	34.52
2.70395	34.52
2.72062	34.52
2.73728	34.52
2.75395	34.52
2.77062	34.52
2.78728	34.52
2.80395	34.52
2.82062	34.52
2.83728	34.52
2.85395	34.52
2.87062	34.52
2.88728	34.52
2.90395	34.52
2.92062	34.52
2.93728	34.52
2.95395	34.52
2.97062	34.52
2.98728	34.52
3.00395	34.52
3.02062	34.52
3.03728	34.52
3.05395	34.52
3.07062	34.52
3.08728	34.52
3.10395	34.52
3.12062	34.51
3.13728	34.52
3.15395	34.52
3.17062	34.52
3.18728	34.52
3.20395	34.52
3.22062	34.52
3.23728	34.52
3.25395	34.52
3.27062	34.51
3.28728	34.52
3.30395	34.52
3.32062	34.52
3.33728	34.51
3.35395	34.52
3.37062	34.52
3.38728	34.52
3.40395	34.52
3.42062	34.52
3.43728	34.52
3.45395	34.52
3.47062	34.52
3.48728	34.52
3.50395	34.52
3.52062	34.52
3.53728	34.52
3.55395	34.52
3.57062	34.51
3.58728	34.52
3.60395	34.52
3.62062	34.52
3.63728	34.52
3.65395	34.52
3.67062	34.52
3.68728	34.52
3.70395	34.52
3.72062	34.52
3.73728	34.52
3.75395	34.52
3.77062	34.52
3.78728	34.52
3.80395	34.52
3.82062	34.52
3.83728	34.52
3.85395	34.52
3.87062	34.52
3.88728	34.52
3.90395	34.52
3.92062	34.52
3.93728	34.52
3.95395	34.52
3.97062	34.52
3.98728	34.52

[Status Trace (Column Flow)]
Interval(msec)	1000
# of Points	240
Start Time(min)	0.004
End Time(min)	3.987
Intensity Units	
Intensity Multiplier	1
R.Time (min)	Intensity
0.00395	5.57
0.02062	5.34
0.03728	5.41
0.05395	5.66
0.07062	5.78
0.08728	5.59
0.10395	5.57
0.12062	5.57
0.13728	5.57
0.15395	5.57
0.17062	5.57
0.18728	5.57
0.20395	5.57
0.22062	5.57
0.23728	5.57
0.25395	5.57
0.27062	5.57
0.28728	5.57
0.30395	5.57
0.32062	5.57
0.33728	5.57
0.35395	5.57
0.37062	5.57
0.38728	5.57
0.40395	5.57
0.42062	5.57
0.43728	5.57
0.45395	5.57
0.47062	5.57
0.48728	5.57
0.50395	5.57
0.52062	5.57
0.53728	5.57
0.55395	5.57
0.57062	5.57
0.58728	5.57
0.60395	5.57
0.62062	5.57
0.63728	5.57
0.65395	5.57
0.67062	5.57
0.68728	5.57
0.70395	5.57
0.72062	5.57
0.73728	5.57
0.75395	5.57
0.77062	5.57
0.78728	5.57
0.80395	5.57
0.82062	5.57
0.83728	5.57
0.85395	5.57
0.87062	5.57
0.88728	5.57
0.90395	5.57
0.92062	5.57
0.93728	5.57
0.95395	5.57
0.97062	5.57
0.98728	5.57
1.00395	5.57
1.02062	5.57
1.03728	5.57
1.05395	5.57
1.07062	5.57
1.08728	5.57
1.10395	5.57
1.12062	5.57
1.13728	5.57
1.15395	5.57
1.17062	5.57
1.18728	5.57
1.20395	5.57
1.22062	5.57
1.23728	5.57
1.25395	5.57
1.27062	5.57
1.28728	5.57
1.30395	5.57
1.32062	5.57
1.33728	5.57
1.35395	5.57
1.37062	5.57
1.38728	5.57
1.40395	5.57
1.42062	5.57
1.43728	5.57
1.45395	5.57
1.47062	5.57
1.48728	5.57
1.50395	5.57
1.52062	5.57
1.53728	5.57
1.55395	5.57
1.57062	5.57
1.58728	5.57
1.60395	5.57
1.62062	5.57
1.63728	5.56
1.65395	5.56
1.67062	5.55
1.68728	5.53
1.70395	5.52
1.72062	5.51
1.73728	5.50
1.75395	5.49
1.77062	5.48
1.78728	5.47
1.80395	5.46
1.82062	5.45
1.83728	5.44
1.85395	5.43
1.87062	5.42
1.88728	5.41
1.90395	5.40
1.92062	5.39
1.93728	5.38
1.95395	5.37
1.97062	5.36
1.98728	5.35
2.00395	5.34
2.02062	5.33
2.03728	5.32
2.05395	5.31
2.07062	5.30
2.08728	5.29
2.10395	5.28
2.12062	5.27
2.13728	5.26
2.15395	5.26
2.17062	5.25
2.18728	5.24
2.20395	5.23
2.22062	5.22
2.23728	5.21
2.25395	5.20
2.27062	5.19
2.28728	5.18
2.30395	5.17
2.32062	5.16
2.33728	5.15
2.35395	5.14
2.37062	5.14
2.38728	5.13
2.40395	5.13
2.42062	5.13
2.43728	5.13
2.45395	5.13
2.47062	5.13
2.48728	5.13
2.50395	5.13
2.52062	5.13
2.53728	5.13
2.55395	5.13
2.57062	5.13
2.58728	5.13
2.60395	5.13
2.62062	5.13
2.63728	5.13
2.65395	5.13
2.67062	5.13
2.68728	5.13
2.70395	5.13
2.72062	5.13
2.73728	5.13
2.75395	5.13
2.77062	5.13
2.78728	5.13
2.80395	5.13
2.82062	5.13
2.83728	5.13
2.85395	5.13
2.87062	5.13
2.88728	5.13
2.90395	5.13
2.92062	5.13
2.93728	5.13
2.95395	5.13
2.97062	5.13
2.98728	5.13
3.00395	5.13
3.02062	5.13
3.03728	5.13
3.05395	5.13
3.07062	5.12
3.08728	5.12
3.10395	5.12
3.12062	5.12
3.13728	5.12
3.15395	5.12
3.17062	5.12
3.18728	5.12
3.20395	5.12
3.22062	5.12
3.23728	5.12
3.25395	5.12
3.27062	5.12
3.28728	5.12
3.30395	5.12
3.32062	5.12
3.33728	5.12
3.35395	5.12
3.37062	5.12
3.38728	5.12
3.40395	5.12
3.42062	5.12
3.43728	5.12
3.45395	5.12
3.47062	5.12
3.48728	5.13
3.50395	5.13
3.52062	5.13
3.53728	5.13
3.55395	5.12
3.57062	5.12
3.58728	5.12
3.60395	5.12
3.62062	5.12
3.63728	5.12
3.65395	5.12
3.67062	5.12
3.68728	5.12
3.70395	5.12
3.72062	5.12
3.73728	5.12
3.75395	5.12
3.77062	5.12
3.78728	5.12
3.80395	5.12
3.82062	5.12
3.83728	5.12
3.85395	5.12
3.87062	5.12
3.88728	5.12
3.90395	5.12
3.92062	5.12
3.93728	5.12
3.95395	5.12
3.97062	5.12
3.98728	5.12

[Status Trace (Linear Velocity)]
Interval(msec)	1000
# of Points	240
Start Time(min)	0.004
End Time(min)	3.987
Intensity Units	
Intensity Multiplier	1
R.Time (min)	Intensity
0.00395	39.03
0.02062	37.71
0.03728	38.12
0.05395	39.51
0.07062	40.19
0.08728	39.15
0.10395	39.01
0.12062	39.03
0.13728	39.03
0.15395	39.03
0.17062	39.03
0.18728	39.03
0.20395	39.03
0.22062	39.03
0.23728	39.03
0.25395	39.03
0.27062	39.03
0.28728	39.03
0.30395	39.03
0.32062	39.03
0.33728	39.03
0.35395	39.03
0.37062	39.03
0.38728	39.03
0.40395	39.03
0.42062	39.03
0.43728	39.02
0.45395	39.03
0.47062	39.03
0.48728	39.03
0.50395	39.03
0.52062	39.03
0.53728	39.03
0.55395	39.03
0.57062	39.03
0.58728	39.03
0.60395	39.03
0.62062	39.03
0.63728	39.03
0.65395	39.03
0.67062	39.03
0.68728	39.03
0.70395	39.03
0.72062	39.03
0.73728	39.03
0.75395	39.03
0.77062	39.03
0.78728	39.03
0.80395	39.03
0.82062	39.03
0.83728	39.03
0.85395	39.03
0.87062	39.03
0.88728	39.03
0.90395	39.03
0.92062	39.03
0.93728	39.03
0.95395	39.03
0.97062	39.03
0.98728	39.03
1.00395	39.03
1.02062	39.03
1.03728	39.03
1.05395	39.03
1.07062	39.03
1.08728	39.03
1.10395	39.03
1.12062	39.03
1.13728	39.03
1.15395	39.03
1.17062	39.03
1.18728	39.03
1.20395	39.03
1.22062	39.03
1.23728	39.03
1.25395	39.03
1.27062	39.03
1.28728	39.03
1.30395	39.03
1.32062	39.03
1.33728	39.03
1.35395	39.03
1.37062	39.03
1.38728	39.03
1.40395	39.03
1.42062	39.03
1.43728	39.03
1.45395	39.03
1.47062	39.03
1.48728	39.03
1.50395	39.03
1.52062	39.03
1.53728	39.03
1.55395	39.03
1.57062	39.03
1.58728	39.03
1.60395	39.02
1.62062	39.02
1.63728	39.00
1.65395	38.98
1.67062	38.95
1.68728	38.91
1.70395	38.88
1.72062	38.85
1.73728	38.81
1.75395	38.78
1.77062	38.75
1.78728	38.72
1.80395	38.69
1.82062	38.65
1.83728	38.62
1.85395	38.60
1.87062	38.56
1.88728	38.53
1.90395	38.50
1.92062	38.47
1.93728	38.44
1.95395	38.41
1.97062	38.38
1.98728	38.35
2.00395	38.32
2.02062	38.29
2.03728	38.26
2.05395	38.23
2.07062	38.20
2.08728	38.17
2.10395	38.14
2.12062	38.11
2.13728	38.08
2.15395	38.05
2.17062	38.02
2.18728	38.00
2.20395	37.97
2.22062	37.93
2.23728	37.90
2.25395	37.88
2.27062	37.85
2.28728	37.81
2.30395	37.78
2.32062	37.75
2.33728	37.73
2.35395	37.70
2.37062	37.68
2.38728	37.66
2.40395	37.66
2.42062	37.67
2.43728	37.67
2.45395	37.67
2.47062	37.67
2.48728	37.67
2.50395	37.65
2.52062	37.66
2.53728	37.66
2.55395	37.66
2.57062	37.66
2.58728	37.66
2.60395	37.66
2.62062	37.66
2.63728	37.66
2.65395	37.66
2.67062	37.66
2.68728	37.66
2.70395	37.66
2.72062	37.66
2.73728	37.66
2.75395	37.66
2.77062	37.66
2.78728	37.66
2.80395	37.65
2.82062	37.65
2.83728	37.65
2.85395	37.65
2.87062	37.66
2.88728	37.65
2.90395	37.65
2.92062	37.65
2.93728	37.65
2.95395	37.65
2.97062	37.65
2.98728	37.65
3.00395	37.65
3.02062	37.64
3.03728	37.64
3.05395	37.64
3.07062	37.64
3.08728	37.64
3.10395	37.64
3.12062	37.64
3.13728	37.64
3.15395	37.64
3.17062	37.64
3.18728	37.64
3.20395	37.64
3.22062	37.64
3.23728	37.64
3.25395	37.64
3.27062	37.64
3.28728	37.64
3.30395	37.63
3.32062	37.63
3.33728	37.64
3.35395	37.64
3.37062	37.64
3.38728	37.64
3.40395	37.64
3.42062	37.64
3.43728	37.64
3.45395	37.64
3.47062	37.64
3.48728	37.64
3.50395	37.64
3.52062	37.64
3.53728	37.64
3.55395	37.64
3.57062	37.64
3.58728	37.64
3.60395	37.64
3.62062	37.64
3.63728	37.64
3.65395	37.64
3.67062	37.64
3.68728	37.64
3.70395	37.64
3.72062	37.64
3.73728	37.64
3.75395	37.64
3.77062	37.64
3.78728	37.64
3.80395	37.64
3.82062	37.64
3.83728	37.64
3.85395	37.64
3.87062	37.64
3.88728	37.64
3.90395	37.64
3.92062	37.64
3.93728	37.64
3.95395	37.64
3.97062	37.64
3.98728	37.64

