[Header]
Application Name	LabSolutions
Version	5.110
Data File Name	C:\Users\User\Desktop\GC Analyses\Jack\Nachusa Grasslands Sampling\T0 Timepoint July 12th\T0_07122022_006.gcd
Output Date	3/14/2023
Output Time	3:40:33 PM

[File Information]
Type	Data File
Generated	3/7/2023 2:21:01 PM
Generated by	System Administrator
Modified	3/7/2023 2:27:33 PM
Modified by	System Administrator

[Sample Information]
Operator Name	System Administrator
Acquired	3/7/2023 2:23:32 PM
Sample Type	0:Unknown
Level	0
Sample Name	006
Sample ID	006
ISTD Amount1	1
ISTD Amount2	1
ISTD Amount3	1
ISTD Amount4	1
ISTD Amount5	1
ISTD Amount6	1
ISTD Amount7	1
ISTD Amount8	1
ISTD Amount9	1
ISTD Amount10	1
ISTD Amount11	1
ISTD Amount12	1
ISTD Amount13	1
ISTD Amount14	1
ISTD Amount15	1
ISTD Amount16	1
ISTD Amount17	1
ISTD Amount18	1
ISTD Amount19	1
ISTD Amount20	1
ISTD Amount21	1
ISTD Amount22	1
ISTD Amount23	1
ISTD Amount24	1
ISTD Amount25	1
ISTD Amount26	1
ISTD Amount27	1
ISTD Amount28	1
ISTD Amount29	1
ISTD Amount30	1
ISTD Amount31	1
ISTD Amount32	1
Sample Amount	1
Dilution Factor	1
Vial#	5
Injection Volume	1
Injection Count	1
Bar Code	

[Original Files]
Data File	C:\Users\User\Desktop\GC Analyses\Jack\Nachusa Grasslands Sampling\T0 Timepoint July 12th\T0_07122022_006.gcd
Method File	C:\LabSolutions\Data\GHG_4min_2022\ghg3_togas_w_acet_4 min_new_int.gcm
Batch File	C:\LabSolutions\Data\AutoSamplerTesting\T0_07122022.gcb
Report Format File	c:\LabSolutions\System\DEFAULT.lsr

[File Description]


[Configuration]
Instrument Name	C0B7VH3-Instrument1
Instrument #	1
Line #	1
# of Detectors	3
Detector ID	DET#1	DET#2	DET#3
Detector Name	FID	PTCD	ECD
# of Channels	1	1	1

[Peak Table(Ch1)]
# of Peaks	3
Peak#	R.Time	I.Time	F.Time	Area	Height	A/H	Conc.	Mark	ID#	Name	k'	Plate #	Plate Ht.	Tailing	Resolution	Sep.Factor	Area Ratio	Height Ratio	Conc. %	Norm Conc.
1	1.476	1.439	1.538	24324	11345	2.144	171.729	   	1	CO	0.000	9010	16.647	1.362	0.000	0.000	0	0	30.594	30.594
2	1.567	1.538	1.644	5043	2342	2.153	97.507	 V 	2	CH4	0.062	10241	14.646	0.000	1.477	0.000	0	0	17.371	17.371
3	2.000	1.952	2.488	1163765	546528	2.129	292.073	   	3	CO2	0.355	17380	8.631	1.176	7.056	5.720	0	0	52.034	52.034

[Peak Table(Ch2)]
# of Peaks	0

[Peak Table(Ch3)]
# of Peaks	4
Peak#	R.Time	I.Time	F.Time	Area	Height	A/H	Conc.	Mark	ID#	Name	k'	Plate #	Plate Ht.	Tailing	Resolution	Sep.Factor	Area Ratio	Height Ratio	Conc. %	Norm Conc.
1	2.462	2.110	2.524	2181	341	6.406	0.000	   			0.000	4536	33.067	0.000	0.000	0.000	0	0	0.000	0.000
2	2.557	2.524	2.638	1025	211	4.856	0.000	 V 			0.039	854	175.670	0.000	0.384	0.000	0	0	0.000	0.000
3	2.744	2.653	2.785	670	117	5.742	0.017	   	1	N2O	0.115	927	161.864	0.000	0.526	2.962	0	0	3.531	3.531
4	2.873	2.785	3.140	18297	4735	3.864	0.467	 V 	1	N2O	0.167	13404	11.191	1.619	0.558	1.455	0	0	96.469	96.469

[Compound Results(Ch1)]
# of IDs	6
ID#	Name	R.Time	Area	Height	Conc.	Curve	3rd	2nd	1st	Constant	Area Ratio	Height Ratio	Conc. %	Norm Conc.
1	CO	1.476	24324	11345	171.729	Linear	0.000000e+00	0.000000e+00	1.416423e+002	0.000000e+00	0	0	30.594	30.594
2	CH4	1.567	5043	2342	97.507	Linear	0.000000e+00	0.000000e+00	5.171738e+001	0.000000e+00	0	0	17.371	17.371
3	CO2	2.000	1163765	546528	292.073	Linear	0.000000e+00	0.000000e+00	3.984494e+003	0.000000e+00	0	0	52.034	52.034
4	Ethylene	0.000	0	0	0.000	Linear	0.000000e+00	0.000000e+00	0.000000e+00	0.000000e+00	0	0	0.000	0.000
5	Acetylene	0.000	0	0	0.000	Linear	0.000000e+00	0.000000e+00	0.000000e+00	0.000000e+00	0	0	0.000	0.000
6	Ethane	0.000	0	0	0.000	Linear	0.000000e+00	0.000000e+00	0.000000e+00	0.000000e+00	0	0	0.000	0.000

[Compound Results(Ch2)]
# of IDs	5
ID#	Name	R.Time	Area	Height	Conc.	Curve	3rd	2nd	1st	Constant	Area Ratio	Height Ratio	Conc. %	Norm Conc.
1	Hydrogen	0.000	0	0	0.000	Linear	0.000000e+00	0.000000e+00	0.000000e+00	0.000000e+00	0	0	0.000	0.000
2	Oxygen	0.000	0	0	0.000	Linear	0.000000e+00	0.000000e+00	0.000000e+00	0.000000e+00	0	0	0.000	0.000
3	Nitrogen	0.000	0	0	0.000	Linear	0.000000e+00	0.000000e+00	0.000000e+00	0.000000e+00	0	0	0.000	0.000
4	Methane	0.000	0	0	0.000	Linear	0.000000e+00	0.000000e+00	0.000000e+00	0.000000e+00	0	0	0.000	0.000
5	Carbon Monoxide	0.000	0	0	0.000	Linear	0.000000e+00	0.000000e+00	0.000000e+00	0.000000e+00	0	0	0.000	0.000

[Compound Results(Ch3)]
# of IDs	2
ID#	Name	R.Time	Area	Height	Conc.	Curve	3rd	2nd	1st	Constant	Area Ratio	Height Ratio	Conc. %	Norm Conc.
1	N2O	2.873	18967	4852	0.484	Linear	0.000000e+00	0.000000e+00	3.915173e+004	0.000000e+00	0	0	100.000	100.000
2	SF6	0.000	0	0	0.000	Linear	0.000000e+00	0.000000e+00	0.000000e+00	0.000000e+00	0	0	0.000	0.000

[Group Results(Ch1)]
# of Groups	0

[Group Results(Ch2)]
# of Groups	0

[Group Results(Ch3)]
# of Groups	0

[Chromatogram (Ch1)]
Interval(msec)	220
# of Points	1091
Start Time(min)	0.002
End Time(min)	3.998
R.Time (min)	Intensity
0.00167	-11
0.00533	-7
0.00900	-4
0.01267	-3
0.01633	-6
0.02000	-11
0.02367	-14
0.02733	-12
0.03100	-6
0.03467	-3
0.03833	-3
0.04200	-8
0.04567	-12
0.04933	-12
0.05300	-8
0.05667	-5
0.06033	-4
0.06400	-3
0.06767	-3
0.07133	-3
0.07500	-3
0.07867	-5
0.08233	-9
0.08600	-15
0.08967	-20
0.09333	-21
0.09700	-20
0.10067	-19
0.10433	-14
0.10800	-6
0.11167	-3
0.11533	-4
0.11900	-7
0.12267	-12
0.12633	-18
0.13000	-23
0.13367	-28
0.13733	-25
0.14100	-21
0.14467	-19
0.14833	-19
0.15200	-18
0.15567	-18
0.15933	-23
0.16300	-30
0.16667	-34
0.17033	-34
0.17400	-31
0.17767	-26
0.18133	-24
0.18500	-20
0.18867	-15
0.19233	-10
0.19600	-8
0.19967	-8
0.20333	-8
0.20700	-7
0.21067	-7
0.21433	-5
0.21800	-3
0.22167	-2
0.22533	-4
0.22900	-4
0.23267	-5
0.23633	-8
0.24000	-9
0.24367	-7
0.24733	-6
0.25100	-5
0.25467	-0
0.25833	3
0.26200	1
0.26567	-4
0.26933	-6
0.27300	-6
0.27667	-5
0.28033	-4
0.28400	-2
0.28767	1
0.29133	2
0.29500	-0
0.29867	-5
0.30233	-8
0.30600	-9
0.30967	-9
0.31333	-11
0.31700	-12
0.32067	-12
0.32433	-13
0.32800	-16
0.33167	-19
0.33533	-24
0.33900	-25
0.34267	-21
0.34633	-15
0.35000	-11
0.35367	-11
0.35733	-16
0.36100	-23
0.36467	-30
0.36833	-34
0.37200	-37
0.37567	-37
0.37933	-35
0.38300	-31
0.38667	-25
0.39033	-19
0.39400	-15
0.39767	-12
0.40133	-11
0.40500	-11
0.40867	-11
0.41233	-9
0.41600	-8
0.41967	-10
0.42333	-12
0.42700	-17
0.43067	-21
0.43433	-23
0.43800	-26
0.44167	-28
0.44533	-27
0.44900	-23
0.45267	-17
0.45633	-10
0.46000	-4
0.46367	-3
0.46733	-5
0.47100	-8
0.47467	-9
0.47833	-9
0.48200	-8
0.48567	-5
0.48933	2
0.49300	7
0.49667	6
0.50033	-2
0.50400	-12
0.50767	-24
0.51133	-35
0.51500	-42
0.51867	-47
0.52233	-50
0.52600	-51
0.52967	-50
0.53333	-49
0.53700	-44
0.54067	-36
0.54433	-29
0.54800	-27
0.55167	-25
0.55533	-23
0.55900	-22
0.56267	-22
0.56633	-22
0.57000	-19
0.57367	-13
0.57733	-8
0.58100	-9
0.58467	-14
0.58833	-20
0.59200	-29
0.59567	-39
0.59933	-43
0.60300	-44
0.60667	-44
0.61033	-44
0.61400	-44
0.61767	-42
0.62133	-36
0.62500	-31
0.62867	-29
0.63233	-27
0.63600	-22
0.63967	-17
0.64333	-17
0.64700	-23
0.65067	-35
0.65433	-48
0.65800	-54
0.66167	-52
0.66533	-46
0.66900	-38
0.67267	-33
0.67633	-29
0.68000	-24
0.68367	-23
0.68733	-25
0.69100	-24
0.69467	-21
0.69833	-19
0.70200	-17
0.70567	-16
0.70933	-22
0.71300	-33
0.71667	-41
0.72033	-44
0.72400	-40
0.72767	-34
0.73133	-29
0.73500	-28
0.73867	-32
0.74233	-38
0.74600	-43
0.74967	-46
0.75333	-49
0.75700	-52
0.76067	-55
0.76433	-55
0.76800	-52
0.77167	-44
0.77533	-36
0.77900	-31
0.78267	-30
0.78633	-32
0.79000	-32
0.79367	-31
0.79733	-31
0.80100	-34
0.80467	-38
0.80833	-39
0.81200	-44
0.81567	-53
0.81933	-63
0.82300	-69
0.82667	-68
0.83033	-61
0.83400	-54
0.83767	-48
0.84133	-43
0.84500	-34
0.84867	-22
0.85233	-11
0.85600	-6
0.85967	-7
0.86333	-9
0.86700	-14
0.87067	-21
0.87433	-26
0.87800	-35
0.88167	-48
0.88533	-60
0.88900	-67
0.89267	-68
0.89633	-66
0.90000	-65
0.90367	-64
0.90733	-63
0.91100	-61
0.91467	-59
0.91833	-61
0.92200	-66
0.92567	-72
0.92933	-75
0.93300	-77
0.93667	-75
0.94033	-72
0.94400	-69
0.94767	-67
0.95133	-62
0.95500	-54
0.95867	-46
0.96233	-43
0.96600	-45
0.96967	-47
0.97333	-48
0.97700	-51
0.98067	-56
0.98433	-58
0.98800	-55
0.99167	-46
0.99533	-38
0.99900	-36
1.00267	-38
1.00633	-42
1.01000	-47
1.01367	-53
1.01733	-56
1.02100	-55
1.02467	-53
1.02833	-54
1.03200	-57
1.03567	-60
1.03933	-61
1.04300	-62
1.04667	-64
1.05033	-65
1.05400	-67
1.05767	-71
1.06133	-76
1.06500	-79
1.06867	-80
1.07233	-76
1.07600	-72
1.07967	-69
1.08333	-69
1.08700	-68
1.09067	-64
1.09433	-64
1.09800	-67
1.10167	-71
1.10533	-72
1.10900	-69
1.11267	-64
1.11633	-60
1.12000	-60
1.12367	-61
1.12733	-61
1.13100	-58
1.13467	-54
1.13833	-50
1.14200	-46
1.14567	-43
1.14933	-40
1.15300	-41
1.15667	-46
1.16033	-52
1.16400	-56
1.16767	-58
1.17133	-61
1.17500	-64
1.17867	-68
1.18233	-74
1.18600	-80
1.18967	-83
1.19333	-85
1.19700	-85
1.20067	-85
1.20433	-81
1.20800	-74
1.21167	-66
1.21533	-59
1.21900	-55
1.22267	-54
1.22633	-57
1.23000	-60
1.23367	-65
1.23733	-73
1.24100	-80
1.24467	-87
1.24833	-92
1.25200	-92
1.25567	-90
1.25933	-87
1.26300	-87
1.26667	-90
1.27033	-91
1.27400	-86
1.27767	-77
1.28133	-68
1.28500	-63
1.28867	-62
1.29233	-62
1.29600	-65
1.29967	-69
1.30333	-74
1.30700	-77
1.31067	-76
1.31433	-74
1.31800	-72
1.32167	-71
1.32533	-69
1.32900	-66
1.33267	-64
1.33633	-62
1.34000	-64
1.34367	-71
1.34733	-79
1.35100	-84
1.35467	-88
1.35833	-89
1.36200	-86
1.36567	-79
1.36933	-76
1.37300	-77
1.37667	-79
1.38033	-79
1.38400	-77
1.38767	-74
1.39133	-73
1.39500	-75
1.39867	-76
1.40233	-74
1.40600	-73
1.40967	-76
1.41333	-80
1.41700	-84
1.42067	-87
1.42433	-89
1.42800	-92
1.43167	-95
1.43533	-95
1.43900	-81
1.44267	-10
1.44633	177
1.45000	626
1.45367	1665
1.45733	3432
1.46100	5601
1.46467	7701
1.46833	9430
1.47200	10648
1.47567	11261
1.47933	11170
1.48300	10349
1.48667	8942
1.49033	7247
1.49400	5577
1.49767	4136
1.50133	2990
1.50500	2133
1.50867	1516
1.51233	1081
1.51600	776
1.51967	567
1.52333	426
1.52700	328
1.53067	258
1.53433	209
1.53800	185
1.54167	215
1.54533	363
1.54900	664
1.55267	1070
1.55633	1490
1.56000	1850
1.56367	2111
1.56733	2252
1.57100	2249
1.57467	2081
1.57833	1772
1.58200	1392
1.58567	1022
1.58933	712
1.59300	477
1.59667	312
1.60033	198
1.60400	121
1.60767	68
1.61133	35
1.61500	17
1.61867	7
1.62233	-2
1.62600	-16
1.62967	-33
1.63333	-51
1.63700	-68
1.64067	-83
1.64433	-95
1.64800	-102
1.65167	-103
1.65533	-101
1.65900	-97
1.66267	-94
1.66633	-91
1.67000	-90
1.67367	-89
1.67733	-85
1.68100	-81
1.68467	-77
1.68833	-73
1.69200	-71
1.69567	-74
1.69933	-76
1.70300	-74
1.70667	-69
1.71033	-65
1.71400	-64
1.71767	-61
1.72133	-60
1.72500	-62
1.72867	-64
1.73233	-66
1.73600	-68
1.73967	-73
1.74333	-81
1.74700	-92
1.75067	-99
1.75433	-102
1.75800	-100
1.76167	-98
1.76533	-97
1.76900	-95
1.77267	-91
1.77633	-86
1.78000	-82
1.78367	-84
1.78733	-88
1.79100	-87
1.79467	-80
1.79833	-71
1.80200	-69
1.80567	-75
1.80933	-84
1.81300	-91
1.81667	-94
1.82033	-98
1.82400	-103
1.82767	-110
1.83133	-119
1.83500	-125
1.83867	-126
1.84233	-123
1.84600	-117
1.84967	-112
1.85333	-106
1.85700	-95
1.86067	-84
1.86433	-80
1.86800	-84
1.87167	-89
1.87533	-94
1.87900	-97
1.88267	-96
1.88633	-94
1.89000	-90
1.89367	-86
1.89733	-86
1.90100	-88
1.90467	-91
1.90833	-95
1.91200	-98
1.91567	-100
1.91933	-99
1.92300	-93
1.92667	-85
1.93033	-79
1.93400	-76
1.93767	-79
1.94133	-80
1.94500	-77
1.94867	-74
1.95233	-66
1.95600	4
1.95967	440
1.96333	2494
1.96700	9802
1.97067	29645
1.97433	71483
1.97800	141180
1.98167	234628
1.98533	337895
1.98900	433505
1.99267	506337
1.99633	545815
2.00000	546489
2.00367	509687
2.00733	444156
2.01100	363665
2.01467	282195
2.01833	209807
2.02200	151241
2.02567	106948
2.02933	74997
2.03300	52672
2.03667	37380
2.04033	27013
2.04400	19997
2.04767	15223
2.05133	11937
2.05500	9636
2.05867	7991
2.06233	6784
2.06600	5872
2.06967	5168
2.07333	4611
2.07700	4163
2.08067	3797
2.08433	3491
2.08800	3226
2.09167	2995
2.09533	2794
2.09900	2620
2.10267	2468
2.10633	2332
2.11000	2210
2.11367	2094
2.11733	1983
2.12100	1880
2.12467	1786
2.12833	1698
2.13200	1619
2.13567	1547
2.13933	1481
2.14300	1422
2.14667	1370
2.15033	1320
2.15400	1273
2.15767	1229
2.16133	1190
2.16500	1154
2.16867	1118
2.17233	1080
2.17600	1042
2.17967	1004
2.18333	966
2.18700	926
2.19067	892
2.19433	868
2.19800	849
2.20167	833
2.20533	816
2.20900	798
2.21267	777
2.21633	757
2.22000	740
2.22367	723
2.22733	702
2.23100	678
2.23467	657
2.23833	642
2.24200	628
2.24567	615
2.24933	602
2.25300	591
2.25667	580
2.26033	570
2.26400	563
2.26767	558
2.27133	548
2.27500	535
2.27867	518
2.28233	501
2.28600	486
2.28967	472
2.29333	457
2.29700	446
2.30067	440
2.30433	437
2.30800	434
2.31167	430
2.31533	426
2.31900	422
2.32267	419
2.32633	415
2.33000	411
2.33367	406
2.33733	401
2.34100	400
2.34467	399
2.34833	392
2.35200	380
2.35567	367
2.35933	359
2.36300	353
2.36667	345
2.37033	338
2.37400	332
2.37767	329
2.38133	327
2.38500	324
2.38867	322
2.39233	319
2.39600	316
2.39967	310
2.40333	305
2.40700	299
2.41067	293
2.41433	289
2.41800	290
2.42167	294
2.42533	299
2.42900	299
2.43267	296
2.43633	294
2.44000	295
2.44367	301
2.44733	309
2.45100	311
2.45467	305
2.45833	290
2.46200	274
2.46567	260
2.46933	252
2.47300	248
2.47667	246
2.48033	245
2.48400	243
2.48767	240
2.49133	238
2.49500	237
2.49867	236
2.50233	238
2.50600	240
2.50967	240
2.51333	242
2.51700	244
2.52067	246
2.52433	247
2.52800	249
2.53167	249
2.53533	246
2.53900	245
2.54267	245
2.54633	242
2.55000	239
2.55367	235
2.55733	232
2.56100	236
2.56467	244
2.56833	253
2.57200	260
2.57567	263
2.57933	259
2.58300	250
2.58667	237
2.59033	225
2.59400	219
2.59767	218
2.60133	220
2.60500	224
2.60867	225
2.61233	222
2.61600	218
2.61967	215
2.62333	210
2.62700	203
2.63067	200
2.63433	199
2.63800	201
2.64167	203
2.64533	203
2.64900	201
2.65267	200
2.65633	199
2.66000	198
2.66367	199
2.66733	202
2.67100	209
2.67467	216
2.67833	221
2.68200	224
2.68567	226
2.68933	228
2.69300	230
2.69667	234
2.70033	237
2.70400	238
2.70767	237
2.71133	233
2.71500	229
2.71867	225
2.72233	225
2.72600	229
2.72967	230
2.73333	227
2.73700	222
2.74067	219
2.74433	221
2.74800	223
2.75167	224
2.75533	224
2.75900	227
2.76267	230
2.76633	233
2.77000	236
2.77367	241
2.77733	246
2.78100	247
2.78467	249
2.78833	248
2.79200	247
2.79567	250
2.79933	263
2.80300	276
2.80667	282
2.81033	284
2.81400	285
2.81767	289
2.82133	298
2.82500	303
2.82867	303
2.83233	303
2.83600	302
2.83967	301
2.84333	300
2.84700	301
2.85067	299
2.85433	296
2.85800	293
2.86167	293
2.86533	295
2.86900	299
2.87267	304
2.87633	305
2.88000	304
2.88367	304
2.88733	309
2.89100	317
2.89467	325
2.89833	328
2.90200	324
2.90567	319
2.90933	313
2.91300	309
2.91667	303
2.92033	295
2.92400	291
2.92767	288
2.93133	288
2.93500	292
2.93867	295
2.94233	296
2.94600	297
2.94967	297
2.95333	298
2.95700	299
2.96067	299
2.96433	300
2.96800	302
2.97167	305
2.97533	309
2.97900	312
2.98267	315
2.98633	318
2.99000	325
2.99367	333
2.99733	338
3.00100	335
3.00467	326
3.00833	316
3.01200	308
3.01567	305
3.01933	309
3.02300	316
3.02667	323
3.03033	329
3.03400	332
3.03767	331
3.04133	325
3.04500	317
3.04867	311
3.05233	304
3.05600	298
3.05967	295
3.06333	294
3.06700	294
3.07067	294
3.07433	296
3.07800	296
3.08167	296
3.08533	299
3.08900	301
3.09267	303
3.09633	305
3.10000	309
3.10367	318
3.10733	333
3.11100	345
3.11467	352
3.11833	348
3.12200	337
3.12567	323
3.12933	311
3.13300	304
3.13667	300
3.14033	298
3.14400	297
3.14767	294
3.15133	291
3.15500	294
3.15867	305
3.16233	316
3.16600	325
3.16967	330
3.17333	328
3.17700	323
3.18067	316
3.18433	312
3.18800	310
3.19167	310
3.19533	308
3.19900	304
3.20267	299
3.20633	294
3.21000	290
3.21367	289
3.21733	290
3.22100	293
3.22467	300
3.22833	306
3.23200	311
3.23567	316
3.23933	320
3.24300	320
3.24667	321
3.25033	323
3.25400	326
3.25767	328
3.26133	328
3.26500	323
3.26867	317
3.27233	314
3.27600	313
3.27967	313
3.28333	312
3.28700	313
3.29067	311
3.29433	307
3.29800	303
3.30167	299
3.30533	300
3.30900	302
3.31267	306
3.31633	311
3.32000	320
3.32367	325
3.32733	326
3.33100	323
3.33467	318
3.33833	317
3.34200	316
3.34567	316
3.34933	315
3.35300	313
3.35667	313
3.36033	314
3.36400	313
3.36767	312
3.37133	312
3.37500	312
3.37867	312
3.38233	311
3.38600	311
3.38967	309
3.39333	304
3.39700	301
3.40067	300
3.40433	303
3.40800	309
3.41167	312
3.41533	310
3.41900	307
3.42267	305
3.42633	308
3.43000	310
3.43367	305
3.43733	297
3.44100	289
3.44467	284
3.44833	285
3.45200	290
3.45567	296
3.45933	298
3.46300	296
3.46667	294
3.47033	294
3.47400	292
3.47767	287
3.48133	283
3.48500	283
3.48867	287
3.49233	296
3.49600	305
3.49967	309
3.50333	308
3.50700	304
3.51067	297
3.51433	290
3.51800	285
3.52167	282
3.52533	280
3.52900	278
3.53267	276
3.53633	275
3.54000	275
3.54367	271
3.54733	267
3.55100	264
3.55467	261
3.55833	259
3.56200	258
3.56567	260
3.56933	264
3.57300	271
3.57667	276
3.58033	277
3.58400	272
3.58767	262
3.59133	253
3.59500	248
3.59867	245
3.60233	242
3.60600	241
3.60967	243
3.61333	248
3.61700	256
3.62067	258
3.62433	255
3.62800	253
3.63167	255
3.63533	258
3.63900	256
3.64267	250
3.64633	246
3.65000	245
3.65367	247
3.65733	252
3.66100	257
3.66467	261
3.66833	263
3.67200	298
3.67567	342
3.67933	350
3.68300	340
3.68667	326
3.69033	308
3.69400	288
3.69767	268
3.70133	251
3.70500	243
3.70867	240
3.71233	239
3.71600	239
3.71967	239
3.72333	238
3.72700	234
3.73067	232
3.73433	232
3.73800	234
3.74167	237
3.74533	238
3.74900	236
3.75267	234
3.75633	238
3.76000	243
3.76367	246
3.76733	247
3.77100	249
3.77467	252
3.77833	255
3.78200	253
3.78567	248
3.78933	241
3.79300	238
3.79667	238
3.80033	239
3.80400	241
3.80767	247
3.81133	250
3.81500	249
3.81867	243
3.82233	236
3.82600	231
3.82967	232
3.83333	235
3.83700	237
3.84067	237
3.84433	237
3.84800	235
3.85167	230
3.85533	224
3.85900	221
3.86267	222
3.86633	224
3.87000	226
3.87367	228
3.87733	231
3.88100	232
3.88467	230
3.88833	224
3.89200	217
3.89567	215
3.89933	218
3.90300	223
3.90667	227
3.91033	228
3.91400	226
3.91767	219
3.92133	209
3.92500	201
3.92867	198
3.93233	200
3.93600	205
3.93967	210
3.94333	213
3.94700	211
3.95067	206
3.95433	201
3.95800	198
3.96167	196
3.96533	199
3.96900	207
3.97267	216
3.97633	224
3.98000	227
3.98367	225
3.98733	219
3.99100	214
3.99467	211
3.99833	208

[Chromatogram (Ch2)]
Interval(msec)	220
# of Points	1091
Start Time(min)	0.002
End Time(min)	3.998
R.Time (min)	Intensity
0.00167	0
0.00533	0
0.00900	0
0.01267	0
0.01633	0
0.02000	0
0.02367	0
0.02733	0
0.03100	0
0.03467	1
0.03833	1
0.04200	1
0.04567	1
0.04933	1
0.05300	1
0.05667	1
0.06033	1
0.06400	1
0.06767	1
0.07133	1
0.07500	1
0.07867	2
0.08233	2
0.08600	2
0.08967	2
0.09333	2
0.09700	2
0.10067	3
0.10433	3
0.10800	3
0.11167	3
0.11533	3
0.11900	4
0.12267	4
0.12633	3
0.13000	3
0.13367	3
0.13733	3
0.14100	3
0.14467	3
0.14833	3
0.15200	3
0.15567	3
0.15933	3
0.16300	3
0.16667	3
0.17033	3
0.17400	3
0.17767	3
0.18133	3
0.18500	3
0.18867	2
0.19233	2
0.19600	2
0.19967	1
0.20333	1
0.20700	1
0.21067	0
0.21433	0
0.21800	0
0.22167	0
0.22533	0
0.22900	0
0.23267	1
0.23633	1
0.24000	1
0.24367	2
0.24733	2
0.25100	2
0.25467	2
0.25833	2
0.26200	2
0.26567	2
0.26933	3
0.27300	3
0.27667	3
0.28033	3
0.28400	3
0.28767	3
0.29133	3
0.29500	3
0.29867	3
0.30233	2
0.30600	2
0.30967	2
0.31333	1
0.31700	1
0.32067	1
0.32433	1
0.32800	1
0.33167	1
0.33533	0
0.33900	0
0.34267	0
0.34633	1
0.35000	1
0.35367	1
0.35733	1
0.36100	1
0.36467	1
0.36833	2
0.37200	2
0.37567	2
0.37933	2
0.38300	2
0.38667	2
0.39033	2
0.39400	2
0.39767	2
0.40133	2
0.40500	1
0.40867	1
0.41233	1
0.41600	1
0.41967	1
0.42333	1
0.42700	1
0.43067	1
0.43433	0
0.43800	0
0.44167	0
0.44533	0
0.44900	0
0.45267	0
0.45633	0
0.46000	1
0.46367	1
0.46733	1
0.47100	2
0.47467	2
0.47833	2
0.48200	3
0.48567	3
0.48933	3
0.49300	3
0.49667	4
0.50033	4
0.50400	4
0.50767	4
0.51133	3
0.51500	3
0.51867	3
0.52233	3
0.52600	2
0.52967	2
0.53333	2
0.53700	2
0.54067	1
0.54433	1
0.54800	1
0.55167	1
0.55533	0
0.55900	0
0.56267	0
0.56633	0
0.57000	0
0.57367	1
0.57733	1
0.58100	2
0.58467	2
0.58833	2
0.59200	2
0.59567	2
0.59933	2
0.60300	1
0.60667	1
0.61033	1
0.61400	1
0.61767	1
0.62133	1
0.62500	2
0.62867	2
0.63233	2
0.63600	2
0.63967	2
0.64333	2
0.64700	1
0.65067	1
0.65433	1
0.65800	1
0.66167	0
0.66533	0
0.66900	0
0.67267	0
0.67633	0
0.68000	0
0.68367	1
0.68733	1
0.69100	1
0.69467	1
0.69833	1
0.70200	0
0.70567	0
0.70933	0
0.71300	0
0.71667	0
0.72033	0
0.72400	0
0.72767	1
0.73133	1
0.73500	2
0.73867	2
0.74233	2
0.74600	2
0.74967	2
0.75333	1
0.75700	1
0.76067	0
0.76433	-0
0.76800	-1
0.77167	-1
0.77533	-1
0.77900	-1
0.78267	-1
0.78633	-1
0.79000	-0
0.79367	-0
0.79733	0
0.80100	0
0.80467	-0
0.80833	-0
0.81200	-0
0.81567	-1
0.81933	-1
0.82300	-1
0.82667	-1
0.83033	-2
0.83400	-2
0.83767	-2
0.84133	-2
0.84500	-3
0.84867	-3
0.85233	-3
0.85600	-3
0.85967	-3
0.86333	-2
0.86700	-2
0.87067	-2
0.87433	-2
0.87800	-1
0.88167	-1
0.88533	-0
0.88900	0
0.89267	0
0.89633	1
0.90000	1
0.90367	2
0.90733	2
0.91100	2
0.91467	2
0.91833	2
0.92200	3
0.92567	3
0.92933	3
0.93300	4
0.93667	4
0.94033	4
0.94400	4
0.94767	3
0.95133	3
0.95500	3
0.95867	3
0.96233	2
0.96600	2
0.96967	1
0.97333	1
0.97700	0
0.98067	0
0.98433	-0
0.98800	-1
0.99167	-1
0.99533	-1
0.99900	-1
1.00267	-1
1.00633	-1
1.01000	-1
1.01367	-1
1.01733	-1
1.02100	-1
1.02467	-1
1.02833	-0
1.03200	-0
1.03567	0
1.03933	0
1.04300	0
1.04667	0
1.05033	-0
1.05400	-0
1.05767	-1
1.06133	-1
1.06500	-1
1.06867	-1
1.07233	-2
1.07600	-2
1.07967	-2
1.08333	-2
1.08700	-2
1.09067	-2
1.09433	-2
1.09800	-2
1.10167	-1
1.10533	-1
1.10900	-1
1.11267	-0
1.11633	0
1.12000	1
1.12367	1
1.12733	1
1.13100	2
1.13467	2
1.13833	2
1.14200	2
1.14567	3
1.14933	3
1.15300	3
1.15667	3
1.16033	2
1.16400	2
1.16767	2
1.17133	2
1.17500	2
1.17867	1
1.18233	1
1.18600	1
1.18967	1
1.19333	1
1.19700	1
1.20067	1
1.20433	1
1.20800	0
1.21167	0
1.21533	0
1.21900	-0
1.22267	-0
1.22633	-0
1.23000	-0
1.23367	-0
1.23733	-0
1.24100	-1
1.24467	-1
1.24833	-1
1.25200	-2
1.25567	-2
1.25933	-2
1.26300	-3
1.26667	-3
1.27033	-3
1.27400	-3
1.27767	-3
1.28133	-3
1.28500	-3
1.28867	-3
1.29233	-2
1.29600	-2
1.29967	-2
1.30333	-2
1.30700	-1
1.31067	-1
1.31433	-1
1.31800	-1
1.32167	-1
1.32533	-1
1.32900	-1
1.33267	-2
1.33633	-2
1.34000	-2
1.34367	-2
1.34733	-1
1.35100	-1
1.35467	-1
1.35833	-0
1.36200	-0
1.36567	0
1.36933	0
1.37300	1
1.37667	1
1.38033	1
1.38400	1
1.38767	1
1.39133	1
1.39500	0
1.39867	0
1.40233	1
1.40600	1
1.40967	1
1.41333	1
1.41700	1
1.42067	1
1.42433	1
1.42800	1
1.43167	1
1.43533	1
1.43900	1
1.44267	1
1.44633	1
1.45000	2
1.45367	2
1.45733	2
1.46100	2
1.46467	2
1.46833	2
1.47200	2
1.47567	2
1.47933	2
1.48300	2
1.48667	1
1.49033	1
1.49400	0
1.49767	0
1.50133	-0
1.50500	-1
1.50867	-1
1.51233	-1
1.51600	-2
1.51967	-2
1.52333	-2
1.52700	-2
1.53067	-3
1.53433	-3
1.53800	-3
1.54167	-4
1.54533	-4
1.54900	-4
1.55267	-4
1.55633	-4
1.56000	-4
1.56367	-4
1.56733	-4
1.57100	-4
1.57467	-4
1.57833	-4
1.58200	-4
1.58567	-4
1.58933	-5
1.59300	-5
1.59667	-5
1.60033	-6
1.60400	-6
1.60767	-7
1.61133	-9
1.61500	-10
1.61867	-12
1.62233	-14
1.62600	-16
1.62967	-19
1.63333	-22
1.63700	-25
1.64067	-28
1.64433	-31
1.64800	-34
1.65167	-38
1.65533	-42
1.65900	-46
1.66267	-50
1.66633	-55
1.67000	-60
1.67367	-65
1.67733	-70
1.68100	-75
1.68467	-81
1.68833	-86
1.69200	-91
1.69567	-95
1.69933	-98
1.70300	-101
1.70667	-104
1.71033	-105
1.71400	-107
1.71767	-108
1.72133	-108
1.72500	-109
1.72867	-109
1.73233	-110
1.73600	-110
1.73967	-110
1.74333	-109
1.74700	-109
1.75067	-109
1.75433	-109
1.75800	-110
1.76167	-110
1.76533	-111
1.76900	-112
1.77267	-112
1.77633	-113
1.78000	-114
1.78367	-114
1.78733	-115
1.79100	-116
1.79467	-116
1.79833	-116
1.80200	-116
1.80567	-116
1.80933	-117
1.81300	-117
1.81667	-118
1.82033	-118
1.82400	-118
1.82767	-118
1.83133	-118
1.83500	-118
1.83867	-118
1.84233	-118
1.84600	-118
1.84967	-118
1.85333	-117
1.85700	-117
1.86067	-117
1.86433	-116
1.86800	-116
1.87167	-115
1.87533	-115
1.87900	-114
1.88267	-114
1.88633	-114
1.89000	-114
1.89367	-114
1.89733	-113
1.90100	-113
1.90467	-113
1.90833	-113
1.91200	-112
1.91567	-112
1.91933	-112
1.92300	-112
1.92667	-112
1.93033	-112
1.93400	-111
1.93767	-111
1.94133	-112
1.94500	-112
1.94867	-112
1.95233	-112
1.95600	-112
1.95967	-112
1.96333	-113
1.96700	-113
1.97067	-113
1.97433	-114
1.97800	-114
1.98167	-113
1.98533	-113
1.98900	-112
1.99267	-111
1.99633	-110
2.00000	-109
2.00367	-109
2.00733	-109
2.01100	-108
2.01467	-108
2.01833	-108
2.02200	-108
2.02567	-108
2.02933	-107
2.03300	-107
2.03667	-107
2.04033	-107
2.04400	-106
2.04767	-105
2.05133	-105
2.05500	-104
2.05867	-104
2.06233	-104
2.06600	-104
2.06967	-103
2.07333	-103
2.07700	-102
2.08067	-102
2.08433	-102
2.08800	-102
2.09167	-101
2.09533	-101
2.09900	-102
2.10267	-102
2.10633	-101
2.11000	-101
2.11367	-100
2.11733	-100
2.12100	-99
2.12467	-99
2.12833	-98
2.13200	-98
2.13567	-98
2.13933	-98
2.14300	-98
2.14667	-97
2.15033	-97
2.15400	-96
2.15767	-95
2.16133	-95
2.16500	-95
2.16867	-94
2.17233	-94
2.17600	-94
2.17967	-95
2.18333	-95
2.18700	-95
2.19067	-95
2.19433	-95
2.19800	-94
2.20167	-94
2.20533	-93
2.20900	-93
2.21267	-94
2.21633	-94
2.22000	-93
2.22367	-92
2.22733	-91
2.23100	-90
2.23467	-90
2.23833	-89
2.24200	-89
2.24567	-89
2.24933	-90
2.25300	-90
2.25667	-90
2.26033	-90
2.26400	-90
2.26767	-90
2.27133	-90
2.27500	-89
2.27867	-88
2.28233	-88
2.28600	-87
2.28967	-87
2.29333	-87
2.29700	-86
2.30067	-86
2.30433	-85
2.30800	-85
2.31167	-84
2.31533	-83
2.31900	-83
2.32267	-83
2.32633	-84
2.33000	-84
2.33367	-84
2.33733	-84
2.34100	-83
2.34467	-82
2.34833	-81
2.35200	-80
2.35567	-78
2.35933	-76
2.36300	-74
2.36667	-72
2.37033	-70
2.37400	-67
2.37767	-63
2.38133	-60
2.38500	-56
2.38867	-52
2.39233	-48
2.39600	-43
2.39967	-40
2.40333	-36
2.40700	-33
2.41067	-30
2.41433	-27
2.41800	-24
2.42167	-22
2.42533	-20
2.42900	-17
2.43267	-15
2.43633	-13
2.44000	-11
2.44367	-10
2.44733	-8
2.45100	-7
2.45467	-5
2.45833	-4
2.46200	-3
2.46567	-1
2.46933	-0
2.47300	1
2.47667	2
2.48033	3
2.48400	4
2.48767	5
2.49133	6
2.49500	7
2.49867	8
2.50233	8
2.50600	8
2.50967	9
2.51333	9
2.51700	10
2.52067	11
2.52433	12
2.52800	13
2.53167	14
2.53533	14
2.53900	15
2.54267	15
2.54633	15
2.55000	14
2.55367	14
2.55733	14
2.56100	14
2.56467	14
2.56833	14
2.57200	14
2.57567	14
2.57933	14
2.58300	14
2.58667	15
2.59033	15
2.59400	16
2.59767	16
2.60133	16
2.60500	16
2.60867	15
2.61233	15
2.61600	15
2.61967	15
2.62333	15
2.62700	15
2.63067	15
2.63433	16
2.63800	17
2.64167	17
2.64533	18
2.64900	18
2.65267	19
2.65633	19
2.66000	19
2.66367	19
2.66733	19
2.67100	19
2.67467	19
2.67833	19
2.68200	19
2.68567	20
2.68933	20
2.69300	21
2.69667	21
2.70033	22
2.70400	22
2.70767	22
2.71133	22
2.71500	23
2.71867	23
2.72233	24
2.72600	24
2.72967	24
2.73333	24
2.73700	23
2.74067	23
2.74433	23
2.74800	22
2.75167	22
2.75533	22
2.75900	22
2.76267	22
2.76633	22
2.77000	23
2.77367	23
2.77733	23
2.78100	24
2.78467	24
2.78833	25
2.79200	25
2.79567	25
2.79933	26
2.80300	26
2.80667	26
2.81033	26
2.81400	26
2.81767	26
2.82133	27
2.82500	27
2.82867	27
2.83233	26
2.83600	26
2.83967	24
2.84333	21
2.84700	16
2.85067	8
2.85433	-2
2.85800	-16
2.86167	-34
2.86533	-56
2.86900	-82
2.87267	-113
2.87633	-147
2.88000	-185
2.88367	-227
2.88733	-271
2.89100	-319
2.89467	-368
2.89833	-419
2.90200	-471
2.90567	-525
2.90933	-578
2.91300	-631
2.91667	-684
2.92033	-737
2.92400	-788
2.92767	-840
2.93133	-893
2.93500	-951
2.93867	-1011
2.94233	-1063
2.94600	-1098
2.94967	-1107
2.95333	-1091
2.95700	-1051
2.96067	-992
2.96433	-921
2.96800	-842
2.97167	-761
2.97533	-680
2.97900	-603
2.98267	-530
2.98633	-463
2.99000	-402
2.99367	-348
2.99733	-299
3.00100	-256
3.00467	-218
3.00833	-185
3.01200	-157
3.01567	-132
3.01933	-111
3.02300	-93
3.02667	-77
3.03033	-64
3.03400	-53
3.03767	-43
3.04133	-35
3.04500	-28
3.04867	-22
3.05233	-17
3.05600	-13
3.05967	-9
3.06333	-6
3.06700	-3
3.07067	-1
3.07433	1
3.07800	3
3.08167	5
3.08533	6
3.08900	7
3.09267	8
3.09633	9
3.10000	10
3.10367	11
3.10733	11
3.11100	12
3.11467	12
3.11833	13
3.12200	14
3.12567	14
3.12933	15
3.13300	15
3.13667	16
3.14033	17
3.14400	17
3.14767	18
3.15133	18
3.15500	19
3.15867	19
3.16233	20
3.16600	20
3.16967	21
3.17333	21
3.17700	21
3.18067	21
3.18433	21
3.18800	21
3.19167	22
3.19533	22
3.19900	22
3.20267	22
3.20633	22
3.21000	22
3.21367	22
3.21733	22
3.22100	22
3.22467	22
3.22833	22
3.23200	22
3.23567	22
3.23933	22
3.24300	22
3.24667	22
3.25033	22
3.25400	22
3.25767	22
3.26133	22
3.26500	23
3.26867	23
3.27233	23
3.27600	24
3.27967	24
3.28333	25
3.28700	25
3.29067	25
3.29433	26
3.29800	26
3.30167	27
3.30533	27
3.30900	27
3.31267	28
3.31633	28
3.32000	28
3.32367	28
3.32733	28
3.33100	28
3.33467	28
3.33833	28
3.34200	28
3.34567	28
3.34933	28
3.35300	28
3.35667	29
3.36033	29
3.36400	29
3.36767	29
3.37133	29
3.37500	29
3.37867	28
3.38233	28
3.38600	28
3.38967	28
3.39333	28
3.39700	28
3.40067	28
3.40433	28
3.40800	27
3.41167	27
3.41533	27
3.41900	27
3.42267	26
3.42633	27
3.43000	27
3.43367	27
3.43733	27
3.44100	27
3.44467	27
3.44833	28
3.45200	28
3.45567	28
3.45933	28
3.46300	28
3.46667	27
3.47033	27
3.47400	27
3.47767	27
3.48133	27
3.48500	27
3.48867	27
3.49233	26
3.49600	26
3.49967	26
3.50333	26
3.50700	26
3.51067	26
3.51433	26
3.51800	26
3.52167	26
3.52533	26
3.52900	26
3.53267	26
3.53633	26
3.54000	26
3.54367	26
3.54733	26
3.55100	26
3.55467	26
3.55833	26
3.56200	26
3.56567	26
3.56933	26
3.57300	26
3.57667	26
3.58033	26
3.58400	26
3.58767	26
3.59133	25
3.59500	25
3.59867	25
3.60233	25
3.60600	25
3.60967	25
3.61333	25
3.61700	24
3.62067	24
3.62433	24
3.62800	24
3.63167	24
3.63533	24
3.63900	25
3.64267	25
3.64633	25
3.65000	25
3.65367	25
3.65733	25
3.66100	25
3.66467	25
3.66833	25
3.67200	25
3.67567	25
3.67933	26
3.68300	26
3.68667	26
3.69033	26
3.69400	26
3.69767	26
3.70133	26
3.70500	26
3.70867	27
3.71233	27
3.71600	27
3.71967	27
3.72333	27
3.72700	27
3.73067	27
3.73433	27
3.73800	27
3.74167	27
3.74533	27
3.74900	27
3.75267	27
3.75633	27
3.76000	27
3.76367	27
3.76733	26
3.77100	26
3.77467	26
3.77833	26
3.78200	26
3.78567	26
3.78933	26
3.79300	26
3.79667	26
3.80033	26
3.80400	27
3.80767	27
3.81133	27
3.81500	27
3.81867	27
3.82233	27
3.82600	27
3.82967	27
3.83333	26
3.83700	26
3.84067	25
3.84433	25
3.84800	24
3.85167	24
3.85533	24
3.85900	24
3.86267	24
3.86633	24
3.87000	24
3.87367	24
3.87733	25
3.88100	25
3.88467	25
3.88833	25
3.89200	26
3.89567	26
3.89933	26
3.90300	26
3.90667	26
3.91033	26
3.91400	26
3.91767	26
3.92133	26
3.92500	25
3.92867	25
3.93233	25
3.93600	25
3.93967	25
3.94333	25
3.94700	25
3.95067	25
3.95433	25
3.95800	26
3.96167	26
3.96533	26
3.96900	26
3.97267	26
3.97633	26
3.98000	26
3.98367	26
3.98733	26
3.99100	26
3.99467	26
3.99833	26

[Chromatogram (Ch3)]
Interval(msec)	220
# of Points	1091
Start Time(min)	0.002
End Time(min)	3.998
R.Time (min)	Intensity
0.00167	1
0.00533	-1
0.00900	-4
0.01267	-5
0.01633	-4
0.02000	-5
0.02367	-6
0.02733	-8
0.03100	-7
0.03467	-5
0.03833	-5
0.04200	-3
0.04567	-2
0.04933	-2
0.05300	-2
0.05667	-2
0.06033	-2
0.06400	-2
0.06767	-1
0.07133	0
0.07500	0
0.07867	-0
0.08233	-1
0.08600	0
0.08967	1
0.09333	0
0.09700	-1
0.10067	-1
0.10433	0
0.10800	0
0.11167	0
0.11533	-3
0.11900	-5
0.12267	-5
0.12633	-4
0.13000	-5
0.13367	-5
0.13733	-3
0.14100	-3
0.14467	-4
0.14833	-4
0.15200	-5
0.15567	-8
0.15933	-8
0.16300	-7
0.16667	-5
0.17033	-5
0.17400	-6
0.17767	-4
0.18133	-5
0.18500	-5
0.18867	-2
0.19233	-2
0.19600	-4
0.19967	-5
0.20333	-4
0.20700	-5
0.21067	-4
0.21433	-4
0.21800	-5
0.22167	-5
0.22533	-6
0.22900	-9
0.23267	-11
0.23633	-12
0.24000	-12
0.24367	-10
0.24733	-9
0.25100	-8
0.25467	-5
0.25833	-3
0.26200	-1
0.26567	0
0.26933	4
0.27300	3
0.27667	-0
0.28033	-3
0.28400	-3
0.28767	-2
0.29133	-2
0.29500	-2
0.29867	-2
0.30233	-5
0.30600	-5
0.30967	-4
0.31333	-6
0.31700	-7
0.32067	-8
0.32433	-8
0.32800	-8
0.33167	-9
0.33533	-10
0.33900	-10
0.34267	-9
0.34633	-10
0.35000	-9
0.35367	-8
0.35733	-6
0.36100	-5
0.36467	-4
0.36833	-4
0.37200	-5
0.37567	-4
0.37933	-3
0.38300	-2
0.38667	-1
0.39033	0
0.39400	0
0.39767	-1
0.40133	0
0.40500	3
0.40867	5
0.41233	4
0.41600	3
0.41967	2
0.42333	-0
0.42700	-2
0.43067	-2
0.43433	-2
0.43800	-3
0.44167	-1
0.44533	-1
0.44900	-4
0.45267	-6
0.45633	-4
0.46000	-2
0.46367	0
0.46733	1
0.47100	1
0.47467	1
0.47833	0
0.48200	1
0.48567	1
0.48933	-1
0.49300	-1
0.49667	1
0.50033	4
0.50400	7
0.50767	9
0.51133	10
0.51500	9
0.51867	9
0.52233	10
0.52600	8
0.52967	8
0.53333	6
0.53700	6
0.54067	5
0.54433	7
0.54800	7
0.55167	4
0.55533	-0
0.55900	-0
0.56267	1
0.56633	4
0.57000	7
0.57367	8
0.57733	8
0.58100	9
0.58467	10
0.58833	8
0.59200	5
0.59567	5
0.59933	7
0.60300	9
0.60667	7
0.61033	5
0.61400	4
0.61767	2
0.62133	0
0.62500	-0
0.62867	-1
0.63233	1
0.63600	2
0.63967	2
0.64333	3
0.64700	3
0.65067	5
0.65433	6
0.65800	10
0.66167	11
0.66533	9
0.66900	10
0.67267	9
0.67633	10
0.68000	9
0.68367	10
0.68733	9
0.69100	10
0.69467	10
0.69833	9
0.70200	9
0.70567	9
0.70933	10
0.71300	12
0.71667	11
0.72033	11
0.72400	12
0.72767	11
0.73133	12
0.73500	10
0.73867	11
0.74233	13
0.74600	12
0.74967	10
0.75333	10
0.75700	11
0.76067	9
0.76433	9
0.76800	12
0.77167	13
0.77533	11
0.77900	11
0.78267	11
0.78633	11
0.79000	12
0.79367	11
0.79733	10
0.80100	10
0.80467	10
0.80833	11
0.81200	12
0.81567	13
0.81933	13
0.82300	12
0.82667	14
0.83033	15
0.83400	16
0.83767	16
0.84133	17
0.84500	16
0.84867	14
0.85233	15
0.85600	14
0.85967	13
0.86333	12
0.86700	13
0.87067	15
0.87433	15
0.87800	15
0.88167	17
0.88533	17
0.88900	16
0.89267	16
0.89633	17
0.90000	18
0.90367	18
0.90733	18
0.91100	15
0.91467	14
0.91833	15
0.92200	16
0.92567	16
0.92933	16
0.93300	15
0.93667	14
0.94033	11
0.94400	9
0.94767	8
0.95133	8
0.95500	9
0.95867	8
0.96233	9
0.96600	11
0.96967	13
0.97333	16
0.97700	18
0.98067	18
0.98433	18
0.98800	16
0.99167	14
0.99533	12
0.99900	10
1.00267	10
1.00633	10
1.01000	11
1.01367	12
1.01733	13
1.02100	12
1.02467	14
1.02833	15
1.03200	16
1.03567	16
1.03933	15
1.04300	14
1.04667	14
1.05033	15
1.05400	18
1.05767	20
1.06133	20
1.06500	20
1.06867	19
1.07233	18
1.07600	17
1.07967	15
1.08333	13
1.08700	11
1.09067	11
1.09433	11
1.09800	12
1.10167	11
1.10533	11
1.10900	10
1.11267	11
1.11633	13
1.12000	12
1.12367	11
1.12733	10
1.13100	11
1.13467	13
1.13833	14
1.14200	16
1.14567	18
1.14933	20
1.15300	20
1.15667	20
1.16033	18
1.16400	13
1.16767	13
1.17133	16
1.17500	16
1.17867	15
1.18233	13
1.18600	13
1.18967	13
1.19333	11
1.19700	10
1.20067	11
1.20433	11
1.20800	11
1.21167	11
1.21533	13
1.21900	14
1.22267	14
1.22633	13
1.23000	13
1.23367	15
1.23733	16
1.24100	17
1.24467	18
1.24833	17
1.25200	17
1.25567	17
1.25933	19
1.26300	18
1.26667	16
1.27033	16
1.27400	17
1.27767	16
1.28133	13
1.28500	11
1.28867	12
1.29233	13
1.29600	13
1.29967	13
1.30333	14
1.30700	15
1.31067	15
1.31433	15
1.31800	15
1.32167	15
1.32533	15
1.32900	16
1.33267	17
1.33633	17
1.34000	17
1.34367	15
1.34733	14
1.35100	14
1.35467	14
1.35833	14
1.36200	15
1.36567	17
1.36933	18
1.37300	17
1.37667	16
1.38033	16
1.38400	15
1.38767	13
1.39133	10
1.39500	10
1.39867	9
1.40233	9
1.40600	11
1.40967	11
1.41333	12
1.41700	14
1.42067	17
1.42433	18
1.42800	16
1.43167	14
1.43533	15
1.43900	16
1.44267	16
1.44633	17
1.45000	19
1.45367	19
1.45733	17
1.46100	17
1.46467	18
1.46833	18
1.47200	18
1.47567	19
1.47933	21
1.48300	22
1.48667	23
1.49033	21
1.49400	18
1.49767	16
1.50133	17
1.50500	19
1.50867	20
1.51233	24
1.51600	26
1.51967	26
1.52333	24
1.52700	25
1.53067	30
1.53433	32
1.53800	30
1.54167	26
1.54533	24
1.54900	24
1.55267	22
1.55633	21
1.56000	21
1.56367	21
1.56733	20
1.57100	20
1.57467	21
1.57833	21
1.58200	19
1.58567	19
1.58933	20
1.59300	21
1.59667	22
1.60033	23
1.60400	24
1.60767	26
1.61133	29
1.61500	31
1.61867	31
1.62233	30
1.62600	31
1.62967	30
1.63333	31
1.63700	32
1.64067	33
1.64433	32
1.64800	31
1.65167	30
1.65533	28
1.65900	27
1.66267	27
1.66633	26
1.67000	30
1.67367	36
1.67733	39
1.68100	40
1.68467	41
1.68833	42
1.69200	40
1.69567	37
1.69933	34
1.70300	35
1.70667	36
1.71033	38
1.71400	39
1.71767	38
1.72133	36
1.72500	34
1.72867	33
1.73233	35
1.73600	35
1.73967	35
1.74333	38
1.74700	39
1.75067	42
1.75433	44
1.75800	45
1.76167	43
1.76533	41
1.76900	41
1.77267	43
1.77633	44
1.78000	44
1.78367	45
1.78733	45
1.79100	44
1.79467	42
1.79833	41
1.80200	42
1.80567	42
1.80933	41
1.81300	42
1.81667	44
1.82033	44
1.82400	43
1.82767	43
1.83133	43
1.83500	44
1.83867	44
1.84233	45
1.84600	45
1.84967	46
1.85333	47
1.85700	47
1.86067	49
1.86433	52
1.86800	54
1.87167	55
1.87533	55
1.87900	56
1.88267	57
1.88633	58
1.89000	62
1.89367	64
1.89733	64
1.90100	62
1.90467	59
1.90833	58
1.91200	57
1.91567	57
1.91933	60
1.92300	60
1.92667	60
1.93033	59
1.93400	60
1.93767	60
1.94133	58
1.94500	58
1.94867	60
1.95233	61
1.95600	61
1.95967	60
1.96333	61
1.96700	63
1.97067	64
1.97433	65
1.97800	67
1.98167	67
1.98533	66
1.98900	67
1.99267	68
1.99633	67
2.00000	67
2.00367	69
2.00733	70
2.01100	71
2.01467	73
2.01833	73
2.02200	74
2.02567	74
2.02933	75
2.03300	75
2.03667	77
2.04033	77
2.04400	77
2.04767	77
2.05133	75
2.05500	79
2.05867	82
2.06233	83
2.06600	84
2.06967	85
2.07333	85
2.07700	85
2.08067	86
2.08433	87
2.08800	87
2.09167	87
2.09533	88
2.09900	87
2.10267	89
2.10633	90
2.11000	92
2.11367	92
2.11733	93
2.12100	93
2.12467	94
2.12833	96
2.13200	99
2.13567	99
2.13933	100
2.14300	99
2.14667	96
2.15033	95
2.15400	94
2.15767	95
2.16133	96
2.16500	96
2.16867	97
2.17233	100
2.17600	106
2.17967	110
2.18333	111
2.18700	112
2.19067	111
2.19433	112
2.19800	111
2.20167	110
2.20533	111
2.20900	113
2.21267	114
2.21633	114
2.22000	114
2.22367	115
2.22733	118
2.23100	119
2.23467	121
2.23833	120
2.24200	119
2.24567	120
2.24933	122
2.25300	124
2.25667	126
2.26033	129
2.26400	132
2.26767	134
2.27133	137
2.27500	139
2.27867	138
2.28233	137
2.28600	137
2.28967	139
2.29333	141
2.29700	143
2.30067	145
2.30433	145
2.30800	145
2.31167	145
2.31533	147
2.31900	149
2.32267	151
2.32633	154
2.33000	154
2.33367	155
2.33733	158
2.34100	161
2.34467	161
2.34833	163
2.35200	165
2.35567	167
2.35933	168
2.36300	168
2.36667	168
2.37033	170
2.37400	171
2.37767	173
2.38133	174
2.38500	174
2.38867	174
2.39233	176
2.39600	178
2.39967	180
2.40333	182
2.40700	184
2.41067	187
2.41433	192
2.41800	195
2.42167	198
2.42533	200
2.42900	199
2.43267	196
2.43633	196
2.44000	197
2.44367	214
2.44733	267
2.45100	329
2.45467	382
2.45833	417
2.46200	430
2.46567	421
2.46933	405
2.47300	390
2.47667	378
2.48033	370
2.48400	364
2.48767	358
2.49133	349
2.49500	335
2.49867	319
2.50233	306
2.50600	297
2.50967	289
2.51333	281
2.51700	277
2.52067	277
2.52433	278
2.52800	280
2.53167	282
2.53533	285
2.53900	287
2.54267	288
2.54633	294
2.55000	298
2.55367	299
2.55733	299
2.56100	296
2.56467	289
2.56833	283
2.57200	278
2.57567	274
2.57933	270
2.58300	265
2.58667	260
2.59033	256
2.59400	251
2.59767	244
2.60133	236
2.60500	226
2.60867	210
2.61233	191
2.61600	171
2.61967	151
2.62333	133
2.62700	118
2.63067	103
2.63433	94
2.63800	88
2.64167	84
2.64533	83
2.64900	85
2.65267	92
2.65633	100
2.66000	108
2.66367	114
2.66733	123
2.67100	131
2.67467	138
2.67833	147
2.68200	156
2.68567	164
2.68933	173
2.69300	182
2.69667	188
2.70033	194
2.70400	200
2.70767	204
2.71133	206
2.71500	209
2.71867	210
2.72233	211
2.72600	213
2.72967	216
2.73333	219
2.73700	222
2.74067	225
2.74433	228
2.74800	227
2.75167	225
2.75533	225
2.75900	223
2.76267	222
2.76633	222
2.77000	222
2.77367	221
2.77733	221
2.78100	219
2.78467	219
2.78833	221
2.79200	223
2.79567	226
2.79933	228
2.80300	229
2.80667	230
2.81033	230
2.81400	231
2.81767	235
2.82133	249
2.82500	281
2.82867	350
2.83233	476
2.83600	678
2.83967	978
2.84333	1382
2.84700	1876
2.85067	2436
2.85433	3024
2.85800	3594
2.86167	4098
2.86533	4493
2.86900	4754
2.87267	4874
2.87633	4858
2.88000	4726
2.88367	4498
2.88733	4204
2.89100	3870
2.89467	3524
2.89833	3183
2.90200	2854
2.90567	2542
2.90933	2256
2.91300	1997
2.91667	1770
2.92033	1566
2.92400	1383
2.92767	1224
2.93133	1086
2.93500	966
2.93867	861
2.94233	772
2.94600	695
2.94967	628
2.95333	574
2.95700	526
2.96067	483
2.96433	448
2.96800	414
2.97167	382
2.97533	356
2.97900	333
2.98267	315
2.98633	302
2.99000	289
2.99367	280
2.99733	272
3.00100	266
3.00467	259
3.00833	254
3.01200	250
3.01567	246
3.01933	242
3.02300	241
3.02667	238
3.03033	233
3.03400	229
3.03767	227
3.04133	224
3.04500	220
3.04867	216
3.05233	217
3.05600	217
3.05967	216
3.06333	216
3.06700	216
3.07067	214
3.07433	211
3.07800	209
3.08167	210
3.08533	208
3.08900	205
3.09267	203
3.09633	202
3.10000	200
3.10367	199
3.10733	200
3.11100	200
3.11467	197
3.11833	195
3.12200	196
3.12567	197
3.12933	195
3.13300	197
3.13667	197
3.14033	196
3.14400	197
3.14767	197
3.15133	195
3.15500	195
3.15867	196
3.16233	198
3.16600	199
3.16967	196
3.17333	193
3.17700	190
3.18067	190
3.18433	191
3.18800	192
3.19167	191
3.19533	190
3.19900	190
3.20267	191
3.20633	194
3.21000	195
3.21367	198
3.21733	197
3.22100	197
3.22467	197
3.22833	197
3.23200	197
3.23567	196
3.23933	195
3.24300	194
3.24667	195
3.25033	196
3.25400	197
3.25767	197
3.26133	196
3.26500	197
3.26867	199
3.27233	198
3.27600	194
3.27967	190
3.28333	188
3.28700	190
3.29067	191
3.29433	191
3.29800	190
3.30167	187
3.30533	185
3.30900	187
3.31267	187
3.31633	187
3.32000	184
3.32367	181
3.32733	179
3.33100	178
3.33467	176
3.33833	176
3.34200	177
3.34567	177
3.34933	178
3.35300	178
3.35667	179
3.36033	181
3.36400	183
3.36767	184
3.37133	183
3.37500	181
3.37867	178
3.38233	177
3.38600	176
3.38967	175
3.39333	175
3.39700	174
3.40067	173
3.40433	172
3.40800	170
3.41167	168
3.41533	167
3.41900	168
3.42267	170
3.42633	170
3.43000	171
3.43367	170
3.43733	168
3.44100	164
3.44467	165
3.44833	165
3.45200	165
3.45567	165
3.45933	165
3.46300	165
3.46667	166
3.47033	167
3.47400	166
3.47767	166
3.48133	165
3.48500	165
3.48867	167
3.49233	169
3.49600	169
3.49967	169
3.50333	167
3.50700	165
3.51067	163
3.51433	160
3.51800	158
3.52167	158
3.52533	160
3.52900	163
3.53267	165
3.53633	165
3.54000	163
3.54367	161
3.54733	161
3.55100	163
3.55467	164
3.55833	165
3.56200	166
3.56567	167
3.56933	168
3.57300	167
3.57667	165
3.58033	166
3.58400	170
3.58767	172
3.59133	171
3.59500	170
3.59867	168
3.60233	167
3.60600	168
3.60967	168
3.61333	168
3.61700	166
3.62067	165
3.62433	166
3.62800	168
3.63167	167
3.63533	167
3.63900	165
3.64267	163
3.64633	164
3.65000	165
3.65367	166
3.65733	165
3.66100	163
3.66467	163
3.66833	163
3.67200	166
3.67567	167
3.67933	167
3.68300	168
3.68667	168
3.69033	169
3.69400	170
3.69767	169
3.70133	170
3.70500	171
3.70867	170
3.71233	170
3.71600	171
3.71967	171
3.72333	172
3.72700	172
3.73067	172
3.73433	172
3.73800	172
3.74167	171
3.74533	172
3.74900	169
3.75267	166
3.75633	167
3.76000	169
3.76367	171
3.76733	171
3.77100	172
3.77467	171
3.77833	165
3.78200	153
3.78567	140
3.78933	131
3.79300	129
3.79667	130
3.80033	136
3.80400	145
3.80767	154
3.81133	164
3.81500	174
3.81867	184
3.82233	192
3.82600	203
3.82967	212
3.83333	218
3.83700	225
3.84067	229
3.84433	237
3.84800	245
3.85167	255
3.85533	263
3.85900	271
3.86267	278
3.86633	287
3.87000	294
3.87367	301
3.87733	308
3.88100	314
3.88467	321
3.88833	329
3.89200	337
3.89567	346
3.89933	356
3.90300	365
3.90667	373
3.91033	380
3.91400	384
3.91767	387
3.92133	390
3.92500	391
3.92867	393
3.93233	397
3.93600	400
3.93967	400
3.94333	402
3.94700	403
3.95067	405
3.95433	408
3.95800	408
3.96167	408
3.96533	406
3.96900	401
3.97267	399
3.97633	396
3.98000	392
3.98367	393
3.98733	392
3.99100	391
3.99467	390
3.99833	389

[Status Trace (Column Oven Temperature)]
Interval(msec)	1000
# of Points	240
Start Time(min)	0.001
End Time(min)	3.984
Intensity Units	
Intensity Multiplier	1
R.Time (min)	Intensity
0.00050	35.08
0.01717	35.08
0.03383	35.08
0.05050	35.08
0.06717	35.08
0.08383	35.07
0.10050	35.06
0.11717	35.04
0.13383	35.04
0.15050	35.03
0.16717	35.03
0.18383	35.04
0.20050	35.04
0.21717	35.05
0.23383	35.04
0.25050	35.04
0.26717	35.03
0.28383	35.02
0.30050	35.03
0.31717	35.04
0.33383	35.04
0.35050	35.04
0.36717	35.03
0.38383	35.03
0.40050	35.03
0.41717	35.03
0.43383	35.03
0.45050	35.02
0.46717	35.02
0.48383	35.02
0.50050	35.01
0.51717	35.01
0.53383	35.02
0.55050	35.01
0.56717	35.01
0.58383	35.00
0.60050	34.99
0.61717	34.99
0.63383	34.99
0.65050	35.00
0.66717	35.01
0.68383	35.00
0.70050	34.99
0.71717	34.99
0.73383	34.97
0.75050	34.98
0.76717	34.99
0.78383	34.98
0.80050	34.98
0.81717	35.00
0.83383	35.00
0.85050	35.01
0.86717	35.02
0.88383	35.01
0.90050	35.00
0.91717	34.99
0.93383	34.98
0.95050	34.98
0.96717	34.98
0.98383	34.99
1.00050	35.00
1.01717	34.99
1.03383	34.99
1.05050	34.99
1.06717	34.99
1.08383	35.00
1.10050	34.99
1.11717	34.98
1.13383	34.98
1.15050	34.97
1.16717	34.96
1.18383	34.96
1.20050	34.96
1.21717	34.96
1.23383	34.96
1.25050	34.98
1.26717	35.00
1.28383	34.99
1.30050	34.99
1.31717	34.99
1.33383	35.00
1.35050	35.00
1.36717	35.00
1.38383	35.01
1.40050	34.99
1.41717	34.99
1.43383	34.98
1.45050	34.98
1.46717	34.97
1.48383	34.97
1.50050	34.97
1.51717	34.99
1.53383	34.99
1.55050	35.00
1.56717	35.01
1.58383	35.01
1.60050	35.04
1.61717	35.14
1.63383	35.29
1.65050	35.50
1.66717	35.80
1.68383	36.17
1.70050	36.54
1.71717	36.88
1.73383	37.19
1.75050	37.51
1.76717	37.85
1.78383	38.19
1.80050	38.52
1.81717	38.86
1.83383	39.18
1.85050	39.52
1.86717	39.83
1.88383	40.16
1.90050	40.48
1.91717	40.80
1.93383	41.12
1.95050	41.45
1.96717	41.80
1.98383	42.12
2.00050	42.44
2.01717	42.76
2.03383	43.10
2.05050	43.41
2.06717	43.74
2.08383	44.06
2.10050	44.40
2.11717	44.71
2.13383	45.05
2.15050	45.36
2.16717	45.68
2.18383	46.02
2.20050	46.34
2.21717	46.68
2.23383	46.99
2.25050	47.36
2.26717	47.69
2.28383	48.00
2.30050	48.34
2.31717	48.68
2.33383	49.03
2.35050	49.32
2.36717	49.56
2.38383	49.66
2.40050	49.67
2.41717	49.67
2.43383	49.66
2.45050	49.67
2.46717	49.68
2.48383	49.68
2.50050	49.70
2.51717	49.72
2.53383	49.73
2.55050	49.75
2.56717	49.77
2.58383	49.77
2.60050	49.80
2.61717	49.83
2.63383	49.82
2.65050	49.83
2.66717	49.85
2.68383	49.85
2.70050	49.85
2.71717	49.85
2.73383	49.88
2.75050	49.90
2.76717	49.91
2.78383	49.91
2.80050	49.91
2.81717	49.91
2.83383	49.92
2.85050	49.93
2.86717	49.94
2.88383	49.95
2.90050	49.96
2.91717	49.97
2.93383	49.98
2.95050	49.98
2.96717	49.98
2.98383	49.98
3.00050	49.98
3.01717	49.97
3.03383	49.99
3.05050	50.00
3.06717	50.01
3.08383	50.03
3.10050	50.05
3.11717	50.07
3.13383	50.08
3.15050	50.08
3.16717	50.07
3.18383	50.07
3.20050	50.08
3.21717	50.10
3.23383	50.11
3.25050	50.11
3.26717	50.10
3.28383	50.09
3.30050	50.07
3.31717	50.06
3.33383	50.05
3.35050	50.05
3.36717	50.04
3.38383	50.03
3.40050	50.03
3.41717	50.03
3.43383	50.02
3.45050	50.02
3.46717	50.01
3.48383	50.01
3.50050	50.01
3.51717	50.01
3.53383	50.02
3.55050	50.02
3.56717	50.02
3.58383	50.03
3.60050	50.04
3.61717	50.05
3.63383	50.05
3.65050	50.05
3.66717	50.05
3.68383	50.05
3.70050	50.05
3.71717	50.05
3.73383	50.06
3.75050	50.06
3.76717	50.06
3.78383	50.06
3.80050	50.05
3.81717	50.05
3.83383	50.06
3.85050	50.07
3.86717	50.07
3.88383	50.06
3.90050	50.06
3.91717	50.06
3.93383	50.08
3.95050	50.07
3.96717	50.07
3.98383	50.07

[Status Trace (Injection Unit Temperature)]
Interval(msec)	1000
# of Points	240
Start Time(min)	0.001
End Time(min)	3.984
Intensity Units	
Intensity Multiplier	1
R.Time (min)	Intensity
0.00050	99.98
0.01717	99.98
0.03383	99.98
0.05050	99.98
0.06717	99.98
0.08383	99.98
0.10050	99.98
0.11717	99.98
0.13383	99.98
0.15050	99.98
0.16717	99.98
0.18383	99.98
0.20050	99.98
0.21717	99.98
0.23383	99.98
0.25050	99.97
0.26717	99.98
0.28383	99.98
0.30050	99.98
0.31717	99.98
0.33383	99.98
0.35050	99.98
0.36717	99.98
0.38383	99.98
0.40050	99.97
0.41717	99.98
0.43383	99.98
0.45050	99.98
0.46717	99.98
0.48383	99.98
0.50050	99.98
0.51717	99.98
0.53383	99.98
0.55050	99.98
0.56717	99.98
0.58383	99.98
0.60050	99.98
0.61717	99.98
0.63383	99.98
0.65050	99.98
0.66717	99.98
0.68383	99.98
0.70050	99.97
0.71717	99.98
0.73383	99.98
0.75050	99.98
0.76717	99.98
0.78383	99.98
0.80050	99.98
0.81717	99.98
0.83383	99.98
0.85050	99.98
0.86717	99.98
0.88383	99.98
0.90050	99.98
0.91717	99.98
0.93383	99.98
0.95050	99.98
0.96717	99.98
0.98383	99.98
1.00050	99.98
1.01717	99.98
1.03383	99.98
1.05050	99.98
1.06717	99.99
1.08383	99.98
1.10050	99.98
1.11717	99.97
1.13383	99.98
1.15050	99.98
1.16717	99.98
1.18383	99.98
1.20050	99.99
1.21717	99.98
1.23383	99.98
1.25050	99.98
1.26717	99.98
1.28383	99.98
1.30050	99.98
1.31717	99.99
1.33383	99.98
1.35050	99.97
1.36717	99.98
1.38383	99.98
1.40050	99.98
1.41717	99.98
1.43383	99.98
1.45050	99.98
1.46717	99.98
1.48383	99.98
1.50050	99.98
1.51717	99.98
1.53383	99.98
1.55050	99.98
1.56717	99.98
1.58383	99.98
1.60050	99.98
1.61717	99.98
1.63383	99.98
1.65050	99.98
1.66717	99.98
1.68383	99.98
1.70050	99.98
1.71717	99.98
1.73383	99.98
1.75050	99.97
1.76717	99.98
1.78383	99.98
1.80050	99.98
1.81717	99.98
1.83383	99.98
1.85050	99.98
1.86717	99.98
1.88383	99.98
1.90050	99.98
1.91717	99.98
1.93383	99.97
1.95050	99.97
1.96717	99.97
1.98383	99.98
2.00050	99.97
2.01717	99.97
2.03383	99.97
2.05050	99.97
2.06717	99.97
2.08383	99.97
2.10050	99.97
2.11717	99.97
2.13383	99.97
2.15050	99.97
2.16717	99.97
2.18383	99.96
2.20050	99.96
2.21717	99.96
2.23383	99.97
2.25050	99.97
2.26717	99.97
2.28383	99.97
2.30050	99.97
2.31717	99.96
2.33383	99.97
2.35050	99.97
2.36717	99.96
2.38383	99.96
2.40050	99.96
2.41717	99.96
2.43383	99.96
2.45050	99.96
2.46717	99.97
2.48383	99.96
2.50050	99.97
2.51717	99.97
2.53383	99.96
2.55050	99.97
2.56717	99.96
2.58383	99.96
2.60050	99.97
2.61717	99.97
2.63383	99.97
2.65050	99.97
2.66717	99.97
2.68383	99.98
2.70050	99.98
2.71717	99.98
2.73383	99.99
2.75050	99.98
2.76717	99.98
2.78383	99.99
2.80050	99.99
2.81717	100.00
2.83383	100.00
2.85050	100.00
2.86717	99.99
2.88383	100.00
2.90050	100.00
2.91717	100.00
2.93383	100.00
2.95050	100.00
2.96717	100.01
2.98383	100.00
3.00050	100.01
3.01717	100.01
3.03383	100.00
3.05050	100.01
3.06717	100.01
3.08383	100.02
3.10050	100.02
3.11717	100.02
3.13383	100.02
3.15050	100.02
3.16717	100.02
3.18383	100.01
3.20050	100.02
3.21717	100.03
3.23383	100.03
3.25050	100.02
3.26717	100.02
3.28383	100.02
3.30050	100.03
3.31717	100.03
3.33383	100.03
3.35050	100.03
3.36717	100.03
3.38383	100.03
3.40050	100.03
3.41717	100.03
3.43383	100.04
3.45050	100.03
3.46717	100.03
3.48383	100.03
3.50050	100.04
3.51717	100.03
3.53383	100.04
3.55050	100.04
3.56717	100.04
3.58383	100.04
3.60050	100.04
3.61717	100.04
3.63383	100.04
3.65050	100.04
3.66717	100.04
3.68383	100.04
3.70050	100.04
3.71717	100.04
3.73383	100.05
3.75050	100.05
3.76717	100.05
3.78383	100.05
3.80050	100.05
3.81717	100.04
3.83383	100.05
3.85050	100.04
3.86717	100.05
3.88383	100.05
3.90050	100.05
3.91717	100.05
3.93383	100.05
3.95050	100.05
3.96717	100.05
3.98383	100.05

[Status Trace (Carrier Gas Pressure)]
Interval(msec)	1000
# of Points	240
Start Time(min)	0.001
End Time(min)	3.984
Intensity Units	
Intensity Multiplier	1
R.Time (min)	Intensity
0.00050	58.00
0.01717	56.75
0.03383	56.04
0.05050	58.39
0.06717	59.90
0.08383	58.40
0.10050	57.97
0.11717	58.00
0.13383	58.01
0.15050	58.01
0.16717	58.00
0.18383	58.00
0.20050	58.00
0.21717	58.00
0.23383	58.00
0.25050	58.00
0.26717	58.00
0.28383	58.00
0.30050	58.00
0.31717	58.00
0.33383	58.00
0.35050	58.00
0.36717	58.00
0.38383	58.00
0.40050	58.00
0.41717	58.00
0.43383	58.00
0.45050	58.00
0.46717	58.00
0.48383	58.00
0.50050	58.00
0.51717	58.00
0.53383	58.00
0.55050	58.00
0.56717	58.00
0.58383	58.00
0.60050	58.00
0.61717	58.00
0.63383	58.00
0.65050	58.00
0.66717	58.00
0.68383	58.00
0.70050	58.00
0.71717	58.00
0.73383	58.00
0.75050	58.00
0.76717	58.00
0.78383	58.00
0.80050	58.00
0.81717	58.00
0.83383	58.00
0.85050	58.00
0.86717	58.00
0.88383	58.00
0.90050	58.00
0.91717	58.00
0.93383	58.00
0.95050	58.00
0.96717	58.00
0.98383	58.00
1.00050	58.00
1.01717	58.00
1.03383	58.00
1.05050	58.00
1.06717	58.00
1.08383	58.00
1.10050	58.00
1.11717	58.00
1.13383	58.00
1.15050	58.00
1.16717	58.00
1.18383	58.00
1.20050	58.00
1.21717	58.00
1.23383	58.00
1.25050	58.00
1.26717	58.00
1.28383	58.00
1.30050	58.00
1.31717	58.00
1.33383	58.00
1.35050	58.00
1.36717	58.00
1.38383	58.00
1.40050	58.00
1.41717	58.00
1.43383	58.00
1.45050	58.00
1.46717	58.00
1.48383	58.00
1.50050	58.00
1.51717	58.00
1.53383	58.00
1.55050	58.00
1.56717	58.00
1.58383	58.00
1.60050	58.00
1.61717	58.00
1.63383	58.00
1.65050	58.01
1.66717	58.01
1.68383	58.01
1.70050	58.00
1.71717	58.00
1.73383	58.00
1.75050	58.00
1.76717	58.00
1.78383	58.00
1.80050	58.00
1.81717	58.00
1.83383	58.00
1.85050	58.00
1.86717	58.00
1.88383	58.00
1.90050	58.00
1.91717	58.00
1.93383	58.00
1.95050	58.00
1.96717	58.00
1.98383	58.00
2.00050	58.00
2.01717	58.00
2.03383	58.00
2.05050	58.00
2.06717	58.00
2.08383	58.00
2.10050	58.00
2.11717	58.00
2.13383	58.00
2.15050	58.00
2.16717	58.00
2.18383	58.00
2.20050	58.00
2.21717	58.00
2.23383	58.00
2.25050	58.00
2.26717	58.00
2.28383	58.00
2.30050	58.00
2.31717	58.00
2.33383	58.00
2.35050	58.00
2.36717	58.00
2.38383	57.99
2.40050	57.99
2.41717	58.00
2.43383	58.00
2.45050	58.00
2.46717	58.00
2.48383	58.00
2.50050	58.00
2.51717	57.99
2.53383	57.99
2.55050	58.00
2.56717	58.00
2.58383	58.00
2.60050	58.00
2.61717	58.00
2.63383	58.00
2.65050	58.00
2.66717	58.00
2.68383	58.00
2.70050	58.00
2.71717	58.00
2.73383	58.00
2.75050	58.00
2.76717	58.00
2.78383	58.00
2.80050	58.00
2.81717	58.00
2.83383	58.00
2.85050	58.00
2.86717	58.00
2.88383	58.00
2.90050	58.00
2.91717	58.00
2.93383	58.00
2.95050	58.00
2.96717	58.00
2.98383	58.00
3.00050	58.00
3.01717	58.00
3.03383	58.00
3.05050	58.00
3.06717	58.00
3.08383	58.00
3.10050	58.00
3.11717	58.00
3.13383	58.00
3.15050	58.00
3.16717	58.00
3.18383	58.00
3.20050	58.00
3.21717	58.00
3.23383	58.00
3.25050	58.00
3.26717	58.00
3.28383	58.00
3.30050	58.00
3.31717	58.00
3.33383	58.00
3.35050	58.00
3.36717	58.00
3.38383	58.00
3.40050	58.00
3.41717	58.00
3.43383	58.00
3.45050	58.00
3.46717	58.00
3.48383	58.00
3.50050	58.00
3.51717	58.00
3.53383	58.00
3.55050	58.00
3.56717	58.00
3.58383	58.00
3.60050	58.00
3.61717	58.00
3.63383	58.00
3.65050	58.00
3.66717	58.00
3.68383	58.00
3.70050	58.00
3.71717	58.00
3.73383	58.00
3.75050	58.00
3.76717	58.00
3.78383	58.00
3.80050	58.00
3.81717	58.00
3.83383	58.00
3.85050	58.00
3.86717	58.00
3.88383	58.00
3.90050	58.00
3.91717	58.00
3.93383	58.00
3.95050	58.00
3.96717	58.00
3.98383	58.00

[Status Trace (Carrier Gas Flow)]
Interval(msec)	1000
# of Points	240
Start Time(min)	0.001
End Time(min)	3.984
Intensity Units	
Intensity Multiplier	1
R.Time (min)	Intensity
0.00050	34.53
0.01717	33.73
0.03383	34.54
0.05050	34.55
0.06717	34.50
0.08383	34.52
0.10050	34.52
0.11717	34.52
0.13383	34.52
0.15050	34.52
0.16717	34.52
0.18383	34.51
0.20050	34.52
0.21717	34.52
0.23383	34.52
0.25050	34.52
0.26717	34.52
0.28383	34.52
0.30050	34.52
0.31717	34.52
0.33383	34.52
0.35050	34.52
0.36717	34.52
0.38383	34.52
0.40050	34.52
0.41717	34.52
0.43383	34.52
0.45050	34.52
0.46717	34.52
0.48383	34.52
0.50050	34.52
0.51717	34.52
0.53383	34.52
0.55050	34.52
0.56717	34.51
0.58383	34.52
0.60050	34.52
0.61717	34.52
0.63383	34.51
0.65050	34.52
0.66717	34.52
0.68383	34.52
0.70050	34.52
0.71717	34.52
0.73383	34.52
0.75050	34.51
0.76717	34.52
0.78383	34.52
0.80050	34.52
0.81717	34.52
0.83383	34.52
0.85050	34.52
0.86717	34.52
0.88383	34.52
0.90050	34.52
0.91717	34.52
0.93383	34.52
0.95050	34.52
0.96717	34.52
0.98383	34.52
1.00050	34.52
1.01717	34.52
1.03383	34.52
1.05050	34.52
1.06717	34.52
1.08383	34.52
1.10050	34.52
1.11717	34.52
1.13383	34.52
1.15050	34.52
1.16717	34.52
1.18383	34.52
1.20050	34.52
1.21717	34.52
1.23383	34.52
1.25050	34.52
1.26717	34.52
1.28383	34.52
1.30050	34.52
1.31717	34.52
1.33383	34.52
1.35050	34.52
1.36717	34.52
1.38383	34.52
1.40050	34.52
1.41717	34.52
1.43383	34.52
1.45050	34.52
1.46717	34.52
1.48383	34.52
1.50050	34.52
1.51717	34.52
1.53383	34.52
1.55050	34.52
1.56717	34.52
1.58383	34.52
1.60050	34.52
1.61717	34.52
1.63383	34.52
1.65050	34.52
1.66717	34.52
1.68383	34.52
1.70050	34.52
1.71717	34.52
1.73383	34.52
1.75050	34.52
1.76717	34.52
1.78383	34.52
1.80050	34.52
1.81717	34.52
1.83383	34.52
1.85050	34.52
1.86717	34.52
1.88383	34.52
1.90050	34.52
1.91717	34.52
1.93383	34.52
1.95050	34.52
1.96717	34.52
1.98383	34.52
2.00050	34.52
2.01717	34.52
2.03383	34.52
2.05050	34.52
2.06717	34.52
2.08383	34.52
2.10050	34.52
2.11717	34.52
2.13383	34.52
2.15050	34.52
2.16717	34.52
2.18383	34.52
2.20050	34.52
2.21717	34.52
2.23383	34.52
2.25050	34.52
2.26717	34.52
2.28383	34.52
2.30050	34.52
2.31717	34.52
2.33383	34.52
2.35050	34.52
2.36717	34.52
2.38383	34.52
2.40050	34.51
2.41717	34.52
2.43383	34.52
2.45050	34.52
2.46717	34.52
2.48383	34.52
2.50050	34.52
2.51717	34.52
2.53383	34.52
2.55050	34.52
2.56717	34.52
2.58383	34.52
2.60050	34.52
2.61717	34.52
2.63383	34.52
2.65050	34.52
2.66717	34.52
2.68383	34.52
2.70050	34.52
2.71717	34.51
2.73383	34.52
2.75050	34.52
2.76717	34.51
2.78383	34.52
2.80050	34.52
2.81717	34.52
2.83383	34.52
2.85050	34.52
2.86717	34.52
2.88383	34.52
2.90050	34.52
2.91717	34.52
2.93383	34.52
2.95050	34.52
2.96717	34.52
2.98383	34.52
3.00050	34.52
3.01717	34.52
3.03383	34.52
3.05050	34.52
3.06717	34.52
3.08383	34.52
3.10050	34.52
3.11717	34.51
3.13383	34.52
3.15050	34.52
3.16717	34.52
3.18383	34.51
3.20050	34.52
3.21717	34.52
3.23383	34.52
3.25050	34.52
3.26717	34.52
3.28383	34.52
3.30050	34.52
3.31717	34.52
3.33383	34.52
3.35050	34.52
3.36717	34.52
3.38383	34.52
3.40050	34.52
3.41717	34.52
3.43383	34.52
3.45050	34.53
3.46717	34.52
3.48383	34.52
3.50050	34.52
3.51717	34.52
3.53383	34.52
3.55050	34.52
3.56717	34.52
3.58383	34.52
3.60050	34.52
3.61717	34.52
3.63383	34.52
3.65050	34.52
3.66717	34.52
3.68383	34.52
3.70050	34.52
3.71717	34.52
3.73383	34.52
3.75050	34.52
3.76717	34.52
3.78383	34.52
3.80050	34.52
3.81717	34.52
3.83383	34.52
3.85050	34.52
3.86717	34.52
3.88383	34.52
3.90050	34.52
3.91717	34.52
3.93383	34.52
3.95050	34.52
3.96717	34.52
3.98383	34.52

[Status Trace (Column Flow)]
Interval(msec)	1000
# of Points	240
Start Time(min)	0.001
End Time(min)	3.984
Intensity Units	
Intensity Multiplier	1
R.Time (min)	Intensity
0.00050	5.57
0.01717	5.42
0.03383	5.34
0.05050	5.62
0.06717	5.79
0.08383	5.62
0.10050	5.57
0.11717	5.57
0.13383	5.57
0.15050	5.57
0.16717	5.57
0.18383	5.57
0.20050	5.57
0.21717	5.57
0.23383	5.57
0.25050	5.57
0.26717	5.57
0.28383	5.57
0.30050	5.57
0.31717	5.57
0.33383	5.57
0.35050	5.57
0.36717	5.57
0.38383	5.57
0.40050	5.57
0.41717	5.57
0.43383	5.57
0.45050	5.57
0.46717	5.57
0.48383	5.57
0.50050	5.57
0.51717	5.57
0.53383	5.57
0.55050	5.57
0.56717	5.57
0.58383	5.57
0.60050	5.57
0.61717	5.57
0.63383	5.57
0.65050	5.57
0.66717	5.57
0.68383	5.57
0.70050	5.57
0.71717	5.57
0.73383	5.57
0.75050	5.57
0.76717	5.57
0.78383	5.57
0.80050	5.57
0.81717	5.57
0.83383	5.57
0.85050	5.57
0.86717	5.57
0.88383	5.57
0.90050	5.57
0.91717	5.57
0.93383	5.57
0.95050	5.57
0.96717	5.57
0.98383	5.57
1.00050	5.57
1.01717	5.57
1.03383	5.57
1.05050	5.57
1.06717	5.57
1.08383	5.57
1.10050	5.57
1.11717	5.57
1.13383	5.57
1.15050	5.57
1.16717	5.57
1.18383	5.57
1.20050	5.57
1.21717	5.57
1.23383	5.57
1.25050	5.57
1.26717	5.57
1.28383	5.57
1.30050	5.57
1.31717	5.57
1.33383	5.57
1.35050	5.57
1.36717	5.57
1.38383	5.57
1.40050	5.57
1.41717	5.57
1.43383	5.57
1.45050	5.57
1.46717	5.57
1.48383	5.57
1.50050	5.57
1.51717	5.57
1.53383	5.57
1.55050	5.57
1.56717	5.57
1.58383	5.57
1.60050	5.57
1.61717	5.57
1.63383	5.56
1.65050	5.56
1.66717	5.55
1.68383	5.54
1.70050	5.52
1.71717	5.51
1.73383	5.50
1.75050	5.49
1.76717	5.48
1.78383	5.47
1.80050	5.46
1.81717	5.45
1.83383	5.44
1.85050	5.43
1.86717	5.42
1.88383	5.41
1.90050	5.40
1.91717	5.39
1.93383	5.38
1.95050	5.37
1.96717	5.36
1.98383	5.35
2.00050	5.34
2.01717	5.33
2.03383	5.32
2.05050	5.31
2.06717	5.31
2.08383	5.29
2.10050	5.29
2.11717	5.28
2.13383	5.27
2.15050	5.26
2.16717	5.25
2.18383	5.24
2.20050	5.23
2.21717	5.22
2.23383	5.21
2.25050	5.20
2.26717	5.19
2.28383	5.18
2.30050	5.17
2.31717	5.16
2.33383	5.15
2.35050	5.14
2.36717	5.14
2.38383	5.13
2.40050	5.13
2.41717	5.13
2.43383	5.13
2.45050	5.13
2.46717	5.13
2.48383	5.13
2.50050	5.13
2.51717	5.13
2.53383	5.13
2.55050	5.13
2.56717	5.13
2.58383	5.13
2.60050	5.13
2.61717	5.13
2.63383	5.13
2.65050	5.13
2.66717	5.13
2.68383	5.13
2.70050	5.13
2.71717	5.13
2.73383	5.13
2.75050	5.13
2.76717	5.13
2.78383	5.13
2.80050	5.13
2.81717	5.13
2.83383	5.13
2.85050	5.13
2.86717	5.13
2.88383	5.13
2.90050	5.13
2.91717	5.13
2.93383	5.13
2.95050	5.13
2.96717	5.13
2.98383	5.13
3.00050	5.13
3.01717	5.13
3.03383	5.13
3.05050	5.13
3.06717	5.12
3.08383	5.12
3.10050	5.12
3.11717	5.12
3.13383	5.12
3.15050	5.12
3.16717	5.12
3.18383	5.12
3.20050	5.12
3.21717	5.12
3.23383	5.12
3.25050	5.12
3.26717	5.12
3.28383	5.12
3.30050	5.12
3.31717	5.12
3.33383	5.12
3.35050	5.12
3.36717	5.12
3.38383	5.12
3.40050	5.12
3.41717	5.12
3.43383	5.12
3.45050	5.12
3.46717	5.12
3.48383	5.12
3.50050	5.12
3.51717	5.12
3.53383	5.12
3.55050	5.12
3.56717	5.12
3.58383	5.12
3.60050	5.12
3.61717	5.12
3.63383	5.12
3.65050	5.12
3.66717	5.12
3.68383	5.12
3.70050	5.12
3.71717	5.12
3.73383	5.12
3.75050	5.12
3.76717	5.12
3.78383	5.12
3.80050	5.12
3.81717	5.12
3.83383	5.12
3.85050	5.12
3.86717	5.12
3.88383	5.12
3.90050	5.12
3.91717	5.12
3.93383	5.12
3.95050	5.12
3.96717	5.12
3.98383	5.12

[Status Trace (Linear Velocity)]
Interval(msec)	1000
# of Points	240
Start Time(min)	0.001
End Time(min)	3.984
Intensity Units	
Intensity Multiplier	1
R.Time (min)	Intensity
0.00050	39.02
0.01717	38.20
0.03383	37.73
0.05050	39.28
0.06717	40.26
0.08383	39.29
0.10050	39.00
0.11717	39.03
0.13383	39.03
0.15050	39.03
0.16717	39.03
0.18383	39.03
0.20050	39.03
0.21717	39.03
0.23383	39.03
0.25050	39.03
0.26717	39.03
0.28383	39.03
0.30050	39.03
0.31717	39.03
0.33383	39.03
0.35050	39.02
0.36717	39.02
0.38383	39.03
0.40050	39.03
0.41717	39.03
0.43383	39.03
0.45050	39.03
0.46717	39.03
0.48383	39.03
0.50050	39.03
0.51717	39.03
0.53383	39.03
0.55050	39.03
0.56717	39.03
0.58383	39.03
0.60050	39.03
0.61717	39.03
0.63383	39.03
0.65050	39.03
0.66717	39.03
0.68383	39.03
0.70050	39.03
0.71717	39.03
0.73383	39.03
0.75050	39.03
0.76717	39.03
0.78383	39.03
0.80050	39.03
0.81717	39.03
0.83383	39.03
0.85050	39.03
0.86717	39.03
0.88383	39.03
0.90050	39.03
0.91717	39.03
0.93383	39.03
0.95050	39.03
0.96717	39.03
0.98383	39.03
1.00050	39.03
1.01717	39.03
1.03383	39.03
1.05050	39.03
1.06717	39.03
1.08383	39.03
1.10050	39.03
1.11717	39.03
1.13383	39.03
1.15050	39.03
1.16717	39.03
1.18383	39.03
1.20050	39.03
1.21717	39.03
1.23383	39.03
1.25050	39.03
1.26717	39.03
1.28383	39.03
1.30050	39.03
1.31717	39.03
1.33383	39.03
1.35050	39.03
1.36717	39.03
1.38383	39.03
1.40050	39.03
1.41717	39.03
1.43383	39.03
1.45050	39.03
1.46717	39.03
1.48383	39.03
1.50050	39.03
1.51717	39.03
1.53383	39.03
1.55050	39.03
1.56717	39.03
1.58383	39.03
1.60050	39.03
1.61717	39.02
1.63383	39.00
1.65050	38.98
1.66717	38.96
1.68383	38.92
1.70050	38.88
1.71717	38.85
1.73383	38.82
1.75050	38.79
1.76717	38.76
1.78383	38.72
1.80050	38.69
1.81717	38.66
1.83383	38.63
1.85050	38.60
1.86717	38.57
1.88383	38.54
1.90050	38.51
1.91717	38.48
1.93383	38.45
1.95050	38.42
1.96717	38.39
1.98383	38.36
2.00050	38.33
2.01717	38.30
2.03383	38.27
2.05050	38.24
2.06717	38.21
2.08383	38.18
2.10050	38.15
2.11717	38.12
2.13383	38.09
2.15050	38.06
2.16717	38.03
2.18383	38.00
2.20050	37.97
2.21717	37.94
2.23383	37.91
2.25050	37.88
2.26717	37.85
2.28383	37.82
2.30050	37.79
2.31717	37.77
2.33383	37.73
2.35050	37.70
2.36717	37.68
2.38383	37.67
2.40050	37.67
2.41717	37.67
2.43383	37.67
2.45050	37.67
2.46717	37.67
2.48383	37.67
2.50050	37.67
2.51717	37.66
2.53383	37.66
2.55050	37.67
2.56717	37.66
2.58383	37.66
2.60050	37.66
2.61717	37.66
2.63383	37.66
2.65050	37.66
2.66717	37.66
2.68383	37.66
2.70050	37.66
2.71717	37.66
2.73383	37.66
2.75050	37.65
2.76717	37.65
2.78383	37.65
2.80050	37.65
2.81717	37.65
2.83383	37.65
2.85050	37.65
2.86717	37.65
2.88383	37.65
2.90050	37.65
2.91717	37.65
2.93383	37.65
2.95050	37.65
2.96717	37.65
2.98383	37.65
3.00050	37.65
3.01717	37.65
3.03383	37.65
3.05050	37.64
3.06717	37.64
3.08383	37.64
3.10050	37.64
3.11717	37.64
3.13383	37.64
3.15050	37.64
3.16717	37.64
3.18383	37.64
3.20050	37.64
3.21717	37.64
3.23383	37.63
3.25050	37.63
3.26717	37.63
3.28383	37.64
3.30050	37.64
3.31717	37.64
3.33383	37.64
3.35050	37.64
3.36717	37.64
3.38383	37.64
3.40050	37.64
3.41717	37.64
3.43383	37.64
3.45050	37.64
3.46717	37.64
3.48383	37.64
3.50050	37.64
3.51717	37.64
3.53383	37.64
3.55050	37.64
3.56717	37.64
3.58383	37.64
3.60050	37.64
3.61717	37.64
3.63383	37.64
3.65050	37.64
3.66717	37.64
3.68383	37.64
3.70050	37.64
3.71717	37.64
3.73383	37.64
3.75050	37.64
3.76717	37.64
3.78383	37.64
3.80050	37.64
3.81717	37.64
3.83383	37.64
3.85050	37.64
3.86717	37.64
3.88383	37.64
3.90050	37.64
3.91717	37.64
3.93383	37.64
3.95050	37.64
3.96717	37.64
3.98383	37.64

