[Header]
Application Name	LabSolutions
Version	5.110
Data File Name	C:\Users\User\Desktop\GC Analyses\Jack\Nachusa Grasslands Sampling\T0 Timepoint July 12th\T0_07122022_079.gcd
Output Date	3/14/2023
Output Time	3:40:39 PM

[File Information]
Type	Data File
Generated	3/7/2023 10:36:37 PM
Generated by	System Administrator
Modified	3/7/2023 10:43:14 PM
Modified by	System Administrator

[Sample Information]
Operator Name	System Administrator
Acquired	3/7/2023 10:39:12 PM
Sample Type	0:Unknown
Level	0
Sample Name	079
Sample ID	079
ISTD Amount1	1
ISTD Amount2	1
ISTD Amount3	1
ISTD Amount4	1
ISTD Amount5	1
ISTD Amount6	1
ISTD Amount7	1
ISTD Amount8	1
ISTD Amount9	1
ISTD Amount10	1
ISTD Amount11	1
ISTD Amount12	1
ISTD Amount13	1
ISTD Amount14	1
ISTD Amount15	1
ISTD Amount16	1
ISTD Amount17	1
ISTD Amount18	1
ISTD Amount19	1
ISTD Amount20	1
ISTD Amount21	1
ISTD Amount22	1
ISTD Amount23	1
ISTD Amount24	1
ISTD Amount25	1
ISTD Amount26	1
ISTD Amount27	1
ISTD Amount28	1
ISTD Amount29	1
ISTD Amount30	1
ISTD Amount31	1
ISTD Amount32	1
Sample Amount	1
Dilution Factor	1
Vial#	78
Injection Volume	1
Injection Count	1
Bar Code	

[Original Files]
Data File	C:\Users\User\Desktop\GC Analyses\Jack\Nachusa Grasslands Sampling\T0 Timepoint July 12th\T0_07122022_079.gcd
Method File	C:\LabSolutions\Data\GHG_4min_2022\ghg3_togas_w_acet_4 min_new_int.gcm
Batch File	C:\LabSolutions\Data\AutoSamplerTesting\T0_07122022.gcb
Report Format File	c:\LabSolutions\System\DEFAULT.lsr

[File Description]


[Configuration]
Instrument Name	C0B7VH3-Instrument1
Instrument #	1
Line #	1
# of Detectors	3
Detector ID	DET#1	DET#2	DET#3
Detector Name	FID	PTCD	ECD
# of Channels	1	1	1

[Peak Table(Ch1)]
# of Peaks	3
Peak#	R.Time	I.Time	F.Time	Area	Height	A/H	Conc.	Mark	ID#	Name	k'	Plate #	Plate Ht.	Tailing	Resolution	Sep.Factor	Area Ratio	Height Ratio	Conc. %	Norm Conc.
1	1.476	1.432	1.538	33352	15771	2.115	235.464	   	1	CO	0.000	9394	15.967	1.319	0.000	0.000	0	0	37.352	37.352
2	1.567	1.538	1.641	5090	2382	2.137	98.411	 V 	2	CH4	0.062	9993	15.011	0.000	1.483	0.000	0	0	15.611	15.611
3	1.996	1.952	2.473	1181460	558384	2.116	296.514	   	3	CO2	0.353	17287	8.677	1.299	6.950	5.680	0	0	47.037	47.037

[Peak Table(Ch2)]
# of Peaks	0

[Peak Table(Ch3)]
# of Peaks	6
Peak#	R.Time	I.Time	F.Time	Area	Height	A/H	Conc.	Mark	ID#	Name	k'	Plate #	Plate Ht.	Tailing	Resolution	Sep.Factor	Area Ratio	Height Ratio	Conc. %	Norm Conc.
1	2.458	2.279	2.517	1806	422	4.279	0.000	   			0.000	8385	17.888	0.000	0.000	0.000	0	0	0.000	0.000
2	2.546	2.517	2.631	934	209	4.479	0.000	 V 			0.036	3156	47.535	0.000	0.610	0.000	0	0	0.000	0.000
3	2.708	2.642	2.737	443	108	4.087	0.000	   			0.101	2203	68.097	0.000	0.783	2.833	0	0	0.000	0.000
4	2.873	2.737	3.107	20056	4915	4.080	0.512	 V 	1	N2O	0.169	13042	11.501	1.683	0.996	1.662	0	0	100.000	100.000
5	3.206	3.111	3.291	5006	575	8.711	0.000	   	2	SF6	0.304	320	468.021	0.000	0.817	1.805	0	0	0.000	0.000
6	3.368	3.291	3.962	10375	553	18.759	0.000	 V 	2	SF6	0.370	13	11343.035	0.000	0.073	1.216	0	0	0.000	0.000

[Compound Results(Ch1)]
# of IDs	6
ID#	Name	R.Time	Area	Height	Conc.	Curve	3rd	2nd	1st	Constant	Area Ratio	Height Ratio	Conc. %	Norm Conc.
1	CO	1.476	33352	15771	235.464	Linear	0.000000e+00	0.000000e+00	1.416423e+002	0.000000e+00	0	0	37.352	37.352
2	CH4	1.567	5090	2382	98.411	Linear	0.000000e+00	0.000000e+00	5.171738e+001	0.000000e+00	0	0	15.611	15.611
3	CO2	1.996	1181460	558384	296.514	Linear	0.000000e+00	0.000000e+00	3.984494e+003	0.000000e+00	0	0	47.037	47.037
4	Ethylene	0.000	0	0	0.000	Linear	0.000000e+00	0.000000e+00	0.000000e+00	0.000000e+00	0	0	0.000	0.000
5	Acetylene	0.000	0	0	0.000	Linear	0.000000e+00	0.000000e+00	0.000000e+00	0.000000e+00	0	0	0.000	0.000
6	Ethane	0.000	0	0	0.000	Linear	0.000000e+00	0.000000e+00	0.000000e+00	0.000000e+00	0	0	0.000	0.000

[Compound Results(Ch2)]
# of IDs	5
ID#	Name	R.Time	Area	Height	Conc.	Curve	3rd	2nd	1st	Constant	Area Ratio	Height Ratio	Conc. %	Norm Conc.
1	Hydrogen	0.000	0	0	0.000	Linear	0.000000e+00	0.000000e+00	0.000000e+00	0.000000e+00	0	0	0.000	0.000
2	Oxygen	0.000	0	0	0.000	Linear	0.000000e+00	0.000000e+00	0.000000e+00	0.000000e+00	0	0	0.000	0.000
3	Nitrogen	0.000	0	0	0.000	Linear	0.000000e+00	0.000000e+00	0.000000e+00	0.000000e+00	0	0	0.000	0.000
4	Methane	0.000	0	0	0.000	Linear	0.000000e+00	0.000000e+00	0.000000e+00	0.000000e+00	0	0	0.000	0.000
5	Carbon Monoxide	0.000	0	0	0.000	Linear	0.000000e+00	0.000000e+00	0.000000e+00	0.000000e+00	0	0	0.000	0.000

[Compound Results(Ch3)]
# of IDs	2
ID#	Name	R.Time	Area	Height	Conc.	Curve	3rd	2nd	1st	Constant	Area Ratio	Height Ratio	Conc. %	Norm Conc.
1	N2O	2.873	20056	4915	0.512	Linear	0.000000e+00	0.000000e+00	3.915173e+004	0.000000e+00	0	0	100.000	100.000
2	SF6	3.206	15381	1128	0.000	Linear	0.000000e+00	0.000000e+00	0.000000e+00	0.000000e+00	0	0	0.000	0.000

[Group Results(Ch1)]
# of Groups	0

[Group Results(Ch2)]
# of Groups	0

[Group Results(Ch3)]
# of Groups	0

[Chromatogram (Ch1)]
Interval(msec)	220
# of Points	1091
Start Time(min)	0.002
End Time(min)	3.998
R.Time (min)	Intensity
0.00167	-6
0.00533	-2
0.00900	2
0.01267	5
0.01633	8
0.02000	11
0.02367	12
0.02733	9
0.03100	7
0.03467	6
0.03833	7
0.04200	12
0.04567	16
0.04933	16
0.05300	13
0.05667	7
0.06033	4
0.06400	4
0.06767	6
0.07133	9
0.07500	11
0.07867	12
0.08233	12
0.08600	12
0.08967	13
0.09333	14
0.09700	17
0.10067	20
0.10433	22
0.10800	19
0.11167	15
0.11533	12
0.11900	8
0.12267	2
0.12633	-4
0.13000	-11
0.13367	-14
0.13733	-14
0.14100	-12
0.14467	-7
0.14833	4
0.15200	11
0.15567	13
0.15933	13
0.16300	17
0.16667	23
0.17033	27
0.17400	25
0.17767	20
0.18133	13
0.18500	8
0.18867	6
0.19233	2
0.19600	1
0.19967	2
0.20333	5
0.20700	6
0.21067	8
0.21433	9
0.21800	11
0.22167	13
0.22533	19
0.22900	28
0.23267	38
0.23633	43
0.24000	45
0.24367	41
0.24733	35
0.25100	32
0.25467	32
0.25833	30
0.26200	26
0.26567	26
0.26933	30
0.27300	33
0.27667	34
0.28033	37
0.28400	40
0.28767	44
0.29133	48
0.29500	57
0.29867	67
0.30233	74
0.30600	77
0.30967	81
0.31333	86
0.31700	94
0.32067	106
0.32433	119
0.32800	130
0.33167	140
0.33533	148
0.33900	151
0.34267	148
0.34633	142
0.35000	134
0.35367	125
0.35733	117
0.36100	109
0.36467	102
0.36833	97
0.37200	93
0.37567	89
0.37933	85
0.38300	81
0.38667	81
0.39033	85
0.39400	88
0.39767	93
0.40133	97
0.40500	98
0.40867	93
0.41233	81
0.41600	70
0.41967	59
0.42333	47
0.42700	39
0.43067	37
0.43433	40
0.43800	45
0.44167	47
0.44533	40
0.44900	28
0.45267	17
0.45633	7
0.46000	2
0.46367	5
0.46733	9
0.47100	9
0.47467	8
0.47833	5
0.48200	3
0.48567	3
0.48933	5
0.49300	8
0.49667	13
0.50033	18
0.50400	17
0.50767	12
0.51133	7
0.51500	12
0.51867	21
0.52233	24
0.52600	20
0.52967	12
0.53333	4
0.53700	1
0.54067	1
0.54433	0
0.54800	-2
0.55167	-3
0.55533	-1
0.55900	1
0.56267	1
0.56633	2
0.57000	4
0.57367	2
0.57733	-3
0.58100	-6
0.58467	-7
0.58833	-8
0.59200	-11
0.59567	-14
0.59933	-13
0.60300	-9
0.60667	-7
0.61033	-7
0.61400	-5
0.61767	-2
0.62133	-1
0.62500	-2
0.62867	-4
0.63233	-6
0.63600	-8
0.63967	-9
0.64333	-9
0.64700	-11
0.65067	-13
0.65433	-11
0.65800	-8
0.66167	-8
0.66533	-8
0.66900	-6
0.67267	-1
0.67633	3
0.68000	6
0.68367	6
0.68733	8
0.69100	14
0.69467	22
0.69833	24
0.70200	22
0.70567	19
0.70933	14
0.71300	6
0.71667	-3
0.72033	-12
0.72400	-20
0.72767	-25
0.73133	-28
0.73500	-30
0.73867	-31
0.74233	-29
0.74600	-22
0.74967	-16
0.75333	-12
0.75700	-6
0.76067	0
0.76433	1
0.76800	-1
0.77167	1
0.77533	5
0.77900	12
0.78267	18
0.78633	21
0.79000	25
0.79367	23
0.79733	16
0.80100	7
0.80467	-3
0.80833	-14
0.81200	-27
0.81567	-37
0.81933	-39
0.82300	-38
0.82667	-35
0.83033	-28
0.83400	-23
0.83767	-20
0.84133	-20
0.84500	-23
0.84867	-24
0.85233	-22
0.85600	-16
0.85967	-14
0.86333	-15
0.86700	-18
0.87067	-24
0.87433	-29
0.87800	-32
0.88167	-31
0.88533	-27
0.88900	-24
0.89267	-18
0.89633	-10
0.90000	-5
0.90367	-0
0.90733	1
0.91100	-1
0.91467	-0
0.91833	2
0.92200	3
0.92567	4
0.92933	1
0.93300	-5
0.93667	-11
0.94033	-15
0.94400	-17
0.94767	-13
0.95133	-4
0.95500	4
0.95867	8
0.96233	5
0.96600	-3
0.96967	-12
0.97333	-20
0.97700	-27
0.98067	-35
0.98433	-39
0.98800	-36
0.99167	-28
0.99533	-20
0.99900	-18
1.00267	-20
1.00633	-20
1.01000	-22
1.01367	-22
1.01733	-18
1.02100	-15
1.02467	-17
1.02833	-22
1.03200	-26
1.03567	-24
1.03933	-20
1.04300	-16
1.04667	-14
1.05033	-15
1.05400	-15
1.05767	-18
1.06133	-26
1.06500	-33
1.06867	-36
1.07233	-35
1.07600	-30
1.07967	-25
1.08333	-20
1.08700	-17
1.09067	-19
1.09433	-23
1.09800	-27
1.10167	-31
1.10533	-34
1.10900	-35
1.11267	-30
1.11633	-26
1.12000	-24
1.12367	-24
1.12733	-25
1.13100	-26
1.13467	-21
1.13833	-14
1.14200	-6
1.14567	1
1.14933	3
1.15300	-0
1.15667	-6
1.16033	-11
1.16400	-14
1.16767	-18
1.17133	-22
1.17500	-23
1.17867	-19
1.18233	-14
1.18600	-12
1.18967	-10
1.19333	-15
1.19700	-27
1.20067	-29
1.20433	-23
1.20800	-20
1.21167	-18
1.21533	-17
1.21900	-19
1.22267	-21
1.22633	-23
1.23000	-27
1.23367	-34
1.23733	-43
1.24100	-49
1.24467	-51
1.24833	-50
1.25200	-47
1.25567	-42
1.25933	-37
1.26300	-30
1.26667	-23
1.27033	-22
1.27400	-28
1.27767	-37
1.28133	-45
1.28500	-48
1.28867	-46
1.29233	-40
1.29600	-38
1.29967	-40
1.30333	-42
1.30700	-44
1.31067	-45
1.31433	-46
1.31800	-47
1.32167	-48
1.32533	-49
1.32900	-48
1.33267	-47
1.33633	-42
1.34000	-36
1.34367	-32
1.34733	-32
1.35100	-35
1.35467	-35
1.35833	-34
1.36200	-34
1.36567	-33
1.36933	-34
1.37300	-38
1.37667	-43
1.38033	-45
1.38400	-44
1.38767	-39
1.39133	-33
1.39500	-29
1.39867	-25
1.40233	-24
1.40600	-25
1.40967	-30
1.41333	-39
1.41700	-47
1.42067	-52
1.42433	-54
1.42800	-51
1.43167	-43
1.43533	-32
1.43900	-7
1.44267	85
1.44633	339
1.45000	1019
1.45367	2606
1.45733	5193
1.46100	8252
1.46467	11140
1.46833	13465
1.47200	15044
1.47567	15738
1.47933	15417
1.48300	14089
1.48667	12015
1.49033	9633
1.49400	7351
1.49767	5420
1.50133	3913
1.50500	2799
1.50867	2002
1.51233	1443
1.51600	1056
1.51967	788
1.52333	604
1.52700	477
1.53067	390
1.53433	332
1.53800	306
1.54167	346
1.54533	514
1.54900	834
1.55267	1247
1.55633	1661
1.56000	2007
1.56367	2251
1.56733	2371
1.57100	2338
1.57467	2143
1.57833	1818
1.58200	1437
1.58567	1072
1.58933	767
1.59300	537
1.59667	376
1.60033	266
1.60400	191
1.60767	142
1.61133	112
1.61500	92
1.61867	77
1.62233	64
1.62600	55
1.62967	45
1.63333	31
1.63700	17
1.64067	6
1.64433	3
1.64800	3
1.65167	-1
1.65533	-8
1.65900	-13
1.66267	-14
1.66633	-10
1.67000	-7
1.67367	-1
1.67733	4
1.68100	3
1.68467	-2
1.68833	-12
1.69200	-28
1.69567	-45
1.69933	-58
1.70300	-67
1.70667	-70
1.71033	-68
1.71400	-62
1.71767	-54
1.72133	-43
1.72500	-36
1.72867	-32
1.73233	-30
1.73600	-31
1.73967	-31
1.74333	-28
1.74700	-23
1.75067	-20
1.75433	-19
1.75800	-20
1.76167	-22
1.76533	-24
1.76900	-26
1.77267	-27
1.77633	-26
1.78000	-24
1.78367	-20
1.78733	-19
1.79100	-21
1.79467	-24
1.79833	-26
1.80200	-27
1.80567	-29
1.80933	-31
1.81300	-33
1.81667	-32
1.82033	-28
1.82400	-22
1.82767	-17
1.83133	-12
1.83500	-7
1.83867	-3
1.84233	-3
1.84600	-8
1.84967	-11
1.85333	-13
1.85700	-19
1.86067	-22
1.86433	-22
1.86800	-19
1.87167	-20
1.87533	-20
1.87900	-22
1.88267	-21
1.88633	-19
1.89000	-16
1.89367	-11
1.89733	-8
1.90100	-3
1.90467	2
1.90833	2
1.91200	-2
1.91567	-4
1.91933	-7
1.92300	-6
1.92667	-2
1.93033	4
1.93400	8
1.93767	7
1.94133	5
1.94500	2
1.94867	-3
1.95233	5
1.95600	111
1.95967	732
1.96333	3472
1.96700	12693
1.97067	36471
1.97433	84330
1.97800	160669
1.98167	259167
1.98533	364171
1.98900	458041
1.99267	526107
1.99633	558424
2.00000	550805
2.00367	506303
2.00733	435228
2.01100	352062
2.01467	270464
2.01833	199552
2.02200	143089
2.02567	100863
2.02933	70647
2.03300	49647
2.03667	35308
2.04033	25600
2.04400	19038
2.04767	14577
2.05133	11509
2.05500	9358
2.05867	7820
2.06233	6695
2.06600	5848
2.06967	5196
2.07333	4680
2.07700	4261
2.08067	3913
2.08433	3620
2.08800	3365
2.09167	3138
2.09533	2935
2.09900	2757
2.10267	2597
2.10633	2453
2.11000	2320
2.11367	2199
2.11733	2092
2.12100	2001
2.12467	1921
2.12833	1846
2.13200	1771
2.13567	1701
2.13933	1640
2.14300	1585
2.14667	1532
2.15033	1479
2.15400	1427
2.15767	1380
2.16133	1342
2.16500	1306
2.16867	1265
2.17233	1224
2.17600	1186
2.17967	1154
2.18333	1125
2.18700	1095
2.19067	1068
2.19433	1042
2.19800	1019
2.20167	1003
2.20533	990
2.20900	976
2.21267	957
2.21633	933
2.22000	910
2.22367	888
2.22733	869
2.23100	849
2.23467	830
2.23833	812
2.24200	796
2.24567	780
2.24933	766
2.25300	752
2.25667	737
2.26033	719
2.26400	703
2.26767	691
2.27133	684
2.27500	676
2.27867	667
2.28233	656
2.28600	644
2.28967	634
2.29333	628
2.29700	626
2.30067	627
2.30433	623
2.30800	611
2.31167	594
2.31533	578
2.31900	565
2.32267	557
2.32633	551
2.33000	543
2.33367	534
2.33733	527
2.34100	520
2.34467	513
2.34833	510
2.35200	513
2.35567	518
2.35933	522
2.36300	522
2.36667	518
2.37033	514
2.37400	508
2.37767	499
2.38133	491
2.38500	485
2.38867	479
2.39233	471
2.39600	465
2.39967	459
2.40333	457
2.40700	460
2.41067	465
2.41433	471
2.41800	474
2.42167	471
2.42533	462
2.42900	452
2.43267	443
2.43633	436
2.44000	429
2.44367	423
2.44733	420
2.45100	422
2.45467	428
2.45833	435
2.46200	439
2.46567	435
2.46933	427
2.47300	415
2.47667	409
2.48033	409
2.48400	409
2.48767	406
2.49133	401
2.49500	398
2.49867	409
2.50233	425
2.50600	437
2.50967	446
2.51333	451
2.51700	454
2.52067	456
2.52433	457
2.52800	457
2.53167	459
2.53533	462
2.53900	464
2.54267	463
2.54633	460
2.55000	459
2.55367	458
2.55733	454
2.56100	442
2.56467	428
2.56833	418
2.57200	414
2.57567	415
2.57933	419
2.58300	424
2.58667	426
2.59033	429
2.59400	432
2.59767	434
2.60133	436
2.60500	439
2.60867	441
2.61233	438
2.61600	429
2.61967	419
2.62333	414
2.62700	413
2.63067	415
2.63433	417
2.63800	420
2.64167	423
2.64533	426
2.64900	429
2.65267	433
2.65633	434
2.66000	434
2.66367	431
2.66733	429
2.67100	426
2.67467	426
2.67833	427
2.68200	428
2.68567	430
2.68933	431
2.69300	433
2.69667	436
2.70033	436
2.70400	435
2.70767	438
2.71133	442
2.71500	443
2.71867	441
2.72233	440
2.72600	440
2.72967	437
2.73333	431
2.73700	426
2.74067	424
2.74433	422
2.74800	416
2.75167	410
2.75533	407
2.75900	402
2.76267	399
2.76633	402
2.77000	404
2.77367	404
2.77733	403
2.78100	404
2.78467	405
2.78833	404
2.79200	404
2.79567	408
2.79933	412
2.80300	415
2.80667	417
2.81033	416
2.81400	414
2.81767	414
2.82133	416
2.82500	419
2.82867	421
2.83233	424
2.83600	426
2.83967	422
2.84333	414
2.84700	406
2.85067	404
2.85433	404
2.85800	408
2.86167	411
2.86533	416
2.86900	423
2.87267	428
2.87633	428
2.88000	424
2.88367	420
2.88733	418
2.89100	416
2.89467	414
2.89833	409
2.90200	406
2.90567	405
2.90933	404
2.91300	404
2.91667	403
2.92033	403
2.92400	404
2.92767	405
2.93133	407
2.93500	407
2.93867	406
2.94233	404
2.94600	400
2.94967	396
2.95333	392
2.95700	389
2.96067	388
2.96433	390
2.96800	396
2.97167	405
2.97533	414
2.97900	421
2.98267	426
2.98633	430
2.99000	433
2.99367	441
2.99733	450
3.00100	455
3.00467	451
3.00833	440
3.01200	431
3.01567	424
3.01933	420
3.02300	422
3.02667	424
3.03033	423
3.03400	416
3.03767	411
3.04133	407
3.04500	402
3.04867	393
3.05233	382
3.05600	373
3.05967	369
3.06333	370
3.06700	375
3.07067	382
3.07433	389
3.07800	392
3.08167	395
3.08533	399
3.08900	400
3.09267	402
3.09633	404
3.10000	406
3.10367	414
3.10733	422
3.11100	422
3.11467	415
3.11833	407
3.12200	401
3.12567	398
3.12933	396
3.13300	394
3.13667	395
3.14033	397
3.14400	401
3.14767	405
3.15133	408
3.15500	406
3.15867	401
3.16233	395
3.16600	390
3.16967	386
3.17333	384
3.17700	384
3.18067	385
3.18433	385
3.18800	388
3.19167	391
3.19533	394
3.19900	395
3.20267	394
3.20633	390
3.21000	388
3.21367	388
3.21733	390
3.22100	395
3.22467	402
3.22833	408
3.23200	412
3.23567	411
3.23933	405
3.24300	396
3.24667	385
3.25033	375
3.25400	365
3.25767	360
3.26133	359
3.26500	360
3.26867	362
3.27233	365
3.27600	366
3.27967	367
3.28333	371
3.28700	374
3.29067	378
3.29433	379
3.29800	380
3.30167	385
3.30533	390
3.30900	394
3.31267	396
3.31633	394
3.32000	388
3.32367	379
3.32733	373
3.33100	370
3.33467	371
3.33833	374
3.34200	379
3.34567	382
3.34933	380
3.35300	377
3.35667	373
3.36033	367
3.36400	361
3.36767	357
3.37133	356
3.37500	355
3.37867	354
3.38233	358
3.38600	362
3.38967	360
3.39333	355
3.39700	351
3.40067	353
3.40433	360
3.40800	364
3.41167	365
3.41533	362
3.41900	361
3.42267	359
3.42633	357
3.43000	356
3.43367	359
3.43733	364
3.44100	369
3.44467	374
3.44833	380
3.45200	380
3.45567	372
3.45933	361
3.46300	352
3.46667	346
3.47033	344
3.47400	345
3.47767	348
3.48133	347
3.48500	340
3.48867	333
3.49233	327
3.49600	325
3.49967	325
3.50333	330
3.50700	337
3.51067	342
3.51433	344
3.51800	346
3.52167	351
3.52533	360
3.52900	367
3.53267	368
3.53633	364
3.54000	361
3.54367	360
3.54733	358
3.55100	351
3.55467	344
3.55833	340
3.56200	336
3.56567	332
3.56933	327
3.57300	321
3.57667	316
3.58033	316
3.58400	320
3.58767	327
3.59133	333
3.59500	339
3.59867	343
3.60233	344
3.60600	343
3.60967	342
3.61333	340
3.61700	338
3.62067	332
3.62433	324
3.62800	314
3.63167	306
3.63533	303
3.63900	303
3.64267	301
3.64633	301
3.65000	305
3.65367	310
3.65733	314
3.66100	318
3.66467	320
3.66833	323
3.67200	327
3.67567	335
3.67933	345
3.68300	351
3.68667	350
3.69033	344
3.69400	338
3.69767	335
3.70133	331
3.70500	323
3.70867	312
3.71233	301
3.71600	292
3.71967	285
3.72333	278
3.72700	275
3.73067	276
3.73433	282
3.73800	291
3.74167	298
3.74533	303
3.74900	306
3.75267	309
3.75633	307
3.76000	302
3.76367	296
3.76733	292
3.77100	291
3.77467	292
3.77833	293
3.78200	294
3.78567	296
3.78933	293
3.79300	290
3.79667	291
3.80033	296
3.80400	302
3.80767	306
3.81133	312
3.81500	319
3.81867	325
3.82233	327
3.82600	322
3.82967	313
3.83333	305
3.83700	299
3.84067	293
3.84433	288
3.84800	286
3.85167	286
3.85533	285
3.85900	285
3.86267	287
3.86633	290
3.87000	292
3.87367	296
3.87733	300
3.88100	301
3.88467	296
3.88833	289
3.89200	284
3.89567	281
3.89933	279
3.90300	277
3.90667	273
3.91033	270
3.91400	266
3.91767	263
3.92133	258
3.92500	252
3.92867	249
3.93233	248
3.93600	247
3.93967	249
3.94333	249
3.94700	248
3.95067	251
3.95433	253
3.95800	255
3.96167	256
3.96533	256
3.96900	259
3.97267	262
3.97633	263
3.98000	264
3.98367	265
3.98733	266
3.99100	267
3.99467	268
3.99833	268

[Chromatogram (Ch2)]
Interval(msec)	220
# of Points	1091
Start Time(min)	0.002
End Time(min)	3.998
R.Time (min)	Intensity
0.00167	0
0.00533	0
0.00900	1
0.01267	1
0.01633	1
0.02000	1
0.02367	1
0.02733	1
0.03100	1
0.03467	0
0.03833	0
0.04200	-0
0.04567	-0
0.04933	-0
0.05300	-0
0.05667	-0
0.06033	-0
0.06400	-0
0.06767	-1
0.07133	-1
0.07500	-1
0.07867	-1
0.08233	-0
0.08600	-0
0.08967	0
0.09333	1
0.09700	1
0.10067	1
0.10433	2
0.10800	2
0.11167	2
0.11533	3
0.11900	3
0.12267	3
0.12633	3
0.13000	3
0.13367	3
0.13733	3
0.14100	3
0.14467	3
0.14833	3
0.15200	3
0.15567	3
0.15933	2
0.16300	2
0.16667	2
0.17033	2
0.17400	2
0.17767	3
0.18133	3
0.18500	3
0.18867	3
0.19233	4
0.19600	4
0.19967	4
0.20333	4
0.20700	4
0.21067	4
0.21433	4
0.21800	4
0.22167	4
0.22533	5
0.22900	5
0.23267	5
0.23633	5
0.24000	5
0.24367	5
0.24733	5
0.25100	4
0.25467	4
0.25833	4
0.26200	5
0.26567	5
0.26933	5
0.27300	6
0.27667	6
0.28033	6
0.28400	6
0.28767	5
0.29133	5
0.29500	5
0.29867	5
0.30233	4
0.30600	4
0.30967	5
0.31333	5
0.31700	5
0.32067	5
0.32433	5
0.32800	5
0.33167	5
0.33533	4
0.33900	4
0.34267	4
0.34633	3
0.35000	3
0.35367	2
0.35733	1
0.36100	1
0.36467	1
0.36833	1
0.37200	1
0.37567	1
0.37933	1
0.38300	1
0.38667	1
0.39033	1
0.39400	1
0.39767	1
0.40133	1
0.40500	1
0.40867	1
0.41233	1
0.41600	1
0.41967	1
0.42333	1
0.42700	1
0.43067	1
0.43433	1
0.43800	1
0.44167	1
0.44533	0
0.44900	1
0.45267	1
0.45633	1
0.46000	2
0.46367	2
0.46733	2
0.47100	2
0.47467	2
0.47833	3
0.48200	3
0.48567	3
0.48933	3
0.49300	3
0.49667	4
0.50033	4
0.50400	4
0.50767	4
0.51133	5
0.51500	5
0.51867	5
0.52233	5
0.52600	5
0.52967	5
0.53333	5
0.53700	5
0.54067	4
0.54433	4
0.54800	4
0.55167	4
0.55533	4
0.55900	4
0.56267	4
0.56633	4
0.57000	4
0.57367	4
0.57733	4
0.58100	4
0.58467	4
0.58833	4
0.59200	3
0.59567	3
0.59933	3
0.60300	3
0.60667	2
0.61033	2
0.61400	2
0.61767	1
0.62133	1
0.62500	0
0.62867	-0
0.63233	-1
0.63600	-1
0.63967	-2
0.64333	-2
0.64700	-3
0.65067	-3
0.65433	-4
0.65800	-4
0.66167	-3
0.66533	-3
0.66900	-3
0.67267	-2
0.67633	-2
0.68000	-1
0.68367	-0
0.68733	0
0.69100	1
0.69467	1
0.69833	1
0.70200	2
0.70567	2
0.70933	2
0.71300	2
0.71667	2
0.72033	2
0.72400	3
0.72767	3
0.73133	3
0.73500	3
0.73867	4
0.74233	4
0.74600	4
0.74967	4
0.75333	4
0.75700	3
0.76067	3
0.76433	3
0.76800	3
0.77167	2
0.77533	2
0.77900	2
0.78267	2
0.78633	1
0.79000	1
0.79367	1
0.79733	1
0.80100	1
0.80467	2
0.80833	2
0.81200	2
0.81567	1
0.81933	1
0.82300	1
0.82667	1
0.83033	1
0.83400	1
0.83767	1
0.84133	1
0.84500	1
0.84867	0
0.85233	-0
0.85600	-1
0.85967	-1
0.86333	-2
0.86700	-2
0.87067	-2
0.87433	-3
0.87800	-3
0.88167	-2
0.88533	-2
0.88900	-2
0.89267	-2
0.89633	-1
0.90000	-1
0.90367	-1
0.90733	-0
0.91100	0
0.91467	1
0.91833	1
0.92200	1
0.92567	1
0.92933	1
0.93300	1
0.93667	1
0.94033	0
0.94400	1
0.94767	0
0.95133	0
0.95500	0
0.95867	0
0.96233	1
0.96600	1
0.96967	1
0.97333	2
0.97700	2
0.98067	2
0.98433	2
0.98800	3
0.99167	3
0.99533	3
0.99900	2
1.00267	2
1.00633	2
1.01000	1
1.01367	1
1.01733	1
1.02100	0
1.02467	-0
1.02833	-0
1.03200	-1
1.03567	-1
1.03933	-1
1.04300	-1
1.04667	-0
1.05033	0
1.05400	0
1.05767	1
1.06133	1
1.06500	1
1.06867	1
1.07233	1
1.07600	1
1.07967	0
1.08333	0
1.08700	-0
1.09067	-0
1.09433	-1
1.09800	-0
1.10167	-0
1.10533	-0
1.10900	0
1.11267	1
1.11633	2
1.12000	2
1.12367	3
1.12733	3
1.13100	4
1.13467	4
1.13833	4
1.14200	4
1.14567	4
1.14933	3
1.15300	3
1.15667	3
1.16033	4
1.16400	4
1.16767	4
1.17133	3
1.17500	3
1.17867	3
1.18233	3
1.18600	2
1.18967	2
1.19333	2
1.19700	1
1.20067	0
1.20433	-0
1.20800	-1
1.21167	-1
1.21533	-1
1.21900	-1
1.22267	-0
1.22633	0
1.23000	1
1.23367	1
1.23733	2
1.24100	2
1.24467	2
1.24833	2
1.25200	2
1.25567	2
1.25933	2
1.26300	1
1.26667	1
1.27033	1
1.27400	0
1.27767	0
1.28133	0
1.28500	0
1.28867	0
1.29233	0
1.29600	-0
1.29967	-0
1.30333	-0
1.30700	-0
1.31067	-0
1.31433	-0
1.31800	-0
1.32167	-0
1.32533	0
1.32900	0
1.33267	1
1.33633	1
1.34000	1
1.34367	1
1.34733	2
1.35100	2
1.35467	1
1.35833	1
1.36200	1
1.36567	0
1.36933	-0
1.37300	-0
1.37667	-0
1.38033	-0
1.38400	-1
1.38767	-1
1.39133	-1
1.39500	-1
1.39867	-0
1.40233	-0
1.40600	-0
1.40967	-0
1.41333	0
1.41700	0
1.42067	1
1.42433	2
1.42800	2
1.43167	2
1.43533	2
1.43900	2
1.44267	1
1.44633	1
1.45000	0
1.45367	0
1.45733	0
1.46100	0
1.46467	0
1.46833	0
1.47200	0
1.47567	0
1.47933	0
1.48300	0
1.48667	0
1.49033	-0
1.49400	-0
1.49767	-0
1.50133	-0
1.50500	-0
1.50867	-0
1.51233	-0
1.51600	-0
1.51967	-0
1.52333	-0
1.52700	-0
1.53067	-0
1.53433	-0
1.53800	-1
1.54167	-1
1.54533	-1
1.54900	-2
1.55267	-2
1.55633	-2
1.56000	-2
1.56367	-3
1.56733	-3
1.57100	-3
1.57467	-3
1.57833	-2
1.58200	-2
1.58567	-2
1.58933	-1
1.59300	-1
1.59667	-2
1.60033	-2
1.60400	-2
1.60767	-3
1.61133	-5
1.61500	-6
1.61867	-8
1.62233	-11
1.62600	-13
1.62967	-16
1.63333	-19
1.63700	-23
1.64067	-26
1.64433	-29
1.64800	-33
1.65167	-37
1.65533	-41
1.65900	-46
1.66267	-50
1.66633	-56
1.67000	-61
1.67367	-67
1.67733	-72
1.68100	-78
1.68467	-83
1.68833	-88
1.69200	-91
1.69567	-95
1.69933	-98
1.70300	-101
1.70667	-103
1.71033	-105
1.71400	-107
1.71767	-108
1.72133	-109
1.72500	-109
1.72867	-109
1.73233	-109
1.73600	-109
1.73967	-109
1.74333	-109
1.74700	-108
1.75067	-108
1.75433	-108
1.75800	-107
1.76167	-108
1.76533	-108
1.76900	-109
1.77267	-111
1.77633	-112
1.78000	-113
1.78367	-114
1.78733	-115
1.79100	-116
1.79467	-116
1.79833	-116
1.80200	-115
1.80567	-115
1.80933	-114
1.81300	-114
1.81667	-114
1.82033	-115
1.82400	-115
1.82767	-116
1.83133	-116
1.83500	-116
1.83867	-116
1.84233	-116
1.84600	-116
1.84967	-115
1.85333	-115
1.85700	-115
1.86067	-115
1.86433	-114
1.86800	-114
1.87167	-114
1.87533	-114
1.87900	-114
1.88267	-115
1.88633	-115
1.89000	-115
1.89367	-114
1.89733	-114
1.90100	-113
1.90467	-113
1.90833	-113
1.91200	-113
1.91567	-113
1.91933	-114
1.92300	-114
1.92667	-113
1.93033	-113
1.93400	-113
1.93767	-112
1.94133	-112
1.94500	-112
1.94867	-112
1.95233	-112
1.95600	-112
1.95967	-112
1.96333	-112
1.96700	-112
1.97067	-112
1.97433	-113
1.97800	-113
1.98167	-113
1.98533	-112
1.98900	-112
1.99267	-112
1.99633	-111
2.00000	-111
2.00367	-110
2.00733	-109
2.01100	-109
2.01467	-108
2.01833	-107
2.02200	-107
2.02567	-107
2.02933	-107
2.03300	-107
2.03667	-106
2.04033	-106
2.04400	-106
2.04767	-105
2.05133	-104
2.05500	-102
2.05867	-101
2.06233	-100
2.06600	-100
2.06967	-99
2.07333	-99
2.07700	-100
2.08067	-99
2.08433	-99
2.08800	-99
2.09167	-99
2.09533	-99
2.09900	-99
2.10267	-99
2.10633	-98
2.11000	-98
2.11367	-98
2.11733	-97
2.12100	-97
2.12467	-96
2.12833	-96
2.13200	-97
2.13567	-97
2.13933	-97
2.14300	-97
2.14667	-96
2.15033	-95
2.15400	-94
2.15767	-94
2.16133	-94
2.16500	-94
2.16867	-94
2.17233	-94
2.17600	-94
2.17967	-94
2.18333	-93
2.18700	-93
2.19067	-93
2.19433	-92
2.19800	-92
2.20167	-92
2.20533	-92
2.20900	-91
2.21267	-91
2.21633	-91
2.22000	-90
2.22367	-90
2.22733	-89
2.23100	-89
2.23467	-88
2.23833	-88
2.24200	-88
2.24567	-87
2.24933	-87
2.25300	-87
2.25667	-87
2.26033	-87
2.26400	-87
2.26767	-86
2.27133	-86
2.27500	-85
2.27867	-84
2.28233	-83
2.28600	-83
2.28967	-83
2.29333	-83
2.29700	-83
2.30067	-84
2.30433	-84
2.30800	-84
2.31167	-83
2.31533	-83
2.31900	-82
2.32267	-82
2.32633	-81
2.33000	-80
2.33367	-79
2.33733	-78
2.34100	-78
2.34467	-77
2.34833	-76
2.35200	-75
2.35567	-75
2.35933	-74
2.36300	-74
2.36667	-73
2.37033	-72
2.37400	-70
2.37767	-67
2.38133	-64
2.38500	-60
2.38867	-56
2.39233	-52
2.39600	-48
2.39967	-44
2.40333	-40
2.40700	-36
2.41067	-32
2.41433	-29
2.41800	-26
2.42167	-24
2.42533	-21
2.42900	-19
2.43267	-16
2.43633	-13
2.44000	-11
2.44367	-8
2.44733	-6
2.45100	-5
2.45467	-3
2.45833	-2
2.46200	-1
2.46567	-0
2.46933	1
2.47300	3
2.47667	4
2.48033	5
2.48400	6
2.48767	7
2.49133	7
2.49500	8
2.49867	9
2.50233	10
2.50600	10
2.50967	11
2.51333	12
2.51700	12
2.52067	13
2.52433	13
2.52800	14
2.53167	14
2.53533	14
2.53900	14
2.54267	14
2.54633	14
2.55000	15
2.55367	15
2.55733	16
2.56100	17
2.56467	17
2.56833	18
2.57200	18
2.57567	18
2.57933	18
2.58300	18
2.58667	19
2.59033	19
2.59400	19
2.59767	20
2.60133	20
2.60500	20
2.60867	20
2.61233	20
2.61600	21
2.61967	21
2.62333	21
2.62700	21
2.63067	21
2.63433	21
2.63800	22
2.64167	22
2.64533	22
2.64900	22
2.65267	23
2.65633	23
2.66000	23
2.66367	23
2.66733	23
2.67100	23
2.67467	23
2.67833	24
2.68200	24
2.68567	24
2.68933	25
2.69300	25
2.69667	26
2.70033	26
2.70400	26
2.70767	27
2.71133	27
2.71500	27
2.71867	28
2.72233	28
2.72600	28
2.72967	29
2.73333	29
2.73700	28
2.74067	28
2.74433	28
2.74800	27
2.75167	27
2.75533	27
2.75900	27
2.76267	27
2.76633	27
2.77000	27
2.77367	27
2.77733	27
2.78100	27
2.78467	27
2.78833	27
2.79200	27
2.79567	27
2.79933	27
2.80300	28
2.80667	28
2.81033	28
2.81400	28
2.81767	28
2.82133	28
2.82500	28
2.82867	28
2.83233	28
2.83600	27
2.83967	26
2.84333	23
2.84700	18
2.85067	10
2.85433	-1
2.85800	-16
2.86167	-34
2.86533	-57
2.86900	-84
2.87267	-115
2.87633	-150
2.88000	-190
2.88367	-232
2.88733	-278
2.89100	-326
2.89467	-376
2.89833	-428
2.90200	-481
2.90567	-534
2.90933	-588
2.91300	-642
2.91667	-695
2.92033	-747
2.92400	-798
2.92767	-849
2.93133	-903
2.93500	-960
2.93867	-1019
2.94233	-1070
2.94600	-1101
2.94967	-1107
2.95333	-1087
2.95700	-1044
2.96067	-983
2.96433	-911
2.96800	-832
2.97167	-751
2.97533	-670
2.97900	-593
2.98267	-521
2.98633	-455
2.99000	-395
2.99367	-342
2.99733	-294
3.00100	-252
3.00467	-215
3.00833	-183
3.01200	-155
3.01567	-130
3.01933	-110
3.02300	-92
3.02667	-76
3.03033	-63
3.03400	-52
3.03767	-42
3.04133	-34
3.04500	-28
3.04867	-22
3.05233	-17
3.05600	-12
3.05967	-8
3.06333	-5
3.06700	-2
3.07067	0
3.07433	2
3.07800	4
3.08167	6
3.08533	7
3.08900	8
3.09267	10
3.09633	11
3.10000	12
3.10367	13
3.10733	14
3.11100	14
3.11467	15
3.11833	16
3.12200	17
3.12567	18
3.12933	18
3.13300	19
3.13667	19
3.14033	20
3.14400	20
3.14767	20
3.15133	21
3.15500	20
3.15867	20
3.16233	20
3.16600	20
3.16967	20
3.17333	20
3.17700	20
3.18067	20
3.18433	20
3.18800	20
3.19167	20
3.19533	20
3.19900	20
3.20267	20
3.20633	21
3.21000	21
3.21367	21
3.21733	21
3.22100	21
3.22467	21
3.22833	21
3.23200	21
3.23567	21
3.23933	21
3.24300	22
3.24667	22
3.25033	22
3.25400	23
3.25767	23
3.26133	24
3.26500	24
3.26867	24
3.27233	25
3.27600	25
3.27967	25
3.28333	26
3.28700	26
3.29067	27
3.29433	27
3.29800	28
3.30167	28
3.30533	28
3.30900	28
3.31267	28
3.31633	29
3.32000	29
3.32367	29
3.32733	29
3.33100	29
3.33467	30
3.33833	30
3.34200	30
3.34567	30
3.34933	30
3.35300	30
3.35667	30
3.36033	30
3.36400	29
3.36767	29
3.37133	29
3.37500	29
3.37867	29
3.38233	30
3.38600	30
3.38967	30
3.39333	31
3.39700	31
3.40067	31
3.40433	31
3.40800	31
3.41167	31
3.41533	31
3.41900	31
3.42267	31
3.42633	31
3.43000	31
3.43367	31
3.43733	30
3.44100	30
3.44467	30
3.44833	30
3.45200	29
3.45567	29
3.45933	29
3.46300	29
3.46667	28
3.47033	28
3.47400	28
3.47767	28
3.48133	28
3.48500	28
3.48867	28
3.49233	28
3.49600	28
3.49967	28
3.50333	28
3.50700	29
3.51067	29
3.51433	29
3.51800	29
3.52167	29
3.52533	28
3.52900	28
3.53267	28
3.53633	28
3.54000	28
3.54367	27
3.54733	27
3.55100	27
3.55467	27
3.55833	26
3.56200	26
3.56567	26
3.56933	26
3.57300	26
3.57667	26
3.58033	26
3.58400	26
3.58767	26
3.59133	26
3.59500	26
3.59867	26
3.60233	26
3.60600	26
3.60967	26
3.61333	26
3.61700	26
3.62067	26
3.62433	26
3.62800	26
3.63167	27
3.63533	27
3.63900	27
3.64267	28
3.64633	28
3.65000	28
3.65367	29
3.65733	29
3.66100	29
3.66467	30
3.66833	30
3.67200	30
3.67567	30
3.67933	30
3.68300	30
3.68667	30
3.69033	30
3.69400	29
3.69767	29
3.70133	29
3.70500	29
3.70867	29
3.71233	29
3.71600	29
3.71967	29
3.72333	29
3.72700	29
3.73067	29
3.73433	29
3.73800	29
3.74167	29
3.74533	29
3.74900	29
3.75267	29
3.75633	29
3.76000	28
3.76367	28
3.76733	28
3.77100	28
3.77467	28
3.77833	28
3.78200	28
3.78567	28
3.78933	28
3.79300	28
3.79667	28
3.80033	28
3.80400	28
3.80767	28
3.81133	28
3.81500	28
3.81867	29
3.82233	29
3.82600	29
3.82967	29
3.83333	29
3.83700	29
3.84067	29
3.84433	29
3.84800	29
3.85167	30
3.85533	30
3.85900	30
3.86267	30
3.86633	30
3.87000	30
3.87367	31
3.87733	31
3.88100	30
3.88467	30
3.88833	30
3.89200	30
3.89567	30
3.89933	30
3.90300	30
3.90667	30
3.91033	30
3.91400	30
3.91767	30
3.92133	30
3.92500	30
3.92867	30
3.93233	30
3.93600	30
3.93967	30
3.94333	30
3.94700	29
3.95067	29
3.95433	29
3.95800	29
3.96167	28
3.96533	28
3.96900	28
3.97267	28
3.97633	28
3.98000	29
3.98367	29
3.98733	29
3.99100	29
3.99467	29
3.99833	29

[Chromatogram (Ch3)]
Interval(msec)	220
# of Points	1091
Start Time(min)	0.002
End Time(min)	3.998
R.Time (min)	Intensity
0.00167	0
0.00533	1
0.00900	2
0.01267	1
0.01633	2
0.02000	4
0.02367	6
0.02733	6
0.03100	5
0.03467	3
0.03833	2
0.04200	2
0.04567	1
0.04933	2
0.05300	3
0.05667	3
0.06033	3
0.06400	4
0.06767	5
0.07133	5
0.07500	4
0.07867	5
0.08233	6
0.08600	5
0.08967	5
0.09333	6
0.09700	7
0.10067	7
0.10433	6
0.10800	5
0.11167	3
0.11533	-1
0.11900	-2
0.12267	0
0.12633	3
0.13000	6
0.13367	5
0.13733	3
0.14100	2
0.14467	2
0.14833	4
0.15200	3
0.15567	3
0.15933	1
0.16300	-2
0.16667	-3
0.17033	-2
0.17400	-3
0.17767	-3
0.18133	-1
0.18500	1
0.18867	4
0.19233	5
0.19600	6
0.19967	5
0.20333	5
0.20700	5
0.21067	5
0.21433	6
0.21800	5
0.22167	6
0.22533	6
0.22900	4
0.23267	3
0.23633	5
0.24000	6
0.24367	6
0.24733	6
0.25100	4
0.25467	4
0.25833	5
0.26200	4
0.26567	2
0.26933	0
0.27300	-2
0.27667	-3
0.28033	-3
0.28400	-1
0.28767	-1
0.29133	0
0.29500	1
0.29867	1
0.30233	1
0.30600	1
0.30967	2
0.31333	1
0.31700	1
0.32067	3
0.32433	5
0.32800	5
0.33167	5
0.33533	6
0.33900	7
0.34267	5
0.34633	4
0.35000	5
0.35367	5
0.35733	4
0.36100	3
0.36467	1
0.36833	2
0.37200	4
0.37567	5
0.37933	5
0.38300	3
0.38667	1
0.39033	-1
0.39400	-1
0.39767	-0
0.40133	1
0.40500	2
0.40867	1
0.41233	1
0.41600	4
0.41967	5
0.42333	4
0.42700	3
0.43067	3
0.43433	2
0.43800	-0
0.44167	-0
0.44533	-0
0.44900	1
0.45267	4
0.45633	6
0.46000	7
0.46367	8
0.46733	7
0.47100	6
0.47467	5
0.47833	4
0.48200	3
0.48567	2
0.48933	0
0.49300	0
0.49667	3
0.50033	5
0.50400	5
0.50767	3
0.51133	2
0.51500	3
0.51867	3
0.52233	3
0.52600	5
0.52967	4
0.53333	2
0.53700	0
0.54067	1
0.54433	3
0.54800	3
0.55167	3
0.55533	2
0.55900	1
0.56267	-1
0.56633	-1
0.57000	-1
0.57367	-2
0.57733	-1
0.58100	1
0.58467	5
0.58833	6
0.59200	5
0.59567	4
0.59933	3
0.60300	3
0.60667	3
0.61033	4
0.61400	4
0.61767	3
0.62133	6
0.62500	8
0.62867	6
0.63233	6
0.63600	7
0.63967	6
0.64333	5
0.64700	4
0.65067	2
0.65433	3
0.65800	6
0.66167	5
0.66533	3
0.66900	2
0.67267	2
0.67633	5
0.68000	5
0.68367	4
0.68733	4
0.69100	4
0.69467	6
0.69833	5
0.70200	5
0.70567	6
0.70933	6
0.71300	6
0.71667	6
0.72033	6
0.72400	3
0.72767	3
0.73133	5
0.73500	6
0.73867	7
0.74233	8
0.74600	8
0.74967	9
0.75333	7
0.75700	6
0.76067	5
0.76433	6
0.76800	8
0.77167	8
0.77533	7
0.77900	7
0.78267	6
0.78633	6
0.79000	5
0.79367	4
0.79733	4
0.80100	4
0.80467	1
0.80833	4
0.81200	7
0.81567	8
0.81933	9
0.82300	9
0.82667	9
0.83033	9
0.83400	9
0.83767	8
0.84133	5
0.84500	2
0.84867	3
0.85233	5
0.85600	6
0.85967	5
0.86333	3
0.86700	0
0.87067	0
0.87433	0
0.87800	0
0.88167	2
0.88533	3
0.88900	1
0.89267	0
0.89633	1
0.90000	3
0.90367	2
0.90733	2
0.91100	3
0.91467	1
0.91833	-1
0.92200	2
0.92567	5
0.92933	5
0.93300	5
0.93667	6
0.94033	7
0.94400	8
0.94767	7
0.95133	5
0.95500	5
0.95867	8
0.96233	9
0.96600	8
0.96967	6
0.97333	3
0.97700	2
0.98067	3
0.98433	6
0.98800	8
0.99167	9
0.99533	9
0.99900	8
1.00267	6
1.00633	6
1.01000	7
1.01367	8
1.01733	7
1.02100	7
1.02467	7
1.02833	8
1.03200	7
1.03567	7
1.03933	7
1.04300	9
1.04667	11
1.05033	10
1.05400	10
1.05767	12
1.06133	12
1.06500	11
1.06867	10
1.07233	11
1.07600	13
1.07967	16
1.08333	15
1.08700	15
1.09067	17
1.09433	17
1.09800	17
1.10167	18
1.10533	17
1.10900	17
1.11267	17
1.11633	14
1.12000	14
1.12367	15
1.12733	16
1.13100	16
1.13467	16
1.13833	16
1.14200	14
1.14567	14
1.14933	14
1.15300	15
1.15667	16
1.16033	16
1.16400	17
1.16767	16
1.17133	13
1.17500	11
1.17867	12
1.18233	15
1.18600	16
1.18967	17
1.19333	16
1.19700	16
1.20067	15
1.20433	17
1.20800	18
1.21167	19
1.21533	20
1.21900	20
1.22267	20
1.22633	20
1.23000	19
1.23367	18
1.23733	18
1.24100	19
1.24467	20
1.24833	19
1.25200	18
1.25567	18
1.25933	18
1.26300	17
1.26667	18
1.27033	18
1.27400	18
1.27767	16
1.28133	16
1.28500	17
1.28867	17
1.29233	17
1.29600	18
1.29967	17
1.30333	17
1.30700	17
1.31067	13
1.31433	13
1.31800	14
1.32167	15
1.32533	16
1.32900	18
1.33267	20
1.33633	19
1.34000	18
1.34367	16
1.34733	16
1.35100	16
1.35467	16
1.35833	18
1.36200	20
1.36567	20
1.36933	21
1.37300	21
1.37667	20
1.38033	18
1.38400	19
1.38767	20
1.39133	21
1.39500	21
1.39867	18
1.40233	18
1.40600	18
1.40967	19
1.41333	18
1.41700	18
1.42067	19
1.42433	18
1.42800	18
1.43167	19
1.43533	21
1.43900	22
1.44267	22
1.44633	20
1.45000	20
1.45367	20
1.45733	18
1.46100	18
1.46467	17
1.46833	18
1.47200	19
1.47567	20
1.47933	18
1.48300	19
1.48667	19
1.49033	19
1.49400	21
1.49767	25
1.50133	26
1.50500	25
1.50867	25
1.51233	25
1.51600	24
1.51967	24
1.52333	23
1.52700	23
1.53067	22
1.53433	20
1.53800	20
1.54167	21
1.54533	22
1.54900	25
1.55267	25
1.55633	24
1.56000	25
1.56367	26
1.56733	27
1.57100	26
1.57467	26
1.57833	24
1.58200	23
1.58567	24
1.58933	25
1.59300	26
1.59667	27
1.60033	27
1.60400	27
1.60767	27
1.61133	27
1.61500	28
1.61867	30
1.62233	32
1.62600	34
1.62967	34
1.63333	32
1.63700	31
1.64067	30
1.64433	29
1.64800	27
1.65167	26
1.65533	26
1.65900	28
1.66267	29
1.66633	31
1.67000	32
1.67367	33
1.67733	36
1.68100	37
1.68467	37
1.68833	37
1.69200	36
1.69567	35
1.69933	36
1.70300	37
1.70667	39
1.71033	40
1.71400	38
1.71767	38
1.72133	40
1.72500	41
1.72867	43
1.73233	46
1.73600	46
1.73967	47
1.74333	48
1.74700	50
1.75067	51
1.75433	47
1.75800	45
1.76167	44
1.76533	42
1.76900	40
1.77267	41
1.77633	42
1.78000	41
1.78367	40
1.78733	41
1.79100	42
1.79467	45
1.79833	48
1.80200	48
1.80567	46
1.80933	49
1.81300	52
1.81667	53
1.82033	52
1.82400	50
1.82767	50
1.83133	51
1.83500	49
1.83867	51
1.84233	53
1.84600	50
1.84967	48
1.85333	49
1.85700	49
1.86067	49
1.86433	51
1.86800	52
1.87167	52
1.87533	52
1.87900	54
1.88267	56
1.88633	58
1.89000	58
1.89367	57
1.89733	58
1.90100	59
1.90467	60
1.90833	61
1.91200	60
1.91567	60
1.91933	62
1.92300	62
1.92667	61
1.93033	61
1.93400	60
1.93767	60
1.94133	61
1.94500	63
1.94867	64
1.95233	65
1.95600	67
1.95967	67
1.96333	67
1.96700	66
1.97067	65
1.97433	67
1.97800	69
1.98167	71
1.98533	72
1.98900	72
1.99267	71
1.99633	72
2.00000	73
2.00367	73
2.00733	74
2.01100	77
2.01467	80
2.01833	84
2.02200	86
2.02567	87
2.02933	86
2.03300	85
2.03667	86
2.04033	88
2.04400	88
2.04767	88
2.05133	88
2.05500	90
2.05867	91
2.06233	91
2.06600	93
2.06967	95
2.07333	96
2.07700	98
2.08067	98
2.08433	98
2.08800	98
2.09167	98
2.09533	96
2.09900	95
2.10267	95
2.10633	96
2.11000	99
2.11367	102
2.11733	102
2.12100	102
2.12467	103
2.12833	104
2.13200	106
2.13567	106
2.13933	105
2.14300	105
2.14667	105
2.15033	107
2.15400	109
2.15767	111
2.16133	111
2.16500	111
2.16867	111
2.17233	113
2.17600	116
2.17967	117
2.18333	117
2.18700	116
2.19067	118
2.19433	121
2.19800	122
2.20167	123
2.20533	122
2.20900	122
2.21267	123
2.21633	124
2.22000	125
2.22367	127
2.22733	128
2.23100	130
2.23467	134
2.23833	136
2.24200	139
2.24567	141
2.24933	143
2.25300	143
2.25667	143
2.26033	145
2.26400	146
2.26767	147
2.27133	149
2.27500	151
2.27867	154
2.28233	155
2.28600	155
2.28967	155
2.29333	157
2.29700	159
2.30067	160
2.30433	162
2.30800	162
2.31167	164
2.31533	167
2.31900	169
2.32267	168
2.32633	166
2.33000	168
2.33367	170
2.33733	173
2.34100	176
2.34467	181
2.34833	184
2.35200	184
2.35567	183
2.35933	183
2.36300	184
2.36667	185
2.37033	187
2.37400	190
2.37767	194
2.38133	195
2.38500	194
2.38867	194
2.39233	196
2.39600	199
2.39967	200
2.40333	204
2.40700	210
2.41067	215
2.41433	215
2.41800	215
2.42167	217
2.42533	220
2.42900	222
2.43267	223
2.43633	223
2.44000	224
2.44367	252
2.44733	330
2.45100	415
2.45467	485
2.45833	522
2.46200	519
2.46567	489
2.46933	456
2.47300	430
2.47667	411
2.48033	398
2.48400	389
2.48767	376
2.49133	356
2.49500	330
2.49867	305
2.50233	280
2.50600	261
2.50967	249
2.51333	242
2.51700	239
2.52067	240
2.52433	245
2.52800	252
2.53167	261
2.53533	270
2.53900	277
2.54267	281
2.54633	283
2.55000	280
2.55367	274
2.55733	263
2.56100	250
2.56467	238
2.56833	225
2.57200	216
2.57567	206
2.57933	200
2.58300	197
2.58667	193
2.59033	191
2.59400	188
2.59767	182
2.60133	173
2.60500	160
2.60867	144
2.61233	126
2.61600	109
2.61967	92
2.62333	75
2.62700	59
2.63067	49
2.63433	42
2.63800	40
2.64167	42
2.64533	49
2.64900	55
2.65267	63
2.65633	74
2.66000	84
2.66367	92
2.66733	100
2.67100	109
2.67467	118
2.67833	127
2.68200	134
2.68567	138
2.68933	141
2.69300	143
2.69667	146
2.70033	148
2.70400	148
2.70767	149
2.71133	146
2.71500	143
2.71867	140
2.72233	137
2.72600	136
2.72967	135
2.73333	135
2.73700	136
2.74067	138
2.74433	138
2.74800	138
2.75167	140
2.75533	140
2.75900	139
2.76267	138
2.76633	139
2.77000	140
2.77367	141
2.77733	141
2.78100	140
2.78467	140
2.78833	141
2.79200	140
2.79567	139
2.79933	141
2.80300	141
2.80667	140
2.81033	141
2.81400	145
2.81767	157
2.82133	178
2.82500	223
2.82867	310
2.83233	465
2.83600	708
2.83967	1052
2.84333	1500
2.84700	2036
2.85067	2627
2.85433	3230
2.85800	3799
2.86167	4285
2.86533	4651
2.86900	4874
2.87267	4951
2.87633	4895
2.88000	4727
2.88367	4474
2.88733	4162
2.89100	3817
2.89467	3462
2.89833	3112
2.90200	2778
2.90567	2468
2.90933	2184
2.91300	1928
2.91667	1698
2.92033	1496
2.92400	1318
2.92767	1160
2.93133	1023
2.93500	905
2.93867	801
2.94233	712
2.94600	636
2.94967	569
2.95333	511
2.95700	463
2.96067	422
2.96433	385
2.96800	352
2.97167	324
2.97533	302
2.97900	281
2.98267	264
2.98633	248
2.99000	234
2.99367	221
2.99733	212
3.00100	202
3.00467	192
3.00833	186
3.01200	181
3.01567	176
3.01933	170
3.02300	167
3.02667	163
3.03033	159
3.03400	152
3.03767	146
3.04133	143
3.04500	141
3.04867	139
3.05233	139
3.05600	139
3.05967	136
3.06333	135
3.06700	132
3.07067	127
3.07433	123
3.07800	119
3.08167	116
3.08533	111
3.08900	108
3.09267	107
3.09633	105
3.10000	90
3.10367	53
3.10733	30
3.11100	34
3.11467	55
3.11833	85
3.12200	121
3.12567	162
3.12933	204
3.13300	249
3.13667	296
3.14033	341
3.14400	385
3.14767	424
3.15133	461
3.15500	493
3.15867	521
3.16233	546
3.16600	569
3.16967	586
3.17333	600
3.17700	611
3.18067	619
3.18433	626
3.18800	631
3.19167	634
3.19533	638
3.19900	643
3.20267	646
3.20633	648
3.21000	648
3.21367	648
3.21733	649
3.22100	649
3.22467	646
3.22833	646
3.23200	647
3.23567	647
3.23933	647
3.24300	644
3.24667	641
3.25033	640
3.25400	638
3.25767	637
3.26133	634
3.26500	632
3.26867	633
3.27233	634
3.27600	635
3.27967	636
3.28333	638
3.28700	640
3.29067	641
3.29433	642
3.29800	644
3.30167	646
3.30533	649
3.30900	652
3.31267	652
3.31633	653
3.32000	656
3.32367	659
3.32733	662
3.33100	666
3.33467	670
3.33833	674
3.34200	676
3.34567	679
3.34933	681
3.35300	685
3.35667	689
3.36033	691
3.36400	692
3.36767	694
3.37133	696
3.37500	696
3.37867	696
3.38233	697
3.38600	693
3.38967	688
3.39333	683
3.39700	680
3.40067	677
3.40433	674
3.40800	671
3.41167	665
3.41533	661
3.41900	656
3.42267	653
3.42633	649
3.43000	643
3.43367	637
3.43733	632
3.44100	628
3.44467	624
3.44833	620
3.45200	615
3.45567	610
3.45933	603
3.46300	598
3.46667	594
3.47033	589
3.47400	582
3.47767	577
3.48133	575
3.48500	571
3.48867	568
3.49233	566
3.49600	563
3.49967	557
3.50333	550
3.50700	544
3.51067	539
3.51433	535
3.51800	534
3.52167	533
3.52533	530
3.52900	527
3.53267	524
3.53633	520
3.54000	517
3.54367	514
3.54733	512
3.55100	510
3.55467	509
3.55833	507
3.56200	506
3.56567	504
3.56933	502
3.57300	499
3.57667	496
3.58033	493
3.58400	492
3.58767	491
3.59133	489
3.59500	487
3.59867	484
3.60233	483
3.60600	481
3.60967	478
3.61333	477
3.61700	476
3.62067	475
3.62433	473
3.62800	474
3.63167	472
3.63533	468
3.63900	463
3.64267	458
3.64633	455
3.65000	452
3.65367	450
3.65733	449
3.66100	448
3.66467	445
3.66833	444
3.67200	444
3.67567	442
3.67933	439
3.68300	436
3.68667	433
3.69033	431
3.69400	430
3.69767	428
3.70133	427
3.70500	428
3.70867	429
3.71233	430
3.71600	429
3.71967	427
3.72333	427
3.72700	428
3.73067	428
3.73433	427
3.73800	428
3.74167	431
3.74533	431
3.74900	428
3.75267	428
3.75633	427
3.76000	425
3.76367	424
3.76733	424
3.77100	422
3.77467	420
3.77833	420
3.78200	420
3.78567	422
3.78933	423
3.79300	421
3.79667	418
3.80033	417
3.80400	417
3.80767	418
3.81133	418
3.81500	416
3.81867	414
3.82233	414
3.82600	412
3.82967	412
3.83333	412
3.83700	414
3.84067	415
3.84433	413
3.84800	411
3.85167	409
3.85533	410
3.85900	409
3.86267	408
3.86633	407
3.87000	404
3.87367	404
3.87733	404
3.88100	406
3.88467	407
3.88833	407
3.89200	406
3.89567	406
3.89933	405
3.90300	403
3.90667	401
3.91033	400
3.91400	399
3.91767	398
3.92133	399
3.92500	399
3.92867	397
3.93233	394
3.93600	390
3.93967	391
3.94333	393
3.94700	392
3.95067	389
3.95433	389
3.95800	389
3.96167	390
3.96533	389
3.96900	386
3.97267	386
3.97633	386
3.98000	385
3.98367	383
3.98733	381
3.99100	380
3.99467	378
3.99833	375

[Status Trace (Column Oven Temperature)]
Interval(msec)	1000
# of Points	240
Start Time(min)	0.014
End Time(min)	3.997
Intensity Units	
Intensity Multiplier	1
R.Time (min)	Intensity
0.01378	35.08
0.03045	35.09
0.04712	35.09
0.06378	35.10
0.08045	35.09
0.09712	35.09
0.11378	35.08
0.13045	35.07
0.14712	35.07
0.16378	35.06
0.18045	35.06
0.19712	35.06
0.21378	35.05
0.23045	35.03
0.24712	35.03
0.26378	35.01
0.28045	35.00
0.29712	35.00
0.31378	34.99
0.33045	34.98
0.34712	35.00
0.36378	35.01
0.38045	35.02
0.39712	35.02
0.41378	35.02
0.43045	35.03
0.44712	35.02
0.46378	35.02
0.48045	35.02
0.49712	35.00
0.51378	34.99
0.53045	34.98
0.54712	34.97
0.56378	34.96
0.58045	34.94
0.59712	34.95
0.61378	34.96
0.63045	34.99
0.64712	35.00
0.66378	35.00
0.68045	34.99
0.69712	34.99
0.71378	34.99
0.73045	34.98
0.74712	34.96
0.76378	34.97
0.78045	34.97
0.79712	34.96
0.81378	34.97
0.83045	34.98
0.84712	34.99
0.86378	35.01
0.88045	35.02
0.89712	35.01
0.91378	35.01
0.93045	35.01
0.94712	35.00
0.96378	35.00
0.98045	34.99
0.99712	34.99
1.01378	35.01
1.03045	35.00
1.04712	35.01
1.06378	35.01
1.08045	35.02
1.09712	35.02
1.11378	35.00
1.13045	34.99
1.14712	34.99
1.16378	34.98
1.18045	34.98
1.19712	35.00
1.21378	34.99
1.23045	34.98
1.24712	34.96
1.26378	34.98
1.28045	34.98
1.29712	34.99
1.31378	34.99
1.33045	34.99
1.34712	34.99
1.36378	34.99
1.38045	34.98
1.39712	34.98
1.41378	34.98
1.43045	34.98
1.44712	34.98
1.46378	34.98
1.48045	34.98
1.49712	34.98
1.51378	34.98
1.53045	34.98
1.54712	35.00
1.56378	35.01
1.58045	35.01
1.59712	35.02
1.61378	35.09
1.63045	35.22
1.64712	35.42
1.66378	35.73
1.68045	36.10
1.69712	36.47
1.71378	36.82
1.73045	37.14
1.74712	37.45
1.76378	37.78
1.78045	38.14
1.79712	38.46
1.81378	38.79
1.83045	39.13
1.84712	39.45
1.86378	39.78
1.88045	40.12
1.89712	40.43
1.91378	40.77
1.93045	41.10
1.94712	41.44
1.96378	41.77
1.98045	42.09
1.99712	42.43
2.01378	42.74
2.03045	43.08
2.04712	43.39
2.06378	43.71
2.08045	44.04
2.09712	44.36
2.11378	44.67
2.13045	45.01
2.14712	45.32
2.16378	45.66
2.18045	45.98
2.19712	46.31
2.21378	46.65
2.23045	46.97
2.24712	47.31
2.26378	47.64
2.28045	47.95
2.29712	48.29
2.31378	48.61
2.33045	48.94
2.34712	49.25
2.36378	49.56
2.38045	49.72
2.39712	49.75
2.41378	49.75
2.43045	49.75
2.44712	49.75
2.46378	49.77
2.48045	49.77
2.49712	49.79
2.51378	49.79
2.53045	49.82
2.54712	49.84
2.56378	49.82
2.58045	49.84
2.59712	49.84
2.61378	49.84
2.63045	49.84
2.64712	49.84
2.66378	49.86
2.68045	49.86
2.69712	49.85
2.71378	49.85
2.73045	49.85
2.74712	49.86
2.76378	49.88
2.78045	49.89
2.79712	49.90
2.81378	49.90
2.83045	49.89
2.84712	49.90
2.86378	49.92
2.88045	49.94
2.89712	49.95
2.91378	49.94
2.93045	49.94
2.94712	49.94
2.96378	49.94
2.98045	49.95
2.99712	49.96
3.01378	49.97
3.03045	49.99
3.04712	50.00
3.06378	50.01
3.08045	50.03
3.09712	50.03
3.11378	50.03
3.13045	50.01
3.14712	50.02
3.16378	50.04
3.18045	50.05
3.19712	50.07
3.21378	50.09
3.23045	50.11
3.24712	50.11
3.26378	50.11
3.28045	50.10
3.29712	50.09
3.31378	50.07
3.33045	50.05
3.34712	50.04
3.36378	50.04
3.38045	50.03
3.39712	50.01
3.41378	50.00
3.43045	50.00
3.44712	50.01
3.46378	50.02
3.48045	50.01
3.49712	50.02
3.51378	50.02
3.53045	50.03
3.54712	50.04
3.56378	50.06
3.58045	50.07
3.59712	50.08
3.61378	50.09
3.63045	50.09
3.64712	50.09
3.66378	50.08
3.68045	50.06
3.69712	50.06
3.71378	50.06
3.73045	50.07
3.74712	50.07
3.76378	50.08
3.78045	50.08
3.79712	50.08
3.81378	50.08
3.83045	50.08
3.84712	50.08
3.86378	50.07
3.88045	50.06
3.89712	50.05
3.91378	50.05
3.93045	50.05
3.94712	50.05
3.96378	50.06
3.98045	50.05
3.99712	50.04

[Status Trace (Injection Unit Temperature)]
Interval(msec)	1000
# of Points	240
Start Time(min)	0.014
End Time(min)	3.997
Intensity Units	
Intensity Multiplier	1
R.Time (min)	Intensity
0.01378	99.98
0.03045	99.97
0.04712	99.98
0.06378	99.97
0.08045	99.98
0.09712	99.98
0.11378	99.98
0.13045	99.98
0.14712	99.98
0.16378	99.98
0.18045	99.98
0.19712	99.98
0.21378	99.98
0.23045	99.98
0.24712	99.98
0.26378	99.98
0.28045	99.98
0.29712	99.97
0.31378	99.98
0.33045	99.98
0.34712	99.98
0.36378	99.98
0.38045	99.98
0.39712	99.98
0.41378	99.98
0.43045	99.98
0.44712	99.98
0.46378	99.98
0.48045	99.98
0.49712	99.98
0.51378	99.98
0.53045	99.98
0.54712	99.99
0.56378	99.98
0.58045	99.98
0.59712	99.98
0.61378	99.98
0.63045	99.98
0.64712	99.98
0.66378	99.99
0.68045	99.98
0.69712	99.98
0.71378	99.98
0.73045	99.99
0.74712	99.98
0.76378	99.98
0.78045	99.98
0.79712	99.98
0.81378	99.98
0.83045	99.98
0.84712	99.98
0.86378	99.98
0.88045	99.98
0.89712	99.98
0.91378	99.98
0.93045	99.98
0.94712	99.98
0.96378	99.98
0.98045	99.98
0.99712	99.98
1.01378	99.98
1.03045	99.98
1.04712	99.98
1.06378	99.98
1.08045	99.98
1.09712	99.98
1.11378	99.98
1.13045	99.97
1.14712	99.98
1.16378	99.98
1.18045	99.98
1.19712	99.98
1.21378	99.98
1.23045	99.98
1.24712	99.98
1.26378	99.98
1.28045	99.98
1.29712	99.98
1.31378	99.98
1.33045	99.98
1.34712	99.98
1.36378	99.98
1.38045	99.98
1.39712	99.98
1.41378	99.98
1.43045	99.98
1.44712	99.98
1.46378	99.98
1.48045	99.98
1.49712	99.99
1.51378	99.98
1.53045	99.98
1.54712	99.98
1.56378	99.98
1.58045	99.98
1.59712	99.98
1.61378	99.98
1.63045	99.99
1.64712	99.98
1.66378	99.98
1.68045	99.98
1.69712	99.98
1.71378	99.98
1.73045	99.99
1.74712	99.99
1.76378	99.97
1.78045	99.98
1.79712	99.98
1.81378	99.98
1.83045	99.98
1.84712	99.98
1.86378	99.98
1.88045	99.98
1.89712	99.98
1.91378	99.98
1.93045	99.98
1.94712	99.98
1.96378	99.98
1.98045	99.98
1.99712	99.98
2.01378	99.97
2.03045	99.98
2.04712	99.97
2.06378	99.97
2.08045	99.98
2.09712	99.97
2.11378	99.98
2.13045	99.97
2.14712	99.97
2.16378	99.97
2.18045	99.97
2.19712	99.97
2.21378	99.97
2.23045	99.97
2.24712	99.97
2.26378	99.97
2.28045	99.97
2.29712	99.97
2.31378	99.97
2.33045	99.97
2.34712	99.97
2.36378	99.97
2.38045	99.97
2.39712	99.97
2.41378	99.97
2.43045	99.97
2.44712	99.97
2.46378	99.97
2.48045	99.97
2.49712	99.97
2.51378	99.97
2.53045	99.97
2.54712	99.97
2.56378	99.97
2.58045	99.97
2.59712	99.97
2.61378	99.98
2.63045	99.98
2.64712	99.97
2.66378	99.97
2.68045	99.97
2.69712	99.97
2.71378	99.98
2.73045	99.98
2.74712	99.98
2.76378	99.98
2.78045	99.98
2.79712	99.98
2.81378	99.99
2.83045	99.99
2.84712	99.99
2.86378	99.99
2.88045	100.00
2.89712	99.99
2.91378	99.99
2.93045	100.00
2.94712	100.00
2.96378	100.00
2.98045	100.00
2.99712	100.00
3.01378	100.01
3.03045	100.01
3.04712	100.00
3.06378	100.01
3.08045	100.01
3.09712	100.01
3.11378	100.01
3.13045	100.01
3.14712	100.02
3.16378	100.01
3.18045	100.02
3.19712	100.02
3.21378	100.02
3.23045	100.02
3.24712	100.02
3.26378	100.02
3.28045	100.03
3.29712	100.03
3.31378	100.03
3.33045	100.03
3.34712	100.03
3.36378	100.03
3.38045	100.03
3.39712	100.03
3.41378	100.03
3.43045	100.04
3.44712	100.03
3.46378	100.04
3.48045	100.04
3.49712	100.04
3.51378	100.04
3.53045	100.04
3.54712	100.04
3.56378	100.04
3.58045	100.04
3.59712	100.04
3.61378	100.05
3.63045	100.05
3.64712	100.04
3.66378	100.04
3.68045	100.04
3.69712	100.05
3.71378	100.05
3.73045	100.05
3.74712	100.04
3.76378	100.05
3.78045	100.05
3.79712	100.05
3.81378	100.05
3.83045	100.05
3.84712	100.05
3.86378	100.05
3.88045	100.05
3.89712	100.04
3.91378	100.05
3.93045	100.05
3.94712	100.05
3.96378	100.05
3.98045	100.05
3.99712	100.05

[Status Trace (Carrier Gas Pressure)]
Interval(msec)	1000
# of Points	240
Start Time(min)	0.014
End Time(min)	3.997
Intensity Units	
Intensity Multiplier	1
R.Time (min)	Intensity
0.01378	57.62
0.03045	55.48
0.04712	57.85
0.06378	59.81
0.08045	58.71
0.09712	57.98
0.11378	57.99
0.13045	58.01
0.14712	58.01
0.16378	58.00
0.18045	58.00
0.19712	58.00
0.21378	58.00
0.23045	58.00
0.24712	58.00
0.26378	58.00
0.28045	58.00
0.29712	58.00
0.31378	58.00
0.33045	58.00
0.34712	58.00
0.36378	58.00
0.38045	58.00
0.39712	58.00
0.41378	58.00
0.43045	58.00
0.44712	58.00
0.46378	58.00
0.48045	58.00
0.49712	58.00
0.51378	58.00
0.53045	58.00
0.54712	58.00
0.56378	58.00
0.58045	58.00
0.59712	58.00
0.61378	58.00
0.63045	58.00
0.64712	58.00
0.66378	58.00
0.68045	58.00
0.69712	58.00
0.71378	58.00
0.73045	58.00
0.74712	58.00
0.76378	58.00
0.78045	58.00
0.79712	58.00
0.81378	58.00
0.83045	58.00
0.84712	58.00
0.86378	58.00
0.88045	58.00
0.89712	58.00
0.91378	58.00
0.93045	58.00
0.94712	58.00
0.96378	58.00
0.98045	58.00
0.99712	58.00
1.01378	58.00
1.03045	58.00
1.04712	58.00
1.06378	58.00
1.08045	58.00
1.09712	58.00
1.11378	58.00
1.13045	58.00
1.14712	58.00
1.16378	58.00
1.18045	58.00
1.19712	58.00
1.21378	58.00
1.23045	58.00
1.24712	58.00
1.26378	58.00
1.28045	58.00
1.29712	58.00
1.31378	58.00
1.33045	58.00
1.34712	58.00
1.36378	58.00
1.38045	58.00
1.39712	58.00
1.41378	58.00
1.43045	58.00
1.44712	58.00
1.46378	58.00
1.48045	58.00
1.49712	58.00
1.51378	58.00
1.53045	58.00
1.54712	58.00
1.56378	58.00
1.58045	58.00
1.59712	58.00
1.61378	58.00
1.63045	58.00
1.64712	58.01
1.66378	58.01
1.68045	58.01
1.69712	58.00
1.71378	58.00
1.73045	58.00
1.74712	58.00
1.76378	58.00
1.78045	58.00
1.79712	58.00
1.81378	58.00
1.83045	58.00
1.84712	58.00
1.86378	58.00
1.88045	58.00
1.89712	58.00
1.91378	58.00
1.93045	58.00
1.94712	58.00
1.96378	58.00
1.98045	58.00
1.99712	58.00
2.01378	58.00
2.03045	58.00
2.04712	58.00
2.06378	58.00
2.08045	58.00
2.09712	58.00
2.11378	58.00
2.13045	58.00
2.14712	58.00
2.16378	58.00
2.18045	58.00
2.19712	58.00
2.21378	58.00
2.23045	58.00
2.24712	58.00
2.26378	58.00
2.28045	58.00
2.29712	58.00
2.31378	58.00
2.33045	58.00
2.34712	58.00
2.36378	58.00
2.38045	58.00
2.39712	57.99
2.41378	57.99
2.43045	58.00
2.44712	58.00
2.46378	58.00
2.48045	58.00
2.49712	58.00
2.51378	57.99
2.53045	57.99
2.54712	58.00
2.56378	58.00
2.58045	58.00
2.59712	58.00
2.61378	58.00
2.63045	58.00
2.64712	58.00
2.66378	58.00
2.68045	58.00
2.69712	58.00
2.71378	58.00
2.73045	58.00
2.74712	58.00
2.76378	58.00
2.78045	58.00
2.79712	58.00
2.81378	58.00
2.83045	58.00
2.84712	58.00
2.86378	58.00
2.88045	58.00
2.89712	58.00
2.91378	58.00
2.93045	58.00
2.94712	58.00
2.96378	58.00
2.98045	58.00
2.99712	58.00
3.01378	58.00
3.03045	58.00
3.04712	58.00
3.06378	58.00
3.08045	58.00
3.09712	58.00
3.11378	58.00
3.13045	58.00
3.14712	58.00
3.16378	58.00
3.18045	58.00
3.19712	58.00
3.21378	58.00
3.23045	58.00
3.24712	58.00
3.26378	58.00
3.28045	58.00
3.29712	58.00
3.31378	58.00
3.33045	58.00
3.34712	58.00
3.36378	58.00
3.38045	58.00
3.39712	58.00
3.41378	58.00
3.43045	58.00
3.44712	58.00
3.46378	58.00
3.48045	58.00
3.49712	58.00
3.51378	58.00
3.53045	58.00
3.54712	58.00
3.56378	58.00
3.58045	58.00
3.59712	58.00
3.61378	58.00
3.63045	58.00
3.64712	58.00
3.66378	58.00
3.68045	58.00
3.69712	58.00
3.71378	58.00
3.73045	58.00
3.74712	58.00
3.76378	58.00
3.78045	58.00
3.79712	58.00
3.81378	58.00
3.83045	58.00
3.84712	58.00
3.86378	58.00
3.88045	58.00
3.89712	58.00
3.91378	58.00
3.93045	58.00
3.94712	58.00
3.96378	58.00
3.98045	58.00
3.99712	58.00

[Status Trace (Carrier Gas Flow)]
Interval(msec)	1000
# of Points	240
Start Time(min)	0.014
End Time(min)	3.997
Intensity Units	
Intensity Multiplier	1
R.Time (min)	Intensity
0.01378	34.27
0.03045	34.54
0.04712	34.55
0.06378	34.53
0.08045	34.51
0.09712	34.52
0.11378	34.52
0.13045	34.52
0.14712	34.52
0.16378	34.52
0.18045	34.51
0.19712	34.51
0.21378	34.52
0.23045	34.52
0.24712	34.52
0.26378	34.52
0.28045	34.52
0.29712	34.52
0.31378	34.52
0.33045	34.52
0.34712	34.52
0.36378	34.52
0.38045	34.52
0.39712	34.52
0.41378	34.52
0.43045	34.52
0.44712	34.52
0.46378	34.51
0.48045	34.52
0.49712	34.52
0.51378	34.52
0.53045	34.52
0.54712	34.52
0.56378	34.52
0.58045	34.52
0.59712	34.52
0.61378	34.52
0.63045	34.53
0.64712	34.52
0.66378	34.51
0.68045	34.51
0.69712	34.53
0.71378	34.52
0.73045	34.52
0.74712	34.52
0.76378	34.51
0.78045	34.51
0.79712	34.52
0.81378	34.52
0.83045	34.52
0.84712	34.52
0.86378	34.52
0.88045	34.51
0.89712	34.53
0.91378	34.52
0.93045	34.51
0.94712	34.52
0.96378	34.52
0.98045	34.51
0.99712	34.53
1.01378	34.52
1.03045	34.52
1.04712	34.51
1.06378	34.51
1.08045	34.52
1.09712	34.53
1.11378	34.52
1.13045	34.52
1.14712	34.52
1.16378	34.53
1.18045	34.51
1.19712	34.51
1.21378	34.52
1.23045	34.52
1.24712	34.52
1.26378	34.52
1.28045	34.52
1.29712	34.51
1.31378	34.52
1.33045	34.52
1.34712	34.52
1.36378	34.52
1.38045	34.52
1.39712	34.52
1.41378	34.52
1.43045	34.52
1.44712	34.52
1.46378	34.52
1.48045	34.52
1.49712	34.52
1.51378	34.52
1.53045	34.52
1.54712	34.52
1.56378	34.52
1.58045	34.52
1.59712	34.52
1.61378	34.51
1.63045	34.52
1.64712	34.52
1.66378	34.52
1.68045	34.52
1.69712	34.52
1.71378	34.52
1.73045	34.52
1.74712	34.52
1.76378	34.52
1.78045	34.52
1.79712	34.52
1.81378	34.52
1.83045	34.52
1.84712	34.52
1.86378	34.52
1.88045	34.51
1.89712	34.52
1.91378	34.52
1.93045	34.52
1.94712	34.52
1.96378	34.52
1.98045	34.52
1.99712	34.52
2.01378	34.52
2.03045	34.52
2.04712	34.52
2.06378	34.52
2.08045	34.52
2.09712	34.52
2.11378	34.52
2.13045	34.52
2.14712	34.52
2.16378	34.52
2.18045	34.52
2.19712	34.52
2.21378	34.52
2.23045	34.52
2.24712	34.52
2.26378	34.52
2.28045	34.52
2.29712	34.52
2.31378	34.52
2.33045	34.52
2.34712	34.52
2.36378	34.52
2.38045	34.52
2.39712	34.52
2.41378	34.52
2.43045	34.52
2.44712	34.52
2.46378	34.52
2.48045	34.52
2.49712	34.52
2.51378	34.52
2.53045	34.52
2.54712	34.52
2.56378	34.52
2.58045	34.52
2.59712	34.52
2.61378	34.52
2.63045	34.52
2.64712	34.52
2.66378	34.52
2.68045	34.52
2.69712	34.52
2.71378	34.52
2.73045	34.52
2.74712	34.52
2.76378	34.52
2.78045	34.52
2.79712	34.52
2.81378	34.52
2.83045	34.52
2.84712	34.52
2.86378	34.52
2.88045	34.52
2.89712	34.52
2.91378	34.52
2.93045	34.52
2.94712	34.52
2.96378	34.52
2.98045	34.52
2.99712	34.52
3.01378	34.52
3.03045	34.52
3.04712	34.52
3.06378	34.52
3.08045	34.51
3.09712	34.52
3.11378	34.52
3.13045	34.51
3.14712	34.51
3.16378	34.51
3.18045	34.52
3.19712	34.52
3.21378	34.52
3.23045	34.52
3.24712	34.52
3.26378	34.52
3.28045	34.52
3.29712	34.52
3.31378	34.52
3.33045	34.52
3.34712	34.52
3.36378	34.52
3.38045	34.52
3.39712	34.52
3.41378	34.52
3.43045	34.52
3.44712	34.52
3.46378	34.52
3.48045	34.52
3.49712	34.52
3.51378	34.52
3.53045	34.52
3.54712	34.52
3.56378	34.52
3.58045	34.51
3.59712	34.52
3.61378	34.51
3.63045	34.52
3.64712	34.52
3.66378	34.52
3.68045	34.52
3.69712	34.52
3.71378	34.52
3.73045	34.52
3.74712	34.52
3.76378	34.52
3.78045	34.52
3.79712	34.52
3.81378	34.52
3.83045	34.52
3.84712	34.52
3.86378	34.52
3.88045	34.52
3.89712	34.52
3.91378	34.52
3.93045	34.53
3.94712	34.52
3.96378	34.52
3.98045	34.52
3.99712	34.52

[Status Trace (Column Flow)]
Interval(msec)	1000
# of Points	240
Start Time(min)	0.014
End Time(min)	3.997
Intensity Units	
Intensity Multiplier	1
R.Time (min)	Intensity
0.01378	5.53
0.03045	5.28
0.04712	5.56
0.06378	5.79
0.08045	5.66
0.09712	5.57
0.11378	5.57
0.13045	5.58
0.14712	5.58
0.16378	5.57
0.18045	5.57
0.19712	5.57
0.21378	5.58
0.23045	5.58
0.24712	5.58
0.26378	5.58
0.28045	5.58
0.29712	5.58
0.31378	5.58
0.33045	5.58
0.34712	5.58
0.36378	5.58
0.38045	5.58
0.39712	5.58
0.41378	5.58
0.43045	5.58
0.44712	5.58
0.46378	5.58
0.48045	5.58
0.49712	5.58
0.51378	5.58
0.53045	5.58
0.54712	5.58
0.56378	5.58
0.58045	5.58
0.59712	5.58
0.61378	5.58
0.63045	5.58
0.64712	5.58
0.66378	5.58
0.68045	5.58
0.69712	5.58
0.71378	5.58
0.73045	5.58
0.74712	5.58
0.76378	5.58
0.78045	5.58
0.79712	5.58
0.81378	5.58
0.83045	5.58
0.84712	5.58
0.86378	5.58
0.88045	5.58
0.89712	5.58
0.91378	5.58
0.93045	5.58
0.94712	5.58
0.96378	5.58
0.98045	5.58
0.99712	5.58
1.01378	5.58
1.03045	5.58
1.04712	5.58
1.06378	5.58
1.08045	5.58
1.09712	5.58
1.11378	5.58
1.13045	5.58
1.14712	5.58
1.16378	5.58
1.18045	5.58
1.19712	5.58
1.21378	5.58
1.23045	5.58
1.24712	5.58
1.26378	5.58
1.28045	5.58
1.29712	5.58
1.31378	5.58
1.33045	5.58
1.34712	5.58
1.36378	5.58
1.38045	5.58
1.39712	5.58
1.41378	5.58
1.43045	5.58
1.44712	5.58
1.46378	5.58
1.48045	5.58
1.49712	5.58
1.51378	5.58
1.53045	5.58
1.54712	5.58
1.56378	5.58
1.58045	5.58
1.59712	5.58
1.61378	5.57
1.63045	5.57
1.64712	5.56
1.66378	5.55
1.68045	5.54
1.69712	5.53
1.71378	5.52
1.73045	5.51
1.74712	5.50
1.76378	5.49
1.78045	5.48
1.79712	5.47
1.81378	5.46
1.83045	5.45
1.84712	5.44
1.86378	5.43
1.88045	5.42
1.89712	5.41
1.91378	5.40
1.93045	5.39
1.94712	5.38
1.96378	5.37
1.98045	5.36
1.99712	5.35
2.01378	5.34
2.03045	5.33
2.04712	5.32
2.06378	5.31
2.08045	5.30
2.09712	5.29
2.11378	5.28
2.13045	5.27
2.14712	5.26
2.16378	5.25
2.18045	5.24
2.19712	5.23
2.21378	5.22
2.23045	5.21
2.24712	5.21
2.26378	5.20
2.28045	5.19
2.29712	5.18
2.31378	5.17
2.33045	5.16
2.34712	5.15
2.36378	5.14
2.38045	5.14
2.39712	5.13
2.41378	5.14
2.43045	5.14
2.44712	5.14
2.46378	5.14
2.48045	5.13
2.49712	5.13
2.51378	5.13
2.53045	5.13
2.54712	5.13
2.56378	5.13
2.58045	5.13
2.59712	5.13
2.61378	5.13
2.63045	5.13
2.64712	5.13
2.66378	5.13
2.68045	5.13
2.69712	5.13
2.71378	5.13
2.73045	5.13
2.74712	5.13
2.76378	5.13
2.78045	5.13
2.79712	5.13
2.81378	5.13
2.83045	5.13
2.84712	5.13
2.86378	5.13
2.88045	5.13
2.89712	5.13
2.91378	5.13
2.93045	5.13
2.94712	5.13
2.96378	5.13
2.98045	5.13
2.99712	5.13
3.01378	5.13
3.03045	5.13
3.04712	5.13
3.06378	5.13
3.08045	5.13
3.09712	5.13
3.11378	5.13
3.13045	5.13
3.14712	5.13
3.16378	5.13
3.18045	5.13
3.19712	5.13
3.21378	5.13
3.23045	5.13
3.24712	5.13
3.26378	5.13
3.28045	5.13
3.29712	5.13
3.31378	5.13
3.33045	5.13
3.34712	5.13
3.36378	5.13
3.38045	5.13
3.39712	5.13
3.41378	5.13
3.43045	5.13
3.44712	5.13
3.46378	5.13
3.48045	5.13
3.49712	5.13
3.51378	5.13
3.53045	5.13
3.54712	5.13
3.56378	5.13
3.58045	5.13
3.59712	5.13
3.61378	5.13
3.63045	5.13
3.64712	5.13
3.66378	5.13
3.68045	5.13
3.69712	5.13
3.71378	5.13
3.73045	5.13
3.74712	5.13
3.76378	5.13
3.78045	5.13
3.79712	5.13
3.81378	5.13
3.83045	5.13
3.84712	5.13
3.86378	5.13
3.88045	5.13
3.89712	5.13
3.91378	5.13
3.93045	5.13
3.94712	5.13
3.96378	5.13
3.98045	5.13
3.99712	5.13

[Status Trace (Linear Velocity)]
Interval(msec)	1000
# of Points	240
Start Time(min)	0.014
End Time(min)	3.997
Intensity Units	
Intensity Multiplier	1
R.Time (min)	Intensity
0.01378	38.77
0.03045	37.36
0.04712	38.92
0.06378	40.21
0.08045	39.48
0.09712	39.01
0.11378	39.02
0.13045	39.03
0.14712	39.03
0.16378	39.03
0.18045	39.03
0.19712	39.03
0.21378	39.03
0.23045	39.03
0.24712	39.03
0.26378	39.03
0.28045	39.03
0.29712	39.03
0.31378	39.03
0.33045	39.03
0.34712	39.03
0.36378	39.03
0.38045	39.03
0.39712	39.03
0.41378	39.03
0.43045	39.03
0.44712	39.03
0.46378	39.03
0.48045	39.03
0.49712	39.03
0.51378	39.03
0.53045	39.03
0.54712	39.03
0.56378	39.03
0.58045	39.03
0.59712	39.04
0.61378	39.03
0.63045	39.03
0.64712	39.03
0.66378	39.03
0.68045	39.03
0.69712	39.03
0.71378	39.03
0.73045	39.03
0.74712	39.03
0.76378	39.03
0.78045	39.03
0.79712	39.03
0.81378	39.03
0.83045	39.03
0.84712	39.03
0.86378	39.03
0.88045	39.03
0.89712	39.03
0.91378	39.03
0.93045	39.03
0.94712	39.03
0.96378	39.03
0.98045	39.03
0.99712	39.03
1.01378	39.03
1.03045	39.03
1.04712	39.03
1.06378	39.03
1.08045	39.03
1.09712	39.03
1.11378	39.03
1.13045	39.03
1.14712	39.03
1.16378	39.03
1.18045	39.03
1.19712	39.03
1.21378	39.03
1.23045	39.03
1.24712	39.03
1.26378	39.03
1.28045	39.03
1.29712	39.03
1.31378	39.03
1.33045	39.03
1.34712	39.03
1.36378	39.03
1.38045	39.03
1.39712	39.03
1.41378	39.03
1.43045	39.03
1.44712	39.03
1.46378	39.03
1.48045	39.03
1.49712	39.03
1.51378	39.03
1.53045	39.03
1.54712	39.03
1.56378	39.03
1.58045	39.03
1.59712	39.03
1.61378	39.02
1.63045	39.01
1.64712	38.99
1.66378	38.96
1.68045	38.93
1.69712	38.89
1.71378	38.86
1.73045	38.82
1.74712	38.80
1.76378	38.77
1.78045	38.73
1.79712	38.70
1.81378	38.67
1.83045	38.64
1.84712	38.61
1.86378	38.58
1.88045	38.54
1.89712	38.52
1.91378	38.48
1.93045	38.45
1.94712	38.42
1.96378	38.39
1.98045	38.36
1.99712	38.33
2.01378	38.30
2.03045	38.27
2.04712	38.24
2.06378	38.21
2.08045	38.18
2.09712	38.15
2.11378	38.12
2.13045	38.09
2.14712	38.07
2.16378	38.03
2.18045	38.00
2.19712	37.98
2.21378	37.94
2.23045	37.91
2.24712	37.89
2.26378	37.85
2.28045	37.83
2.29712	37.80
2.31378	37.77
2.33045	37.74
2.34712	37.71
2.36378	37.68
2.38045	37.67
2.39712	37.66
2.41378	37.66
2.43045	37.67
2.44712	37.67
2.46378	37.67
2.48045	37.66
2.49712	37.66
2.51378	37.66
2.53045	37.65
2.54712	37.66
2.56378	37.66
2.58045	37.66
2.59712	37.66
2.61378	37.66
2.63045	37.66
2.64712	37.66
2.66378	37.66
2.68045	37.66
2.69712	37.66
2.71378	37.66
2.73045	37.66
2.74712	37.66
2.76378	37.66
2.78045	37.65
2.79712	37.65
2.81378	37.65
2.83045	37.65
2.84712	37.65
2.86378	37.65
2.88045	37.65
2.89712	37.65
2.91378	37.65
2.93045	37.65
2.94712	37.65
2.96378	37.65
2.98045	37.65
2.99712	37.65
3.01378	37.65
3.03045	37.65
3.04712	37.64
3.06378	37.64
3.08045	37.64
3.09712	37.64
3.11378	37.64
3.13045	37.64
3.14712	37.64
3.16378	37.64
3.18045	37.64
3.19712	37.64
3.21378	37.64
3.23045	37.64
3.24712	37.63
3.26378	37.63
3.28045	37.64
3.29712	37.64
3.31378	37.64
3.33045	37.64
3.34712	37.64
3.36378	37.64
3.38045	37.64
3.39712	37.64
3.41378	37.64
3.43045	37.64
3.44712	37.64
3.46378	37.64
3.48045	37.64
3.49712	37.64
3.51378	37.64
3.53045	37.64
3.54712	37.64
3.56378	37.64
3.58045	37.64
3.59712	37.64
3.61378	37.64
3.63045	37.64
3.64712	37.64
3.66378	37.64
3.68045	37.64
3.69712	37.64
3.71378	37.64
3.73045	37.64
3.74712	37.64
3.76378	37.64
3.78045	37.64
3.79712	37.64
3.81378	37.64
3.83045	37.64
3.84712	37.64
3.86378	37.64
3.88045	37.64
3.89712	37.64
3.91378	37.64
3.93045	37.64
3.94712	37.64
3.96378	37.64
3.98045	37.64
3.99712	37.64

