[Header]
Application Name	LabSolutions
Version	5.110
Data File Name	C:\Users\User\Desktop\GC Analyses\Jack\Nachusa Grasslands Sampling\T0 Timepoint July 12th\T0_07122022_044.gcd
Output Date	3/14/2023
Output Time	3:40:36 PM

[File Information]
Type	Data File
Generated	3/7/2023 6:37:54 PM
Generated by	System Administrator
Modified	3/7/2023 6:44:43 PM
Modified by	System Administrator

[Sample Information]
Operator Name	System Administrator
Acquired	3/7/2023 6:40:42 PM
Sample Type	0:Unknown
Level	0
Sample Name	044
Sample ID	044
ISTD Amount1	1
ISTD Amount2	1
ISTD Amount3	1
ISTD Amount4	1
ISTD Amount5	1
ISTD Amount6	1
ISTD Amount7	1
ISTD Amount8	1
ISTD Amount9	1
ISTD Amount10	1
ISTD Amount11	1
ISTD Amount12	1
ISTD Amount13	1
ISTD Amount14	1
ISTD Amount15	1
ISTD Amount16	1
ISTD Amount17	1
ISTD Amount18	1
ISTD Amount19	1
ISTD Amount20	1
ISTD Amount21	1
ISTD Amount22	1
ISTD Amount23	1
ISTD Amount24	1
ISTD Amount25	1
ISTD Amount26	1
ISTD Amount27	1
ISTD Amount28	1
ISTD Amount29	1
ISTD Amount30	1
ISTD Amount31	1
ISTD Amount32	1
Sample Amount	1
Dilution Factor	1
Vial#	43
Injection Volume	1
Injection Count	1
Bar Code	

[Original Files]
Data File	C:\Users\User\Desktop\GC Analyses\Jack\Nachusa Grasslands Sampling\T0 Timepoint July 12th\T0_07122022_044.gcd
Method File	C:\LabSolutions\Data\GHG_4min_2022\ghg3_togas_w_acet_4 min_new_int.gcm
Batch File	C:\LabSolutions\Data\AutoSamplerTesting\T0_07122022.gcb
Report Format File	c:\LabSolutions\System\DEFAULT.lsr

[File Description]


[Configuration]
Instrument Name	C0B7VH3-Instrument1
Instrument #	1
Line #	1
# of Detectors	3
Detector ID	DET#1	DET#2	DET#3
Detector Name	FID	PTCD	ECD
# of Channels	1	1	1

[Peak Table(Ch1)]
# of Peaks	3
Peak#	R.Time	I.Time	F.Time	Area	Height	A/H	Conc.	Mark	ID#	Name	k'	Plate #	Plate Ht.	Tailing	Resolution	Sep.Factor	Area Ratio	Height Ratio	Conc. %	Norm Conc.
1	1.476	1.435	1.538	27942	13175	2.121	197.274	   	1	CO	0.000	9098	16.487	1.332	0.000	0.000	0	0	34.842	34.842
2	1.567	1.538	1.626	5003	2413	2.073	96.731	 V 	2	CH4	0.062	10386	14.442	0.000	1.486	0.000	0	0	17.084	17.084
3	1.996	1.949	2.484	1084571	512658	2.116	272.198	   	3	CO2	0.353	17364	8.639	1.308	7.026	5.680	0	0	48.074	48.074

[Peak Table(Ch2)]
# of Peaks	0

[Peak Table(Ch3)]
# of Peaks	5
Peak#	R.Time	I.Time	F.Time	Area	Height	A/H	Conc.	Mark	ID#	Name	k'	Plate #	Plate Ht.	Tailing	Resolution	Sep.Factor	Area Ratio	Height Ratio	Conc. %	Norm Conc.
1	2.462	2.238	2.524	1789	365	4.898	0.000	   			0.000	6030	24.874	0.000	0.000	0.000	0	0	0.000	0.000
2	2.550	2.524	2.638	912	200	4.550	0.000	 V 			0.036	2368	63.339	0.000	0.523	0.000	0	0	0.000	0.000
3	2.715	2.649	2.807	718	96	7.458	0.000	   			0.103	246	609.683	0.000	0.366	2.875	0	0	0.000	0.000
4	2.873	2.807	3.140	18458	4811	3.837	0.471	 V 	1	N2O	0.167	13395	11.198	1.614	0.398	1.623	0	0	100.000	100.000
5	3.280	3.195	3.965	10453	487	21.474	0.000	   	2	SF6	0.332	456	329.014	4.451	1.141	1.991	0	0	0.000	0.000

[Compound Results(Ch1)]
# of IDs	6
ID#	Name	R.Time	Area	Height	Conc.	Curve	3rd	2nd	1st	Constant	Area Ratio	Height Ratio	Conc. %	Norm Conc.
1	CO	1.476	27942	13175	197.274	Linear	0.000000e+00	0.000000e+00	1.416423e+002	0.000000e+00	0	0	34.842	34.842
2	CH4	1.567	5003	2413	96.731	Linear	0.000000e+00	0.000000e+00	5.171738e+001	0.000000e+00	0	0	17.084	17.084
3	CO2	1.996	1084571	512658	272.198	Linear	0.000000e+00	0.000000e+00	3.984494e+003	0.000000e+00	0	0	48.074	48.074
4	Ethylene	0.000	0	0	0.000	Linear	0.000000e+00	0.000000e+00	0.000000e+00	0.000000e+00	0	0	0.000	0.000
5	Acetylene	0.000	0	0	0.000	Linear	0.000000e+00	0.000000e+00	0.000000e+00	0.000000e+00	0	0	0.000	0.000
6	Ethane	0.000	0	0	0.000	Linear	0.000000e+00	0.000000e+00	0.000000e+00	0.000000e+00	0	0	0.000	0.000

[Compound Results(Ch2)]
# of IDs	5
ID#	Name	R.Time	Area	Height	Conc.	Curve	3rd	2nd	1st	Constant	Area Ratio	Height Ratio	Conc. %	Norm Conc.
1	Hydrogen	0.000	0	0	0.000	Linear	0.000000e+00	0.000000e+00	0.000000e+00	0.000000e+00	0	0	0.000	0.000
2	Oxygen	0.000	0	0	0.000	Linear	0.000000e+00	0.000000e+00	0.000000e+00	0.000000e+00	0	0	0.000	0.000
3	Nitrogen	0.000	0	0	0.000	Linear	0.000000e+00	0.000000e+00	0.000000e+00	0.000000e+00	0	0	0.000	0.000
4	Methane	0.000	0	0	0.000	Linear	0.000000e+00	0.000000e+00	0.000000e+00	0.000000e+00	0	0	0.000	0.000
5	Carbon Monoxide	0.000	0	0	0.000	Linear	0.000000e+00	0.000000e+00	0.000000e+00	0.000000e+00	0	0	0.000	0.000

[Compound Results(Ch3)]
# of IDs	2
ID#	Name	R.Time	Area	Height	Conc.	Curve	3rd	2nd	1st	Constant	Area Ratio	Height Ratio	Conc. %	Norm Conc.
1	N2O	2.873	18458	4811	0.471	Linear	0.000000e+00	0.000000e+00	3.915173e+004	0.000000e+00	0	0	100.000	100.000
2	SF6	3.280	10453	487	0.000	Linear	0.000000e+00	0.000000e+00	0.000000e+00	0.000000e+00	0	0	0.000	0.000

[Group Results(Ch1)]
# of Groups	0

[Group Results(Ch2)]
# of Groups	0

[Group Results(Ch3)]
# of Groups	0

[Chromatogram (Ch1)]
Interval(msec)	220
# of Points	1091
Start Time(min)	0.002
End Time(min)	3.998
R.Time (min)	Intensity
0.00167	-1
0.00533	-1
0.00900	-1
0.01267	-3
0.01633	-8
0.02000	-10
0.02367	-13
0.02733	-11
0.03100	-4
0.03467	8
0.03833	16
0.04200	18
0.04567	12
0.04933	9
0.05300	12
0.05667	23
0.06033	30
0.06400	31
0.06767	29
0.07133	31
0.07500	35
0.07867	37
0.08233	39
0.08600	42
0.08967	45
0.09333	47
0.09700	47
0.10067	46
0.10433	47
0.10800	49
0.11167	55
0.11533	61
0.11900	67
0.12267	70
0.12633	69
0.13000	68
0.13367	72
0.13733	78
0.14100	84
0.14467	89
0.14833	94
0.15200	96
0.15567	96
0.15933	94
0.16300	91
0.16667	88
0.17033	88
0.17400	90
0.17767	97
0.18133	106
0.18500	107
0.18867	95
0.19233	73
0.19600	52
0.19967	37
0.20333	30
0.20700	28
0.21067	32
0.21433	38
0.21800	43
0.22167	45
0.22533	42
0.22900	39
0.23267	39
0.23633	40
0.24000	39
0.24367	39
0.24733	42
0.25100	44
0.25467	44
0.25833	45
0.26200	48
0.26567	47
0.26933	44
0.27300	39
0.27667	36
0.28033	34
0.28400	33
0.28767	32
0.29133	34
0.29500	34
0.29867	31
0.30233	28
0.30600	25
0.30967	21
0.31333	18
0.31700	14
0.32067	13
0.32433	15
0.32800	19
0.33167	25
0.33533	32
0.33900	38
0.34267	42
0.34633	44
0.35000	46
0.35367	47
0.35733	50
0.36100	52
0.36467	49
0.36833	41
0.37200	37
0.37567	42
0.37933	51
0.38300	57
0.38667	59
0.39033	54
0.39400	47
0.39767	41
0.40133	34
0.40500	30
0.40867	24
0.41233	20
0.41600	21
0.41967	23
0.42333	25
0.42700	24
0.43067	21
0.43433	19
0.43800	20
0.44167	26
0.44533	30
0.44900	27
0.45267	20
0.45633	16
0.46000	16
0.46367	14
0.46733	10
0.47100	8
0.47467	11
0.47833	13
0.48200	16
0.48567	21
0.48933	27
0.49300	32
0.49667	33
0.50033	34
0.50400	35
0.50767	37
0.51133	34
0.51500	29
0.51867	24
0.52233	23
0.52600	18
0.52967	11
0.53333	8
0.53700	11
0.54067	13
0.54433	13
0.54800	16
0.55167	22
0.55533	29
0.55900	33
0.56267	34
0.56633	36
0.57000	38
0.57367	34
0.57733	27
0.58100	22
0.58467	23
0.58833	32
0.59200	40
0.59567	45
0.59933	46
0.60300	39
0.60667	30
0.61033	28
0.61400	30
0.61767	31
0.62133	29
0.62500	24
0.62867	20
0.63233	17
0.63600	13
0.63967	8
0.64333	4
0.64700	2
0.65067	5
0.65433	9
0.65800	16
0.66167	21
0.66533	26
0.66900	30
0.67267	33
0.67633	31
0.68000	29
0.68367	29
0.68733	32
0.69100	34
0.69467	38
0.69833	42
0.70200	48
0.70567	49
0.70933	48
0.71300	50
0.71667	53
0.72033	54
0.72400	49
0.72767	39
0.73133	30
0.73500	25
0.73867	22
0.74233	19
0.74600	14
0.74967	10
0.75333	7
0.75700	5
0.76067	4
0.76433	4
0.76800	7
0.77167	11
0.77533	17
0.77900	23
0.78267	30
0.78633	35
0.79000	40
0.79367	42
0.79733	44
0.80100	43
0.80467	42
0.80833	45
0.81200	48
0.81567	55
0.81933	63
0.82300	68
0.82667	69
0.83033	66
0.83400	62
0.83767	62
0.84133	62
0.84500	63
0.84867	66
0.85233	67
0.85600	64
0.85967	60
0.86333	58
0.86700	59
0.87067	62
0.87433	65
0.87800	68
0.88167	69
0.88533	69
0.88900	73
0.89267	80
0.89633	87
0.90000	95
0.90367	104
0.90733	111
0.91100	109
0.91467	100
0.91833	90
0.92200	81
0.92567	76
0.92933	72
0.93300	67
0.93667	62
0.94033	59
0.94400	57
0.94767	52
0.95133	47
0.95500	42
0.95867	40
0.96233	44
0.96600	48
0.96967	53
0.97333	57
0.97700	60
0.98067	61
0.98433	61
0.98800	60
0.99167	60
0.99533	61
0.99900	61
1.00267	62
1.00633	62
1.01000	63
1.01367	66
1.01733	71
1.02100	77
1.02467	82
1.02833	86
1.03200	89
1.03567	85
1.03933	75
1.04300	64
1.04667	57
1.05033	55
1.05400	53
1.05767	48
1.06133	44
1.06500	44
1.06867	43
1.07233	43
1.07600	44
1.07967	41
1.08333	37
1.08700	34
1.09067	34
1.09433	38
1.09800	46
1.10167	51
1.10533	53
1.10900	55
1.11267	56
1.11633	57
1.12000	57
1.12367	57
1.12733	55
1.13100	52
1.13467	48
1.13833	47
1.14200	47
1.14567	45
1.14933	43
1.15300	40
1.15667	39
1.16033	38
1.16400	32
1.16767	28
1.17133	26
1.17500	25
1.17867	27
1.18233	32
1.18600	35
1.18967	37
1.19333	40
1.19700	42
1.20067	41
1.20433	41
1.20800	42
1.21167	41
1.21533	39
1.21900	36
1.22267	32
1.22633	27
1.23000	23
1.23367	22
1.23733	21
1.24100	22
1.24467	28
1.24833	39
1.25200	49
1.25567	53
1.25933	51
1.26300	45
1.26667	35
1.27033	20
1.27400	6
1.27767	-5
1.28133	-12
1.28500	-14
1.28867	-9
1.29233	-1
1.29600	4
1.29967	8
1.30333	12
1.30700	17
1.31067	22
1.31433	28
1.31800	36
1.32167	41
1.32533	40
1.32900	34
1.33267	29
1.33633	29
1.34000	30
1.34367	31
1.34733	28
1.35100	22
1.35467	15
1.35833	11
1.36200	13
1.36567	17
1.36933	19
1.37300	17
1.37667	12
1.38033	6
1.38400	2
1.38767	0
1.39133	-0
1.39500	-2
1.39867	-5
1.40233	-2
1.40600	2
1.40967	5
1.41333	3
1.41700	1
1.42067	-2
1.42433	-8
1.42800	-10
1.43167	-9
1.43533	-5
1.43900	21
1.44267	117
1.44633	342
1.45000	876
1.45367	2119
1.45733	4207
1.46100	6741
1.46467	9175
1.46833	11159
1.47200	12533
1.47567	13175
1.47933	12968
1.48300	11911
1.48667	10213
1.49033	8232
1.49400	6313
1.49767	4673
1.50133	3382
1.50500	2424
1.50867	1741
1.51233	1269
1.51600	944
1.51967	719
1.52333	559
1.52700	443
1.53067	359
1.53433	300
1.53800	271
1.54167	305
1.54533	462
1.54900	775
1.55267	1196
1.55633	1630
1.56000	2004
1.56367	2279
1.56733	2424
1.57100	2407
1.57467	2220
1.57833	1896
1.58200	1512
1.58567	1142
1.58933	827
1.59300	580
1.59667	402
1.60033	277
1.60400	191
1.60767	132
1.61133	94
1.61500	66
1.61867	43
1.62233	27
1.62600	18
1.62967	13
1.63333	11
1.63700	9
1.64067	4
1.64433	-0
1.64800	0
1.65167	5
1.65533	9
1.65900	13
1.66267	16
1.66633	21
1.67000	22
1.67367	22
1.67733	20
1.68100	16
1.68467	11
1.68833	6
1.69200	4
1.69567	4
1.69933	4
1.70300	8
1.70667	14
1.71033	18
1.71400	18
1.71767	13
1.72133	5
1.72500	-4
1.72867	-11
1.73233	-14
1.73600	-15
1.73967	-15
1.74333	-12
1.74700	-6
1.75067	2
1.75433	6
1.75800	7
1.76167	10
1.76533	15
1.76900	17
1.77267	15
1.77633	8
1.78000	2
1.78367	-1
1.78733	0
1.79100	3
1.79467	8
1.79833	11
1.80200	12
1.80567	8
1.80933	-4
1.81300	-17
1.81667	-20
1.82033	-15
1.82400	-7
1.82767	2
1.83133	7
1.83500	7
1.83867	5
1.84233	2
1.84600	-2
1.84967	-4
1.85333	-3
1.85700	-1
1.86067	0
1.86433	-2
1.86800	-5
1.87167	-11
1.87533	-17
1.87900	-22
1.88267	-21
1.88633	-14
1.89000	-7
1.89367	-1
1.89733	4
1.90100	10
1.90467	15
1.90833	17
1.91200	19
1.91567	19
1.91933	14
1.92300	8
1.92667	4
1.93033	-2
1.93400	-13
1.93767	-27
1.94133	-36
1.94500	-35
1.94867	-24
1.95233	1
1.95600	101
1.95967	630
1.96333	2973
1.96700	10949
1.97067	31799
1.97433	74349
1.97800	143082
1.98167	232833
1.98533	329676
1.98900	417116
1.99267	481260
1.99633	512663
2.00000	507153
2.00367	467376
2.00733	402706
2.01100	326371
2.01467	251068
2.01833	185405
2.02200	133019
2.02567	93792
2.02933	65693
2.03300	46152
2.03667	32807
2.04033	23775
2.04400	17666
2.04767	13510
2.05133	10646
2.05500	8640
2.05867	7204
2.06233	6155
2.06600	5367
2.06967	4757
2.07333	4273
2.07700	3877
2.08067	3549
2.08433	3277
2.08800	3049
2.09167	2853
2.09533	2678
2.09900	2523
2.10267	2380
2.10633	2247
2.11000	2127
2.11367	2023
2.11733	1931
2.12100	1847
2.12467	1766
2.12833	1690
2.13200	1616
2.13567	1546
2.13933	1480
2.14300	1419
2.14667	1364
2.15033	1314
2.15400	1270
2.15767	1231
2.16133	1196
2.16500	1164
2.16867	1134
2.17233	1104
2.17600	1075
2.17967	1047
2.18333	1017
2.18700	987
2.19067	958
2.19433	931
2.19800	904
2.20167	879
2.20533	857
2.20900	837
2.21267	817
2.21633	796
2.22000	774
2.22367	753
2.22733	736
2.23100	724
2.23467	712
2.23833	700
2.24200	687
2.24567	676
2.24933	666
2.25300	655
2.25667	643
2.26033	630
2.26400	620
2.26767	609
2.27133	596
2.27500	584
2.27867	575
2.28233	568
2.28600	562
2.28967	557
2.29333	551
2.29700	545
2.30067	535
2.30433	522
2.30800	509
2.31167	499
2.31533	491
2.31900	481
2.32267	471
2.32633	463
2.33000	459
2.33367	459
2.33733	456
2.34100	451
2.34467	445
2.34833	438
2.35200	436
2.35567	441
2.35933	447
2.36300	447
2.36667	442
2.37033	432
2.37400	421
2.37767	413
2.38133	406
2.38500	395
2.38867	385
2.39233	378
2.39600	376
2.39967	373
2.40333	372
2.40700	368
2.41067	363
2.41433	356
2.41800	352
2.42167	349
2.42533	346
2.42900	342
2.43267	340
2.43633	342
2.44000	346
2.44367	344
2.44733	339
2.45100	334
2.45467	330
2.45833	328
2.46200	326
2.46567	327
2.46933	327
2.47300	322
2.47667	315
2.48033	306
2.48400	299
2.48767	292
2.49133	288
2.49500	287
2.49867	286
2.50233	287
2.50600	290
2.50967	293
2.51333	301
2.51700	313
2.52067	321
2.52433	322
2.52800	319
2.53167	311
2.53533	302
2.53900	293
2.54267	288
2.54633	284
2.55000	280
2.55367	279
2.55733	277
2.56100	278
2.56467	278
2.56833	275
2.57200	272
2.57567	269
2.57933	266
2.58300	264
2.58667	265
2.59033	266
2.59400	268
2.59767	271
2.60133	276
2.60500	280
2.60867	282
2.61233	283
2.61600	285
2.61967	286
2.62333	285
2.62700	282
2.63067	278
2.63433	275
2.63800	273
2.64167	273
2.64533	272
2.64900	270
2.65267	268
2.65633	264
2.66000	259
2.66367	254
2.66733	251
2.67100	247
2.67467	247
2.67833	249
2.68200	252
2.68567	254
2.68933	254
2.69300	256
2.69667	260
2.70033	264
2.70400	266
2.70767	269
2.71133	271
2.71500	268
2.71867	263
2.72233	254
2.72600	247
2.72967	242
2.73333	239
2.73700	240
2.74067	240
2.74433	241
2.74800	239
2.75167	238
2.75533	237
2.75900	238
2.76267	237
2.76633	239
2.77000	240
2.77367	235
2.77733	227
2.78100	224
2.78467	227
2.78833	237
2.79200	246
2.79567	248
2.79933	242
2.80300	232
2.80667	222
2.81033	216
2.81400	217
2.81767	220
2.82133	221
2.82500	221
2.82867	223
2.83233	227
2.83600	231
2.83967	232
2.84333	229
2.84700	227
2.85067	230
2.85433	237
2.85800	241
2.86167	240
2.86533	238
2.86900	240
2.87267	244
2.87633	244
2.88000	240
2.88367	235
2.88733	230
2.89100	227
2.89467	228
2.89833	229
2.90200	229
2.90567	225
2.90933	222
2.91300	216
2.91667	211
2.92033	209
2.92400	208
2.92767	209
2.93133	213
2.93500	218
2.93867	221
2.94233	223
2.94600	225
2.94967	228
2.95333	231
2.95700	234
2.96067	237
2.96433	235
2.96800	228
2.97167	221
2.97533	217
2.97900	220
2.98267	228
2.98633	237
2.99000	247
2.99367	257
2.99733	262
3.00100	257
3.00467	249
3.00833	242
3.01200	232
3.01567	220
3.01933	208
3.02300	202
3.02667	198
3.03033	194
3.03400	194
3.03767	197
3.04133	202
3.04500	207
3.04867	212
3.05233	215
3.05600	220
3.05967	225
3.06333	227
3.06700	223
3.07067	219
3.07433	219
3.07800	224
3.08167	230
3.08533	235
3.08900	235
3.09267	229
3.09633	222
3.10000	218
3.10367	216
3.10733	217
3.11100	219
3.11467	221
3.11833	223
3.12200	225
3.12567	227
3.12933	229
3.13300	232
3.13667	234
3.14033	234
3.14400	232
3.14767	228
3.15133	221
3.15500	214
3.15867	210
3.16233	208
3.16600	209
3.16967	213
3.17333	217
3.17700	222
3.18067	225
3.18433	222
3.18800	213
3.19167	202
3.19533	194
3.19900	194
3.20267	198
3.20633	200
3.21000	202
3.21367	204
3.21733	205
3.22100	200
3.22467	192
3.22833	189
3.23200	190
3.23567	189
3.23933	184
3.24300	176
3.24667	171
3.25033	169
3.25400	168
3.25767	166
3.26133	165
3.26500	168
3.26867	173
3.27233	180
3.27600	190
3.27967	200
3.28333	210
3.28700	218
3.29067	222
3.29433	218
3.29800	212
3.30167	206
3.30533	201
3.30900	196
3.31267	193
3.31633	191
3.32000	185
3.32367	179
3.32733	174
3.33100	172
3.33467	170
3.33833	168
3.34200	167
3.34567	168
3.34933	173
3.35300	183
3.35667	196
3.36033	205
3.36400	211
3.36767	212
3.37133	209
3.37500	203
3.37867	198
3.38233	198
3.38600	199
3.38967	201
3.39333	200
3.39700	196
3.40067	193
3.40433	190
3.40800	184
3.41167	180
3.41533	179
3.41900	181
3.42267	187
3.42633	192
3.43000	193
3.43367	191
3.43733	191
3.44100	189
3.44467	185
3.44833	182
3.45200	181
3.45567	183
3.45933	187
3.46300	190
3.46667	194
3.47033	196
3.47400	198
3.47767	202
3.48133	205
3.48500	205
3.48867	199
3.49233	190
3.49600	181
3.49967	174
3.50333	171
3.50700	173
3.51067	177
3.51433	181
3.51800	181
3.52167	174
3.52533	164
3.52900	156
3.53267	152
3.53633	154
3.54000	153
3.54367	152
3.54733	153
3.55100	154
3.55467	158
3.55833	160
3.56200	160
3.56567	159
3.56933	160
3.57300	162
3.57667	164
3.58033	168
3.58400	171
3.58767	174
3.59133	174
3.59500	174
3.59867	172
3.60233	171
3.60600	169
3.60967	171
3.61333	175
3.61700	176
3.62067	173
3.62433	166
3.62800	164
3.63167	164
3.63533	164
3.63900	165
3.64267	167
3.64633	167
3.65000	162
3.65367	152
3.65733	143
3.66100	137
3.66467	136
3.66833	140
3.67200	147
3.67567	154
3.67933	160
3.68300	167
3.68667	170
3.69033	164
3.69400	150
3.69767	134
3.70133	121
3.70500	115
3.70867	113
3.71233	113
3.71600	115
3.71967	121
3.72333	129
3.72700	137
3.73067	142
3.73433	143
3.73800	142
3.74167	140
3.74533	141
3.74900	145
3.75267	150
3.75633	152
3.76000	149
3.76367	144
3.76733	141
3.77100	141
3.77467	144
3.77833	146
3.78200	146
3.78567	140
3.78933	131
3.79300	125
3.79667	122
3.80033	123
3.80400	130
3.80767	137
3.81133	141
3.81500	143
3.81867	144
3.82233	143
3.82600	144
3.82967	144
3.83333	142
3.83700	139
3.84067	134
3.84433	129
3.84800	124
3.85167	120
3.85533	119
3.85900	120
3.86267	124
3.86633	126
3.87000	127
3.87367	130
3.87733	132
3.88100	136
3.88467	139
3.88833	137
3.89200	131
3.89567	124
3.89933	119
3.90300	116
3.90667	115
3.91033	116
3.91400	118
3.91767	119
3.92133	118
3.92500	115
3.92867	115
3.93233	118
3.93600	121
3.93967	121
3.94333	118
3.94700	113
3.95067	111
3.95433	110
3.95800	107
3.96167	104
3.96533	102
3.96900	102
3.97267	104
3.97633	106
3.98000	106
3.98367	106
3.98733	105
3.99100	103
3.99467	103
3.99833	102

[Chromatogram (Ch2)]
Interval(msec)	220
# of Points	1091
Start Time(min)	0.002
End Time(min)	3.998
R.Time (min)	Intensity
0.00167	-0
0.00533	-0
0.00900	-0
0.01267	-0
0.01633	-0
0.02000	0
0.02367	1
0.02733	1
0.03100	1
0.03467	1
0.03833	1
0.04200	1
0.04567	1
0.04933	1
0.05300	1
0.05667	1
0.06033	1
0.06400	0
0.06767	0
0.07133	0
0.07500	0
0.07867	0
0.08233	-0
0.08600	-0
0.08967	-1
0.09333	-1
0.09700	-1
0.10067	-1
0.10433	-0
0.10800	-0
0.11167	-0
0.11533	-0
0.11900	-0
0.12267	-0
0.12633	-0
0.13000	-0
0.13367	-0
0.13733	-0
0.14100	-0
0.14467	-0
0.14833	-0
0.15200	-0
0.15567	0
0.15933	0
0.16300	1
0.16667	1
0.17033	1
0.17400	1
0.17767	2
0.18133	2
0.18500	2
0.18867	2
0.19233	1
0.19600	1
0.19967	1
0.20333	1
0.20700	1
0.21067	1
0.21433	1
0.21800	1
0.22167	1
0.22533	1
0.22900	1
0.23267	1
0.23633	1
0.24000	2
0.24367	2
0.24733	2
0.25100	2
0.25467	2
0.25833	1
0.26200	1
0.26567	1
0.26933	1
0.27300	1
0.27667	1
0.28033	1
0.28400	1
0.28767	1
0.29133	1
0.29500	1
0.29867	1
0.30233	1
0.30600	1
0.30967	1
0.31333	1
0.31700	1
0.32067	1
0.32433	0
0.32800	0
0.33167	-0
0.33533	-1
0.33900	-1
0.34267	-1
0.34633	-1
0.35000	-1
0.35367	-1
0.35733	-1
0.36100	-1
0.36467	-1
0.36833	-1
0.37200	-1
0.37567	-0
0.37933	-0
0.38300	0
0.38667	0
0.39033	0
0.39400	0
0.39767	0
0.40133	0
0.40500	0
0.40867	0
0.41233	0
0.41600	-0
0.41967	-0
0.42333	-1
0.42700	-1
0.43067	-1
0.43433	-1
0.43800	-2
0.44167	-2
0.44533	-2
0.44900	-2
0.45267	-3
0.45633	-3
0.46000	-3
0.46367	-3
0.46733	-2
0.47100	-2
0.47467	-2
0.47833	-2
0.48200	-2
0.48567	-1
0.48933	-1
0.49300	-1
0.49667	-0
0.50033	-0
0.50400	0
0.50767	0
0.51133	0
0.51500	1
0.51867	1
0.52233	1
0.52600	1
0.52967	1
0.53333	1
0.53700	2
0.54067	2
0.54433	2
0.54800	2
0.55167	3
0.55533	3
0.55900	3
0.56267	3
0.56633	3
0.57000	3
0.57367	3
0.57733	2
0.58100	2
0.58467	2
0.58833	2
0.59200	2
0.59567	2
0.59933	2
0.60300	2
0.60667	2
0.61033	2
0.61400	2
0.61767	1
0.62133	1
0.62500	1
0.62867	0
0.63233	-0
0.63600	-1
0.63967	-1
0.64333	-2
0.64700	-2
0.65067	-1
0.65433	-1
0.65800	-1
0.66167	-1
0.66533	-1
0.66900	-1
0.67267	-1
0.67633	-0
0.68000	-0
0.68367	-0
0.68733	-0
0.69100	-0
0.69467	-1
0.69833	-1
0.70200	-1
0.70567	-1
0.70933	-1
0.71300	-1
0.71667	-0
0.72033	-0
0.72400	0
0.72767	0
0.73133	-0
0.73500	-0
0.73867	-0
0.74233	-0
0.74600	-0
0.74967	-0
0.75333	-0
0.75700	-1
0.76067	-1
0.76433	-1
0.76800	-1
0.77167	-1
0.77533	-1
0.77900	-1
0.78267	-1
0.78633	-1
0.79000	-1
0.79367	-1
0.79733	-1
0.80100	-2
0.80467	-2
0.80833	-2
0.81200	-2
0.81567	-2
0.81933	-2
0.82300	-2
0.82667	-2
0.83033	-2
0.83400	-2
0.83767	-2
0.84133	-1
0.84500	-1
0.84867	-1
0.85233	-1
0.85600	-1
0.85967	-1
0.86333	-1
0.86700	-1
0.87067	-1
0.87433	-1
0.87800	-1
0.88167	-0
0.88533	-0
0.88900	0
0.89267	0
0.89633	0
0.90000	1
0.90367	1
0.90733	1
0.91100	1
0.91467	1
0.91833	1
0.92200	1
0.92567	1
0.92933	1
0.93300	0
0.93667	0
0.94033	0
0.94400	-0
0.94767	-0
0.95133	-0
0.95500	-0
0.95867	-0
0.96233	-1
0.96600	-1
0.96967	-1
0.97333	-1
0.97700	-1
0.98067	-1
0.98433	-1
0.98800	-2
0.99167	-2
0.99533	-2
0.99900	-2
1.00267	-2
1.00633	-3
1.01000	-3
1.01367	-3
1.01733	-3
1.02100	-3
1.02467	-3
1.02833	-3
1.03200	-3
1.03567	-3
1.03933	-3
1.04300	-2
1.04667	-2
1.05033	-2
1.05400	-2
1.05767	-2
1.06133	-2
1.06500	-1
1.06867	-1
1.07233	-1
1.07600	-1
1.07967	-1
1.08333	-1
1.08700	-1
1.09067	-1
1.09433	-1
1.09800	-1
1.10167	-1
1.10533	-1
1.10900	-2
1.11267	-2
1.11633	-2
1.12000	-2
1.12367	-2
1.12733	-2
1.13100	-3
1.13467	-3
1.13833	-3
1.14200	-3
1.14567	-4
1.14933	-4
1.15300	-4
1.15667	-4
1.16033	-3
1.16400	-3
1.16767	-3
1.17133	-2
1.17500	-2
1.17867	-2
1.18233	-1
1.18600	-1
1.18967	-1
1.19333	-1
1.19700	-1
1.20067	-1
1.20433	-1
1.20800	-1
1.21167	-1
1.21533	-1
1.21900	-1
1.22267	-1
1.22633	-1
1.23000	-1
1.23367	-2
1.23733	-2
1.24100	-2
1.24467	-2
1.24833	-2
1.25200	-2
1.25567	-2
1.25933	-2
1.26300	-2
1.26667	-2
1.27033	-2
1.27400	-2
1.27767	-2
1.28133	-2
1.28500	-2
1.28867	-2
1.29233	-3
1.29600	-3
1.29967	-2
1.30333	-2
1.30700	-2
1.31067	-2
1.31433	-2
1.31800	-2
1.32167	-2
1.32533	-2
1.32900	-2
1.33267	-2
1.33633	-2
1.34000	-2
1.34367	-2
1.34733	-2
1.35100	-2
1.35467	-2
1.35833	-3
1.36200	-3
1.36567	-3
1.36933	-3
1.37300	-3
1.37667	-4
1.38033	-4
1.38400	-4
1.38767	-4
1.39133	-4
1.39500	-4
1.39867	-4
1.40233	-3
1.40600	-3
1.40967	-3
1.41333	-3
1.41700	-2
1.42067	-2
1.42433	-2
1.42800	-2
1.43167	-1
1.43533	-1
1.43900	-1
1.44267	-0
1.44633	-0
1.45000	-1
1.45367	-1
1.45733	-1
1.46100	-1
1.46467	-2
1.46833	-2
1.47200	-2
1.47567	-3
1.47933	-3
1.48300	-3
1.48667	-3
1.49033	-3
1.49400	-3
1.49767	-3
1.50133	-2
1.50500	-2
1.50867	-2
1.51233	-2
1.51600	-2
1.51967	-2
1.52333	-3
1.52700	-3
1.53067	-3
1.53433	-3
1.53800	-3
1.54167	-3
1.54533	-3
1.54900	-3
1.55267	-3
1.55633	-3
1.56000	-3
1.56367	-3
1.56733	-2
1.57100	-2
1.57467	-2
1.57833	-2
1.58200	-2
1.58567	-3
1.58933	-3
1.59300	-4
1.59667	-4
1.60033	-5
1.60400	-6
1.60767	-8
1.61133	-9
1.61500	-11
1.61867	-14
1.62233	-16
1.62600	-19
1.62967	-22
1.63333	-26
1.63700	-29
1.64067	-33
1.64433	-36
1.64800	-40
1.65167	-43
1.65533	-47
1.65900	-51
1.66267	-54
1.66633	-59
1.67000	-63
1.67367	-68
1.67733	-73
1.68100	-78
1.68467	-83
1.68833	-87
1.69200	-92
1.69567	-95
1.69933	-98
1.70300	-101
1.70667	-103
1.71033	-105
1.71400	-107
1.71767	-108
1.72133	-109
1.72500	-110
1.72867	-110
1.73233	-111
1.73600	-112
1.73967	-113
1.74333	-114
1.74700	-115
1.75067	-116
1.75433	-116
1.75800	-116
1.76167	-117
1.76533	-117
1.76900	-117
1.77267	-117
1.77633	-117
1.78000	-116
1.78367	-116
1.78733	-116
1.79100	-116
1.79467	-117
1.79833	-117
1.80200	-118
1.80567	-118
1.80933	-118
1.81300	-118
1.81667	-118
1.82033	-119
1.82400	-119
1.82767	-119
1.83133	-119
1.83500	-119
1.83867	-118
1.84233	-118
1.84600	-118
1.84967	-118
1.85333	-118
1.85700	-118
1.86067	-118
1.86433	-119
1.86800	-119
1.87167	-120
1.87533	-120
1.87900	-120
1.88267	-120
1.88633	-120
1.89000	-119
1.89367	-119
1.89733	-119
1.90100	-119
1.90467	-119
1.90833	-119
1.91200	-119
1.91567	-118
1.91933	-118
1.92300	-117
1.92667	-117
1.93033	-117
1.93400	-117
1.93767	-116
1.94133	-116
1.94500	-116
1.94867	-115
1.95233	-115
1.95600	-115
1.95967	-115
1.96333	-114
1.96700	-113
1.97067	-113
1.97433	-113
1.97800	-113
1.98167	-113
1.98533	-112
1.98900	-112
1.99267	-111
1.99633	-111
2.00000	-110
2.00367	-110
2.00733	-110
2.01100	-110
2.01467	-110
2.01833	-110
2.02200	-110
2.02567	-109
2.02933	-109
2.03300	-109
2.03667	-108
2.04033	-108
2.04400	-107
2.04767	-107
2.05133	-107
2.05500	-107
2.05867	-107
2.06233	-107
2.06600	-107
2.06967	-107
2.07333	-106
2.07700	-106
2.08067	-106
2.08433	-106
2.08800	-106
2.09167	-106
2.09533	-106
2.09900	-105
2.10267	-104
2.10633	-104
2.11000	-103
2.11367	-102
2.11733	-101
2.12100	-101
2.12467	-100
2.12833	-100
2.13200	-100
2.13567	-100
2.13933	-99
2.14300	-99
2.14667	-98
2.15033	-98
2.15400	-97
2.15767	-97
2.16133	-96
2.16500	-96
2.16867	-96
2.17233	-97
2.17600	-97
2.17967	-97
2.18333	-97
2.18700	-97
2.19067	-96
2.19433	-96
2.19800	-96
2.20167	-95
2.20533	-95
2.20900	-95
2.21267	-94
2.21633	-93
2.22000	-93
2.22367	-92
2.22733	-92
2.23100	-91
2.23467	-91
2.23833	-91
2.24200	-91
2.24567	-90
2.24933	-90
2.25300	-89
2.25667	-90
2.26033	-90
2.26400	-90
2.26767	-91
2.27133	-91
2.27500	-91
2.27867	-91
2.28233	-91
2.28600	-90
2.28967	-90
2.29333	-89
2.29700	-89
2.30067	-89
2.30433	-88
2.30800	-88
2.31167	-87
2.31533	-86
2.31900	-85
2.32267	-84
2.32633	-84
2.33000	-84
2.33367	-84
2.33733	-84
2.34100	-85
2.34467	-85
2.34833	-85
2.35200	-85
2.35567	-84
2.35933	-82
2.36300	-80
2.36667	-77
2.37033	-74
2.37400	-70
2.37767	-67
2.38133	-62
2.38500	-58
2.38867	-54
2.39233	-50
2.39600	-46
2.39967	-42
2.40333	-38
2.40700	-35
2.41067	-32
2.41433	-29
2.41800	-27
2.42167	-25
2.42533	-23
2.42900	-22
2.43267	-20
2.43633	-18
2.44000	-15
2.44367	-13
2.44733	-11
2.45100	-9
2.45467	-7
2.45833	-6
2.46200	-5
2.46567	-4
2.46933	-3
2.47300	-2
2.47667	-1
2.48033	0
2.48400	2
2.48767	3
2.49133	4
2.49500	4
2.49867	4
2.50233	5
2.50600	5
2.50967	6
2.51333	6
2.51700	7
2.52067	8
2.52433	8
2.52800	9
2.53167	9
2.53533	10
2.53900	10
2.54267	11
2.54633	12
2.55000	12
2.55367	13
2.55733	13
2.56100	14
2.56467	14
2.56833	14
2.57200	14
2.57567	14
2.57933	13
2.58300	13
2.58667	12
2.59033	12
2.59400	12
2.59767	13
2.60133	13
2.60500	13
2.60867	13
2.61233	13
2.61600	13
2.61967	13
2.62333	13
2.62700	13
2.63067	14
2.63433	14
2.63800	15
2.64167	16
2.64533	16
2.64900	17
2.65267	17
2.65633	17
2.66000	17
2.66367	17
2.66733	17
2.67100	17
2.67467	17
2.67833	17
2.68200	17
2.68567	17
2.68933	17
2.69300	17
2.69667	18
2.70033	18
2.70400	19
2.70767	19
2.71133	20
2.71500	20
2.71867	21
2.72233	22
2.72600	23
2.72967	24
2.73333	25
2.73700	25
2.74067	25
2.74433	25
2.74800	25
2.75167	25
2.75533	24
2.75900	23
2.76267	23
2.76633	22
2.77000	22
2.77367	21
2.77733	21
2.78100	21
2.78467	21
2.78833	21
2.79200	21
2.79567	21
2.79933	21
2.80300	21
2.80667	22
2.81033	22
2.81400	23
2.81767	23
2.82133	24
2.82500	24
2.82867	24
2.83233	25
2.83600	24
2.83967	23
2.84333	21
2.84700	16
2.85067	9
2.85433	-1
2.85800	-14
2.86167	-31
2.86533	-53
2.86900	-78
2.87267	-108
2.87633	-141
2.88000	-178
2.88367	-219
2.88733	-263
2.89100	-309
2.89467	-358
2.89833	-409
2.90200	-461
2.90567	-514
2.90933	-568
2.91300	-621
2.91667	-675
2.92033	-727
2.92400	-779
2.92767	-831
2.93133	-883
2.93500	-940
2.93867	-1000
2.94233	-1056
2.94600	-1096
2.94967	-1112
2.95333	-1102
2.95700	-1068
2.96067	-1014
2.96433	-946
2.96800	-869
2.97167	-788
2.97533	-707
2.97900	-629
2.98267	-555
2.98633	-486
2.99000	-424
2.99367	-368
2.99733	-317
3.00100	-273
3.00467	-234
3.00833	-200
3.01200	-170
3.01567	-145
3.01933	-122
3.02300	-103
3.02667	-87
3.03033	-72
3.03400	-60
3.03767	-50
3.04133	-41
3.04500	-34
3.04867	-27
3.05233	-21
3.05600	-16
3.05967	-12
3.06333	-9
3.06700	-5
3.07067	-3
3.07433	-0
3.07800	1
3.08167	3
3.08533	4
3.08900	6
3.09267	7
3.09633	8
3.10000	8
3.10367	9
3.10733	10
3.11100	11
3.11467	11
3.11833	12
3.12200	12
3.12567	13
3.12933	13
3.13300	13
3.13667	13
3.14033	13
3.14400	14
3.14767	14
3.15133	15
3.15500	15
3.15867	16
3.16233	16
3.16600	17
3.16967	17
3.17333	17
3.17700	17
3.18067	17
3.18433	18
3.18800	18
3.19167	18
3.19533	18
3.19900	18
3.20267	18
3.20633	18
3.21000	18
3.21367	18
3.21733	18
3.22100	18
3.22467	19
3.22833	19
3.23200	19
3.23567	20
3.23933	20
3.24300	21
3.24667	21
3.25033	22
3.25400	22
3.25767	23
3.26133	23
3.26500	23
3.26867	23
3.27233	23
3.27600	23
3.27967	23
3.28333	23
3.28700	23
3.29067	23
3.29433	24
3.29800	24
3.30167	24
3.30533	24
3.30900	24
3.31267	24
3.31633	24
3.32000	24
3.32367	24
3.32733	24
3.33100	24
3.33467	24
3.33833	24
3.34200	24
3.34567	24
3.34933	24
3.35300	24
3.35667	24
3.36033	23
3.36400	23
3.36767	23
3.37133	23
3.37500	23
3.37867	23
3.38233	24
3.38600	24
3.38967	24
3.39333	24
3.39700	24
3.40067	24
3.40433	24
3.40800	25
3.41167	25
3.41533	25
3.41900	25
3.42267	25
3.42633	25
3.43000	25
3.43367	25
3.43733	25
3.44100	25
3.44467	25
3.44833	25
3.45200	25
3.45567	25
3.45933	25
3.46300	25
3.46667	25
3.47033	25
3.47400	25
3.47767	25
3.48133	25
3.48500	25
3.48867	25
3.49233	25
3.49600	25
3.49967	25
3.50333	25
3.50700	25
3.51067	25
3.51433	25
3.51800	25
3.52167	25
3.52533	25
3.52900	25
3.53267	25
3.53633	25
3.54000	25
3.54367	25
3.54733	25
3.55100	26
3.55467	26
3.55833	26
3.56200	26
3.56567	26
3.56933	26
3.57300	26
3.57667	26
3.58033	26
3.58400	26
3.58767	26
3.59133	26
3.59500	26
3.59867	26
3.60233	26
3.60600	26
3.60967	26
3.61333	26
3.61700	26
3.62067	25
3.62433	25
3.62800	25
3.63167	25
3.63533	25
3.63900	25
3.64267	24
3.64633	24
3.65000	24
3.65367	24
3.65733	24
3.66100	25
3.66467	25
3.66833	25
3.67200	25
3.67567	25
3.67933	25
3.68300	25
3.68667	25
3.69033	25
3.69400	25
3.69767	26
3.70133	25
3.70500	25
3.70867	25
3.71233	25
3.71600	25
3.71967	25
3.72333	25
3.72700	26
3.73067	26
3.73433	26
3.73800	26
3.74167	26
3.74533	26
3.74900	26
3.75267	26
3.75633	26
3.76000	26
3.76367	26
3.76733	26
3.77100	26
3.77467	26
3.77833	26
3.78200	26
3.78567	26
3.78933	25
3.79300	25
3.79667	25
3.80033	25
3.80400	25
3.80767	25
3.81133	25
3.81500	25
3.81867	25
3.82233	25
3.82600	25
3.82967	25
3.83333	25
3.83700	25
3.84067	25
3.84433	25
3.84800	25
3.85167	25
3.85533	25
3.85900	25
3.86267	25
3.86633	25
3.87000	25
3.87367	25
3.87733	25
3.88100	25
3.88467	26
3.88833	26
3.89200	26
3.89567	26
3.89933	26
3.90300	26
3.90667	26
3.91033	26
3.91400	26
3.91767	27
3.92133	27
3.92500	27
3.92867	27
3.93233	27
3.93600	27
3.93967	27
3.94333	27
3.94700	27
3.95067	26
3.95433	26
3.95800	26
3.96167	25
3.96533	25
3.96900	25
3.97267	25
3.97633	25
3.98000	25
3.98367	25
3.98733	25
3.99100	25
3.99467	25
3.99833	25

[Chromatogram (Ch3)]
Interval(msec)	220
# of Points	1091
Start Time(min)	0.002
End Time(min)	3.998
R.Time (min)	Intensity
0.00167	0
0.00533	0
0.00900	1
0.01267	2
0.01633	3
0.02000	4
0.02367	4
0.02733	4
0.03100	3
0.03467	2
0.03833	2
0.04200	2
0.04567	-1
0.04933	-3
0.05300	-2
0.05667	-1
0.06033	-1
0.06400	2
0.06767	5
0.07133	6
0.07500	8
0.07867	10
0.08233	10
0.08600	8
0.08967	6
0.09333	7
0.09700	8
0.10067	6
0.10433	5
0.10800	6
0.11167	6
0.11533	4
0.11900	3
0.12267	5
0.12633	7
0.13000	7
0.13367	8
0.13733	8
0.14100	9
0.14467	11
0.14833	13
0.15200	13
0.15567	13
0.15933	12
0.16300	10
0.16667	8
0.17033	9
0.17400	9
0.17767	7
0.18133	6
0.18500	7
0.18867	10
0.19233	12
0.19600	12
0.19967	12
0.20333	13
0.20700	12
0.21067	12
0.21433	11
0.21800	11
0.22167	9
0.22533	7
0.22900	6
0.23267	7
0.23633	9
0.24000	11
0.24367	13
0.24733	11
0.25100	10
0.25467	9
0.25833	10
0.26200	13
0.26567	15
0.26933	15
0.27300	12
0.27667	9
0.28033	7
0.28400	5
0.28767	4
0.29133	5
0.29500	7
0.29867	7
0.30233	5
0.30600	3
0.30967	2
0.31333	-0
0.31700	-1
0.32067	0
0.32433	2
0.32800	2
0.33167	3
0.33533	4
0.33900	5
0.34267	4
0.34633	4
0.35000	5
0.35367	5
0.35733	6
0.36100	8
0.36467	9
0.36833	11
0.37200	11
0.37567	11
0.37933	10
0.38300	8
0.38667	7
0.39033	5
0.39400	3
0.39767	1
0.40133	-1
0.40500	1
0.40867	5
0.41233	5
0.41600	4
0.41967	2
0.42333	2
0.42700	1
0.43067	0
0.43433	1
0.43800	0
0.44167	-1
0.44533	-2
0.44900	-2
0.45267	-1
0.45633	-0
0.46000	2
0.46367	6
0.46733	8
0.47100	7
0.47467	5
0.47833	5
0.48200	5
0.48567	3
0.48933	3
0.49300	4
0.49667	5
0.50033	6
0.50400	5
0.50767	3
0.51133	2
0.51500	3
0.51867	2
0.52233	2
0.52600	0
0.52967	-0
0.53333	1
0.53700	2
0.54067	4
0.54433	4
0.54800	4
0.55167	4
0.55533	4
0.55900	4
0.56267	1
0.56633	1
0.57000	2
0.57367	2
0.57733	2
0.58100	4
0.58467	5
0.58833	5
0.59200	5
0.59567	4
0.59933	4
0.60300	4
0.60667	2
0.61033	3
0.61400	5
0.61767	6
0.62133	6
0.62500	4
0.62867	6
0.63233	7
0.63600	8
0.63967	7
0.64333	5
0.64700	5
0.65067	5
0.65433	7
0.65800	9
0.66167	12
0.66533	14
0.66900	14
0.67267	13
0.67633	12
0.68000	12
0.68367	11
0.68733	9
0.69100	7
0.69467	6
0.69833	5
0.70200	4
0.70567	4
0.70933	5
0.71300	5
0.71667	5
0.72033	7
0.72400	10
0.72767	14
0.73133	16
0.73500	15
0.73867	14
0.74233	13
0.74600	11
0.74967	14
0.75333	16
0.75700	16
0.76067	14
0.76433	11
0.76800	9
0.77167	9
0.77533	10
0.77900	12
0.78267	16
0.78633	16
0.79000	18
0.79367	18
0.79733	18
0.80100	18
0.80467	18
0.80833	18
0.81200	19
0.81567	20
0.81933	22
0.82300	22
0.82667	21
0.83033	17
0.83400	14
0.83767	14
0.84133	14
0.84500	16
0.84867	18
0.85233	18
0.85600	18
0.85967	18
0.86333	18
0.86700	18
0.87067	18
0.87433	15
0.87800	13
0.88167	15
0.88533	16
0.88900	17
0.89267	18
0.89633	18
0.90000	17
0.90367	17
0.90733	16
0.91100	17
0.91467	18
0.91833	18
0.92200	17
0.92567	15
0.92933	13
0.93300	11
0.93667	11
0.94033	11
0.94400	12
0.94767	15
0.95133	19
0.95500	20
0.95867	19
0.96233	19
0.96600	19
0.96967	18
0.97333	17
0.97700	19
0.98067	20
0.98433	20
0.98800	18
0.99167	17
0.99533	16
0.99900	16
1.00267	17
1.00633	16
1.01000	16
1.01367	17
1.01733	19
1.02100	21
1.02467	21
1.02833	20
1.03200	19
1.03567	20
1.03933	20
1.04300	21
1.04667	21
1.05033	21
1.05400	20
1.05767	20
1.06133	20
1.06500	20
1.06867	23
1.07233	25
1.07600	26
1.07967	26
1.08333	27
1.08700	26
1.09067	26
1.09433	27
1.09800	29
1.10167	30
1.10533	28
1.10900	25
1.11267	21
1.11633	19
1.12000	17
1.12367	17
1.12733	21
1.13100	24
1.13467	26
1.13833	25
1.14200	27
1.14567	30
1.14933	32
1.15300	32
1.15667	32
1.16033	33
1.16400	33
1.16767	31
1.17133	29
1.17500	26
1.17867	24
1.18233	23
1.18600	24
1.18967	27
1.19333	30
1.19700	32
1.20067	32
1.20433	32
1.20800	32
1.21167	30
1.21533	28
1.21900	28
1.22267	28
1.22633	29
1.23000	30
1.23367	31
1.23733	32
1.24100	32
1.24467	32
1.24833	33
1.25200	32
1.25567	29
1.25933	26
1.26300	25
1.26667	24
1.27033	24
1.27400	26
1.27767	29
1.28133	29
1.28500	29
1.28867	30
1.29233	33
1.29600	35
1.29967	35
1.30333	34
1.30700	33
1.31067	32
1.31433	29
1.31800	29
1.32167	30
1.32533	30
1.32900	31
1.33267	31
1.33633	30
1.34000	28
1.34367	25
1.34733	26
1.35100	26
1.35467	29
1.35833	30
1.36200	32
1.36567	34
1.36933	35
1.37300	34
1.37667	31
1.38033	30
1.38400	32
1.38767	35
1.39133	36
1.39500	35
1.39867	34
1.40233	34
1.40600	35
1.40967	37
1.41333	37
1.41700	37
1.42067	38
1.42433	38
1.42800	38
1.43167	39
1.43533	39
1.43900	39
1.44267	38
1.44633	40
1.45000	40
1.45367	38
1.45733	38
1.46100	38
1.46467	38
1.46833	38
1.47200	38
1.47567	41
1.47933	42
1.48300	39
1.48667	40
1.49033	40
1.49400	40
1.49767	42
1.50133	42
1.50500	42
1.50867	40
1.51233	40
1.51600	42
1.51967	42
1.52333	42
1.52700	42
1.53067	43
1.53433	41
1.53800	41
1.54167	42
1.54533	42
1.54900	41
1.55267	39
1.55633	40
1.56000	41
1.56367	42
1.56733	42
1.57100	42
1.57467	40
1.57833	38
1.58200	36
1.58567	38
1.58933	40
1.59300	39
1.59667	40
1.60033	39
1.60400	39
1.60767	40
1.61133	40
1.61500	41
1.61867	41
1.62233	41
1.62600	43
1.62967	44
1.63333	45
1.63700	46
1.64067	45
1.64433	44
1.64800	44
1.65167	45
1.65533	46
1.65900	47
1.66267	47
1.66633	48
1.67000	50
1.67367	52
1.67733	53
1.68100	57
1.68467	58
1.68833	57
1.69200	56
1.69567	53
1.69933	53
1.70300	54
1.70667	53
1.71033	54
1.71400	55
1.71767	56
1.72133	58
1.72500	60
1.72867	61
1.73233	61
1.73600	59
1.73967	57
1.74333	56
1.74700	57
1.75067	58
1.75433	57
1.75800	57
1.76167	57
1.76533	56
1.76900	55
1.77267	55
1.77633	55
1.78000	57
1.78367	58
1.78733	59
1.79100	59
1.79467	59
1.79833	58
1.80200	57
1.80567	55
1.80933	54
1.81300	56
1.81667	55
1.82033	53
1.82400	55
1.82767	58
1.83133	59
1.83500	60
1.83867	59
1.84233	58
1.84600	60
1.84967	61
1.85333	64
1.85700	67
1.86067	67
1.86433	66
1.86800	68
1.87167	69
1.87533	70
1.87900	71
1.88267	72
1.88633	71
1.89000	72
1.89367	73
1.89733	74
1.90100	73
1.90467	73
1.90833	75
1.91200	75
1.91567	75
1.91933	75
1.92300	76
1.92667	75
1.93033	75
1.93400	78
1.93767	78
1.94133	78
1.94500	80
1.94867	80
1.95233	79
1.95600	80
1.95967	82
1.96333	85
1.96700	87
1.97067	88
1.97433	88
1.97800	87
1.98167	86
1.98533	84
1.98900	85
1.99267	86
1.99633	87
2.00000	88
2.00367	86
2.00733	85
2.01100	88
2.01467	90
2.01833	89
2.02200	88
2.02567	87
2.02933	89
2.03300	91
2.03667	95
2.04033	97
2.04400	97
2.04767	98
2.05133	99
2.05500	101
2.05867	98
2.06233	95
2.06600	94
2.06967	94
2.07333	95
2.07700	99
2.08067	98
2.08433	97
2.08800	98
2.09167	101
2.09533	103
2.09900	103
2.10267	102
2.10633	103
2.11000	102
2.11367	102
2.11733	104
2.12100	105
2.12467	106
2.12833	106
2.13200	106
2.13567	106
2.13933	105
2.14300	106
2.14667	107
2.15033	109
2.15400	110
2.15767	109
2.16133	109
2.16500	111
2.16867	114
2.17233	117
2.17600	119
2.17967	118
2.18333	121
2.18700	123
2.19067	125
2.19433	126
2.19800	127
2.20167	126
2.20533	125
2.20900	125
2.21267	127
2.21633	130
2.22000	132
2.22367	133
2.22733	134
2.23100	135
2.23467	135
2.23833	135
2.24200	135
2.24567	135
2.24933	136
2.25300	138
2.25667	140
2.26033	141
2.26400	142
2.26767	141
2.27133	141
2.27500	144
2.27867	146
2.28233	147
2.28600	149
2.28967	151
2.29333	153
2.29700	153
2.30067	151
2.30433	151
2.30800	151
2.31167	152
2.31533	153
2.31900	155
2.32267	159
2.32633	161
2.33000	161
2.33367	161
2.33733	162
2.34100	164
2.34467	166
2.34833	166
2.35200	168
2.35567	170
2.35933	173
2.36300	174
2.36667	174
2.37033	174
2.37400	176
2.37767	179
2.38133	180
2.38500	179
2.38867	179
2.39233	179
2.39600	180
2.39967	180
2.40333	184
2.40700	186
2.41067	187
2.41433	189
2.41800	191
2.42167	193
2.42533	194
2.42900	195
2.43267	196
2.43633	199
2.44000	202
2.44367	226
2.44733	289
2.45100	361
2.45467	420
2.45833	457
2.46200	463
2.46567	446
2.46933	420
2.47300	397
2.47667	380
2.48033	371
2.48400	366
2.48767	359
2.49133	345
2.49500	326
2.49867	307
2.50233	291
2.50600	279
2.50967	270
2.51333	264
2.51700	259
2.52067	254
2.52433	254
2.52800	257
2.53167	262
2.53533	268
2.53900	273
2.54267	280
2.54633	285
2.55000	284
2.55367	282
2.55733	276
2.56100	267
2.56467	257
2.56833	248
2.57200	242
2.57567	238
2.57933	234
2.58300	228
2.58667	221
2.59033	218
2.59400	215
2.59767	211
2.60133	205
2.60500	196
2.60867	183
2.61233	164
2.61600	144
2.61967	125
2.62333	106
2.62700	91
2.63067	81
2.63433	75
2.63800	69
2.64167	63
2.64533	62
2.64900	65
2.65267	71
2.65633	76
2.66000	83
2.66367	95
2.66733	106
2.67100	115
2.67467	125
2.67833	135
2.68200	144
2.68567	151
2.68933	156
2.69300	159
2.69667	163
2.70033	165
2.70400	165
2.70767	167
2.71133	171
2.71500	173
2.71867	171
2.72233	169
2.72600	168
2.72967	169
2.73333	170
2.73700	170
2.74067	171
2.74433	172
2.74800	172
2.75167	170
2.75533	171
2.75900	171
2.76267	171
2.76633	171
2.77000	171
2.77367	170
2.77733	170
2.78100	172
2.78467	173
2.78833	174
2.79200	172
2.79567	173
2.79933	175
2.80300	174
2.80667	174
2.81033	175
2.81400	176
2.81767	182
2.82133	199
2.82500	243
2.82867	326
2.83233	468
2.83600	692
2.83967	1013
2.84333	1436
2.84700	1951
2.85067	2529
2.85433	3127
2.85800	3701
2.86167	4198
2.86533	4578
2.86900	4820
2.87267	4915
2.87633	4877
2.88000	4726
2.88367	4484
2.88733	4180
2.89100	3841
2.89467	3491
2.89833	3141
2.90200	2806
2.90567	2494
2.90933	2207
2.91300	1949
2.91667	1720
2.92033	1516
2.92400	1337
2.92767	1180
2.93133	1043
2.93500	923
2.93867	818
2.94233	728
2.94600	654
2.94967	591
2.95333	536
2.95700	487
2.96067	443
2.96433	408
2.96800	378
2.97167	349
2.97533	324
2.97900	303
2.98267	287
2.98633	274
2.99000	262
2.99367	252
2.99733	243
3.00100	236
3.00467	228
3.00833	222
3.01200	218
3.01567	214
3.01933	210
3.02300	202
3.02667	197
3.03033	194
3.03400	191
3.03767	190
3.04133	189
3.04500	188
3.04867	184
3.05233	182
3.05600	180
3.05967	175
3.06333	173
3.06700	172
3.07067	172
3.07433	170
3.07800	170
3.08167	169
3.08533	170
3.08900	169
3.09267	167
3.09633	162
3.10000	159
3.10367	158
3.10733	157
3.11100	157
3.11467	157
3.11833	158
3.12200	160
3.12567	158
3.12933	153
3.13300	151
3.13667	151
3.14033	150
3.14400	149
3.14767	150
3.15133	151
3.15500	151
3.15867	153
3.16233	155
3.16600	156
3.16967	160
3.17333	164
3.17700	164
3.18067	154
3.18433	134
3.18800	113
3.19167	107
3.19533	120
3.19900	147
3.20267	186
3.20633	228
3.21000	269
3.21367	308
3.21733	345
3.22100	379
3.22467	411
3.22833	441
3.23200	471
3.23567	498
3.23933	523
3.24300	545
3.24667	564
3.25033	579
3.25400	590
3.25767	601
3.26133	612
3.26500	622
3.26867	630
3.27233	634
3.27600	636
3.27967	637
3.28333	637
3.28700	632
3.29067	630
3.29433	629
3.29800	628
3.30167	627
3.30533	623
3.30900	619
3.31267	616
3.31633	611
3.32000	606
3.32367	601
3.32733	597
3.33100	592
3.33467	589
3.33833	587
3.34200	585
3.34567	583
3.34933	581
3.35300	579
3.35667	576
3.36033	572
3.36400	569
3.36767	568
3.37133	564
3.37500	559
3.37867	554
3.38233	550
3.38600	549
3.38967	546
3.39333	543
3.39700	543
3.40067	542
3.40433	540
3.40800	540
3.41167	540
3.41533	539
3.41900	541
3.42267	541
3.42633	539
3.43000	537
3.43367	534
3.43733	533
3.44100	534
3.44467	534
3.44833	533
3.45200	533
3.45567	534
3.45933	535
3.46300	535
3.46667	537
3.47033	535
3.47400	533
3.47767	531
3.48133	529
3.48500	528
3.48867	527
3.49233	528
3.49600	528
3.49967	528
3.50333	528
3.50700	527
3.51067	526
3.51433	524
3.51800	524
3.52167	521
3.52533	516
3.52900	513
3.53267	513
3.53633	512
3.54000	509
3.54367	508
3.54733	507
3.55100	507
3.55467	507
3.55833	506
3.56200	506
3.56567	506
3.56933	505
3.57300	503
3.57667	502
3.58033	500
3.58400	497
3.58767	494
3.59133	494
3.59500	494
3.59867	494
3.60233	494
3.60600	494
3.60967	495
3.61333	493
3.61700	491
3.62067	490
3.62433	490
3.62800	488
3.63167	486
3.63533	485
3.63900	483
3.64267	479
3.64633	476
3.65000	474
3.65367	473
3.65733	472
3.66100	473
3.66467	474
3.66833	473
3.67200	472
3.67567	472
3.67933	471
3.68300	469
3.68667	467
3.69033	465
3.69400	463
3.69767	460
3.70133	459
3.70500	459
3.70867	458
3.71233	455
3.71600	451
3.71967	446
3.72333	444
3.72700	444
3.73067	444
3.73433	441
3.73800	439
3.74167	439
3.74533	438
3.74900	438
3.75267	437
3.75633	435
3.76000	432
3.76367	432
3.76733	433
3.77100	434
3.77467	433
3.77833	431
3.78200	429
3.78567	429
3.78933	428
3.79300	426
3.79667	427
3.80033	427
3.80400	426
3.80767	426
3.81133	425
3.81500	423
3.81867	422
3.82233	419
3.82600	418
3.82967	420
3.83333	423
3.83700	423
3.84067	422
3.84433	420
3.84800	419
3.85167	418
3.85533	417
3.85900	415
3.86267	413
3.86633	414
3.87000	414
3.87367	415
3.87733	419
3.88100	420
3.88467	421
3.88833	420
3.89200	417
3.89567	415
3.89933	414
3.90300	414
3.90667	415
3.91033	414
3.91400	412
3.91767	409
3.92133	406
3.92500	404
3.92867	404
3.93233	403
3.93600	404
3.93967	403
3.94333	401
3.94700	399
3.95067	398
3.95433	398
3.95800	400
3.96167	400
3.96533	400
3.96900	399
3.97267	398
3.97633	398
3.98000	401
3.98367	401
3.98733	399
3.99100	400
3.99467	400
3.99833	395

[Status Trace (Column Oven Temperature)]
Interval(msec)	1000
# of Points	240
Start Time(min)	0.002
End Time(min)	3.986
Intensity Units	
Intensity Multiplier	1
R.Time (min)	Intensity
0.00228	35.04
0.01895	35.03
0.03562	35.03
0.05228	35.02
0.06895	35.02
0.08562	35.03
0.10228	35.05
0.11895	35.05
0.13562	35.06
0.15228	35.05
0.16895	35.05
0.18562	35.05
0.20228	35.04
0.21895	35.04
0.23562	35.03
0.25228	35.02
0.26895	35.02
0.28562	35.00
0.30228	35.00
0.31895	35.00
0.33562	35.01
0.35228	35.02
0.36895	35.01
0.38562	35.02
0.40228	35.02
0.41895	35.03
0.43562	35.04
0.45228	35.03
0.46895	35.03
0.48562	35.03
0.50228	35.03
0.51895	35.02
0.53562	35.01
0.55228	35.00
0.56895	34.99
0.58562	34.98
0.60228	34.98
0.61895	35.00
0.63562	35.00
0.65228	35.00
0.66895	34.99
0.68562	35.00
0.70228	35.00
0.71895	34.99
0.73562	34.99
0.75228	34.99
0.76895	34.99
0.78562	35.00
0.80228	35.00
0.81895	35.00
0.83562	35.00
0.85228	35.00
0.86895	34.99
0.88562	34.99
0.90228	34.98
0.91895	34.98
0.93562	34.98
0.95228	34.98
0.96895	34.99
0.98562	35.00
1.00228	35.00
1.01895	35.00
1.03562	35.00
1.05228	35.00
1.06895	35.00
1.08562	34.99
1.10228	34.99
1.11895	34.99
1.13562	35.00
1.15228	35.01
1.16895	35.00
1.18562	34.99
1.20228	34.99
1.21895	34.97
1.23562	34.98
1.25228	35.00
1.26895	34.99
1.28562	35.00
1.30228	34.99
1.31895	34.99
1.33562	34.99
1.35228	35.00
1.36895	35.01
1.38562	35.01
1.40228	35.00
1.41895	34.99
1.43562	34.99
1.45228	34.99
1.46895	34.99
1.48562	34.99
1.50228	34.99
1.51895	34.98
1.53562	34.98
1.55228	34.98
1.56895	34.98
1.58562	34.99
1.60228	35.04
1.61895	35.15
1.63562	35.32
1.65228	35.53
1.66895	35.84
1.68562	36.20
1.70228	36.56
1.71895	36.89
1.73562	37.24
1.75228	37.57
1.76895	37.91
1.78562	38.23
1.80228	38.57
1.81895	38.90
1.83562	39.22
1.85228	39.56
1.86895	39.89
1.88562	40.21
1.90228	40.55
1.91895	40.87
1.93562	41.20
1.95228	41.52
1.96895	41.85
1.98562	42.19
2.00228	42.51
2.01895	42.83
2.03562	43.15
2.05228	43.47
2.06895	43.80
2.08562	44.13
2.10228	44.44
2.11895	44.76
2.13562	45.10
2.15228	45.42
2.16895	45.75
2.18562	46.08
2.20228	46.40
2.21895	46.71
2.23562	47.04
2.25228	47.38
2.26895	47.73
2.28562	48.05
2.30228	48.39
2.31895	48.69
2.33562	49.06
2.35228	49.37
2.36895	49.56
2.38562	49.64
2.40228	49.62
2.41895	49.64
2.43562	49.65
2.45228	49.65
2.46895	49.67
2.48562	49.68
2.50228	49.71
2.51895	49.72
2.53562	49.73
2.55228	49.74
2.56895	49.76
2.58562	49.79
2.60228	49.81
2.61895	49.84
2.63562	49.82
2.65228	49.83
2.66895	49.85
2.68562	49.87
2.70228	49.88
2.71895	49.86
2.73562	49.84
2.75228	49.85
2.76895	49.88
2.78562	49.90
2.80228	49.90
2.81895	49.91
2.83562	49.90
2.85228	49.89
2.86895	49.89
2.88562	49.89
2.90228	49.90
2.91895	49.91
2.93562	49.92
2.95228	49.95
2.96895	49.97
2.98562	49.99
3.00228	50.00
3.01895	50.00
3.03562	50.02
3.05228	50.02
3.06895	50.03
3.08562	50.04
3.10228	50.05
3.11895	50.06
3.13562	50.07
3.15228	50.07
3.16895	50.07
3.18562	50.07
3.20228	50.09
3.21895	50.10
3.23562	50.10
3.25228	50.09
3.26895	50.09
3.28562	50.09
3.30228	50.08
3.31895	50.09
3.33562	50.09
3.35228	50.10
3.36895	50.10
3.38562	50.10
3.40228	50.09
3.41895	50.09
3.43562	50.08
3.45228	50.08
3.46895	50.08
3.48562	50.08
3.50228	50.07
3.51895	50.07
3.53562	50.07
3.55228	50.07
3.56895	50.07
3.58562	50.06
3.60228	50.06
3.61895	50.06
3.63562	50.05
3.65228	50.05
3.66895	50.06
3.68562	50.06
3.70228	50.06
3.71895	50.07
3.73562	50.06
3.75228	50.05
3.76895	50.05
3.78562	50.05
3.80228	50.05
3.81895	50.05
3.83562	50.05
3.85228	50.06
3.86895	50.06
3.88562	50.06
3.90228	50.05
3.91895	50.04
3.93562	50.03
3.95228	50.04
3.96895	50.04
3.98562	50.04

[Status Trace (Injection Unit Temperature)]
Interval(msec)	1000
# of Points	240
Start Time(min)	0.002
End Time(min)	3.986
Intensity Units	
Intensity Multiplier	1
R.Time (min)	Intensity
0.00228	99.98
0.01895	99.98
0.03562	99.98
0.05228	99.98
0.06895	99.98
0.08562	99.98
0.10228	99.98
0.11895	99.98
0.13562	99.98
0.15228	99.98
0.16895	99.98
0.18562	99.98
0.20228	99.98
0.21895	99.98
0.23562	99.98
0.25228	99.98
0.26895	99.98
0.28562	99.98
0.30228	99.98
0.31895	99.98
0.33562	99.99
0.35228	99.98
0.36895	99.98
0.38562	99.98
0.40228	99.98
0.41895	99.98
0.43562	99.98
0.45228	99.98
0.46895	99.98
0.48562	99.98
0.50228	99.98
0.51895	99.98
0.53562	99.98
0.55228	99.98
0.56895	99.99
0.58562	99.98
0.60228	99.98
0.61895	99.99
0.63562	99.98
0.65228	99.98
0.66895	99.98
0.68562	99.98
0.70228	99.98
0.71895	99.99
0.73562	99.98
0.75228	99.98
0.76895	99.98
0.78562	99.98
0.80228	99.98
0.81895	99.98
0.83562	99.98
0.85228	99.98
0.86895	99.98
0.88562	99.98
0.90228	99.98
0.91895	99.98
0.93562	99.98
0.95228	99.98
0.96895	99.98
0.98562	99.98
1.00228	99.98
1.01895	99.98
1.03562	99.98
1.05228	99.98
1.06895	99.98
1.08562	99.98
1.10228	99.98
1.11895	99.98
1.13562	99.98
1.15228	99.98
1.16895	99.98
1.18562	99.98
1.20228	99.98
1.21895	99.98
1.23562	99.98
1.25228	99.98
1.26895	99.98
1.28562	99.98
1.30228	99.98
1.31895	99.98
1.33562	99.98
1.35228	99.98
1.36895	99.98
1.38562	99.98
1.40228	99.98
1.41895	99.98
1.43562	99.98
1.45228	99.98
1.46895	99.98
1.48562	99.98
1.50228	99.98
1.51895	99.98
1.53562	99.98
1.55228	99.98
1.56895	99.98
1.58562	99.98
1.60228	99.98
1.61895	99.99
1.63562	99.98
1.65228	99.98
1.66895	99.98
1.68562	99.98
1.70228	99.98
1.71895	99.98
1.73562	99.98
1.75228	99.98
1.76895	99.98
1.78562	99.98
1.80228	99.98
1.81895	99.98
1.83562	99.98
1.85228	99.98
1.86895	99.98
1.88562	99.98
1.90228	99.98
1.91895	99.98
1.93562	99.98
1.95228	99.98
1.96895	99.98
1.98562	99.97
2.00228	99.98
2.01895	99.97
2.03562	99.97
2.05228	99.97
2.06895	99.97
2.08562	99.97
2.10228	99.97
2.11895	99.97
2.13562	99.97
2.15228	99.98
2.16895	99.97
2.18562	99.97
2.20228	99.97
2.21895	99.97
2.23562	99.97
2.25228	99.97
2.26895	99.97
2.28562	99.97
2.30228	99.97
2.31895	99.97
2.33562	99.97
2.35228	99.97
2.36895	99.97
2.38562	99.96
2.40228	99.97
2.41895	99.97
2.43562	99.97
2.45228	99.97
2.46895	99.97
2.48562	99.97
2.50228	99.97
2.51895	99.97
2.53562	99.97
2.55228	99.97
2.56895	99.97
2.58562	99.97
2.60228	99.97
2.61895	99.97
2.63562	99.97
2.65228	99.97
2.66895	99.98
2.68562	99.97
2.70228	99.98
2.71895	99.98
2.73562	99.98
2.75228	99.98
2.76895	99.99
2.78562	99.99
2.80228	99.99
2.81895	99.99
2.83562	99.99
2.85228	99.99
2.86895	100.00
2.88562	100.00
2.90228	100.00
2.91895	100.00
2.93562	100.00
2.95228	100.00
2.96895	100.00
2.98562	100.00
3.00228	100.01
3.01895	100.01
3.03562	100.01
3.05228	100.01
3.06895	100.01
3.08562	100.01
3.10228	100.01
3.11895	100.01
3.13562	100.01
3.15228	100.01
3.16895	100.01
3.18562	100.02
3.20228	100.02
3.21895	100.02
3.23562	100.02
3.25228	100.02
3.26895	100.02
3.28562	100.02
3.30228	100.02
3.31895	100.03
3.33562	100.03
3.35228	100.03
3.36895	100.02
3.38562	100.03
3.40228	100.03
3.41895	100.03
3.43562	100.02
3.45228	100.03
3.46895	100.03
3.48562	100.03
3.50228	100.03
3.51895	100.03
3.53562	100.03
3.55228	100.04
3.56895	100.04
3.58562	100.04
3.60228	100.04
3.61895	100.03
3.63562	100.04
3.65228	100.04
3.66895	100.04
3.68562	100.04
3.70228	100.04
3.71895	100.04
3.73562	100.04
3.75228	100.04
3.76895	100.04
3.78562	100.04
3.80228	100.04
3.81895	100.04
3.83562	100.04
3.85228	100.04
3.86895	100.04
3.88562	100.05
3.90228	100.04
3.91895	100.04
3.93562	100.05
3.95228	100.05
3.96895	100.05
3.98562	100.04

[Status Trace (Carrier Gas Pressure)]
Interval(msec)	1000
# of Points	240
Start Time(min)	0.002
End Time(min)	3.986
Intensity Units	
Intensity Multiplier	1
R.Time (min)	Intensity
0.00228	58.00
0.01895	56.29
0.03562	56.35
0.05228	58.52
0.06895	59.87
0.08562	58.28
0.10228	57.97
0.11895	58.01
0.13562	58.01
0.15228	58.01
0.16895	58.00
0.18562	58.00
0.20228	58.00
0.21895	58.00
0.23562	58.00
0.25228	58.00
0.26895	58.00
0.28562	58.00
0.30228	58.00
0.31895	58.00
0.33562	58.00
0.35228	58.00
0.36895	58.00
0.38562	58.00
0.40228	58.00
0.41895	58.00
0.43562	58.00
0.45228	58.00
0.46895	58.00
0.48562	58.00
0.50228	58.00
0.51895	58.00
0.53562	58.00
0.55228	58.00
0.56895	58.00
0.58562	58.00
0.60228	58.00
0.61895	58.00
0.63562	58.00
0.65228	58.00
0.66895	58.00
0.68562	58.00
0.70228	58.00
0.71895	58.00
0.73562	58.00
0.75228	58.00
0.76895	58.00
0.78562	58.00
0.80228	58.00
0.81895	58.00
0.83562	58.00
0.85228	58.00
0.86895	58.00
0.88562	58.00
0.90228	58.00
0.91895	58.00
0.93562	58.00
0.95228	58.00
0.96895	58.00
0.98562	58.00
1.00228	58.00
1.01895	58.00
1.03562	58.00
1.05228	58.00
1.06895	58.00
1.08562	58.00
1.10228	58.00
1.11895	58.00
1.13562	58.00
1.15228	58.00
1.16895	58.00
1.18562	58.00
1.20228	58.00
1.21895	58.00
1.23562	58.00
1.25228	58.00
1.26895	58.00
1.28562	58.00
1.30228	58.00
1.31895	58.00
1.33562	58.00
1.35228	58.00
1.36895	58.00
1.38562	58.00
1.40228	58.00
1.41895	58.00
1.43562	58.00
1.45228	58.00
1.46895	58.00
1.48562	58.00
1.50228	58.00
1.51895	58.00
1.53562	58.00
1.55228	58.00
1.56895	58.00
1.58562	58.00
1.60228	58.00
1.61895	58.00
1.63562	58.00
1.65228	58.00
1.66895	58.01
1.68562	58.01
1.70228	58.00
1.71895	58.00
1.73562	58.00
1.75228	58.00
1.76895	58.00
1.78562	58.00
1.80228	58.00
1.81895	58.00
1.83562	58.00
1.85228	58.00
1.86895	58.00
1.88562	58.00
1.90228	58.00
1.91895	58.00
1.93562	58.00
1.95228	58.00
1.96895	58.00
1.98562	58.00
2.00228	58.00
2.01895	58.00
2.03562	58.00
2.05228	58.00
2.06895	58.00
2.08562	58.00
2.10228	58.00
2.11895	58.00
2.13562	58.00
2.15228	58.00
2.16895	58.00
2.18562	58.00
2.20228	58.00
2.21895	58.00
2.23562	58.00
2.25228	58.00
2.26895	58.00
2.28562	58.00
2.30228	58.00
2.31895	58.00
2.33562	58.00
2.35228	58.00
2.36895	58.00
2.38562	57.99
2.40228	57.99
2.41895	58.00
2.43562	58.00
2.45228	58.00
2.46895	58.00
2.48562	58.00
2.50228	58.00
2.51895	58.02
2.53562	57.99
2.55228	58.00
2.56895	58.00
2.58562	58.00
2.60228	58.00
2.61895	58.00
2.63562	58.00
2.65228	58.00
2.66895	58.00
2.68562	58.00
2.70228	58.00
2.71895	58.00
2.73562	58.00
2.75228	58.00
2.76895	58.00
2.78562	58.00
2.80228	58.00
2.81895	58.00
2.83562	58.00
2.85228	58.00
2.86895	58.00
2.88562	58.00
2.90228	58.00
2.91895	58.00
2.93562	58.00
2.95228	58.00
2.96895	58.00
2.98562	58.00
3.00228	58.00
3.01895	58.00
3.03562	58.00
3.05228	58.00
3.06895	58.00
3.08562	58.00
3.10228	58.00
3.11895	58.00
3.13562	58.00
3.15228	58.00
3.16895	58.00
3.18562	58.00
3.20228	58.00
3.21895	58.00
3.23562	58.00
3.25228	58.00
3.26895	58.00
3.28562	58.00
3.30228	58.00
3.31895	58.00
3.33562	58.00
3.35228	58.00
3.36895	58.00
3.38562	58.00
3.40228	58.00
3.41895	58.00
3.43562	58.00
3.45228	58.00
3.46895	58.00
3.48562	58.00
3.50228	58.00
3.51895	58.00
3.53562	58.00
3.55228	58.00
3.56895	58.00
3.58562	58.00
3.60228	58.00
3.61895	58.00
3.63562	58.00
3.65228	58.00
3.66895	58.00
3.68562	58.00
3.70228	58.00
3.71895	58.00
3.73562	58.00
3.75228	58.00
3.76895	58.00
3.78562	58.00
3.80228	58.00
3.81895	58.00
3.83562	58.00
3.85228	58.00
3.86895	58.00
3.88562	58.00
3.90228	58.00
3.91895	58.00
3.93562	58.00
3.95228	58.00
3.96895	58.00
3.98562	58.00

[Status Trace (Carrier Gas Flow)]
Interval(msec)	1000
# of Points	240
Start Time(min)	0.002
End Time(min)	3.986
Intensity Units	
Intensity Multiplier	1
R.Time (min)	Intensity
0.00228	34.52
0.01895	34.55
0.03562	34.54
0.05228	34.55
0.06895	34.49
0.08562	34.51
0.10228	34.52
0.11895	34.52
0.13562	34.51
0.15228	34.52
0.16895	34.52
0.18562	34.52
0.20228	34.52
0.21895	34.52
0.23562	34.51
0.25228	34.52
0.26895	34.52
0.28562	34.52
0.30228	34.52
0.31895	34.52
0.33562	34.52
0.35228	34.52
0.36895	34.52
0.38562	34.52
0.40228	34.52
0.41895	34.52
0.43562	34.52
0.45228	34.52
0.46895	34.52
0.48562	34.52
0.50228	34.52
0.51895	34.52
0.53562	34.52
0.55228	34.52
0.56895	34.52
0.58562	34.52
0.60228	34.52
0.61895	34.52
0.63562	34.52
0.65228	34.52
0.66895	34.52
0.68562	34.52
0.70228	34.52
0.71895	34.52
0.73562	34.52
0.75228	34.52
0.76895	34.52
0.78562	34.52
0.80228	34.52
0.81895	34.52
0.83562	34.52
0.85228	34.52
0.86895	34.52
0.88562	34.52
0.90228	34.52
0.91895	34.52
0.93562	34.52
0.95228	34.52
0.96895	34.52
0.98562	34.52
1.00228	34.52
1.01895	34.52
1.03562	34.52
1.05228	34.52
1.06895	34.52
1.08562	34.52
1.10228	34.52
1.11895	34.52
1.13562	34.52
1.15228	34.52
1.16895	34.52
1.18562	34.52
1.20228	34.52
1.21895	34.52
1.23562	34.52
1.25228	34.52
1.26895	34.52
1.28562	34.52
1.30228	34.52
1.31895	34.52
1.33562	34.52
1.35228	34.52
1.36895	34.52
1.38562	34.52
1.40228	34.52
1.41895	34.52
1.43562	34.52
1.45228	34.52
1.46895	34.52
1.48562	34.52
1.50228	34.51
1.51895	34.51
1.53562	34.52
1.55228	34.51
1.56895	34.52
1.58562	34.53
1.60228	34.52
1.61895	34.53
1.63562	34.52
1.65228	34.52
1.66895	34.53
1.68562	34.51
1.70228	34.52
1.71895	34.52
1.73562	34.53
1.75228	34.52
1.76895	34.51
1.78562	34.52
1.80228	34.51
1.81895	34.52
1.83562	34.52
1.85228	34.51
1.86895	34.52
1.88562	34.52
1.90228	34.52
1.91895	34.52
1.93562	34.52
1.95228	34.51
1.96895	34.53
1.98562	34.52
2.00228	34.52
2.01895	34.52
2.03562	34.52
2.05228	34.52
2.06895	34.52
2.08562	34.52
2.10228	34.52
2.11895	34.52
2.13562	34.52
2.15228	34.52
2.16895	34.52
2.18562	34.52
2.20228	34.52
2.21895	34.52
2.23562	34.52
2.25228	34.52
2.26895	34.52
2.28562	34.52
2.30228	34.52
2.31895	34.52
2.33562	34.52
2.35228	34.52
2.36895	34.52
2.38562	34.51
2.40228	34.52
2.41895	34.52
2.43562	34.53
2.45228	34.52
2.46895	34.52
2.48562	34.52
2.50228	34.54
2.51895	34.51
2.53562	34.52
2.55228	34.52
2.56895	34.51
2.58562	34.52
2.60228	34.51
2.61895	34.52
2.63562	34.53
2.65228	34.53
2.66895	34.52
2.68562	34.52
2.70228	34.52
2.71895	34.51
2.73562	34.52
2.75228	34.52
2.76895	34.51
2.78562	34.52
2.80228	34.52
2.81895	34.53
2.83562	34.52
2.85228	34.51
2.86895	34.53
2.88562	34.50
2.90228	34.53
2.91895	34.51
2.93562	34.51
2.95228	34.51
2.96895	34.51
2.98562	34.51
3.00228	34.52
3.01895	34.52
3.03562	34.53
3.05228	34.51
3.06895	34.53
3.08562	34.52
3.10228	34.53
3.11895	34.52
3.13562	34.52
3.15228	34.52
3.16895	34.53
3.18562	34.52
3.20228	34.53
3.21895	34.52
3.23562	34.50
3.25228	34.53
3.26895	34.52
3.28562	34.52
3.30228	34.52
3.31895	34.52
3.33562	34.52
3.35228	34.52
3.36895	34.52
3.38562	34.51
3.40228	34.52
3.41895	34.52
3.43562	34.52
3.45228	34.52
3.46895	34.51
3.48562	34.52
3.50228	34.52
3.51895	34.52
3.53562	34.52
3.55228	34.52
3.56895	34.52
3.58562	34.52
3.60228	34.52
3.61895	34.52
3.63562	34.52
3.65228	34.52
3.66895	34.52
3.68562	34.52
3.70228	34.52
3.71895	34.52
3.73562	34.52
3.75228	34.52
3.76895	34.52
3.78562	34.52
3.80228	34.52
3.81895	34.52
3.83562	34.52
3.85228	34.52
3.86895	34.52
3.88562	34.52
3.90228	34.52
3.91895	34.52
3.93562	34.52
3.95228	34.51
3.96895	34.52
3.98562	34.52

[Status Trace (Column Flow)]
Interval(msec)	1000
# of Points	240
Start Time(min)	0.002
End Time(min)	3.986
Intensity Units	
Intensity Multiplier	1
R.Time (min)	Intensity
0.00228	5.57
0.01895	5.37
0.03562	5.38
0.05228	5.63
0.06895	5.79
0.08562	5.61
0.10228	5.57
0.11895	5.57
0.13562	5.57
0.15228	5.57
0.16895	5.57
0.18562	5.57
0.20228	5.57
0.21895	5.57
0.23562	5.57
0.25228	5.57
0.26895	5.57
0.28562	5.57
0.30228	5.57
0.31895	5.57
0.33562	5.57
0.35228	5.57
0.36895	5.57
0.38562	5.57
0.40228	5.57
0.41895	5.57
0.43562	5.57
0.45228	5.57
0.46895	5.57
0.48562	5.57
0.50228	5.57
0.51895	5.57
0.53562	5.57
0.55228	5.57
0.56895	5.57
0.58562	5.57
0.60228	5.58
0.61895	5.57
0.63562	5.57
0.65228	5.57
0.66895	5.57
0.68562	5.57
0.70228	5.57
0.71895	5.57
0.73562	5.57
0.75228	5.57
0.76895	5.57
0.78562	5.57
0.80228	5.57
0.81895	5.57
0.83562	5.57
0.85228	5.57
0.86895	5.57
0.88562	5.57
0.90228	5.57
0.91895	5.58
0.93562	5.57
0.95228	5.57
0.96895	5.57
0.98562	5.57
1.00228	5.57
1.01895	5.57
1.03562	5.57
1.05228	5.57
1.06895	5.57
1.08562	5.57
1.10228	5.57
1.11895	5.57
1.13562	5.57
1.15228	5.57
1.16895	5.57
1.18562	5.57
1.20228	5.57
1.21895	5.58
1.23562	5.57
1.25228	5.57
1.26895	5.57
1.28562	5.57
1.30228	5.57
1.31895	5.57
1.33562	5.57
1.35228	5.57
1.36895	5.57
1.38562	5.57
1.40228	5.57
1.41895	5.57
1.43562	5.57
1.45228	5.57
1.46895	5.57
1.48562	5.57
1.50228	5.57
1.51895	5.57
1.53562	5.57
1.55228	5.57
1.56895	5.57
1.58562	5.57
1.60228	5.57
1.61895	5.57
1.63562	5.56
1.65228	5.56
1.66895	5.55
1.68562	5.54
1.70228	5.53
1.71895	5.51
1.73562	5.50
1.75228	5.49
1.76895	5.48
1.78562	5.47
1.80228	5.46
1.81895	5.45
1.83562	5.44
1.85228	5.43
1.86895	5.42
1.88562	5.41
1.90228	5.40
1.91895	5.39
1.93562	5.38
1.95228	5.37
1.96895	5.36
1.98562	5.35
2.00228	5.34
2.01895	5.33
2.03562	5.32
2.05228	5.32
2.06895	5.30
2.08562	5.29
2.10228	5.29
2.11895	5.28
2.13562	5.27
2.15228	5.26
2.16895	5.25
2.18562	5.24
2.20228	5.23
2.21895	5.22
2.23562	5.21
2.25228	5.20
2.26895	5.19
2.28562	5.18
2.30228	5.17
2.31895	5.16
2.33562	5.15
2.35228	5.14
2.36895	5.14
2.38562	5.14
2.40228	5.14
2.41895	5.14
2.43562	5.14
2.45228	5.14
2.46895	5.14
2.48562	5.14
2.50228	5.13
2.51895	5.14
2.53562	5.13
2.55228	5.13
2.56895	5.13
2.58562	5.13
2.60228	5.13
2.61895	5.13
2.63562	5.13
2.65228	5.13
2.66895	5.13
2.68562	5.13
2.70228	5.13
2.71895	5.13
2.73562	5.13
2.75228	5.13
2.76895	5.13
2.78562	5.13
2.80228	5.13
2.81895	5.13
2.83562	5.13
2.85228	5.13
2.86895	5.13
2.88562	5.13
2.90228	5.13
2.91895	5.13
2.93562	5.13
2.95228	5.13
2.96895	5.13
2.98562	5.13
3.00228	5.13
3.01895	5.13
3.03562	5.13
3.05228	5.13
3.06895	5.13
3.08562	5.13
3.10228	5.13
3.11895	5.13
3.13562	5.12
3.15228	5.12
3.16895	5.12
3.18562	5.12
3.20228	5.12
3.21895	5.12
3.23562	5.12
3.25228	5.12
3.26895	5.12
3.28562	5.12
3.30228	5.12
3.31895	5.12
3.33562	5.12
3.35228	5.12
3.36895	5.12
3.38562	5.12
3.40228	5.12
3.41895	5.12
3.43562	5.12
3.45228	5.12
3.46895	5.12
3.48562	5.12
3.50228	5.12
3.51895	5.12
3.53562	5.12
3.55228	5.12
3.56895	5.12
3.58562	5.12
3.60228	5.13
3.61895	5.13
3.63562	5.13
3.65228	5.13
3.66895	5.12
3.68562	5.13
3.70228	5.12
3.71895	5.12
3.73562	5.13
3.75228	5.13
3.76895	5.13
3.78562	5.13
3.80228	5.13
3.81895	5.13
3.83562	5.13
3.85228	5.13
3.86895	5.12
3.88562	5.12
3.90228	5.13
3.91895	5.13
3.93562	5.13
3.95228	5.13
3.96895	5.13
3.98562	5.13

[Status Trace (Linear Velocity)]
Interval(msec)	1000
# of Points	240
Start Time(min)	0.002
End Time(min)	3.986
Intensity Units	
Intensity Multiplier	1
R.Time (min)	Intensity
0.00228	39.02
0.01895	37.91
0.03562	37.95
0.05228	39.37
0.06895	40.25
0.08562	39.21
0.10228	39.00
0.11895	39.03
0.13562	39.03
0.15228	39.03
0.16895	39.03
0.18562	39.03
0.20228	39.03
0.21895	39.03
0.23562	39.03
0.25228	39.03
0.26895	39.03
0.28562	39.03
0.30228	39.03
0.31895	39.03
0.33562	39.03
0.35228	39.03
0.36895	39.03
0.38562	39.03
0.40228	39.03
0.41895	39.03
0.43562	39.03
0.45228	39.03
0.46895	39.03
0.48562	39.03
0.50228	39.03
0.51895	39.03
0.53562	39.03
0.55228	39.03
0.56895	39.03
0.58562	39.03
0.60228	39.03
0.61895	39.03
0.63562	39.03
0.65228	39.03
0.66895	39.03
0.68562	39.03
0.70228	39.03
0.71895	39.03
0.73562	39.03
0.75228	39.03
0.76895	39.03
0.78562	39.03
0.80228	39.03
0.81895	39.03
0.83562	39.03
0.85228	39.03
0.86895	39.03
0.88562	39.03
0.90228	39.03
0.91895	39.03
0.93562	39.03
0.95228	39.03
0.96895	39.03
0.98562	39.03
1.00228	39.03
1.01895	39.03
1.03562	39.03
1.05228	39.03
1.06895	39.03
1.08562	39.03
1.10228	39.03
1.11895	39.03
1.13562	39.03
1.15228	39.03
1.16895	39.03
1.18562	39.03
1.20228	39.03
1.21895	39.03
1.23562	39.03
1.25228	39.03
1.26895	39.03
1.28562	39.03
1.30228	39.03
1.31895	39.03
1.33562	39.03
1.35228	39.03
1.36895	39.03
1.38562	39.03
1.40228	39.03
1.41895	39.03
1.43562	39.03
1.45228	39.03
1.46895	39.03
1.48562	39.03
1.50228	39.03
1.51895	39.03
1.53562	39.03
1.55228	39.03
1.56895	39.03
1.58562	39.03
1.60228	39.03
1.61895	39.02
1.63562	39.00
1.65228	38.98
1.66895	38.95
1.68562	38.92
1.70228	38.88
1.71895	38.85
1.73562	38.82
1.75228	38.79
1.76895	38.75
1.78562	38.72
1.80228	38.69
1.81895	38.66
1.83562	38.63
1.85228	38.60
1.86895	38.56
1.88562	38.53
1.90228	38.51
1.91895	38.47
1.93562	38.44
1.95228	38.41
1.96895	38.38
1.98562	38.35
2.00228	38.32
2.01895	38.29
2.03562	38.26
2.05228	38.24
2.06895	38.20
2.08562	38.17
2.10228	38.14
2.11895	38.11
2.13562	38.08
2.15228	38.06
2.16895	38.03
2.18562	38.00
2.20228	37.97
2.21895	37.94
2.23562	37.91
2.25228	37.88
2.26895	37.85
2.28562	37.82
2.30228	37.79
2.31895	37.76
2.33562	37.73
2.35228	37.70
2.36895	37.68
2.38562	37.67
2.40228	37.67
2.41895	37.67
2.43562	37.67
2.45228	37.67
2.46895	37.67
2.48562	37.67
2.50228	37.67
2.51895	37.68
2.53562	37.66
2.55228	37.67
2.56895	37.67
2.58562	37.66
2.60228	37.66
2.61895	37.66
2.63562	37.66
2.65228	37.66
2.66895	37.66
2.68562	37.66
2.70228	37.66
2.71895	37.66
2.73562	37.66
2.75228	37.66
2.76895	37.66
2.78562	37.65
2.80228	37.65
2.81895	37.65
2.83562	37.65
2.85228	37.65
2.86895	37.65
2.88562	37.65
2.90228	37.65
2.91895	37.65
2.93562	37.65
2.95228	37.65
2.96895	37.65
2.98562	37.65
3.00228	37.64
3.01895	37.64
3.03562	37.64
3.05228	37.64
3.06895	37.64
3.08562	37.64
3.10228	37.64
3.11895	37.64
3.13562	37.64
3.15228	37.64
3.16895	37.64
3.18562	37.64
3.20228	37.64
3.21895	37.64
3.23562	37.64
3.25228	37.64
3.26895	37.64
3.28562	37.64
3.30228	37.64
3.31895	37.64
3.33562	37.64
3.35228	37.64
3.36895	37.64
3.38562	37.64
3.40228	37.64
3.41895	37.64
3.43562	37.64
3.45228	37.64
3.46895	37.64
3.48562	37.64
3.50228	37.64
3.51895	37.64
3.53562	37.64
3.55228	37.64
3.56895	37.64
3.58562	37.64
3.60228	37.64
3.61895	37.64
3.63562	37.64
3.65228	37.64
3.66895	37.64
3.68562	37.64
3.70228	37.64
3.71895	37.64
3.73562	37.64
3.75228	37.64
3.76895	37.64
3.78562	37.64
3.80228	37.64
3.81895	37.64
3.83562	37.64
3.85228	37.64
3.86895	37.64
3.88562	37.64
3.90228	37.64
3.91895	37.64
3.93562	37.64
3.95228	37.64
3.96895	37.64
3.98562	37.64

