[Header]
Application Name	LabSolutions
Version	5.110
Data File Name	C:\Users\User\Desktop\GC Analyses\Jack\Nachusa Grasslands Sampling\T0 Timepoint July 12th\T0_07122022_011.gcd
Output Date	3/14/2023
Output Time	3:40:34 PM

[File Information]
Type	Data File
Generated	3/7/2023 2:54:08 PM
Generated by	System Administrator
Modified	3/7/2023 3:00:37 PM
Modified by	System Administrator

[Sample Information]
Operator Name	System Administrator
Acquired	3/7/2023 2:56:36 PM
Sample Type	0:Unknown
Level	0
Sample Name	011
Sample ID	011
ISTD Amount1	1
ISTD Amount2	1
ISTD Amount3	1
ISTD Amount4	1
ISTD Amount5	1
ISTD Amount6	1
ISTD Amount7	1
ISTD Amount8	1
ISTD Amount9	1
ISTD Amount10	1
ISTD Amount11	1
ISTD Amount12	1
ISTD Amount13	1
ISTD Amount14	1
ISTD Amount15	1
ISTD Amount16	1
ISTD Amount17	1
ISTD Amount18	1
ISTD Amount19	1
ISTD Amount20	1
ISTD Amount21	1
ISTD Amount22	1
ISTD Amount23	1
ISTD Amount24	1
ISTD Amount25	1
ISTD Amount26	1
ISTD Amount27	1
ISTD Amount28	1
ISTD Amount29	1
ISTD Amount30	1
ISTD Amount31	1
ISTD Amount32	1
Sample Amount	1
Dilution Factor	1
Vial#	10
Injection Volume	1
Injection Count	1
Bar Code	

[Original Files]
Data File	C:\Users\User\Desktop\GC Analyses\Jack\Nachusa Grasslands Sampling\T0 Timepoint July 12th\T0_07122022_011.gcd
Method File	C:\LabSolutions\Data\GHG_4min_2022\ghg3_togas_w_acet_4 min_new_int.gcm
Batch File	C:\LabSolutions\Data\AutoSamplerTesting\T0_07122022.gcb
Report Format File	c:\LabSolutions\System\DEFAULT.lsr

[File Description]


[Configuration]
Instrument Name	C0B7VH3-Instrument1
Instrument #	1
Line #	1
# of Detectors	3
Detector ID	DET#1	DET#2	DET#3
Detector Name	FID	PTCD	ECD
# of Channels	1	1	1

[Peak Table(Ch1)]
# of Peaks	3
Peak#	R.Time	I.Time	F.Time	Area	Height	A/H	Conc.	Mark	ID#	Name	k'	Plate #	Plate Ht.	Tailing	Resolution	Sep.Factor	Area Ratio	Height Ratio	Conc. %	Norm Conc.
1	1.483	1.439	1.534	2384	698	3.414	16.834	   	1	CO	0.000	4594	32.649	0.000	0.000	0.000	0	0	1.743	1.743
2	1.571	1.534	1.648	21218	10604	2.001	410.275	 V 	2	CH4	0.059	11376	13.185	1.131	1.202	0.000	0	0	42.475	42.475
3	1.996	1.949	2.638	2146906	1004510	2.137	538.815	   	3	CO2	0.346	17118	8.763	1.328	7.092	5.833	0	0	55.782	55.782

[Peak Table(Ch2)]
# of Peaks	0

[Peak Table(Ch3)]
# of Peaks	5
Peak#	R.Time	I.Time	F.Time	Area	Height	A/H	Conc.	Mark	ID#	Name	k'	Plate #	Plate Ht.	Tailing	Resolution	Sep.Factor	Area Ratio	Height Ratio	Conc. %	Norm Conc.
1	2.462	2.367	2.521	1309	329	3.981	0.000	   			0.000	4135	36.277	0.000	0.000	0.000	0	0	0.000	0.000
2	2.554	2.521	2.638	1281	250	5.125	0.000	 V 			0.037	2276	65.899	0.000	0.499	0.000	0	0	0.000	0.000
3	2.700	2.656	2.770	217	53	4.121	0.000	   			0.097	8990	16.684	1.259	0.894	2.600	0	0	0.000	0.000
4	2.876	2.799	3.071	58045	15196	3.820	1.483	   	1	N2O	0.168	12866	11.659	1.511	1.635	1.738	0	0	100.000	100.000
5	3.448	3.265	3.962	12377	594	20.819	0.000	   	2	SF6	0.401	822	182.433	1.806	1.964	2.381	0	0	0.000	0.000

[Compound Results(Ch1)]
# of IDs	6
ID#	Name	R.Time	Area	Height	Conc.	Curve	3rd	2nd	1st	Constant	Area Ratio	Height Ratio	Conc. %	Norm Conc.
1	CO	1.483	2384	698	16.834	Linear	0.000000e+00	0.000000e+00	1.416423e+002	0.000000e+00	0	0	1.743	1.743
2	CH4	1.571	21218	10604	410.275	Linear	0.000000e+00	0.000000e+00	5.171738e+001	0.000000e+00	0	0	42.475	42.475
3	CO2	1.996	2146906	1004510	538.815	Linear	0.000000e+00	0.000000e+00	3.984494e+003	0.000000e+00	0	0	55.782	55.782
4	Ethylene	0.000	0	0	0.000	Linear	0.000000e+00	0.000000e+00	0.000000e+00	0.000000e+00	0	0	0.000	0.000
5	Acetylene	0.000	0	0	0.000	Linear	0.000000e+00	0.000000e+00	0.000000e+00	0.000000e+00	0	0	0.000	0.000
6	Ethane	0.000	0	0	0.000	Linear	0.000000e+00	0.000000e+00	0.000000e+00	0.000000e+00	0	0	0.000	0.000

[Compound Results(Ch2)]
# of IDs	5
ID#	Name	R.Time	Area	Height	Conc.	Curve	3rd	2nd	1st	Constant	Area Ratio	Height Ratio	Conc. %	Norm Conc.
1	Hydrogen	0.000	0	0	0.000	Linear	0.000000e+00	0.000000e+00	0.000000e+00	0.000000e+00	0	0	0.000	0.000
2	Oxygen	0.000	0	0	0.000	Linear	0.000000e+00	0.000000e+00	0.000000e+00	0.000000e+00	0	0	0.000	0.000
3	Nitrogen	0.000	0	0	0.000	Linear	0.000000e+00	0.000000e+00	0.000000e+00	0.000000e+00	0	0	0.000	0.000
4	Methane	0.000	0	0	0.000	Linear	0.000000e+00	0.000000e+00	0.000000e+00	0.000000e+00	0	0	0.000	0.000
5	Carbon Monoxide	0.000	0	0	0.000	Linear	0.000000e+00	0.000000e+00	0.000000e+00	0.000000e+00	0	0	0.000	0.000

[Compound Results(Ch3)]
# of IDs	2
ID#	Name	R.Time	Area	Height	Conc.	Curve	3rd	2nd	1st	Constant	Area Ratio	Height Ratio	Conc. %	Norm Conc.
1	N2O	2.876	58045	15196	1.483	Linear	0.000000e+00	0.000000e+00	3.915173e+004	0.000000e+00	0	0	100.000	100.000
2	SF6	3.448	12377	594	0.000	Linear	0.000000e+00	0.000000e+00	0.000000e+00	0.000000e+00	0	0	0.000	0.000

[Group Results(Ch1)]
# of Groups	0

[Group Results(Ch2)]
# of Groups	0

[Group Results(Ch3)]
# of Groups	0

[Chromatogram (Ch1)]
Interval(msec)	220
# of Points	1091
Start Time(min)	0.002
End Time(min)	3.998
R.Time (min)	Intensity
0.00167	0
0.00533	-10
0.00900	-17
0.01267	-20
0.01633	-20
0.02000	-16
0.02367	-13
0.02733	-10
0.03100	-6
0.03467	-0
0.03833	2
0.04200	4
0.04567	7
0.04933	10
0.05300	12
0.05667	16
0.06033	20
0.06400	22
0.06767	20
0.07133	18
0.07500	20
0.07867	25
0.08233	30
0.08600	32
0.08967	26
0.09333	16
0.09700	6
0.10067	-4
0.10433	-10
0.10800	-11
0.11167	-8
0.11533	-9
0.11900	-13
0.12267	-17
0.12633	-16
0.13000	-11
0.13367	-7
0.13733	-3
0.14100	1
0.14467	5
0.14833	8
0.15200	10
0.15567	13
0.15933	16
0.16300	16
0.16667	12
0.17033	10
0.17400	11
0.17767	14
0.18133	19
0.18500	20
0.18867	17
0.19233	15
0.19600	13
0.19967	8
0.20333	2
0.20700	-7
0.21067	-17
0.21433	-21
0.21800	-20
0.22167	-17
0.22533	-11
0.22900	-5
0.23267	1
0.23633	6
0.24000	4
0.24367	-2
0.24733	-8
0.25100	-13
0.25467	-16
0.25833	-18
0.26200	-18
0.26567	-15
0.26933	-12
0.27300	-10
0.27667	-8
0.28033	-6
0.28400	-1
0.28767	4
0.29133	6
0.29500	4
0.29867	1
0.30233	0
0.30600	-1
0.30967	-0
0.31333	4
0.31700	8
0.32067	11
0.32433	12
0.32800	12
0.33167	13
0.33533	12
0.33900	10
0.34267	12
0.34633	13
0.35000	10
0.35367	4
0.35733	-3
0.36100	-7
0.36467	-7
0.36833	-3
0.37200	2
0.37567	7
0.37933	11
0.38300	15
0.38667	18
0.39033	19
0.39400	17
0.39767	16
0.40133	20
0.40500	28
0.40867	37
0.41233	49
0.41600	58
0.41967	64
0.42333	69
0.42700	73
0.43067	75
0.43433	75
0.43800	70
0.44167	64
0.44533	61
0.44900	62
0.45267	67
0.45633	73
0.46000	83
0.46367	95
0.46733	107
0.47100	119
0.47467	127
0.47833	132
0.48200	135
0.48567	133
0.48933	128
0.49300	120
0.49667	109
0.50033	98
0.50400	91
0.50767	90
0.51133	94
0.51500	96
0.51867	92
0.52233	81
0.52600	69
0.52967	57
0.53333	41
0.53700	24
0.54067	8
0.54433	-2
0.54800	-2
0.55167	4
0.55533	9
0.55900	10
0.56267	7
0.56633	3
0.57000	0
0.57367	-4
0.57733	-8
0.58100	-11
0.58467	-12
0.58833	-11
0.59200	-4
0.59567	1
0.59933	1
0.60300	0
0.60667	-2
0.61033	1
0.61400	7
0.61767	10
0.62133	4
0.62500	-6
0.62867	-16
0.63233	-24
0.63600	-29
0.63967	-30
0.64333	-32
0.64700	-36
0.65067	-40
0.65433	-41
0.65800	-39
0.66167	-34
0.66533	-27
0.66900	-23
0.67267	-22
0.67633	-22
0.68000	-20
0.68367	-18
0.68733	-19
0.69100	-20
0.69467	-19
0.69833	-16
0.70200	-15
0.70567	-18
0.70933	-23
0.71300	-27
0.71667	-31
0.72033	-33
0.72400	-31
0.72767	-30
0.73133	-29
0.73500	-24
0.73867	-21
0.74233	-19
0.74600	-18
0.74967	-18
0.75333	-20
0.75700	-23
0.76067	-24
0.76433	-22
0.76800	-20
0.77167	-21
0.77533	-25
0.77900	-27
0.78267	-26
0.78633	-25
0.79000	-26
0.79367	-27
0.79733	-25
0.80100	-22
0.80467	-23
0.80833	-27
0.81200	-35
0.81567	-43
0.81933	-48
0.82300	-51
0.82667	-51
0.83033	-48
0.83400	-44
0.83767	-42
0.84133	-39
0.84500	-36
0.84867	-30
0.85233	-25
0.85600	-23
0.85967	-22
0.86333	-21
0.86700	-23
0.87067	-29
0.87433	-34
0.87800	-37
0.88167	-42
0.88533	-45
0.88900	-46
0.89267	-45
0.89633	-41
0.90000	-37
0.90367	-32
0.90733	-26
0.91100	-21
0.91467	-17
0.91833	-14
0.92200	-13
0.92567	-14
0.92933	-16
0.93300	-18
0.93667	-20
0.94033	-20
0.94400	-20
0.94767	-23
0.95133	-30
0.95500	-42
0.95867	-55
0.96233	-66
0.96600	-73
0.96967	-78
0.97333	-78
0.97700	-70
0.98067	-60
0.98433	-52
0.98800	-44
0.99167	-36
0.99533	-31
0.99900	-32
1.00267	-39
1.00633	-48
1.01000	-56
1.01367	-62
1.01733	-70
1.02100	-75
1.02467	-71
1.02833	-63
1.03200	-56
1.03567	-55
1.03933	-59
1.04300	-59
1.04667	-54
1.05033	-47
1.05400	-40
1.05767	-37
1.06133	-37
1.06500	-40
1.06867	-43
1.07233	-43
1.07600	-40
1.07967	-39
1.08333	-38
1.08700	-40
1.09067	-45
1.09433	-52
1.09800	-62
1.10167	-70
1.10533	-74
1.10900	-75
1.11267	-74
1.11633	-72
1.12000	-66
1.12367	-60
1.12733	-57
1.13100	-56
1.13467	-56
1.13833	-53
1.14200	-47
1.14567	-42
1.14933	-40
1.15300	-38
1.15667	-37
1.16033	-40
1.16400	-45
1.16767	-51
1.17133	-58
1.17500	-65
1.17867	-71
1.18233	-76
1.18600	-79
1.18967	-79
1.19333	-75
1.19700	-70
1.20067	-66
1.20433	-66
1.20800	-65
1.21167	-62
1.21533	-57
1.21900	-53
1.22267	-54
1.22633	-60
1.23000	-65
1.23367	-68
1.23733	-73
1.24100	-75
1.24467	-71
1.24833	-64
1.25200	-54
1.25567	-48
1.25933	-45
1.26300	-47
1.26667	-53
1.27033	-60
1.27400	-68
1.27767	-75
1.28133	-81
1.28500	-82
1.28867	-79
1.29233	-70
1.29600	-60
1.29967	-55
1.30333	-57
1.30700	-61
1.31067	-65
1.31433	-63
1.31800	-60
1.32167	-62
1.32533	-71
1.32900	-81
1.33267	-90
1.33633	-95
1.34000	-94
1.34367	-87
1.34733	-70
1.35100	-50
1.35467	-41
1.35833	-48
1.36200	-62
1.36567	-77
1.36933	-90
1.37300	-99
1.37667	-107
1.38033	-108
1.38400	-102
1.38767	-91
1.39133	-80
1.39500	-71
1.39867	-66
1.40233	-70
1.40600	-80
1.40967	-85
1.41333	-84
1.41700	-84
1.42067	-87
1.42433	-90
1.42800	-92
1.43167	-92
1.43533	-88
1.43900	-73
1.44267	-14
1.44633	122
1.45000	282
1.45367	405
1.45733	477
1.46100	512
1.46467	532
1.46833	549
1.47200	569
1.47567	593
1.47933	618
1.48300	631
1.48667	620
1.49033	581
1.49400	521
1.49767	450
1.50133	375
1.50500	306
1.50867	252
1.51233	210
1.51600	174
1.51967	140
1.52333	107
1.52700	75
1.53067	45
1.53433	28
1.53800	70
1.54167	326
1.54533	1089
1.54900	2549
1.55267	4523
1.55633	6579
1.56000	8356
1.56367	9680
1.56733	10455
1.57100	10549
1.57467	9859
1.57833	8493
1.58200	6776
1.58567	5067
1.58933	3605
1.59300	2469
1.59667	1644
1.60033	1073
1.60400	693
1.60767	442
1.61133	278
1.61500	172
1.61867	105
1.62233	63
1.62600	35
1.62967	12
1.63333	-10
1.63700	-28
1.64067	-38
1.64433	-42
1.64800	-44
1.65167	-44
1.65533	-44
1.65900	-44
1.66267	-41
1.66633	-38
1.67000	-36
1.67367	-33
1.67733	-31
1.68100	-29
1.68467	-31
1.68833	-36
1.69200	-43
1.69567	-51
1.69933	-56
1.70300	-59
1.70667	-60
1.71033	-60
1.71400	-60
1.71767	-56
1.72133	-49
1.72500	-44
1.72867	-40
1.73233	-36
1.73600	-32
1.73967	-31
1.74333	-33
1.74700	-37
1.75067	-44
1.75433	-51
1.75800	-54
1.76167	-53
1.76533	-51
1.76900	-52
1.77267	-56
1.77633	-60
1.78000	-60
1.78367	-60
1.78733	-59
1.79100	-58
1.79467	-54
1.79833	-48
1.80200	-43
1.80567	-38
1.80933	-36
1.81300	-36
1.81667	-41
1.82033	-46
1.82400	-50
1.82767	-57
1.83133	-65
1.83500	-74
1.83867	-81
1.84233	-84
1.84600	-80
1.84967	-76
1.85333	-71
1.85700	-64
1.86067	-54
1.86433	-47
1.86800	-44
1.87167	-47
1.87533	-52
1.87900	-58
1.88267	-65
1.88633	-68
1.89000	-69
1.89367	-70
1.89733	-73
1.90100	-75
1.90467	-73
1.90833	-69
1.91200	-64
1.91567	-56
1.91933	-52
1.92300	-49
1.92667	-45
1.93033	-45
1.93400	-49
1.93767	-57
1.94133	-60
1.94500	-58
1.94867	-53
1.95233	-29
1.95600	112
1.95967	943
1.96333	4877
1.96700	18995
1.97067	57665
1.97433	139465
1.97800	274392
1.98167	451936
1.98533	643534
1.98900	815751
1.99267	941647
1.99633	1004484
2.00000	997404
2.00367	924964
2.00733	803691
2.01100	657529
2.01467	510394
2.01833	379720
2.02200	273856
2.02567	193659
2.02933	135726
2.03300	95208
2.03667	67438
2.04033	48607
2.04400	35870
2.04767	27213
2.05133	21267
2.05500	17116
2.05867	14155
2.06233	11988
2.06600	10361
2.06967	9107
2.07333	8119
2.07700	7325
2.08067	6670
2.08433	6121
2.08800	5661
2.09167	5271
2.09533	4929
2.09900	4620
2.10267	4341
2.10633	4089
2.11000	3861
2.11367	3656
2.11733	3470
2.12100	3301
2.12467	3149
2.12833	3015
2.13200	2892
2.13567	2777
2.13933	2668
2.14300	2563
2.14667	2464
2.15033	2368
2.15400	2277
2.15767	2195
2.16133	2118
2.16500	2044
2.16867	1977
2.17233	1913
2.17600	1850
2.17967	1788
2.18333	1732
2.18700	1682
2.19067	1634
2.19433	1589
2.19800	1546
2.20167	1509
2.20533	1474
2.20900	1441
2.21267	1410
2.21633	1380
2.22000	1349
2.22367	1317
2.22733	1288
2.23100	1262
2.23467	1237
2.23833	1212
2.24200	1185
2.24567	1154
2.24933	1119
2.25300	1084
2.25667	1053
2.26033	1028
2.26400	1008
2.26767	989
2.27133	971
2.27500	954
2.27867	937
2.28233	920
2.28600	901
2.28967	883
2.29333	868
2.29700	855
2.30067	840
2.30433	825
2.30800	812
2.31167	803
2.31533	798
2.31900	790
2.32267	780
2.32633	769
2.33000	757
2.33367	747
2.33733	734
2.34100	716
2.34467	698
2.34833	683
2.35200	671
2.35567	663
2.35933	656
2.36300	648
2.36667	642
2.37033	639
2.37400	637
2.37767	636
2.38133	636
2.38500	634
2.38867	627
2.39233	616
2.39600	602
2.39967	590
2.40333	578
2.40700	567
2.41067	556
2.41433	545
2.41800	533
2.42167	523
2.42533	517
2.42900	512
2.43267	510
2.43633	509
2.44000	508
2.44367	507
2.44733	505
2.45100	501
2.45467	501
2.45833	502
2.46200	503
2.46567	497
2.46933	489
2.47300	480
2.47667	473
2.48033	469
2.48400	463
2.48767	455
2.49133	448
2.49500	442
2.49867	438
2.50233	435
2.50600	433
2.50967	430
2.51333	428
2.51700	425
2.52067	419
2.52433	415
2.52800	408
2.53167	401
2.53533	398
2.53900	399
2.54267	400
2.54633	401
2.55000	400
2.55367	395
2.55733	391
2.56100	390
2.56467	389
2.56833	389
2.57200	390
2.57567	393
2.57933	395
2.58300	394
2.58667	390
2.59033	386
2.59400	383
2.59767	378
2.60133	369
2.60500	362
2.60867	359
2.61233	360
2.61600	361
2.61967	362
2.62333	362
2.62700	358
2.63067	350
2.63433	341
2.63800	336
2.64167	335
2.64533	333
2.64900	332
2.65267	331
2.65633	334
2.66000	336
2.66367	335
2.66733	333
2.67100	334
2.67467	338
2.67833	340
2.68200	340
2.68567	341
2.68933	344
2.69300	347
2.69667	347
2.70033	344
2.70400	338
2.70767	332
2.71133	327
2.71500	325
2.71867	324
2.72233	322
2.72600	323
2.72967	328
2.73333	330
2.73700	329
2.74067	328
2.74433	324
2.74800	319
2.75167	316
2.75533	313
2.75900	312
2.76267	312
2.76633	310
2.77000	308
2.77367	311
2.77733	317
2.78100	326
2.78467	335
2.78833	340
2.79200	339
2.79567	333
2.79933	322
2.80300	314
2.80667	312
2.81033	314
2.81400	316
2.81767	314
2.82133	311
2.82500	309
2.82867	310
2.83233	309
2.83600	307
2.83967	304
2.84333	304
2.84700	306
2.85067	308
2.85433	309
2.85800	310
2.86167	310
2.86533	313
2.86900	320
2.87267	327
2.87633	333
2.88000	336
2.88367	334
2.88733	327
2.89100	315
2.89467	302
2.89833	296
2.90200	297
2.90567	302
2.90933	306
2.91300	305
2.91667	305
2.92033	309
2.92400	317
2.92767	320
2.93133	319
2.93500	315
2.93867	311
2.94233	307
2.94600	303
2.94967	299
2.95333	297
2.95700	296
2.96067	299
2.96433	302
2.96800	307
2.97167	312
2.97533	314
2.97900	311
2.98267	307
2.98633	301
2.99000	297
2.99367	299
2.99733	302
3.00100	302
3.00467	298
3.00833	298
3.01200	300
3.01567	306
3.01933	314
3.02300	319
3.02667	317
3.03033	311
3.03400	305
3.03767	301
3.04133	300
3.04500	302
3.04867	302
3.05233	302
3.05600	302
3.05967	303
3.06333	306
3.06700	311
3.07067	319
3.07433	325
3.07800	326
3.08167	325
3.08533	320
3.08900	314
3.09267	313
3.09633	314
3.10000	314
3.10367	314
3.10733	316
3.11100	318
3.11467	320
3.11833	320
3.12200	315
3.12567	309
3.12933	303
3.13300	303
3.13667	304
3.14033	307
3.14400	310
3.14767	313
3.15133	312
3.15500	313
3.15867	317
3.16233	323
3.16600	328
3.16967	329
3.17333	324
3.17700	318
3.18067	314
3.18433	309
3.18800	304
3.19167	299
3.19533	296
3.19900	292
3.20267	289
3.20633	291
3.21000	296
3.21367	301
3.21733	305
3.22100	308
3.22467	309
3.22833	313
3.23200	316
3.23567	317
3.23933	317
3.24300	315
3.24667	312
3.25033	309
3.25400	306
3.25767	305
3.26133	305
3.26500	303
3.26867	301
3.27233	302
3.27600	308
3.27967	315
3.28333	318
3.28700	319
3.29067	321
3.29433	322
3.29800	319
3.30167	315
3.30533	311
3.30900	309
3.31267	309
3.31633	309
3.32000	308
3.32367	303
3.32733	299
3.33100	298
3.33467	298
3.33833	296
3.34200	290
3.34567	286
3.34933	284
3.35300	286
3.35667	288
3.36033	290
3.36400	292
3.36767	291
3.37133	290
3.37500	291
3.37867	296
3.38233	301
3.38600	303
3.38967	301
3.39333	298
3.39700	293
3.40067	288
3.40433	285
3.40800	288
3.41167	297
3.41533	306
3.41900	309
3.42267	306
3.42633	303
3.43000	303
3.43367	304
3.43733	301
3.44100	297
3.44467	291
3.44833	286
3.45200	282
3.45567	281
3.45933	283
3.46300	286
3.46667	291
3.47033	302
3.47400	311
3.47767	311
3.48133	304
3.48500	288
3.48867	270
3.49233	256
3.49600	250
3.49967	251
3.50333	257
3.50700	263
3.51067	269
3.51433	272
3.51800	274
3.52167	276
3.52533	277
3.52900	279
3.53267	279
3.53633	280
3.54000	281
3.54367	283
3.54733	286
3.55100	286
3.55467	289
3.55833	292
3.56200	294
3.56567	292
3.56933	287
3.57300	282
3.57667	277
3.58033	269
3.58400	263
3.58767	261
3.59133	265
3.59500	271
3.59867	277
3.60233	280
3.60600	279
3.60967	274
3.61333	267
3.61700	261
3.62067	258
3.62433	257
3.62800	262
3.63167	269
3.63533	273
3.63900	275
3.64267	274
3.64633	271
3.65000	269
3.65367	266
3.65733	262
3.66100	260
3.66467	259
3.66833	262
3.67200	270
3.67567	276
3.67933	278
3.68300	276
3.68667	273
3.69033	268
3.69400	263
3.69767	260
3.70133	259
3.70500	259
3.70867	259
3.71233	259
3.71600	258
3.71967	255
3.72333	253
3.72700	251
3.73067	251
3.73433	253
3.73800	256
3.74167	262
3.74533	265
3.74900	263
3.75267	257
3.75633	255
3.76000	258
3.76367	260
3.76733	259
3.77100	257
3.77467	255
3.77833	255
3.78200	255
3.78567	254
3.78933	249
3.79300	242
3.79667	237
3.80033	236
3.80400	240
3.80767	245
3.81133	247
3.81500	247
3.81867	247
3.82233	251
3.82600	257
3.82967	259
3.83333	257
3.83700	254
3.84067	251
3.84433	248
3.84800	244
3.85167	242
3.85533	240
3.85900	238
3.86267	236
3.86633	235
3.87000	235
3.87367	239
3.87733	245
3.88100	248
3.88467	252
3.88833	255
3.89200	255
3.89567	250
3.89933	239
3.90300	223
3.90667	211
3.91033	207
3.91400	208
3.91767	211
3.92133	216
3.92500	219
3.92867	221
3.93233	219
3.93600	221
3.93967	227
3.94333	233
3.94700	238
3.95067	239
3.95433	236
3.95800	232
3.96167	230
3.96533	230
3.96900	232
3.97267	234
3.97633	234
3.98000	234
3.98367	233
3.98733	229
3.99100	222
3.99467	216
3.99833	215

[Chromatogram (Ch2)]
Interval(msec)	220
# of Points	1091
Start Time(min)	0.002
End Time(min)	3.998
R.Time (min)	Intensity
0.00167	-1
0.00533	-1
0.00900	-1
0.01267	-1
0.01633	-1
0.02000	-1
0.02367	-1
0.02733	-0
0.03100	-0
0.03467	-0
0.03833	-0
0.04200	-0
0.04567	-0
0.04933	0
0.05300	0
0.05667	1
0.06033	1
0.06400	1
0.06767	1
0.07133	1
0.07500	1
0.07867	1
0.08233	1
0.08600	1
0.08967	1
0.09333	1
0.09700	1
0.10067	1
0.10433	1
0.10800	1
0.11167	1
0.11533	2
0.11900	2
0.12267	2
0.12633	2
0.13000	2
0.13367	2
0.13733	2
0.14100	1
0.14467	1
0.14833	1
0.15200	1
0.15567	1
0.15933	1
0.16300	1
0.16667	0
0.17033	-0
0.17400	-1
0.17767	-1
0.18133	-1
0.18500	-2
0.18867	-2
0.19233	-2
0.19600	-3
0.19967	-3
0.20333	-3
0.20700	-3
0.21067	-3
0.21433	-3
0.21800	-4
0.22167	-4
0.22533	-5
0.22900	-5
0.23267	-6
0.23633	-6
0.24000	-7
0.24367	-7
0.24733	-7
0.25100	-7
0.25467	-7
0.25833	-7
0.26200	-7
0.26567	-6
0.26933	-6
0.27300	-5
0.27667	-5
0.28033	-5
0.28400	-4
0.28767	-4
0.29133	-4
0.29500	-3
0.29867	-3
0.30233	-3
0.30600	-2
0.30967	-2
0.31333	-1
0.31700	-1
0.32067	-1
0.32433	-1
0.32800	-1
0.33167	-1
0.33533	-2
0.33900	-2
0.34267	-2
0.34633	-3
0.35000	-3
0.35367	-3
0.35733	-4
0.36100	-4
0.36467	-4
0.36833	-4
0.37200	-4
0.37567	-4
0.37933	-3
0.38300	-3
0.38667	-3
0.39033	-2
0.39400	-2
0.39767	-2
0.40133	-2
0.40500	-2
0.40867	-2
0.41233	-2
0.41600	-2
0.41967	-1
0.42333	-1
0.42700	-0
0.43067	0
0.43433	1
0.43800	1
0.44167	1
0.44533	1
0.44900	1
0.45267	1
0.45633	2
0.46000	2
0.46367	2
0.46733	2
0.47100	2
0.47467	2
0.47833	2
0.48200	2
0.48567	2
0.48933	2
0.49300	1
0.49667	1
0.50033	-0
0.50400	-1
0.50767	-1
0.51133	-2
0.51500	-2
0.51867	-2
0.52233	-2
0.52600	-3
0.52967	-3
0.53333	-3
0.53700	-3
0.54067	-4
0.54433	-4
0.54800	-4
0.55167	-4
0.55533	-4
0.55900	-4
0.56267	-4
0.56633	-4
0.57000	-5
0.57367	-5
0.57733	-5
0.58100	-5
0.58467	-4
0.58833	-4
0.59200	-4
0.59567	-4
0.59933	-4
0.60300	-4
0.60667	-4
0.61033	-4
0.61400	-4
0.61767	-4
0.62133	-4
0.62500	-4
0.62867	-3
0.63233	-3
0.63600	-3
0.63967	-3
0.64333	-3
0.64700	-2
0.65067	-2
0.65433	-2
0.65800	-1
0.66167	-1
0.66533	-1
0.66900	-1
0.67267	-1
0.67633	-1
0.68000	-1
0.68367	-1
0.68733	-2
0.69100	-2
0.69467	-3
0.69833	-3
0.70200	-3
0.70567	-4
0.70933	-4
0.71300	-4
0.71667	-5
0.72033	-5
0.72400	-5
0.72767	-5
0.73133	-5
0.73500	-5
0.73867	-5
0.74233	-5
0.74600	-6
0.74967	-6
0.75333	-5
0.75700	-5
0.76067	-5
0.76433	-4
0.76800	-4
0.77167	-3
0.77533	-3
0.77900	-2
0.78267	-1
0.78633	-1
0.79000	-0
0.79367	-0
0.79733	-0
0.80100	-0
0.80467	-0
0.80833	-0
0.81200	0
0.81567	0
0.81933	0
0.82300	0
0.82667	1
0.83033	1
0.83400	1
0.83767	1
0.84133	0
0.84500	0
0.84867	0
0.85233	-0
0.85600	-1
0.85967	-1
0.86333	-1
0.86700	-1
0.87067	-1
0.87433	-0
0.87800	0
0.88167	0
0.88533	0
0.88900	-0
0.89267	-0
0.89633	-0
0.90000	-0
0.90367	-0
0.90733	-0
0.91100	-1
0.91467	-0
0.91833	-0
0.92200	-0
0.92567	-0
0.92933	-0
0.93300	-0
0.93667	-0
0.94033	-1
0.94400	-1
0.94767	-1
0.95133	-2
0.95500	-2
0.95867	-3
0.96233	-3
0.96600	-3
0.96967	-3
0.97333	-3
0.97700	-2
0.98067	-2
0.98433	-2
0.98800	-2
0.99167	-2
0.99533	-1
0.99900	-1
1.00267	-1
1.00633	-1
1.01000	-1
1.01367	-1
1.01733	-1
1.02100	-1
1.02467	-2
1.02833	-2
1.03200	-2
1.03567	-2
1.03933	-2
1.04300	-2
1.04667	-2
1.05033	-2
1.05400	-2
1.05767	-2
1.06133	-2
1.06500	-2
1.06867	-2
1.07233	-1
1.07600	-1
1.07967	-1
1.08333	-1
1.08700	-1
1.09067	-0
1.09433	-0
1.09800	-0
1.10167	-0
1.10533	-1
1.10900	-1
1.11267	-2
1.11633	-2
1.12000	-2
1.12367	-3
1.12733	-3
1.13100	-3
1.13467	-3
1.13833	-3
1.14200	-3
1.14567	-4
1.14933	-4
1.15300	-4
1.15667	-5
1.16033	-5
1.16400	-6
1.16767	-6
1.17133	-6
1.17500	-6
1.17867	-6
1.18233	-6
1.18600	-6
1.18967	-6
1.19333	-5
1.19700	-5
1.20067	-5
1.20433	-5
1.20800	-5
1.21167	-5
1.21533	-5
1.21900	-4
1.22267	-4
1.22633	-4
1.23000	-4
1.23367	-4
1.23733	-4
1.24100	-4
1.24467	-4
1.24833	-4
1.25200	-4
1.25567	-3
1.25933	-4
1.26300	-4
1.26667	-4
1.27033	-4
1.27400	-4
1.27767	-4
1.28133	-4
1.28500	-4
1.28867	-4
1.29233	-4
1.29600	-3
1.29967	-2
1.30333	-1
1.30700	-1
1.31067	-1
1.31433	-0
1.31800	-0
1.32167	-0
1.32533	-0
1.32900	0
1.33267	1
1.33633	1
1.34000	1
1.34367	1
1.34733	2
1.35100	2
1.35467	2
1.35833	2
1.36200	2
1.36567	2
1.36933	2
1.37300	2
1.37667	1
1.38033	0
1.38400	-1
1.38767	-1
1.39133	-2
1.39500	-2
1.39867	-2
1.40233	-2
1.40600	-2
1.40967	-3
1.41333	-3
1.41700	-3
1.42067	-4
1.42433	-4
1.42800	-4
1.43167	-4
1.43533	-4
1.43900	-4
1.44267	-4
1.44633	-4
1.45000	-3
1.45367	-3
1.45733	-3
1.46100	-3
1.46467	-3
1.46833	-3
1.47200	-3
1.47567	-3
1.47933	-3
1.48300	-2
1.48667	-2
1.49033	-1
1.49400	-1
1.49767	-1
1.50133	-1
1.50500	-1
1.50867	-0
1.51233	-0
1.51600	0
1.51967	0
1.52333	-0
1.52700	-0
1.53067	-0
1.53433	-1
1.53800	-1
1.54167	-1
1.54533	-1
1.54900	-2
1.55267	-2
1.55633	-3
1.56000	-3
1.56367	-4
1.56733	-4
1.57100	-5
1.57467	-5
1.57833	-5
1.58200	-6
1.58567	-6
1.58933	-7
1.59300	-8
1.59667	-8
1.60033	-9
1.60400	-11
1.60767	-12
1.61133	-13
1.61500	-15
1.61867	-17
1.62233	-20
1.62600	-22
1.62967	-25
1.63333	-28
1.63700	-32
1.64067	-35
1.64433	-38
1.64800	-42
1.65167	-46
1.65533	-49
1.65900	-53
1.66267	-56
1.66633	-60
1.67000	-64
1.67367	-69
1.67733	-73
1.68100	-78
1.68467	-83
1.68833	-88
1.69200	-92
1.69567	-96
1.69933	-100
1.70300	-103
1.70667	-105
1.71033	-107
1.71400	-108
1.71767	-109
1.72133	-110
1.72500	-111
1.72867	-111
1.73233	-112
1.73600	-112
1.73967	-113
1.74333	-113
1.74700	-114
1.75067	-115
1.75433	-116
1.75800	-117
1.76167	-117
1.76533	-117
1.76900	-117
1.77267	-117
1.77633	-116
1.78000	-116
1.78367	-116
1.78733	-116
1.79100	-117
1.79467	-118
1.79833	-118
1.80200	-118
1.80567	-118
1.80933	-118
1.81300	-118
1.81667	-118
1.82033	-118
1.82400	-117
1.82767	-117
1.83133	-117
1.83500	-118
1.83867	-118
1.84233	-119
1.84600	-119
1.84967	-120
1.85333	-120
1.85700	-121
1.86067	-121
1.86433	-121
1.86800	-120
1.87167	-120
1.87533	-119
1.87900	-119
1.88267	-119
1.88633	-119
1.89000	-119
1.89367	-118
1.89733	-117
1.90100	-117
1.90467	-117
1.90833	-117
1.91200	-117
1.91567	-117
1.91933	-117
1.92300	-117
1.92667	-117
1.93033	-117
1.93400	-117
1.93767	-116
1.94133	-116
1.94500	-115
1.94867	-115
1.95233	-115
1.95600	-115
1.95967	-115
1.96333	-115
1.96700	-115
1.97067	-114
1.97433	-114
1.97800	-113
1.98167	-113
1.98533	-112
1.98900	-112
1.99267	-112
1.99633	-111
2.00000	-112
2.00367	-112
2.00733	-112
2.01100	-112
2.01467	-112
2.01833	-112
2.02200	-112
2.02567	-112
2.02933	-111
2.03300	-111
2.03667	-110
2.04033	-110
2.04400	-109
2.04767	-109
2.05133	-109
2.05500	-109
2.05867	-109
2.06233	-108
2.06600	-107
2.06967	-106
2.07333	-106
2.07700	-105
2.08067	-105
2.08433	-105
2.08800	-106
2.09167	-106
2.09533	-106
2.09900	-105
2.10267	-105
2.10633	-105
2.11000	-105
2.11367	-104
2.11733	-104
2.12100	-104
2.12467	-104
2.12833	-103
2.13200	-103
2.13567	-103
2.13933	-103
2.14300	-103
2.14667	-102
2.15033	-102
2.15400	-101
2.15767	-100
2.16133	-100
2.16500	-100
2.16867	-100
2.17233	-100
2.17600	-100
2.17967	-99
2.18333	-99
2.18700	-99
2.19067	-99
2.19433	-99
2.19800	-98
2.20167	-97
2.20533	-96
2.20900	-95
2.21267	-94
2.21633	-93
2.22000	-93
2.22367	-93
2.22733	-93
2.23100	-93
2.23467	-92
2.23833	-92
2.24200	-92
2.24567	-92
2.24933	-92
2.25300	-91
2.25667	-91
2.26033	-90
2.26400	-90
2.26767	-89
2.27133	-89
2.27500	-88
2.27867	-88
2.28233	-88
2.28600	-89
2.28967	-89
2.29333	-90
2.29700	-90
2.30067	-90
2.30433	-90
2.30800	-90
2.31167	-89
2.31533	-89
2.31900	-88
2.32267	-87
2.32633	-87
2.33000	-86
2.33367	-86
2.33733	-85
2.34100	-85
2.34467	-84
2.34833	-84
2.35200	-82
2.35567	-81
2.35933	-79
2.36300	-78
2.36667	-76
2.37033	-74
2.37400	-71
2.37767	-69
2.38133	-65
2.38500	-62
2.38867	-58
2.39233	-54
2.39600	-50
2.39967	-46
2.40333	-42
2.40700	-38
2.41067	-35
2.41433	-32
2.41800	-29
2.42167	-27
2.42533	-25
2.42900	-23
2.43267	-21
2.43633	-19
2.44000	-17
2.44367	-14
2.44733	-12
2.45100	-10
2.45467	-8
2.45833	-6
2.46200	-5
2.46567	-3
2.46933	-2
2.47300	-1
2.47667	-0
2.48033	0
2.48400	1
2.48767	1
2.49133	2
2.49500	3
2.49867	4
2.50233	5
2.50600	7
2.50967	7
2.51333	8
2.51700	8
2.52067	9
2.52433	9
2.52800	9
2.53167	9
2.53533	9
2.53900	9
2.54267	10
2.54633	10
2.55000	11
2.55367	11
2.55733	11
2.56100	12
2.56467	12
2.56833	12
2.57200	12
2.57567	12
2.57933	12
2.58300	13
2.58667	13
2.59033	13
2.59400	14
2.59767	14
2.60133	15
2.60500	16
2.60867	16
2.61233	17
2.61600	17
2.61967	17
2.62333	17
2.62700	17
2.63067	17
2.63433	17
2.63800	18
2.64167	18
2.64533	18
2.64900	18
2.65267	18
2.65633	19
2.66000	19
2.66367	19
2.66733	19
2.67100	19
2.67467	19
2.67833	19
2.68200	19
2.68567	19
2.68933	19
2.69300	20
2.69667	20
2.70033	20
2.70400	20
2.70767	20
2.71133	20
2.71500	20
2.71867	20
2.72233	20
2.72600	21
2.72967	21
2.73333	21
2.73700	21
2.74067	22
2.74433	22
2.74800	23
2.75167	23
2.75533	23
2.75900	24
2.76267	24
2.76633	24
2.77000	24
2.77367	25
2.77733	25
2.78100	25
2.78467	25
2.78833	25
2.79200	25
2.79567	25
2.79933	24
2.80300	24
2.80667	23
2.81033	22
2.81400	22
2.81767	21
2.82133	21
2.82500	21
2.82867	21
2.83233	21
2.83600	20
2.83967	18
2.84333	14
2.84700	9
2.85067	0
2.85433	-12
2.85800	-29
2.86167	-50
2.86533	-76
2.86900	-108
2.87267	-145
2.87633	-188
2.88000	-236
2.88367	-289
2.88733	-346
2.89100	-408
2.89467	-474
2.89833	-544
2.90200	-617
2.90567	-693
2.90933	-771
2.91300	-852
2.91667	-936
2.92033	-1022
2.92400	-1110
2.92767	-1199
2.93133	-1290
2.93500	-1381
2.93867	-1466
2.94233	-1531
2.94600	-1565
2.94967	-1564
2.95333	-1527
2.95700	-1460
2.96067	-1370
2.96433	-1266
2.96800	-1155
2.97167	-1041
2.97533	-930
2.97900	-825
2.98267	-726
2.98633	-635
2.99000	-554
2.99367	-480
2.99733	-415
3.00100	-358
3.00467	-307
3.00833	-264
3.01200	-226
3.01567	-193
3.01933	-165
3.02300	-140
3.02667	-119
3.03033	-101
3.03400	-86
3.03767	-73
3.04133	-62
3.04500	-52
3.04867	-44
3.05233	-37
3.05600	-31
3.05967	-25
3.06333	-21
3.06700	-17
3.07067	-13
3.07433	-10
3.07800	-8
3.08167	-5
3.08533	-3
3.08900	-2
3.09267	-0
3.09633	1
3.10000	2
3.10367	4
3.10733	5
3.11100	6
3.11467	7
3.11833	7
3.12200	8
3.12567	9
3.12933	9
3.13300	9
3.13667	10
3.14033	10
3.14400	10
3.14767	10
3.15133	10
3.15500	10
3.15867	11
3.16233	11
3.16600	11
3.16967	12
3.17333	12
3.17700	12
3.18067	12
3.18433	12
3.18800	13
3.19167	13
3.19533	13
3.19900	13
3.20267	13
3.20633	13
3.21000	13
3.21367	14
3.21733	14
3.22100	15
3.22467	15
3.22833	16
3.23200	16
3.23567	17
3.23933	17
3.24300	17
3.24667	17
3.25033	17
3.25400	17
3.25767	17
3.26133	17
3.26500	18
3.26867	18
3.27233	18
3.27600	19
3.27967	19
3.28333	19
3.28700	19
3.29067	20
3.29433	20
3.29800	21
3.30167	21
3.30533	22
3.30900	22
3.31267	23
3.31633	23
3.32000	23
3.32367	23
3.32733	23
3.33100	23
3.33467	23
3.33833	23
3.34200	23
3.34567	23
3.34933	24
3.35300	24
3.35667	24
3.36033	24
3.36400	24
3.36767	24
3.37133	24
3.37500	24
3.37867	25
3.38233	25
3.38600	25
3.38967	25
3.39333	25
3.39700	25
3.40067	25
3.40433	25
3.40800	25
3.41167	25
3.41533	24
3.41900	24
3.42267	23
3.42633	23
3.43000	23
3.43367	22
3.43733	22
3.44100	22
3.44467	21
3.44833	21
3.45200	21
3.45567	21
3.45933	21
3.46300	21
3.46667	21
3.47033	21
3.47400	22
3.47767	22
3.48133	22
3.48500	22
3.48867	23
3.49233	23
3.49600	23
3.49967	23
3.50333	23
3.50700	24
3.51067	24
3.51433	24
3.51800	24
3.52167	24
3.52533	24
3.52900	24
3.53267	24
3.53633	24
3.54000	25
3.54367	25
3.54733	25
3.55100	25
3.55467	25
3.55833	25
3.56200	25
3.56567	25
3.56933	25
3.57300	24
3.57667	24
3.58033	24
3.58400	24
3.58767	24
3.59133	23
3.59500	23
3.59867	23
3.60233	23
3.60600	22
3.60967	22
3.61333	22
3.61700	22
3.62067	22
3.62433	22
3.62800	22
3.63167	22
3.63533	23
3.63900	23
3.64267	23
3.64633	23
3.65000	24
3.65367	24
3.65733	24
3.66100	24
3.66467	24
3.66833	24
3.67200	24
3.67567	24
3.67933	24
3.68300	24
3.68667	25
3.69033	25
3.69400	25
3.69767	24
3.70133	24
3.70500	24
3.70867	24
3.71233	25
3.71600	24
3.71967	24
3.72333	24
3.72700	23
3.73067	23
3.73433	23
3.73800	22
3.74167	22
3.74533	22
3.74900	22
3.75267	22
3.75633	22
3.76000	22
3.76367	22
3.76733	22
3.77100	22
3.77467	21
3.77833	21
3.78200	22
3.78567	22
3.78933	22
3.79300	22
3.79667	22
3.80033	23
3.80400	23
3.80767	23
3.81133	23
3.81500	23
3.81867	23
3.82233	23
3.82600	23
3.82967	23
3.83333	23
3.83700	23
3.84067	24
3.84433	24
3.84800	24
3.85167	24
3.85533	24
3.85900	24
3.86267	24
3.86633	24
3.87000	24
3.87367	24
3.87733	24
3.88100	25
3.88467	25
3.88833	25
3.89200	25
3.89567	25
3.89933	25
3.90300	25
3.90667	25
3.91033	25
3.91400	26
3.91767	26
3.92133	26
3.92500	26
3.92867	26
3.93233	26
3.93600	26
3.93967	26
3.94333	26
3.94700	26
3.95067	26
3.95433	26
3.95800	26
3.96167	26
3.96533	26
3.96900	26
3.97267	26
3.97633	25
3.98000	25
3.98367	25
3.98733	25
3.99100	25
3.99467	25
3.99833	24

[Chromatogram (Ch3)]
Interval(msec)	220
# of Points	1091
Start Time(min)	0.002
End Time(min)	3.998
R.Time (min)	Intensity
0.00167	-0
0.00533	1
0.00900	1
0.01267	-0
0.01633	-1
0.02000	0
0.02367	3
0.02733	5
0.03100	6
0.03467	6
0.03833	5
0.04200	5
0.04567	5
0.04933	8
0.05300	10
0.05667	10
0.06033	10
0.06400	9
0.06767	6
0.07133	3
0.07500	3
0.07867	3
0.08233	2
0.08600	1
0.08967	-1
0.09333	-1
0.09700	2
0.10067	1
0.10433	1
0.10800	2
0.11167	1
0.11533	-1
0.11900	1
0.12267	5
0.12633	6
0.13000	6
0.13367	8
0.13733	8
0.14100	7
0.14467	8
0.14833	10
0.15200	11
0.15567	9
0.15933	7
0.16300	5
0.16667	6
0.17033	6
0.17400	6
0.17767	6
0.18133	5
0.18500	3
0.18867	3
0.19233	4
0.19600	4
0.19967	3
0.20333	3
0.20700	5
0.21067	7
0.21433	9
0.21800	8
0.22167	6
0.22533	5
0.22900	5
0.23267	7
0.23633	8
0.24000	6
0.24367	3
0.24733	3
0.25100	5
0.25467	7
0.25833	7
0.26200	8
0.26567	8
0.26933	8
0.27300	9
0.27667	8
0.28033	8
0.28400	9
0.28767	8
0.29133	6
0.29500	6
0.29867	8
0.30233	9
0.30600	9
0.30967	9
0.31333	10
0.31700	10
0.32067	9
0.32433	8
0.32800	8
0.33167	10
0.33533	10
0.33900	7
0.34267	6
0.34633	8
0.35000	11
0.35367	13
0.35733	15
0.36100	14
0.36467	15
0.36833	17
0.37200	20
0.37567	22
0.37933	18
0.38300	16
0.38667	15
0.39033	15
0.39400	15
0.39767	14
0.40133	15
0.40500	17
0.40867	19
0.41233	19
0.41600	18
0.41967	19
0.42333	20
0.42700	22
0.43067	22
0.43433	21
0.43800	19
0.44167	17
0.44533	15
0.44900	13
0.45267	12
0.45633	11
0.46000	9
0.46367	11
0.46733	12
0.47100	14
0.47467	14
0.47833	13
0.48200	15
0.48567	17
0.48933	16
0.49300	14
0.49667	12
0.50033	11
0.50400	10
0.50767	10
0.51133	12
0.51500	13
0.51867	12
0.52233	12
0.52600	12
0.52967	11
0.53333	11
0.53700	12
0.54067	12
0.54433	13
0.54800	12
0.55167	13
0.55533	13
0.55900	14
0.56267	14
0.56633	15
0.57000	17
0.57367	17
0.57733	17
0.58100	16
0.58467	15
0.58833	13
0.59200	11
0.59567	9
0.59933	8
0.60300	10
0.60667	11
0.61033	10
0.61400	12
0.61767	14
0.62133	16
0.62500	16
0.62867	16
0.63233	16
0.63600	15
0.63967	15
0.64333	16
0.64700	15
0.65067	14
0.65433	14
0.65800	14
0.66167	13
0.66533	12
0.66900	12
0.67267	11
0.67633	11
0.68000	13
0.68367	16
0.68733	16
0.69100	15
0.69467	12
0.69833	10
0.70200	11
0.70567	11
0.70933	12
0.71300	14
0.71667	13
0.72033	12
0.72400	12
0.72767	14
0.73133	16
0.73500	18
0.73867	19
0.74233	20
0.74600	19
0.74967	19
0.75333	22
0.75700	24
0.76067	24
0.76433	26
0.76800	28
0.77167	28
0.77533	25
0.77900	25
0.78267	26
0.78633	26
0.79000	24
0.79367	23
0.79733	22
0.80100	25
0.80467	27
0.80833	26
0.81200	25
0.81567	23
0.81933	23
0.82300	24
0.82667	26
0.83033	27
0.83400	25
0.83767	24
0.84133	25
0.84500	25
0.84867	25
0.85233	27
0.85600	28
0.85967	28
0.86333	27
0.86700	24
0.87067	23
0.87433	22
0.87800	22
0.88167	21
0.88533	22
0.88900	24
0.89267	27
0.89633	28
0.90000	26
0.90367	25
0.90733	25
0.91100	25
0.91467	26
0.91833	26
0.92200	27
0.92567	28
0.92933	31
0.93300	31
0.93667	31
0.94033	32
0.94400	33
0.94767	31
0.95133	29
0.95500	30
0.95867	31
0.96233	29
0.96600	30
0.96967	32
0.97333	33
0.97700	34
0.98067	35
0.98433	34
0.98800	34
0.99167	32
0.99533	29
0.99900	28
1.00267	28
1.00633	27
1.01000	26
1.01367	29
1.01733	33
1.02100	34
1.02467	36
1.02833	38
1.03200	38
1.03567	34
1.03933	34
1.04300	35
1.04667	35
1.05033	35
1.05400	37
1.05767	38
1.06133	38
1.06500	36
1.06867	35
1.07233	35
1.07600	38
1.07967	37
1.08333	37
1.08700	39
1.09067	40
1.09433	40
1.09800	43
1.10167	45
1.10533	42
1.10900	38
1.11267	36
1.11633	35
1.12000	35
1.12367	35
1.12733	36
1.13100	36
1.13467	37
1.13833	37
1.14200	38
1.14567	39
1.14933	40
1.15300	39
1.15667	38
1.16033	37
1.16400	37
1.16767	41
1.17133	42
1.17500	43
1.17867	42
1.18233	43
1.18600	44
1.18967	44
1.19333	45
1.19700	46
1.20067	46
1.20433	45
1.20800	44
1.21167	43
1.21533	41
1.21900	39
1.22267	38
1.22633	38
1.23000	39
1.23367	40
1.23733	42
1.24100	42
1.24467	42
1.24833	42
1.25200	42
1.25567	44
1.25933	45
1.26300	43
1.26667	43
1.27033	44
1.27400	45
1.27767	42
1.28133	39
1.28500	37
1.28867	38
1.29233	39
1.29600	40
1.29967	42
1.30333	42
1.30700	42
1.31067	44
1.31433	47
1.31800	48
1.32167	49
1.32533	48
1.32900	47
1.33267	44
1.33633	45
1.34000	46
1.34367	46
1.34733	46
1.35100	45
1.35467	44
1.35833	45
1.36200	45
1.36567	45
1.36933	45
1.37300	42
1.37667	40
1.38033	41
1.38400	42
1.38767	41
1.39133	40
1.39500	38
1.39867	37
1.40233	37
1.40600	38
1.40967	39
1.41333	39
1.41700	39
1.42067	39
1.42433	42
1.42800	43
1.43167	43
1.43533	41
1.43900	43
1.44267	46
1.44633	47
1.45000	47
1.45367	44
1.45733	43
1.46100	45
1.46467	43
1.46833	41
1.47200	40
1.47567	39
1.47933	40
1.48300	44
1.48667	45
1.49033	47
1.49400	45
1.49767	43
1.50133	45
1.50500	45
1.50867	44
1.51233	45
1.51600	45
1.51967	44
1.52333	45
1.52700	47
1.53067	48
1.53433	46
1.53800	45
1.54167	47
1.54533	50
1.54900	51
1.55267	50
1.55633	50
1.56000	50
1.56367	51
1.56733	50
1.57100	50
1.57467	49
1.57833	47
1.58200	48
1.58567	48
1.58933	49
1.59300	49
1.59667	49
1.60033	50
1.60400	46
1.60767	46
1.61133	45
1.61500	45
1.61867	47
1.62233	47
1.62600	48
1.62967	49
1.63333	50
1.63700	51
1.64067	53
1.64433	53
1.64800	54
1.65167	52
1.65533	52
1.65900	52
1.66267	51
1.66633	49
1.67000	46
1.67367	45
1.67733	46
1.68100	47
1.68467	46
1.68833	48
1.69200	51
1.69567	55
1.69933	60
1.70300	62
1.70667	61
1.71033	59
1.71400	58
1.71767	59
1.72133	59
1.72500	57
1.72867	57
1.73233	56
1.73600	55
1.73967	56
1.74333	57
1.74700	59
1.75067	60
1.75433	61
1.75800	63
1.76167	62
1.76533	62
1.76900	61
1.77267	62
1.77633	63
1.78000	62
1.78367	58
1.78733	57
1.79100	56
1.79467	56
1.79833	56
1.80200	58
1.80567	61
1.80933	63
1.81300	64
1.81667	66
1.82033	68
1.82400	68
1.82767	66
1.83133	64
1.83500	64
1.83867	66
1.84233	69
1.84600	68
1.84967	69
1.85333	71
1.85700	74
1.86067	75
1.86433	75
1.86800	76
1.87167	78
1.87533	77
1.87900	76
1.88267	76
1.88633	76
1.89000	76
1.89367	76
1.89733	77
1.90100	79
1.90467	80
1.90833	80
1.91200	80
1.91567	80
1.91933	79
1.92300	79
1.92667	82
1.93033	83
1.93400	84
1.93767	84
1.94133	85
1.94500	86
1.94867	86
1.95233	84
1.95600	84
1.95967	84
1.96333	86
1.96700	88
1.97067	89
1.97433	86
1.97800	87
1.98167	90
1.98533	90
1.98900	89
1.99267	90
1.99633	91
2.00000	90
2.00367	89
2.00733	92
2.01100	95
2.01467	95
2.01833	96
2.02200	97
2.02567	100
2.02933	101
2.03300	100
2.03667	101
2.04033	100
2.04400	99
2.04767	100
2.05133	101
2.05500	105
2.05867	107
2.06233	107
2.06600	107
2.06967	109
2.07333	110
2.07700	111
2.08067	114
2.08433	116
2.08800	114
2.09167	112
2.09533	112
2.09900	114
2.10267	114
2.10633	115
2.11000	117
2.11367	119
2.11733	119
2.12100	119
2.12467	120
2.12833	119
2.13200	118
2.13567	119
2.13933	121
2.14300	123
2.14667	127
2.15033	128
2.15400	129
2.15767	129
2.16133	131
2.16500	130
2.16867	131
2.17233	131
2.17600	133
2.17967	134
2.18333	135
2.18700	137
2.19067	138
2.19433	138
2.19800	142
2.20167	146
2.20533	146
2.20900	144
2.21267	142
2.21633	143
2.22000	146
2.22367	146
2.22733	144
2.23100	142
2.23467	141
2.23833	139
2.24200	140
2.24567	145
2.24933	150
2.25300	153
2.25667	154
2.26033	154
2.26400	152
2.26767	149
2.27133	149
2.27500	150
2.27867	150
2.28233	150
2.28600	153
2.28967	157
2.29333	159
2.29700	163
2.30067	166
2.30433	167
2.30800	169
2.31167	171
2.31533	173
2.31900	171
2.32267	171
2.32633	172
2.33000	173
2.33367	174
2.33733	175
2.34100	178
2.34467	183
2.34833	184
2.35200	183
2.35567	184
2.35933	186
2.36300	190
2.36667	192
2.37033	191
2.37400	191
2.37767	192
2.38133	193
2.38500	195
2.38867	195
2.39233	196
2.39600	200
2.39967	201
2.40333	202
2.40700	204
2.41067	205
2.41433	208
2.41800	211
2.42167	212
2.42533	211
2.42900	212
2.43267	212
2.43633	215
2.44000	220
2.44367	245
2.44733	308
2.45100	375
2.45467	432
2.45833	471
2.46200	484
2.46567	477
2.46933	464
2.47300	454
2.47667	445
2.48033	437
2.48400	432
2.48767	426
2.49133	418
2.49500	406
2.49867	390
2.50233	374
2.50600	362
2.50967	352
2.51333	347
2.51700	341
2.52067	338
2.52433	338
2.52800	341
2.53167	348
2.53533	357
2.53900	364
2.54267	369
2.54633	371
2.55000	370
2.55367	370
2.55733	368
2.56100	363
2.56467	356
2.56833	349
2.57200	344
2.57567	338
2.57933	334
2.58300	330
2.58667	325
2.59033	320
2.59400	316
2.59767	307
2.60133	292
2.60500	270
2.60867	245
2.61233	218
2.61600	194
2.61967	170
2.62333	147
2.62700	127
2.63067	109
2.63433	96
2.63800	88
2.64167	85
2.64533	85
2.64900	87
2.65267	94
2.65633	103
2.66000	115
2.66367	128
2.66733	137
2.67100	145
2.67467	155
2.67833	166
2.68200	173
2.68567	181
2.68933	189
2.69300	201
2.69667	211
2.70033	218
2.70400	223
2.70767	229
2.71133	233
2.71500	236
2.71867	241
2.72233	245
2.72600	247
2.72967	252
2.73333	255
2.73700	256
2.74067	258
2.74433	260
2.74800	258
2.75167	257
2.75533	259
2.75900	260
2.76267	260
2.76633	261
2.77000	265
2.77367	268
2.77733	270
2.78100	268
2.78467	266
2.78833	266
2.79200	265
2.79567	266
2.79933	267
2.80300	269
2.80667	273
2.81033	280
2.81400	290
2.81767	316
2.82133	377
2.82500	504
2.82867	757
2.83233	1198
2.83600	1894
2.83967	2890
2.84333	4199
2.84700	5786
2.85067	7566
2.85433	9424
2.85800	11224
2.86167	12831
2.86533	14118
2.86900	15004
2.87267	15449
2.87633	15472
2.88000	15119
2.88367	14467
2.88733	13601
2.89100	12597
2.89467	11529
2.89833	10447
2.90200	9395
2.90567	8399
2.90933	7474
2.91300	6629
2.91667	5863
2.92033	5172
2.92400	4554
2.92767	4005
2.93133	3521
2.93500	3098
2.93867	2728
2.94233	2403
2.94600	2120
2.94967	1873
2.95333	1658
2.95700	1472
2.96067	1309
2.96433	1169
2.96800	1050
2.97167	947
2.97533	856
2.97900	777
2.98267	712
2.98633	658
2.99000	610
2.99367	567
2.99733	529
3.00100	497
3.00467	469
3.00833	444
3.01200	423
3.01567	407
3.01933	395
3.02300	387
3.02667	377
3.03033	366
3.03400	357
3.03767	349
3.04133	342
3.04500	334
3.04867	328
3.05233	321
3.05600	313
3.05967	309
3.06333	304
3.06700	300
3.07067	298
3.07433	296
3.07800	293
3.08167	293
3.08533	293
3.08900	291
3.09267	289
3.09633	287
3.10000	285
3.10367	282
3.10733	279
3.11100	278
3.11467	277
3.11833	275
3.12200	276
3.12567	276
3.12933	274
3.13300	271
3.13667	268
3.14033	267
3.14400	266
3.14767	264
3.15133	263
3.15500	263
3.15867	262
3.16233	261
3.16600	260
3.16967	262
3.17333	264
3.17700	263
3.18067	263
3.18433	260
3.18800	256
3.19167	252
3.19533	251
3.19900	249
3.20267	249
3.20633	250
3.21000	251
3.21367	252
3.21733	252
3.22100	251
3.22467	249
3.22833	250
3.23200	250
3.23567	249
3.23933	250
3.24300	252
3.24667	252
3.25033	251
3.25400	239
3.25767	227
3.26133	226
3.26500	242
3.26867	269
3.27233	299
3.27600	330
3.27967	361
3.28333	391
3.28700	420
3.29067	451
3.29433	484
3.29800	521
3.30167	556
3.30533	589
3.30900	618
3.31267	645
3.31633	668
3.32000	692
3.32367	714
3.32733	732
3.33100	748
3.33467	761
3.33833	771
3.34200	779
3.34567	786
3.34933	794
3.35300	801
3.35667	808
3.36033	811
3.36400	812
3.36767	815
3.37133	818
3.37500	822
3.37867	827
3.38233	833
3.38600	839
3.38967	843
3.39333	846
3.39700	849
3.40067	852
3.40433	857
3.40800	862
3.41167	867
3.41533	874
3.41900	879
3.42267	884
3.42633	891
3.43000	898
3.43367	905
3.43733	909
3.44100	910
3.44467	911
3.44833	914
3.45200	915
3.45567	914
3.45933	915
3.46300	916
3.46667	915
3.47033	912
3.47400	909
3.47767	905
3.48133	901
3.48500	897
3.48867	892
3.49233	888
3.49600	880
3.49967	873
3.50333	867
3.50700	860
3.51067	853
3.51433	845
3.51800	836
3.52167	830
3.52533	825
3.52900	818
3.53267	811
3.53633	802
3.54000	794
3.54367	789
3.54733	783
3.55100	779
3.55467	773
3.55833	767
3.56200	761
3.56567	754
3.56933	748
3.57300	741
3.57667	735
3.58033	731
3.58400	728
3.58767	725
3.59133	721
3.59500	717
3.59867	712
3.60233	707
3.60600	704
3.60967	701
3.61333	698
3.61700	696
3.62067	695
3.62433	692
3.62800	687
3.63167	683
3.63533	679
3.63900	677
3.64267	676
3.64633	675
3.65000	672
3.65367	669
3.65733	669
3.66100	665
3.66467	660
3.66833	656
3.67200	654
3.67567	653
3.67933	653
3.68300	652
3.68667	652
3.69033	651
3.69400	647
3.69767	644
3.70133	642
3.70500	641
3.70867	638
3.71233	636
3.71600	635
3.71967	634
3.72333	632
3.72700	629
3.73067	629
3.73433	630
3.73800	629
3.74167	628
3.74533	625
3.74900	621
3.75267	619
3.75633	617
3.76000	614
3.76367	611
3.76733	607
3.77100	602
3.77467	599
3.77833	597
3.78200	595
3.78567	595
3.78933	596
3.79300	596
3.79667	595
3.80033	593
3.80400	592
3.80767	592
3.81133	589
3.81500	587
3.81867	587
3.82233	586
3.82600	585
3.82967	585
3.83333	585
3.83700	584
3.84067	580
3.84433	576
3.84800	572
3.85167	568
3.85533	566
3.85900	566
3.86267	567
3.86633	567
3.87000	565
3.87367	564
3.87733	564
3.88100	564
3.88467	564
3.88833	563
3.89200	559
3.89567	557
3.89933	557
3.90300	557
3.90667	557
3.91033	553
3.91400	549
3.91767	545
3.92133	545
3.92500	544
3.92867	541
3.93233	539
3.93600	537
3.93967	536
3.94333	536
3.94700	538
3.95067	537
3.95433	537
3.95800	536
3.96167	537
3.96533	538
3.96900	538
3.97267	537
3.97633	537
3.98000	534
3.98367	532
3.98733	533
3.99100	532
3.99467	530
3.99833	528

[Status Trace (Column Oven Temperature)]
Interval(msec)	1000
# of Points	240
Start Time(min)	0.000
End Time(min)	3.984
Intensity Units	
Intensity Multiplier	1
R.Time (min)	Intensity
0.00045	35.01
0.01712	35.01
0.03378	35.01
0.05045	35.00
0.06712	34.99
0.08378	34.99
0.10045	34.99
0.11712	34.98
0.13378	34.97
0.15045	34.97
0.16712	34.98
0.18378	34.98
0.20045	34.98
0.21712	35.00
0.23378	35.02
0.25045	35.03
0.26712	35.05
0.28378	35.04
0.30045	35.03
0.31712	35.03
0.33378	35.03
0.35045	35.03
0.36712	35.04
0.38378	35.04
0.40045	35.03
0.41712	35.02
0.43378	35.00
0.45045	34.99
0.46712	34.98
0.48378	34.98
0.50045	35.00
0.51712	35.00
0.53378	35.01
0.55045	35.02
0.56712	35.03
0.58378	35.03
0.60045	35.04
0.61712	35.04
0.63378	35.04
0.65045	35.03
0.66712	35.01
0.68378	35.03
0.70045	35.04
0.71712	35.04
0.73378	35.04
0.75045	35.04
0.76712	35.04
0.78378	35.03
0.80045	35.02
0.81712	35.01
0.83378	35.00
0.85045	35.00
0.86712	35.00
0.88378	34.99
0.90045	34.98
0.91712	34.97
0.93378	34.98
0.95045	34.99
0.96712	35.01
0.98378	35.00
1.00045	35.00
1.01712	34.99
1.03378	34.98
1.05045	34.98
1.06712	34.97
1.08378	34.97
1.10045	34.97
1.11712	34.98
1.13378	34.99
1.15045	35.01
1.16712	35.02
1.18378	35.02
1.20045	35.03
1.21712	35.04
1.23378	35.04
1.25045	35.04
1.26712	35.05
1.28378	35.04
1.30045	35.02
1.31712	35.01
1.33378	35.00
1.35045	34.98
1.36712	34.97
1.38378	34.97
1.40045	34.98
1.41712	35.00
1.43378	35.00
1.45045	35.01
1.46712	35.01
1.48378	34.99
1.50045	34.97
1.51712	34.96
1.53378	34.96
1.55045	34.96
1.56712	34.98
1.58378	35.00
1.60045	35.05
1.61712	35.14
1.63378	35.30
1.65045	35.52
1.66712	35.80
1.68378	36.16
1.70045	36.53
1.71712	36.87
1.73378	37.20
1.75045	37.54
1.76712	37.85
1.78378	38.18
1.80045	38.52
1.81712	38.83
1.83378	39.17
1.85045	39.50
1.86712	39.83
1.88378	40.16
1.90045	40.48
1.91712	40.82
1.93378	41.14
1.95045	41.47
1.96712	41.79
1.98378	42.10
2.00045	42.44
2.01712	42.77
2.03378	43.09
2.05045	43.43
2.06712	43.73
2.08378	44.06
2.10045	44.39
2.11712	44.72
2.13378	45.08
2.15045	45.38
2.16712	45.70
2.18378	46.04
2.20045	46.37
2.21712	46.69
2.23378	47.03
2.25045	47.36
2.26712	47.66
2.28378	48.03
2.30045	48.39
2.31712	48.70
2.33378	49.03
2.35045	49.31
2.36712	49.56
2.38378	49.67
2.40045	49.69
2.41712	49.69
2.43378	49.70
2.45045	49.70
2.46712	49.69
2.48378	49.72
2.50045	49.71
2.51712	49.73
2.53378	49.76
2.55045	49.77
2.56712	49.79
2.58378	49.81
2.60045	49.81
2.61712	49.83
2.63378	49.83
2.65045	49.84
2.66712	49.84
2.68378	49.84
2.70045	49.86
2.71712	49.88
2.73378	49.88
2.75045	49.86
2.76712	49.86
2.78378	49.85
2.80045	49.86
2.81712	49.88
2.83378	49.90
2.85045	49.91
2.86712	49.92
2.88378	49.93
2.90045	49.94
2.91712	49.96
2.93378	49.96
2.95045	49.96
2.96712	49.95
2.98378	49.95
3.00045	49.96
3.01712	49.98
3.03378	49.99
3.05045	49.99
3.06712	50.00
3.08378	50.01
3.10045	50.01
3.11712	50.02
3.13378	50.03
3.15045	50.04
3.16712	50.05
3.18378	50.06
3.20045	50.08
3.21712	50.09
3.23378	50.09
3.25045	50.09
3.26712	50.10
3.28378	50.11
3.30045	50.09
3.31712	50.08
3.33378	50.07
3.35045	50.05
3.36712	50.05
3.38378	50.04
3.40045	50.04
3.41712	50.06
3.43378	50.07
3.45045	50.07
3.46712	50.09
3.48378	50.09
3.50045	50.09
3.51712	50.09
3.53378	50.08
3.55045	50.07
3.56712	50.07
3.58378	50.07
3.60045	50.08
3.61712	50.08
3.63378	50.08
3.65045	50.07
3.66712	50.07
3.68378	50.06
3.70045	50.06
3.71712	50.07
3.73378	50.07
3.75045	50.09
3.76712	50.10
3.78378	50.10
3.80045	50.09
3.81712	50.09
3.83378	50.08
3.85045	50.08
3.86712	50.08
3.88378	50.07
3.90045	50.06
3.91712	50.04
3.93378	50.03
3.95045	50.03
3.96712	50.01
3.98378	50.01

[Status Trace (Injection Unit Temperature)]
Interval(msec)	1000
# of Points	240
Start Time(min)	0.000
End Time(min)	3.984
Intensity Units	
Intensity Multiplier	1
R.Time (min)	Intensity
0.00045	99.98
0.01712	99.98
0.03378	99.98
0.05045	99.98
0.06712	99.98
0.08378	99.98
0.10045	99.98
0.11712	99.97
0.13378	99.98
0.15045	99.98
0.16712	99.98
0.18378	99.98
0.20045	99.99
0.21712	99.98
0.23378	99.98
0.25045	99.98
0.26712	99.98
0.28378	99.99
0.30045	99.98
0.31712	99.98
0.33378	99.98
0.35045	99.98
0.36712	99.99
0.38378	99.99
0.40045	99.98
0.41712	99.98
0.43378	99.98
0.45045	99.98
0.46712	99.98
0.48378	99.98
0.50045	99.98
0.51712	99.98
0.53378	99.98
0.55045	99.98
0.56712	99.98
0.58378	99.98
0.60045	99.98
0.61712	99.98
0.63378	99.98
0.65045	99.98
0.66712	99.98
0.68378	99.98
0.70045	99.97
0.71712	99.98
0.73378	99.98
0.75045	99.98
0.76712	99.98
0.78378	99.98
0.80045	99.98
0.81712	99.98
0.83378	99.98
0.85045	99.98
0.86712	99.98
0.88378	99.97
0.90045	99.98
0.91712	99.97
0.93378	99.98
0.95045	99.98
0.96712	99.98
0.98378	99.98
1.00045	99.98
1.01712	99.98
1.03378	99.98
1.05045	99.98
1.06712	99.98
1.08378	99.98
1.10045	99.98
1.11712	99.98
1.13378	99.99
1.15045	99.99
1.16712	99.99
1.18378	99.98
1.20045	99.99
1.21712	99.98
1.23378	99.98
1.25045	99.98
1.26712	99.99
1.28378	99.98
1.30045	99.98
1.31712	99.98
1.33378	99.98
1.35045	99.98
1.36712	99.98
1.38378	99.98
1.40045	99.98
1.41712	99.98
1.43378	99.99
1.45045	99.98
1.46712	99.99
1.48378	99.99
1.50045	99.98
1.51712	99.98
1.53378	99.99
1.55045	99.99
1.56712	99.98
1.58378	99.99
1.60045	99.98
1.61712	99.98
1.63378	99.99
1.65045	99.99
1.66712	99.98
1.68378	99.98
1.70045	99.99
1.71712	99.98
1.73378	99.98
1.75045	99.98
1.76712	99.98
1.78378	99.98
1.80045	99.98
1.81712	99.98
1.83378	99.98
1.85045	99.98
1.86712	99.98
1.88378	99.98
1.90045	99.98
1.91712	99.98
1.93378	99.98
1.95045	99.98
1.96712	99.97
1.98378	99.97
2.00045	99.97
2.01712	99.98
2.03378	99.97
2.05045	99.97
2.06712	99.98
2.08378	99.97
2.10045	99.96
2.11712	99.97
2.13378	99.97
2.15045	99.96
2.16712	99.97
2.18378	99.97
2.20045	99.97
2.21712	99.97
2.23378	99.96
2.25045	99.97
2.26712	99.96
2.28378	99.96
2.30045	99.96
2.31712	99.96
2.33378	99.97
2.35045	99.96
2.36712	99.97
2.38378	99.97
2.40045	99.96
2.41712	99.97
2.43378	99.97
2.45045	99.97
2.46712	99.97
2.48378	99.97
2.50045	99.97
2.51712	99.97
2.53378	99.97
2.55045	99.97
2.56712	99.97
2.58378	99.98
2.60045	99.98
2.61712	99.97
2.63378	99.98
2.65045	99.97
2.66712	99.98
2.68378	99.98
2.70045	99.98
2.71712	99.98
2.73378	99.99
2.75045	99.99
2.76712	99.99
2.78378	99.99
2.80045	99.99
2.81712	99.99
2.83378	99.99
2.85045	100.00
2.86712	100.00
2.88378	99.99
2.90045	100.00
2.91712	99.99
2.93378	100.01
2.95045	100.01
2.96712	100.01
2.98378	100.00
3.00045	100.00
3.01712	100.01
3.03378	100.01
3.05045	100.02
3.06712	100.01
3.08378	100.01
3.10045	100.02
3.11712	100.02
3.13378	100.01
3.15045	100.02
3.16712	100.02
3.18378	100.02
3.20045	100.02
3.21712	100.02
3.23378	100.03
3.25045	100.03
3.26712	100.03
3.28378	100.03
3.30045	100.03
3.31712	100.03
3.33378	100.03
3.35045	100.03
3.36712	100.03
3.38378	100.04
3.40045	100.03
3.41712	100.03
3.43378	100.04
3.45045	100.04
3.46712	100.04
3.48378	100.04
3.50045	100.04
3.51712	100.04
3.53378	100.04
3.55045	100.04
3.56712	100.04
3.58378	100.04
3.60045	100.05
3.61712	100.05
3.63378	100.05
3.65045	100.05
3.66712	100.05
3.68378	100.05
3.70045	100.05
3.71712	100.05
3.73378	100.05
3.75045	100.05
3.76712	100.05
3.78378	100.05
3.80045	100.05
3.81712	100.05
3.83378	100.05
3.85045	100.05
3.86712	100.05
3.88378	100.05
3.90045	100.05
3.91712	100.05
3.93378	100.05
3.95045	100.05
3.96712	100.05
3.98378	100.05

[Status Trace (Carrier Gas Pressure)]
Interval(msec)	1000
# of Points	240
Start Time(min)	0.000
End Time(min)	3.984
Intensity Units	
Intensity Multiplier	1
R.Time (min)	Intensity
0.00045	58.00
0.01712	56.67
0.03378	56.08
0.05045	58.30
0.06712	59.90
0.08378	58.39
0.10045	57.97
0.11712	58.00
0.13378	58.01
0.15045	58.01
0.16712	58.01
0.18378	58.00
0.20045	58.00
0.21712	58.00
0.23378	58.00
0.25045	58.00
0.26712	58.00
0.28378	58.00
0.30045	58.00
0.31712	58.00
0.33378	58.00
0.35045	58.00
0.36712	58.00
0.38378	58.00
0.40045	58.00
0.41712	58.00
0.43378	58.00
0.45045	58.00
0.46712	58.00
0.48378	58.00
0.50045	58.00
0.51712	58.00
0.53378	58.00
0.55045	58.00
0.56712	58.00
0.58378	58.00
0.60045	58.00
0.61712	58.00
0.63378	58.00
0.65045	58.00
0.66712	58.00
0.68378	58.00
0.70045	58.00
0.71712	58.00
0.73378	58.00
0.75045	58.00
0.76712	58.00
0.78378	58.00
0.80045	58.00
0.81712	58.00
0.83378	58.00
0.85045	58.00
0.86712	58.00
0.88378	58.00
0.90045	58.00
0.91712	58.00
0.93378	58.00
0.95045	58.00
0.96712	58.00
0.98378	58.00
1.00045	58.00
1.01712	58.00
1.03378	58.00
1.05045	58.00
1.06712	58.00
1.08378	58.00
1.10045	58.00
1.11712	58.00
1.13378	58.00
1.15045	58.00
1.16712	58.00
1.18378	58.00
1.20045	58.00
1.21712	58.00
1.23378	58.00
1.25045	58.00
1.26712	58.00
1.28378	58.00
1.30045	58.00
1.31712	58.00
1.33378	58.00
1.35045	58.00
1.36712	58.00
1.38378	58.00
1.40045	58.00
1.41712	58.00
1.43378	58.00
1.45045	58.00
1.46712	58.00
1.48378	58.00
1.50045	58.00
1.51712	58.00
1.53378	58.00
1.55045	58.00
1.56712	58.00
1.58378	58.00
1.60045	58.00
1.61712	58.00
1.63378	58.00
1.65045	58.00
1.66712	58.01
1.68378	58.01
1.70045	58.00
1.71712	58.00
1.73378	58.00
1.75045	58.00
1.76712	58.00
1.78378	58.00
1.80045	58.00
1.81712	58.00
1.83378	58.00
1.85045	58.00
1.86712	58.00
1.88378	58.00
1.90045	58.00
1.91712	58.00
1.93378	58.00
1.95045	58.00
1.96712	58.00
1.98378	58.00
2.00045	58.00
2.01712	58.00
2.03378	58.00
2.05045	58.00
2.06712	58.00
2.08378	58.00
2.10045	58.00
2.11712	58.00
2.13378	58.00
2.15045	58.00
2.16712	58.00
2.18378	58.00
2.20045	58.00
2.21712	58.00
2.23378	58.00
2.25045	58.00
2.26712	58.00
2.28378	58.00
2.30045	58.00
2.31712	58.00
2.33378	58.00
2.35045	58.00
2.36712	58.00
2.38378	57.99
2.40045	57.99
2.41712	58.00
2.43378	58.00
2.45045	58.00
2.46712	58.00
2.48378	58.00
2.50045	58.00
2.51712	57.99
2.53378	57.99
2.55045	58.00
2.56712	58.00
2.58378	58.00
2.60045	58.00
2.61712	58.00
2.63378	58.00
2.65045	58.00
2.66712	58.00
2.68378	58.00
2.70045	58.00
2.71712	58.00
2.73378	58.00
2.75045	58.00
2.76712	58.00
2.78378	58.00
2.80045	58.00
2.81712	58.00
2.83378	58.00
2.85045	58.00
2.86712	58.00
2.88378	58.00
2.90045	58.00
2.91712	58.00
2.93378	58.00
2.95045	58.00
2.96712	58.00
2.98378	58.00
3.00045	58.00
3.01712	58.00
3.03378	58.00
3.05045	58.00
3.06712	58.00
3.08378	58.00
3.10045	58.00
3.11712	58.00
3.13378	58.00
3.15045	58.00
3.16712	58.00
3.18378	58.00
3.20045	58.00
3.21712	58.00
3.23378	58.00
3.25045	58.00
3.26712	58.00
3.28378	58.00
3.30045	58.00
3.31712	58.00
3.33378	58.00
3.35045	58.00
3.36712	58.00
3.38378	58.00
3.40045	58.00
3.41712	58.00
3.43378	58.00
3.45045	58.00
3.46712	58.00
3.48378	58.00
3.50045	58.00
3.51712	58.00
3.53378	58.00
3.55045	58.00
3.56712	58.00
3.58378	58.00
3.60045	58.00
3.61712	58.00
3.63378	58.00
3.65045	58.00
3.66712	58.00
3.68378	58.00
3.70045	58.00
3.71712	58.00
3.73378	58.00
3.75045	58.00
3.76712	58.00
3.78378	58.00
3.80045	58.00
3.81712	58.00
3.83378	58.00
3.85045	58.00
3.86712	58.00
3.88378	58.00
3.90045	58.00
3.91712	58.00
3.93378	58.00
3.95045	58.00
3.96712	58.00
3.98378	58.00

[Status Trace (Carrier Gas Flow)]
Interval(msec)	1000
# of Points	240
Start Time(min)	0.000
End Time(min)	3.984
Intensity Units	
Intensity Multiplier	1
R.Time (min)	Intensity
0.00045	34.52
0.01712	33.72
0.03378	34.54
0.05045	34.54
0.06712	34.51
0.08378	34.52
0.10045	34.52
0.11712	34.52
0.13378	34.52
0.15045	34.52
0.16712	34.52
0.18378	34.51
0.20045	34.52
0.21712	34.52
0.23378	34.52
0.25045	34.52
0.26712	34.52
0.28378	34.52
0.30045	34.52
0.31712	34.52
0.33378	34.51
0.35045	34.52
0.36712	34.52
0.38378	34.52
0.40045	34.52
0.41712	34.52
0.43378	34.52
0.45045	34.52
0.46712	34.52
0.48378	34.51
0.50045	34.52
0.51712	34.52
0.53378	34.52
0.55045	34.52
0.56712	34.52
0.58378	34.52
0.60045	34.52
0.61712	34.52
0.63378	34.52
0.65045	34.52
0.66712	34.52
0.68378	34.52
0.70045	34.52
0.71712	34.52
0.73378	34.52
0.75045	34.52
0.76712	34.52
0.78378	34.52
0.80045	34.51
0.81712	34.52
0.83378	34.52
0.85045	34.52
0.86712	34.52
0.88378	34.52
0.90045	34.52
0.91712	34.52
0.93378	34.52
0.95045	34.52
0.96712	34.52
0.98378	34.52
1.00045	34.52
1.01712	34.52
1.03378	34.52
1.05045	34.52
1.06712	34.52
1.08378	34.52
1.10045	34.52
1.11712	34.51
1.13378	34.51
1.15045	34.52
1.16712	34.52
1.18378	34.52
1.20045	34.52
1.21712	34.52
1.23378	34.52
1.25045	34.52
1.26712	34.52
1.28378	34.52
1.30045	34.52
1.31712	34.51
1.33378	34.51
1.35045	34.51
1.36712	34.52
1.38378	34.52
1.40045	34.52
1.41712	34.53
1.43378	34.53
1.45045	34.53
1.46712	34.52
1.48378	34.51
1.50045	34.53
1.51712	34.51
1.53378	34.52
1.55045	34.52
1.56712	34.51
1.58378	34.53
1.60045	34.52
1.61712	34.52
1.63378	34.51
1.65045	34.53
1.66712	34.52
1.68378	34.52
1.70045	34.52
1.71712	34.52
1.73378	34.52
1.75045	34.52
1.76712	34.52
1.78378	34.52
1.80045	34.52
1.81712	34.52
1.83378	34.52
1.85045	34.53
1.86712	34.52
1.88378	34.52
1.90045	34.52
1.91712	34.52
1.93378	34.52
1.95045	34.52
1.96712	34.52
1.98378	34.52
2.00045	34.52
2.01712	34.52
2.03378	34.52
2.05045	34.52
2.06712	34.52
2.08378	34.52
2.10045	34.52
2.11712	34.52
2.13378	34.52
2.15045	34.52
2.16712	34.52
2.18378	34.52
2.20045	34.52
2.21712	34.53
2.23378	34.52
2.25045	34.52
2.26712	34.52
2.28378	34.52
2.30045	34.52
2.31712	34.52
2.33378	34.52
2.35045	34.52
2.36712	34.52
2.38378	34.52
2.40045	34.52
2.41712	34.52
2.43378	34.52
2.45045	34.52
2.46712	34.52
2.48378	34.52
2.50045	34.52
2.51712	34.52
2.53378	34.52
2.55045	34.52
2.56712	34.52
2.58378	34.52
2.60045	34.52
2.61712	34.52
2.63378	34.52
2.65045	34.52
2.66712	34.52
2.68378	34.52
2.70045	34.52
2.71712	34.52
2.73378	34.52
2.75045	34.52
2.76712	34.52
2.78378	34.52
2.80045	34.52
2.81712	34.52
2.83378	34.52
2.85045	34.52
2.86712	34.52
2.88378	34.52
2.90045	34.52
2.91712	34.52
2.93378	34.52
2.95045	34.52
2.96712	34.52
2.98378	34.52
3.00045	34.52
3.01712	34.52
3.03378	34.52
3.05045	34.52
3.06712	34.52
3.08378	34.52
3.10045	34.52
3.11712	34.52
3.13378	34.52
3.15045	34.52
3.16712	34.52
3.18378	34.52
3.20045	34.52
3.21712	34.52
3.23378	34.52
3.25045	34.52
3.26712	34.52
3.28378	34.52
3.30045	34.52
3.31712	34.52
3.33378	34.52
3.35045	34.51
3.36712	34.52
3.38378	34.52
3.40045	34.52
3.41712	34.52
3.43378	34.52
3.45045	34.52
3.46712	34.52
3.48378	34.52
3.50045	34.52
3.51712	34.52
3.53378	34.52
3.55045	34.52
3.56712	34.52
3.58378	34.52
3.60045	34.52
3.61712	34.52
3.63378	34.52
3.65045	34.52
3.66712	34.52
3.68378	34.52
3.70045	34.51
3.71712	34.52
3.73378	34.52
3.75045	34.52
3.76712	34.52
3.78378	34.52
3.80045	34.52
3.81712	34.52
3.83378	34.52
3.85045	34.52
3.86712	34.52
3.88378	34.52
3.90045	34.52
3.91712	34.52
3.93378	34.52
3.95045	34.52
3.96712	34.52
3.98378	34.52

[Status Trace (Column Flow)]
Interval(msec)	1000
# of Points	240
Start Time(min)	0.000
End Time(min)	3.984
Intensity Units	
Intensity Multiplier	1
R.Time (min)	Intensity
0.00045	5.57
0.01712	5.42
0.03378	5.35
0.05045	5.61
0.06712	5.80
0.08378	5.62
0.10045	5.57
0.11712	5.57
0.13378	5.57
0.15045	5.57
0.16712	5.57
0.18378	5.57
0.20045	5.57
0.21712	5.57
0.23378	5.57
0.25045	5.57
0.26712	5.57
0.28378	5.57
0.30045	5.57
0.31712	5.57
0.33378	5.57
0.35045	5.57
0.36712	5.57
0.38378	5.57
0.40045	5.57
0.41712	5.57
0.43378	5.57
0.45045	5.57
0.46712	5.57
0.48378	5.57
0.50045	5.57
0.51712	5.57
0.53378	5.57
0.55045	5.57
0.56712	5.57
0.58378	5.57
0.60045	5.57
0.61712	5.57
0.63378	5.57
0.65045	5.57
0.66712	5.57
0.68378	5.57
0.70045	5.57
0.71712	5.57
0.73378	5.57
0.75045	5.57
0.76712	5.57
0.78378	5.57
0.80045	5.57
0.81712	5.57
0.83378	5.57
0.85045	5.57
0.86712	5.57
0.88378	5.57
0.90045	5.57
0.91712	5.57
0.93378	5.57
0.95045	5.57
0.96712	5.57
0.98378	5.57
1.00045	5.57
1.01712	5.57
1.03378	5.57
1.05045	5.57
1.06712	5.57
1.08378	5.57
1.10045	5.57
1.11712	5.57
1.13378	5.57
1.15045	5.57
1.16712	5.57
1.18378	5.57
1.20045	5.57
1.21712	5.57
1.23378	5.57
1.25045	5.57
1.26712	5.57
1.28378	5.57
1.30045	5.57
1.31712	5.57
1.33378	5.57
1.35045	5.57
1.36712	5.57
1.38378	5.57
1.40045	5.57
1.41712	5.57
1.43378	5.57
1.45045	5.57
1.46712	5.57
1.48378	5.57
1.50045	5.57
1.51712	5.57
1.53378	5.57
1.55045	5.57
1.56712	5.57
1.58378	5.57
1.60045	5.57
1.61712	5.57
1.63378	5.56
1.65045	5.56
1.66712	5.55
1.68378	5.54
1.70045	5.53
1.71712	5.51
1.73378	5.50
1.75045	5.49
1.76712	5.48
1.78378	5.47
1.80045	5.46
1.81712	5.45
1.83378	5.44
1.85045	5.43
1.86712	5.42
1.88378	5.41
1.90045	5.40
1.91712	5.39
1.93378	5.38
1.95045	5.37
1.96712	5.36
1.98378	5.35
2.00045	5.34
2.01712	5.33
2.03378	5.32
2.05045	5.32
2.06712	5.31
2.08378	5.30
2.10045	5.29
2.11712	5.28
2.13378	5.27
2.15045	5.26
2.16712	5.25
2.18378	5.24
2.20045	5.23
2.21712	5.22
2.23378	5.21
2.25045	5.20
2.26712	5.19
2.28378	5.18
2.30045	5.17
2.31712	5.16
2.33378	5.15
2.35045	5.15
2.36712	5.14
2.38378	5.13
2.40045	5.13
2.41712	5.13
2.43378	5.13
2.45045	5.13
2.46712	5.13
2.48378	5.13
2.50045	5.13
2.51712	5.13
2.53378	5.13
2.55045	5.13
2.56712	5.13
2.58378	5.13
2.60045	5.13
2.61712	5.13
2.63378	5.13
2.65045	5.13
2.66712	5.13
2.68378	5.13
2.70045	5.13
2.71712	5.13
2.73378	5.13
2.75045	5.13
2.76712	5.13
2.78378	5.13
2.80045	5.13
2.81712	5.13
2.83378	5.13
2.85045	5.13
2.86712	5.13
2.88378	5.13
2.90045	5.13
2.91712	5.13
2.93378	5.13
2.95045	5.13
2.96712	5.13
2.98378	5.13
3.00045	5.13
3.01712	5.13
3.03378	5.13
3.05045	5.13
3.06712	5.13
3.08378	5.13
3.10045	5.12
3.11712	5.12
3.13378	5.12
3.15045	5.12
3.16712	5.12
3.18378	5.12
3.20045	5.12
3.21712	5.12
3.23378	5.12
3.25045	5.12
3.26712	5.12
3.28378	5.12
3.30045	5.12
3.31712	5.12
3.33378	5.12
3.35045	5.12
3.36712	5.12
3.38378	5.12
3.40045	5.12
3.41712	5.12
3.43378	5.12
3.45045	5.12
3.46712	5.12
3.48378	5.12
3.50045	5.12
3.51712	5.12
3.53378	5.12
3.55045	5.12
3.56712	5.12
3.58378	5.12
3.60045	5.12
3.61712	5.12
3.63378	5.12
3.65045	5.12
3.66712	5.12
3.68378	5.12
3.70045	5.12
3.71712	5.12
3.73378	5.12
3.75045	5.12
3.76712	5.12
3.78378	5.12
3.80045	5.12
3.81712	5.12
3.83378	5.12
3.85045	5.12
3.86712	5.12
3.88378	5.12
3.90045	5.12
3.91712	5.12
3.93378	5.12
3.95045	5.12
3.96712	5.13
3.98378	5.13

[Status Trace (Linear Velocity)]
Interval(msec)	1000
# of Points	240
Start Time(min)	0.000
End Time(min)	3.984
Intensity Units	
Intensity Multiplier	1
R.Time (min)	Intensity
0.00045	39.03
0.01712	38.15
0.03378	37.77
0.05045	39.23
0.06712	40.27
0.08378	39.28
0.10045	39.01
0.11712	39.03
0.13378	39.04
0.15045	39.04
0.16712	39.03
0.18378	39.03
0.20045	39.03
0.21712	39.03
0.23378	39.03
0.25045	39.03
0.26712	39.03
0.28378	39.03
0.30045	39.03
0.31712	39.03
0.33378	39.03
0.35045	39.03
0.36712	39.02
0.38378	39.02
0.40045	39.03
0.41712	39.03
0.43378	39.03
0.45045	39.03
0.46712	39.03
0.48378	39.03
0.50045	39.03
0.51712	39.03
0.53378	39.03
0.55045	39.03
0.56712	39.03
0.58378	39.03
0.60045	39.02
0.61712	39.02
0.63378	39.02
0.65045	39.03
0.66712	39.03
0.68378	39.03
0.70045	39.03
0.71712	39.02
0.73378	39.02
0.75045	39.02
0.76712	39.02
0.78378	39.03
0.80045	39.03
0.81712	39.03
0.83378	39.03
0.85045	39.03
0.86712	39.03
0.88378	39.03
0.90045	39.03
0.91712	39.03
0.93378	39.03
0.95045	39.03
0.96712	39.03
0.98378	39.03
1.00045	39.03
1.01712	39.03
1.03378	39.03
1.05045	39.03
1.06712	39.03
1.08378	39.03
1.10045	39.03
1.11712	39.03
1.13378	39.03
1.15045	39.03
1.16712	39.03
1.18378	39.03
1.20045	39.03
1.21712	39.02
1.23378	39.03
1.25045	39.02
1.26712	39.02
1.28378	39.03
1.30045	39.03
1.31712	39.03
1.33378	39.03
1.35045	39.03
1.36712	39.03
1.38378	39.03
1.40045	39.03
1.41712	39.03
1.43378	39.03
1.45045	39.03
1.46712	39.03
1.48378	39.03
1.50045	39.03
1.51712	39.03
1.53378	39.03
1.55045	39.03
1.56712	39.03
1.58378	39.03
1.60045	39.03
1.61712	39.02
1.63378	39.00
1.65045	38.98
1.66712	38.95
1.68378	38.92
1.70045	38.89
1.71712	38.85
1.73378	38.82
1.75045	38.79
1.76712	38.76
1.78378	38.73
1.80045	38.70
1.81712	38.66
1.83378	38.63
1.85045	38.60
1.86712	38.57
1.88378	38.54
1.90045	38.51
1.91712	38.48
1.93378	38.45
1.95045	38.42
1.96712	38.39
1.98378	38.36
2.00045	38.33
2.01712	38.30
2.03378	38.27
2.05045	38.24
2.06712	38.21
2.08378	38.18
2.10045	38.15
2.11712	38.12
2.13378	38.09
2.15045	38.06
2.16712	38.03
2.18378	38.00
2.20045	37.97
2.21712	37.94
2.23378	37.91
2.25045	37.88
2.26712	37.85
2.28378	37.82
2.30045	37.79
2.31712	37.76
2.33378	37.73
2.35045	37.71
2.36712	37.68
2.38378	37.67
2.40045	37.67
2.41712	37.67
2.43378	37.67
2.45045	37.67
2.46712	37.67
2.48378	37.67
2.50045	37.67
2.51712	37.66
2.53378	37.66
2.55045	37.66
2.56712	37.66
2.58378	37.66
2.60045	37.66
2.61712	37.66
2.63378	37.66
2.65045	37.66
2.66712	37.66
2.68378	37.66
2.70045	37.66
2.71712	37.66
2.73378	37.65
2.75045	37.66
2.76712	37.66
2.78378	37.66
2.80045	37.66
2.81712	37.65
2.83378	37.65
2.85045	37.65
2.86712	37.65
2.88378	37.65
2.90045	37.65
2.91712	37.65
2.93378	37.65
2.95045	37.65
2.96712	37.65
2.98378	37.65
3.00045	37.65
3.01712	37.65
3.03378	37.64
3.05045	37.64
3.06712	37.64
3.08378	37.64
3.10045	37.64
3.11712	37.64
3.13378	37.64
3.15045	37.64
3.16712	37.64
3.18378	37.64
3.20045	37.64
3.21712	37.64
3.23378	37.64
3.25045	37.64
3.26712	37.63
3.28378	37.63
3.30045	37.64
3.31712	37.64
3.33378	37.64
3.35045	37.64
3.36712	37.64
3.38378	37.64
3.40045	37.64
3.41712	37.64
3.43378	37.64
3.45045	37.64
3.46712	37.64
3.48378	37.64
3.50045	37.64
3.51712	37.64
3.53378	37.64
3.55045	37.64
3.56712	37.64
3.58378	37.64
3.60045	37.64
3.61712	37.64
3.63378	37.64
3.65045	37.64
3.66712	37.64
3.68378	37.64
3.70045	37.64
3.71712	37.64
3.73378	37.64
3.75045	37.64
3.76712	37.64
3.78378	37.64
3.80045	37.64
3.81712	37.64
3.83378	37.64
3.85045	37.64
3.86712	37.64
3.88378	37.64
3.90045	37.64
3.91712	37.64
3.93378	37.64
3.95045	37.64
3.96712	37.64
3.98378	37.64

