[Header]
Application Name	LabSolutions
Version	5.110
Data File Name	C:\Users\User\Desktop\GC Analyses\Jack\Nachusa Grasslands Sampling\T0 Timepoint July 12th\T0_07122022_043.gcd
Output Date	3/14/2023
Output Time	3:40:36 PM

[File Information]
Type	Data File
Generated	3/7/2023 6:30:58 PM
Generated by	System Administrator
Modified	3/7/2023 6:37:49 PM
Modified by	System Administrator

[Sample Information]
Operator Name	System Administrator
Acquired	3/7/2023 6:33:48 PM
Sample Type	0:Unknown
Level	0
Sample Name	043
Sample ID	043
ISTD Amount1	1
ISTD Amount2	1
ISTD Amount3	1
ISTD Amount4	1
ISTD Amount5	1
ISTD Amount6	1
ISTD Amount7	1
ISTD Amount8	1
ISTD Amount9	1
ISTD Amount10	1
ISTD Amount11	1
ISTD Amount12	1
ISTD Amount13	1
ISTD Amount14	1
ISTD Amount15	1
ISTD Amount16	1
ISTD Amount17	1
ISTD Amount18	1
ISTD Amount19	1
ISTD Amount20	1
ISTD Amount21	1
ISTD Amount22	1
ISTD Amount23	1
ISTD Amount24	1
ISTD Amount25	1
ISTD Amount26	1
ISTD Amount27	1
ISTD Amount28	1
ISTD Amount29	1
ISTD Amount30	1
ISTD Amount31	1
ISTD Amount32	1
Sample Amount	1
Dilution Factor	1
Vial#	42
Injection Volume	1
Injection Count	1
Bar Code	

[Original Files]
Data File	C:\Users\User\Desktop\GC Analyses\Jack\Nachusa Grasslands Sampling\T0 Timepoint July 12th\T0_07122022_043.gcd
Method File	C:\LabSolutions\Data\GHG_4min_2022\ghg3_togas_w_acet_4 min_new_int.gcm
Batch File	C:\LabSolutions\Data\AutoSamplerTesting\T0_07122022.gcb
Report Format File	c:\LabSolutions\System\DEFAULT.lsr

[File Description]


[Configuration]
Instrument Name	C0B7VH3-Instrument1
Instrument #	1
Line #	1
# of Detectors	3
Detector ID	DET#1	DET#2	DET#3
Detector Name	FID	PTCD	ECD
# of Channels	1	1	1

[Peak Table(Ch1)]
# of Peaks	3
Peak#	R.Time	I.Time	F.Time	Area	Height	A/H	Conc.	Mark	ID#	Name	k'	Plate #	Plate Ht.	Tailing	Resolution	Sep.Factor	Area Ratio	Height Ratio	Conc. %	Norm Conc.
1	1.476	1.435	1.538	23584	11058	2.133	166.502	   	1	CO	0.000	9282	16.160	1.322	0.000	0.000	0	0	32.260	32.260
2	1.567	1.538	1.626	4800	2337	2.054	92.804	 V 	2	CH4	0.062	10528	14.247	0.000	1.498	0.000	0	0	17.981	17.981
3	1.996	1.941	2.400	1023326	484358	2.113	256.827	   	3	CO2	0.353	17335	8.653	1.303	7.047	5.680	0	0	49.760	49.760

[Peak Table(Ch2)]
# of Peaks	0

[Peak Table(Ch3)]
# of Peaks	5
Peak#	R.Time	I.Time	F.Time	Area	Height	A/H	Conc.	Mark	ID#	Name	k'	Plate #	Plate Ht.	Tailing	Resolution	Sep.Factor	Area Ratio	Height Ratio	Conc. %	Norm Conc.
1	2.462	2.334	2.521	1380	352	3.917	0.000	   			0.000	6889	21.774	0.000	0.000	0.000	0	0	0.000	0.000
2	2.550	2.521	2.634	933	197	4.749	0.000	 V 			0.036	2612	57.420	0.000	0.553	0.000	0	0	0.000	0.000
3	2.689	2.653	2.759	191	54	3.516	0.000	   			0.092	12053	12.445	1.441	0.937	2.583	0	0	0.000	0.000
4	2.873	2.796	3.038	16917	4578	3.695	0.432	   	1	N2O	0.167	13660	10.981	1.600	1.868	1.806	0	0	100.000	100.000
5	3.217	3.041	3.995	14538	567	25.621	0.000	   	2	SF6	0.307	282	532.298	2.590	0.797	1.839	0	0	0.000	0.000

[Compound Results(Ch1)]
# of IDs	6
ID#	Name	R.Time	Area	Height	Conc.	Curve	3rd	2nd	1st	Constant	Area Ratio	Height Ratio	Conc. %	Norm Conc.
1	CO	1.476	23584	11058	166.502	Linear	0.000000e+00	0.000000e+00	1.416423e+002	0.000000e+00	0	0	32.260	32.260
2	CH4	1.567	4800	2337	92.804	Linear	0.000000e+00	0.000000e+00	5.171738e+001	0.000000e+00	0	0	17.981	17.981
3	CO2	1.996	1023326	484358	256.827	Linear	0.000000e+00	0.000000e+00	3.984494e+003	0.000000e+00	0	0	49.760	49.760
4	Ethylene	0.000	0	0	0.000	Linear	0.000000e+00	0.000000e+00	0.000000e+00	0.000000e+00	0	0	0.000	0.000
5	Acetylene	0.000	0	0	0.000	Linear	0.000000e+00	0.000000e+00	0.000000e+00	0.000000e+00	0	0	0.000	0.000
6	Ethane	0.000	0	0	0.000	Linear	0.000000e+00	0.000000e+00	0.000000e+00	0.000000e+00	0	0	0.000	0.000

[Compound Results(Ch2)]
# of IDs	5
ID#	Name	R.Time	Area	Height	Conc.	Curve	3rd	2nd	1st	Constant	Area Ratio	Height Ratio	Conc. %	Norm Conc.
1	Hydrogen	0.000	0	0	0.000	Linear	0.000000e+00	0.000000e+00	0.000000e+00	0.000000e+00	0	0	0.000	0.000
2	Oxygen	0.000	0	0	0.000	Linear	0.000000e+00	0.000000e+00	0.000000e+00	0.000000e+00	0	0	0.000	0.000
3	Nitrogen	0.000	0	0	0.000	Linear	0.000000e+00	0.000000e+00	0.000000e+00	0.000000e+00	0	0	0.000	0.000
4	Methane	0.000	0	0	0.000	Linear	0.000000e+00	0.000000e+00	0.000000e+00	0.000000e+00	0	0	0.000	0.000
5	Carbon Monoxide	0.000	0	0	0.000	Linear	0.000000e+00	0.000000e+00	0.000000e+00	0.000000e+00	0	0	0.000	0.000

[Compound Results(Ch3)]
# of IDs	2
ID#	Name	R.Time	Area	Height	Conc.	Curve	3rd	2nd	1st	Constant	Area Ratio	Height Ratio	Conc. %	Norm Conc.
1	N2O	2.873	16917	4578	0.432	Linear	0.000000e+00	0.000000e+00	3.915173e+004	0.000000e+00	0	0	100.000	100.000
2	SF6	3.217	14538	567	0.000	Linear	0.000000e+00	0.000000e+00	0.000000e+00	0.000000e+00	0	0	0.000	0.000

[Group Results(Ch1)]
# of Groups	0

[Group Results(Ch2)]
# of Groups	0

[Group Results(Ch3)]
# of Groups	0

[Chromatogram (Ch1)]
Interval(msec)	220
# of Points	1091
Start Time(min)	0.002
End Time(min)	3.998
R.Time (min)	Intensity
0.00167	-10
0.00533	-4
0.00900	-2
0.01267	-1
0.01633	0
0.02000	4
0.02367	9
0.02733	16
0.03100	23
0.03467	23
0.03833	18
0.04200	13
0.04567	15
0.04933	25
0.05300	37
0.05667	44
0.06033	48
0.06400	52
0.06767	56
0.07133	60
0.07500	62
0.07867	65
0.08233	68
0.08600	72
0.08967	77
0.09333	84
0.09700	90
0.10067	94
0.10433	100
0.10800	106
0.11167	111
0.11533	113
0.11900	111
0.12267	106
0.12633	101
0.13000	97
0.13367	96
0.13733	99
0.14100	104
0.14467	108
0.14833	103
0.15200	96
0.15567	89
0.15933	84
0.16300	83
0.16667	84
0.17033	80
0.17400	71
0.17767	59
0.18133	49
0.18500	42
0.18867	37
0.19233	33
0.19600	32
0.19967	29
0.20333	27
0.20700	24
0.21067	23
0.21433	22
0.21800	18
0.22167	12
0.22533	6
0.22900	2
0.23267	-1
0.23633	3
0.24000	10
0.24367	15
0.24733	16
0.25100	14
0.25467	8
0.25833	3
0.26200	2
0.26567	3
0.26933	6
0.27300	11
0.27667	15
0.28033	17
0.28400	18
0.28767	18
0.29133	14
0.29500	5
0.29867	-3
0.30233	-7
0.30600	-3
0.30967	6
0.31333	9
0.31700	7
0.32067	6
0.32433	5
0.32800	5
0.33167	5
0.33533	4
0.33900	4
0.34267	5
0.34633	9
0.35000	14
0.35367	15
0.35733	20
0.36100	28
0.36467	33
0.36833	30
0.37200	22
0.37567	14
0.37933	7
0.38300	-1
0.38667	-8
0.39033	-10
0.39400	-4
0.39767	2
0.40133	2
0.40500	-2
0.40867	-6
0.41233	-7
0.41600	-5
0.41967	-5
0.42333	-6
0.42700	-8
0.43067	-11
0.43433	-11
0.43800	-7
0.44167	-3
0.44533	-2
0.44900	-1
0.45267	-2
0.45633	-0
0.46000	5
0.46367	12
0.46733	21
0.47100	29
0.47467	37
0.47833	43
0.48200	41
0.48567	34
0.48933	25
0.49300	16
0.49667	7
0.50033	1
0.50400	-3
0.50767	-5
0.51133	-6
0.51500	-2
0.51867	4
0.52233	5
0.52600	5
0.52967	8
0.53333	12
0.53700	17
0.54067	17
0.54433	15
0.54800	11
0.55167	9
0.55533	10
0.55900	15
0.56267	20
0.56633	24
0.57000	26
0.57367	28
0.57733	26
0.58100	22
0.58467	17
0.58833	11
0.59200	4
0.59567	-1
0.59933	-1
0.60300	2
0.60667	9
0.61033	16
0.61400	23
0.61767	27
0.62133	28
0.62500	27
0.62867	24
0.63233	22
0.63600	22
0.63967	24
0.64333	26
0.64700	26
0.65067	24
0.65433	20
0.65800	17
0.66167	18
0.66533	19
0.66900	17
0.67267	19
0.67633	27
0.68000	38
0.68367	46
0.68733	46
0.69100	40
0.69467	33
0.69833	27
0.70200	25
0.70567	30
0.70933	37
0.71300	41
0.71667	40
0.72033	36
0.72400	27
0.72767	12
0.73133	-7
0.73500	-23
0.73867	-33
0.74233	-39
0.74600	-41
0.74967	-38
0.75333	-35
0.75700	-30
0.76067	-24
0.76433	-16
0.76800	-8
0.77167	-2
0.77533	1
0.77900	3
0.78267	9
0.78633	17
0.79000	25
0.79367	26
0.79733	25
0.80100	24
0.80467	24
0.80833	26
0.81200	26
0.81567	26
0.81933	26
0.82300	27
0.82667	28
0.83033	28
0.83400	29
0.83767	29
0.84133	24
0.84500	20
0.84867	19
0.85233	17
0.85600	13
0.85967	10
0.86333	11
0.86700	15
0.87067	19
0.87433	19
0.87800	15
0.88167	8
0.88533	0
0.88900	-7
0.89267	-8
0.89633	-7
0.90000	-5
0.90367	-1
0.90733	5
0.91100	9
0.91467	16
0.91833	26
0.92200	33
0.92567	34
0.92933	29
0.93300	21
0.93667	11
0.94033	2
0.94400	-2
0.94767	-1
0.95133	4
0.95500	8
0.95867	10
0.96233	8
0.96600	1
0.96967	-6
0.97333	-13
0.97700	-19
0.98067	-19
0.98433	-14
0.98800	-9
0.99167	-7
0.99533	-5
0.99900	-4
1.00267	-5
1.00633	-4
1.01000	-2
1.01367	1
1.01733	1
1.02100	-2
1.02467	-3
1.02833	-1
1.03200	1
1.03567	3
1.03933	5
1.04300	4
1.04667	1
1.05033	-4
1.05400	-11
1.05767	-17
1.06133	-21
1.06500	-23
1.06867	-25
1.07233	-27
1.07600	-26
1.07967	-20
1.08333	-11
1.08700	-0
1.09067	6
1.09433	5
1.09800	2
1.10167	2
1.10533	2
1.10900	2
1.11267	-2
1.11633	-9
1.12000	-17
1.12367	-24
1.12733	-24
1.13100	-22
1.13467	-20
1.13833	-17
1.14200	-17
1.14567	-17
1.14933	-16
1.15300	-11
1.15667	-5
1.16033	1
1.16400	3
1.16767	-2
1.17133	-11
1.17500	-22
1.17867	-34
1.18233	-42
1.18600	-46
1.18967	-45
1.19333	-44
1.19700	-43
1.20067	-41
1.20433	-39
1.20800	-37
1.21167	-32
1.21533	-24
1.21900	-20
1.22267	-19
1.22633	-20
1.23000	-23
1.23367	-27
1.23733	-28
1.24100	-28
1.24467	-29
1.24833	-29
1.25200	-28
1.25567	-26
1.25933	-22
1.26300	-18
1.26667	-18
1.27033	-20
1.27400	-20
1.27767	-17
1.28133	-11
1.28500	-8
1.28867	-8
1.29233	-13
1.29600	-22
1.29967	-31
1.30333	-34
1.30700	-29
1.31067	-19
1.31433	-12
1.31800	-11
1.32167	-14
1.32533	-20
1.32900	-29
1.33267	-39
1.33633	-44
1.34000	-46
1.34367	-48
1.34733	-52
1.35100	-56
1.35467	-56
1.35833	-52
1.36200	-49
1.36567	-50
1.36933	-51
1.37300	-51
1.37667	-50
1.38033	-52
1.38400	-56
1.38767	-59
1.39133	-58
1.39500	-55
1.39867	-51
1.40233	-48
1.40600	-47
1.40967	-43
1.41333	-39
1.41700	-35
1.42067	-33
1.42433	-34
1.42800	-34
1.43167	-33
1.43533	-29
1.43900	-11
1.44267	69
1.44633	272
1.45000	750
1.45367	1824
1.45733	3593
1.46100	5713
1.46467	7731
1.46833	9369
1.47200	10501
1.47567	11032
1.47933	10868
1.48300	9995
1.48667	8577
1.49033	6916
1.49400	5306
1.49767	3932
1.50133	2848
1.50500	2039
1.50867	1459
1.51233	1052
1.51600	768
1.51967	570
1.52333	433
1.52700	336
1.53067	267
1.53433	219
1.53800	197
1.54167	243
1.54533	419
1.54900	744
1.55267	1165
1.55633	1587
1.56000	1939
1.56367	2188
1.56733	2319
1.57100	2302
1.57467	2114
1.57833	1790
1.58200	1408
1.58567	1045
1.58933	741
1.59300	507
1.59667	337
1.60033	216
1.60400	132
1.60767	77
1.61133	42
1.61500	18
1.61867	5
1.62233	-5
1.62600	-13
1.62967	-16
1.63333	-18
1.63700	-18
1.64067	-16
1.64433	-16
1.64800	-17
1.65167	-18
1.65533	-18
1.65900	-16
1.66267	-15
1.66633	-16
1.67000	-15
1.67367	-11
1.67733	-6
1.68100	-6
1.68467	-11
1.68833	-18
1.69200	-24
1.69567	-27
1.69933	-31
1.70300	-38
1.70667	-44
1.71033	-50
1.71400	-53
1.71767	-55
1.72133	-55
1.72500	-52
1.72867	-48
1.73233	-45
1.73600	-43
1.73967	-41
1.74333	-41
1.74700	-39
1.75067	-35
1.75433	-28
1.75800	-24
1.76167	-25
1.76533	-30
1.76900	-36
1.77267	-40
1.77633	-43
1.78000	-48
1.78367	-53
1.78733	-57
1.79100	-58
1.79467	-56
1.79833	-53
1.80200	-49
1.80567	-45
1.80933	-43
1.81300	-40
1.81667	-37
1.82033	-35
1.82400	-34
1.82767	-31
1.83133	-29
1.83500	-28
1.83867	-29
1.84233	-29
1.84600	-28
1.84967	-25
1.85333	-21
1.85700	-18
1.86067	-17
1.86433	-16
1.86800	-16
1.87167	-19
1.87533	-27
1.87900	-35
1.88267	-41
1.88633	-44
1.89000	-46
1.89367	-49
1.89733	-48
1.90100	-44
1.90467	-38
1.90833	-35
1.91200	-34
1.91567	-32
1.91933	-32
1.92300	-32
1.92667	-28
1.93033	-25
1.93400	-27
1.93767	-26
1.94133	-19
1.94500	-9
1.94867	-1
1.95233	17
1.95600	113
1.95967	638
1.96333	2955
1.96700	10768
1.97067	30951
1.97433	71585
1.97800	136566
1.98167	220895
1.98533	311721
1.98900	393960
1.99267	454555
1.99633	484383
2.00000	479406
2.00367	441879
2.00733	380613
2.01100	308296
2.01467	237035
2.01833	174958
2.02200	125468
2.02567	88444
2.02933	61945
2.03300	43528
2.03667	30952
2.04033	22438
2.04400	16677
2.04767	12755
2.05133	10057
2.05500	8168
2.05867	6817
2.06233	5826
2.06600	5078
2.06967	4493
2.07333	4027
2.07700	3652
2.08067	3345
2.08433	3088
2.08800	2868
2.09167	2675
2.09533	2506
2.09900	2355
2.10267	2215
2.10633	2088
2.11000	1974
2.11367	1873
2.11733	1785
2.12100	1706
2.12467	1635
2.12833	1570
2.13200	1506
2.13567	1443
2.13933	1379
2.14300	1316
2.14667	1261
2.15033	1215
2.15400	1176
2.15767	1141
2.16133	1110
2.16500	1079
2.16867	1047
2.17233	1012
2.17600	978
2.17967	950
2.18333	927
2.18700	904
2.19067	881
2.19433	855
2.19800	829
2.20167	805
2.20533	783
2.20900	763
2.21267	746
2.21633	733
2.22000	719
2.22367	706
2.22733	690
2.23100	673
2.23467	662
2.23833	652
2.24200	640
2.24567	624
2.24933	609
2.25300	601
2.25667	600
2.26033	600
2.26400	595
2.26767	581
2.27133	559
2.27500	537
2.27867	517
2.28233	495
2.28600	474
2.28967	455
2.29333	445
2.29700	443
2.30067	445
2.30433	446
2.30800	447
2.31167	447
2.31533	443
2.31900	438
2.32267	433
2.32633	424
2.33000	412
2.33367	399
2.33733	388
2.34100	377
2.34467	369
2.34833	365
2.35200	365
2.35567	367
2.35933	368
2.36300	366
2.36667	362
2.37033	359
2.37400	357
2.37767	352
2.38133	345
2.38500	340
2.38867	337
2.39233	337
2.39600	339
2.39967	340
2.40333	337
2.40700	330
2.41067	324
2.41433	320
2.41800	320
2.42167	325
2.42533	333
2.42900	342
2.43267	345
2.43633	346
2.44000	345
2.44367	342
2.44733	339
2.45100	336
2.45467	334
2.45833	331
2.46200	328
2.46567	327
2.46933	329
2.47300	332
2.47667	334
2.48033	339
2.48400	347
2.48767	354
2.49133	355
2.49500	350
2.49867	340
2.50233	327
2.50600	315
2.50967	304
2.51333	300
2.51700	298
2.52067	299
2.52433	302
2.52800	302
2.53167	301
2.53533	299
2.53900	295
2.54267	290
2.54633	287
2.55000	286
2.55367	288
2.55733	286
2.56100	284
2.56467	285
2.56833	289
2.57200	292
2.57567	292
2.57933	288
2.58300	281
2.58667	275
2.59033	273
2.59400	274
2.59767	272
2.60133	270
2.60500	269
2.60867	270
2.61233	274
2.61600	280
2.61967	282
2.62333	282
2.62700	282
2.63067	282
2.63433	282
2.63800	283
2.64167	287
2.64533	286
2.64900	281
2.65267	273
2.65633	262
2.66000	253
2.66367	247
2.66733	244
2.67100	243
2.67467	243
2.67833	245
2.68200	245
2.68567	243
2.68933	243
2.69300	244
2.69667	244
2.70033	246
2.70400	247
2.70767	244
2.71133	239
2.71500	234
2.71867	231
2.72233	228
2.72600	226
2.72967	227
2.73333	229
2.73700	233
2.74067	236
2.74433	237
2.74800	239
2.75167	243
2.75533	245
2.75900	246
2.76267	246
2.76633	248
2.77000	249
2.77367	248
2.77733	247
2.78100	246
2.78467	246
2.78833	244
2.79200	242
2.79567	236
2.79933	227
2.80300	220
2.80667	218
2.81033	224
2.81400	230
2.81767	232
2.82133	230
2.82500	226
2.82867	224
2.83233	222
2.83600	224
2.83967	227
2.84333	228
2.84700	229
2.85067	229
2.85433	230
2.85800	230
2.86167	224
2.86533	218
2.86900	215
2.87267	212
2.87633	207
2.88000	203
2.88367	201
2.88733	199
2.89100	198
2.89467	200
2.89833	200
2.90200	205
2.90567	214
2.90933	224
2.91300	233
2.91667	233
2.92033	229
2.92400	222
2.92767	217
2.93133	213
2.93500	209
2.93867	209
2.94233	207
2.94600	204
2.94967	204
2.95333	205
2.95700	207
2.96067	208
2.96433	210
2.96800	211
2.97167	211
2.97533	210
2.97900	211
2.98267	212
2.98633	215
2.99000	218
2.99367	218
2.99733	215
3.00100	213
3.00467	213
3.00833	216
3.01200	221
3.01567	224
3.01933	222
3.02300	215
3.02667	207
3.03033	205
3.03400	207
3.03767	209
3.04133	212
3.04500	215
3.04867	209
3.05233	200
3.05600	193
3.05967	187
3.06333	181
3.06700	177
3.07067	172
3.07433	171
3.07800	173
3.08167	175
3.08533	177
3.08900	172
3.09267	165
3.09633	163
3.10000	165
3.10367	171
3.10733	177
3.11100	185
3.11467	192
3.11833	199
3.12200	204
3.12567	207
3.12933	209
3.13300	207
3.13667	205
3.14033	204
3.14400	205
3.14767	204
3.15133	201
3.15500	194
3.15867	186
3.16233	178
3.16600	177
3.16967	183
3.17333	189
3.17700	186
3.18067	172
3.18433	153
3.18800	132
3.19167	118
3.19533	111
3.19900	112
3.20267	116
3.20633	123
3.21000	131
3.21367	137
3.21733	141
3.22100	149
3.22467	160
3.22833	171
3.23200	177
3.23567	177
3.23933	174
3.24300	176
3.24667	180
3.25033	182
3.25400	183
3.25767	185
3.26133	184
3.26500	181
3.26867	180
3.27233	178
3.27600	176
3.27967	173
3.28333	174
3.28700	175
3.29067	174
3.29433	172
3.29800	171
3.30167	172
3.30533	174
3.30900	175
3.31267	173
3.31633	168
3.32000	162
3.32367	155
3.32733	147
3.33100	144
3.33467	145
3.33833	149
3.34200	151
3.34567	153
3.34933	154
3.35300	152
3.35667	153
3.36033	156
3.36400	160
3.36767	163
3.37133	164
3.37500	157
3.37867	148
3.38233	142
3.38600	144
3.38967	151
3.39333	160
3.39700	166
3.40067	164
3.40433	158
3.40800	149
3.41167	144
3.41533	146
3.41900	154
3.42267	160
3.42633	161
3.43000	158
3.43367	155
3.43733	155
3.44100	154
3.44467	151
3.44833	149
3.45200	147
3.45567	144
3.45933	144
3.46300	149
3.46667	153
3.47033	156
3.47400	161
3.47767	161
3.48133	154
3.48500	144
3.48867	135
3.49233	129
3.49600	126
3.49967	127
3.50333	128
3.50700	131
3.51067	133
3.51433	134
3.51800	133
3.52167	135
3.52533	137
3.52900	138
3.53267	138
3.53633	136
3.54000	132
3.54367	129
3.54733	129
3.55100	130
3.55467	128
3.55833	123
3.56200	121
3.56567	120
3.56933	119
3.57300	116
3.57667	115
3.58033	113
3.58400	112
3.58767	112
3.59133	114
3.59500	116
3.59867	120
3.60233	126
3.60600	134
3.60967	137
3.61333	134
3.61700	129
3.62067	124
3.62433	121
3.62800	122
3.63167	124
3.63533	124
3.63900	121
3.64267	115
3.64633	110
3.65000	103
3.65367	96
3.65733	90
3.66100	88
3.66467	89
3.66833	93
3.67200	97
3.67567	100
3.67933	102
3.68300	105
3.68667	109
3.69033	115
3.69400	119
3.69767	119
3.70133	116
3.70500	108
3.70867	98
3.71233	93
3.71600	90
3.71967	89
3.72333	89
3.72700	91
3.73067	92
3.73433	95
3.73800	97
3.74167	97
3.74533	99
3.74900	99
3.75267	96
3.75633	88
3.76000	79
3.76367	74
3.76733	70
3.77100	69
3.77467	70
3.77833	72
3.78200	75
3.78567	75
3.78933	73
3.79300	75
3.79667	79
3.80033	85
3.80400	89
3.80767	91
3.81133	93
3.81500	93
3.81867	92
3.82233	88
3.82600	85
3.82967	84
3.83333	82
3.83700	82
3.84067	85
3.84433	86
3.84800	83
3.85167	80
3.85533	78
3.85900	75
3.86267	72
3.86633	73
3.87000	78
3.87367	85
3.87733	91
3.88100	89
3.88467	83
3.88833	76
3.89200	71
3.89567	66
3.89933	63
3.90300	60
3.90667	59
3.91033	65
3.91400	69
3.91767	65
3.92133	59
3.92500	55
3.92867	52
3.93233	48
3.93600	48
3.93967	52
3.94333	55
3.94700	54
3.95067	49
3.95433	46
3.95800	47
3.96167	52
3.96533	58
3.96900	62
3.97267	62
3.97633	59
3.98000	55
3.98367	53
3.98733	54
3.99100	56
3.99467	59
3.99833	63

[Chromatogram (Ch2)]
Interval(msec)	220
# of Points	1091
Start Time(min)	0.002
End Time(min)	3.998
R.Time (min)	Intensity
0.00167	0
0.00533	0
0.00900	0
0.01267	0
0.01633	0
0.02000	0
0.02367	0
0.02733	-0
0.03100	-0
0.03467	-1
0.03833	-1
0.04200	-1
0.04567	-2
0.04933	-2
0.05300	-2
0.05667	-2
0.06033	-2
0.06400	-2
0.06767	-2
0.07133	-2
0.07500	-2
0.07867	-2
0.08233	-2
0.08600	-2
0.08967	-2
0.09333	-2
0.09700	-2
0.10067	-2
0.10433	-2
0.10800	-2
0.11167	-1
0.11533	-1
0.11900	-1
0.12267	-1
0.12633	-1
0.13000	-1
0.13367	-1
0.13733	-1
0.14100	-1
0.14467	-1
0.14833	-1
0.15200	-1
0.15567	-1
0.15933	-1
0.16300	-1
0.16667	-1
0.17033	-1
0.17400	-1
0.17767	-1
0.18133	-0
0.18500	-0
0.18867	-0
0.19233	-0
0.19600	-0
0.19967	-0
0.20333	-0
0.20700	-0
0.21067	-0
0.21433	-1
0.21800	-1
0.22167	-1
0.22533	-1
0.22900	-2
0.23267	-2
0.23633	-2
0.24000	-2
0.24367	-2
0.24733	-3
0.25100	-3
0.25467	-3
0.25833	-3
0.26200	-3
0.26567	-3
0.26933	-4
0.27300	-4
0.27667	-4
0.28033	-4
0.28400	-4
0.28767	-4
0.29133	-4
0.29500	-4
0.29867	-4
0.30233	-3
0.30600	-3
0.30967	-2
0.31333	-2
0.31700	-1
0.32067	-1
0.32433	-1
0.32800	-0
0.33167	-0
0.33533	-0
0.33900	0
0.34267	0
0.34633	0
0.35000	0
0.35367	0
0.35733	0
0.36100	1
0.36467	1
0.36833	1
0.37200	1
0.37567	1
0.37933	1
0.38300	1
0.38667	1
0.39033	1
0.39400	1
0.39767	1
0.40133	1
0.40500	0
0.40867	0
0.41233	-0
0.41600	-1
0.41967	-1
0.42333	-2
0.42700	-2
0.43067	-2
0.43433	-2
0.43800	-2
0.44167	-2
0.44533	-2
0.44900	-2
0.45267	-2
0.45633	-2
0.46000	-2
0.46367	-2
0.46733	-2
0.47100	-3
0.47467	-3
0.47833	-3
0.48200	-3
0.48567	-3
0.48933	-3
0.49300	-2
0.49667	-2
0.50033	-2
0.50400	-2
0.50767	-3
0.51133	-3
0.51500	-2
0.51867	-2
0.52233	-2
0.52600	-1
0.52967	-1
0.53333	-0
0.53700	0
0.54067	0
0.54433	1
0.54800	1
0.55167	1
0.55533	1
0.55900	1
0.56267	1
0.56633	1
0.57000	1
0.57367	2
0.57733	2
0.58100	2
0.58467	2
0.58833	2
0.59200	2
0.59567	1
0.59933	1
0.60300	0
0.60667	-0
0.61033	-0
0.61400	-1
0.61767	-1
0.62133	-1
0.62500	-1
0.62867	-1
0.63233	-2
0.63600	-2
0.63967	-2
0.64333	-3
0.64700	-3
0.65067	-3
0.65433	-3
0.65800	-4
0.66167	-4
0.66533	-4
0.66900	-5
0.67267	-5
0.67633	-5
0.68000	-5
0.68367	-5
0.68733	-5
0.69100	-5
0.69467	-5
0.69833	-5
0.70200	-5
0.70567	-5
0.70933	-5
0.71300	-4
0.71667	-4
0.72033	-4
0.72400	-3
0.72767	-3
0.73133	-3
0.73500	-3
0.73867	-2
0.74233	-2
0.74600	-2
0.74967	-2
0.75333	-2
0.75700	-2
0.76067	-2
0.76433	-2
0.76800	-2
0.77167	-2
0.77533	-2
0.77900	-2
0.78267	-2
0.78633	-2
0.79000	-3
0.79367	-3
0.79733	-3
0.80100	-3
0.80467	-4
0.80833	-4
0.81200	-4
0.81567	-4
0.81933	-4
0.82300	-4
0.82667	-4
0.83033	-4
0.83400	-4
0.83767	-4
0.84133	-4
0.84500	-3
0.84867	-3
0.85233	-3
0.85600	-2
0.85967	-2
0.86333	-2
0.86700	-2
0.87067	-1
0.87433	-1
0.87800	-1
0.88167	-1
0.88533	-1
0.88900	-1
0.89267	-1
0.89633	-1
0.90000	-2
0.90367	-2
0.90733	-2
0.91100	-1
0.91467	-1
0.91833	-1
0.92200	-1
0.92567	-1
0.92933	-2
0.93300	-2
0.93667	-2
0.94033	-2
0.94400	-2
0.94767	-3
0.95133	-3
0.95500	-3
0.95867	-3
0.96233	-3
0.96600	-3
0.96967	-3
0.97333	-3
0.97700	-3
0.98067	-4
0.98433	-4
0.98800	-4
0.99167	-4
0.99533	-4
0.99900	-4
1.00267	-4
1.00633	-4
1.01000	-4
1.01367	-4
1.01733	-4
1.02100	-4
1.02467	-4
1.02833	-4
1.03200	-4
1.03567	-4
1.03933	-4
1.04300	-4
1.04667	-4
1.05033	-3
1.05400	-3
1.05767	-3
1.06133	-2
1.06500	-2
1.06867	-2
1.07233	-2
1.07600	-2
1.07967	-2
1.08333	-2
1.08700	-2
1.09067	-2
1.09433	-2
1.09800	-2
1.10167	-2
1.10533	-2
1.10900	-3
1.11267	-3
1.11633	-3
1.12000	-3
1.12367	-3
1.12733	-3
1.13100	-4
1.13467	-4
1.13833	-4
1.14200	-4
1.14567	-4
1.14933	-4
1.15300	-4
1.15667	-4
1.16033	-5
1.16400	-4
1.16767	-4
1.17133	-4
1.17500	-4
1.17867	-4
1.18233	-4
1.18600	-3
1.18967	-3
1.19333	-3
1.19700	-3
1.20067	-3
1.20433	-3
1.20800	-3
1.21167	-3
1.21533	-3
1.21900	-4
1.22267	-4
1.22633	-4
1.23000	-4
1.23367	-4
1.23733	-4
1.24100	-4
1.24467	-4
1.24833	-4
1.25200	-4
1.25567	-3
1.25933	-3
1.26300	-3
1.26667	-3
1.27033	-3
1.27400	-3
1.27767	-3
1.28133	-3
1.28500	-3
1.28867	-3
1.29233	-3
1.29600	-3
1.29967	-3
1.30333	-3
1.30700	-3
1.31067	-3
1.31433	-4
1.31800	-4
1.32167	-4
1.32533	-4
1.32900	-4
1.33267	-4
1.33633	-4
1.34000	-4
1.34367	-4
1.34733	-5
1.35100	-5
1.35467	-5
1.35833	-5
1.36200	-5
1.36567	-5
1.36933	-5
1.37300	-6
1.37667	-6
1.38033	-6
1.38400	-6
1.38767	-6
1.39133	-5
1.39500	-5
1.39867	-4
1.40233	-4
1.40600	-4
1.40967	-4
1.41333	-3
1.41700	-3
1.42067	-4
1.42433	-4
1.42800	-4
1.43167	-4
1.43533	-4
1.43900	-4
1.44267	-4
1.44633	-4
1.45000	-4
1.45367	-4
1.45733	-4
1.46100	-4
1.46467	-4
1.46833	-4
1.47200	-4
1.47567	-4
1.47933	-4
1.48300	-4
1.48667	-4
1.49033	-5
1.49400	-5
1.49767	-5
1.50133	-5
1.50500	-5
1.50867	-5
1.51233	-4
1.51600	-4
1.51967	-4
1.52333	-4
1.52700	-4
1.53067	-4
1.53433	-4
1.53800	-4
1.54167	-4
1.54533	-4
1.54900	-4
1.55267	-4
1.55633	-5
1.56000	-5
1.56367	-5
1.56733	-5
1.57100	-5
1.57467	-5
1.57833	-5
1.58200	-6
1.58567	-6
1.58933	-6
1.59300	-6
1.59667	-6
1.60033	-7
1.60400	-8
1.60767	-9
1.61133	-11
1.61500	-13
1.61867	-15
1.62233	-18
1.62600	-21
1.62967	-24
1.63333	-27
1.63700	-30
1.64067	-34
1.64433	-38
1.64800	-41
1.65167	-45
1.65533	-49
1.65900	-53
1.66267	-57
1.66633	-61
1.67000	-66
1.67367	-71
1.67733	-76
1.68100	-81
1.68467	-86
1.68833	-91
1.69200	-95
1.69567	-99
1.69933	-102
1.70300	-104
1.70667	-106
1.71033	-107
1.71400	-108
1.71767	-109
1.72133	-109
1.72500	-109
1.72867	-110
1.73233	-111
1.73600	-112
1.73967	-112
1.74333	-113
1.74700	-113
1.75067	-114
1.75433	-114
1.75800	-114
1.76167	-115
1.76533	-115
1.76900	-115
1.77267	-116
1.77633	-116
1.78000	-117
1.78367	-117
1.78733	-118
1.79100	-119
1.79467	-119
1.79833	-120
1.80200	-120
1.80567	-121
1.80933	-121
1.81300	-121
1.81667	-121
1.82033	-121
1.82400	-121
1.82767	-121
1.83133	-121
1.83500	-121
1.83867	-122
1.84233	-122
1.84600	-122
1.84967	-122
1.85333	-122
1.85700	-122
1.86067	-121
1.86433	-120
1.86800	-120
1.87167	-120
1.87533	-120
1.87900	-119
1.88267	-119
1.88633	-119
1.89000	-118
1.89367	-118
1.89733	-118
1.90100	-118
1.90467	-117
1.90833	-116
1.91200	-116
1.91567	-115
1.91933	-114
1.92300	-114
1.92667	-113
1.93033	-113
1.93400	-112
1.93767	-112
1.94133	-113
1.94500	-113
1.94867	-114
1.95233	-115
1.95600	-115
1.95967	-115
1.96333	-115
1.96700	-115
1.97067	-115
1.97433	-115
1.97800	-115
1.98167	-115
1.98533	-115
1.98900	-115
1.99267	-114
1.99633	-114
2.00000	-113
2.00367	-112
2.00733	-112
2.01100	-111
2.01467	-111
2.01833	-110
2.02200	-110
2.02567	-110
2.02933	-110
2.03300	-110
2.03667	-109
2.04033	-109
2.04400	-109
2.04767	-108
2.05133	-108
2.05500	-107
2.05867	-107
2.06233	-107
2.06600	-107
2.06967	-107
2.07333	-107
2.07700	-107
2.08067	-107
2.08433	-107
2.08800	-107
2.09167	-106
2.09533	-106
2.09900	-105
2.10267	-104
2.10633	-104
2.11000	-104
2.11367	-103
2.11733	-103
2.12100	-102
2.12467	-102
2.12833	-101
2.13200	-101
2.13567	-101
2.13933	-102
2.14300	-102
2.14667	-102
2.15033	-101
2.15400	-101
2.15767	-100
2.16133	-100
2.16500	-99
2.16867	-99
2.17233	-98
2.17600	-98
2.17967	-99
2.18333	-99
2.18700	-99
2.19067	-99
2.19433	-99
2.19800	-98
2.20167	-97
2.20533	-96
2.20900	-95
2.21267	-94
2.21633	-94
2.22000	-94
2.22367	-95
2.22733	-95
2.23100	-94
2.23467	-93
2.23833	-93
2.24200	-92
2.24567	-92
2.24933	-93
2.25300	-93
2.25667	-94
2.26033	-95
2.26400	-96
2.26767	-96
2.27133	-97
2.27500	-97
2.27867	-97
2.28233	-95
2.28600	-94
2.28967	-93
2.29333	-91
2.29700	-90
2.30067	-89
2.30433	-89
2.30800	-88
2.31167	-88
2.31533	-88
2.31900	-88
2.32267	-87
2.32633	-87
2.33000	-86
2.33367	-85
2.33733	-85
2.34100	-84
2.34467	-84
2.34833	-83
2.35200	-81
2.35567	-80
2.35933	-80
2.36300	-78
2.36667	-77
2.37033	-76
2.37400	-74
2.37767	-71
2.38133	-67
2.38500	-64
2.38867	-60
2.39233	-56
2.39600	-52
2.39967	-48
2.40333	-43
2.40700	-39
2.41067	-36
2.41433	-32
2.41800	-29
2.42167	-27
2.42533	-24
2.42900	-22
2.43267	-20
2.43633	-18
2.44000	-16
2.44367	-15
2.44733	-13
2.45100	-11
2.45467	-9
2.45833	-7
2.46200	-5
2.46567	-4
2.46933	-2
2.47300	-1
2.47667	-0
2.48033	0
2.48400	1
2.48767	2
2.49133	2
2.49500	3
2.49867	3
2.50233	4
2.50600	4
2.50967	5
2.51333	6
2.51700	7
2.52067	8
2.52433	9
2.52800	9
2.53167	9
2.53533	9
2.53900	9
2.54267	10
2.54633	10
2.55000	10
2.55367	11
2.55733	11
2.56100	11
2.56467	11
2.56833	11
2.57200	11
2.57567	11
2.57933	11
2.58300	11
2.58667	11
2.59033	11
2.59400	11
2.59767	12
2.60133	12
2.60500	12
2.60867	13
2.61233	13
2.61600	14
2.61967	14
2.62333	14
2.62700	15
2.63067	15
2.63433	16
2.63800	16
2.64167	16
2.64533	17
2.64900	16
2.65267	16
2.65633	16
2.66000	15
2.66367	15
2.66733	15
2.67100	15
2.67467	16
2.67833	16
2.68200	16
2.68567	16
2.68933	17
2.69300	17
2.69667	18
2.70033	18
2.70400	19
2.70767	20
2.71133	20
2.71500	21
2.71867	22
2.72233	22
2.72600	22
2.72967	22
2.73333	22
2.73700	22
2.74067	22
2.74433	22
2.74800	22
2.75167	23
2.75533	23
2.75900	23
2.76267	23
2.76633	23
2.77000	24
2.77367	24
2.77733	24
2.78100	25
2.78467	25
2.78833	25
2.79200	25
2.79567	25
2.79933	24
2.80300	24
2.80667	23
2.81033	23
2.81400	22
2.81767	22
2.82133	22
2.82500	22
2.82867	22
2.83233	22
2.83600	21
2.83967	19
2.84333	17
2.84700	13
2.85067	6
2.85433	-4
2.85800	-17
2.86167	-34
2.86533	-55
2.86900	-80
2.87267	-109
2.87633	-142
2.88000	-180
2.88367	-220
2.88733	-264
2.89100	-310
2.89467	-359
2.89833	-410
2.90200	-463
2.90567	-516
2.90933	-569
2.91300	-623
2.91667	-676
2.92033	-729
2.92400	-781
2.92767	-832
2.93133	-885
2.93500	-942
2.93867	-1002
2.94233	-1057
2.94600	-1096
2.94967	-1111
2.95333	-1100
2.95700	-1064
2.96067	-1010
2.96433	-941
2.96800	-864
2.97167	-783
2.97533	-702
2.97900	-624
2.98267	-550
2.98633	-482
2.99000	-420
2.99367	-365
2.99733	-315
3.00100	-271
3.00467	-232
3.00833	-199
3.01200	-169
3.01567	-144
3.01933	-122
3.02300	-103
3.02667	-87
3.03033	-73
3.03400	-61
3.03767	-51
3.04133	-42
3.04500	-34
3.04867	-28
3.05233	-23
3.05600	-18
3.05967	-14
3.06333	-10
3.06700	-7
3.07067	-5
3.07433	-2
3.07800	-1
3.08167	1
3.08533	3
3.08900	4
3.09267	5
3.09633	6
3.10000	7
3.10367	8
3.10733	9
3.11100	9
3.11467	10
3.11833	11
3.12200	11
3.12567	12
3.12933	12
3.13300	12
3.13667	13
3.14033	13
3.14400	14
3.14767	14
3.15133	15
3.15500	15
3.15867	15
3.16233	16
3.16600	16
3.16967	16
3.17333	16
3.17700	16
3.18067	16
3.18433	16
3.18800	17
3.19167	17
3.19533	17
3.19900	17
3.20267	17
3.20633	17
3.21000	17
3.21367	17
3.21733	18
3.22100	18
3.22467	19
3.22833	19
3.23200	19
3.23567	19
3.23933	19
3.24300	19
3.24667	19
3.25033	19
3.25400	20
3.25767	20
3.26133	20
3.26500	20
3.26867	21
3.27233	21
3.27600	21
3.27967	22
3.28333	22
3.28700	22
3.29067	22
3.29433	23
3.29800	23
3.30167	23
3.30533	23
3.30900	23
3.31267	23
3.31633	23
3.32000	23
3.32367	23
3.32733	23
3.33100	23
3.33467	22
3.33833	22
3.34200	22
3.34567	22
3.34933	22
3.35300	23
3.35667	23
3.36033	23
3.36400	23
3.36767	23
3.37133	23
3.37500	23
3.37867	23
3.38233	24
3.38600	24
3.38967	24
3.39333	24
3.39700	24
3.40067	24
3.40433	24
3.40800	25
3.41167	25
3.41533	25
3.41900	25
3.42267	25
3.42633	25
3.43000	25
3.43367	25
3.43733	25
3.44100	25
3.44467	25
3.44833	25
3.45200	25
3.45567	25
3.45933	25
3.46300	25
3.46667	25
3.47033	25
3.47400	25
3.47767	25
3.48133	25
3.48500	25
3.48867	25
3.49233	25
3.49600	25
3.49967	25
3.50333	25
3.50700	25
3.51067	25
3.51433	25
3.51800	25
3.52167	25
3.52533	24
3.52900	24
3.53267	24
3.53633	23
3.54000	23
3.54367	23
3.54733	23
3.55100	22
3.55467	22
3.55833	22
3.56200	22
3.56567	22
3.56933	22
3.57300	22
3.57667	22
3.58033	22
3.58400	22
3.58767	22
3.59133	22
3.59500	23
3.59867	23
3.60233	23
3.60600	23
3.60967	23
3.61333	23
3.61700	23
3.62067	23
3.62433	23
3.62800	23
3.63167	23
3.63533	23
3.63900	24
3.64267	24
3.64633	24
3.65000	24
3.65367	24
3.65733	24
3.66100	24
3.66467	24
3.66833	24
3.67200	24
3.67567	24
3.67933	24
3.68300	24
3.68667	24
3.69033	24
3.69400	23
3.69767	23
3.70133	23
3.70500	23
3.70867	23
3.71233	23
3.71600	23
3.71967	23
3.72333	23
3.72700	23
3.73067	23
3.73433	23
3.73800	23
3.74167	23
3.74533	23
3.74900	23
3.75267	23
3.75633	23
3.76000	23
3.76367	23
3.76733	23
3.77100	23
3.77467	23
3.77833	23
3.78200	23
3.78567	23
3.78933	23
3.79300	23
3.79667	23
3.80033	24
3.80400	24
3.80767	24
3.81133	24
3.81500	24
3.81867	24
3.82233	24
3.82600	24
3.82967	24
3.83333	24
3.83700	23
3.84067	23
3.84433	23
3.84800	23
3.85167	22
3.85533	22
3.85900	22
3.86267	22
3.86633	22
3.87000	22
3.87367	22
3.87733	22
3.88100	22
3.88467	22
3.88833	22
3.89200	22
3.89567	22
3.89933	22
3.90300	22
3.90667	22
3.91033	22
3.91400	23
3.91767	23
3.92133	23
3.92500	23
3.92867	23
3.93233	23
3.93600	22
3.93967	22
3.94333	22
3.94700	23
3.95067	23
3.95433	23
3.95800	23
3.96167	24
3.96533	24
3.96900	24
3.97267	24
3.97633	24
3.98000	25
3.98367	25
3.98733	25
3.99100	25
3.99467	25
3.99833	24

[Chromatogram (Ch3)]
Interval(msec)	220
# of Points	1091
Start Time(min)	0.002
End Time(min)	3.998
R.Time (min)	Intensity
0.00167	0
0.00533	1
0.00900	1
0.01267	1
0.01633	-1
0.02000	-4
0.02367	-3
0.02733	-2
0.03100	-0
0.03467	2
0.03833	0
0.04200	-2
0.04567	-2
0.04933	-2
0.05300	-2
0.05667	-2
0.06033	-2
0.06400	-1
0.06767	-0
0.07133	0
0.07500	1
0.07867	3
0.08233	3
0.08600	2
0.08967	-0
0.09333	0
0.09700	-3
0.10067	-6
0.10433	-7
0.10800	-7
0.11167	-6
0.11533	-4
0.11900	-3
0.12267	-3
0.12633	-3
0.13000	-3
0.13367	-2
0.13733	-2
0.14100	-3
0.14467	-4
0.14833	-4
0.15200	-5
0.15567	-6
0.15933	-3
0.16300	-3
0.16667	-2
0.17033	-4
0.17400	-3
0.17767	-3
0.18133	-5
0.18500	-7
0.18867	-7
0.19233	-5
0.19600	-4
0.19967	-3
0.20333	-2
0.20700	-1
0.21067	-2
0.21433	-3
0.21800	-5
0.22167	-5
0.22533	-4
0.22900	-2
0.23267	-3
0.23633	-1
0.24000	-1
0.24367	-1
0.24733	2
0.25100	3
0.25467	1
0.25833	-2
0.26200	-3
0.26567	-4
0.26933	-4
0.27300	-5
0.27667	-6
0.28033	-6
0.28400	-7
0.28767	-7
0.29133	-5
0.29500	-2
0.29867	-3
0.30233	-4
0.30600	-6
0.30967	-8
0.31333	-7
0.31700	-4
0.32067	-3
0.32433	-5
0.32800	-5
0.33167	-5
0.33533	-3
0.33900	-0
0.34267	1
0.34633	3
0.35000	6
0.35367	6
0.35733	5
0.36100	2
0.36467	1
0.36833	3
0.37200	4
0.37567	1
0.37933	1
0.38300	2
0.38667	3
0.39033	5
0.39400	5
0.39767	5
0.40133	6
0.40500	5
0.40867	5
0.41233	4
0.41600	1
0.41967	1
0.42333	2
0.42700	1
0.43067	2
0.43433	2
0.43800	0
0.44167	-2
0.44533	-2
0.44900	0
0.45267	3
0.45633	3
0.46000	4
0.46367	4
0.46733	5
0.47100	6
0.47467	7
0.47833	7
0.48200	9
0.48567	10
0.48933	8
0.49300	6
0.49667	7
0.50033	9
0.50400	10
0.50767	8
0.51133	8
0.51500	11
0.51867	12
0.52233	13
0.52600	14
0.52967	15
0.53333	15
0.53700	14
0.54067	14
0.54433	11
0.54800	9
0.55167	9
0.55533	13
0.55900	15
0.56267	16
0.56633	16
0.57000	18
0.57367	17
0.57733	16
0.58100	14
0.58467	15
0.58833	15
0.59200	14
0.59567	16
0.59933	17
0.60300	18
0.60667	19
0.61033	16
0.61400	13
0.61767	13
0.62133	12
0.62500	12
0.62867	13
0.63233	14
0.63600	13
0.63967	14
0.64333	15
0.64700	14
0.65067	15
0.65433	17
0.65800	15
0.66167	13
0.66533	12
0.66900	13
0.67267	11
0.67633	11
0.68000	11
0.68367	9
0.68733	9
0.69100	10
0.69467	12
0.69833	12
0.70200	12
0.70567	12
0.70933	14
0.71300	16
0.71667	15
0.72033	13
0.72400	12
0.72767	14
0.73133	14
0.73500	15
0.73867	15
0.74233	13
0.74600	11
0.74967	12
0.75333	14
0.75700	18
0.76067	21
0.76433	22
0.76800	22
0.77167	19
0.77533	18
0.77900	18
0.78267	18
0.78633	20
0.79000	22
0.79367	22
0.79733	21
0.80100	19
0.80467	18
0.80833	19
0.81200	20
0.81567	18
0.81933	18
0.82300	20
0.82667	19
0.83033	18
0.83400	18
0.83767	20
0.84133	20
0.84500	21
0.84867	23
0.85233	24
0.85600	23
0.85967	22
0.86333	21
0.86700	18
0.87067	17
0.87433	15
0.87800	17
0.88167	20
0.88533	19
0.88900	18
0.89267	18
0.89633	21
0.90000	25
0.90367	26
0.90733	26
0.91100	26
0.91467	27
0.91833	27
0.92200	27
0.92567	25
0.92933	24
0.93300	24
0.93667	22
0.94033	19
0.94400	17
0.94767	15
0.95133	17
0.95500	19
0.95867	21
0.96233	22
0.96600	22
0.96967	22
0.97333	19
0.97700	20
0.98067	22
0.98433	24
0.98800	24
0.99167	27
0.99533	26
0.99900	26
1.00267	26
1.00633	24
1.01000	26
1.01367	28
1.01733	29
1.02100	28
1.02467	25
1.02833	25
1.03200	28
1.03567	28
1.03933	27
1.04300	26
1.04667	27
1.05033	27
1.05400	26
1.05767	24
1.06133	23
1.06500	26
1.06867	28
1.07233	27
1.07600	26
1.07967	24
1.08333	22
1.08700	22
1.09067	22
1.09433	24
1.09800	26
1.10167	28
1.10533	29
1.10900	30
1.11267	32
1.11633	34
1.12000	33
1.12367	31
1.12733	30
1.13100	29
1.13467	30
1.13833	30
1.14200	31
1.14567	32
1.14933	34
1.15300	34
1.15667	33
1.16033	31
1.16400	30
1.16767	28
1.17133	28
1.17500	29
1.17867	31
1.18233	34
1.18600	35
1.18967	35
1.19333	36
1.19700	37
1.20067	36
1.20433	35
1.20800	36
1.21167	35
1.21533	35
1.21900	36
1.22267	33
1.22633	32
1.23000	31
1.23367	33
1.23733	35
1.24100	34
1.24467	35
1.24833	34
1.25200	34
1.25567	32
1.25933	32
1.26300	32
1.26667	32
1.27033	33
1.27400	35
1.27767	34
1.28133	33
1.28500	33
1.28867	35
1.29233	36
1.29600	37
1.29967	39
1.30333	40
1.30700	40
1.31067	36
1.31433	33
1.31800	33
1.32167	33
1.32533	31
1.32900	32
1.33267	33
1.33633	33
1.34000	33
1.34367	34
1.34733	38
1.35100	39
1.35467	40
1.35833	41
1.36200	41
1.36567	41
1.36933	40
1.37300	39
1.37667	39
1.38033	40
1.38400	41
1.38767	41
1.39133	39
1.39500	37
1.39867	38
1.40233	38
1.40600	41
1.40967	45
1.41333	46
1.41700	46
1.42067	45
1.42433	43
1.42800	41
1.43167	38
1.43533	36
1.43900	37
1.44267	41
1.44633	43
1.45000	46
1.45367	47
1.45733	46
1.46100	45
1.46467	44
1.46833	42
1.47200	41
1.47567	39
1.47933	40
1.48300	41
1.48667	40
1.49033	41
1.49400	40
1.49767	40
1.50133	39
1.50500	39
1.50867	39
1.51233	40
1.51600	38
1.51967	36
1.52333	36
1.52700	38
1.53067	38
1.53433	36
1.53800	33
1.54167	32
1.54533	33
1.54900	34
1.55267	34
1.55633	33
1.56000	33
1.56367	34
1.56733	35
1.57100	34
1.57467	32
1.57833	31
1.58200	32
1.58567	33
1.58933	34
1.59300	34
1.59667	33
1.60033	36
1.60400	38
1.60767	38
1.61133	37
1.61500	36
1.61867	36
1.62233	37
1.62600	36
1.62967	36
1.63333	37
1.63700	38
1.64067	39
1.64433	37
1.64800	34
1.65167	34
1.65533	33
1.65900	32
1.66267	31
1.66633	30
1.67000	29
1.67367	30
1.67733	30
1.68100	29
1.68467	31
1.68833	31
1.69200	31
1.69567	29
1.69933	31
1.70300	34
1.70667	34
1.71033	36
1.71400	38
1.71767	40
1.72133	42
1.72500	44
1.72867	45
1.73233	47
1.73600	48
1.73967	47
1.74333	45
1.74700	44
1.75067	46
1.75433	47
1.75800	48
1.76167	46
1.76533	46
1.76900	47
1.77267	48
1.77633	50
1.78000	50
1.78367	47
1.78733	47
1.79100	44
1.79467	42
1.79833	42
1.80200	46
1.80567	49
1.80933	51
1.81300	52
1.81667	54
1.82033	56
1.82400	57
1.82767	57
1.83133	59
1.83500	60
1.83867	61
1.84233	62
1.84600	63
1.84967	63
1.85333	64
1.85700	63
1.86067	62
1.86433	62
1.86800	63
1.87167	64
1.87533	65
1.87900	66
1.88267	66
1.88633	65
1.89000	65
1.89367	65
1.89733	64
1.90100	61
1.90467	58
1.90833	60
1.91200	63
1.91567	64
1.91933	67
1.92300	67
1.92667	66
1.93033	65
1.93400	65
1.93767	67
1.94133	69
1.94500	69
1.94867	70
1.95233	72
1.95600	73
1.95967	73
1.96333	72
1.96700	72
1.97067	70
1.97433	70
1.97800	72
1.98167	75
1.98533	79
1.98900	82
1.99267	82
1.99633	80
2.00000	80
2.00367	80
2.00733	80
2.01100	82
2.01467	84
2.01833	84
2.02200	84
2.02567	85
2.02933	87
2.03300	87
2.03667	87
2.04033	89
2.04400	89
2.04767	92
2.05133	95
2.05500	97
2.05867	98
2.06233	98
2.06600	100
2.06967	102
2.07333	104
2.07700	105
2.08067	108
2.08433	109
2.08800	108
2.09167	106
2.09533	104
2.09900	105
2.10267	106
2.10633	108
2.11000	109
2.11367	110
2.11733	110
2.12100	111
2.12467	113
2.12833	112
2.13200	113
2.13567	116
2.13933	119
2.14300	121
2.14667	123
2.15033	123
2.15400	124
2.15767	125
2.16133	123
2.16500	123
2.16867	123
2.17233	125
2.17600	126
2.17967	127
2.18333	128
2.18700	129
2.19067	131
2.19433	132
2.19800	132
2.20167	134
2.20533	137
2.20900	138
2.21267	139
2.21633	139
2.22000	140
2.22367	142
2.22733	142
2.23100	143
2.23467	144
2.23833	147
2.24200	149
2.24567	152
2.24933	152
2.25300	151
2.25667	151
2.26033	151
2.26400	153
2.26767	154
2.27133	154
2.27500	153
2.27867	153
2.28233	155
2.28600	156
2.28967	155
2.29333	156
2.29700	157
2.30067	158
2.30433	158
2.30800	160
2.31167	164
2.31533	165
2.31900	168
2.32267	168
2.32633	167
2.33000	166
2.33367	164
2.33733	163
2.34100	165
2.34467	167
2.34833	170
2.35200	171
2.35567	169
2.35933	172
2.36300	176
2.36667	180
2.37033	183
2.37400	183
2.37767	182
2.38133	182
2.38500	182
2.38867	179
2.39233	179
2.39600	182
2.39967	185
2.40333	188
2.40700	189
2.41067	192
2.41433	194
2.41800	196
2.42167	199
2.42533	201
2.42900	200
2.43267	200
2.43633	202
2.44000	203
2.44367	229
2.44733	296
2.45100	369
2.45467	428
2.45833	465
2.46200	470
2.46567	451
2.46933	428
2.47300	407
2.47667	389
2.48033	376
2.48400	371
2.48767	364
2.49133	351
2.49500	331
2.49867	308
2.50233	288
2.50600	275
2.50967	266
2.51333	260
2.51700	255
2.52067	253
2.52433	253
2.52800	256
2.53167	259
2.53533	264
2.53900	268
2.54267	275
2.54633	281
2.55000	283
2.55367	281
2.55733	277
2.56100	272
2.56467	265
2.56833	257
2.57200	247
2.57567	238
2.57933	231
2.58300	223
2.58667	216
2.59033	211
2.59400	207
2.59767	202
2.60133	194
2.60500	185
2.60867	171
2.61233	155
2.61600	136
2.61967	115
2.62333	96
2.62700	79
2.63067	66
2.63433	56
2.63800	50
2.64167	49
2.64533	53
2.64900	58
2.65267	65
2.65633	71
2.66000	80
2.66367	91
2.66733	99
2.67100	108
2.67467	118
2.67833	130
2.68200	139
2.68567	145
2.68933	150
2.69300	152
2.69667	154
2.70033	159
2.70400	162
2.70767	160
2.71133	159
2.71500	157
2.71867	156
2.72233	155
2.72600	155
2.72967	155
2.73333	157
2.73700	159
2.74067	157
2.74433	155
2.74800	152
2.75167	152
2.75533	154
2.75900	155
2.76267	155
2.76633	153
2.77000	152
2.77367	152
2.77733	153
2.78100	153
2.78467	153
2.78833	152
2.79200	151
2.79567	151
2.79933	152
2.80300	152
2.80667	153
2.81033	155
2.81400	157
2.81767	165
2.82133	184
2.82500	221
2.82867	298
2.83233	434
2.83600	652
2.83967	962
2.84333	1369
2.84700	1867
2.85067	2426
2.85433	3003
2.85800	3556
2.86167	4035
2.86533	4400
2.86900	4631
2.87267	4723
2.87633	4683
2.88000	4532
2.88367	4295
2.88733	3999
2.89100	3673
2.89467	3335
2.89833	3001
2.90200	2682
2.90567	2384
2.90933	2110
2.91300	1861
2.91667	1639
2.92033	1443
2.92400	1269
2.92767	1116
2.93133	983
2.93500	869
2.93867	770
2.94233	685
2.94600	610
2.94967	545
2.95333	490
2.95700	444
2.96067	403
2.96433	369
2.96800	341
2.97167	315
2.97533	293
2.97900	274
2.98267	257
2.98633	242
2.99000	228
2.99367	215
2.99733	206
3.00100	199
3.00467	195
3.00833	192
3.01200	188
3.01567	182
3.01933	177
3.02300	172
3.02667	166
3.03033	160
3.03400	144
3.03767	130
3.04133	129
3.04500	142
3.04867	171
3.05233	209
3.05600	246
3.05967	285
3.06333	320
3.06700	352
3.07067	381
3.07433	410
3.07800	440
3.08167	467
3.08533	490
3.08900	513
3.09267	536
3.09633	555
3.10000	572
3.10367	588
3.10733	600
3.11100	609
3.11467	617
3.11833	623
3.12200	628
3.12567	635
3.12933	640
3.13300	647
3.13667	654
3.14033	659
3.14400	663
3.14767	666
3.15133	670
3.15500	673
3.15867	674
3.16233	677
3.16600	682
3.16967	685
3.17333	688
3.17700	692
3.18067	700
3.18433	708
3.18800	712
3.19167	714
3.19533	717
3.19900	719
3.20267	724
3.20633	731
3.21000	734
3.21367	737
3.21733	738
3.22100	738
3.22467	737
3.22833	736
3.23200	732
3.23567	728
3.23933	725
3.24300	721
3.24667	718
3.25033	714
3.25400	710
3.25767	707
3.26133	702
3.26500	696
3.26867	689
3.27233	684
3.27600	680
3.27967	671
3.28333	666
3.28700	658
3.29067	650
3.29433	642
3.29800	637
3.30167	631
3.30533	624
3.30900	616
3.31267	611
3.31633	609
3.32000	605
3.32367	598
3.32733	593
3.33100	590
3.33467	587
3.33833	584
3.34200	580
3.34567	575
3.34933	571
3.35300	569
3.35667	568
3.36033	568
3.36400	568
3.36767	566
3.37133	562
3.37500	557
3.37867	555
3.38233	555
3.38600	552
3.38967	549
3.39333	546
3.39700	543
3.40067	542
3.40433	541
3.40800	541
3.41167	542
3.41533	543
3.41900	544
3.42267	542
3.42633	539
3.43000	537
3.43367	536
3.43733	535
3.44100	535
3.44467	534
3.44833	531
3.45200	528
3.45567	525
3.45933	524
3.46300	522
3.46667	520
3.47033	520
3.47400	517
3.47767	511
3.48133	510
3.48500	509
3.48867	506
3.49233	502
3.49600	499
3.49967	500
3.50333	500
3.50700	498
3.51067	496
3.51433	496
3.51800	496
3.52167	492
3.52533	488
3.52900	484
3.53267	483
3.53633	482
3.54000	481
3.54367	481
3.54733	479
3.55100	475
3.55467	474
3.55833	473
3.56200	471
3.56567	468
3.56933	467
3.57300	466
3.57667	461
3.58033	456
3.58400	452
3.58767	447
3.59133	444
3.59500	442
3.59867	440
3.60233	441
3.60600	441
3.60967	442
3.61333	442
3.61700	437
3.62067	433
3.62433	432
3.62800	433
3.63167	433
3.63533	433
3.63900	432
3.64267	431
3.64633	431
3.65000	431
3.65367	428
3.65733	427
3.66100	427
3.66467	425
3.66833	426
3.67200	426
3.67567	423
3.67933	421
3.68300	420
3.68667	418
3.69033	416
3.69400	416
3.69767	414
3.70133	409
3.70500	406
3.70867	405
3.71233	404
3.71600	405
3.71967	404
3.72333	403
3.72700	402
3.73067	400
3.73433	398
3.73800	397
3.74167	400
3.74533	400
3.74900	397
3.75267	395
3.75633	395
3.76000	395
3.76367	395
3.76733	395
3.77100	393
3.77467	393
3.77833	392
3.78200	391
3.78567	389
3.78933	389
3.79300	390
3.79667	390
3.80033	388
3.80400	387
3.80767	388
3.81133	390
3.81500	391
3.81867	389
3.82233	387
3.82600	386
3.82967	385
3.83333	386
3.83700	387
3.84067	386
3.84433	383
3.84800	382
3.85167	381
3.85533	382
3.85900	380
3.86267	379
3.86633	376
3.87000	374
3.87367	374
3.87733	375
3.88100	376
3.88467	378
3.88833	379
3.89200	380
3.89567	379
3.89933	377
3.90300	375
3.90667	374
3.91033	372
3.91400	371
3.91767	370
3.92133	368
3.92500	367
3.92867	364
3.93233	360
3.93600	359
3.93967	358
3.94333	358
3.94700	361
3.95067	363
3.95433	362
3.95800	362
3.96167	362
3.96533	361
3.96900	359
3.97267	359
3.97633	359
3.98000	359
3.98367	358
3.98733	358
3.99100	355
3.99467	351
3.99833	348

[Status Trace (Column Oven Temperature)]
Interval(msec)	1000
# of Points	240
Start Time(min)	0.005
End Time(min)	3.988
Intensity Units	
Intensity Multiplier	1
R.Time (min)	Intensity
0.00512	35.03
0.02178	35.03
0.03845	35.04
0.05512	35.03
0.07178	35.05
0.08845	35.06
0.10512	35.06
0.12178	35.05
0.13845	35.05
0.15512	35.05
0.17178	35.04
0.18845	35.03
0.20512	35.02
0.22178	35.03
0.23845	35.04
0.25512	35.05
0.27178	35.05
0.28845	35.06
0.30512	35.05
0.32178	35.04
0.33845	35.04
0.35512	35.03
0.37178	35.03
0.38845	35.02
0.40512	35.02
0.42178	35.02
0.43845	35.02
0.45512	35.02
0.47178	35.03
0.48845	35.02
0.50512	35.02
0.52178	35.01
0.53845	35.00
0.55512	34.99
0.57178	34.97
0.58845	34.96
0.60512	34.97
0.62178	34.97
0.63845	34.98
0.65512	34.98
0.67178	34.99
0.68845	35.00
0.70512	35.01
0.72178	35.01
0.73845	35.01
0.75512	35.00
0.77178	35.00
0.78845	35.01
0.80512	35.00
0.82178	35.00
0.83845	35.00
0.85512	35.00
0.87178	35.00
0.88845	35.00
0.90512	35.00
0.92178	34.99
0.93845	34.99
0.95512	34.99
0.97178	34.99
0.98845	35.00
1.00512	35.00
1.02178	35.00
1.03845	35.00
1.05512	34.99
1.07178	34.98
1.08845	34.98
1.10512	34.99
1.12178	35.00
1.13845	34.99
1.15512	35.00
1.17178	35.00
1.18845	35.01
1.20512	35.01
1.22178	35.00
1.23845	35.00
1.25512	35.00
1.27178	34.99
1.28845	34.99
1.30512	34.99
1.32178	34.98
1.33845	35.00
1.35512	35.01
1.37178	35.01
1.38845	35.01
1.40512	35.00
1.42178	34.99
1.43845	34.99
1.45512	34.98
1.47178	34.99
1.48845	35.01
1.50512	35.00
1.52178	35.00
1.53845	35.00
1.55512	35.00
1.57178	35.00
1.58845	35.00
1.60512	35.05
1.62178	35.16
1.63845	35.35
1.65512	35.58
1.67178	35.91
1.68845	36.28
1.70512	36.63
1.72178	36.97
1.73845	37.30
1.75512	37.63
1.77178	37.95
1.78845	38.28
1.80512	38.61
1.82178	38.95
1.83845	39.29
1.85512	39.61
1.87178	39.94
1.88845	40.26
1.90512	40.59
1.92178	40.90
1.93845	41.22
1.95512	41.56
1.97178	41.89
1.98845	42.21
2.00512	42.52
2.02178	42.86
2.03845	43.18
2.05512	43.50
2.07178	43.83
2.08845	44.17
2.10512	44.50
2.12178	44.80
2.13845	45.14
2.15512	45.46
2.17178	45.78
2.18845	46.12
2.20512	46.42
2.22178	46.78
2.23845	47.09
2.25512	47.45
2.27178	47.80
2.28845	48.12
2.30512	48.45
2.32178	48.79
2.33845	49.11
2.35512	49.41
2.37178	49.64
2.38845	49.72
2.40512	49.69
2.42178	49.69
2.43845	49.71
2.45512	49.71
2.47178	49.71
2.48845	49.73
2.50512	49.74
2.52178	49.76
2.53845	49.77
2.55512	49.78
2.57178	49.79
2.58845	49.81
2.60512	49.80
2.62178	49.81
2.63845	49.80
2.65512	49.84
2.67178	49.85
2.68845	49.85
2.70512	49.85
2.72178	49.85
2.73845	49.86
2.75512	49.86
2.77178	49.85
2.78845	49.85
2.80512	49.87
2.82178	49.89
2.83845	49.91
2.85512	49.90
2.87178	49.89
2.88845	49.90
2.90512	49.91
2.92178	49.92
2.93845	49.94
2.95512	49.96
2.97178	49.98
2.98845	49.99
3.00512	50.00
3.02178	50.02
3.03845	50.02
3.05512	50.03
3.07178	50.05
3.08845	50.06
3.10512	50.06
3.12178	50.05
3.13845	50.06
3.15512	50.06
3.17178	50.07
3.18845	50.08
3.20512	50.09
3.22178	50.10
3.23845	50.11
3.25512	50.10
3.27178	50.10
3.28845	50.09
3.30512	50.07
3.32178	50.08
3.33845	50.08
3.35512	50.07
3.37178	50.07
3.38845	50.06
3.40512	50.06
3.42178	50.05
3.43845	50.04
3.45512	50.04
3.47178	50.03
3.48845	50.03
3.50512	50.02
3.52178	50.02
3.53845	50.03
3.55512	50.04
3.57178	50.05
3.58845	50.06
3.60512	50.05
3.62178	50.06
3.63845	50.06
3.65512	50.05
3.67178	50.05
3.68845	50.06
3.70512	50.06
3.72178	50.06
3.73845	50.06
3.75512	50.07
3.77178	50.06
3.78845	50.05
3.80512	50.05
3.82178	50.05
3.83845	50.06
3.85512	50.07
3.87178	50.07
3.88845	50.08
3.90512	50.07
3.92178	50.08
3.93845	50.09
3.95512	50.08
3.97178	50.07
3.98845	50.07

[Status Trace (Injection Unit Temperature)]
Interval(msec)	1000
# of Points	240
Start Time(min)	0.005
End Time(min)	3.988
Intensity Units	
Intensity Multiplier	1
R.Time (min)	Intensity
0.00512	99.98
0.02178	99.98
0.03845	99.98
0.05512	99.98
0.07178	99.98
0.08845	99.98
0.10512	99.98
0.12178	99.98
0.13845	99.98
0.15512	99.98
0.17178	99.98
0.18845	99.98
0.20512	99.98
0.22178	99.98
0.23845	99.99
0.25512	99.98
0.27178	99.98
0.28845	99.98
0.30512	99.98
0.32178	99.98
0.33845	99.98
0.35512	99.98
0.37178	99.98
0.38845	99.98
0.40512	99.99
0.42178	99.98
0.43845	99.98
0.45512	99.98
0.47178	99.99
0.48845	99.98
0.50512	99.98
0.52178	99.98
0.53845	99.98
0.55512	99.98
0.57178	99.98
0.58845	99.98
0.60512	99.98
0.62178	99.98
0.63845	99.98
0.65512	99.98
0.67178	99.97
0.68845	99.98
0.70512	99.97
0.72178	99.97
0.73845	99.97
0.75512	99.97
0.77178	99.97
0.78845	99.97
0.80512	99.97
0.82178	99.98
0.83845	99.97
0.85512	99.97
0.87178	99.97
0.88845	99.97
0.90512	99.97
0.92178	99.97
0.93845	99.97
0.95512	99.97
0.97178	99.97
0.98845	99.98
1.00512	99.98
1.02178	99.97
1.03845	99.98
1.05512	99.98
1.07178	99.98
1.08845	99.98
1.10512	99.98
1.12178	99.98
1.13845	99.98
1.15512	99.98
1.17178	99.98
1.18845	99.98
1.20512	99.98
1.22178	99.98
1.23845	99.98
1.25512	99.98
1.27178	99.98
1.28845	99.98
1.30512	99.98
1.32178	99.98
1.33845	99.98
1.35512	99.98
1.37178	99.99
1.38845	99.98
1.40512	99.98
1.42178	99.99
1.43845	99.99
1.45512	99.99
1.47178	99.98
1.48845	99.98
1.50512	99.99
1.52178	99.99
1.53845	99.99
1.55512	99.99
1.57178	99.99
1.58845	99.98
1.60512	99.98
1.62178	99.99
1.63845	99.99
1.65512	99.99
1.67178	99.99
1.68845	99.99
1.70512	99.98
1.72178	99.99
1.73845	99.99
1.75512	99.99
1.77178	99.99
1.78845	99.98
1.80512	99.99
1.82178	99.99
1.83845	99.99
1.85512	99.99
1.87178	99.99
1.88845	99.98
1.90512	99.98
1.92178	99.98
1.93845	99.98
1.95512	99.98
1.97178	99.98
1.98845	99.98
2.00512	99.98
2.02178	99.98
2.03845	99.98
2.05512	99.98
2.07178	99.98
2.08845	99.98
2.10512	99.98
2.12178	99.98
2.13845	99.97
2.15512	99.97
2.17178	99.98
2.18845	99.97
2.20512	99.97
2.22178	99.97
2.23845	99.97
2.25512	99.97
2.27178	99.97
2.28845	99.97
2.30512	99.97
2.32178	99.97
2.33845	99.97
2.35512	99.97
2.37178	99.97
2.38845	99.97
2.40512	99.97
2.42178	99.97
2.43845	99.97
2.45512	99.97
2.47178	99.97
2.48845	99.97
2.50512	99.97
2.52178	99.97
2.53845	99.97
2.55512	99.97
2.57178	99.97
2.58845	99.97
2.60512	99.97
2.62178	99.97
2.63845	99.97
2.65512	99.98
2.67178	99.97
2.68845	99.98
2.70512	99.98
2.72178	99.98
2.73845	99.98
2.75512	99.98
2.77178	99.99
2.78845	99.98
2.80512	99.99
2.82178	99.98
2.83845	99.99
2.85512	99.99
2.87178	99.99
2.88845	99.99
2.90512	100.00
2.92178	100.00
2.93845	100.00
2.95512	100.00
2.97178	100.01
2.98845	100.00
3.00512	100.01
3.02178	100.01
3.03845	100.01
3.05512	100.01
3.07178	100.01
3.08845	100.02
3.10512	100.01
3.12178	100.02
3.13845	100.02
3.15512	100.02
3.17178	100.02
3.18845	100.02
3.20512	100.03
3.22178	100.03
3.23845	100.03
3.25512	100.03
3.27178	100.03
3.28845	100.03
3.30512	100.03
3.32178	100.03
3.33845	100.03
3.35512	100.03
3.37178	100.03
3.38845	100.04
3.40512	100.03
3.42178	100.03
3.43845	100.04
3.45512	100.04
3.47178	100.04
3.48845	100.04
3.50512	100.04
3.52178	100.04
3.53845	100.04
3.55512	100.04
3.57178	100.04
3.58845	100.04
3.60512	100.04
3.62178	100.04
3.63845	100.05
3.65512	100.05
3.67178	100.04
3.68845	100.05
3.70512	100.05
3.72178	100.05
3.73845	100.05
3.75512	100.05
3.77178	100.05
3.78845	100.05
3.80512	100.05
3.82178	100.05
3.83845	100.05
3.85512	100.05
3.87178	100.05
3.88845	100.05
3.90512	100.05
3.92178	100.05
3.93845	100.04
3.95512	100.05
3.97178	100.05
3.98845	100.05

[Status Trace (Carrier Gas Pressure)]
Interval(msec)	1000
# of Points	240
Start Time(min)	0.005
End Time(min)	3.988
Intensity Units	
Intensity Multiplier	1
R.Time (min)	Intensity
0.00512	58.00
0.02178	55.80
0.03845	56.77
0.05512	58.88
0.07178	59.69
0.08845	58.14
0.10512	57.97
0.12178	58.01
0.13845	58.01
0.15512	58.01
0.17178	58.00
0.18845	58.00
0.20512	58.00
0.22178	58.00
0.23845	58.00
0.25512	58.00
0.27178	58.00
0.28845	58.00
0.30512	58.00
0.32178	58.00
0.33845	58.00
0.35512	58.00
0.37178	58.00
0.38845	58.00
0.40512	58.00
0.42178	58.00
0.43845	58.00
0.45512	58.00
0.47178	58.00
0.48845	58.00
0.50512	58.00
0.52178	58.00
0.53845	58.00
0.55512	58.00
0.57178	58.00
0.58845	58.00
0.60512	58.00
0.62178	58.00
0.63845	58.00
0.65512	58.00
0.67178	58.00
0.68845	58.00
0.70512	58.00
0.72178	58.00
0.73845	58.00
0.75512	58.00
0.77178	58.00
0.78845	58.00
0.80512	58.00
0.82178	58.00
0.83845	58.00
0.85512	58.00
0.87178	58.00
0.88845	58.00
0.90512	58.00
0.92178	58.00
0.93845	58.00
0.95512	58.00
0.97178	58.00
0.98845	58.00
1.00512	58.00
1.02178	58.00
1.03845	58.00
1.05512	58.00
1.07178	58.00
1.08845	58.00
1.10512	58.00
1.12178	58.00
1.13845	58.00
1.15512	58.00
1.17178	58.00
1.18845	58.00
1.20512	58.00
1.22178	58.00
1.23845	58.00
1.25512	58.00
1.27178	58.00
1.28845	58.00
1.30512	58.00
1.32178	58.00
1.33845	58.00
1.35512	58.00
1.37178	58.00
1.38845	58.00
1.40512	58.00
1.42178	58.00
1.43845	58.00
1.45512	58.00
1.47178	58.00
1.48845	58.00
1.50512	58.00
1.52178	58.00
1.53845	58.00
1.55512	58.00
1.57178	58.00
1.58845	58.00
1.60512	58.00
1.62178	58.00
1.63845	58.01
1.65512	58.00
1.67178	58.01
1.68845	58.01
1.70512	58.00
1.72178	58.00
1.73845	58.00
1.75512	58.00
1.77178	58.00
1.78845	58.00
1.80512	58.00
1.82178	58.00
1.83845	58.00
1.85512	58.00
1.87178	58.00
1.88845	58.00
1.90512	58.00
1.92178	58.00
1.93845	58.00
1.95512	58.00
1.97178	58.00
1.98845	58.00
2.00512	58.00
2.02178	58.00
2.03845	58.00
2.05512	58.00
2.07178	58.00
2.08845	58.00
2.10512	58.00
2.12178	58.00
2.13845	58.00
2.15512	58.00
2.17178	58.00
2.18845	58.00
2.20512	58.00
2.22178	58.00
2.23845	58.00
2.25512	58.00
2.27178	58.00
2.28845	58.00
2.30512	58.00
2.32178	58.00
2.33845	58.00
2.35512	58.00
2.37178	58.00
2.38845	57.99
2.40512	57.99
2.42178	58.00
2.43845	58.00
2.45512	58.00
2.47178	58.00
2.48845	58.00
2.50512	57.99
2.52178	57.98
2.53845	58.00
2.55512	58.00
2.57178	58.00
2.58845	58.00
2.60512	58.00
2.62178	58.00
2.63845	58.00
2.65512	58.00
2.67178	58.00
2.68845	58.00
2.70512	58.00
2.72178	58.00
2.73845	58.00
2.75512	58.00
2.77178	58.00
2.78845	58.00
2.80512	58.00
2.82178	58.00
2.83845	58.00
2.85512	58.00
2.87178	58.00
2.88845	58.00
2.90512	58.00
2.92178	58.00
2.93845	58.00
2.95512	58.00
2.97178	58.00
2.98845	58.00
3.00512	58.00
3.02178	58.00
3.03845	58.00
3.05512	58.00
3.07178	58.00
3.08845	58.00
3.10512	58.00
3.12178	58.00
3.13845	58.00
3.15512	58.00
3.17178	58.00
3.18845	58.00
3.20512	58.00
3.22178	58.00
3.23845	58.00
3.25512	58.00
3.27178	58.00
3.28845	58.00
3.30512	58.00
3.32178	58.00
3.33845	58.00
3.35512	58.00
3.37178	58.00
3.38845	58.00
3.40512	58.00
3.42178	58.00
3.43845	58.00
3.45512	58.00
3.47178	58.00
3.48845	58.00
3.50512	58.00
3.52178	58.00
3.53845	58.00
3.55512	58.00
3.57178	58.00
3.58845	58.00
3.60512	58.00
3.62178	58.00
3.63845	58.00
3.65512	58.00
3.67178	58.00
3.68845	58.00
3.70512	58.00
3.72178	58.00
3.73845	58.00
3.75512	58.00
3.77178	58.00
3.78845	58.00
3.80512	58.00
3.82178	58.00
3.83845	58.00
3.85512	58.00
3.87178	58.00
3.88845	58.00
3.90512	58.00
3.92178	58.00
3.93845	58.00
3.95512	58.00
3.97178	58.00
3.98845	58.00

[Status Trace (Carrier Gas Flow)]
Interval(msec)	1000
# of Points	240
Start Time(min)	0.005
End Time(min)	3.988
Intensity Units	
Intensity Multiplier	1
R.Time (min)	Intensity
0.00512	34.52
0.02178	34.55
0.03845	34.54
0.05512	34.55
0.07178	34.49
0.08845	34.52
0.10512	34.52
0.12178	34.52
0.13845	34.52
0.15512	34.52
0.17178	34.52
0.18845	34.52
0.20512	34.52
0.22178	34.52
0.23845	34.51
0.25512	34.52
0.27178	34.52
0.28845	34.52
0.30512	34.52
0.32178	34.52
0.33845	34.52
0.35512	34.52
0.37178	34.52
0.38845	34.52
0.40512	34.52
0.42178	34.52
0.43845	34.52
0.45512	34.52
0.47178	34.52
0.48845	34.52
0.50512	34.52
0.52178	34.52
0.53845	34.52
0.55512	34.52
0.57178	34.52
0.58845	34.52
0.60512	34.52
0.62178	34.52
0.63845	34.52
0.65512	34.52
0.67178	34.52
0.68845	34.52
0.70512	34.52
0.72178	34.52
0.73845	34.52
0.75512	34.52
0.77178	34.52
0.78845	34.52
0.80512	34.52
0.82178	34.52
0.83845	34.52
0.85512	34.52
0.87178	34.52
0.88845	34.53
0.90512	34.51
0.92178	34.52
0.93845	34.51
0.95512	34.52
0.97178	34.52
0.98845	34.52
1.00512	34.52
1.02178	34.52
1.03845	34.52
1.05512	34.52
1.07178	34.52
1.08845	34.52
1.10512	34.52
1.12178	34.52
1.13845	34.52
1.15512	34.52
1.17178	34.52
1.18845	34.52
1.20512	34.52
1.22178	34.52
1.23845	34.52
1.25512	34.52
1.27178	34.52
1.28845	34.52
1.30512	34.52
1.32178	34.52
1.33845	34.52
1.35512	34.52
1.37178	34.52
1.38845	34.52
1.40512	34.52
1.42178	34.52
1.43845	34.52
1.45512	34.52
1.47178	34.52
1.48845	34.52
1.50512	34.52
1.52178	34.52
1.53845	34.52
1.55512	34.52
1.57178	34.52
1.58845	34.52
1.60512	34.52
1.62178	34.52
1.63845	34.52
1.65512	34.52
1.67178	34.52
1.68845	34.52
1.70512	34.52
1.72178	34.52
1.73845	34.52
1.75512	34.52
1.77178	34.52
1.78845	34.52
1.80512	34.52
1.82178	34.52
1.83845	34.52
1.85512	34.52
1.87178	34.52
1.88845	34.52
1.90512	34.52
1.92178	34.52
1.93845	34.52
1.95512	34.52
1.97178	34.52
1.98845	34.52
2.00512	34.52
2.02178	34.52
2.03845	34.52
2.05512	34.52
2.07178	34.52
2.08845	34.52
2.10512	34.52
2.12178	34.52
2.13845	34.52
2.15512	34.52
2.17178	34.52
2.18845	34.52
2.20512	34.52
2.22178	34.52
2.23845	34.52
2.25512	34.52
2.27178	34.52
2.28845	34.52
2.30512	34.52
2.32178	34.52
2.33845	34.52
2.35512	34.52
2.37178	34.52
2.38845	34.52
2.40512	34.52
2.42178	34.52
2.43845	34.52
2.45512	34.52
2.47178	34.51
2.48845	34.52
2.50512	34.54
2.52178	34.52
2.53845	34.52
2.55512	34.52
2.57178	34.52
2.58845	34.52
2.60512	34.52
2.62178	34.52
2.63845	34.52
2.65512	34.52
2.67178	34.52
2.68845	34.52
2.70512	34.52
2.72178	34.52
2.73845	34.52
2.75512	34.52
2.77178	34.52
2.78845	34.52
2.80512	34.52
2.82178	34.52
2.83845	34.52
2.85512	34.52
2.87178	34.52
2.88845	34.52
2.90512	34.52
2.92178	34.52
2.93845	34.52
2.95512	34.52
2.97178	34.52
2.98845	34.52
3.00512	34.52
3.02178	34.52
3.03845	34.52
3.05512	34.52
3.07178	34.52
3.08845	34.51
3.10512	34.51
3.12178	34.52
3.13845	34.52
3.15512	34.52
3.17178	34.52
3.18845	34.52
3.20512	34.52
3.22178	34.52
3.23845	34.52
3.25512	34.52
3.27178	34.52
3.28845	34.51
3.30512	34.52
3.32178	34.52
3.33845	34.52
3.35512	34.52
3.37178	34.52
3.38845	34.52
3.40512	34.52
3.42178	34.51
3.43845	34.52
3.45512	34.52
3.47178	34.52
3.48845	34.53
3.50512	34.52
3.52178	34.51
3.53845	34.52
3.55512	34.52
3.57178	34.51
3.58845	34.51
3.60512	34.51
3.62178	34.51
3.63845	34.51
3.65512	34.52
3.67178	34.51
3.68845	34.52
3.70512	34.52
3.72178	34.52
3.73845	34.52
3.75512	34.52
3.77178	34.52
3.78845	34.52
3.80512	34.52
3.82178	34.52
3.83845	34.52
3.85512	34.52
3.87178	34.52
3.88845	34.52
3.90512	34.53
3.92178	34.52
3.93845	34.52
3.95512	34.52
3.97178	34.52
3.98845	34.51

[Status Trace (Column Flow)]
Interval(msec)	1000
# of Points	240
Start Time(min)	0.005
End Time(min)	3.988
Intensity Units	
Intensity Multiplier	1
R.Time (min)	Intensity
0.00512	5.57
0.02178	5.32
0.03845	5.43
0.05512	5.68
0.07178	5.77
0.08845	5.59
0.10512	5.57
0.12178	5.57
0.13845	5.57
0.15512	5.57
0.17178	5.57
0.18845	5.57
0.20512	5.57
0.22178	5.57
0.23845	5.57
0.25512	5.57
0.27178	5.57
0.28845	5.57
0.30512	5.57
0.32178	5.57
0.33845	5.57
0.35512	5.57
0.37178	5.57
0.38845	5.57
0.40512	5.57
0.42178	5.57
0.43845	5.57
0.45512	5.57
0.47178	5.57
0.48845	5.57
0.50512	5.57
0.52178	5.57
0.53845	5.57
0.55512	5.57
0.57178	5.57
0.58845	5.58
0.60512	5.58
0.62178	5.57
0.63845	5.57
0.65512	5.57
0.67178	5.57
0.68845	5.57
0.70512	5.57
0.72178	5.57
0.73845	5.57
0.75512	5.57
0.77178	5.57
0.78845	5.57
0.80512	5.57
0.82178	5.57
0.83845	5.57
0.85512	5.57
0.87178	5.57
0.88845	5.57
0.90512	5.57
0.92178	5.57
0.93845	5.57
0.95512	5.57
0.97178	5.57
0.98845	5.57
1.00512	5.57
1.02178	5.57
1.03845	5.57
1.05512	5.57
1.07178	5.57
1.08845	5.57
1.10512	5.57
1.12178	5.57
1.13845	5.57
1.15512	5.57
1.17178	5.57
1.18845	5.57
1.20512	5.57
1.22178	5.57
1.23845	5.57
1.25512	5.57
1.27178	5.57
1.28845	5.57
1.30512	5.57
1.32178	5.57
1.33845	5.57
1.35512	5.57
1.37178	5.57
1.38845	5.57
1.40512	5.57
1.42178	5.57
1.43845	5.57
1.45512	5.57
1.47178	5.57
1.48845	5.57
1.50512	5.57
1.52178	5.57
1.53845	5.57
1.55512	5.57
1.57178	5.57
1.58845	5.57
1.60512	5.57
1.62178	5.57
1.63845	5.56
1.65512	5.56
1.67178	5.55
1.68845	5.53
1.70512	5.52
1.72178	5.51
1.73845	5.50
1.75512	5.49
1.77178	5.48
1.78845	5.47
1.80512	5.46
1.82178	5.45
1.83845	5.44
1.85512	5.43
1.87178	5.42
1.88845	5.41
1.90512	5.40
1.92178	5.39
1.93845	5.38
1.95512	5.37
1.97178	5.36
1.98845	5.35
2.00512	5.34
2.02178	5.33
2.03845	5.32
2.05512	5.31
2.07178	5.30
2.08845	5.29
2.10512	5.28
2.12178	5.27
2.13845	5.27
2.15512	5.26
2.17178	5.25
2.18845	5.24
2.20512	5.23
2.22178	5.22
2.23845	5.21
2.25512	5.20
2.27178	5.19
2.28845	5.18
2.30512	5.17
2.32178	5.16
2.33845	5.15
2.35512	5.14
2.37178	5.14
2.38845	5.13
2.40512	5.13
2.42178	5.13
2.43845	5.13
2.45512	5.13
2.47178	5.13
2.48845	5.13
2.50512	5.13
2.52178	5.13
2.53845	5.13
2.55512	5.13
2.57178	5.13
2.58845	5.13
2.60512	5.13
2.62178	5.13
2.63845	5.13
2.65512	5.13
2.67178	5.13
2.68845	5.13
2.70512	5.13
2.72178	5.13
2.73845	5.13
2.75512	5.13
2.77178	5.13
2.78845	5.13
2.80512	5.13
2.82178	5.13
2.83845	5.13
2.85512	5.13
2.87178	5.13
2.88845	5.13
2.90512	5.13
2.92178	5.13
2.93845	5.13
2.95512	5.13
2.97178	5.13
2.98845	5.13
3.00512	5.13
3.02178	5.13
3.03845	5.13
3.05512	5.13
3.07178	5.13
3.08845	5.13
3.10512	5.13
3.12178	5.13
3.13845	5.13
3.15512	5.13
3.17178	5.12
3.18845	5.12
3.20512	5.12
3.22178	5.12
3.23845	5.12
3.25512	5.12
3.27178	5.12
3.28845	5.12
3.30512	5.12
3.32178	5.12
3.33845	5.12
3.35512	5.12
3.37178	5.12
3.38845	5.12
3.40512	5.13
3.42178	5.13
3.43845	5.13
3.45512	5.13
3.47178	5.13
3.48845	5.13
3.50512	5.13
3.52178	5.13
3.53845	5.13
3.55512	5.13
3.57178	5.13
3.58845	5.13
3.60512	5.13
3.62178	5.12
3.63845	5.12
3.65512	5.13
3.67178	5.13
3.68845	5.13
3.70512	5.13
3.72178	5.12
3.73845	5.12
3.75512	5.12
3.77178	5.13
3.78845	5.13
3.80512	5.13
3.82178	5.13
3.83845	5.13
3.85512	5.12
3.87178	5.12
3.88845	5.12
3.90512	5.12
3.92178	5.12
3.93845	5.12
3.95512	5.12
3.97178	5.12
3.98845	5.12

[Status Trace (Linear Velocity)]
Interval(msec)	1000
# of Points	240
Start Time(min)	0.005
End Time(min)	3.988
Intensity Units	
Intensity Multiplier	1
R.Time (min)	Intensity
0.00512	39.03
0.02178	37.58
0.03845	38.22
0.05512	39.60
0.07178	40.13
0.08845	39.11
0.10512	39.00
0.12178	39.03
0.13845	39.03
0.15512	39.03
0.17178	39.03
0.18845	39.03
0.20512	39.03
0.22178	39.03
0.23845	39.03
0.25512	39.03
0.27178	39.02
0.28845	39.02
0.30512	39.02
0.32178	39.03
0.33845	39.03
0.35512	39.03
0.37178	39.03
0.38845	39.03
0.40512	39.03
0.42178	39.03
0.43845	39.03
0.45512	39.03
0.47178	39.03
0.48845	39.03
0.50512	39.03
0.52178	39.03
0.53845	39.03
0.55512	39.03
0.57178	39.03
0.58845	39.03
0.60512	39.03
0.62178	39.03
0.63845	39.03
0.65512	39.03
0.67178	39.03
0.68845	39.03
0.70512	39.03
0.72178	39.03
0.73845	39.03
0.75512	39.03
0.77178	39.03
0.78845	39.03
0.80512	39.03
0.82178	39.03
0.83845	39.03
0.85512	39.03
0.87178	39.03
0.88845	39.03
0.90512	39.03
0.92178	39.03
0.93845	39.03
0.95512	39.03
0.97178	39.03
0.98845	39.03
1.00512	39.03
1.02178	39.03
1.03845	39.03
1.05512	39.03
1.07178	39.03
1.08845	39.03
1.10512	39.03
1.12178	39.03
1.13845	39.03
1.15512	39.03
1.17178	39.03
1.18845	39.03
1.20512	39.03
1.22178	39.03
1.23845	39.03
1.25512	39.03
1.27178	39.03
1.28845	39.03
1.30512	39.03
1.32178	39.03
1.33845	39.03
1.35512	39.03
1.37178	39.03
1.38845	39.03
1.40512	39.03
1.42178	39.03
1.43845	39.03
1.45512	39.03
1.47178	39.03
1.48845	39.03
1.50512	39.03
1.52178	39.03
1.53845	39.03
1.55512	39.03
1.57178	39.03
1.58845	39.03
1.60512	39.03
1.62178	39.02
1.63845	39.00
1.65512	38.98
1.67178	38.95
1.68845	38.91
1.70512	38.88
1.72178	38.84
1.73845	38.81
1.75512	38.78
1.77178	38.75
1.78845	38.72
1.80512	38.69
1.82178	38.65
1.83845	38.62
1.85512	38.59
1.87178	38.56
1.88845	38.53
1.90512	38.50
1.92178	38.47
1.93845	38.44
1.95512	38.41
1.97178	38.38
1.98845	38.35
2.00512	38.32
2.02178	38.29
2.03845	38.26
2.05512	38.23
2.07178	38.20
2.08845	38.17
2.10512	38.14
2.12178	38.11
2.13845	38.08
2.15512	38.05
2.17178	38.02
2.18845	37.99
2.20512	37.97
2.22178	37.93
2.23845	37.90
2.25512	37.88
2.27178	37.84
2.28845	37.81
2.30512	37.79
2.32178	37.75
2.33845	37.72
2.35512	37.70
2.37178	37.67
2.38845	37.66
2.40512	37.67
2.42178	37.67
2.43845	37.67
2.45512	37.67
2.47178	37.67
2.48845	37.67
2.50512	37.66
2.52178	37.66
2.53845	37.66
2.55512	37.66
2.57178	37.66
2.58845	37.66
2.60512	37.66
2.62178	37.66
2.63845	37.66
2.65512	37.66
2.67178	37.66
2.68845	37.66
2.70512	37.66
2.72178	37.66
2.73845	37.66
2.75512	37.66
2.77178	37.66
2.78845	37.66
2.80512	37.66
2.82178	37.65
2.83845	37.65
2.85512	37.65
2.87178	37.65
2.88845	37.65
2.90512	37.65
2.92178	37.65
2.93845	37.65
2.95512	37.65
2.97178	37.65
2.98845	37.65
3.00512	37.64
3.02178	37.64
3.03845	37.64
3.05512	37.64
3.07178	37.64
3.08845	37.64
3.10512	37.64
3.12178	37.64
3.13845	37.64
3.15512	37.64
3.17178	37.64
3.18845	37.64
3.20512	37.64
3.22178	37.64
3.23845	37.63
3.25512	37.63
3.27178	37.64
3.28845	37.64
3.30512	37.64
3.32178	37.64
3.33845	37.64
3.35512	37.64
3.37178	37.64
3.38845	37.64
3.40512	37.64
3.42178	37.64
3.43845	37.64
3.45512	37.64
3.47178	37.64
3.48845	37.64
3.50512	37.64
3.52178	37.64
3.53845	37.64
3.55512	37.64
3.57178	37.64
3.58845	37.64
3.60512	37.64
3.62178	37.64
3.63845	37.64
3.65512	37.64
3.67178	37.64
3.68845	37.64
3.70512	37.64
3.72178	37.64
3.73845	37.64
3.75512	37.64
3.77178	37.64
3.78845	37.64
3.80512	37.64
3.82178	37.64
3.83845	37.64
3.85512	37.64
3.87178	37.64
3.88845	37.64
3.90512	37.64
3.92178	37.64
3.93845	37.64
3.95512	37.64
3.97178	37.64
3.98845	37.64

